  -9.9505465e-01  -7.5373394e-01   9.1058987e-02  -1.3172095e-01   8.5005138e-01  -2.7739689e-01   5.9738453e-01  -5.7978104e-02  -9.2472176e-03  -5.6973333e-01   1.5269711e-01  -4.2449358e-01  -9.0505301e-04  -9.0847875e-01   2.6282572e-01   8.4973990e-01  -8.4538518e-03  -7.9422023e-01  -7.5666056e-01   9.4096595e-02   1.5374316e-02   3.1171439e-01  -6.6233905e-01   6.1902864e-01   9.8455260e-01   7.6608416e-01  -8.9713661e-01   2.1234919e-01   9.8488646e-01  -6.9723443e-01  -3.3331630e-02   4.3369912e-02  -9.9684406e-01  -3.0478095e-01  -9.5841450e-01   8.4777296e-01   8.8561024e-01  -1.7217571e-01  -4.7011487e-02  -4.2308568e-01  -5.7746186e-01  -6.0692062e-01   5.3063602e-01   4.5899725e-01   9.4134121e-01   3.7817770e-01  -5.6507547e-01  -2.1182893e-01   5.1209867e-01  -7.2269274e-01  -6.1577179e-01  -6.4702632e-01   7.9950758e-01   4.9174924e-01  -7.8201585e-01   6.4033609e-01   2.1487040e-01   3.4430797e-02   2.1159165e-01   7.0500636e-01  -4.3495210e-01   7.1663144e-01  -8.7303228e-01   7.3078794e-01   1.7686724e-01  -3.4345874e-01   7.1305499e-01   5.8205584e-01   7.0728896e-01  -1.5566739e-02  -6.9528055e-01  -5.9429716e-01  -3.2580943e-01   6.3249322e-01  -6.6964926e-01   5.1666015e-03   4.0883204e-01  -8.1870981e-01  -9.2902100e-01   8.5577581e-01  -4.9748008e-01  -4.2673963e-01   6.8394582e-01  -2.8097683e-02   6.4495932e-01  -6.2623593e-01   4.9414855e-02   7.3710514e-01   5.7832951e-02   1.6826425e-01  -4.3597400e-02   7.3507597e-01  -7.3902566e-01   1.9442289e-01   6.8193636e-01   6.3882710e-01   2.1213520e-01   9.2072365e-01   5.1990573e-01  -6.3985287e-01  -3.2839972e-01  -6.4045203e-01  -5.4690870e-01   2.7826735e-01  -2.5558136e-01   5.8934702e-01  -6.3045332e-01  -3.7197479e-01   3.9516505e-02  -3.4141270e-01   5.8146321e-02  -4.0890999e-01   6.2285334e-02   9.7501458e-01  -1.8890721e-01  -2.8023449e-01  -4.8690413e-01   3.9791608e-01  -8.8199056e-01  -5.2598880e-01   7.1565380e-01  -2.6341182e-01   1.6261942e-01  -3.1836123e-01  -3.7084053e-01   2.5238012e-01  -6.8946191e-01   5.1921416e-02  -2.1291468e-01  -9.0913074e-01  -3.4921959e-01   3.2619501e-01  -6.6097198e-01  -2.1257437e-01  -7.3396896e-01   3.8397253e-01  -3.2523278e-01  -2.3974638e-02   1.2595074e-01  -5.0693792e-01  -5.8535993e-01   6.1651492e-02   5.5733556e-01   1.8962477e-01  -4.4958417e-01  -3.0249295e-01  -7.1026190e-01  -9.3682408e-01  -3.6284790e-01   1.8912062e-01  -7.7858208e-01  -2.1060729e-01   9.3692448e-02   6.8838453e-02  -1.6189108e-01  -5.4854936e-01  -5.4003031e-01  -2.7179507e-01   6.1995052e-01   6.0335118e-01  -2.3235392e-01   9.6341444e-01  -9.4094821e-01  -4.9829419e-01   2.5257869e-01   2.5344135e-01  -5.7730343e-01  -1.9902951e-01  -7.9681722e-01   4.2050410e-02  -4.2250831e-01   5.7193790e-01  -2.3798456e-01   4.3193271e-01  -5.1708519e-01  -5.0563033e-01   4.2329176e-01   8.2019400e-01   6.0985684e-01  -8.4165231e-01  -7.4288242e-01  -6.4993773e-01  -2.5437910e-01  -8.2171974e-01  -1.2220566e-01  -5.9170613e-02  -5.6340486e-01  -5.6456395e-01   9.6454226e-01  -4.2574196e-01  -7.5838759e-01  -3.2657659e-02   1.9433327e-01  -1.9915923e-01   2.4544724e-01  -4.6152378e-01   8.2878365e-02  -6.6623653e-01   9.7259547e-01  -5.6282296e-01   3.2903219e-01   2.3477146e-01  -3.3605155e-01  -7.2997081e-01  -4.7642488e-01   5.0095060e-01   2.2627126e-01   5.2317405e-01   4.8313842e-01  -7.5370504e-01   9.5854796e-02  -3.7793998e-01   4.9545163e-01  -6.9449371e-01  -6.4924363e-01  -8.8235393e-03   7.4681431e-01   6.0176693e-01   9.5236194e-01   3.7508025e-01   9.9854970e-01  -7.2252797e-01  -7.9415052e-01  -9.1912992e-01  -3.8822278e-01   3.2123237e-01  -3.5805696e-01  -5.3019109e-01  -1.4248218e-01   5.3426318e-01  -6.9169758e-01  -7.2290671e-01  -5.7321790e-01   7.9956704e-01  -2.4067506e-01  -9.5357350e-01  -5.7847189e-01   1.1774005e-01  -7.9096337e-01  -5.4941429e-01  -3.9684733e-01  -3.2658921e-01  -8.4420862e-01  -5.2422018e-03  -4.6271572e-03   5.8901844e-01  -4.3639561e-01   3.2711223e-02   6.8739277e-01  -5.2162222e-01   8.2586889e-01   7.6396234e-02   3.2875978e-01  -4.2624858e-01  -4.6951242e-01  -5.5491148e-01  -7.2924859e-01  -7.4455859e-01  -6.6101850e-01   5.6362738e-01   5.5151372e-01   6.9034718e-01   6.1795915e-01   2.6885418e-01  -6.0371759e-02  -9.0408800e-01   9.0838301e-03   1.4193994e-01  -3.2399099e-01  -1.1089168e-01  -6.5484788e-01  -1.1095470e-02   6.0797135e-01  -4.6006729e-01   1.8151934e-01  -3.5918825e-01   8.4163952e-01  -8.3471670e-01   9.6728803e-01   7.3193959e-01  -5.3590696e-01   5.6139282e-01   9.1549848e-01   1.4353079e-01   8.1715939e-01   8.4001572e-01  -4.0303424e-01  -5.4122670e-01   3.8220136e-01  -3.1548434e-01  -2.6366048e-02   2.7146343e-01  -4.1492944e-01   1.1149510e-01   3.0465373e-01   1.3481681e-01  -2.9500688e-01  -5.1188926e-01   1.5424384e-01   5.1535972e-01  -9.1493666e-01   4.4632162e-01  -9.9482413e-01  -6.0908513e-01  -7.8762972e-01  -1.8870898e-01  -2.0453917e-01   7.6618435e-01   9.1132794e-01   6.9699400e-01  -1.5665418e-01  -9.8833078e-01   7.4540936e-01  -7.4283207e-01   3.8701525e-01   9.3598296e-01  -9.1769939e-02  -9.3928011e-01  -5.0610466e-01   8.9931281e-01  -3.1324157e-01  -5.5155221e-01   7.0546422e-01  -6.2928528e-01  -1.2341849e-01   1.8655173e-01  -4.6309123e-01  -6.4750400e-01   3.8359847e-01  -3.6193066e-03   9.1961559e-01  -4.4879403e-01  -9.5185479e-01  -6.5303478e-01   4.3551069e-01   2.2791170e-01  -6.9555245e-01  -3.0072291e-01   9.0843970e-01  -8.1908443e-01  -1.4329258e-01   1.3293883e-01  -3.6760688e-01   9.9655881e-02  -7.0724233e-01   2.4187839e-01   6.5905544e-01   9.1154940e-01   3.7256017e-01   3.6514169e-01   7.0652990e-01   1.6678941e-01  -8.5928519e-01  -9.0847261e-01  -5.0922877e-01   7.0235867e-01  -3.1847071e-01   8.6001388e-03   8.0081304e-01  -6.9318048e-01  -2.5129011e-01  -4.6825089e-01   8.6062480e-01   7.7495318e-01   2.7045295e-01  -5.2714942e-01  -4.9177074e-02   7.4287729e-01  -8.5245997e-01  -4.3575924e-01  -4.7805350e-01   4.8086250e-01  -1.3940828e-01  -5.3261327e-01  -2.3276354e-01   4.5219969e-01   6.7687120e-01   8.3325474e-01   6.0796878e-01  -6.1291993e-01   4.8200111e-01   4.4057581e-01   9.3996289e-01   4.5170962e-01  -1.4421370e-01  -5.8324322e-01   7.9396651e-02  -8.5242295e-01   9.8207544e-01   9.3797048e-01  -3.6488875e-01  -7.6168592e-01   6.3454192e-01   8.8314124e-01   7.1896444e-01  -3.7595004e-01  -9.9313514e-01  -2.2101471e-01   9.6440108e-01  -5.1077683e-03  -8.3625131e-03  -7.1278017e-01   4.7653046e-01  -9.0228127e-01  -6.7300247e-01  -7.8120701e-01   2.0827226e-01   1.4709195e-01  -7.7374791e-01  -1.7963759e-01  -8.6160857e-01   2.1889182e-01   4.1618925e-01  -5.5571842e-02   2.5625277e-01   5.0076018e-02  -5.3182953e-01   6.7057255e-01  -5.5297866e-01  -6.8853707e-01   4.1903674e-01   1.9022658e-01  -1.6902731e-01   1.7500471e-01  -8.3489403e-01  -2.3783371e-01   3.1253733e-01   3.6040029e-01   5.0920270e-02   2.3028886e-01  -6.5581261e-01  -7.9594971e-01  -4.0080923e-01   4.3572469e-01  -5.4385379e-01  -9.2733297e-02   6.6728732e-01  -4.9984354e-01  -4.7406836e-01  -8.6472371e-01   3.5505319e-02  -9.6013696e-01   7.5388164e-01  -6.4272979e-01  -1.2617470e-02  -5.0533913e-01   4.3656007e-01   3.4505361e-01  -3.3355138e-01  -2.1180947e-01  -4.4899902e-01   4.7596498e-01   8.4549085e-01  -7.5265218e-01   7.7365481e-01  -2.1366841e-01   3.5235775e-01  -5.4793652e-01  -3.0976800e-01  -9.3543887e-01  -9.6256191e-01  -9.7387753e-01  -8.9566273e-01  -7.9878722e-01  -3.4745644e-01   4.5485730e-01  -3.3680368e-01   7.8292311e-01   2.5394320e-01  -5.8866381e-02   2.2876687e-01   7.0643632e-01  -1.9611242e-01   2.1103638e-01  -5.3052266e-01  -6.0864280e-01   7.5038129e-01  -7.1854875e-02   1.6244770e-01  -9.9448930e-01   8.7996129e-01  -3.7349676e-01  -8.1838132e-01   6.8430956e-01   2.8396031e-02   3.5554700e-01  -3.7903678e-01   2.5477522e-01  -7.7168668e-01  -6.7191332e-01   9.2540580e-01  -5.0607082e-01   1.3676985e-01  -1.9464135e-02  -5.4860725e-01  -7.6400421e-01   6.3148987e-01   3.2835656e-01   7.0672178e-01   8.2159600e-01   5.4977152e-01   6.1279543e-01   8.2770368e-01  -6.9230054e-01  -9.8575317e-01  -8.4086885e-03  -3.9565385e-01   9.0216541e-01   5.8590086e-01  -1.7958523e-01   2.4095557e-01   5.3527154e-01  -5.0378730e-01   1.3972833e-01  -5.8895518e-01   2.6461517e-01  -8.4230264e-01  -2.5560178e-01  -9.7702458e-01   5.3181676e-01   5.3278822e-01   8.7872982e-01   4.0193560e-01  -2.0012382e-01   6.8026337e-01   3.6855287e-01   9.9182124e-01  -1.3643780e-01  -9.1124100e-01  -6.2381897e-01   5.1376316e-01   6.4132117e-01   5.1350167e-01  -1.1650245e-01   1.9608411e-01  -9.2575994e-01   2.0387424e-02  -8.0237167e-02  -2.3199955e-01   4.8924641e-01   3.9301349e-01   3.3637542e-02   4.0545700e-01  -6.5902947e-01  -9.7759679e-01   4.7438516e-01  -9.0154915e-01  -5.3341340e-01   4.3418903e-01   6.9570221e-01   3.6680972e-02   4.1078545e-01  -8.6247114e-02  -1.7768279e-01   6.5236044e-01  -2.3327519e-01   4.2426707e-01   7.6230628e-01  -7.3355398e-01   7.5447926e-01   5.8896331e-01   8.5543271e-01   3.4804512e-01   2.1048003e-01  -2.7275289e-01   5.6933377e-01  -5.9223632e-01   1.5537552e-01  -3.5934020e-01  -3.7667132e-01  -7.6873912e-01   8.4075124e-02   9.5797990e-01  -2.7715711e-01   3.3511369e-01  -8.2683524e-02   8.8769867e-01  -9.0726253e-02   9.9025232e-01   6.1417485e-01  -4.8039516e-01  -9.8246819e-01   1.1760494e-01  -2.1195975e-01  -2.3290674e-01  -3.1567461e-01  -4.7431152e-01   6.9691210e-01  -7.0037310e-01   3.7637531e-01  -6.7885498e-01   4.8638484e-01  -2.5791176e-02  -8.1142813e-01  -8.4653193e-01   7.2995410e-02  -2.5559569e-01  -9.4557455e-01   8.8257439e-01  -3.4946271e-02   7.4456825e-01   8.4072469e-01  -4.4263642e-01  -2.7565561e-01  -7.0299706e-01  -8.7458280e-01  -9.0667828e-01  -1.8256368e-01   3.3493102e-01   6.9248983e-01   1.1908156e-01   5.9110910e-01   7.5393036e-01  -1.0472179e-01   3.6466560e-01  -5.0598415e-01   3.9530377e-01  -7.4940973e-01  -8.6389189e-01   6.7810911e-01  -7.1784703e-02  -9.9635002e-01  -6.4058768e-02   7.5014017e-01  -7.9327918e-01   7.9769230e-01  -3.1351343e-01  -2.5271048e-01  -5.8218021e-01  -9.1265505e-01  -9.7943743e-01  -1.2930307e-01  -1.7488290e-01  -4.7557834e-02  -5.4540574e-01   5.1570338e-01  -3.6050991e-01   1.3249267e-01   3.2583336e-01   6.6536591e-02   5.1412881e-01   5.7314968e-01   9.4480692e-03   7.3756933e-01   4.0517477e-01   8.7487467e-01   3.2823799e-01  -3.0748915e-01   8.5692702e-01   3.8676402e-01   2.5192829e-01   9.2528112e-01  -2.6440177e-01   7.5645110e-01   5.4026317e-01  -6.5309416e-01   7.6010070e-01  -5.0758762e-01   4.0311252e-01   5.6708963e-01   3.9370874e-01  -3.8498950e-01  -1.9000111e-01  -7.3341899e-01   8.3431001e-02   8.0749784e-01  -2.4232174e-01   2.5247174e-01   9.1305293e-01  -2.4564483e-01  -5.6823356e-01  -8.3286269e-01  -2.7902758e-01   8.3878667e-01  -4.9124247e-02  -4.9953395e-01   6.2839758e-01  -4.3727100e-01   9.3313578e-01   5.7756682e-01   8.4828421e-01   5.0359075e-02  -4.2666123e-01   5.7961419e-01  -2.5697652e-01   7.8515579e-01  -9.7098558e-01  -2.3097056e-01  -9.4420790e-01   8.1096272e-01  -1.7264786e-01  -8.6473030e-01  -4.8531397e-01  -2.5586605e-01   8.9934746e-01  -5.6528151e-01   5.3635770e-01   3.2247752e-01   9.0584176e-01   4.3478403e-01   4.0300289e-01   3.8562537e-01   4.5876698e-01  -6.7894986e-01  -2.1069682e-01   6.6335147e-01  -9.5208180e-01  -8.8682058e-01  -2.6782716e-01   2.2819908e-01  -4.9093286e-01   4.1500954e-01   6.4946117e-01   5.6676778e-01  -6.3552188e-01  -5.6028720e-01   2.0646150e-01   1.0045866e-01   8.6394940e-01  -6.9311884e-01  -6.4852961e-01  -3.0873261e-01  -4.0553475e-01  -9.4808988e-01  -8.0194591e-01   3.9564165e-01   1.1987430e-01  -2.5435185e-01  -5.3626648e-01  -8.6155228e-01   5.7774842e-01   5.0834345e-02  -2.8415581e-01   2.2193845e-01   7.2297156e-01   9.2259825e-01  -3.0261283e-01  -4.0188301e-01   8.7690300e-01   1.7317939e-02   2.8974771e-01  -9.0540505e-01  -7.0816456e-01   6.5241010e-02   5.6828946e-01   3.0945768e-01   9.3353133e-01  -6.5304800e-01  -5.5284551e-01  -2.3932200e-01   8.3742083e-01  -5.0156613e-01  -6.5094603e-01   9.8449571e-01  -4.9728826e-03  -3.6747163e-01  -4.0160394e-01  -2.0057947e-01   9.4004502e-01  -3.9604953e-01   2.8807900e-01  -3.7045136e-01   8.3666983e-01   8.8961237e-01  -8.9587821e-01  -2.0947177e-01   8.6902254e-01  -7.0097232e-01  -8.4660133e-01   9.1657478e-01  -5.2425677e-01   9.3395164e-01  -6.0637986e-01   9.1584215e-01  -1.2093292e-01  -5.5921940e-01   7.9182433e-01  -9.6598593e-02   3.2726491e-01  -9.3135492e-01  -6.1660818e-01   9.6030047e-01  -2.6650546e-01   2.2637918e-01  -5.2274705e-01  -3.4136574e-01   7.5112101e-01   8.2785815e-01   7.8824640e-01  -3.0265307e-01   1.7886556e-01  -3.3216880e-02  -6.0290666e-01  -4.1855883e-01  -5.4803140e-01   1.2875814e-01  -2.2277709e-01  -5.8306663e-01  -4.0708640e-01   1.6585744e-01  -6.2111112e-01   1.7982678e-01   4.7121941e-01   5.5862109e-01  -9.5144253e-01  -4.4350861e-01  -6.2228960e-01  -4.8288740e-01  -6.3483014e-01   9.0732431e-01  -8.0952425e-01   8.8528249e-01   7.4226046e-01  -7.7155067e-01  -8.1257497e-01   6.9249765e-01   6.5785245e-02   6.8197480e-01   2.0651750e-02   9.8934851e-01  -8.7465600e-01   4.7372231e-01   1.2364028e-01  -2.7546462e-02   8.4024179e-01   9.0038148e-01   1.4911984e-01   6.4371064e-01  -6.6843363e-03  -5.4927192e-01   2.3227042e-01   1.1642028e-01  -2.3940024e-01  -5.7288994e-01  -9.0652382e-01   7.9219810e-01   1.9228825e-01   1.7621436e-01  -8.7322375e-01  -9.4391817e-01  -2.6694107e-01   1.6204162e-01  -1.1970919e-02   5.3526771e-01   3.3897857e-01   9.3673197e-01  -2.4278930e-01  -4.3375901e-01   9.8263839e-01  -9.1608448e-01  -3.7206982e-01   6.7117322e-01  -2.2452228e-01  -8.5372702e-02  -6.9236796e-01  -3.9336786e-02  -9.8461089e-01   3.1742393e-01   5.6848784e-01  -2.8973417e-01   5.8470175e-01  -8.6122699e-01  -5.1047122e-01   3.1623683e-01  -9.3885505e-01  -6.5475324e-01   2.2392669e-01   5.3850073e-01  -9.2600344e-01  -3.5460371e-01  -6.5574778e-01   7.4499388e-01  -8.9992676e-01   9.0838650e-01  -4.1122598e-01  -7.8567622e-01   8.9471163e-01   7.0993855e-01  -8.1106957e-01   2.2546688e-01  -6.0347657e-01   2.5956752e-02  -9.3272938e-01   5.5719582e-01  -7.6242539e-01  -5.5739028e-01  -7.1308961e-01   3.5566646e-02  -8.2522408e-02  -3.2711254e-01  -9.6088196e-01  -4.6527156e-01  -7.7722145e-01  -6.2806190e-01  -7.4407699e-01   4.4671125e-01   5.8185288e-01  -1.2199594e-01   6.9621553e-01   3.2074592e-01  -4.2444203e-01  -3.2768704e-01  -9.2755726e-01  -5.7687130e-01  -1.7979903e-01  -2.0038794e-01   3.2258757e-01  -4.3807502e-02  -2.6460811e-01  -4.4977281e-02  -9.0855513e-01   9.1951721e-01   6.0013295e-01   6.0690861e-01   1.8973939e-01   9.6408892e-01  -9.6317910e-01  -2.3930378e-01  -2.2206532e-01   8.2995022e-01   4.3222988e-02   1.1466028e-01  -8.3877438e-01  -5.8967310e-01  -5.2774327e-02  -6.6691358e-01  -3.3736589e-02   9.9020940e-01   2.1371694e-01   1.8955717e-01   9.6541613e-01   1.5283609e-01   2.9149984e-01   3.7775724e-01  -9.3730607e-01   4.0116088e-01   2.0094561e-01   8.8084806e-01  -2.6218063e-01   7.2483945e-01  -5.5771328e-01   5.6508891e-01  -2.1652487e-01   9.3802199e-01   8.1464209e-02   5.1375383e-02   1.5696229e-01   1.5594299e-01  -3.5767150e-02   5.8856137e-01  -7.5914932e-01   8.8112568e-01   4.7496691e-02   6.8890074e-01   2.3917795e-01  -6.1380348e-01  -9.1272260e-01  -3.2553431e-01  -7.2988440e-01  -7.0565827e-01   3.9918663e-02   8.3028677e-01   6.9425935e-01   5.8892677e-01   5.0175642e-01  -4.7785690e-01  -3.2142670e-01  -7.0410226e-01   6.2130054e-01  -6.9121614e-01   2.9253660e-01  -4.2746784e-01   6.6817078e-01  -1.5314334e-01   1.3413125e-01   4.3283141e-01   6.6154127e-01  -5.4599748e-01   7.4242034e-01  -6.4037120e-01   5.1742251e-01   9.3025461e-01  -3.7481030e-01  -8.2029250e-02  -8.3878187e-01   2.7905192e-01  -8.8596279e-02   2.7975179e-01   4.5874538e-01  -7.5424898e-01  -7.9411057e-01   1.3347426e-02   8.4957013e-01   5.9945849e-01  -1.8351896e-01  -6.7964100e-01   5.8724943e-01   5.4378694e-01  -2.9584003e-01   9.8085360e-01
   9.8349189e-01   8.9296613e-01   9.3915845e-01  -9.2413288e-01   7.3465474e-01   1.9776611e-01   2.8955756e-01   5.2776236e-02   1.1692249e-01  -8.0715606e-01   7.9573027e-01   6.4930461e-01   9.6098668e-01   4.9869807e-01   6.8757394e-01  -6.9419528e-01  -3.0508625e-01  -7.6380866e-01   5.2150762e-01   3.2400787e-01   6.8889350e-01   1.3441541e-01  -8.4114846e-01  -6.4190062e-01   6.6153176e-01  -9.7346658e-01   8.1848022e-01  -6.7987717e-01   3.1291847e-01  -6.3780998e-01  -4.7189730e-01  -7.1277342e-01   1.3121237e-01   4.3422942e-01   2.0711549e-01  -1.2003948e-01   6.7519729e-01  -4.7780570e-01   7.3248154e-01   9.1072035e-01  -9.6971615e-01  -8.1151012e-02  -2.7953924e-01   2.5314828e-01   6.2026830e-03  -9.6400918e-01  -4.2357973e-01  -4.6677210e-01   4.4465471e-01  -3.1585203e-01  -7.4257587e-01  -1.3015040e-01  -9.7609285e-01  -3.3005556e-01  -7.3337848e-01   6.0629150e-01   6.0395395e-01  -4.2252689e-01  -3.9885750e-01  -5.9414921e-01  -1.0086547e-01  -3.2646893e-01  -7.4754238e-01  -1.1265869e-01   3.4886870e-01  -4.7307701e-01   6.0855604e-01  -6.3828687e-01   2.4186935e-01   3.8198448e-02  -8.4181159e-01   6.9727235e-01  -9.7325355e-01  -4.9147271e-01   5.0521066e-01  -6.6670507e-01   8.6531513e-01   1.8790793e-01   7.7768117e-01   1.1307623e-01   3.0624221e-01   1.6651027e-01   9.2582631e-01  -5.4197031e-01  -2.6798845e-01   9.7492336e-01   3.0752237e-01   7.4286913e-01   4.8092024e-01   3.8945603e-01  -9.9863478e-01  -9.3428067e-01   6.1558975e-01  -9.6115882e-01  -9.3541332e-01  -9.7733946e-01   8.1368611e-01   1.2674383e-01   5.3325163e-01  -1.9101237e-01   4.5845120e-02  -6.5115877e-01  -3.7702232e-01   3.9963235e-01  -3.2041463e-01   5.3836419e-01   5.8144207e-01  -1.8837033e-02   6.0479678e-02   3.0780794e-01  -6.0642678e-02  -8.4428381e-01   2.3147298e-01  -2.8444845e-01   7.5764511e-01  -7.4882824e-01  -5.1838021e-01  -6.9717800e-01  -1.7043230e-01  -6.9647749e-01   3.5176064e-01  -6.2547678e-01  -4.7665270e-02  -2.9792524e-01  -8.7394156e-01   3.1672541e-01   1.9056593e-01  -4.6866779e-01   9.2146676e-01   5.5529681e-01   8.0983672e-01  -8.0574080e-03   2.1036178e-01   3.8348773e-01   3.1931791e-01   7.3527189e-01  -4.0032563e-01  -7.4987165e-02   3.5982329e-01  -1.5127230e-01  -7.2744699e-01   5.9215086e-01  -7.2335942e-01   2.9052640e-01   7.2831034e-01   4.7550808e-02   8.8261434e-01  -8.6756283e-01  -7.9994755e-01   4.6722682e-01  -6.4381753e-02   2.2824615e-01  -6.0361187e-01   1.2766082e-01  -1.1378182e-01   8.2150791e-02  -7.5528034e-01   1.8291507e-01   7.5197114e-01   5.1594094e-01  -7.9834042e-01   6.2980412e-01   2.3702687e-01   6.7457506e-01   9.4806077e-01   3.9682519e-01  -7.0887833e-02  -5.0583963e-02  -8.8182652e-01  -4.0049783e-01  -3.7349521e-01  -3.6892970e-01   4.0738765e-01  -4.3911206e-03   6.5269066e-01   3.2465714e-02  -7.4329284e-01   9.0795349e-01   5.3522728e-01   3.0984966e-01   4.7558952e-01   6.2294480e-01   4.4818745e-01  -6.3703589e-01  -7.1813972e-01   6.3007058e-01  -5.6800758e-02  -8.5903135e-01  -2.0766175e-01   9.5451290e-02   3.5623207e-02   8.2269867e-01  -9.7174565e-01   2.8807226e-01  -2.1982835e-01  -9.2932026e-01  -1.1019723e-01   4.4351078e-01  -1.1932312e-01   2.1522588e-01  -6.8238881e-01  -1.6499153e-01   3.2090431e-01  -6.9541915e-01  -2.3230196e-01  -1.6000350e-01   5.0190476e-01   3.9951008e-01  -9.7294652e-01   8.5737220e-01  -8.1534872e-02   9.9264573e-01  -6.2045962e-01  -2.9577056e-01   3.7418586e-01   4.7217156e-01  -5.6586685e-01   2.8505867e-01   4.3251256e-01  -4.3176744e-01   9.0357043e-01  -1.0601953e-01   3.6432742e-01   2.8346203e-01   5.5887869e-01   2.5655596e-01  -1.7330121e-01   7.4820687e-01   1.1173552e-02   3.1995394e-03   6.5790227e-01  -1.1146942e-01  -7.6976329e-01   8.5505232e-01   5.3382633e-01  -2.0865797e-01   5.9672173e-01  -2.9321537e-01   2.7595322e-02   3.3239982e-01   3.0206230e-02  -8.0090341e-01  -5.6689048e-01   4.6957839e-01   1.7463839e-01   8.8779499e-01  -2.9626668e-01   1.6475624e-02  -1.0801517e-01   7.4485207e-01  -6.1056085e-01  -2.5461764e-01   8.6148561e-01   9.2707031e-01  -5.3378883e-01  -4.5981836e-01  -2.0330022e-01   4.5908963e-02  -4.7929877e-01  -1.0289022e-02  -8.4745870e-01   7.5132813e-02   4.8316268e-01   5.9713764e-01   4.3758038e-01   1.8169154e-01   7.2711414e-01   9.1761309e-01   8.1501464e-01  -8.2308625e-01  -9.8171883e-01   7.9468632e-03  -9.9018913e-01  -7.4272660e-01  -6.6031394e-01  -1.3970710e-01   9.2787461e-01   4.3694177e-01   5.8799633e-01  -4.4403247e-03   5.9611267e-01  -3.9087321e-01  -9.0667633e-01  -8.6793198e-01   4.3800058e-01  -8.4397921e-01   2.6461893e-01   1.4585050e-01  -1.6965285e-01   3.7595745e-01   2.0661941e-02   1.6013282e-01  -5.5055456e-01  -4.0720639e-01  -4.1888410e-01  -1.3150265e-01  -9.5301741e-01  -9.1747054e-01  -9.3858842e-02   6.6119815e-02   5.2374513e-02   7.5397605e-01  -2.7005864e-01   7.4605521e-01  -3.5729043e-01   5.6665184e-01  -5.6454175e-01  -6.1444353e-01  -7.0242851e-01   2.7024678e-01   1.1966012e-01  -7.3444558e-01   6.9084568e-01  -4.8998290e-02   5.5273125e-01   6.2795929e-01  -4.0897677e-02  -1.4051062e-01   4.8277092e-01  -5.2989018e-01   2.6036404e-01   3.7106953e-01  -5.8991076e-01   7.9359415e-01  -1.2041358e-01  -8.8531037e-01   3.3419505e-01  -8.9586877e-03   7.4977482e-01   6.6542382e-01   2.3349372e-01  -3.4188964e-01  -1.7483527e-02  -4.9155702e-01   2.6946099e-01  -2.4591315e-01  -1.7058115e-01  -9.7583423e-01   3.8256148e-01   7.9048925e-01   4.2470421e-01  -5.5019424e-01   6.3203878e-01  -9.4562441e-01   5.3947477e-01   4.1094082e-01  -5.9816881e-01   2.7909727e-02   1.0210862e-01  -7.4189868e-01  -1.8514827e-01  -5.3907127e-01  -4.0479726e-01   4.3905435e-01   5.9287030e-01   7.7286988e-01   1.2164044e-01  -2.5791378e-02  -7.2082892e-01   8.6441749e-01  -1.1972737e-01   7.1846562e-01  -3.8484454e-01   6.1207400e-01  -1.4438428e-01  -5.6460339e-01  -8.8979956e-01  -1.2270176e-01   8.2013100e-01   4.8526156e-02  -6.9935981e-01   2.0063948e-01  -2.8303803e-01  -9.8592423e-01  -1.7378012e-01   4.5983460e-01  -6.7364343e-01  -5.4698746e-01   6.8179199e-02   2.6903437e-01   8.0342256e-01  -1.2808842e-01   6.6695199e-01   2.9773192e-01  -1.8773561e-01  -7.9731407e-01  -1.2449482e-01  -9.9373066e-01  -5.1955759e-01  -7.0759858e-01  -7.6003897e-01   9.7647556e-01   7.3652023e-01  -4.6628521e-01  -5.5758331e-01   8.5368407e-01  -2.7291152e-01   8.4169026e-01  -4.4406132e-01   9.6840747e-02  -5.0839311e-01   6.6881611e-01  -1.9431216e-01   5.3458592e-01   5.3869650e-01   9.6764043e-01  -7.5206925e-01   3.4005307e-02  -7.8971439e-01  -1.1699542e-02   5.2968627e-01   5.6788236e-01   2.2481575e-01  -1.1695940e-01  -5.9234742e-01   9.1394043e-03  -2.2333835e-01   6.8195547e-02  -7.1217062e-01   9.7226127e-01  -9.8313529e-02   1.9780880e-01   1.2306535e-02  -2.9798598e-01   7.0830304e-01   2.7146131e-01   3.6418377e-01  -5.9921603e-01   8.8296496e-01  -4.1992883e-01   9.3405674e-01   1.5529353e-02   8.8826660e-01   3.3621078e-01  -5.0826031e-01   7.2576902e-01   6.5524824e-01  -7.3500176e-01   2.0936980e-01   6.4191183e-01   5.9385476e-01  -5.0864269e-01   5.4117500e-01  -7.7173979e-01   8.0511325e-01  -7.1795895e-01   5.3230510e-01  -4.4431825e-01  -2.9256756e-01  -8.6733690e-01  -2.5175499e-01   3.7261162e-01  -8.6868255e-01   1.3535600e-01  -6.9243394e-01   2.5596020e-01  -7.0748255e-01  -8.3278768e-01  -8.7345406e-01  -2.6716266e-03  -6.2233862e-01  -2.5121508e-01   5.0106700e-01  -9.1399980e-01   7.6821634e-01   6.0368450e-02   5.9447970e-02  -8.0554487e-01   3.0281913e-01   4.3479191e-01  -6.5805962e-01  -3.2542547e-01   9.3509456e-01   4.6524661e-02   8.3852424e-01   5.0850991e-01  -9.0760454e-01  -3.2042798e-01   2.3529944e-01   8.8398463e-01  -8.9869150e-01  -5.9377064e-01   2.4717926e-01  -4.9317672e-01   2.9359957e-01   5.2717309e-01   8.0651279e-01  -4.5090084e-01  -9.0792355e-01  -7.7266590e-01  -7.2568721e-01  -7.6260237e-02   9.2509049e-01  -2.1710596e-01  -8.4855630e-01  -2.6461149e-01   7.4459182e-01   9.7067450e-01  -2.6635655e-01  -3.9308798e-01  -3.3219818e-01  -4.7652192e-01  -5.8284082e-01   9.1920072e-01  -4.5413121e-01  -7.7703326e-01   8.9584420e-01   4.2681495e-01   1.6850772e-01   5.6868995e-01   6.2084363e-02   4.8783980e-01   1.4909764e-01  -6.3615907e-01   9.0494856e-01   3.0820953e-01   4.7422762e-01   2.9311118e-01  -9.5614434e-01   6.1296273e-01   9.0169775e-01  -6.8021963e-01  -5.6911422e-01  -1.7799257e-01   1.9281105e-01   1.5518255e-01   9.4752813e-01   4.6584380e-02   1.3038428e-02  -7.9730043e-01   9.8883091e-01  -6.6184355e-01   5.6112684e-01  -3.5430143e-02  -2.6031782e-01   4.3907606e-03  -7.7630215e-01  -3.0148576e-01  -1.9601178e-01   2.0918558e-01  -8.9466022e-03   4.2210823e-01  -4.3756284e-01  -9.6932068e-01   8.6128438e-01  -6.1219055e-03  -8.9233122e-01   2.9931871e-01   4.8514189e-01   6.0140060e-02  -5.9786135e-01  -6.8556552e-01   1.4255664e-01  -8.3491851e-01  -9.4650231e-01  -5.8696223e-01  -3.4803405e-01  -9.7062894e-01   3.6761199e-01   9.0983259e-01  -4.4750114e-01  -1.0352456e-01  -6.0218114e-01  -5.9393795e-01  -1.6646587e-01   3.0631189e-01   6.5992102e-01   8.1446578e-01   8.3652475e-01   7.9753125e-01   5.5724427e-01   3.8012766e-01   7.2157136e-01   2.9801340e-01   7.3551436e-01  -9.2400738e-01  -8.8072528e-01  -8.3543178e-01  -3.2730730e-02   8.3852328e-01  -6.1528231e-01  -6.6754610e-01   7.4382736e-02   2.5408529e-01  -3.8738189e-01   9.7032724e-01  -2.7256927e-01   1.4158104e-03  -7.8018699e-01  -9.0787380e-02  -8.0095510e-01  -2.9024723e-01   6.6936573e-01   4.9402846e-01   5.5483562e-02   2.4453996e-01  -2.4497991e-01   3.7714248e-01  -7.5109590e-01  -4.6869922e-01  -9.2223323e-01   4.6360276e-01  -4.0163327e-01   4.3858901e-01  -8.5461472e-01   9.9330178e-01  -5.1791205e-01  -9.9320758e-01  -4.1098690e-01  -4.0792968e-01   6.0706941e-01  -8.1283733e-02   5.8615187e-01   7.3904616e-01  -8.6330165e-01  -4.8995398e-01  -8.3400847e-01   5.1670510e-01  -5.9191462e-01   2.5409509e-01   6.5059346e-01  -8.1524192e-01   2.7351390e-01   2.2432226e-01   3.6016934e-01   5.8302858e-01   1.3946169e-01   7.2778187e-01   1.4704931e-01  -4.1385212e-01   7.4553913e-01  -2.1079670e-01  -6.1355679e-01   1.8614716e-01  -8.8471674e-01   8.6840585e-01  -7.7095112e-01   4.7111305e-01  -1.4929567e-01   3.7684143e-01   6.5473533e-01   9.7431345e-01   2.7644191e-01  -1.8576620e-01  -7.7001280e-02   7.7580497e-02  -8.5347966e-02   6.0620757e-01  -6.4347556e-02  -5.7167589e-01  -3.8616168e-01   8.8258215e-01  -9.8849769e-01   9.9756530e-01  -8.3062752e-01  -7.8529788e-02   5.7365011e-01   9.1606892e-01  -6.1181133e-01   6.1320660e-01  -3.5818671e-01   6.7397776e-01   8.4488661e-01   4.1618478e-01   9.5887356e-01  -1.5144552e-02  -5.8752501e-01   4.7222492e-01   8.3964750e-01  -9.0411586e-01   7.4675186e-01  -7.0545470e-02  -1.9016129e-01  -7.2238487e-01  -3.8952794e-01   4.9758401e-01   4.7834097e-02   6.0177271e-01  -3.8483620e-01  -1.7849268e-01  -8.5929318e-01   8.2810217e-02  -3.7111009e-02   7.2866903e-01  -1.6475350e-02  -8.8819905e-01   5.1959154e-01   6.7830544e-02   2.5657594e-01  -1.7409669e-01  -5.6262165e-01   2.0752752e-01  -1.1028261e-01  -8.4708414e-01  -3.5395710e-01  -9.3996634e-01   6.1484626e-03   8.4473558e-01   1.9657973e-01   3.2197592e-01   7.7411757e-01   8.0023169e-01   7.3030936e-01   1.9790389e-01  -3.7792958e-01  -2.7151442e-01  -4.0336603e-01   5.3892196e-01  -8.6864890e-01  -2.9338403e-01  -6.5375000e-01   1.9652206e-03  -5.0334385e-01  -2.0344907e-01   4.8204012e-01   5.8959957e-01  -6.1127597e-01   4.4760249e-01  -5.2652514e-01   1.8923841e-01  -8.5775370e-01  -7.2480435e-01  -2.8464099e-01  -8.1464169e-01   3.1353274e-01   3.0917147e-01  -2.8777392e-01  -6.2799133e-01   5.1497283e-01  -8.8561943e-01   8.4937134e-01   4.2711671e-01  -1.6302845e-01  -4.9171756e-01   6.1683078e-01   1.3366452e-02   8.8171195e-01  -3.2905346e-01   1.0127251e-01  -7.4183121e-01  -2.2796906e-01  -6.8394650e-01   8.2096475e-01   8.8186302e-01   9.6904726e-01  -1.1780651e-01  -6.2807052e-01   6.1518689e-01   1.4901278e-01  -7.6191575e-01   2.9296122e-01  -3.1112368e-01  -2.6116852e-01  -2.8271101e-01  -8.0988942e-01   2.5403661e-01  -4.5210944e-01   4.0450610e-01  -2.1941803e-01  -6.4152773e-01   1.8903785e-01   1.4269942e-01  -3.3310716e-01  -4.5269395e-02   6.0201190e-02   7.2041073e-01  -5.4179468e-02   2.9183894e-01   5.6274454e-01   9.8410681e-01   4.5785686e-01   9.6040184e-01   2.1085111e-01   7.3788035e-01   1.1650773e-03   1.7334089e-03  -1.9309542e-01   9.2714473e-01  -6.8173332e-01   6.1594850e-01  -1.6389479e-01  -7.1213831e-01   3.9353237e-01   4.0806702e-01  -7.1490797e-01  -3.6575826e-01  -8.6381464e-01   9.8303580e-01  -1.0311803e-01   5.9362984e-01  -6.5326514e-01   4.9604043e-01  -2.1746457e-01  -7.9566127e-01   8.8130961e-01  -7.5440529e-01  -5.9582933e-01   6.5466262e-02  -3.0491600e-02  -5.0000649e-01   3.7074195e-01  -5.3130643e-01   3.2916369e-02  -4.0152217e-01  -9.0153596e-01  -4.8419223e-01  -1.5999207e-01   5.3356683e-01   8.0007974e-02   4.6510508e-01  -3.6618412e-01   7.4589972e-01  -5.1820309e-01   7.4298355e-01   8.3457714e-01   5.8210882e-01   4.1571806e-02   1.4673888e-01   8.9136361e-01  -5.8202856e-03   8.5348734e-01  -8.5596147e-01  -1.3672455e-01   5.0119394e-01   2.8441886e-01   7.1339290e-01   6.7183278e-02   5.1264164e-01  -6.2495367e-01  -8.9865921e-01   5.1308281e-01  -7.2078106e-01  -3.7558112e-01  -3.8829644e-02   2.8606597e-01   2.2585788e-01   8.7741818e-02  -6.8328967e-01  -9.0613223e-01  -1.3990235e-02   6.3656915e-01  -2.3118190e-01   5.8186775e-01  -8.0861188e-01   1.7002497e-01  -2.5625537e-01  -9.6971730e-01   3.5473082e-01  -3.8448195e-01  -1.0675680e-01   8.8995927e-01  -3.3626035e-02   6.4939188e-01  -5.8634136e-01  -9.4122480e-01  -6.2535974e-02   4.3658558e-02  -4.1302707e-01  -7.5672567e-01  -1.0092394e-01  -4.4204909e-01   4.9968431e-01   1.8873173e-01  -9.2701972e-01  -6.9965617e-01  -2.4982209e-01   1.9040925e-01   1.5817952e-01  -9.6300595e-01   4.0412050e-01  -3.5377666e-01   3.5494077e-01  -5.4075584e-01   9.5257759e-01  -7.6037065e-02  -2.9606178e-01  -6.2013994e-01   7.4168784e-02   1.4636764e-01   2.2669835e-01  -3.3934835e-01  -3.7608758e-01  -3.8235027e-01  -5.3697817e-01  -2.2101309e-01  -5.5317972e-01  -3.2788046e-01  -1.9961748e-01   7.4095240e-01   8.0694339e-01  -8.2901153e-01   5.2608222e-01  -7.1689978e-01   5.7560802e-01   9.0021911e-01  -6.3429310e-01  -9.6194245e-01  -7.0863065e-02   9.1761967e-01  -6.8334018e-01   1.8631348e-01  -8.4415163e-01  -8.2771906e-01  -5.8497984e-01   8.5551198e-01   7.4713254e-01   6.0089074e-01   3.3116732e-02  -6.7627200e-01  -1.2463675e-02   2.7538725e-01   1.2467515e-01   8.1356165e-01   7.8509783e-01   3.4591752e-01  -2.8420348e-01  -6.1749316e-01   7.3076183e-01   6.0457079e-02  -2.3336783e-01  -7.4273422e-01  -3.9733385e-01  -9.7741820e-01   4.1551656e-01  -9.8911830e-01  -1.2325673e-01  -9.2275873e-01  -1.4355731e-01   7.1219555e-02  -4.9258108e-01   8.7700596e-01   2.6971845e-01  -5.5091707e-01  -4.2837171e-01  -7.1695399e-02  -5.3749470e-01   7.0724682e-01   8.5426638e-01  -5.5494678e-01  -9.7405874e-01  -1.2727684e-01  -5.8441479e-01   6.3411225e-01   3.8298213e-01   7.1477232e-01  -5.7887195e-01   7.9983721e-01  -1.7193711e-01   8.1242925e-01   7.5249828e-01   1.6144735e-01   3.0476103e-01   4.6684025e-01   1.1906071e-01   7.3323357e-01   8.7953093e-01  -1.4120264e-01  -8.1390606e-01   6.4127695e-01   2.0322163e-01  -1.5691618e-01  -5.0326606e-01   5.6370911e-01  -3.1940801e-01   5.7764610e-01  -5.2381622e-01   8.6582262e-01  -2.1191679e-01  -7.5953939e-01  -8.4343510e-01  -5.0369274e-01  -5.9111340e-01   5.1999612e-01  -9.1394888e-01  -6.7045743e-01   8.3839708e-01   3.6283403e-01  -5.0391038e-01  -2.9976114e-01  -8.8496057e-01  -4.0691589e-01  -7.6135571e-01   2.4540628e-01   2.3095900e-01  -4.0995472e-01   2.5464714e-01   1.6612991e-01  -3.8393995e-01   2.7315883e-01   4.1198829e-01  -5.6215239e-01   8.8838350e-02   9.6278955e-01  -3.3909223e-01   1.0287868e-01   7.3563397e-01  -8.7133491e-01  -8.5070944e-01  -9.5132021e-01   3.3726450e-01
   4.8329856e-01  -3.3816230e-01   5.0316658e-01   3.0933300e-01  -6.9494569e-01  -7.6335408e-01  -3.2687278e-01   5.8192818e-01  -8.1662015e-01  -9.6981791e-01  -3.7294145e-03   1.2357780e-01   4.5196320e-01   8.3430192e-01  -6.7483686e-01   6.1695302e-01   2.9960445e-01   4.1238108e-01   7.9984210e-01   9.0916677e-01   8.4068827e-01  -1.1983253e-01   6.0284623e-01   6.6136162e-01   7.0570003e-01  -5.4534718e-01   1.3391047e-01   5.7779916e-02  -8.9827697e-01   5.2229515e-01   6.2888929e-01  -8.8670900e-01   4.9647758e-01  -2.9496029e-01  -7.3241150e-01   1.6240554e-01   2.0774531e-01  -6.0419869e-01   4.4537152e-01  -1.1922857e-01   5.0128477e-02   3.5616347e-01   8.3240496e-01  -7.7604559e-01  -2.5332867e-01   5.1401304e-01   1.4856122e-01  -2.0551733e-01  -8.8402593e-01   8.7387032e-01   7.2931396e-01   6.4543940e-01   6.8081830e-01   9.3580094e-01   3.5609345e-01   1.0289227e-01   3.7804309e-01   3.4058930e-01   7.1895280e-01  -3.1421060e-03   6.5851208e-03   1.5785477e-01  -3.1729291e-01  -2.2015809e-03  -4.7553164e-01   7.8801090e-01   1.1992112e-01   2.9213375e-01  -1.6446191e-01   2.9156493e-02  -2.1029629e-01  -7.4550338e-01   2.1871711e-01   7.7320775e-01  -6.9920476e-01  -3.7498790e-01   8.8189209e-01  -9.9217100e-02  -4.9590232e-01  -7.5396652e-01   6.4960651e-01   9.7281894e-01   8.2857843e-02  -4.9818371e-01  -7.0990159e-01  -8.3425243e-01  -5.9296334e-01   4.3465238e-01  -3.1376320e-02   5.7792077e-01  -8.6233699e-01   9.1181233e-01   5.1570191e-01  -9.8164904e-01   9.5538461e-01  -5.2771460e-01   6.9647169e-01  -9.1803770e-01   7.4529803e-01   1.4764113e-01  -1.2747348e-01   9.7886571e-01   2.2877741e-01   6.3074322e-01  -9.9874827e-02   6.2877592e-02   5.6442975e-02   6.2165017e-01   8.3431979e-02   2.7172535e-01   5.1709298e-01  -3.0735277e-01   4.1058845e-01   3.6507599e-02   6.7629574e-01  -9.9109203e-01  -4.8604253e-01   5.3420341e-01   6.7567165e-01   3.3213763e-01   1.9349805e-02  -5.9037394e-01  -5.8872023e-01  -1.2850177e-01  -2.2505883e-01   5.6115581e-01   8.0035841e-01  -5.3009111e-01   7.5017120e-01  -2.1530736e-01   7.5399639e-01  -3.5580743e-01   2.2557881e-01  -6.5182991e-02   9.5992017e-01  -8.7374662e-01   7.0559657e-01   9.9549377e-01  -6.5879761e-01   4.7584942e-01   5.3616774e-02  -9.8976917e-01   5.1566719e-01   6.1987424e-02  -3.0948392e-01  -1.3128874e-01   6.4088008e-02   3.4295411e-01   8.1751777e-01   1.4097247e-01   1.6004545e-02  -7.2906357e-01   9.1141140e-01   2.9061590e-01   1.0686769e-01  -1.1063386e-01  -1.1754863e-01   3.4648876e-01   7.7796420e-01   3.8314890e-01  -5.4224907e-02   4.5748999e-01   2.5539983e-01   7.9238447e-02  -1.4373329e-01   2.4223585e-01   8.6201775e-01  -7.8642066e-01   9.1972778e-01  -1.5868373e-01  -1.3993484e-01   2.3595492e-01   4.4937958e-01   9.7766646e-01  -8.3955072e-02  -3.2819809e-01  -7.3322916e-02  -5.7522269e-01   5.6311048e-01   3.0941528e-01  -3.8754094e-02  -5.9850152e-01   9.4443981e-01  -6.3865602e-01  -5.2130608e-01  -2.3953465e-01   7.2049953e-01   4.0803559e-01   7.5656667e-01  -4.0349432e-01  -4.5249152e-01  -3.5522799e-01   7.0523754e-03  -2.8571220e-01   9.3120174e-02  -7.0948137e-01  -2.8176967e-01   5.7117382e-01   1.4661830e-01  -6.6334747e-01   3.7739902e-01  -4.4520958e-01   3.5076880e-02  -1.4189301e-01   2.2056186e-01  -6.1653735e-01  -1.2711919e-01   8.7929163e-01   4.7521646e-01   8.2187083e-01  -4.3385484e-01   8.4808867e-01  -5.8871567e-02   4.5645845e-01  -7.4351148e-01  -9.4500375e-01  -8.1995361e-01   1.9535153e-01  -6.5197186e-01  -2.5708153e-01  -6.3320567e-01   8.6657454e-01  -5.6121659e-01  -5.2211477e-02   1.3492527e-01   4.9072462e-01  -2.5290116e-01  -9.6223311e-01  -2.9224060e-02   7.4744012e-01   5.8991143e-01  -2.8608442e-01   6.8505881e-02  -5.5833217e-02   3.7822851e-01  -7.6179041e-02  -4.2525520e-01  -6.1616835e-01   7.0572676e-01   9.2090268e-01   7.3619247e-01  -9.5348832e-01   5.5254480e-01  -2.6901154e-01  -1.4855658e-03  -6.9164303e-02  -5.8730874e-01   6.7703358e-01  -6.2850812e-01   5.0641583e-01  -2.7520985e-01  -4.7466672e-01   7.3089386e-01   4.8799519e-01  -1.3095280e-02  -1.0324905e-01   8.1345920e-01   9.6708324e-01   9.6668457e-01   1.0875509e-01   2.0787986e-01  -2.0453411e-01  -8.6742199e-01   9.5577206e-01  -4.0786749e-01  -1.6830614e-01  -2.6753436e-01  -4.6314707e-01   2.3758711e-01  -4.4283445e-01   2.3805489e-01   7.7727887e-01   4.5294688e-01   3.8043325e-01  -8.5867961e-01  -2.9785914e-03   4.5690711e-03  -7.2913764e-01  -5.2485257e-01  -9.2743691e-01   9.9350032e-02  -8.4512834e-01  -9.7101307e-01  -7.2308675e-01   5.3044909e-01  -8.6668051e-01  -1.1480455e-01   6.1372679e-01  -3.4611514e-01   3.7147765e-01   5.0276180e-01  -4.4054758e-02  -7.3585631e-01  -8.6126906e-01  -1.8829775e-01   2.2975092e-01  -3.0629666e-01  -9.5243192e-01  -1.4556882e-01   5.4841926e-01   8.2718980e-01  -7.6847939e-01   7.1549171e-01   3.7297727e-01   7.1884705e-01  -2.4020895e-02   8.2522094e-01   3.8053468e-01   9.8353026e-01   1.3004454e-01  -1.3369295e-01   9.1381263e-01  -6.9219954e-01   5.3324665e-02  -4.3661010e-02   5.4996125e-01   7.2259765e-01  -3.1600941e-01  -4.5357805e-01   4.6996995e-02  -9.0687961e-01   9.0233869e-01   6.9907575e-01   6.3387214e-01   2.0138304e-01   3.4562463e-01  -1.8663239e-01   1.1847540e-01  -9.5809366e-01   1.3129386e-01  -2.5176215e-01   6.5789837e-01  -2.0628413e-01  -1.4905173e-01  -6.8043818e-01   8.4686619e-01   2.0058235e-01  -7.0157219e-01   9.0241774e-01   2.3041992e-01  -8.6893190e-01   9.4126124e-01  -7.3667967e-01   8.1090460e-01  -8.0802522e-01  -7.1201092e-01   7.6221015e-01  -1.9871014e-01  -4.4502380e-01  -1.4140977e-01  -1.9270921e-01  -4.5086652e-02   9.2687494e-01   6.4493968e-01  -9.1677405e-01  -7.9414316e-01  -9.5072390e-01  -8.7700293e-02  -5.4802121e-01   8.7151815e-01   9.9033182e-01  -1.8853398e-01   4.0805927e-01   2.3821631e-01   7.8408248e-01   1.3710616e-01  -8.4684201e-01   6.3973644e-01  -9.8887914e-01   7.0286147e-01  -3.9558839e-02   8.7711105e-01  -9.3779084e-01  -8.0000421e-01  -1.7918033e-01   3.7875241e-01   9.1618070e-01  -4.0283307e-01   2.1503167e-01  -8.8944995e-01  -9.8670638e-01   9.5430782e-02  -4.7872238e-01  -7.0474784e-01   7.1582693e-01  -3.4461945e-01   9.6149062e-01  -7.1114444e-02  -5.0625352e-01  -4.8647434e-01   1.1572456e-01   3.8833440e-01   7.0088572e-01  -8.8522220e-02  -8.6337086e-01  -5.5066881e-02  -9.1071304e-01  -7.0402595e-01   2.4624089e-01   3.8325636e-01   7.2933537e-01   2.8091091e-01   3.3682314e-01  -5.6653383e-01  -6.1835553e-01   1.3981127e-01   6.0974538e-01  -1.5195792e-01  -4.3073621e-01   5.6348141e-01  -1.7233072e-05  -2.1660749e-01  -9.7952614e-01   2.0397355e-01  -5.6591867e-02  -8.9393009e-01  -8.0735810e-02  -6.2776498e-01  -9.5238506e-01  -9.1618662e-01   4.4012135e-01   8.3346033e-01   4.5182817e-01   9.6364455e-02   8.0868192e-01   2.9048360e-01   6.3860503e-01  -3.6671340e-01  -6.4805214e-01   3.1406989e-01   7.5762734e-01   7.3238682e-01   6.5463269e-01   3.8787990e-01  -4.5944787e-01  -9.6671871e-01   5.6053945e-01  -6.2905332e-01   2.4999768e-02   5.3215314e-01   1.5880858e-01  -6.1359029e-01   1.2539582e-01   7.0723352e-01   8.1121350e-01  -1.9541844e-01   7.5422538e-01   7.0651793e-01  -2.5794590e-01   6.0209791e-01   7.8790865e-01   2.3225952e-01  -8.6983062e-01   2.7826992e-01   5.2977143e-01  -7.0481408e-02   1.7090164e-01   8.2987353e-02   3.1481187e-01   2.3931873e-01  -1.0640019e-01   3.4372960e-02  -2.0105553e-01  -5.5671861e-01   4.5773084e-01   6.2014250e-01  -3.0541457e-01  -2.5533495e-01  -8.9756192e-01   6.1002911e-01   2.0829441e-01   5.8740449e-01   8.7022095e-01  -1.3467271e-01  -2.9716005e-01  -5.7590840e-01   5.6703932e-01   3.0975691e-01  -4.7818884e-01  -2.9647746e-01   7.7201753e-01  -7.1168992e-01   4.8821661e-02   6.3353628e-02  -1.3815663e-01   2.1295956e-01  -2.7273992e-01  -6.5422800e-01  -4.3294322e-01   2.2052942e-02  -2.0690559e-01   1.5768820e-01  -1.9188208e-01  -6.3667369e-01  -4.3772826e-01  -6.6361523e-01  -8.7749545e-01   2.9063807e-01  -1.9710703e-01   7.9137388e-01  -6.2711688e-01  -4.5700491e-01   8.9118313e-01  -7.0125213e-02   1.1443123e-01  -7.5032524e-01  -5.7354755e-01  -1.8524597e-01   3.2783795e-01  -8.1507729e-01   5.7826317e-01   8.5571409e-02   6.8911643e-01  -1.9715525e-01   1.8805941e-01   7.7932395e-01   7.2323437e-01  -1.7220510e-01   6.0378413e-01   2.6753051e-01   7.4980606e-01   1.0764867e-01  -5.6727539e-01  -7.4316475e-01   5.8136269e-01  -5.8512144e-01   1.1416360e-01   2.1516765e-01   7.7096028e-01   4.7517911e-01   1.9127685e-02  -9.3436735e-01   1.0548907e-01  -5.7085411e-02  -6.5291773e-01   8.2163903e-01   2.0214275e-01   4.0047319e-01  -2.9541201e-01   9.0365970e-01  -9.1313886e-01   9.2807838e-01   9.8953831e-01   9.3762961e-01   7.7205658e-01  -6.1076420e-02  -6.9210172e-01  -2.3302495e-01  -7.0929925e-01  -5.1568684e-01  -8.9741633e-01   9.2924601e-02   1.4097002e-01  -8.8769373e-02   2.2183830e-01  -6.7247375e-01  -6.2262576e-01  -1.0160068e-01   2.8126545e-02   8.4342399e-01   7.0322002e-01  -5.1628143e-02  -1.0547878e-01  -7.1361784e-01   7.9203226e-01  -2.8187632e-01  -9.2298848e-01   4.9618980e-01  -1.6371051e-01  -2.5874701e-01   3.7864193e-01  -1.6676457e-01   9.8842262e-01   8.1361872e-01   7.3829915e-01   8.4733567e-01  -8.6878692e-01   8.5974288e-01   2.9134933e-01   7.8257570e-01  -7.5964555e-01  -8.1349264e-01   8.8828272e-01   5.2648638e-01  -2.7845477e-01  -9.1025517e-01   5.5336733e-01  -9.2291193e-01   9.4606106e-01   2.7752026e-01  -9.2769331e-01  -4.0837650e-01  -2.3010305e-02  -2.5655605e-01   1.8502055e-01  -2.8158000e-01   4.0049885e-01   6.4520350e-01   7.0487389e-01   9.0895552e-01  -7.2723887e-01  -4.4664562e-01   8.1891685e-01   2.7939071e-01  -3.9062725e-01  -7.8420792e-01   4.8014542e-01   5.5008907e-01  -9.0314098e-01   2.2357651e-01  -9.0799246e-01  -2.7750270e-01  -1.4199854e-01  -3.3850530e-01  -4.3206188e-01   5.3604694e-01   6.6464126e-01   8.1839152e-01  -5.3482415e-01  -1.0208210e-01   5.8630244e-01  -2.0270465e-01  -3.7210461e-02  -9.8246355e-01  -5.3023890e-01   6.9429599e-01  -1.6989816e-01  -3.2571157e-01   9.6393306e-01   2.2768997e-01  -5.5095072e-02   7.4627750e-01  -6.9895131e-01   2.5348987e-01  -4.6345388e-01  -8.9818473e-01   1.4159373e-02   4.2741448e-01  -6.0359508e-01  -2.5377944e-01   3.2444328e-01  -7.2446211e-01  -2.5177446e-02   8.4835620e-01   3.2525109e-01   8.7564983e-01   1.9226689e-02   8.9687394e-01  -9.0877228e-01  -9.3335332e-01  -3.5705663e-01   4.0651858e-02   5.1479442e-01  -4.9922220e-01  -3.5150574e-01  -5.4445050e-01   8.0726800e-01  -2.5247472e-01  -4.2166319e-01  -5.2837404e-01  -1.3793287e-01   2.7150271e-01   6.1302290e-01   8.0075034e-01  -5.6326560e-02   6.6282783e-01  -4.6230872e-01   4.7187298e-01  -7.8385124e-01   1.2396872e-01  -6.1464082e-01   4.4336584e-01   1.7143664e-01  -7.9843224e-01   9.2837003e-02  -3.8822368e-01  -1.5355370e-01   9.8593730e-02  -9.1421816e-01  -7.5745455e-01  -8.4694709e-01  -9.1035110e-01  -1.5269833e-02   2.8025918e-01   7.4423697e-01  -4.0234117e-01  -4.6500154e-01  -2.2327262e-01  -1.7354858e-01   6.7363238e-01   3.3449335e-01   7.8117883e-01  -4.9782039e-01   6.9945513e-01  -2.2687755e-01  -6.6293659e-01   3.1925676e-01   8.4944153e-01  -4.8167180e-01  -1.4374546e-01   4.4722220e-01  -8.0846874e-01  -3.7175171e-01   2.0521142e-01  -7.5116386e-01   2.6442999e-01  -6.6635696e-01   4.4061811e-01  -7.1149415e-01   2.9034497e-02   3.7783506e-01   4.8494815e-01  -1.6399106e-01  -3.1491068e-01   8.8473957e-01  -5.9639967e-01  -9.3835482e-01   1.1156429e-01  -5.6766994e-01   2.1292214e-01   9.3544158e-01   2.3502686e-01  -2.4346584e-01   3.6157114e-01   7.3476094e-01   2.4107624e-01   2.8745000e-01   8.5441985e-02  -5.5695362e-02   4.6783876e-01  -7.9520004e-01   7.1954791e-01   4.6974344e-01   1.4507978e-01  -8.0266958e-01   2.3851059e-01  -8.4891519e-01  -3.3401486e-01  -6.1724010e-01  -1.7099537e-01  -5.7219912e-01  -7.3286920e-01   5.1068540e-02   2.7981452e-01   6.0126482e-01   7.6568509e-01   9.9582401e-01   9.8900299e-01  -2.6076945e-01   8.5791858e-01  -7.9373727e-01   8.5000476e-01   3.5584876e-02   1.2610097e-01   4.4086177e-02   9.3308913e-01   5.5219757e-01  -9.3923991e-01  -9.7324195e-01   1.7274980e-01  -9.0657925e-02  -2.8819868e-01  -2.2784247e-01  -7.4691504e-01  -9.8424478e-01  -5.3765229e-01  -5.3057574e-01  -4.2617910e-01  -1.2712631e-01   5.4871062e-02   5.4305726e-01  -6.9604103e-01   1.1859516e-01   6.6535845e-01  -4.5812519e-01  -1.9675156e-01  -8.1833505e-01  -8.3289214e-01   2.2215982e-01   4.3810990e-01  -9.9202216e-01   5.7922937e-02   8.1514312e-01   6.6002224e-01   4.6027714e-02  -5.2237106e-01   3.1081064e-04   8.7124578e-01   5.0079736e-01  -4.8991924e-01   6.0356249e-01  -8.8684490e-01   6.0494589e-01   2.3270069e-02  -3.6462886e-01   6.3146435e-01   1.0863438e-01  -6.2450221e-01   4.6882037e-02   8.3953863e-01  -5.2430382e-01   4.0108013e-01  -9.2480668e-01  -7.1123606e-01  -7.1526991e-01  -9.7839995e-01  -2.0313379e-01   6.5658135e-01  -6.9135910e-01  -1.0820978e-01  -4.2940693e-01  -3.8504726e-01  -8.5641010e-01  -3.4244594e-01  -7.2908220e-01  -9.2143677e-01   4.2748457e-01  -7.4012163e-01   5.0390500e-01  -8.3692318e-01   1.2301389e-01  -3.8109373e-01  -9.7887450e-01   7.0132620e-01   1.9248083e-01   9.4044540e-01  -2.5765671e-01  -7.2371002e-01  -1.8318867e-01  -3.1534652e-01   6.8597806e-01   4.4684943e-01  -9.1262490e-01   9.4808569e-01  -5.1756310e-01  -7.0336059e-02  -9.1728155e-01  -2.4760160e-01  -3.9457961e-01  -6.8333248e-01   3.6479303e-01   5.7001846e-01  -2.8452392e-01  -5.0941183e-01   7.6736050e-01   3.6526281e-01  -3.4723439e-01   4.0896653e-01   4.3323659e-01  -8.9852825e-01  -6.7029578e-01   4.3572287e-02   5.3321270e-01  -1.0448566e-01  -4.4721495e-01   3.8594116e-01   9.5517190e-01   5.6835016e-01  -1.9970028e-01   9.1058978e-01  -6.7646042e-01  -3.0907599e-01  -9.7840076e-01  -9.6850855e-01   4.6896370e-02  -4.5254191e-02  -4.8824032e-01   4.6989170e-01   3.8762948e-01  -3.3100562e-01   3.0018706e-01   8.6659776e-01  -7.9708174e-01   5.2267982e-01   2.5949542e-01   6.8052188e-01   8.8702704e-01   8.8001202e-01  -9.6482067e-01   3.1081781e-01  -1.8730860e-01  -7.1691915e-04  -8.7858090e-01  -2.7263374e-01  -9.2180654e-01  -2.7218709e-01  -7.6281015e-01   8.3328029e-01  -6.5492751e-01   8.2576241e-03   3.5368336e-01  -5.6453634e-01   8.4733133e-01  -2.2827040e-01   8.6810799e-01  -4.3912312e-01  -9.5344925e-01   5.6218789e-01  -6.3601193e-01   9.1538638e-01   9.5953846e-01  -9.0348230e-01   9.9608692e-01  -3.0528042e-01  -7.9415852e-01   5.5629636e-01  -2.1586528e-02  -5.9314828e-01  -5.0449747e-01  -8.6018474e-01  -7.9857925e-01   9.1280006e-01   4.5454818e-01   6.6008720e-02   1.7733665e-01  -7.2573370e-02   4.0772046e-01   5.3639801e-03   7.7367055e-01   2.9002443e-01  -2.7760063e-01   5.0071468e-01  -3.1179798e-01  -9.8478579e-01   5.7040212e-01  -4.8909953e-01   5.4495248e-01  -5.5420781e-01   9.9130663e-01   3.5699030e-01   7.4067067e-01   2.2640688e-02   2.5936928e-01   5.1958661e-01   8.6353437e-02   5.5177244e-01  -2.9946448e-01   3.0837729e-01   5.4399820e-01  -6.2843256e-01  -5.4529846e-01   3.9302171e-01   6.0516341e-01   6.7506335e-01  -4.4507794e-01   1.6212447e-02  -7.5782219e-01  -3.9674153e-01   1.1913218e-01   2.0145459e-02  -7.9220152e-01   8.1650280e-01  -1.8471901e-01   3.2959247e-01   3.5486695e-02   2.6832678e-01   9.5417616e-01  -8.9455391e-01  -8.6961324e-01   3.8988648e-01   9.7557834e-01   3.1862867e-01   3.3675792e-01  -2.6038714e-02  -9.0437245e-01   5.4063237e-02   4.5960189e-01   4.1456945e-01   3.3737829e-01   9.9837854e-01   8.5377252e-01   6.4936533e-01  -2.0075401e-01   3.1772532e-01   3.9230967e-01   9.2455114e-01  -1.7045800e-01  -6.7875727e-01  -6.3489567e-01   6.7114928e-01  -4.8336504e-01   9.2456877e-01  -4.2993116e-01  -3.6092633e-01   6.4892960e-01   2.9730938e-01  -3.1735618e-01  -5.5780124e-02  -5.6905645e-01  -9.0271894e-02  -7.8344447e-01  -3.5214647e-01  -5.3049343e-01   6.3239969e-01  -7.0523992e-01  -1.3394088e-01   7.2555773e-01  -1.9118632e-01   9.5785242e-01  -4.1462374e-01
   3.9386808e-01  -7.0286118e-01  -6.2420255e-01  -7.1141599e-01   4.1521104e-01   5.1610961e-01  -8.2150876e-01  -6.4381741e-01   4.9157416e-01  -9.4357375e-02   3.8591248e-01   5.2282932e-01  -4.8598433e-01  -3.7288464e-01  -3.4855506e-01   4.2201201e-01   8.9672348e-01  -3.8533293e-03   3.1138476e-01   7.6312012e-01   2.1568567e-02   8.0043349e-01   4.0312484e-01   3.2191259e-01   1.6951831e-01   6.1731706e-01  -9.6703569e-01  -1.3667567e-01  -6.0546654e-01  -3.4081996e-01  -6.4850574e-01   7.2651620e-01   7.2105295e-01  -4.4561268e-01   7.0204950e-01   9.6356699e-01   9.5077177e-01  -7.7980831e-01   7.9901023e-01   4.4389156e-01  -2.6193957e-01   5.2486011e-01   9.8961016e-01   3.4827157e-01   2.1094668e-01   3.6008871e-01  -8.6188941e-01  -8.9915824e-01   9.5483970e-01   6.0267724e-01  -6.3317243e-01   2.1438059e-01  -3.9507694e-01   7.8153576e-01   8.5684009e-01   4.7421668e-02  -2.6817282e-01  -2.9427420e-01   8.0997787e-02  -1.4226782e-01   9.5679955e-01  -9.7454978e-02   8.1066268e-01   8.0262834e-01  -8.6749034e-02  -7.2776494e-01  -7.3857508e-01  -6.9290230e-01   3.8084675e-01   5.3598726e-01   6.0683048e-01  -4.3673197e-01  -1.7633156e-01   6.4648526e-01   2.2662838e-02   3.1444367e-01   6.8213171e-01   1.8467163e-01   8.2385336e-01   2.0519986e-01  -6.1968190e-01   6.3826171e-01   5.6488130e-01  -6.4674462e-01  -1.8293617e-01   8.8522967e-01   1.0186026e-02   5.3734293e-01  -1.7188780e-01  -6.0154637e-02  -3.8031809e-01   6.0889436e-01  -2.3158443e-01  -1.5965968e-02   7.2716420e-01   9.4986194e-01  -2.2906312e-01   9.9298499e-01   1.0252128e-01   6.9266591e-01   1.9328079e-01  -7.7409843e-01  -7.3182469e-01  -8.7237792e-01   5.7980114e-02   9.4502313e-01   6.6354028e-01  -4.3605359e-01   9.7080320e-01  -9.1504985e-01  -5.4496351e-03  -2.5912597e-01  -2.6941415e-01   6.3289272e-01   8.9637102e-01  -7.2195062e-02   3.2564187e-01   5.0044595e-01   4.6810919e-02  -2.6841058e-01  -5.9670447e-01  -9.4338584e-01   7.6199036e-01  -1.8163255e-01   4.3764335e-01   2.5326326e-01  -4.4215495e-02   1.7493637e-01  -7.9761474e-01  -1.4255148e-01   1.8619279e-01   7.3157549e-01   3.0157793e-01   4.6332155e-01   2.3459438e-01  -8.2222106e-01  -7.1042029e-01  -2.4813388e-01   5.0009469e-01  -4.6033072e-01  -2.8950255e-01  -5.5172866e-01   1.2201455e-01   1.8663433e-01   1.1814121e-01   4.0709949e-01   9.4927073e-01  -1.9729266e-01  -2.2044038e-01  -4.2316162e-01  -4.3044996e-01  -3.5660823e-01   9.2783527e-01   1.8032356e-01  -2.9119281e-01  -9.6538779e-01  -1.4386254e-01   8.6864132e-01   9.2814676e-01  -9.8903702e-01   9.7679324e-01  -3.6006364e-01   7.4400971e-01  -1.7359483e-01  -7.3608203e-01   5.5527841e-01   9.9244951e-01   9.2487151e-01  -8.9875025e-01  -8.7031872e-01   7.6005111e-02   4.0461001e-01   6.4907370e-01   3.2983972e-01   2.1704509e-01   5.8439085e-01  -3.1292519e-01  -1.1282276e-01  -4.4593485e-01   8.1219749e-01   7.7896979e-01   2.4585737e-01  -5.5088936e-01  -8.5781720e-01   7.8463290e-02   1.9007067e-01  -8.2161211e-01  -7.6828602e-01  -3.0356495e-01   1.6854673e-01  -2.7739570e-01   9.7476525e-01   9.9973107e-01  -4.2036880e-01  -9.6408929e-01   6.7012063e-01   7.6745225e-01  -4.7341681e-01  -8.8411422e-01  -1.6316274e-01  -4.1367308e-01  -9.3153500e-01   5.1976247e-02  -9.0391566e-01  -9.8459497e-01  -8.8021970e-01   9.9833848e-01  -9.4340740e-01  -7.5645392e-02  -8.1586286e-01   4.2813948e-01  -9.9043325e-01  -4.3049645e-01  -7.7002482e-01   7.6339412e-01  -1.7283550e-01   6.9706051e-01   2.6202535e-01  -1.5799894e-01  -8.7158629e-01  -2.3457040e-01   6.6577390e-01  -9.1657790e-01  -3.0325956e-01  -7.8733708e-01   6.1474423e-01   8.3313483e-01  -7.2346630e-01   6.1860491e-01   7.9612651e-02  -9.1415474e-01   2.8889089e-01   3.7512312e-01   1.1649959e-01  -9.3251627e-02   2.5485523e-01  -7.9130925e-01  -1.9709968e-01   7.1501448e-01   7.5256385e-01  -6.6938559e-01  -8.6895052e-01   4.0887158e-01  -7.7269393e-02   4.7655009e-01   2.2394937e-01   6.5142316e-01  -6.0310218e-01  -8.8083979e-01   3.8742883e-01   8.2206110e-01   5.9680416e-01   2.4079982e-01   5.5172909e-01  -7.2237881e-01   5.8270255e-01   9.5304105e-01   6.2269099e-01  -4.1503778e-01  -4.9808360e-01   3.9284134e-01  -9.7934379e-01  -4.0508956e-01   2.6840702e-01   2.2338043e-01   6.5823137e-01   3.2554439e-01   4.5586523e-03   5.6476789e-01   6.7592020e-01  -6.5538659e-01   3.6804094e-01  -5.5225997e-01   3.4631952e-01   1.7518614e-01  -1.6230519e-01  -4.4338181e-01   3.4312224e-01  -6.5754068e-01  -7.7811973e-01   2.9619935e-01   4.7755901e-01   7.5858052e-01   4.7499891e-01  -8.7902318e-01   4.4800002e-01  -5.0354548e-02   3.4612715e-01  -2.5809910e-01   8.6145817e-01   6.5594570e-01  -4.0793552e-01   8.8173840e-01   2.2708667e-01  -7.2519114e-01   4.4629625e-01   4.4884836e-01   5.6590594e-01  -6.5113869e-01   2.5613740e-01   3.6668155e-01  -8.6244486e-02   7.5026188e-01   9.1328071e-01  -3.3764444e-01   4.7877355e-01   7.3293851e-01   4.1742006e-02   3.6159188e-01  -6.8075106e-01   6.8999920e-01  -2.9361594e-01  -6.6268272e-01   7.2928284e-01  -6.2198149e-01  -6.7286049e-01   2.8794225e-01  -1.9914695e-01   4.6892470e-01   1.9638401e-01   2.3948163e-01  -9.3440583e-01  -7.2110783e-01   5.5910796e-01  -4.1823731e-01  -7.3033268e-01   3.8164785e-01   9.4078937e-01  -9.6611668e-01  -1.5946164e-01   2.2562968e-01   1.9293905e-01  -1.3437075e-01   8.1293913e-01  -5.4536589e-01  -8.0555553e-01  -1.9645120e-01  -3.9151205e-01  -6.7031289e-01  -2.8621787e-01   6.9875415e-01   1.4883299e-01   9.0191200e-01   4.3469230e-01  -9.0797312e-01   8.2271555e-01  -7.5971102e-01  -6.9553049e-01  -7.2142614e-01   8.8705942e-01  -6.7929682e-01   7.2752815e-01   9.1323423e-01  -4.1936304e-01   8.5643499e-01   9.2892448e-01   8.4800100e-01   5.5184016e-01   2.4667309e-01   7.5469265e-01  -5.3349619e-01  -4.1570675e-01  -7.3769285e-01  -4.9210000e-02   4.8542715e-01  -9.3885485e-02   7.4849961e-01  -5.4009674e-01  -6.2896669e-02  -8.5899827e-01   2.0013503e-01   6.4080856e-03   7.6747861e-01   4.8630453e-01   4.3298999e-01  -3.4510921e-01  -5.8252804e-01   5.3249554e-01  -1.6022023e-01   6.6598650e-01  -7.0822010e-02  -2.6243365e-01   4.1982642e-01   4.9553111e-01  -7.6299205e-02   7.0179812e-01  -6.5246965e-01  -9.8453679e-01   6.4768362e-01   2.7382872e-01   8.6770399e-01   8.0496480e-01   3.3445095e-01  -7.7567425e-01  -8.6871948e-02  -3.2798437e-01   6.2504358e-01   9.9705223e-01  -4.9331126e-01   4.8331603e-01  -3.2531582e-01  -8.0631578e-01  -7.9735649e-01   9.3002039e-01   8.8009418e-01   3.8753812e-01   6.6763291e-01  -6.0239648e-01   8.6634491e-01   5.7364787e-01   4.3382219e-01  -1.8239627e-01   3.5568285e-01  -7.7973884e-01  -9.7605230e-01  -3.7988710e-02  -4.8937011e-01  -1.4071873e-01   9.2149013e-01  -6.7226808e-01   9.3866445e-01  -1.3813271e-01  -6.9659522e-01  -3.6858293e-01   3.5861667e-01   5.4398216e-01  -8.1972241e-01  -6.5984042e-01  -3.1185531e-01  -8.1648908e-01   2.0054256e-01   1.3982490e-01   2.3730421e-01   3.9834063e-01   1.1750781e-01   3.8300670e-01   4.6817988e-01   7.8637606e-01   1.2885763e-01   1.7543542e-03  -5.2909964e-01  -8.0149529e-01  -8.5530697e-01   1.7958321e-01   1.9470429e-01  -2.4064280e-01   1.4122242e-02   4.8141318e-01  -1.5159831e-01  -3.2718505e-01   5.6031946e-01  -2.8364644e-02   2.9712740e-01  -8.6160961e-01   5.9455472e-01  -9.2699463e-01  -2.1845310e-01  -3.6466622e-01  -7.7065139e-01  -2.6652017e-01  -6.5783735e-01  -6.5604591e-01  -4.0420198e-01  -4.0885103e-01  -1.4062109e-01   2.4022314e-01   3.7767269e-02   3.8822812e-01  -9.5561958e-01  -2.3430402e-01  -3.6074715e-01  -9.0152922e-01   6.4390367e-01  -9.5564190e-01   3.3067019e-01  -8.5397448e-01  -2.4149773e-01   1.7829087e-01   7.3386956e-01   8.0890781e-02   7.9203138e-01  -5.2672382e-01   8.2230184e-01   4.7432836e-02   9.5809522e-01  -9.8944935e-01   1.6929867e-01   3.5576409e-01   6.0530440e-01  -3.8498846e-01  -7.1216884e-02  -7.6247378e-01  -6.2133911e-01   3.8280384e-01   3.1870627e-01  -6.8883532e-01  -6.7692141e-01  -5.7253925e-04  -4.1399209e-01  -4.4732926e-01  -5.2494160e-01  -9.9423671e-01   4.8444742e-01  -4.9275447e-01  -3.8184650e-04  -6.4201738e-01  -5.4806312e-01  -9.9401125e-01   1.5149360e-01   8.1702667e-01  -3.3933884e-01  -4.9896800e-01  -5.7872662e-01   7.1495938e-01  -4.1128213e-01  -3.7424787e-01   9.7427416e-01  -3.2676824e-01   4.6001230e-01   7.8726472e-01   5.0767188e-01   4.2271599e-01  -7.8912876e-02  -9.0344545e-01   1.6877203e-01  -7.6271216e-01  -6.8903498e-01  -4.7765908e-01   3.4416156e-01   4.1770158e-01   5.8615077e-01   3.8316421e-01  -7.4511881e-01  -1.7712736e-02   1.6769056e-01  -2.6369020e-01  -6.9957518e-01  -6.7430451e-01  -4.9720780e-01  -9.2047915e-01   4.2557156e-01  -9.1963031e-02   5.7316115e-01   6.5390935e-01   5.4623687e-01   6.8706040e-01  -9.4002513e-01   1.9258841e-01   7.1334538e-01   4.7691660e-01  -6.8249468e-01   2.7376558e-01  -1.5076664e-01  -7.3914122e-01  -7.3741769e-01   3.2385715e-01   1.2364208e-01  -5.2943744e-01   8.4386181e-01  -9.1301980e-02  -7.2718700e-01   7.7624834e-01   6.2316997e-01  -5.5081397e-01   2.3336176e-01  -4.3838286e-01   2.5662607e-01  -1.4313395e-01   9.8901582e-01   9.6038738e-01  -2.7265198e-01   2.0170787e-01  -7.5275957e-01  -1.0239071e-01   3.1996279e-01  -8.1150307e-01  -1.5281577e-01  -7.8757438e-02  -3.1270443e-01   1.6994666e-01  -2.9372110e-01  -4.3690037e-01  -2.9311988e-01   9.8252386e-01  -4.0219470e-01  -3.0302729e-01  -3.5687496e-01  -3.6680971e-01  -5.5240467e-01   3.4165406e-02  -2.3124399e-01   5.6928132e-02   4.5125641e-01   1.0506901e-01  -2.4618128e-01   5.2081873e-01   8.2912961e-01   9.0703450e-01  -6.3601851e-01   7.1103726e-01   3.0617436e-01  -4.2380765e-01  -8.1941112e-01  -4.9869406e-01  -8.4066390e-01  -8.6954182e-01   2.7478742e-01   2.3329314e-01  -5.4034266e-03   3.1060328e-01  -4.4748313e-01  -4.4927149e-01   4.9166517e-01  -1.4348408e-01   7.2334771e-01  -6.4927449e-02   7.1846041e-01   7.5477811e-02  -7.5042403e-01   7.1260558e-01  -1.5057882e-01  -9.8970136e-01  -4.7034136e-01  -5.0140329e-01  -8.6455505e-01  -3.6839779e-01   5.7560268e-01  -5.2883067e-01   8.3828773e-01   2.0801747e-01  -8.2035783e-01  -2.3661896e-01  -7.6851617e-01  -5.8492837e-01  -6.1222522e-01  -9.6857539e-01  -3.6976142e-01  -8.7855007e-01  -4.0791012e-01  -8.0438775e-02   4.0882765e-01  -3.9610539e-01  -9.9143917e-01  -7.4457809e-01  -6.3791759e-01  -9.4780833e-01  -9.3821472e-01   2.6985155e-01  -1.2208658e-01  -4.6083767e-01   3.3976402e-02   5.0981074e-01  -3.3060202e-01   1.0523794e-01   1.2127828e-01   7.4382184e-01  -3.3927856e-01   7.7605239e-01   3.0543039e-01  -4.8626717e-01   1.7536442e-01  -6.2815247e-01  -4.6994457e-01   1.2378471e-01   5.7272696e-01   4.6908242e-01  -7.1765290e-01  -2.5059149e-01  -5.3918445e-01   5.2849363e-01   9.3331949e-01   9.8876415e-01  -8.0766587e-01  -2.9317568e-01   9.9576528e-01   6.9608286e-01  -2.6206706e-01   1.9618254e-01   2.7682510e-01   5.3078057e-01  -4.3856814e-01   2.0895830e-01   9.6620172e-01  -5.4014923e-01   9.8322090e-01  -1.9767911e-01   5.6348336e-01  -6.4541290e-01   4.2171029e-01  -6.0173276e-01   8.7398829e-02  -9.8755544e-01  -9.2750356e-01  -8.6088902e-01  -6.9193478e-01  -2.7711989e-02   1.1864667e-03  -4.6410392e-01   7.3916018e-01   3.7077529e-01  -1.4183956e-01   3.5785563e-01   3.4918354e-01   7.8564824e-02   4.5892053e-01   8.6229489e-01   9.0158535e-01  -2.0386689e-02  -5.6502018e-01   7.6134604e-01   9.8618813e-01  -8.4100436e-01  -7.5651197e-01   1.0036189e-01  -3.6197747e-01   2.5932746e-02   1.1796172e-01  -2.2577105e-01   5.9810172e-01   2.5984351e-01  -4.8385290e-01  -2.2775348e-01  -1.1043180e-01   3.2807010e-02  -2.3996440e-01  -7.6258725e-01   1.0326443e-01  -7.5993685e-02   2.3026620e-01   1.8744749e-01   2.1152784e-01  -6.0119021e-01  -8.1279931e-01   6.4728822e-01  -5.9487265e-02   5.6172574e-01   9.8532355e-01   2.8376177e-01  -2.4482250e-01  -1.5669505e-01  -5.9137495e-01   8.4512176e-01  -8.6539094e-01  -5.1092692e-01   6.6567140e-01  -6.3919274e-01  -2.8917575e-01   4.6759636e-02  -7.3832681e-01   9.8171445e-01  -4.2228205e-01   3.4213783e-01   4.4352387e-01   7.6901857e-01  -1.3556692e-01  -1.9333800e-02  -7.0952683e-01   5.7252844e-01   9.5861110e-01  -5.0768904e-01   1.7891317e-01   3.3918414e-01  -1.0286299e-01   1.2376684e-01   1.2445613e-01  -8.3531714e-01  -1.5552714e-02   4.4322369e-01  -4.7328137e-01   1.7826545e-02  -6.1555801e-01   6.6830056e-01  -9.6833605e-01  -9.0505486e-02   6.9507994e-01  -7.4660765e-01   5.7348477e-01   5.8941244e-01  -2.6707007e-01   6.8543848e-01  -1.7281655e-01  -3.5404282e-01   8.7297307e-01   7.8238641e-01   3.1192999e-02  -8.2075987e-02  -2.4371481e-01  -3.9034158e-02   4.8711983e-01   7.1763668e-01  -9.0118157e-01  -4.8346984e-01  -5.0774008e-01   3.3889423e-01  -3.7969868e-01  -9.8377000e-01  -1.8183915e-01  -4.9701425e-01   2.7713738e-01   1.5094057e-01   9.4497841e-01   3.3099011e-01   5.4188908e-01   7.9697052e-01   7.8380810e-01  -9.5801925e-01   3.0209032e-01   4.4053765e-01   4.4240576e-01  -1.2053671e-01  -4.2989558e-01   6.4326006e-01   7.2000341e-01  -5.3749441e-01  -1.5005307e-01   5.5494444e-01  -8.6336974e-01   3.0324215e-01  -6.4421888e-01   2.4504063e-01  -5.3466418e-01  -5.3416325e-01   8.1505141e-03   4.3115197e-01  -5.0363720e-01  -9.2748613e-01   8.8255167e-01   5.3383789e-01   6.2038090e-01   2.8137055e-01   1.9871639e-01  -6.3997600e-01  -8.8302042e-01   4.4349731e-01  -3.3491648e-01  -8.3898639e-01  -2.3057507e-01  -3.4523258e-01   5.9475816e-01  -5.3985163e-02   4.5406072e-01   5.1772633e-01  -5.2539181e-01  -7.6764109e-02  -7.9011450e-01   9.3334669e-01  -6.0391174e-02   5.1137546e-01   5.5002953e-01   3.0485026e-01   5.3999045e-01   3.3119316e-01  -1.5062574e-01  -5.8682831e-01   6.7657793e-01   6.5618370e-01   8.7972639e-01   3.4905238e-01  -6.3036930e-01  -3.8924861e-01  -8.7978133e-01   4.7037973e-02   4.0318781e-01   5.9060350e-01  -7.6869131e-01   6.6074040e-02   1.6072059e-02   3.9191171e-01  -3.7734530e-01   8.6082526e-02  -6.5057870e-01  -7.5631229e-01   3.8618501e-01  -3.7519831e-01  -6.1525011e-01  -4.9671711e-01  -6.0125989e-02  -9.6918654e-01   2.2723438e-01  -6.2593248e-01   2.0690924e-01   8.8491680e-01  -4.4533352e-01   4.4875673e-01  -5.4210216e-01   7.4945919e-01  -3.9074630e-01   7.4309327e-01  -9.4028824e-01   4.4908721e-01  -9.8321121e-01   6.7182210e-01   4.9247049e-01  -7.7104106e-01   2.0379455e-01   9.1762001e-02   9.7428423e-01  -8.0889351e-01  -7.9847510e-01   8.3271904e-01  -5.4410242e-01  -3.2231185e-01   9.7631876e-01   1.8443586e-01  -1.6064769e-02  -1.0205979e-01  -1.0379450e-01   1.7981127e-01   7.4869800e-02  -5.4636127e-01  -6.5360886e-01   2.3539627e-01  -3.4725736e-01   3.2778988e-01   1.9260811e-02   4.3307412e-01  -1.7394749e-01   4.5600979e-01  -8.1883668e-01  -8.7686519e-02   1.1066471e-01  -3.2443834e-01  -8.7638781e-01  -2.3729472e-01  -2.9815076e-02  -4.5937064e-01  -9.0309785e-01  -8.6325542e-01   5.2802476e-01  -7.0418872e-01  -8.4228746e-01   2.6573693e-01  -6.3820946e-01   8.3233300e-03   6.9146252e-01  -8.1396374e-01  -3.1053684e-01   6.8600848e-02  -7.7951383e-01   7.2437047e-02  -7.1910974e-01  -2.8882212e-01   5.7355032e-01   1.9602151e-01  -9.1174623e-02   3.6829774e-01   6.1090450e-01  -6.0102036e-01   7.4304276e-01   1.4284190e-01   2.8548674e-01  -8.3986110e-01  -3.3244039e-01  -7.7289081e-01   8.9415525e-01   3.9600273e-02   1.4893037e-01  -2.3900744e-01   5.6087070e-01  -1.2461398e-01  -9.5665064e-01   3.8951977e-01   2.5294938e-01   8.6461479e-01   5.6058056e-01   2.8119650e-01   2.6368808e-01  -4.2964758e-01   7.2740896e-01   5.1278830e-01   8.6275376e-01  -3.8216397e-01   2.6872250e-01  -1.6222733e-01   8.5702765e-01   3.0601519e-01   5.2333151e-02  -3.0805722e-01   1.2789208e-01   9.5688546e-01   8.5066171e-01  -8.7084242e-02  -7.4192430e-01   5.1841866e-01   4.3141476e-01   8.8694622e-01   1.5372006e-01   7.3079884e-01  -4.8029973e-01  -6.2840654e-02   1.0240119e-01   5.4258875e-01   9.3443144e-01   2.9599579e-01   4.4232170e-01   4.6183251e-01   9.5379638e-02  -9.8491182e-02  -8.7984810e-01  -6.5478496e-01
  -3.6702374e-01  -9.0439997e-01  -4.9862597e-01  -3.0047587e-02  -4.8322842e-01  -9.9581589e-01   3.4386451e-01  -1.7410406e-01   1.8844232e-01   5.1162223e-02   7.4536260e-01  -2.2468635e-01  -1.9175185e-01  -3.6240787e-01  -8.5486596e-01   1.8907008e-02  -1.6289965e-01   1.3422387e-01   9.6457677e-01   1.1721309e-01   1.4224314e-01  -6.0342716e-02  -4.7857822e-01  -8.9188218e-01   8.1808871e-01  -2.1545415e-02  -4.6389405e-01  -1.1977261e-01   2.5555172e-01  -1.4657569e-01   2.4031604e-01   1.2332239e-03   4.0626893e-01  -9.3541906e-01   5.3318782e-01   6.6445990e-01   1.6251005e-01   2.7421065e-01  -8.4815556e-01   2.9296618e-01   6.3228017e-01   6.8612598e-01  -9.0373460e-01  -4.0537315e-02  -7.6067415e-01   8.8186149e-01   7.1036251e-01  -7.4173626e-01  -1.4177530e-01   1.8392987e-01   5.5092255e-01  -4.3851258e-01   7.1420757e-01   5.0959893e-01  -7.2100569e-01   4.0474153e-01   5.6566304e-01  -8.8339915e-01  -7.7218250e-01   5.1293991e-01  -8.0220961e-01  -2.3251353e-01   1.8051448e-01  -4.9955949e-01  -7.6214562e-01  -8.0511355e-01  -7.6058548e-01  -9.5180651e-01  -1.2249525e-01  -1.4385096e-01  -6.4794906e-01   7.0389041e-01  -2.6547527e-01  -8.8920607e-01   6.0807889e-01   1.8116548e-01   5.1022182e-01   3.8840459e-01  -7.5350717e-01  -6.8143622e-02   3.6415791e-01  -9.2808238e-01  -3.2659542e-01   9.5134611e-01  -5.9455744e-02  -7.0042914e-01   6.4860396e-01   1.6936497e-01   9.4212102e-01   4.6588187e-01   6.2954426e-01  -6.5561868e-01   5.4429878e-01  -5.9409576e-02  -2.2220020e-01   3.7818842e-01  -4.2653351e-01  -3.8574719e-01  -2.2641374e-01   5.3066994e-01  -8.7804659e-01  -8.1825725e-01  -3.4496013e-01   4.0130382e-01  -4.0143771e-01  -2.5400001e-01   1.4100320e-02   5.7433512e-02  -3.0864622e-02   7.9755639e-01   4.3300484e-01  -7.4149611e-01  -6.5378891e-01  -2.3220277e-01  -6.6283739e-01   2.1528345e-01  -7.7651922e-01  -4.2177415e-01   6.3747788e-01  -1.2822919e-01  -4.4654525e-01   4.9878900e-01   3.4227514e-02  -7.1524565e-01  -2.0428820e-01  -6.5957205e-02   6.9205507e-01  -4.9444072e-01  -8.7721000e-01  -6.9346398e-01   5.4572481e-02  -2.8817527e-01   2.6803210e-01   4.6449074e-01  -5.3849521e-01   8.0434419e-01   2.7953033e-01   3.0705559e-01   8.9044617e-02   6.9505803e-01  -5.7360156e-01   5.9853244e-01   4.6674141e-03  -6.9286257e-02  -5.9798810e-01   8.9688624e-01  -2.6433845e-01  -6.0186648e-02  -5.0990209e-01   4.7055528e-02  -8.2669545e-01   7.3948951e-01  -6.6581868e-02   4.1268696e-01  -8.9799171e-01   6.7325247e-01  -5.2067275e-02  -1.8493520e-02  -5.1143752e-01   6.2300676e-01  -1.1064399e-01  -6.6615452e-01   4.6381142e-02  -3.5377773e-01   5.1994355e-01  -9.4480145e-01   9.1798424e-01  -4.2371758e-01  -1.5861259e-01   4.1037700e-01   8.7209950e-01   9.1167818e-01   3.7049248e-01   1.1900925e-01  -8.0108330e-01   7.5529767e-01   4.4511957e-01  -4.6777399e-01  -9.2341654e-01   7.1299700e-01  -3.2739209e-01   8.5591826e-01  -4.2614749e-01  -4.9164430e-01  -1.5495672e-01   6.8764846e-01   6.2245100e-01   6.9791818e-01   4.8598627e-01   5.6357440e-01  -5.7230186e-01  -4.7652721e-01   7.5484782e-01  -6.8226731e-01   9.1094765e-02  -2.2682636e-01  -4.1370007e-01  -5.2985167e-02   1.4037310e-01  -2.5064259e-01   5.6670643e-01   8.7623881e-01  -8.9068790e-01  -2.5691754e-01  -5.3592151e-01  -1.4303421e-01   3.3146196e-01  -2.4636566e-01  -8.5753184e-01  -5.7762561e-01  -9.0366266e-01   8.6905219e-01  -6.2343539e-01  -8.4629176e-01   4.3871082e-01  -6.5569173e-01   3.9542209e-01   9.5288721e-02  -9.0881033e-01   2.7421909e-01  -5.0135674e-01   9.5264086e-01   1.5304321e-02  -1.8441120e-01  -7.9388228e-01  -9.9536762e-03   6.9636688e-02  -3.8391687e-01   1.2090986e-01  -6.1860449e-02  -6.5657149e-03  -4.4070470e-01  -5.4303976e-01   4.4673200e-01   4.4755707e-01  -6.9470677e-01   1.5743849e-02   8.1681836e-01   5.5007461e-02   1.5082003e-01  -5.0734374e-01   7.2125059e-01   3.1013237e-01  -2.1100567e-01   8.9046286e-01  -9.9310922e-01   3.4297327e-02  -9.8755971e-01   6.9198553e-01   6.1880736e-01   5.2093928e-01   5.9749791e-01  -6.7353200e-01   7.9166301e-02   8.9983223e-01   9.5631249e-01   3.8637520e-01   6.4322184e-01   1.5818386e-01  -1.0803461e-01   2.4640547e-01  -1.2383787e-02  -9.8547515e-01  -2.7509466e-02  -9.8118853e-01   8.4849829e-01   8.6466337e-02   6.2201310e-01  -6.8927855e-01   4.8724966e-01  -8.7068252e-01   5.4521030e-01   6.5759807e-01   1.4128794e-02  -1.9682287e-01   6.8292711e-02  -1.3944575e-01  -9.2272876e-01  -3.3758062e-01  -8.0881527e-01   3.4615548e-01  -2.0315846e-01   8.7448934e-01  -5.2288955e-01  -9.6729326e-01  -2.9308711e-01   9.9470373e-01   3.3737759e-01   9.8908860e-01   5.2565610e-01   7.1207467e-03   3.3879639e-01  -7.8812470e-01   3.2849389e-01   7.4643316e-01   1.2480998e-01  -5.8042154e-01  -8.1435688e-01   7.2596535e-01   8.1696905e-01  -9.1215643e-01   8.9495737e-01   1.4192706e-01   8.5740478e-01   9.8695545e-01  -1.5735015e-01  -7.1417411e-01   4.4526275e-01  -3.4527127e-01  -9.0832761e-01   7.3146463e-01   7.8504972e-01  -7.1442598e-01   3.2352846e-01  -3.1565742e-01   8.9849268e-01  -8.7413758e-01  -1.5607447e-01  -1.9556914e-01   8.6739189e-01   2.4794973e-01  -8.0193727e-01  -7.7707849e-01   9.6149250e-01   8.1907840e-01   5.5602555e-01   1.4410736e-01   5.0789045e-01   7.1397977e-01   4.9612721e-01  -3.2664854e-01   3.1656076e-01  -7.5310990e-01  -7.6579460e-01   3.9944164e-01  -5.0666405e-01   7.7142077e-01   5.8738485e-01   5.1379129e-01   9.8823248e-02   8.4179451e-01  -9.4646006e-01  -1.0317297e-01   2.5872456e-01   7.0811559e-01   3.8863043e-01   8.8882332e-02  -1.5145215e-01   2.8275003e-01  -3.9659334e-01  -5.5609005e-01  -7.1363118e-01   8.4466669e-01  -6.6675564e-01  -7.4224888e-01   9.1268980e-01   1.6973398e-02  -5.9862685e-01   6.9759943e-01   7.1461140e-01   4.9591272e-01   3.2439128e-01  -5.3281114e-01   5.4374212e-01   8.3796181e-01   4.6165780e-01  -3.7480763e-01  -3.5975546e-01   1.1190452e-01  -8.0168608e-01  -2.9445976e-01   7.5231889e-01  -5.4903525e-01  -8.5927894e-01   9.9440388e-01   3.3288039e-01   3.4724920e-01   7.7675500e-01   3.3624757e-01  -1.4506161e-01   4.8474578e-01  -3.3271274e-01  -8.4459592e-02   1.9650959e-01  -8.4096698e-01   4.4155415e-01  -7.8701984e-01  -4.4721793e-01  -4.9944454e-01  -3.3466065e-01  -3.7435256e-01   9.7547967e-01   5.2426121e-02   3.7992914e-01  -4.5871746e-01   3.6731625e-01  -4.0574940e-02   2.9939481e-01   3.5989254e-01  -6.8057181e-01  -7.8023437e-01   8.4169820e-01   6.8253853e-02   2.2768419e-01   1.5391504e-01   9.6199370e-01   3.9500953e-01  -1.7734449e-01   4.7597394e-01   6.2681062e-01   4.2481614e-01  -9.8469964e-01   9.9648627e-01   7.7602425e-01   1.2511744e-01  -6.6816845e-01  -5.3756842e-01   5.6920715e-01  -6.9733546e-02   7.4921262e-01  -2.0902888e-01   9.6185714e-01   5.0003611e-01  -8.2836117e-02  -6.2577874e-01   5.9153987e-01  -3.0510495e-01   6.7222983e-01   7.0791887e-01  -4.8456182e-02   7.9122352e-01   4.9063743e-01  -6.9729586e-01  -6.3541519e-01   8.8060432e-01  -6.7856548e-01  -7.2769763e-02  -3.6156159e-01   8.8220417e-01  -9.6185597e-02  -3.0245743e-01  -6.1375950e-01   7.0648387e-01   1.3377527e-01   3.8469269e-01   9.7455972e-02  -9.3010721e-01  -1.0279688e-01  -3.7306068e-01   4.9292033e-02  -8.8123826e-01  -1.2204240e-01  -4.3689638e-01  -1.7911016e-01   5.4733518e-01   2.5208582e-01   9.1211076e-02  -8.1060896e-01  -6.7011306e-01  -6.7535240e-01   9.6157469e-01  -4.7515179e-01   3.9517813e-02   8.0994083e-01   2.5312663e-01   7.5664323e-01   1.8439593e-02   7.5937070e-01  -5.3503883e-01   2.4961392e-01  -8.5034623e-01   6.1298742e-01  -2.3681958e-01  -8.3273527e-01   6.0579577e-01  -7.4261523e-01   7.0468290e-01   3.7881586e-01   5.6592644e-01  -6.4763106e-01  -3.8444991e-01  -9.1088359e-01  -4.2880650e-01  -8.7107002e-01  -3.9722361e-01  -2.5361195e-01  -1.4935085e-02   7.6638345e-01  -8.4587550e-01   5.8390929e-01   8.1624073e-01   6.5875950e-01   1.7365610e-01  -5.4455555e-01   9.8379657e-01  -7.0872839e-02   9.5631924e-01  -1.4740158e-01   3.1634703e-01  -5.5157386e-01   5.7369963e-01  -1.9598326e-01   8.3802506e-01   8.4383846e-01   7.3096910e-01  -6.2339718e-01  -3.1932874e-01   6.0885883e-01  -2.2221858e-01  -5.0234352e-01  -6.7534965e-01  -4.9137225e-01  -5.4629030e-01  -4.0811397e-01  -6.2016555e-01  -8.9224309e-01   5.4427226e-01  -7.3561888e-01   2.5835870e-01   6.2276486e-01   1.9920797e-01  -8.6237402e-01   3.3305346e-01   8.1549099e-01   1.8976225e-01   1.5606055e-01  -8.6765833e-01   5.3430186e-01   1.5328004e-01  -7.8094076e-01   7.5835295e-01  -4.7259902e-01  -2.4483806e-01   2.2076046e-01  -9.9755736e-01  -1.9603283e-01  -4.8630097e-01  -6.9614858e-01   5.4771267e-01  -8.6365885e-01  -7.6929835e-01  -4.2491278e-01   3.5424727e-01   8.9951647e-01  -3.1073493e-01   5.5581377e-01  -5.3201839e-01  -1.6377368e-01  -4.9595816e-01   4.6595121e-01  -2.0503874e-01   5.2641097e-01   4.0625971e-01  -4.0678508e-01  -4.6620440e-01  -5.6223726e-01   5.9211740e-01   6.4853943e-01   1.5847255e-01  -1.1064495e-01   2.5649204e-01   3.9917776e-02   1.0014473e-01  -3.9876313e-01  -9.7019841e-01  -9.5448313e-01  -9.7321602e-01   1.0887385e-01  -7.8821442e-01   2.2819717e-01  -2.6459799e-01  -2.2272181e-01  -1.0912069e-01  -5.5765010e-01  -6.0150903e-01  -1.1873671e-01   6.9483616e-01   3.5350418e-01  -8.7283785e-01  -8.9574060e-01   2.3122918e-01  -7.3178293e-01  -5.6577979e-02   9.5620503e-02  -9.7844295e-01   2.4151942e-01  -8.2797378e-01   8.1949490e-01   4.2672235e-01   9.0536675e-01  -3.6843220e-01  -6.3400670e-01  -3.8070952e-02   7.0392803e-01   5.2613870e-01   9.4074069e-01   4.7026545e-01  -3.5823155e-01   4.1479279e-01  -4.6590749e-01  -3.4274315e-01  -3.0204861e-01  -8.3854521e-01   3.2070619e-01  -5.3676886e-01  -8.2877131e-01  -1.5930479e-01  -6.2305592e-01   8.8906051e-01   8.7355090e-01  -8.7633542e-01   7.3061278e-01   3.8247610e-01   6.3734807e-01  -4.5888048e-02  -3.6519757e-01  -1.2532143e-01   8.5763494e-01  -9.4469629e-01  -3.2444089e-01   2.7451011e-01  -6.4369532e-01  -2.2872795e-01  -3.9681734e-01  -3.0749062e-01   5.3966414e-01   8.1577176e-01   8.4532564e-01  -2.3538851e-01  -7.3783832e-01   8.6715517e-01   4.4478957e-01  -9.7876827e-01   5.1299606e-01  -8.6054919e-01  -3.5035454e-01   9.9890503e-01  -7.3245378e-01  -2.2160473e-01  -6.5927941e-01  -8.3849646e-01  -4.4477665e-02   2.4028426e-01   5.9252268e-01  -1.5641951e-02   6.4165512e-01   5.8943686e-01   8.0746295e-01  -5.0325377e-01  -8.1368124e-01   3.3796695e-01   2.0983689e-01  -4.5349017e-01   8.7559673e-01   4.4814578e-01   1.9332434e-01   6.5395522e-01   5.9831475e-01  -7.2999963e-01  -9.1689171e-01  -9.9136957e-01  -8.7032311e-01  -4.2899401e-01   3.2493661e-01   4.7254418e-01   5.5359902e-01  -3.7876148e-01   3.5342422e-03  -1.6027148e-01   5.6252871e-01   7.5675530e-01  -7.9736653e-01   4.2330761e-02  -1.6473711e-01   6.7307358e-01  -9.0138399e-01  -5.9332748e-01  -9.4728709e-01   7.1561548e-01  -7.6390367e-01   6.0190470e-01  -4.0165600e-01   7.5298082e-02   7.8140348e-01  -7.0831589e-01  -1.1327795e-01  -2.6603127e-01   4.9801199e-01  -5.5528044e-01  -4.5820717e-01  -8.9111793e-01   7.9571330e-01   9.3596827e-02   2.8788011e-01  -1.0531400e-01   7.6303637e-01   1.8593661e-01   3.8166670e-01  -6.0576105e-01   1.0401614e-02   6.8876944e-01  -7.7078336e-01   9.2284812e-01   8.4204897e-01  -8.4531013e-01  -2.8107160e-01  -5.7261507e-01  -8.2662717e-01   5.9371714e-01   1.9970550e-01   5.8348970e-01  -5.1173284e-01   9.8312239e-01  -3.0683370e-01  -3.0132440e-01  -4.6449849e-01   8.7417431e-02  -1.5329894e-01   3.8646764e-01  -1.3009245e-01  -7.8469707e-01  -5.2550819e-01  -6.5137305e-01  -4.3846551e-01  -7.8762849e-01  -9.0274214e-01  -8.9423376e-01  -1.4767753e-01   5.6100415e-01   7.1412593e-01  -8.3045051e-02   9.9174311e-01   7.4056989e-02  -7.9564875e-01   8.2618123e-01   9.4514249e-02   6.6871359e-01   9.7931453e-01  -1.7242331e-01   9.9934663e-01   5.1679303e-01   6.6704916e-02   7.8262764e-01   1.4253718e-01  -7.7750210e-01   8.7761536e-02  -3.9466820e-01   5.3391511e-01  -5.5766612e-03   5.2203139e-01   5.2490621e-01   3.8068631e-01   7.9981756e-01  -4.1491564e-01  -1.8292079e-01  -7.7506310e-02   4.4714402e-01  -6.0350597e-01  -4.3170075e-01   2.8341511e-01  -4.1055027e-01  -1.9191498e-01   9.0896803e-01   7.6469533e-01   4.4756629e-01   2.9712437e-01  -8.4508593e-01  -5.5811696e-01   1.6793375e-01  -4.4250394e-01  -8.8492105e-01   2.8630580e-01   3.3517603e-01  -6.0287993e-01   1.7973363e-01   5.2629236e-01   4.8615690e-01   8.3724672e-02   7.5886772e-01  -5.4517513e-01   9.6016642e-01   3.4883493e-01   7.2740006e-02   4.7610219e-01  -3.4301625e-01   9.6764532e-01  -1.8438600e-02   3.2043562e-01   9.3052654e-01  -7.4524380e-01  -1.0429683e-01  -9.0526553e-01   2.4711610e-01  -9.2435348e-01   9.3416931e-01   1.3028366e-01  -9.0071635e-01   3.5158914e-02  -3.3993296e-01   5.1419061e-01  -2.0162271e-01   8.7089895e-01   7.0011572e-01  -7.7750732e-01  -2.9745505e-01  -5.7239908e-01   2.3403813e-01  -1.3233530e-01   9.8494134e-01  -6.6204480e-01  -7.7324708e-01   2.5915555e-01   6.0264464e-01  -8.7757505e-01  -8.8111859e-01   1.9724853e-01  -9.3839312e-01  -4.0642772e-01  -1.7241855e-01  -7.3815799e-01   8.7178356e-01   7.1453254e-01   8.5936731e-01   4.0569734e-01   1.9257330e-02  -9.7288038e-02   3.7507103e-01  -9.1752935e-01   5.2099328e-01   1.3090539e-01   1.4351805e-01   4.3504434e-01  -5.3929832e-02  -8.3927472e-01   6.9016927e-01  -1.6905858e-01   1.7610740e-01   2.3696277e-02  -3.6077130e-02   4.6367493e-01   9.5089100e-01   7.0420537e-01  -1.2702713e-03  -8.9775336e-01   9.4234441e-01  -3.8657205e-01  -5.2903127e-01   5.8623271e-01  -4.5288674e-01  -2.4071123e-01   3.8862191e-01  -6.9781392e-01   4.2018854e-01  -1.9796367e-01   4.1117176e-01  -1.7530889e-03   9.5528617e-01   9.1506205e-01  -9.8481336e-01   9.4990893e-01   5.8805321e-01   1.0370163e-01   9.9747303e-01  -4.9239675e-01   3.8824176e-02  -8.1371448e-02  -7.7476021e-01   6.7083396e-01   6.5771742e-02   5.2110382e-01  -2.6054127e-01   3.0759511e-01  -9.3981858e-01  -2.7082519e-01  -1.4475948e-01   5.5818665e-01   7.8267952e-01   9.6834017e-01  -5.3695654e-01  -6.8381908e-01   6.5295214e-02  -2.3261002e-01   3.1667546e-01  -4.1598455e-01  -6.1234656e-01  -7.3172569e-01   2.0028866e-01   5.1666956e-01   2.9901245e-01   1.5256105e-01  -7.0974110e-01  -7.5504687e-01   7.2770959e-01  -1.6090387e-01   4.9676697e-01  -6.1822472e-01  -5.6652570e-01   1.0951206e-01  -8.2668160e-01   4.9212642e-01   4.2810505e-01   2.8933815e-01  -4.4262697e-01   7.5402444e-01  -8.3711739e-01  -3.6405019e-01  -9.1189070e-01   7.8782095e-01  -1.0645270e-01   1.1799576e-01  -5.5458598e-02  -3.2019414e-01  -4.4655528e-01   4.9824285e-01   1.5960086e-01   7.1635933e-01   5.0888028e-01   7.9537630e-01   8.5622080e-01   4.2911448e-01  -9.5829978e-02  -4.7247201e-01  -2.8167096e-01  -1.5989762e-01  -2.7000285e-01   3.5867152e-01   5.0320416e-01   1.7143298e-01  -5.3708090e-02  -4.7112128e-01  -7.9447192e-01  -2.2871338e-02   4.7489265e-01   9.2585228e-01   5.6092522e-01   6.9664388e-01   1.1792886e-01  -7.5432846e-01   4.5110764e-01   8.4133090e-03  -3.6618834e-01   8.0379916e-01  -1.9781344e-02  -8.1638725e-01   5.9157065e-01   4.7535014e-01  -6.4450070e-01  -4.0493495e-02  -1.8888050e-01   7.0935458e-01  -6.7308910e-01  -3.7700639e-01   7.3780193e-01   9.9740940e-01   1.9127409e-01   8.7488786e-01   5.7325398e-01   3.4085955e-01   2.9981990e-01  -9.1763679e-01  -3.5069087e-01   8.1406832e-01   3.5706903e-01   2.6316208e-01  -8.9335182e-01  -5.7350689e-01  -3.4203077e-01   8.7045494e-01  -2.7407533e-01  -1.0909210e-01   5.3620305e-01   1.0569671e-02  -1.8626834e-01  -4.4014239e-01   3.7698979e-01   7.3652789e-01  -9.0330457e-01  -9.3018121e-01   3.9188855e-01   3.3937458e-01   4.7948415e-01   8.4239102e-01  -3.3125469e-01  -3.6080965e-01   8.1872698e-01  -7.5336301e-01  -8.2649950e-01  -6.5348495e-01   5.1794095e-02   5.2813108e-01   7.1563597e-01  -9.6120565e-01  -3.0428610e-01  -9.9323365e-01   2.6561959e-01   3.3137950e-01   8.0514212e-02  -1.2299954e-01  -4.5310164e-01   5.8764008e-01
   8.1896369e-01  -6.2153084e-01  -8.3098376e-01  -6.3166040e-01  -7.6398105e-01   1.2938513e-01   4.6497106e-01  -6.7325754e-01   3.5476484e-01   7.9021662e-01  -9.2985886e-01   9.8766684e-01  -7.9909456e-01  -5.3550354e-01  -7.7879195e-01   9.6929281e-01  -9.7433121e-01   2.7705238e-01  -8.7123919e-01   7.0804797e-01  -7.7717916e-01   8.3328869e-01  -1.8618648e-01  -6.0955701e-03   1.5075527e-01  -2.2696946e-01   3.6818889e-01  -9.9056772e-01  -3.7971173e-02   9.2892421e-01   2.5067926e-01   7.4105448e-01   3.5670631e-01  -7.4483358e-01   1.0614959e-01   6.7232178e-01   1.6714694e-01   3.6529092e-01  -5.2612129e-01  -8.5605439e-01  -2.4878997e-01  -2.4393160e-01  -4.7832938e-01  -5.3998440e-01  -9.5895833e-01   8.6288906e-03   4.0218331e-01   7.4788094e-01  -4.5631200e-01   3.3936678e-01  -4.4598571e-01   9.5301266e-01  -4.2530883e-01   2.7644239e-01   7.8181266e-01  -5.9775705e-01  -7.1583257e-02  -9.2353961e-02   6.3284705e-01   1.1664146e-01   6.3099646e-02   3.3746402e-01  -8.5918758e-02  -3.0319371e-01   6.0052436e-01   8.5193392e-02   6.1479295e-01  -4.5037066e-01  -8.7411395e-01   7.5290709e-01   4.9963436e-01   6.7239456e-01   2.3444537e-01   8.1189345e-01   8.9181142e-01  -7.2327569e-01  -7.7633902e-01   4.8071311e-01   9.1147313e-01   5.2127036e-01  -2.1273413e-01   4.1940088e-01  -8.5575867e-01  -5.2677952e-01  -7.4689599e-01   5.0896210e-01   6.5822519e-01   8.8821765e-01   5.7790017e-01   8.3930008e-01   9.4356262e-01   8.8968313e-01  -4.4206958e-01   8.8838333e-01   5.0070926e-01   7.5200243e-01  -9.9901233e-01   8.8005810e-01  -3.9867520e-01   6.0040942e-01   9.5465774e-01  -5.7491896e-02  -4.4791340e-01  -3.3984099e-01  -7.1016845e-01   3.2761126e-01  -5.8583654e-01   3.9653892e-02  -8.0228576e-01  -8.0267882e-01  -2.2303306e-01   9.3245397e-01  -1.1226890e-02   9.6694703e-01   2.6553576e-02   8.3337284e-01   9.0008373e-01  -2.8984645e-01  -1.5153471e-01  -8.8543474e-01   8.8997491e-01  -9.5656453e-02   2.1392669e-02  -1.4304954e-01  -8.3443798e-01  -8.4092247e-01   8.6534429e-01   9.2659583e-01  -7.7084539e-01   9.1933694e-01   3.8188839e-01  -9.2552457e-01   7.7325970e-01   8.7951754e-01  -5.2315703e-01   5.5789460e-01   9.0600082e-01  -1.4829388e-01   6.4236758e-01  -9.1558045e-04  -9.1755365e-01  -7.1321329e-01  -4.6635033e-02  -2.9195568e-01   4.7869543e-01  -6.3564042e-01  -2.7647524e-01  -9.7530886e-01  -5.9925430e-01  -1.3546105e-01  -6.8620125e-01   1.3528337e-01   7.3173253e-01  -3.1246067e-02  -5.2614502e-01  -6.1930772e-02  -7.6508947e-01   9.4129148e-01   9.7591204e-01   9.8614101e-01   6.7305431e-01   5.0310987e-01   1.4982460e-01   3.4884504e-01  -4.4470178e-01   9.3154347e-01   1.9255256e-01   8.4681857e-01   1.1579698e-01   8.9025067e-01   5.1468080e-01   7.2823002e-01  -9.6930109e-01  -7.0694058e-01  -5.0257782e-01   9.8340572e-01   1.1024635e-02  -9.5027306e-01   5.0786640e-01  -2.8444590e-01  -2.2528835e-01   8.4258319e-01  -7.1709091e-01   9.1512131e-01   7.9181732e-01  -6.8016532e-01  -9.9866181e-01  -6.3390136e-01  -5.2341633e-02   8.5945259e-01  -3.5056496e-01   7.1734738e-01   9.6772508e-01  -6.9414486e-01  -4.9657217e-01  -9.3592761e-01  -7.3752527e-01  -3.8793899e-01  -4.5190016e-01  -7.8272421e-01   4.5640720e-01   4.6331556e-01   1.8766823e-01  -5.2052832e-01  -5.6312292e-01   3.8730319e-01  -1.2619094e-01  -6.1947500e-01  -9.0014759e-01   9.1238594e-01   7.7573098e-02  -1.3764050e-01  -7.4237409e-01  -8.2250803e-01  -2.9229598e-01   3.5565094e-01   2.1061863e-01   9.8709328e-01   1.8397671e-01   3.7389231e-01   9.8106989e-02   1.6419568e-02   2.2697961e-01   3.7024302e-01   5.2134051e-01  -6.6218002e-01   1.7246780e-01  -3.9552986e-01  -3.2597326e-01  -4.1917194e-01  -7.9012434e-01   4.6842187e-01   3.2982808e-01  -9.0261437e-01  -7.8236640e-01  -5.2014688e-02   4.3434831e-01   8.1757250e-01  -2.1713118e-01  -7.3229763e-01  -1.1228984e-01   7.5702916e-01   8.3046622e-01   4.6639786e-01  -4.3064491e-02   7.4561019e-01   7.3588866e-01   5.9765898e-02  -8.0331068e-01  -6.7747852e-01   9.6883235e-01   2.3561555e-01   7.0118313e-01  -6.8544870e-01  -3.2446823e-01  -8.3790665e-02   8.2704025e-02  -6.9656051e-01  -7.3323665e-01  -7.4550598e-01  -4.5619062e-01  -6.7559980e-01   5.6746627e-01  -6.9491561e-01  -8.6860400e-01   2.5969134e-01   4.7952229e-01  -7.3055776e-01   7.3113246e-01   1.3945511e-01  -6.4101965e-01   2.8407647e-02   4.3869886e-01  -9.4642091e-01   4.0891151e-01  -4.7020768e-02  -6.2171865e-01  -3.8647931e-01  -6.5329931e-02   9.8152453e-01  -8.3161856e-01   8.2521648e-01   2.6695504e-01  -4.1781760e-01  -7.1993047e-01   3.3371304e-01  -1.6228438e-01   6.9363538e-01   4.3241624e-01   6.3924371e-02   4.7240913e-01  -6.6483881e-01  -4.0418242e-01  -8.0860833e-01   8.7846837e-01  -3.1277941e-01  -6.5739369e-01   7.0591831e-01   6.0894209e-01   9.0254705e-01  -9.9869152e-01   5.1935687e-01  -5.9796392e-01   1.8103465e-01  -5.3551173e-01   4.1371738e-01  -5.3745666e-01  -6.6881045e-01  -4.7842088e-01   7.4327673e-01  -1.0334439e-01   6.2384546e-01  -2.4156157e-01  -1.4113151e-01  -8.9422782e-01  -2.9093690e-02  -3.6800315e-01   9.1509853e-01  -1.6364115e-01   3.7957456e-01   8.2987025e-01   2.3183158e-01  -8.8311804e-01   3.2179158e-01   8.8457602e-02   9.3950196e-01  -6.9667431e-01   4.1739638e-01  -6.1856554e-01   7.5161297e-01   4.8782158e-01  -7.9309693e-01   6.3827454e-01   5.0382887e-01  -9.4365723e-01  -5.0543636e-01  -9.8804079e-01  -2.8419472e-01  -2.2062311e-01  -5.9197429e-01  -2.8550631e-01   7.1916971e-01  -5.8829084e-01  -5.4591585e-01  -9.4997809e-02   3.3316628e-02   8.4523601e-01  -3.0816585e-01  -3.2282163e-01  -6.6146314e-01  -1.4249319e-01   8.6787608e-02  -2.4980273e-01  -2.8741087e-01  -4.7615842e-01  -1.5484002e-01   9.9298535e-01  -6.9517184e-01   7.0800403e-01  -5.2403288e-01   8.1525561e-01   6.8075191e-01  -2.9707538e-01  -1.1097877e-01   2.8146692e-01  -4.3468959e-01   9.4806291e-01   1.3352824e-02  -4.8033251e-01   1.8430923e-01  -7.3539640e-01   9.1623940e-01   3.4724755e-01   5.9545531e-01  -7.0163574e-01  -3.2974955e-02  -7.2258032e-01   8.4458432e-01  -8.7872049e-01   1.6039967e-01   4.8464285e-02  -6.9920413e-01  -9.4747476e-01  -4.0681500e-01  -5.8923622e-01   8.3924770e-01   2.6358273e-02   1.9294708e-01  -7.1857098e-01  -7.9052711e-01   6.8208050e-01   4.9073722e-01  -8.1324161e-01  -8.8106004e-01  -8.3974226e-01  -9.3287624e-01  -8.7470211e-02  -2.3778471e-01  -5.7222427e-01  -9.0740755e-01  -8.3932898e-01   2.9537525e-01  -6.1461606e-01   8.4324318e-01   9.7068375e-01  -2.2210693e-01  -9.5604537e-01   7.4752121e-01   3.9111320e-01  -7.3690183e-01   3.0651270e-01   4.6323254e-01  -5.7307971e-01  -5.1205991e-02   9.0011600e-01   1.7649249e-01   5.2345363e-01   4.7585295e-01  -8.9047192e-01   9.8020648e-01   7.4023693e-01  -7.4528728e-01   2.4273863e-01  -4.1477625e-01   2.3573510e-01   8.1340232e-01   3.9263457e-01   2.3130980e-01  -7.1389593e-01   3.1455182e-01  -2.1698782e-01  -9.8750476e-01   3.1817331e-01  -4.6105565e-01  -1.9818666e-01  -1.5541297e-01  -2.0414870e-01   2.5802663e-01   1.3007919e-01  -7.0745472e-02  -4.0762745e-01   8.6906659e-01   1.8286714e-01   1.8773567e-02   9.4464363e-01  -7.5761426e-01   6.5587103e-01   7.1087036e-01  -4.3023765e-02  -7.7889565e-02  -3.4776214e-01  -8.5940006e-01  -4.8608031e-01   5.6338460e-01   2.7001324e-01   9.6709843e-01  -7.1415844e-01   1.4491537e-01  -8.1400361e-01  -9.5739042e-01   5.5161039e-01  -9.3723071e-01  -5.0571310e-01  -8.4434790e-01   3.9338271e-01  -5.1286823e-01  -9.3170542e-01  -4.2487256e-01  -2.9805353e-02   7.4538250e-01  -5.2312526e-01  -1.8839341e-01  -5.3572612e-01   4.6899049e-01   6.7965876e-01  -4.4452065e-01   5.6538482e-01  -5.0393451e-01   3.8659907e-01  -8.0761114e-01  -7.6181424e-01   1.3918424e-01  -4.1169337e-01  -9.2541824e-01   7.3706439e-01   8.6360605e-01  -8.4413386e-01  -7.6158670e-01  -6.1222823e-01  -2.1085822e-01   3.7536729e-01  -8.6382644e-01   1.4447546e-01  -1.2907747e-01   3.5075545e-01  -2.1056902e-01  -4.0384196e-01  -1.7782457e-01  -3.1799016e-01   1.1572178e-01  -7.2804055e-01   3.7861993e-01  -9.1427168e-01  -8.3491600e-01   5.2893388e-01  -5.3994897e-01   6.7634483e-01   6.5434558e-01   6.3516531e-01  -4.8772346e-01  -4.4722049e-01   4.9142488e-01  -1.0629396e-01  -8.6899818e-01   9.6791490e-01  -4.6947051e-01   7.6459934e-01  -7.8231406e-01  -7.9073519e-01   6.3676698e-01   2.2240377e-01   7.2015422e-01   9.5216282e-01  -5.1803140e-01  -8.3662602e-03  -4.9864530e-01   3.9896419e-01  -5.1107629e-01  -2.5895245e-02   3.2109656e-01   1.0051493e-01   6.9221491e-01   8.8964788e-02  -1.9055244e-01  -3.7106889e-01  -4.2209869e-01  -2.7374112e-01   8.3095078e-01  -7.4415612e-01  -1.5840160e-01  -4.8417236e-02   9.7755779e-01  -4.8693215e-01  -9.2901036e-01  -3.2589388e-01  -7.0745049e-01  -6.8950505e-02   2.4240955e-01   4.9144370e-01   6.5004990e-01  -4.4201443e-01   4.9730255e-01  -7.9704438e-01   4.8005004e-01   6.4087852e-01  -7.2707207e-01  -6.9732466e-01   6.7401630e-01   2.6113625e-01  -1.4337302e-02   3.9397974e-01   5.8698335e-02  -9.5059106e-02  -8.2506417e-01  -7.9903939e-01   1.2070568e-01  -8.1827551e-01   6.4111176e-01   9.4852616e-01   7.0460355e-01  -1.9837136e-01   1.1228184e-01   5.9764210e-01  -9.1167375e-01   4.6736368e-01   6.8467583e-01  -5.1796888e-01   3.0042947e-01   4.2549290e-01  -8.7340820e-01  -7.5284207e-01  -3.6802219e-01   4.9388668e-01   6.5774938e-01  -5.8783798e-01  -5.7566595e-01   5.4112363e-01   2.0148087e-01  -3.9704899e-01   7.6639673e-01  -1.9385630e-01  -5.3978464e-01  -2.0470205e-02  -3.6400388e-01  -9.6444457e-01  -3.8061245e-01   2.0846619e-01  -1.6907010e-01  -9.5611361e-01   8.6473109e-01   2.3222221e-02   3.7819217e-01  -3.6676802e-01  -8.5937293e-01   9.4320654e-01   5.8465211e-01   5.0301747e-01   1.0392011e-02   1.8461946e-01   5.7555403e-01  -6.9315002e-01   3.4585030e-01  -9.5503004e-01  -2.9698192e-01   5.6341815e-01  -3.0649130e-01   2.0442987e-01   6.8223705e-01   1.6146470e-01   4.1119208e-01  -7.6683171e-01   5.2092006e-01   5.3315707e-01   6.6711844e-01  -9.0351833e-01   8.4759185e-01  -1.4693781e-01   3.9324038e-01   9.7728657e-01  -1.6734811e-01   8.0019511e-01  -8.4456407e-01  -7.6001920e-01  -5.2436032e-01  -7.3535530e-01  -8.8592491e-01   4.5937667e-01   2.0600853e-01  -2.0683478e-02   8.6104690e-02  -3.9414893e-02  -8.0967647e-01   3.5363069e-02   3.4897510e-02  -5.2160513e-01   7.7456468e-03  -2.7813469e-01  -2.6813017e-01   1.1055858e-01  -9.5524269e-01  -5.8219346e-01  -9.6610251e-01  -6.5602561e-01   8.1263748e-02  -4.1024756e-01  -8.5516093e-01  -1.9496717e-01  -8.9070152e-01   9.7975924e-01  -5.1073542e-01  -8.9648587e-01   6.7108741e-01  -1.3789935e-01  -6.3381200e-01   6.5873307e-02   4.3889124e-01  -9.4269859e-01   4.6896375e-01   8.9800744e-01   8.9616739e-02  -4.5448916e-01   9.9153120e-01  -7.5770662e-02   2.2717025e-01   3.4006587e-01  -5.9149048e-01  -9.4803794e-01   7.6882800e-01  -1.7256779e-01   5.1839550e-01   3.9570672e-01  -2.4618047e-01  -8.4507269e-01   3.8964747e-01  -4.8001467e-01   1.6579280e-01   2.0596973e-01   3.7479461e-02   6.0895936e-01  -5.8827783e-01  -7.4858787e-01   7.1547059e-01   2.7442947e-01   4.6583305e-01  -9.8028864e-01   7.7571635e-01   4.5612205e-01   1.7706920e-02  -3.3973168e-01  -5.5351569e-02   1.1578039e-02   1.1085167e-01  -5.7667675e-01   3.0779049e-01   8.3418715e-01  -1.7347723e-01  -1.6404570e-01   3.8021920e-01  -1.9326051e-01   2.6538048e-02   4.2568643e-01  -3.2397820e-01   6.8265112e-01   4.2526872e-01   4.9252545e-01  -1.3906225e-01  -3.4013823e-02   9.3280294e-01   8.2047146e-01  -8.6321183e-01   4.1378386e-01   7.4772594e-01   8.1992530e-01   2.7779941e-01   3.2393679e-01   4.9533858e-01   4.3169474e-01   1.7621120e-01  -5.5194905e-01  -2.9081256e-01  -6.0239214e-01  -2.8806856e-01   3.5143191e-01   8.2302756e-01   1.2150309e-01   2.4349804e-01  -3.8592025e-01   3.8577087e-01   7.1893180e-01   9.8973470e-01   8.0540839e-01   1.9205767e-01   3.3063164e-01  -3.1281827e-01   4.1081597e-01   3.9115173e-01   8.6081336e-01  -6.3213986e-01   2.0469593e-01  -8.9583333e-01   5.6872037e-01   6.9597322e-01  -9.1304978e-01   9.7578263e-01   6.9902311e-02  -1.3613771e-01  -1.0267434e-01   1.3750915e-01   7.8188547e-01   6.9662786e-01  -8.2666976e-01  -9.9375326e-01  -7.8995900e-01   8.0186315e-01  -7.3915980e-01   3.6024215e-01  -4.5600996e-01   2.8798165e-01  -5.4075008e-01   8.8072552e-01  -1.6795141e-01   2.5394103e-01   5.2365786e-01   1.2273502e-01  -4.5515863e-01   4.2685169e-01  -1.9754862e-01  -5.0145309e-01  -5.4086604e-01   7.5166932e-01   6.5929762e-02  -5.0699143e-01   1.0939786e-01  -4.5023302e-01   9.3738581e-01  -7.5555062e-01  -8.6959969e-01   5.3420713e-01  -7.2029881e-01  -1.9034766e-01   1.5719637e-01   8.7219606e-01  -9.7696753e-01   2.8221965e-01  -1.3323477e-01  -8.2809272e-01   6.4934550e-01   4.3985574e-01   3.9944308e-01  -2.8341118e-01  -1.4462826e-01  -6.2431277e-01   1.5174508e-01  -4.2614058e-01   4.6325611e-01  -2.5067669e-01   4.9283510e-01   5.5346017e-01  -5.2999577e-01  -9.3154104e-01   7.0229215e-01   9.6516216e-01  -1.9794940e-02   9.6202944e-01   6.7379870e-01   1.8369421e-01   7.1096049e-01   7.9502858e-01   7.2444639e-01   4.8193568e-01   9.6941954e-01   5.3496183e-01  -4.0568388e-01  -1.5552234e-01  -4.2203457e-02   1.7423958e-01   1.3846924e-01   4.6434234e-01  -9.1865890e-01  -7.2230554e-01   5.6499237e-01   7.3371712e-01   2.7850053e-01  -3.9538903e-01  -2.7391268e-01   1.0789664e-02  -6.3347656e-01  -8.4956519e-01   4.6814951e-01  -2.2974709e-02   1.7737311e-01  -9.1903214e-01   3.2597732e-02   3.3858612e-02  -6.6491010e-01   9.4797345e-01  -5.3968968e-01   6.4285264e-01   3.0480474e-01   3.8088136e-01  -9.7358559e-01   7.8313338e-01   1.6281994e-01  -3.7399802e-01   1.3511976e-01   4.4370451e-01  -2.8660768e-01   2.1292467e-01   3.4566872e-01  -7.9087999e-01  -2.7958327e-01  -7.3862210e-01  -2.4815564e-01   3.1149565e-01   4.7652223e-01   2.2832776e-01   9.3150806e-02  -7.8835964e-02  -7.6759500e-01  -9.1947967e-01   5.7082777e-01  -4.5068536e-02  -6.2830591e-01   6.6968797e-01  -4.1374366e-01   9.4984639e-01   1.1426144e-01  -3.2640393e-02   8.0522840e-01   1.7471501e-01  -8.0489884e-01   7.3301395e-01   2.8575307e-01  -2.2472354e-01   7.3528567e-01   1.1135185e-01  -1.1320290e-01  -3.4379507e-02   5.9613247e-01  -2.1781001e-01  -8.4677877e-01   7.5266921e-02  -5.7660685e-01  -4.5864423e-01   5.6229799e-01   8.8608209e-02  -3.6657863e-01  -6.6481641e-01   2.8584596e-01  -9.6387027e-01  -3.9827876e-01   8.5575973e-01   4.8559824e-01   1.1140499e-01  -2.4205848e-01  -6.3531054e-01  -2.6176571e-01   2.3988752e-02  -1.3678372e-01   5.9258510e-01   3.2798927e-01   7.6144190e-01   9.0570626e-01  -3.9191847e-01   5.4064760e-01  -6.3552145e-01  -2.7279693e-01  -1.7982321e-02   7.7443354e-01  -9.6771228e-01  -6.6932088e-02  -5.5031317e-01   7.7340623e-01  -1.3540207e-01   8.3673716e-01  -1.3504593e-01  -6.4374220e-01  -2.3930077e-01  -1.0667539e-01  -6.9725868e-01  -7.3880041e-01  -1.6849255e-02  -5.3750528e-01   9.6490054e-01   4.8983201e-01   8.2478891e-02  -7.4296788e-01   2.5362600e-01   5.3151761e-01   2.7441422e-01  -1.8986167e-01   8.1009342e-02  -4.4305029e-01  -2.7271674e-01   9.1384251e-01  -8.0664320e-01   4.0559656e-01   9.7225319e-01   5.8943452e-01  -8.7238631e-01   6.4366080e-01  -9.5059115e-02   9.4872312e-01  -6.4152039e-01  -8.3558149e-01  -3.9522865e-01  -1.5498866e-01   5.3400007e-01   1.1830740e-01   1.8098301e-01  -5.5405975e-01   2.7507627e-02  -1.3044940e-01  -5.3822831e-02   5.9534685e-01  -8.2464381e-01   9.9778186e-01   4.3989159e-01   7.5213930e-01  -4.9736837e-01   7.0196590e-01  -3.7287341e-01   9.2220783e-01   4.5062095e-01  -6.7456323e-01  -5.7544533e-01   9.9379275e-01   7.8636694e-01  -3.1033568e-01  -9.8093732e-01   4.1308807e-02  -6.5021061e-01  -7.8207793e-01   4.7725141e-01  -4.7941727e-02   4.2354941e-01   5.8148593e-01  -9.7370831e-01  -5.1577584e-01  -8.3617611e-01  -7.8498147e-01   9.1052460e-02  -4.3177758e-01  -6.1618461e-01  -7.4939625e-01   1.9264214e-01   9.1901364e-01   5.8714173e-01  -6.1037444e-01   8.9976682e-01
   8.8082164e-01   4.8942300e-01  -3.6641056e-01   9.6039801e-01   7.7850967e-01   6.3225887e-01  -5.6712094e-01   4.3481921e-01  -6.9932282e-01   2.9487597e-01   8.4610345e-01   1.5368066e-01   6.4296312e-01   9.7325204e-01   9.9510699e-01  -9.4226810e-01   3.2296845e-01  -1.0887716e-01  -2.5687640e-01  -1.5232684e-02   5.2655396e-01   9.1426572e-01   4.3725614e-01   9.0200043e-02  -4.0231413e-01  -6.6734669e-01  -1.3218455e-01  -8.0927123e-01   8.5691798e-01   3.3657324e-01  -2.7969160e-01  -9.7885347e-01  -5.1761653e-01  -7.6439283e-01   1.5753307e-01  -9.7721931e-01  -3.8502119e-01  -2.9920020e-01   3.1091752e-01  -4.9033966e-01   1.4215769e-01   8.3430115e-01  -6.2514939e-01  -1.1378212e-01  -2.5098100e-01   1.1447982e-01   9.1279695e-01   1.0035286e-03  -6.2427222e-01  -9.1792454e-01  -8.2162318e-01   1.1205001e-01   8.0373236e-01  -7.1117439e-01   8.0868244e-01  -1.9764230e-01  -7.6096485e-01   6.9047090e-01  -5.5009238e-01   9.4749218e-01   9.6200137e-01   4.7152417e-01  -9.9651636e-01   7.9683124e-01   2.5722529e-01  -3.3470322e-01  -6.4739355e-01   5.6189311e-01  -2.9627485e-01   1.0552550e-01  -7.3529960e-01   2.7437877e-01   7.7976902e-02   8.0090406e-03  -7.3894413e-01  -2.3958214e-01  -9.5205427e-01   8.5245425e-01   1.0036655e-01  -1.9172409e-02   5.3831126e-01  -1.9888083e-01   1.5168884e-01  -7.8908801e-01  -7.3649224e-01   4.4678444e-01   8.5942149e-01   4.5429244e-01   7.7726859e-01  -2.6098312e-01  -3.8234132e-01  -1.3623488e-01  -8.0471890e-01  -9.7563030e-01  -8.1213839e-01   7.9841844e-01   9.8517510e-01   9.4837886e-01  -3.2110942e-01   3.9264262e-02  -5.1757204e-01   1.9152649e-01   2.7271946e-01   3.0692245e-01   8.0758119e-01  -7.7101199e-01  -2.3511100e-01  -2.0168369e-01   6.3234709e-01   8.3112168e-02  -2.2028281e-01   3.5405277e-01   7.7606131e-01   2.6259856e-01   4.3530078e-01   6.8497955e-01  -2.8241647e-01  -9.4367974e-01   2.9019092e-02  -1.6046038e-01  -9.4673369e-01  -9.1066331e-01  -4.2493391e-01  -4.5027671e-01  -4.4811218e-01  -4.7834846e-01  -6.6181972e-01  -1.3301682e-01   5.2898587e-01  -4.2010340e-01  -6.0851661e-01  -5.9632549e-01  -8.3887236e-01  -2.0751846e-02   6.2564900e-01   1.2508182e-01  -6.2869624e-01   9.6035607e-01   1.6325038e-01   2.8625462e-01   9.2569344e-01   8.5857725e-01   6.3008114e-01  -7.6408678e-01   6.6817748e-01   7.2897649e-01  -9.0380541e-01   6.8064439e-01  -8.0893601e-01   5.3250462e-01   4.5857394e-01   3.6441821e-01  -3.9285770e-01   4.3483195e-01  -6.2180442e-01  -7.4156995e-01  -6.7192876e-02   7.0666459e-01   9.0774395e-01  -3.8393822e-01   2.6394858e-01  -7.4324691e-01  -3.0237161e-01   6.5740707e-01   3.1465088e-02  -5.6144221e-01   4.8018662e-01  -3.3928984e-01  -9.5161060e-01  -8.6160765e-01  -5.7656197e-01   2.4134967e-01   2.6849805e-01   2.8105625e-01   4.4527742e-01   8.0243198e-01  -6.2150620e-02   8.8726211e-01   2.7853266e-01   9.0200915e-01   1.2476638e-01  -5.6805494e-01   5.0738496e-01  -3.9409839e-02   2.0716954e-01  -2.0513222e-01   8.0472474e-01  -5.8418948e-01  -9.5946656e-01  -3.1477897e-01   8.8493262e-01  -6.8609598e-01  -7.9907384e-01   1.0642139e-01  -1.8922038e-01  -7.8586776e-02   4.2868779e-02   9.5660171e-01  -3.3888991e-01   7.1516870e-01   8.7881628e-01  -1.5316250e-01  -5.5103909e-01  -3.7274484e-01   9.0349508e-01   7.9311477e-01   8.0965531e-01  -3.7633886e-01   7.2430865e-01   7.2264778e-01  -7.5046756e-01   4.1636585e-01  -1.7683102e-01   3.6854539e-01  -5.2849043e-01   5.7709401e-01   2.4833660e-01   1.8441895e-01   6.8304282e-01   3.1583069e-01   1.9299743e-02   8.1985580e-01   7.2154840e-01  -2.8769422e-01   2.5184167e-02  -6.8942117e-01   9.3006121e-01  -7.7767746e-01  -7.9586308e-01  -5.3598366e-01   4.5234305e-01   2.1839681e-01   3.7293968e-01  -6.0672149e-01   3.5198736e-01   5.8582586e-01   1.7058164e-02  -6.8578963e-01  -6.7807708e-01  -4.2870159e-01  -5.8360180e-01   4.0772910e-04   8.0764727e-02  -4.2792602e-01  -6.1134311e-01  -8.7782520e-02  -2.0916301e-01  -7.8422941e-01   1.6969725e-01   6.6331729e-01   3.8252506e-01  -6.6169712e-01  -2.5463782e-01  -4.0990082e-01   4.8267157e-01  -9.3243808e-01  -1.2612507e-01   8.2326044e-01  -6.3462927e-01   2.3492190e-01   3.5772521e-01  -3.0822264e-02   3.3245166e-01   8.5967263e-01   1.3757620e-01  -5.4988935e-01  -8.1060563e-01  -6.6496795e-01  -3.6648257e-01   7.8442077e-01  -5.4548829e-01   2.6551308e-01  -5.3559757e-01   9.2884005e-01   2.1030421e-01   4.7868799e-01  -8.2434465e-01   1.9636112e-01  -9.3123469e-01   7.6093941e-01  -7.0766426e-01   2.5089642e-01  -3.0605888e-01   1.1699152e-01  -1.8902646e-01  -7.9710348e-01  -6.5443153e-01   9.3533066e-02   2.6128470e-01   5.9321262e-01  -9.3424601e-01  -9.1783171e-01   6.2341081e-01   7.2992074e-02   8.8871654e-01   4.2255266e-01  -9.5546104e-01  -2.1363710e-01  -8.7958265e-01   5.4217670e-01   6.2575681e-01  -2.9350531e-02  -1.2105491e-01  -8.3630362e-01  -6.5786036e-03  -6.3713953e-01   2.1051567e-01   6.3279443e-01   5.8430434e-02   8.0348996e-01  -7.3692593e-01  -9.7017314e-01   4.3396118e-01   5.4214464e-02  -7.8970987e-01   7.8023029e-01  -7.9556255e-01  -2.9974770e-02   5.7423212e-02  -5.7847414e-01  -1.1002901e-01  -1.1724985e-01  -8.7694501e-01   5.9500323e-01  -9.7351059e-01   3.5466234e-01   7.8405516e-01   2.7476788e-02  -5.8058155e-01   9.3483913e-01   2.2160731e-01  -5.6144902e-01  -6.6766551e-01   2.3631430e-01  -8.7350064e-01   2.0299524e-01   8.9211674e-01   2.8340732e-02  -2.2460054e-01   1.6334718e-01  -8.0981037e-01   9.9540590e-01  -8.8872817e-01   5.8774110e-01   2.4698858e-01  -2.7239930e-02   8.5359497e-01  -7.5910552e-01  -2.1456624e-01  -6.7799497e-01   9.6996090e-01  -6.8668323e-01   8.0109613e-01   6.7547071e-01   7.2652620e-01   9.5394628e-02  -2.8162295e-01  -8.1125375e-01  -9.1236525e-01  -8.6468846e-01  -6.2367866e-01  -1.7138274e-01   3.9770905e-02   3.1144688e-01   9.8709429e-01   6.9969305e-01   1.4665175e-01  -6.4799458e-01   7.4259359e-01   1.9480476e-01   1.4595382e-01  -4.7454777e-01   9.1443892e-02   5.5069440e-01   9.3372400e-01  -3.9547531e-01  -3.9978170e-01  -3.2256676e-01   4.1001660e-01  -9.8327411e-01  -2.0775813e-01   5.9945507e-02   7.6354946e-01  -7.7261504e-01   5.0917584e-01   4.3760193e-01  -2.7284628e-01   5.5243791e-01   7.7682049e-01   2.0218898e-01   3.6059906e-01   3.2719155e-01  -5.9487155e-01  -9.8619711e-01   3.7421153e-01   8.0898388e-02   3.7103945e-02  -1.7095612e-01   8.9840683e-01   7.1748336e-01  -1.3431254e-01  -8.0884441e-01  -6.2084030e-01   2.2074481e-01   9.0466229e-01  -4.7324012e-01   4.3674198e-01   1.8195801e-01   7.1053870e-01   5.1465331e-01   1.1451016e-01  -4.5244885e-01   3.8509649e-01   4.4440264e-01   7.7705142e-01   7.2709140e-01   2.4717406e-01   4.5607892e-01  -7.6452313e-01  -3.7546999e-01   1.1458991e-01   5.8888323e-01  -9.3866442e-01  -1.8441123e-01   1.2862260e-01  -4.2094531e-01  -3.7164969e-01  -5.9237701e-01   3.2332499e-01   8.7957776e-01  -2.9064671e-01   4.9175061e-01  -7.5266879e-01   7.4463729e-01  -4.0962270e-01  -9.5662706e-01   1.3919295e-01  -1.4277236e-01  -1.9798373e-01   3.9778688e-01  -4.6450307e-01   3.4461734e-01   5.6354108e-01   8.0773479e-01   7.6127750e-01   5.0022729e-01   6.4595506e-01   4.8496712e-01  -6.8247347e-01   5.5454980e-01  -6.5942801e-01  -7.9082819e-01   9.4379468e-01   6.8968316e-01  -1.6879159e-01  -2.7717830e-01   3.7026391e-01   2.8007696e-01  -3.0750305e-01   5.1842972e-01  -1.6766733e-01   2.2560062e-01  -8.8013316e-01  -2.5578221e-01  -6.0712522e-01  -9.6345844e-01  -9.7321318e-01   2.2519778e-02   8.0259266e-01   6.1466743e-01   4.1732278e-01  -5.7154517e-01  -2.9449436e-01  -1.0509088e-02   5.6023549e-01   1.3014217e-02   2.4113029e-01   7.6974037e-01  -5.3187061e-01  -8.3007542e-01  -8.7651445e-01   5.3948556e-01  -6.5583085e-01  -3.5403573e-01  -1.4536675e-02   4.7230911e-01  -5.6618711e-01   1.9048227e-01  -2.4796294e-01   7.6519790e-01  -2.2834554e-02   3.9006059e-01   5.5919173e-01  -4.7429552e-02  -8.9029116e-01   9.6036236e-01  -5.4870323e-02   8.8444985e-01   7.3251658e-01   1.1650067e-01  -6.3588809e-01  -5.2464464e-01   6.2427762e-01   4.5999389e-01  -9.9811251e-01   5.3616170e-01  -1.1562917e-01  -6.6705491e-01   4.6047404e-01  -4.6460147e-01  -9.7411599e-01   3.6011003e-01   1.3141486e-01   5.3662246e-01   7.9742605e-01   9.9911156e-01   1.0702048e-01  -7.1963972e-01  -4.7220900e-01   8.7215943e-01   9.0527631e-01   9.6642601e-01  -2.1447407e-01   1.5726098e-01  -2.6907977e-01  -7.5679138e-01  -1.1195369e-01   2.7610676e-01   9.5718211e-01   7.0575149e-02   7.2818041e-01   4.4759135e-01   3.0136134e-01  -8.3346863e-01  -4.0038458e-01  -2.1129171e-02   5.4379846e-01  -2.3736960e-01   8.4037010e-02   3.1074852e-01  -6.2813057e-01  -2.0256931e-01  -6.0794390e-01  -2.2327545e-01  -9.0172091e-01  -3.0140168e-01   5.3276997e-01   9.0024987e-01  -8.0464454e-01   8.5813812e-01  -3.6769354e-01   4.1126088e-02  -8.5400509e-01  -2.9129465e-01   1.8326623e-02  -3.6172522e-01   2.6491951e-01  -1.8785770e-01  -5.1774093e-01   4.8761486e-01   2.6818422e-01  -4.6680166e-01   5.3813901e-02   4.2100762e-01   2.3094865e-01   3.5474850e-01   8.0488728e-01  -6.1947111e-01   3.3048003e-01   1.3308803e-01  -9.1904367e-01   9.6360145e-01  -8.7181293e-01   2.5247171e-01   2.7257103e-01   1.8015586e-01   8.2493958e-01   7.7744722e-01   6.4564256e-01   8.6801245e-01   2.5221676e-01  -3.6807633e-01  -4.8101671e-01  -5.7382405e-01  -3.9604292e-01   2.8826981e-01  -8.4420971e-01   7.7358926e-01   4.4393681e-01   9.3983399e-01  -8.2373895e-01   3.4347511e-01   8.1386863e-01   8.2218343e-01  -7.3457895e-01  -4.9743622e-01  -2.0066840e-01   2.7340851e-01   1.8941519e-01   9.3539199e-01  -5.7565230e-01  -2.1345387e-01   5.5016034e-01  -9.2805315e-01  -8.3169250e-02  -2.7365619e-01   3.2650346e-01  -7.3725784e-01   9.4351346e-01  -3.3151244e-01  -6.9381853e-02   2.7523107e-01   3.1078253e-01   2.1129834e-01   3.6800248e-01  -5.1535510e-01  -5.0187258e-01  -7.4402887e-01  -7.5476989e-01  -7.2852997e-01   4.0986316e-01  -4.1972805e-01  -9.6711097e-01  -9.9992652e-01   5.4300391e-01   2.7296474e-02   3.4543006e-01   7.3384306e-01  -7.8601996e-01   4.6899209e-01   9.8458175e-01  -6.4743461e-01   5.3532037e-01   7.7347601e-01   4.3965271e-01  -7.3920646e-01   5.9353337e-01  -4.4676395e-01  -5.9066182e-01  -2.3179020e-01  -7.0716759e-01  -2.8151451e-01  -2.0175609e-01   2.5264568e-02  -9.0525646e-01  -4.2460546e-01   4.5764138e-01  -9.8974826e-01  -4.3504032e-02  -6.1547987e-01  -8.9275619e-01   1.4082845e-01  -2.7127170e-01  -5.3567085e-01   1.3673847e-01   5.6131127e-01   7.2797988e-02  -8.1843119e-01  -9.7071771e-01   7.4908757e-01  -8.4791051e-01   8.3946536e-01  -2.0993001e-01   5.4606451e-02   7.0265977e-01  -9.9477342e-01   3.9748397e-01  -2.9534038e-01  -4.2337420e-01  -9.6771768e-01  -8.8706449e-01  -2.7881714e-01   9.4843681e-01  -3.7814042e-01  -4.3074840e-01   9.7110142e-01   5.1609349e-01  -4.5548193e-01  -1.2664565e-01   7.6136536e-01   3.2970488e-01  -3.0369545e-01  -3.2137219e-01  -6.4420867e-02   4.7517757e-01  -8.3877674e-01  -6.5986713e-01   2.1510943e-01   7.5259982e-01  -1.5317158e-01   7.7438641e-01  -6.1372261e-01  -9.7570902e-02   9.9982904e-01   8.1701834e-01   1.3517177e-01  -6.9896886e-01  -1.4834256e-01  -3.0023766e-01  -4.7351777e-01  -4.7649382e-01  -2.1261595e-01   2.0609529e-02  -2.4074400e-01  -8.6984741e-01  -8.5958741e-01  -8.9706492e-01   7.8703296e-01  -5.1034866e-01  -7.7002949e-02   5.0248857e-01   5.5898261e-01   3.8614725e-02   5.3465498e-01  -5.8930225e-01  -8.3892841e-01   3.5001846e-01  -5.1430077e-01  -3.0590499e-01   1.2145014e-01  -4.9630187e-01  -9.9590023e-01  -2.8931922e-01   6.5541737e-01   7.5656527e-01  -5.0453803e-01  -4.7859121e-01  -8.8483205e-01   7.6607190e-01   1.8303806e-01   3.0628864e-01   9.6838101e-01  -7.4537132e-01   7.6090664e-01   8.6468330e-01   3.8684797e-01  -7.4512737e-01   7.0119163e-01   7.3975999e-01   8.2320370e-01  -1.1738932e-01   3.9620447e-01  -2.5770314e-01  -2.0886471e-01   3.2838303e-01  -7.8631097e-01  -5.0756147e-02   6.4787049e-01   2.8875179e-01   3.9308721e-01  -5.3000780e-01   5.3093543e-01  -5.0821274e-01   9.5109412e-01  -3.7371720e-01  -1.8847620e-01   4.5806159e-01   3.5825397e-01  -6.4189310e-01  -9.9923760e-01   3.3821640e-01  -9.2026363e-01   8.4834143e-01  -9.3191241e-01   1.4359888e-01   3.3427549e-01   9.1457339e-01   5.3619504e-01   8.3956277e-01   6.2167230e-01  -9.7063733e-01   3.3046745e-01   2.6493999e-01   8.1089593e-01  -3.5224508e-01   2.8163937e-01   6.8479812e-01  -8.2765320e-01   1.9429861e-01  -6.8742988e-01   9.7905585e-01  -9.5741500e-01  -2.2804699e-01   8.1148788e-01  -1.7792480e-01  -9.4881854e-01   5.0405248e-01   3.6145825e-01   7.8073126e-03   6.7997421e-01   8.0986391e-01  -9.4606515e-01  -6.9619417e-02  -4.3678881e-01  -8.1561045e-01   3.2459943e-01  -4.5306424e-01   5.0729285e-01  -5.1919762e-01  -7.7847896e-01   9.2859194e-01   6.6508746e-01   8.2585704e-01  -6.4865449e-02   2.3216884e-01   8.9315167e-01   3.9885887e-02  -4.1188269e-01  -2.4725738e-01  -2.2174387e-01   7.6345931e-01   5.0992336e-01  -7.6500799e-02  -9.1609465e-01  -3.2213681e-02   2.3268443e-03   2.1495302e-01  -1.1162468e-03  -6.1846342e-01   6.9456388e-01   9.5389812e-01  -2.6143423e-01  -6.4881600e-01   5.1672860e-01   6.6616905e-01  -9.7188669e-01  -2.6203855e-01  -1.6249497e-01   4.1499564e-01  -8.1375940e-01  -4.5208270e-03   3.6319040e-01   8.4620856e-01  -1.8510634e-01  -3.0533535e-01   5.9384850e-01  -5.2469297e-01  -9.7386525e-02   9.3177222e-01   9.7719842e-02   8.0218979e-01  -2.1386414e-01   3.7968845e-01   6.2846427e-01  -1.3148179e-01   2.2810922e-01  -2.4956884e-01   9.0431261e-01   2.3690345e-01  -4.0152662e-01   4.9562194e-02   8.3652922e-01  -6.9135757e-01  -2.0336996e-01  -1.5673999e-01   7.1511059e-01   6.5427683e-01  -8.7774555e-01   2.3383001e-01   7.6238072e-01  -3.0066325e-01   2.9003731e-01  -3.3174118e-01  -5.9426957e-01  -4.6262267e-01   1.4663806e-01  -9.9539682e-01  -5.5506246e-01   3.2988311e-01   2.4856360e-01   8.7822228e-01  -1.6094466e-02   7.1982278e-02   8.2682499e-01  -7.0766402e-01   1.3141051e-01   6.1102518e-01  -3.1698480e-01  -4.9870256e-01  -9.5385307e-01  -4.9727876e-01   1.8872311e-01   8.1819644e-01   4.0554080e-01  -8.7712543e-01  -5.5750263e-01   3.9180059e-01  -3.9253330e-01   8.3576766e-01  -6.4034403e-02   7.5913387e-03  -2.4497031e-01   7.7801509e-01   5.5536381e-01   7.5627197e-02  -7.3536253e-01   5.2477632e-01  -4.1829990e-01   5.8087461e-02  -1.1256878e-01   5.3919415e-01   2.0863457e-01  -9.6416630e-01  -7.9213651e-01   7.4594142e-01  -1.8206984e-01  -6.2584660e-01  -9.2715141e-01   9.8399870e-01   4.0688041e-01  -1.3416870e-01   5.5281591e-01  -6.9016187e-01   9.1205675e-02   7.7290709e-01  -1.9481644e-01  -7.0835034e-01  -2.2384429e-01   9.6809485e-01   5.9035794e-02   2.6492206e-01   1.8468449e-01  -4.4346619e-01   9.8190167e-01   8.3164000e-01   7.9647098e-02  -5.8375747e-01  -9.0898445e-02  -4.7901636e-01   8.3507724e-01  -8.9733626e-01  -4.4209430e-01  -3.0090434e-02  -6.8177939e-01  -8.4437724e-01  -3.2042065e-01  -2.5290073e-01   6.0397288e-01   6.7996988e-01   2.1004233e-03   1.0151605e-01  -9.5858761e-01  -7.2324934e-01  -3.1608070e-02  -8.7382646e-01  -4.8261597e-01   9.2164133e-01   6.7814666e-01  -2.0997880e-01  -8.6255694e-02   2.3622512e-01   3.0124912e-01   2.6941669e-01  -5.2994668e-01   2.0313848e-01   1.8837071e-01  -6.9234980e-01  -6.5931952e-01   4.3827525e-01   2.0200432e-01   4.9920507e-01  -6.0961792e-01  -1.6617572e-01  -1.2724883e-01  -4.8067886e-02   6.3812561e-01  -5.8656349e-01  -6.4328342e-01   3.8373911e-02  -3.1478269e-01   1.6075962e-01  -7.6726378e-01  -5.4534938e-01  -8.1584224e-01   6.2989497e-01  -6.1381416e-01  -5.9821914e-01  -5.7559201e-01   8.9370278e-01   8.9866185e-01  -4.1005137e-01  -3.0956543e-01   4.1813606e-01  -2.6689599e-01  -1.9856479e-01   2.1666856e-01   3.3677268e-02  -6.4546519e-01   5.2978352e-01   7.7122336e-01   8.6280731e-01   8.0245402e-01  -4.9196802e-01   2.3438818e-01  -4.7947644e-01   7.0616005e-01   4.0551444e-01  -6.7076050e-01  -7.2056122e-01   7.5055804e-01
