  -5.8288509e-01  -7.7996567e-01  -1.0561288e-01  -7.1732091e-01  -9.4649396e-02  -8.3040975e-01   4.7897239e-01  -5.5745581e-01   7.0344569e-01   6.4330014e-01  -9.0316195e-01   1.7532766e-01  -1.1366413e-01   8.3171690e-01   1.2174826e-01  -7.6120841e-01  -2.6265322e-01  -8.6025815e-01   1.2142737e-01   1.0746597e-01   3.0182873e-01   4.9754082e-01  -6.8930440e-01  -6.6355642e-01   1.8101988e-01   4.8047965e-01   8.7543646e-01   4.7413189e-01  -7.1420638e-01   4.9242822e-01   8.0206896e-01   9.3360685e-01  -2.7443852e-01   9.1025331e-01   9.4116916e-01  -5.0498432e-01  -2.0814175e-01   3.8298922e-01   9.8659390e-01   2.8643468e-01   5.4574819e-01  -9.2316318e-01  -7.8091477e-01   3.5349159e-01   2.0805768e-01  -3.7099605e-01  -9.8715927e-01   4.0633051e-01   8.4737787e-01  -9.4470515e-01  -7.2355717e-01   1.2004221e-01  -5.5923611e-01  -7.2709859e-01  -3.1663169e-01  -7.3709325e-02   5.8632337e-01  -1.7267601e-01  -6.4924653e-01  -9.2172679e-01   9.4862384e-01  -6.3712862e-01  -4.8460144e-01   6.5435810e-01  -5.0843873e-01   6.7736035e-01  -8.4199895e-02   9.6017012e-01  -7.7272800e-01  -3.8841047e-01   2.1661013e-02  -9.1406381e-01   1.9837532e-01   3.0362374e-01  -9.4230825e-01   4.0104477e-01  -5.9075322e-01  -9.0779175e-01  -5.0056082e-01   9.8379399e-01   1.6278752e-01  -7.7086973e-01  -5.5880354e-01  -2.8632979e-01  -9.2471652e-01  -7.0761255e-01   3.1762970e-01   8.1656577e-01  -7.2750431e-01   2.5576636e-02  -4.2153287e-03  -3.6568675e-01   2.0712217e-01  -6.7111000e-01   4.1167672e-01   2.0309365e-01  -5.0638250e-01   8.5250033e-01   7.0142029e-01   1.2670528e-01   7.7353996e-01   1.5082176e-03  -4.0299952e-01   8.3791366e-01  -2.2293459e-01  -7.5077174e-01   3.2444666e-01   7.7961797e-01  -8.1622180e-02  -6.0002182e-02  -9.3388067e-01   7.7425017e-01   9.9825240e-01   1.0262310e-01  -1.7056218e-01   4.5886797e-01   7.7666850e-01  -7.1667950e-01  -8.9810068e-01   3.9057984e-01   8.3776848e-01  -5.3692468e-01   8.4719684e-01   7.9239444e-01   4.4489288e-01  -2.3556792e-01   9.8771004e-01  -3.3467660e-01  -9.6567782e-02   7.0494512e-01   4.0838329e-01  -7.6319971e-01   8.9405410e-01   2.3176472e-01   9.7087320e-01   2.3463352e-01   7.6589989e-01  -1.1456110e-01   4.1694085e-01  -1.3082918e-01   7.7016655e-01   7.6865177e-01   5.7878716e-01   7.9474864e-01   6.0852461e-01  -7.4534065e-01   8.5206743e-01  -5.7963663e-02  -8.6540973e-01   7.1289993e-01  -3.9110407e-01   4.7085257e-02   8.2118792e-01   8.8938175e-01  -1.5464489e-01   4.1266748e-01   4.0368143e-01  -9.2963133e-01  -2.7996280e-01   7.4579314e-01  -4.2667848e-01  -9.7246725e-01   4.4796976e-01   9.6383865e-01   8.5440416e-01   7.8722221e-01   9.1855937e-01  -1.0319084e-01  -1.5457076e-01  -4.5818366e-01  -8.7017314e-01  -2.6990246e-01  -6.7090881e-01   5.8328178e-01  -4.0191385e-01   1.2982855e-01   7.5192542e-01   6.0509860e-01  -1.3976788e-01   8.5750702e-01  -5.1448863e-01   3.2682672e-01  -1.1201660e-01   9.1622823e-01  -5.4058611e-01   6.1483313e-01  -6.3103324e-01   1.4552169e-01   2.4461054e-01  -8.3005942e-01   5.7852957e-01  -7.9893892e-01   3.1812431e-01  -4.1970490e-01  -6.0183627e-01   5.5455303e-01  -1.1518580e-02   2.5330036e-01   1.6865591e-01  -4.9176431e-01  -1.6282553e-01  -4.1746460e-01   8.1000134e-01   8.4385998e-01   5.3296319e-02   8.2614117e-01  -1.4074084e-01  -5.1117501e-02   1.5632664e-01  -1.1120885e-01   6.7940506e-01  -2.9221364e-01  -1.0928920e-01  -6.5739866e-01  -7.5426920e-01   5.6483546e-01   1.6649516e-01  -4.4198076e-01   8.8036242e-01   7.6851871e-01  -9.0467234e-01   2.7546329e-01   2.9719246e-01   8.9477940e-01  -5.5766446e-01  -3.1987416e-02   6.5092135e-01   6.3607657e-01  -1.0056976e-01   8.5297487e-01  -1.0631800e-01  -4.2529961e-01   4.5957919e-01   8.0398994e-01   3.7427309e-02  -7.6844007e-01  -8.6854703e-01   5.0399239e-01  -3.7720777e-01   5.7417237e-01   8.5189116e-01  -4.2452489e-01  -1.7116525e-01   5.5755024e-01  -1.1592997e-01  -5.8605747e-01   2.9704159e-02  -9.7380218e-02  -6.9773042e-01   6.4141310e-01   6.3535210e-01   2.3739550e-01  -1.8424230e-01  -3.3057383e-01  -3.8620463e-01  -5.4784129e-01   6.1628991e-01   4.3948576e-01   8.7704619e-01   9.4342890e-01   7.0373109e-01  -7.3911751e-02   5.4388672e-01   7.5235101e-01   4.1188255e-01   2.4125828e-01   8.0035359e-01  -6.3857319e-01  -7.5454840e-01   3.9749495e-01  -9.8160037e-01  -3.3383466e-01  -9.3576030e-01  -6.8359936e-01  -6.4673222e-02  -1.1792669e-01  -7.8654523e-01  -7.8679726e-01   4.1409312e-01  -3.3812309e-01   7.6521215e-02   6.4169374e-01  -5.5062097e-01   3.0835409e-01  -1.8419135e-01  -5.5276838e-01  -6.6526012e-01   9.1560807e-01  -8.9988584e-01  -1.2011496e-01  -2.1275312e-01  -9.7518084e-01   4.6125645e-01  -8.9983311e-01  -8.8214093e-01  -2.3509583e-01  -8.7281699e-01  -5.4994281e-01   6.1259200e-03  -9.5289829e-01  -7.7768733e-01   3.1813174e-01  -6.7543757e-01  -5.5974552e-01   1.4766142e-01   8.1809371e-01  -3.7201945e-01  -1.2027868e-01  -5.3729402e-02   3.2513625e-01   5.9668502e-01  -2.7998571e-01   2.0595470e-02   4.5902968e-01   1.6186069e-02   7.2207077e-01   5.1169368e-01  -6.2408612e-01   7.8447619e-01  -2.1675052e-02   1.9304152e-01  -5.4681795e-01   3.8323627e-01   5.7865144e-02  -3.4223486e-01  -3.2332642e-01  -8.7565650e-01   9.4892866e-02  -7.8317076e-01  -7.8438619e-01  -5.9731332e-01  -5.5479283e-01  -4.4015426e-01   7.8369246e-01   2.0177751e-01   7.0438917e-01  -2.0733029e-01   2.3502424e-01   6.8477063e-01   1.3551431e-01   9.3009570e-01  -5.0799820e-01  -7.0904183e-01   2.2134917e-01   9.4489978e-01  -8.3257568e-01  -4.8119894e-02  -3.9204569e-01  -2.1758229e-01  -2.3681590e-01  -6.8786705e-01  -4.4374193e-01   5.5402285e-01   1.9621236e-02   4.0672016e-01  -8.8948478e-01   6.9062595e-01   5.5964732e-01   2.0697092e-01  -1.8830018e-01  -8.3545602e-01   2.3823129e-01   5.4398063e-01   7.1760915e-01   3.5834053e-01   8.4301969e-01   3.7603258e-01   6.9369563e-01  -5.1118948e-01  -8.1422045e-01   9.7159380e-01   2.0810654e-02  -3.4571927e-01  -3.4193629e-01   2.9354301e-01  -4.9391948e-01   3.1315655e-02  -8.5518294e-01   6.4229474e-01  -9.3612208e-01  -4.1090046e-01  -8.9040559e-02   2.6162522e-01  -7.5811063e-01   8.6577206e-01  -8.2750469e-01   8.1956767e-02  -8.9709728e-01   9.4466405e-01   9.3078926e-01   6.2733354e-01   1.9933330e-01  -2.2223731e-01   3.9368675e-01  -1.4681861e-01  -4.3493994e-01   5.8668645e-01   7.0911759e-01  -1.9632189e-01  -8.0353216e-01   4.6420242e-01  -9.9369701e-01   3.4972060e-01  -6.8439259e-01  -3.6478798e-01  -3.9477801e-01   6.4590219e-01  -9.5668275e-01  -2.5009299e-01   5.0376724e-01   2.6337397e-01  -4.0386700e-01  -5.1243138e-01   5.8417157e-01  -7.7880401e-01   9.7825934e-01  -7.5242452e-01  -9.0695923e-01   9.6274172e-01   5.6366627e-01  -1.5891325e-01   9.9188564e-01   9.2535355e-01  -7.2740037e-01   4.5793422e-01  -4.6860358e-01   5.1457214e-01  -7.6839676e-01  -3.3149635e-01  -1.0249540e-01   6.8574019e-01  -6.1679277e-02  -1.7047262e-01   6.6074878e-01   3.9359897e-01   2.8288588e-02  -2.1162071e-01   8.5560126e-01   5.0851309e-01  -5.4292570e-01   1.3773679e-02   3.0278559e-02   5.9251463e-01   7.7249561e-01  -9.9853496e-01   9.4853731e-01   3.2640956e-01   8.3336606e-01  -6.4857674e-01   3.6213704e-01  -9.9510009e-01  -5.7835036e-01   7.5260421e-01  -4.0486304e-01  -6.2366536e-01   8.4423110e-01  -3.9368540e-01  -2.9105900e-01   7.5901418e-01  -9.3774841e-02   9.0468901e-01   1.8778048e-01   1.4151947e-01  -1.1297806e-01   6.8705696e-01  -2.1554098e-01   4.7291849e-02  -7.5175543e-01   6.2906337e-01  -4.4005851e-01  -7.3747703e-01   4.4786555e-01   5.6251814e-01   8.0665291e-02  -6.1765629e-02  -2.6309919e-01  -9.8685316e-01  -5.4362523e-01  -7.9529055e-01   7.9052243e-01   6.6091910e-01   2.9191331e-01  -5.7463707e-01  -4.5710475e-01  -5.9218225e-01  -1.7204861e-01   2.7643396e-01   4.2824020e-01   5.0929799e-01   2.3469917e-01   1.2989370e-01  -2.8373897e-01   8.2240184e-01   1.7495252e-01   5.8421523e-01   8.0301516e-01   2.3681452e-01  -5.4926127e-01  -7.1360095e-01   8.5722223e-01  -5.4294972e-02   7.8390641e-01  -8.4458042e-01  -6.7814315e-01  -7.7169755e-01   2.9566039e-01  -3.6017349e-01   9.3329485e-01   8.9829104e-02   8.3448118e-01   5.6744331e-01  -7.2592610e-01   6.6101139e-01  -6.0243334e-01  -2.4444009e-01  -9.5282514e-01   3.9659887e-02   1.6343086e-01  -8.2535078e-01   8.7674928e-01  -9.2075385e-01   3.3900356e-01   7.6554190e-01  -3.8947893e-01  -6.6492668e-01   2.9715287e-01   2.9540092e-01  -6.6657269e-01  -7.1176558e-01  -3.2769629e-01   2.9049726e-01  -3.5508642e-01   6.2134013e-01  -3.9129293e-01   7.4525589e-01  -9.1927334e-01  -2.8591892e-01   7.9930348e-01  -9.7283825e-02   2.9372725e-01   4.0705079e-01  -2.5121985e-01   5.4514940e-01  -5.5543027e-01  -3.9578496e-01  -5.4169915e-01  -1.9724882e-01   7.3171087e-01   3.2731157e-01  -5.4746004e-01  -8.3043740e-01   3.8946419e-01  -9.9827494e-01  -3.6627953e-01   2.5960071e-01  -3.9306501e-01  -9.2590822e-01   7.4678126e-01   1.4810498e-01   3.0416471e-01   4.6672968e-02   9.7988036e-01   3.6466966e-01   3.8903850e-01  -2.6863605e-01   9.0171178e-01  -9.1683367e-02   2.0446652e-01  -7.1516137e-01   1.3525113e-01   1.0894874e-01   1.9972804e-01   7.4537045e-01   6.1386268e-01   3.9217941e-01   1.3633031e-01  -3.5626839e-01   7.1534815e-01   2.0166663e-01   2.3881835e-02  -2.3281503e-01   7.6610745e-01  -6.7265943e-01   6.4976294e-01   5.7692840e-02   9.3915094e-01  -8.9735279e-01  -6.4655146e-01  -6.8206900e-01  -9.8291405e-01   1.2585018e-01  -2.6255565e-02  -5.8204244e-01  -1.6854950e-01   2.2101828e-01   8.1616105e-01  -3.0504317e-01  -8.9217907e-01   2.0183117e-01   9.5152166e-01  -4.9418348e-01   7.0547449e-01  -1.6867287e-01   9.9382523e-01  -8.8120778e-01  -9.4638324e-01   5.5522474e-01   3.7791786e-01   4.6198023e-01  -5.5986371e-01   4.9300360e-01  -5.6770653e-01   9.4064509e-01   6.8299992e-01  -8.2768392e-02  -3.6859382e-01  -3.3276080e-02  -5.4537326e-01  -2.6478237e-01  -1.3132775e-02  -9.6211099e-01   9.0734918e-01  -1.1598323e-01   1.2113506e-01   1.6890075e-01   3.6190864e-01  -8.6683120e-01  -1.8681709e-01  -8.0001696e-01  -3.1598137e-01   6.2198566e-01  -7.4897392e-01   5.5216840e-01   3.5892480e-01  -2.6472516e-01   1.8730431e-01   7.1956019e-01   8.1642865e-01  -7.0902598e-01  -6.5024602e-01  -4.1595920e-01   3.8102441e-01   4.1926717e-01  -6.0852790e-01  -4.6172037e-01  -5.1260343e-01   3.9190704e-01  -5.9186986e-01  -2.1816594e-01   2.3978073e-01   2.2389793e-01  -1.8632481e-01  -1.7242047e-01   3.2887414e-01   9.1340188e-01   4.9553342e-01  -6.1078095e-01  -8.2466415e-01   8.6843071e-01  -8.0779038e-01  -3.5829450e-01   8.6371724e-01  -2.4286913e-01   5.4981229e-01  -6.9737984e-01  -5.3023899e-01   4.8136472e-01  -3.8977753e-01  -8.0557223e-03   6.5370702e-01  -9.7201579e-04   2.6571006e-01  -9.6118244e-01  -7.6112177e-02  -5.5558296e-03   7.9845367e-01  -2.5443562e-01   3.3366481e-02   1.9603065e-02   4.4360951e-01   5.7194366e-01   8.0048584e-01  -6.9243266e-01   6.0783258e-01  -3.3731084e-01   6.3211122e-02  -8.3024046e-01  -3.7768599e-01  -8.9407409e-01  -5.9431350e-01  -2.7812060e-01  -7.4943186e-01   9.9494553e-01   9.5678860e-01   1.6986659e-01  -8.5905327e-01  -9.9853100e-01   4.1631372e-02  -9.4465363e-01   1.1795183e-01   3.8213979e-01  -8.1586652e-01   9.4267334e-01  -7.7193111e-01   9.5079692e-03  -7.9544913e-01  -3.0570159e-01  -1.1730533e-01  -4.7414457e-01  -1.5920121e-02  -8.7716618e-01   6.6816520e-01   4.0270182e-01   3.3507868e-01   8.6535251e-01  -6.8874697e-01   5.9050164e-01  -5.5054918e-01   6.9540919e-01   1.4179297e-01  -4.7833598e-03  -3.0185629e-02  -4.8200513e-01  -3.1279285e-02   9.6952481e-01  -4.2005086e-01   1.0094039e-01   2.1959940e-01  -3.5184269e-01  -3.6360657e-01  -8.5000820e-01  -9.4663726e-01   9.1709307e-01  -3.0100513e-01  -2.5195439e-01   5.4295222e-01  -1.4897811e-02  -9.3504043e-01  -3.6675788e-01  -2.1054614e-01   4.9742531e-01  -8.0333713e-01  -1.2220327e-01   1.1279847e-01  -6.3071806e-01  -2.1610843e-02   3.6281087e-01  -9.6968913e-01  -6.7582189e-01   8.6025250e-01  -7.9155503e-01  -1.0314017e-01  -1.6044447e-01   5.9008276e-01  -1.6974657e-01  -4.1190004e-01   2.1167451e-01  -2.9672063e-01   7.4671924e-01   2.7961810e-01   2.2847375e-01   7.2024015e-01   7.9546381e-01  -7.9792963e-01  -9.8579785e-01  -3.4741152e-01  -6.8081007e-01  -1.3275729e-01   4.6595322e-01  -4.1565551e-02   8.0374575e-01  -5.0323510e-01   8.4591392e-01   8.8226040e-01   8.5301364e-01   5.4803185e-01  -9.2812125e-01   2.8259830e-01   8.8836096e-02  -9.0484937e-02  -4.2750841e-01  -2.8695065e-01   8.1541141e-01  -3.5447897e-02  -6.8271232e-01   7.6001336e-01   6.4611254e-01   5.5504410e-01  -3.7090486e-01   3.2886331e-01  -7.0936486e-01  -4.4339440e-01   8.7182064e-01   8.7374302e-01  -2.0162285e-01   7.7095070e-01  -6.1779348e-01  -2.5317689e-01   8.0383809e-01  -4.7040786e-01   7.0978370e-01   8.9378057e-01   8.5441321e-01   5.9767111e-01   3.7781800e-02  -7.2876594e-01  -9.7491383e-01   3.1422172e-01   1.1591868e-01   2.9601219e-01   1.5955042e-01   3.2486385e-01  -3.2089952e-01   8.8180245e-01   6.7134827e-01  -6.2886135e-01  -1.6443498e-01  -7.3511848e-01   5.4275154e-01  -7.7252633e-01  -1.9716368e-03   3.7146641e-01  -1.7423272e-01   4.8541323e-01  -2.8564662e-01  -1.7162676e-01   3.6030704e-01  -9.5629711e-01  -5.7856341e-02  -4.8529899e-01   8.4214842e-02  -7.8038261e-01   9.8709630e-01  -4.3613393e-01  -4.3605686e-01   5.2875806e-01   9.8442965e-01  -5.4050880e-01  -5.6471676e-01   4.7860367e-01  -9.9387387e-01  -5.2438520e-01   5.0024033e-01   4.6169600e-01   8.7057594e-01  -7.1226416e-01   4.3797420e-01  -8.1725012e-01   3.7402754e-01  -4.8391940e-01  -8.9947370e-02   3.1597539e-01  -7.6737316e-01  -9.1377506e-01  -2.3996710e-01  -7.7598978e-01  -3.3901510e-01  -6.0436772e-01   9.1909206e-01  -9.2525958e-01   8.6965203e-01   3.3659901e-01   9.4538346e-01  -3.5967188e-01  -9.9336981e-01  -8.5226634e-01  -2.1328374e-01  -4.1625304e-04   1.1569920e-01   5.9737510e-01   1.1712397e-01  -9.5117562e-01   4.9846136e-01   8.6496736e-01   6.3555451e-01  -4.1250622e-02   3.0519580e-02  -4.7093969e-01  -5.3263810e-01   6.2025101e-01  -1.1445722e-01  -6.7760255e-02  -9.8385502e-02   1.9457220e-01  -3.5443380e-01   2.2469159e-01  -8.6750738e-01  -7.8021234e-01  -9.2443815e-01  -8.4703453e-01   4.5719506e-02   6.1860124e-01   6.6732169e-01   7.1874162e-01   4.1801668e-01   9.7253257e-01  -6.3232763e-01   9.5370174e-01   3.0563043e-01   7.9557100e-01  -3.8185467e-01  -3.7266079e-01  -8.2545310e-01   2.4907185e-01   6.5569454e-01  -4.1205824e-01   4.8724209e-01  -3.5284958e-01  -4.2305569e-01   8.4442264e-01   5.4912770e-01   4.3535334e-01  -1.4904895e-01  -2.8732049e-01   7.6611384e-01   5.7473184e-01   4.2969168e-01  -9.4641650e-01  -6.1617706e-01  -4.7249803e-02  -6.7728033e-02   7.4807853e-01   3.1542801e-01   8.3124930e-01  -1.4482888e-01   1.8588783e-01   8.6314398e-02   3.4841994e-01   3.2903366e-01   5.6216180e-01   9.0420679e-01   3.9776753e-01   1.7105422e-01  -5.4539950e-01  -3.8544733e-01   4.9279725e-01   5.3501717e-02   9.3659199e-01  -9.8429927e-01   8.7913300e-01  -6.6802112e-01  -8.6870425e-01   2.5011836e-01   9.3266060e-01  -4.3944049e-01   1.5443499e-01  -2.7839266e-01  -1.6661362e-01   9.2635581e-01   9.2996981e-01   5.2193121e-01  -1.4275885e-01  -6.6310670e-01  -7.8844543e-02   3.0037489e-01   8.7666171e-01  -9.8914325e-01   2.8451274e-03  -1.1156089e-01  -5.6032628e-01  -5.0493160e-01   3.9781647e-01   2.0411057e-01   4.5810432e-01  -6.3245721e-01  -1.2116120e-01   5.7216561e-01  -2.2442246e-01  -5.8789839e-01  -7.3976493e-01   5.9530370e-01   3.2610618e-01   8.5105786e-01  -2.2308856e-01   2.4370018e-01   1.1393895e-01  -6.3693183e-01  -2.2557483e-01   4.8702228e-01  -9.1409027e-01   5.2882028e-01  -9.7787471e-02  -4.7332990e-04  -5.9757239e-01   5.1314930e-02  -8.8495479e-01  -3.6795446e-01  -8.0631763e-01  -8.7677173e-01   2.4285025e-01  -4.1023430e-02   9.4916767e-01  -4.6366691e-02   7.2395468e-01   8.0165440e-01  -7.2306208e-01  -4.7967081e-01   3.5184596e-01   5.1868554e-01  -3.4030849e-01
