  -6.6373285e-02  -8.4449259e-01  -2.0321545e-01   2.9643080e-01   4.7232264e-01   5.7371558e-01  -5.3074252e-01  -6.5969538e-01   6.3522557e-01  -2.7805273e-01  -6.6938666e-01  -5.6803470e-01   1.8165756e-02   6.5744910e-01  -5.9034277e-01   6.4144218e-01  -1.1547410e-01   3.1879162e-01   5.0521998e-01  -9.5352316e-01   7.4560117e-01   7.9299282e-01   4.7265209e-01  -3.2331620e-01   8.1615649e-01  -8.6909411e-01   3.7883267e-01  -8.1151456e-01   6.5291879e-01   7.7199075e-01   4.0055650e-01   7.9355390e-01  -1.4509539e-01  -7.0094807e-02   3.6847874e-01  -9.3320800e-02  -1.8840617e-01  -2.1652915e-01   7.3909598e-01   8.2736782e-01   3.2559735e-01   1.8859381e-01   3.6992762e-01  -9.8702219e-01  -2.8411596e-01   6.3092386e-01  -3.3084002e-01   8.0117229e-01  -9.1032833e-01  -6.3708832e-01  -3.7298540e-01   6.9062982e-01  -6.8620809e-02  -4.4395142e-01  -8.0184018e-01  -7.7845323e-01  -8.6015366e-01  -3.7350220e-01  -6.0018551e-01   9.6810657e-01  -5.3200122e-01   1.2661219e-01   2.5886080e-01  -6.7249958e-01   6.9987272e-01   5.0893285e-01   3.9728833e-01  -3.7113088e-01   4.3181930e-01   3.1977447e-02   2.3890464e-01  -7.5998482e-01   5.5572470e-01  -8.6955254e-01   2.1764672e-01  -8.7673477e-01   5.8415636e-01  -9.3858939e-01  -4.3503599e-01   9.0138672e-01  -2.3392234e-01   3.3083253e-01  -6.5073905e-01   7.0072013e-01  -2.8544068e-01  -3.4589007e-01   7.1288671e-01  -1.8724698e-01  -4.0718450e-01   4.7781022e-01  -4.6001680e-01   4.2231870e-01  -7.0915545e-01   4.5146960e-01  -2.4140004e-01   1.9085472e-01  -1.0779520e-01  -1.8808233e-01  -7.6092248e-01  -6.5324807e-01  -6.3945293e-01  -3.2405998e-01  -8.9190154e-01  -2.1293382e-01  -9.0478858e-01   2.0414164e-01  -4.2233450e-01   1.5832477e-01   1.0082350e-02  -1.0449767e-01  -9.9576669e-01   5.3636093e-01   5.4119972e-01   7.0402654e-01   1.5096958e-01   3.4181549e-01   4.4157873e-01  -5.8351653e-01  -8.4092366e-01   9.2767244e-01  -9.7264230e-01   5.5235918e-01  -4.7807487e-01  -2.3891721e-01   8.7207930e-01  -3.4132057e-01   2.3412568e-01   4.1639346e-01  -2.3312190e-01   2.9288313e-01   7.5144729e-01   4.4443073e-01  -9.6356886e-01   9.3961474e-01  -8.1134814e-01  -5.7422367e-01  -2.0642492e-01   5.2411904e-01  -1.5041234e-01   3.4115940e-01  -7.5961055e-01  -5.5004873e-01  -1.7101925e-01  -5.4652247e-01   1.7204552e-01   1.3535979e-01   4.8166263e-01   3.2711105e-01   3.3969868e-01   5.0569759e-01  -4.0787082e-01   5.1577837e-02  -2.0798433e-01   5.0818612e-01   7.1164476e-01   2.5116250e-01  -1.7158481e-01   9.4269214e-01  -2.0091912e-01   1.5737681e-01   4.2783889e-01  -9.7790155e-01  -7.6417300e-01   2.2953660e-01   7.6961665e-01  -6.6666744e-01   2.5248408e-02  -8.6485977e-01   7.9916950e-02  -1.2026866e-01  -7.8695958e-01  -9.3775541e-01   3.8920274e-01  -2.6550877e-01   9.3500981e-01  -4.8815341e-01   3.8042125e-01  -1.3101037e-01   8.8550280e-01  -1.8162584e-01  -4.0052191e-01  -8.2242150e-01  -5.5396941e-01  -4.3533964e-01   6.8598020e-01   7.0127611e-01  -4.5603923e-02  -6.3777856e-01   7.0892510e-01  -9.2198813e-02   9.3741689e-01  -6.5407092e-01  -4.0912859e-01  -8.1374263e-01   9.0105941e-01   1.0438147e-01  -2.2485986e-01   2.7366838e-01   3.4000854e-01   5.5152035e-01   4.8754216e-01   1.8857284e-01   5.6867817e-01  -8.7802016e-01  -9.3967763e-01   3.9456178e-01  -4.5380413e-01   9.2925855e-01  -1.8044564e-01  -3.3085326e-01  -3.8113295e-01  -4.6007993e-01   4.3152789e-02  -1.5717711e-01  -7.0562312e-02  -2.6475085e-01  -8.7692815e-01   9.4191741e-01   1.7984240e-01  -5.4446799e-01  -6.3987451e-01   7.9701510e-01  -5.9032918e-01  -2.6848865e-01   7.1354914e-01  -4.7949109e-01  -2.0204192e-01   4.8200329e-01   1.9646861e-02  -4.0411053e-01   3.6920647e-01   5.5143053e-01  -3.8938879e-01   9.2646609e-01  -2.1549341e-01  -9.7120560e-01  -3.8665456e-01  -1.1472132e-01  -2.3078251e-02  -3.8625196e-01  -5.7588611e-01   9.2774671e-01  -8.7890623e-01  -3.1819018e-01   3.0730784e-01  -1.7655108e-02   4.1664542e-01  -1.2011264e-01   2.7173759e-01   1.0514482e-01   4.0012481e-01  -4.8987683e-01  -7.7251259e-01   2.0909648e-01   5.8361418e-01  -2.7873310e-01   9.4176657e-01  -4.2834042e-01   2.1865939e-01  -5.1845551e-01  -8.4692937e-02   9.8712124e-01  -6.3565842e-01  -8.3108215e-01  -3.4550586e-01  -4.0787497e-01   3.7968427e-01  -2.4983139e-01   2.0733775e-01   3.5693358e-01  -4.1075261e-01   2.4974756e-01  -6.6479052e-01   2.7034842e-01  -7.9535041e-01  -9.8230526e-01  -9.4449284e-01  -1.5340740e-02   4.4125549e-01   2.5959157e-01   7.7902556e-01  -1.0835461e-01   5.4996663e-02  -8.8214991e-01  -8.1593941e-01  -8.6618953e-01  -6.3758276e-01  -9.4347108e-01   7.7304892e-01   2.0164492e-01  -5.2006124e-01  -9.3798447e-01  -3.6012535e-01   9.0038907e-01  -1.0486191e-01  -7.3081863e-02   5.1298461e-01  -6.0626730e-01  -2.7828141e-01   7.3348205e-01  -4.6253959e-01   9.9582310e-01   1.4271302e-01  -1.1272282e-01   3.6227471e-01  -6.6759750e-01   5.8669792e-01   8.6849379e-01  -6.2847141e-01  -3.0511493e-01   2.1738550e-01  -8.8153195e-01   8.0284519e-01   2.5821623e-01  -8.8373818e-01   3.3749549e-01  -8.0012728e-01  -4.5549017e-01  -4.1597465e-01   8.3118689e-01   3.5644092e-02  -9.6848688e-02   8.8094004e-02   7.1350705e-01  -5.7763862e-01   2.9043565e-02   9.0895154e-01   6.0239777e-01  -6.3347340e-01  -9.7671878e-01  -6.5718304e-01  -9.9124187e-01  -3.8673420e-01  -5.6632785e-01   4.4297218e-01  -3.2386431e-01   6.1140884e-01   8.0292206e-01  -6.7932812e-01  -3.9900311e-01   6.4769043e-01  -2.2220425e-01  -7.1117827e-01   3.4432327e-01  -5.7040969e-01  -5.3843541e-02   7.1066262e-01  -9.1829471e-02   5.7244962e-03   8.7797363e-01   1.5159788e-01  -6.1917294e-01  -5.9783594e-01   4.0478046e-01  -2.8270447e-01  -3.4091947e-01  -2.4901681e-01  -5.3460089e-01  -4.5602896e-01   5.9378820e-01  -5.3467886e-01  -2.6585163e-02  -9.8420893e-01  -5.9879050e-01  -5.1615408e-01   5.5068496e-01   9.7432752e-01   2.7456531e-01  -7.8632179e-01   5.8295951e-02  -6.7737734e-01   2.0605182e-01  -2.3962557e-01   9.4585367e-01  -3.4302817e-01  -3.9560502e-01  -1.5473681e-01  -2.4946690e-01  -3.4665651e-01  -2.9366256e-01  -7.8556886e-01  -1.2386851e-01   9.1070796e-01   9.6555627e-01  -5.0938086e-01   9.2862948e-01   6.3816029e-01  -1.0700803e-01   7.1869425e-01   2.5281017e-01  -6.2214678e-01  -6.4048685e-02  -2.6514335e-01   1.2369638e-01  -3.8990951e-01   3.1747996e-01  -2.4718088e-01   1.7541172e-02   4.1986511e-01   1.7958073e-01  -1.6246637e-01   1.2077618e-01   1.3399887e-01  -1.6545844e-01  -8.9384731e-01   4.0806722e-01  -4.4370135e-01  -3.2341776e-02  -2.7055415e-01   7.7263399e-01  -2.2659197e-01   6.1743616e-01  -7.2731419e-01  -2.8948257e-01   1.4489512e-01  -4.9634380e-01   7.2808539e-01  -7.0726254e-01  -8.8279240e-01   9.0461235e-01  -3.7493299e-01  -2.0950125e-01   5.2482839e-02   8.4590108e-02   8.0727802e-01  -2.8145699e-01   7.5754722e-01   2.8621808e-01  -7.0802719e-01  -6.0979492e-01  -8.0391835e-01  -7.5849936e-01  -5.7428887e-01  -6.1288417e-01   8.0711220e-01  -5.8569831e-02   3.7102511e-01   7.4288197e-01   5.4554917e-01  -5.0475708e-02   2.2534088e-01   7.1943229e-01  -7.0453703e-01  -4.0888634e-01  -7.3001498e-01   4.2630157e-01  -9.7032660e-01  -3.4458450e-01   2.6414412e-01  -6.5153215e-01  -2.6466434e-02   6.1357413e-01   2.8473898e-01   7.9017480e-01  -9.6352024e-01   3.3179631e-01  -8.4783898e-01  -6.1557275e-01   8.2379406e-01  -9.9083370e-03  -6.1973009e-01   1.5751660e-01   6.4427378e-01   8.6743047e-01  -6.8254769e-01   1.5729924e-01  -3.2351695e-01  -1.1433007e-01  -3.7008083e-01   5.7285244e-01   1.5109160e-01   4.7706243e-01   2.5472119e-01  -9.0564740e-01   1.6894630e-02   1.2401110e-01  -9.6242242e-01   8.8066453e-01  -9.6817556e-01  -8.2226275e-02   9.6444097e-02  -3.9759580e-02   6.2909109e-01  -7.4377479e-01   7.5273663e-01   1.9638382e-02  -1.0113590e-01  -2.3918379e-01   2.0722288e-01   1.8397781e-01   4.9269885e-01  -1.2972170e-01  -2.1162363e-01  -5.6761142e-01   7.5143700e-01  -1.8598935e-01  -7.0208440e-01   1.2838677e-01  -1.5994659e-01   6.2493401e-02  -1.0056941e-01   9.1482705e-01   2.1065291e-01  -2.4247724e-01  -1.8735810e-01   1.0824883e-01   7.8451788e-01   8.2434542e-01   7.0614372e-01   6.5094203e-01   7.9967314e-01   8.1023822e-02  -2.5614477e-01   1.2350989e-01   3.3686064e-01  -6.7986023e-01  -2.1870912e-02   4.5174665e-01   5.2872994e-01  -5.2403225e-01  -3.0684895e-02  -6.2363918e-01  -3.5701901e-01   8.5393936e-01  -8.1631919e-01  -3.8301986e-01  -6.4847049e-02   9.7320331e-01   3.8265864e-01   4.9103828e-01   2.9804396e-01  -5.2675090e-01  -2.7290914e-01  -3.4299053e-02  -6.5591086e-01   1.2018056e-01   7.3849178e-01   7.7968637e-01   7.2038612e-01   4.0798089e-01   5.8452920e-01  -3.2444477e-02   4.2119566e-02   1.9013847e-01  -2.8967911e-01  -6.3990127e-01   4.5203504e-01   6.5095495e-01  -8.3379309e-02  -9.9335049e-01   9.2331248e-01   5.9095932e-01   7.2743629e-01  -7.9610879e-01   7.5816859e-01  -5.4098738e-01  -7.6256758e-01  -7.6451768e-01   3.1172370e-01   2.5162102e-01   1.6051618e-01  -4.2826639e-01  -5.3113689e-02  -5.7178080e-01  -8.6970465e-01  -8.0026075e-01  -3.0403961e-01   3.8180639e-01  -5.3869763e-01  -6.3651622e-01   5.7333924e-01  -9.5621966e-01  -3.0113031e-01  -1.7371248e-01  -2.4907452e-01   3.6665493e-01   3.2796293e-01  -7.8566033e-01  -3.8258333e-01  -7.2318013e-01  -6.6527574e-01  -8.3202955e-01  -5.8322941e-01   9.1564016e-01   4.8710958e-01  -9.0224601e-01   8.2221878e-01   5.6988812e-01  -1.2337977e-04  -1.3534916e-01   1.7289468e-01   4.6981403e-01  -4.4635969e-01   6.3824358e-01  -8.5799013e-01  -5.3923262e-01  -7.0667494e-01  -9.0640328e-01   3.8224591e-01  -1.4853638e-01   7.0569601e-01  -6.6354643e-01   1.7696291e-02  -7.8486005e-01  -5.2600255e-01  -4.3923599e-02  -4.1890775e-01   3.8776836e-01   3.9534914e-01   6.6220990e-01   5.7106246e-01  -6.0355008e-01   1.1007198e-01  -5.0685688e-02   3.9144203e-01  -9.7065974e-01  -6.3063345e-01  -6.6955895e-02  -4.9819522e-01   9.7682262e-01   9.1081798e-01   6.7047221e-01  -2.1933913e-01  -4.9279466e-01   5.8999642e-02  -3.4541611e-01   9.4514603e-01  -1.1506786e-01   6.6624221e-01   6.7086375e-01   8.1261977e-01  -3.2566075e-01  -9.9580154e-01  -2.0524989e-01  -1.4536149e-01  -7.6022273e-01  -1.4623923e-01  -6.9080122e-01   8.2596598e-01  -7.9292704e-01   1.6459034e-01  -5.5242345e-02   5.9882414e-01   1.8602821e-01  -1.6561476e-01   2.1031187e-01  -5.2638257e-01   5.6546916e-01  -9.5878526e-01  -3.3577345e-02   4.4539999e-01   4.0691001e-01   3.6504404e-01   5.0747353e-01  -5.9814367e-01   6.7653588e-02   2.8147858e-01   5.2544948e-01   6.7452443e-01   9.5305571e-01  -7.3321524e-01   5.6819365e-01   1.9086073e-01   9.3223900e-01   4.8638859e-01  -5.4310466e-01  -7.9388715e-01  -2.5609612e-01  -9.2750841e-01   1.7690729e-01   9.1734910e-01   9.1706095e-02  -7.6683019e-01  -1.3976628e-01  -8.3160959e-02   6.0199554e-01  -7.9368142e-01  -5.9201261e-01   1.0998063e-01  -5.5525252e-01  -5.1247725e-01  -1.1984970e-01  -8.2432826e-01   8.1353127e-01   3.2151005e-01  -5.8158328e-01   1.5652872e-01   8.1825699e-03   7.3024882e-01   9.5348341e-01   5.3934420e-01  -1.4792165e-01  -1.9806057e-01   7.1601599e-01  -7.8418359e-01   8.0929807e-01  -1.0752704e-01  -6.2066596e-01  -4.1481937e-02  -1.1413917e-01   4.9534178e-01   4.9976064e-01   1.0070725e-01  -2.4433194e-01  -2.4865224e-02  -4.4611603e-01  -7.5462985e-01  -2.6955423e-01  -5.2765587e-01   9.4066131e-01  -1.9082637e-01   8.6574215e-01   1.8925231e-01  -3.8220312e-01   6.2666281e-01   9.9745856e-01   7.1593594e-01   5.9701055e-01  -4.5404654e-01   1.3754590e-01   6.8882290e-01  -7.8357979e-01   3.6574043e-01  -7.5184580e-01  -8.4984423e-01   4.0019802e-01   2.3083804e-01  -7.9638443e-01  -9.6235005e-02   3.9356820e-01   4.0306032e-01   7.7959263e-01   3.8255911e-01   7.0254687e-01  -5.3319293e-01  -3.3387373e-01   4.6943765e-01  -8.6843248e-01  -1.5315445e-01   1.9668045e-02   5.7054818e-01  -6.2441411e-01   1.5548951e-03   6.2804657e-01   3.3348123e-01  -7.4158172e-01   1.9485624e-01   3.2807053e-01  -8.7457919e-01  -1.3177874e-01   8.2729332e-02  -8.3963238e-01  -8.0421551e-01  -2.7524902e-01  -9.4079677e-01  -9.0545888e-01  -4.1519192e-01  -4.8537088e-01   4.1387152e-01  -4.2783627e-01   2.8322897e-01   9.1769043e-01   9.0970913e-01  -6.7960326e-01   4.9031121e-02  -2.4013114e-01   6.9247709e-01   7.3163869e-01   5.3388583e-01   7.9296106e-01  -3.7632290e-01  -3.3361147e-01  -9.3697263e-01   2.2039441e-01   5.8148522e-01   9.5707493e-01   1.6048003e-01   6.2890755e-01   6.0695407e-01   9.0134964e-01  -4.9306996e-01   7.0656111e-01  -1.7887305e-01  -1.5184891e-01   4.1521938e-01   8.2638312e-01   8.3707766e-01  -5.4685010e-02   4.5819098e-01  -2.5851479e-01   5.5923907e-01   6.0371898e-01   4.4946254e-01   5.9419261e-01  -7.7297701e-01  -2.3293806e-01  -5.1869441e-02   7.4799831e-02   3.0922662e-01   5.6091725e-01  -4.7600254e-01   1.5404666e-01  -6.6266455e-01   6.3023194e-01  -2.8424422e-01  -2.6180810e-01   3.4010558e-01   4.0931100e-01  -3.8947475e-01   5.3359362e-02  -5.8440310e-02   2.3006424e-01   3.9430329e-02  -2.4620771e-01   3.3645218e-01  -2.3297014e-01  -2.9143618e-01  -2.0188471e-01  -6.6166450e-01   2.7890550e-01  -1.4842586e-01  -3.0028039e-01   4.1991433e-01   2.9520467e-01  -7.2311696e-01   7.1416070e-01  -3.5898647e-01  -4.4743444e-01   9.9631926e-02  -7.1596334e-01   7.1827005e-01  -3.8069655e-01   7.2049727e-01  -3.3184658e-01  -2.9834427e-01  -1.0965114e-01   2.2727311e-01  -7.1738131e-01   7.1515222e-01  -8.7352343e-01   5.3229668e-01   1.9184399e-01   2.9661473e-01  -7.7217918e-01  -8.7590903e-01   7.1285777e-01   7.7819024e-01   8.4555558e-01   5.6121672e-01   4.3434067e-01  -1.8515054e-01  -9.0691533e-01  -7.1524052e-01   2.1163987e-01  -3.1914874e-01   5.9434133e-01   3.8822926e-01   2.5590542e-01  -3.5903277e-01  -7.7839447e-01   9.0574354e-01   3.2171680e-01   2.3501720e-01  -3.2352310e-01  -7.5220189e-01  -8.2157135e-01   2.2680221e-01   6.3221427e-01   3.8918094e-01  -3.2138145e-01   4.7001716e-01   4.8036556e-01   5.3543718e-01  -7.5993343e-01   9.6205935e-01  -1.3472220e-01   9.3481274e-01  -8.1560411e-01   5.4241958e-01   4.2613070e-01   8.3004073e-01   4.5960875e-01   3.4104210e-01  -9.5387420e-01  -4.9682460e-01  -3.1216107e-01   9.5964286e-01   4.6398258e-01   9.1213928e-01   7.4189124e-02  -7.0340513e-01   9.9534962e-01   1.3214832e-01   9.0217143e-01   6.8660683e-01  -3.8691596e-01   6.3749549e-01   7.4463931e-01  -6.6428692e-01  -9.5984466e-01   3.3293800e-01   8.7564386e-01  -8.0684117e-01   6.5087987e-01  -1.1814352e-02  -7.2621787e-02  -6.9931282e-01   2.7695775e-02  -5.2270667e-01   8.7722237e-01  -1.6761064e-01   6.1086631e-01  -7.9665996e-02  -7.1810592e-01  -5.3613607e-01  -7.0024724e-01   4.5619629e-01  -2.2482707e-01  -9.4543836e-01   7.6397455e-01   6.7220427e-01   6.3194451e-01   8.4883016e-01  -5.9925468e-01   1.9441086e-01  -5.4482906e-01  -8.9838772e-01   7.5775241e-01   4.1592031e-01  -2.6021513e-03  -1.1275142e-01   2.9038294e-02  -4.2694879e-01  -2.9833154e-01   4.1431866e-01  -2.4625530e-01   9.0208106e-01   4.9663640e-01  -7.8412196e-01  -4.6127711e-01   8.9302796e-01   2.5353551e-01  -5.9962925e-01  -8.8577634e-01   5.2074972e-01   8.2836044e-01   6.1653625e-02   5.5119057e-01  -5.2883366e-01   2.5911196e-01  -6.6671479e-01  -2.7217667e-01   6.8851052e-01   3.6875238e-01   4.9723225e-01   3.0392752e-01  -2.8267211e-01  -3.4072273e-01   9.5485227e-01  -9.2825942e-01   9.7447460e-01   9.8963302e-01  -1.5425696e-01  -9.4832984e-01  -8.0461775e-01  -7.1423623e-01   3.7848773e-01  -8.2796037e-01   9.8821252e-01   9.9109745e-01   6.5548659e-01  -3.9557335e-01  -8.8588154e-01  -4.3836327e-01  -5.2154582e-01   5.6607068e-01  -8.4590618e-01  -3.9383615e-02  -8.9554470e-01  -7.1800459e-01  -6.1350640e-02   2.4933738e-01   7.0437459e-01  -7.7706938e-01   9.8138795e-01  -9.2672092e-01  -3.3052780e-01   8.8425389e-01  -2.3158127e-02  -5.8949141e-03  -9.9690970e-01   8.0708147e-01  -1.9378688e-01   2.4567612e-01   5.4219986e-02  -8.0795857e-01  -8.5757224e-01   9.1599008e-01  -8.8853621e-02   7.4928395e-01
   6.6197156e-01  -3.4334769e-01  -3.7727211e-02  -6.8170866e-01  -9.7646948e-01   2.0493270e-01  -1.1254467e-01   8.1212688e-01   8.2707063e-01   3.6961454e-03   6.1400842e-02  -3.4605067e-01   4.5487363e-01  -7.5842187e-01  -8.7734599e-01   4.6538893e-01   6.5168810e-01   9.4376994e-01   5.4571619e-01   4.5976753e-01   7.2680375e-01   1.8607359e-02   5.5146120e-01  -5.1184690e-01   4.7120368e-01  -6.7954889e-02   2.4270548e-01   2.9384645e-02   3.4262398e-01  -7.9872455e-01  -3.1881220e-01   7.3427766e-01   6.0010627e-02   9.9835610e-01  -9.2023583e-01   5.0637850e-01  -4.6451715e-01   1.1067068e-01   8.7857245e-01  -4.7718218e-01  -9.9319869e-01   3.8182636e-01   8.7117588e-01   9.9390266e-01   2.7964800e-01  -2.5239480e-01  -9.5081592e-02  -3.9502958e-01   6.0851388e-01  -4.0482388e-01  -8.4413219e-01   8.9087301e-01   3.5030694e-01  -6.5973753e-01   4.7985990e-01  -9.5713924e-01  -5.4296517e-01  -8.5955311e-01   4.6734148e-01   5.4307158e-01  -4.8826922e-01  -1.8181267e-01  -1.7682365e-01   8.5897477e-01  -3.3753096e-01   3.3118227e-01  -1.6295602e-02  -4.3109351e-01  -8.2443097e-01  -2.6043070e-01   2.8872312e-01   1.7148466e-01   3.6251601e-01   1.2988133e-01   6.2112661e-01   3.4985990e-01  -4.4958784e-02   4.2814599e-01   7.6680694e-01   4.4029930e-01   8.7170220e-01   6.4387614e-01   7.1461781e-02  -4.1716200e-01   3.2784166e-01   7.7903276e-01  -6.4487549e-01  -9.8746522e-01  -3.7823303e-01  -2.3288569e-01  -2.8972547e-01   5.9539049e-01  -7.3267481e-01  -2.9234788e-01   8.9939587e-01  -7.0392081e-01  -4.5307009e-01   9.9644131e-01  -7.8104595e-03   1.5962875e-01  -6.0809906e-01   1.5702536e-01   4.9794636e-01   4.6073495e-01  -4.3906163e-01   3.4420064e-01   8.6644206e-01   1.0777638e-01  -3.3713738e-01  -1.0662833e-02   8.6402480e-01   4.0415655e-01   6.1899794e-01   2.0066056e-01   3.0601095e-02   8.1196553e-01   6.8186163e-01   5.5737695e-01  -5.8131803e-03   1.6093893e-01   6.9082701e-02  -3.7179519e-01   6.4398040e-01  -6.1316805e-01   4.4842261e-02   5.5336666e-01   7.1159595e-01   2.1963681e-01   4.0493537e-01  -3.6104994e-01   7.2465603e-01   9.3099601e-01  -6.7211911e-01   8.5726662e-01  -6.0343563e-01   5.2230014e-01  -4.4247295e-01  -5.3322526e-03   9.6295242e-01  -1.1612065e-01   5.4354010e-01   1.2710755e-01   1.8747837e-01   4.6434528e-02  -8.7994674e-01   8.3133122e-01   2.8183109e-01  -2.6141626e-01   1.0725556e-01  -6.1710131e-01  -2.7028138e-01   7.9904785e-01  -7.0567128e-01   9.8407037e-05  -8.2261986e-01   7.2578791e-02  -2.8430092e-01  -3.8202964e-01  -3.3075979e-01   4.7813425e-01   8.0990835e-02  -1.7027928e-01   2.8310612e-01   6.7953844e-01  -4.5840977e-01  -2.4092764e-02   5.2654051e-02   5.4062824e-01   6.5366295e-01  -3.0510751e-01  -4.0681653e-02  -4.6624026e-01  -5.0146841e-01  -4.9828976e-01   4.9305746e-01  -5.3429287e-01  -9.9413833e-02   1.9259111e-01  -7.4854175e-02   6.8013077e-01   6.0282102e-03  -2.3034949e-01  -2.3426568e-02  -7.0585356e-01  -8.3160265e-01   8.9141634e-01  -7.8796285e-02  -9.9835709e-01   9.9543522e-01  -5.7160252e-01   5.9394466e-01   4.9753653e-01   7.1089315e-01  -9.1240127e-01  -5.0668896e-01  -2.3317892e-01  -7.2770583e-01  -4.7367751e-01  -3.6054365e-01   2.3578874e-01   2.7699247e-01  -1.6808800e-01  -4.8879357e-01   2.6002528e-01   3.7047583e-01   1.3165468e-01   1.6100547e-01  -2.6576045e-01  -5.2715684e-01   9.0738770e-01   8.3753831e-01  -7.0723612e-01   5.0355703e-01   2.7263054e-01   3.2416553e-01   1.9248417e-02   7.6354857e-01   9.0650960e-01   4.9098268e-01  -6.1072728e-01  -6.0227409e-01   1.7620110e-01   6.5721132e-01  -2.9191136e-01   1.5284275e-01  -6.5676754e-01  -3.9686144e-01  -1.8716578e-01  -3.0564880e-01   6.6051649e-01  -3.9860669e-01   5.6838821e-01   3.7295041e-01   1.6684390e-01   8.3226949e-01  -3.5098886e-02  -7.2612714e-01  -1.1055517e-01   8.9782964e-01  -8.2880853e-02  -2.5953900e-01   6.6869983e-01  -7.4222152e-02  -4.0804077e-01  -7.2832695e-01  -9.7666221e-01  -5.6613558e-01  -6.2452811e-01  -2.3167553e-01   7.4021021e-01   6.0658867e-01   9.0583921e-01  -8.1681709e-01  -8.6167241e-01  -7.6024818e-02  -4.2515472e-01   8.7492847e-01   5.6114784e-01  -5.4789908e-01   3.9356806e-01   7.9603768e-01   7.0206835e-01  -5.6757990e-01  -9.4645053e-01   5.9598218e-01   6.5202369e-02  -8.7128497e-01   2.6222858e-01   3.4622600e-01   3.6984997e-01  -8.2592947e-01   1.0517309e-01  -3.8025688e-01  -3.2263756e-01  -8.3082030e-01   2.3024713e-02  -9.4241329e-01   6.3394022e-01   7.2900319e-01   3.9207985e-01   7.5660966e-01  -7.9608484e-01   3.8112894e-01  -1.2062621e-01  -6.3007118e-01  -6.8075271e-01  -6.4121907e-01   6.5835705e-01  -7.0399400e-01   2.1933950e-01   2.8859512e-01  -3.2851209e-01  -3.8478783e-01   2.5598191e-01   6.8411404e-01   9.9380878e-01   2.0379708e-01  -9.3629114e-02  -7.4221092e-01   4.9369050e-02  -2.6970568e-01   4.4402027e-02   5.5063659e-01  -5.9233347e-01  -8.8334738e-02  -8.4726643e-01   7.2421502e-01   5.9975711e-01   8.9551699e-01  -7.1137449e-01   1.1387560e-01   2.2137236e-01   7.3982752e-01  -8.5732891e-01  -1.2674149e-01   5.5421556e-01  -9.1322760e-01   5.6130421e-01   9.6180980e-02  -3.4648081e-01  -8.4785701e-01   3.0341888e-01  -3.4908004e-01  -5.6274827e-01  -1.0077797e-01   7.0449971e-01   3.4355461e-01   8.7963057e-01   3.1728243e-01   1.3105848e-01   1.7165392e-02   7.2774312e-01  -8.2511470e-01  -6.0663709e-01  -9.2255269e-01  -8.2773758e-01  -8.5305127e-01   2.9080273e-01   5.4956138e-02   8.0184858e-01   5.8474593e-01  -7.0519076e-01   5.0662422e-02   4.5890986e-01   5.7228954e-01   5.6122221e-01   2.8392684e-01   9.2142584e-01   1.5876495e-01  -2.7065770e-01   3.1330916e-01  -5.7427213e-01  -6.3143302e-01   1.9729516e-02   6.2883357e-01   8.7370849e-01   6.8262798e-02   6.9532126e-01   7.1541959e-01  -3.1346217e-01  -6.3572716e-02  -4.8975924e-01   6.8882469e-01  -3.0530190e-01  -1.4583396e-01   6.4696462e-01   7.2763538e-01   8.4308782e-01   8.5142592e-01  -5.0105970e-01   7.3075087e-01  -4.4398296e-01  -8.5265262e-01  -8.0998802e-01   1.9958122e-01   8.8006443e-01   8.8166588e-01  -1.2129877e-01   7.1938340e-01  -5.8175737e-01  -8.9210333e-01  -3.4757636e-01  -8.2018020e-01  -5.0250437e-01  -9.0847338e-01   5.3858559e-01   8.4606305e-02  -9.4409055e-01   1.4635292e-01   4.8136440e-01  -1.0162043e-01   4.4393882e-01  -4.9484270e-01   9.1142517e-01  -9.5726172e-01   8.7978127e-01   5.1170539e-02  -8.6842917e-01  -2.7281079e-01   8.5443453e-02  -3.1603931e-01  -4.6999163e-01   3.8246719e-01  -7.2645785e-01  -6.2759818e-01   9.8540327e-01   2.4909400e-01   5.7658965e-01   5.4555334e-01   5.0877272e-01   1.9374554e-01   3.3171694e-02  -3.1270417e-01  -7.6297773e-01  -4.0819976e-01  -4.7047013e-01   2.8017411e-01   7.4703987e-01  -7.6810850e-01   9.7530577e-01  -8.4535379e-01  -9.3228860e-01  -5.0825023e-01   8.7840908e-01  -2.8481287e-03   2.5265800e-01   8.6611909e-01   2.0794848e-01  -2.3118821e-01  -6.8581903e-01   1.2883812e-02   3.7564884e-02   1.7164895e-01  -5.6983202e-01   9.0822495e-01  -9.2014293e-01   5.0192981e-01  -9.5914084e-01  -2.6514081e-01  -4.2620295e-01   3.6518120e-01   3.7007440e-01   5.7080018e-01   6.2134495e-02  -4.1735181e-01   2.3917379e-02  -5.5643335e-01   9.8876715e-01  -8.4434022e-01   5.4033711e-01   3.0072896e-01  -2.7332580e-01   1.1190346e-04  -4.3819086e-01   4.5390724e-01   4.8213778e-01  -4.5793191e-01  -6.0476599e-01   1.2555157e-02  -6.6935268e-01  -7.9618827e-01   8.8517575e-01   8.5520421e-01   9.2792512e-01   2.1359209e-02  -9.3115190e-01   8.9001153e-01   6.4223322e-01  -5.1139634e-01   7.6636855e-01   4.9702691e-01   6.8731958e-01  -2.8930100e-01  -1.0585667e-01   6.9414392e-01  -7.6082129e-01   2.4557511e-04   1.0173748e-01   6.2528860e-01  -4.9440178e-02  -1.0696317e-01  -6.3834764e-01   5.5339825e-02  -6.1473758e-01  -9.5157554e-02   6.9402198e-01   3.2584236e-01  -7.6827679e-01   8.6473254e-01  -4.5958752e-01   1.8081356e-01  -8.9493222e-01  -1.4653290e-02   9.6366495e-01  -7.9134927e-01   8.5497855e-01   4.8586176e-01  -4.9799251e-01  -6.8596460e-01   7.8857273e-01  -5.8997330e-01   5.4935323e-01   4.7022120e-01   8.7391964e-01  -4.4095636e-01  -3.3425924e-01  -9.9628370e-02   6.1105354e-01   7.8943377e-01  -4.9413927e-01  -4.9018155e-01  -8.7718068e-01   6.9695534e-01  -3.4642474e-01  -8.5416475e-01   9.1749836e-01   2.2709963e-02  -5.2239973e-01   1.3269445e-01  -7.5176053e-01   8.3694828e-01  -2.3638740e-01   4.9614037e-01   4.2967532e-01  -1.5410251e-01  -8.2204414e-01   5.4760760e-01  -6.1927102e-01  -2.9415112e-01  -4.7478957e-01   2.2823234e-01  -7.7904374e-02  -2.9860913e-01   7.9731252e-01   8.5247387e-02   2.0178255e-01  -8.6512262e-01  -6.9477778e-01  -1.4015052e-01  -5.9035606e-02   4.7857926e-01  -4.5938530e-02  -2.3701155e-01  -6.2839858e-01  -1.6509050e-01   5.4945166e-01   6.3526833e-01   5.1092662e-01   2.9397859e-01  -7.5940944e-01   2.9719547e-01  -3.1633138e-01  -1.7374951e-01   6.2110479e-01  -5.9892372e-01   7.3727954e-01  -1.3837197e-01   2.4894745e-01   2.0238152e-01  -6.0438387e-01  -1.0731006e-02   9.5201841e-01   7.8685880e-01  -6.0802500e-01  -4.6793187e-01   8.7895063e-01   7.4245572e-01   2.6786405e-01   2.6523582e-01  -9.8262199e-02  -8.3896395e-01   9.4189478e-01  -5.1428664e-01  -1.7420784e-01   7.5108608e-01   7.6850478e-01  -3.2374988e-02   1.1963109e-01  -5.9998278e-01  -3.9203810e-01   6.3812766e-01  -3.4688267e-01  -2.0217826e-01   2.1215866e-01  -4.5286101e-01  -1.8024998e-01   5.7523281e-01   6.1766295e-01   4.5876332e-01  -7.9280808e-01   6.5193754e-01  -1.8633241e-01   3.7787941e-01   2.8417334e-01   5.7744320e-01  -6.5351226e-02  -4.1616382e-01   7.9610812e-01  -9.5086768e-01   1.3759882e-01   5.4268747e-01   6.8446789e-01   2.6631111e-01   4.4675864e-01  -9.0867525e-01   5.6539063e-01  -6.6872433e-02  -5.6676675e-01  -1.0039267e-01   6.5480824e-01  -1.6407153e-01  -1.6612277e-01   6.0535726e-01   4.3607922e-01  -7.0961490e-01  -4.0566270e-01  -7.0065713e-01  -1.8005825e-01   6.7201290e-01  -5.4858608e-01  -5.6483800e-01  -4.4985507e-01  -8.2146728e-01   5.8966188e-01   7.9389075e-01   9.2361399e-02  -8.9031002e-01  -5.2723642e-01  -1.1301058e-01   6.3761879e-01   7.6857229e-01  -3.4837033e-01   9.1291698e-01   4.1705224e-01  -5.8920814e-01   1.0267429e-01  -7.3821576e-01  -2.0999041e-01  -5.4226039e-01  -8.5028218e-01   7.6711777e-01   2.7201169e-01  -5.4007519e-01   9.7937228e-01   5.1268323e-01   7.0668494e-02   9.8055745e-01   5.7075561e-01  -1.2960638e-01  -7.2751856e-02  -7.0084024e-01  -5.9106288e-01   2.0301695e-01   2.6643120e-01   5.8979088e-01   2.9994958e-01   8.0623017e-01   4.1597819e-01   4.8476258e-01  -3.6457161e-01   8.8547887e-01   6.5563240e-01  -7.4078639e-01   2.6212241e-01  -1.2772287e-01   1.8084067e-01  -9.9841709e-01  -2.0020915e-01  -7.2437532e-01  -6.4909616e-01  -1.0310546e-01   6.5265435e-01  -6.5637609e-01  -9.1437030e-01   2.2063374e-01   6.9599296e-01  -4.7135233e-01  -2.1155950e-01   5.3408919e-01   8.2838233e-01  -4.0779639e-01   6.5448598e-01   4.8676454e-01  -5.7048251e-01   3.6048281e-01   5.7361878e-01   9.4895323e-01   7.3503152e-01  -5.2265814e-02  -1.5726103e-01  -3.6996834e-01   1.0048420e-01   3.7508819e-01   2.5330474e-01   3.4456840e-01  -8.2822796e-01   2.2844887e-01   4.3178299e-01  -1.7752931e-01   6.7944592e-01  -9.2571237e-01  -5.8682370e-01   2.6586471e-01  -9.4535161e-01  -7.2953450e-01  -6.7903045e-02  -1.9065375e-01   1.6664182e-01   8.2338889e-01  -2.3437784e-01  -1.2393481e-01   2.4325472e-01   3.7304091e-01  -5.0966153e-01  -7.5266751e-01   3.2130333e-01  -8.9879762e-01  -6.9616223e-01  -5.6337830e-01  -5.5396068e-01  -2.6607658e-01   8.8357448e-01   3.6266775e-01   1.0065078e-01  -3.1009380e-01   9.8580125e-01  -4.4941914e-01  -2.9261622e-01  -3.5883709e-01   6.9204117e-01   3.2912439e-01   5.7212586e-01   4.0259569e-01   6.5865070e-01  -1.0301352e-01   2.1744900e-01   8.9745651e-01   9.1282145e-01   1.9268814e-01   5.4508381e-01   1.6612915e-01  -9.0221383e-01  -3.3717038e-01  -7.6135831e-01   2.8934014e-01   1.4815877e-01   4.7204064e-02   1.1040027e-02  -3.9943526e-01  -2.4883284e-01   6.1200681e-01   5.7845502e-01  -2.7093212e-01   1.5227480e-01   9.3368970e-01   2.8225922e-01  -3.3438267e-01  -9.9229522e-01   2.4906979e-01   9.1837741e-01   4.4957599e-01  -1.7912826e-01   6.5237842e-01   6.3644003e-01   3.7207102e-01  -3.8543358e-01  -5.9029816e-01   9.1271192e-01  -5.9393522e-01  -6.6267626e-01  -2.9326069e-01  -1.8755830e-01  -3.0245187e-01   4.6188016e-01  -5.6860225e-02   8.0638924e-01  -4.0904962e-01  -5.8218924e-01  -4.0487647e-01   5.1968848e-01  -4.7958398e-01   9.2824720e-01   8.5819534e-01   1.4202444e-01   5.3261021e-01   7.7061099e-01   7.1135972e-01   9.7229893e-02   3.2562151e-01   2.7981254e-01   8.5260551e-01  -3.7517007e-01   5.5917602e-01  -2.7993073e-01   8.3090409e-01  -4.3000842e-01   9.2544115e-01  -4.9880677e-01  -7.9098755e-01   7.7434179e-01  -8.3693763e-01   7.3130552e-01   6.5766869e-01  -1.2322761e-01   7.3289204e-01  -5.0373794e-01  -3.5547823e-01   5.1976256e-01  -5.3920978e-01   6.0640677e-01  -7.5440912e-01   9.6654807e-01  -9.6769005e-01   6.3128782e-01   1.3230354e-02   7.2255548e-01   3.5749687e-01  -1.9893428e-01   7.7902874e-01   1.9179216e-01   3.6936889e-01  -7.8778585e-03   1.1108889e-01  -1.0069598e-01   7.1552210e-02  -1.1471693e-01   6.8797321e-02  -5.4502247e-01  -5.8648821e-01   2.1851893e-01  -2.1511264e-01   1.1269121e-01  -3.8212019e-01   9.7051134e-01  -4.0704338e-01   9.9196732e-01  -2.4871646e-01   9.6545672e-01   6.4478780e-01  -4.1354035e-01   5.4624651e-01  -7.9213990e-01  -8.9504899e-01   8.9557430e-01  -4.3579789e-01  -9.4405807e-01   6.3454892e-01  -4.1785841e-01   9.7605743e-01   2.0250047e-01  -2.7589928e-02   7.0927129e-02  -6.3712089e-01   5.4355645e-01   7.7887053e-01   6.1467036e-01  -2.2558325e-01  -2.4089519e-01  -7.8917577e-01  -1.3097018e-01  -4.9255472e-01  -4.4639435e-01   9.4777748e-01   4.7227496e-01   4.6680832e-01   5.5468772e-02  -7.3458560e-01   4.8331519e-01  -1.0147238e-01  -1.7053335e-01  -1.3679701e-01  -4.4598516e-01  -1.8295135e-01  -7.2417547e-01  -5.2748456e-01   1.3008788e-01   8.1953956e-02  -8.1298218e-01   2.0263758e-02   9.7417916e-01   3.1778985e-01  -7.3167191e-01   2.3026119e-01   5.4876953e-01   6.7030524e-02  -4.1119941e-01  -6.0814587e-01   3.7565621e-01  -6.1512237e-02   8.4938398e-01  -5.1961988e-01   4.6888087e-01   3.6682174e-01   5.1721693e-02  -8.2751808e-01   2.7245705e-01  -6.5762143e-01  -8.3369612e-01   4.5959685e-01   5.9027192e-01   4.9595620e-01  -9.0260338e-01   3.2430676e-01   2.5091767e-01  -1.9845732e-01   3.6861536e-02  -1.4884174e-01  -6.8654911e-02  -1.3881023e-02   9.6312991e-01  -6.1362226e-02   7.7337369e-01  -5.2698093e-01   6.0300929e-01   9.3579272e-01   3.8443423e-01  -2.4600256e-01  -7.1873085e-01  -9.4687192e-01  -8.7442517e-01  -2.9114986e-01  -6.1577537e-01   1.9450509e-01   1.9079379e-01  -9.8230419e-01  -9.4946945e-01  -4.8961701e-01   8.1848123e-01  -4.2490025e-01  -1.2087035e-01   8.0269564e-02   8.9962109e-01  -1.6067800e-01   7.5634214e-01  -6.3382828e-01   8.9758613e-01   4.9439516e-01   4.0372588e-01   9.5777798e-02   1.1202848e-01   3.3275522e-01  -8.7102344e-01  -9.6152649e-01   5.5702550e-01  -2.8182300e-01  -4.0103795e-01   3.2422977e-01   7.3292253e-01  -3.3340297e-01   4.0665494e-01  -7.9177101e-01  -8.7053902e-01   8.9922138e-01   2.0787472e-01  -8.7510608e-01   8.5790920e-01   6.9128537e-01  -6.6198970e-01  -9.9128602e-01  -6.3746943e-02  -2.9268904e-01   5.7405107e-01  -2.1455760e-01  -1.7781713e-01   3.9380772e-01  -2.8575089e-02  -4.3242060e-01  -7.5709432e-01  -8.7085364e-01   5.3584681e-01  -3.3777167e-01  -9.7540548e-01   7.1117253e-01  -3.2179706e-01  -1.5799726e-01  -7.9821670e-01  -7.1810771e-01  -9.6355534e-01  -8.0286028e-01  -4.1191538e-01  -1.3009798e-01   6.8840278e-01   8.1572173e-01  -3.8764437e-02   5.2535398e-01  -4.8582300e-01  -4.8579122e-01  -3.4029669e-01  -7.8894614e-01   3.2406611e-02   1.4070427e-02  -7.2921386e-01  -5.9729044e-01   5.2845712e-01   4.7869061e-01   4.2415882e-01   3.4928630e-01  -6.7846057e-01   1.0486922e-01  -4.1474305e-01
   6.4688626e-02  -7.8619785e-01  -8.8953337e-01   2.8559554e-01  -5.9337666e-01   8.2846758e-01   3.6127420e-01  -7.2661943e-01   6.6720770e-01   8.4797718e-01  -3.8274732e-01   5.9424135e-01   1.9475361e-01   5.0372137e-01   7.3036471e-01   7.6870037e-02   8.5792520e-01  -7.4412268e-01  -6.6627965e-01  -1.5404662e-01   2.9658179e-01  -4.8179727e-03   9.9042193e-01   4.5960044e-01   7.6540546e-01  -3.1460335e-01   5.9835841e-01   4.5739237e-01   9.4260314e-01  -8.1826222e-01  -9.9560702e-01   9.5218081e-01   8.7527199e-02   1.2341682e-01   6.9059365e-01  -8.9726482e-01   4.1749171e-01   4.2318032e-01  -7.4656698e-02  -3.6955563e-01   3.4625424e-01   6.9969845e-01  -1.2339785e-01   8.3059647e-01  -1.9475087e-01  -9.7401326e-02  -9.1026442e-02   2.1650656e-01   8.1768274e-02   8.3066124e-01   4.3068652e-01  -5.3463809e-01   2.2075596e-01  -9.0984429e-02  -3.7784940e-02  -2.0159008e-01  -5.6648126e-01  -7.3532332e-01   2.1224137e-01   9.7057118e-02   2.6320556e-01   6.8240351e-01   3.0171285e-01  -1.0730467e-01   1.1032739e-01  -9.7795520e-01  -6.0383123e-01  -3.2401322e-01  -5.3201918e-01  -9.3258947e-01  -7.3765435e-01  -4.5010166e-02  -8.2746037e-01   4.8543136e-02  -4.3950888e-01  -5.6111156e-01  -7.4119385e-01  -6.1769346e-01   8.1586077e-01  -5.8949063e-01  -9.1727013e-01   4.3901948e-01   1.5215789e-01   2.1213861e-01   8.7937527e-01   3.6910052e-01   4.0319609e-01  -3.6424472e-01  -2.3346111e-02  -6.2962567e-01   5.7175941e-01   8.3017745e-01  -2.3598555e-01   6.9763203e-01   9.6747802e-01   2.7768526e-01   8.6148312e-01  -1.6855251e-01   8.1362128e-01   1.7630611e-01  -4.7589102e-01   8.4551123e-02   5.3817618e-01   3.0974277e-01   1.2193786e-01  -2.6245010e-01  -1.5379784e-01  -1.9441206e-01  -8.7011852e-02  -3.4924468e-01  -1.8505259e-02  -2.6433265e-01  -1.9536010e-02  -5.1591753e-01  -2.1214211e-01   1.9443398e-01  -5.4561534e-01   4.7549682e-02  -9.8729301e-01   5.1827948e-01  -9.1477258e-01  -2.8122971e-02   2.8699541e-01   5.2862264e-01  -4.6426693e-01   4.4453771e-01   8.1495770e-01   1.0487509e-01  -8.1805178e-01  -4.0908877e-01  -8.3953485e-01  -2.8455889e-01   7.3869325e-01  -9.4210571e-01   3.4902601e-03  -4.2387593e-01   7.4633657e-01   3.1889987e-01   1.6394585e-01  -7.2846524e-01  -2.8283834e-01   2.0964532e-01  -1.1055436e-01   8.1912641e-01   4.4495218e-01  -8.4095880e-01   5.9993453e-01   4.8745461e-01  -4.3983678e-02   8.7439191e-01  -1.2648190e-01   3.9362566e-01  -6.9648999e-01   2.2669653e-01   6.1358221e-01  -6.6942207e-01   8.7336899e-01   1.4882593e-01   4.9927892e-01  -5.0947327e-02  -6.9806319e-01  -2.9402499e-01   5.0085990e-01   1.3619709e-01  -1.7084671e-01   1.4778263e-01   6.6357517e-01   2.3307843e-01   8.0360630e-01   1.3366198e-01  -3.2661814e-01   1.5323097e-01  -3.2129943e-01  -8.8972684e-01   4.2885781e-01   8.0694984e-01   9.6624002e-01   7.3970820e-01  -5.9212200e-01   1.0450920e-01  -3.1513777e-01  -7.1510932e-01  -5.8725462e-01  -4.7271436e-01   5.6698583e-01  -9.3453970e-01   7.4351050e-01  -2.7912147e-01   8.2469173e-01  -3.2774245e-01  -2.5855872e-01  -6.2703723e-01  -1.5964543e-01  -8.4409212e-02  -6.4889837e-01   8.2703534e-01   3.4071417e-01  -4.7298544e-01   1.3755610e-01   1.3551266e-01   2.5149943e-01  -3.6225282e-02   8.7896837e-01  -5.5304745e-01   6.7493512e-01   2.6964867e-01   6.4960285e-01   5.3764135e-01   6.7692535e-01  -3.4071548e-01  -2.8988063e-01   9.3761889e-01  -2.2829416e-01  -3.8621231e-01  -9.9486213e-01   4.8606302e-01  -9.2096602e-01   7.4633665e-01   8.7794056e-01   4.5041540e-01  -6.8216661e-02  -1.1294874e-01   6.2198319e-01  -4.5853484e-01   2.4827925e-01  -1.6362781e-02  -1.7704134e-01  -9.4204175e-01   2.8350833e-01  -5.0105247e-02   5.4874464e-01  -2.6470885e-01  -5.1340156e-02   5.8198424e-01   3.2045634e-01   7.2428249e-01  -3.9710536e-01   5.7052467e-01  -3.9582823e-01  -6.8926440e-01   4.8015147e-01  -9.8650055e-01  -5.9880186e-01  -6.3245253e-01   4.0100806e-01  -8.8383096e-01   5.7762961e-01   7.1489101e-01   7.8340553e-01   8.6582881e-01  -3.4004358e-01  -8.2668644e-01   7.1065202e-01  -3.5871169e-01   7.5737337e-01  -7.0614530e-01   3.5981992e-01   7.6518476e-01   7.5776267e-01  -7.1405800e-01   9.7552814e-01   2.9112352e-01   8.9143526e-01   2.6307796e-02  -8.5092151e-01   3.3908942e-01   5.3962247e-01   3.3184245e-01   9.8542168e-01  -1.9935556e-02   1.5959616e-01   4.7096484e-01   7.2932489e-01  -3.9126915e-02   8.9107352e-01   3.3982029e-01   2.2535389e-01   4.7329785e-01  -9.6742562e-01  -1.1589436e-01   9.3922319e-01   5.4794966e-01   4.5453042e-01  -2.9407310e-01  -2.4542578e-01  -3.4233180e-01  -2.5976108e-01   7.8729468e-01  -4.5209115e-01  -3.8127117e-01   7.1502912e-01  -6.1140637e-01   2.4199931e-01  -9.2495800e-02   4.9507709e-01   1.7061614e-01  -9.7068517e-01  -5.7103690e-01   1.6304209e-02   2.4675303e-01   6.6335408e-01   8.9585130e-01   1.7100339e-01   5.4673711e-01   9.4297330e-01  -6.8006138e-01   7.4320483e-02   2.2772608e-01   8.8184631e-01  -4.7337212e-01  -4.5598680e-01   5.1039579e-01   1.3044070e-01  -3.8234388e-01   5.6684856e-01   8.1364381e-01   9.4750379e-01  -6.8593003e-01   8.7207040e-01  -2.3328456e-01   8.0773476e-01   7.5403065e-01  -1.1626896e-02  -3.2336826e-01   5.5179103e-01  -5.2371731e-01  -2.6931431e-01  -1.5107487e-01   6.0002006e-01   5.0626011e-01  -1.4990423e-01   3.4126651e-01  -8.6586128e-01   2.5089525e-01  -3.4412889e-01  -1.2461335e-01   6.7810932e-01   4.8836023e-01  -4.9722593e-01  -1.8587723e-01   4.6886052e-01   5.4025970e-01   6.0063385e-01  -1.1558870e-01  -3.3579756e-01   6.5394063e-01   3.3542672e-01   7.3473307e-01  -8.4956764e-01  -1.7709193e-01  -9.0934020e-01  -3.2490757e-01  -9.4437462e-01   4.2646652e-01  -9.7237728e-01   2.7377702e-01   8.7168715e-01  -1.6794560e-01  -4.0446305e-01   4.8975616e-01   1.5261095e-01  -9.4503020e-01   9.2812001e-02  -3.5778699e-01   3.0710608e-02   3.1848727e-01   2.6897152e-01   3.0226465e-01   8.0276591e-01   5.0482145e-01   8.9333308e-01  -5.8555029e-01  -6.5585216e-01   3.0314439e-01   6.1022067e-01  -6.3702779e-02   2.0124649e-01  -6.3677250e-01   3.9850505e-01  -1.8804130e-02  -8.5126332e-01  -4.6937987e-01   6.3000748e-01   5.9212068e-01  -8.6825402e-01  -8.4936257e-01  -6.2811536e-01  -4.0305986e-01  -2.2527669e-01  -5.5725490e-01   5.1247206e-01  -3.3635588e-01  -6.4638982e-01   2.1840215e-01  -6.5727574e-01   8.0595155e-01   5.5793665e-01  -3.6079294e-02   6.4504149e-01   7.6277683e-02  -5.0661393e-01  -1.3559317e-01   9.5177432e-01  -3.8315576e-01   4.7631683e-01   5.5986358e-01   8.1307984e-02   6.1563253e-01  -5.9417009e-02  -8.3118864e-01   5.5135936e-01  -7.9422217e-01   4.5145952e-01   7.2554634e-01   7.4286658e-01   8.2134410e-01  -5.8601819e-01   2.5212095e-01   4.9771839e-03  -3.3763136e-01   9.5349142e-01   1.6059888e-01  -5.2829778e-01  -4.2527893e-01  -5.1434662e-01   1.8015532e-01   6.2263985e-01   5.2217520e-01  -6.1809845e-01   7.4171556e-01   8.1661576e-01   3.8171147e-01  -1.5988678e-01  -9.4455466e-01   3.4274473e-01   5.6721011e-01  -9.1912876e-01  -3.6938818e-01  -7.8544805e-01   2.2312670e-01  -6.4736435e-01   2.2652177e-01  -5.6257805e-01   1.5699718e-01  -9.2170226e-01   9.0875921e-01   8.5174868e-02   1.6079655e-02   4.6472824e-01   3.7304844e-02   5.1104038e-01   4.6256044e-01  -6.6031185e-02  -7.8695757e-01  -4.1794634e-01   3.6644483e-02   7.0230785e-01   2.2316537e-02  -9.9548972e-01  -7.6923473e-01   9.7360786e-01   4.7350191e-01  -6.5296477e-01  -3.3295863e-01   8.5286741e-01   4.8688011e-01   6.2073410e-02   1.4268506e-01   3.2983285e-02  -3.4465324e-01   5.1622425e-02  -5.8208147e-01   4.7598113e-01   4.8881707e-01  -5.3218331e-01   1.1201657e-01   9.4445726e-01   4.7940608e-01  -3.0592128e-01  -5.9759091e-01   9.2070113e-01  -5.6313923e-01   7.8401387e-01  -5.5887908e-01   1.5577188e-01   7.8073342e-01   3.1885554e-01  -7.2137262e-01   5.3854582e-01  -3.7058980e-01  -5.4760990e-01   4.5480511e-01  -9.8297299e-01   7.7387585e-01   2.5405135e-01   1.1014319e-01  -9.7594493e-01   8.1985555e-01   4.6121770e-01   5.1332562e-01   5.4878563e-01   4.1288767e-02  -4.3059206e-01  -7.5200142e-01  -6.1930998e-01   8.4407337e-01   7.7052678e-01   3.1694484e-01  -9.0454039e-01  -7.0133725e-01   9.6147128e-01  -9.0593835e-01  -2.4620983e-01  -4.1110785e-01  -6.9300231e-01  -7.9092217e-02   4.7353169e-01  -7.1299221e-01  -8.4668553e-01   2.9736330e-01  -8.4864015e-01   4.0014641e-01   1.7154375e-01  -2.7068335e-01  -6.8535683e-01  -4.4020584e-01  -4.8123033e-01  -4.0444939e-01   8.8817415e-01   5.7433000e-01   5.5656999e-01   6.2237558e-01  -4.6293580e-01  -5.9862602e-01  -6.5205083e-01   8.2849869e-01   6.3888890e-01   9.8853150e-01   8.0084982e-01  -9.6714128e-01   1.1500049e-01   3.4145086e-01   6.6939599e-01  -5.8411182e-01  -6.2675734e-01  -2.2071044e-01  -6.3566807e-02  -9.4931846e-01  -7.9763080e-01  -1.9748735e-01  -7.4932816e-01   5.1490707e-01   1.1301864e-01   7.7390156e-01  -9.9075687e-02  -9.5054592e-01  -4.4341520e-01  -6.0676974e-01  -4.1512500e-01  -1.7785940e-01   5.4923298e-01  -6.8433442e-01  -2.0799898e-01   2.1505489e-01   3.7417614e-01   1.9679371e-01  -1.0550666e-01   7.3739055e-01  -7.4310431e-01   2.4886821e-01   1.8804409e-01  -2.5878391e-03  -6.3814773e-01   4.1532547e-01   2.7143868e-01  -3.7866009e-02   5.2794261e-02   4.3098613e-01   3.9497562e-02  -9.6874427e-01  -1.8619937e-02   7.4857621e-01  -3.3381525e-01   9.4540784e-01   8.7833869e-01   8.3525020e-01  -2.9329432e-01  -4.2104508e-01   8.8791640e-01   8.1501383e-02   9.6269518e-01  -4.0747486e-01  -7.5524523e-01  -7.2098300e-01  -7.9841403e-01   6.1011195e-01  -3.5335683e-01  -5.8712369e-01  -2.2019308e-01   7.0062806e-01   8.7684090e-01   1.0378877e-01  -1.3325166e-01  -6.7850064e-01   1.8943407e-01   7.1777638e-01   7.3489274e-01  -1.6806272e-01  -7.8601667e-01  -4.9857497e-01  -2.4339051e-01   9.1106516e-01  -1.5753322e-01  -2.0820482e-01   1.4166200e-01   5.2857022e-01   4.4667640e-02  -1.6837640e-01   1.6189012e-01  -6.5530801e-01  -2.2908931e-01  -7.4510475e-01  -5.5362898e-01  -2.7338762e-01   2.0977686e-01  -9.2393382e-01  -7.9417286e-01  -7.1497119e-01   1.0157278e-02   5.6648791e-01   4.6205538e-01  -9.9338651e-01  -5.2017694e-01  -3.9505305e-01  -1.0200505e-01  -9.9733502e-01  -3.9276968e-01   3.2905801e-01  -1.9538287e-01   7.5701000e-01   3.5922794e-01  -4.6389629e-01  -6.5314111e-03  -9.1706993e-01   8.4804496e-01   5.3125588e-01  -8.3038935e-01   9.6984657e-01   7.1245029e-01  -9.7571202e-01  -9.4678388e-02  -1.8615451e-02   6.6537976e-01   1.2316594e-01   5.0243807e-01  -7.3797868e-01   8.7849224e-01   1.8547409e-01  -3.7986815e-01  -3.8316091e-01  -4.1285238e-01   7.8152895e-02   2.6018868e-02  -7.6119452e-01   7.7718270e-01   2.2848070e-01  -8.9256603e-01  -6.2977353e-01  -4.1694617e-01   8.0515894e-01   1.2457206e-01   4.0518549e-01   2.5978268e-01   7.5787205e-03   6.3730643e-01   7.7666764e-01  -5.0295027e-01  -2.6556751e-01   1.7779288e-01  -4.2149311e-01   9.1839905e-01   6.5157384e-01   5.6416243e-01  -9.7514114e-01   9.5658663e-02  -7.2855246e-01  -1.7118991e-01  -5.9328110e-01  -2.2740073e-02  -5.1741735e-01  -8.4249342e-01  -9.5635016e-01  -9.0042008e-01   7.3228289e-01  -1.9395020e-01  -6.6745076e-02  -4.6992715e-03   8.0458826e-01  -5.2714490e-01   9.0412378e-01  -2.6801160e-01  -6.3063095e-01   9.5744695e-01   1.7070666e-02  -3.9677577e-01   8.6026443e-02  -7.4755860e-01   9.1079505e-01   1.2171474e-01  -2.6243781e-01   1.1336128e-01   9.8747698e-01   7.7922358e-01   9.2646099e-01  -4.1680846e-01  -4.3868174e-01  -7.5026107e-01  -2.6518849e-01   9.4983634e-01  -5.5573699e-01   4.7638823e-01   3.6731755e-01  -1.6940979e-01   5.6379321e-01   5.9605015e-01   8.5752534e-01  -4.1333675e-03   1.7788469e-01   1.0217345e-01  -4.9342762e-02  -7.7321769e-01  -6.3294708e-01  -9.0471086e-02   4.4518331e-01  -8.6117707e-03   9.6995797e-01  -1.9332094e-01   4.8901218e-01   3.1519310e-01  -4.6207334e-01  -6.1230578e-02   8.8680623e-01   7.0689514e-01   1.4852235e-01  -5.0340441e-01   5.4184902e-01   8.0665716e-01  -4.7695929e-01  -3.4765333e-01   4.4599446e-01  -2.6589817e-01   3.9777563e-01  -5.9932562e-01   4.6947385e-01  -6.3586710e-01  -1.4085502e-01   5.7619926e-03  -2.4862460e-03   1.6420539e-01  -5.5266661e-01   4.7211282e-01  -6.9871487e-01  -2.6148411e-01  -6.0705756e-02   5.3632175e-01   7.4582824e-01   3.6644166e-01   6.2828926e-01  -4.0531393e-03  -8.0689664e-01   6.3891926e-01   5.7100072e-01  -2.6950271e-01  -1.2723692e-03  -4.9278292e-01  -4.9346379e-01  -3.2923771e-01  -7.4665869e-01   2.4735289e-01  -1.6438556e-01   4.0370197e-01   3.2850010e-02   5.4896154e-03   1.0050895e-02   8.6406344e-01   2.1635455e-01   9.7100321e-01   5.5265067e-01   5.9779199e-01  -1.1836639e-01  -4.7139069e-01  -8.5151242e-01  -1.5897191e-01   1.4864439e-01  -1.7467846e-01  -6.1128790e-01   4.5173154e-01  -6.0678823e-01   1.0374737e-01   2.7953018e-01  -1.1782155e-01   5.7414659e-01  -3.1599032e-01   3.9440120e-01   3.8436888e-01   5.9148506e-01   4.9996951e-01   7.9557538e-02   5.8532361e-02   4.1377552e-03  -3.3698566e-01   4.7726183e-01  -7.4719714e-01  -7.7487565e-01  -9.2783117e-01  -1.6777498e-01   7.5989596e-01  -3.6243533e-01   5.5988786e-01  -2.7117138e-01   3.0907514e-01  -7.6582284e-01   9.6831921e-01  -7.8367524e-01   9.3123652e-01  -4.8275076e-01   5.9657273e-01  -2.4951850e-01  -5.4919927e-01   2.8560041e-01  -4.4712870e-01  -5.5039612e-02  -1.9343079e-01  -2.7527306e-01  -5.6054534e-02   6.5157591e-01  -5.1922910e-01   2.5497158e-01  -6.1758280e-01   8.8688941e-01   9.6999567e-01   1.0725092e-01  -4.3343139e-01   7.3245594e-01   3.4174680e-01  -4.1879171e-01  -7.1272816e-01   7.8049182e-01  -4.4685374e-02   8.6180928e-01  -1.4877643e-01   4.0143024e-01   9.3836235e-01  -2.2421714e-01  -7.2260271e-01   3.9662860e-01   2.2006023e-03  -5.7652452e-01  -3.8480787e-01  -8.1647565e-01  -9.3034620e-01   1.4304015e-01   1.0220718e-01   8.2619933e-01   7.1798974e-02   7.2459958e-01   3.2230010e-01   6.4439734e-01   9.8650394e-01   8.0382522e-01   1.8883253e-01  -9.7411495e-01  -1.6070285e-01   4.0057864e-01   9.1839717e-01  -1.5965719e-01   6.1338434e-01   8.8585607e-01  -2.7879358e-01   4.7646489e-01  -8.3969502e-02  -7.2339177e-01   9.9523859e-02   9.5566227e-01   7.8497221e-01  -6.4174780e-01  -4.5475738e-01  -4.2910970e-01  -6.1182770e-01  -8.6789200e-01   7.9210699e-01   2.8441826e-01   9.6623322e-01  -2.3146559e-01  -4.5299961e-01   2.0595460e-01  -7.7708053e-01  -6.5154525e-01  -8.4836676e-01   4.2011356e-01   2.7203565e-01   9.8413580e-01  -9.1489520e-01  -5.6151171e-01   9.5667964e-01  -3.4629653e-01  -5.9303646e-01  -3.2653981e-01   3.2118450e-01  -2.8159980e-01   4.8417804e-02  -9.5197171e-01  -2.7558903e-01   3.0351024e-01   7.5572167e-02   1.2024270e-01   2.2435492e-01  -2.1888549e-01   1.0296375e-01  -2.1307657e-01  -4.2184114e-01  -1.5405981e-01  -9.6462326e-01   1.0473257e-01  -7.4637363e-01  -8.2225703e-01   5.4057955e-01  -1.0274183e-01   7.0142138e-01   3.9845070e-01  -8.5379128e-02   9.2662753e-01  -8.1109836e-01   2.8991175e-01   8.0706895e-01  -8.1117594e-01   9.1382834e-01   1.5943633e-03   9.8701952e-01   9.3972853e-01   5.2173687e-01  -3.8486469e-01   3.7667705e-01  -8.3114417e-01  -8.1377765e-02   5.2280629e-01  -2.9859768e-01   4.9738737e-01  -6.2452390e-03   8.0747450e-01   7.0893178e-01   5.6022875e-01   3.7459061e-01   1.3742943e-01  -4.7758874e-01   9.0562929e-01  -4.7654918e-01   1.8148659e-01  -3.8270942e-01  -9.0694711e-01  -3.6500963e-01   4.1270002e-01  -1.2081826e-01   1.5041322e-01  -1.1447111e-01   5.9057609e-01  -4.4331495e-01  -6.4200680e-02  -2.9374091e-01  -3.5894615e-01  -7.4088194e-01  -2.7223545e-01  -7.8088279e-02  -6.6366598e-01   4.6072461e-01   4.7402537e-01  -1.5040430e-01  -1.1587085e-01  -5.7152182e-01   8.6804334e-01   4.2505819e-01   4.7104086e-02  -5.9238670e-01  -8.3859017e-01   7.7327998e-01   1.6702546e-01   9.4495634e-01   7.1071876e-02   7.1491009e-01  -8.1080539e-01  -9.6891918e-01   8.3468189e-01   2.9232767e-01  -3.1748764e-01  -6.6502362e-01   4.1265507e-01  -8.1656033e-01  -8.8331099e-01   6.9060045e-01   7.9881761e-01
   4.9138668e-01   4.0470650e-01   6.2594398e-01   7.2495653e-01   3.5621032e-01   2.5964750e-01  -4.8247528e-01   3.4202670e-01   8.4692967e-01  -3.6046550e-01   5.6187088e-01  -8.6635873e-01   3.1042085e-01   2.2127471e-02   7.4455815e-01  -6.2232397e-02  -1.5198905e-01  -4.6334995e-01   1.7659195e-01   3.8998869e-01   7.8718254e-01  -3.5734223e-01  -7.0779510e-02   5.1759443e-01   2.0101202e-01   3.7406539e-01   8.9935973e-01   9.7753818e-01   9.8182229e-01  -3.4821589e-01  -4.5749181e-01  -4.0026229e-01  -9.7703880e-01  -3.8322656e-01  -2.9799689e-01  -4.5192046e-01   5.4347658e-01  -7.7236876e-02   7.2921595e-01  -4.6827706e-01  -6.1824116e-01  -6.8971533e-01   3.6323057e-01   7.6242533e-01   9.0830660e-01   6.6888999e-01  -8.7699409e-01  -3.0347279e-01   7.5847474e-01  -5.1853657e-01   5.1084024e-01   2.1833957e-01  -7.4105090e-01  -1.1264801e-01   4.4231254e-01   8.5395291e-01   2.9755347e-01   3.2017968e-02   5.3030429e-01  -2.6160779e-01   5.5108858e-01   2.4883853e-02   2.1949687e-01  -3.7231656e-01  -5.7559377e-01  -4.1950316e-01   2.6577667e-01  -2.2694513e-01   9.9846444e-01  -6.3866261e-01  -5.3856398e-01  -1.8453431e-01  -4.7111308e-02   6.6380260e-01  -5.4702812e-01   4.1311574e-01  -2.6427059e-02   3.8816608e-01  -3.2550296e-01  -6.0163544e-01   5.1118634e-01  -5.8426279e-01   3.8444289e-02  -5.8275872e-01   5.3221806e-01  -2.3730849e-01  -9.5794967e-01  -9.1972114e-01   8.7556438e-01  -4.3663486e-01   9.9348501e-01  -8.8315507e-01   2.3120561e-02  -4.5070372e-01   9.8319908e-01  -5.7188917e-01   4.6735118e-01   6.3162815e-01  -2.4737392e-01  -9.5901055e-02  -8.9336673e-01   8.3103406e-01  -1.7705164e-01   9.6009033e-01  -2.5063717e-01  -2.3537901e-01  -4.6313203e-01  -1.5934131e-01  -5.4842145e-01   3.9466017e-01   3.8986452e-01  -6.0802623e-01   7.5942096e-01  -3.6820521e-01  -3.3963941e-01   6.7775541e-01  -6.8257408e-01   6.0723686e-01  -1.0315546e-01   3.0076821e-01   1.2735549e-01  -5.8124257e-01   5.1370453e-01   3.5957293e-01  -3.6486794e-01   3.6200311e-01   3.1328378e-02  -9.1828569e-01   4.2886945e-01   4.0629121e-01   2.5552312e-01  -4.4591677e-01   5.2495731e-01   8.1629612e-01   3.1891209e-01   5.1682401e-01  -9.1548986e-01  -6.8091117e-01  -4.1162878e-01  -8.5407768e-02  -4.8047488e-01  -1.3459575e-01   4.9028914e-01  -3.9082661e-01  -4.8570347e-01   6.7599476e-01   6.3417155e-01   6.8289442e-01  -5.2204998e-01  -3.4401638e-01  -9.6362779e-01  -1.6628707e-01   2.1022499e-01   9.6882181e-01   7.1816797e-01  -1.2224490e-01   7.2745445e-01  -4.3118481e-01   6.2283987e-01  -6.7545121e-01   1.5736184e-01  -1.9672233e-01  -6.2216613e-01   3.0578166e-01   6.1927219e-01  -3.0573451e-01   3.5556980e-01  -5.4358996e-01  -7.2767126e-01   9.1391634e-04  -7.0579182e-01   5.8204875e-01  -5.1938951e-01   1.0514055e-01   7.0012006e-01  -1.7282626e-01   1.8253627e-02   2.0944724e-01   7.2796540e-01  -4.4925243e-01  -1.2845651e-01  -9.2482791e-01   4.8217485e-01  -7.1600149e-01   4.8612760e-01  -8.3409586e-01   6.8582841e-01   3.6982811e-01  -3.6820079e-01   8.2173807e-01   9.7032780e-01   3.1196093e-01   2.8010918e-01  -3.9211416e-01   1.3622281e-01  -6.8908704e-02   6.3798598e-01  -8.7532040e-01   4.2833566e-01  -7.6749859e-01   5.0178247e-01  -2.6825097e-01  -1.2809139e-01  -1.1186813e-01   7.6333470e-01   1.8369849e-01   1.7354907e-01  -5.3788464e-01   3.7664423e-01   7.4963197e-01   9.2859038e-01   1.1301376e-01   9.4137759e-01  -3.8013801e-01  -8.0030744e-01  -6.1772637e-01  -6.1591355e-01   6.3150578e-01  -7.3338480e-01  -2.7307067e-01   1.4526055e-01   4.9606323e-01  -3.7998903e-01  -7.8029967e-01  -4.5355187e-02   7.2236243e-01   9.7694510e-01  -6.8858703e-01   6.0762582e-01  -3.8165965e-01   5.3959781e-01   2.6562761e-01   2.5803757e-01   1.7168466e-01   5.2369516e-01   7.8276496e-01  -6.6398633e-01  -8.6004188e-01   6.9981568e-01   3.1573126e-01   1.1949271e-01   3.9806384e-01  -8.4306327e-01  -2.4981499e-01  -9.1831719e-01  -8.5112801e-01  -8.6188610e-01   7.1638472e-01  -1.0021722e-01  -4.6514087e-02  -8.5134666e-01   4.3223484e-01   6.7044020e-01   2.8267655e-01  -8.7075752e-01  -1.6015216e-01   1.4157170e-01   1.9689040e-01   3.8703011e-01   8.1270305e-01  -5.1585343e-01   9.4363505e-01  -9.0460505e-01  -3.2213308e-01   4.6981351e-01   9.6867965e-02   2.1496127e-01  -4.0634024e-01   6.6013053e-01   8.9353537e-01  -5.4365854e-01   2.6328226e-01   9.3477515e-02  -4.3843623e-01  -6.5145859e-01  -2.0656945e-02   9.2195460e-01  -4.3187426e-01  -2.1986370e-01   1.5068523e-01  -6.6365954e-01   8.4576813e-01  -2.6446515e-01  -9.5815030e-01   7.5652053e-01  -4.9793887e-01  -3.6345897e-01   5.8128586e-01   9.1025956e-01  -1.4256102e-01   1.0598985e-02   1.5435781e-01   1.1060604e-01  -8.6182581e-01  -5.7231897e-02   8.0177801e-01  -6.8225141e-01   4.8839899e-01  -4.8305066e-01  -2.1847153e-01  -3.8024968e-01   4.5910826e-01  -2.8924581e-01  -7.1081660e-01  -6.1936628e-01   6.6353065e-01   3.3322977e-01  -6.8039904e-01  -4.2893504e-01  -3.0935223e-01   4.9651302e-02  -2.4172734e-03   6.2485051e-01   8.1641817e-01  -6.8579015e-01   9.4441581e-01  -1.1678274e-01   2.1737863e-01   3.1388940e-01  -1.7116602e-01  -4.5985205e-01  -2.2755045e-01  -1.8426439e-01  -2.3015236e-01  -4.2285214e-01   2.0263757e-01   7.5057201e-01  -2.2032284e-01   7.5300072e-01  -6.0089014e-01  -4.2205154e-01   1.0634145e-01  -6.2497888e-01   9.5975318e-01   6.7903274e-02  -5.8274580e-01   9.7165992e-01  -6.4576167e-02  -4.0183409e-02  -3.8807629e-01  -3.3153933e-01   2.9833460e-01  -2.6029469e-01  -9.9463239e-01   6.3744647e-01  -5.6598475e-01  -5.9563111e-01  -6.1363058e-01  -2.9943243e-02   7.8630389e-02   2.0360365e-01   7.1787230e-02  -1.1204735e-01  -6.2772316e-01   9.9382311e-02  -7.2474820e-01  -7.2667981e-01   3.7614875e-01  -1.8770690e-01   7.1786122e-01   9.9892402e-01  -5.1722194e-01   7.7063575e-01  -7.4812726e-01   5.3277509e-01   8.1017249e-01  -6.0799598e-01   7.7056522e-01  -1.8955151e-02  -7.2596484e-01   5.8799228e-02  -7.3419462e-01   2.7290573e-02   9.0875590e-01   5.9027157e-01  -8.2843817e-02   3.1258804e-01  -7.5708313e-01  -9.2809600e-01   2.3254948e-01  -5.9420627e-01   9.3124810e-01   4.7135924e-01   4.5417699e-01  -2.7935750e-01  -7.3205759e-03   4.7705064e-01  -8.5214369e-02  -3.7189384e-01   3.4719395e-01   5.0704353e-01  -3.8659308e-01  -1.1082355e-01  -8.2517609e-01  -1.7838110e-01   5.8979030e-01   7.4175519e-01   7.1445252e-01   2.8882731e-02  -2.4122858e-01   6.5647254e-01   2.4125640e-01  -6.8207952e-01   4.7479505e-01  -5.5790388e-01  -3.5174114e-01   9.5265059e-01   1.8059965e-01  -3.1489463e-01  -6.0557098e-02   6.8079066e-01   8.7760923e-01   6.8094280e-01   5.9590856e-01   9.0782037e-02  -9.5802589e-01  -8.2541286e-01   9.5146856e-01  -7.2571643e-01   7.6480195e-01  -6.4801446e-01   8.9957881e-01   7.4692002e-01   9.9746311e-01  -5.7056229e-01  -3.5991703e-01  -3.2022333e-01  -6.2995376e-01   5.9704846e-01   7.0717277e-01   9.0613111e-01   6.8504188e-01   2.6209035e-01  -5.8397632e-01  -1.9276033e-01  -3.5297171e-01  -3.5924986e-01  -2.8969089e-01  -2.4664800e-01  -8.1708020e-01  -5.7300852e-01  -5.0411801e-01  -5.7652731e-02  -2.2293678e-01   9.8242846e-01   3.1859512e-01  -2.2752701e-01   3.6660259e-01   2.3021671e-02  -4.1417090e-01  -5.9065903e-01   4.2337098e-02   7.0510068e-01   8.4200835e-01  -2.5099604e-01   3.7798966e-01  -9.6031869e-01   4.6809673e-01   6.3604466e-01  -2.6814716e-01  -5.1410447e-01  -5.6671938e-02  -6.7386953e-02  -7.1138880e-01  -4.0485670e-02  -8.0380608e-01  -7.3418851e-02  -1.7601913e-01  -3.4227801e-01   7.1877998e-01  -5.6672555e-01  -6.2572670e-01  -6.2697779e-01   9.3511882e-01   4.1138961e-01   3.8168677e-01   8.1272482e-01  -7.7912088e-01  -2.1167668e-02   9.5229456e-01  -2.9553233e-02   8.5774770e-01   5.4305229e-01  -2.5945938e-01  -7.4206562e-02   1.9241804e-01  -4.1082769e-01   3.1893121e-01  -7.7550071e-01   6.4006422e-01   4.9230450e-01   8.5402805e-01  -8.7621582e-01   7.6681363e-01   5.9263343e-01   1.9230452e-01   7.3724624e-01   6.5404291e-01  -2.6167671e-01   2.4349596e-01  -2.8646814e-01   4.1296219e-01   9.8891483e-02  -4.1672211e-01  -7.5054742e-01  -7.9351082e-01  -4.6912935e-01  -7.9625843e-01   7.1781567e-01  -3.3875439e-01   6.9752291e-01   9.2639001e-01  -1.4141535e-01  -3.2725796e-03  -6.5570509e-01   1.2955554e-01   4.0837374e-01  -7.5729048e-01  -6.3433344e-01   2.3352812e-01   7.2750620e-01   6.5041783e-02   1.0825318e-01   2.6304504e-01   4.1646595e-01  -1.9287340e-01   1.2239947e-01  -8.2432271e-01   6.9973555e-02  -4.8661585e-01   5.0959710e-01   4.0242641e-01   8.5168137e-01   8.9288523e-01  -4.9152033e-01   9.5774248e-01  -7.1233361e-01  -3.6962505e-01  -8.0363962e-01  -4.1946134e-02   5.2603994e-01  -7.7619374e-01   4.9816834e-02  -3.4739962e-01  -7.6173912e-01  -5.7517742e-01  -4.1864333e-01   5.4881423e-01  -2.7593534e-01  -6.0543000e-01   5.1028105e-03   8.3752752e-01  -6.4573179e-02  -7.3271795e-01  -2.3823542e-01   9.9664719e-01  -2.8481354e-01  -5.3162324e-01  -1.7073065e-02   8.7053323e-01   2.4066667e-01  -3.3153609e-01  -2.5186822e-01  -2.9392138e-01  -3.4031312e-01  -1.7226726e-01  -8.5715156e-01   3.5818761e-01   4.3337361e-01  -9.0123710e-01  -3.7829626e-01   7.2040069e-01  -5.2160746e-01  -6.4441273e-01   4.2168738e-01   5.2023746e-01   1.9180788e-01   9.9285255e-01  -4.9282507e-01   8.1182232e-01  -7.4266915e-01  -4.2794278e-01  -7.5114207e-01   4.7369114e-01  -8.9001940e-01   3.3414948e-01  -5.4116577e-02  -2.1472433e-01   2.9162297e-01  -1.8108918e-01   2.1616868e-01   1.6617734e-01  -3.0140450e-01  -7.1532828e-01  -2.2190920e-01  -4.4933564e-01   3.5123117e-01  -9.7506339e-01   6.5036972e-02  -6.5991136e-01   3.5131170e-01  -7.4121321e-01   4.8530688e-01   1.3531187e-01  -7.6372864e-01  -5.2068280e-01  -5.3556208e-01   2.6948866e-01  -3.7882341e-01   8.2833361e-01   9.9902356e-01  -2.2202695e-01   9.1776699e-01  -3.6247985e-01  -8.5514189e-01   2.0620456e-01   8.8293505e-01   4.6209817e-01   9.0434478e-04   8.2293020e-01  -3.4600982e-01  -3.6352561e-01   6.4784927e-01   4.6882687e-01   9.5502129e-01  -9.7263221e-01   1.7942421e-01   7.5286590e-02   8.4495469e-01  -5.6430086e-02   6.2831674e-01  -5.2961833e-02   9.7071731e-01   3.3935258e-01  -5.0002471e-01  -7.9734746e-01   3.7766157e-01  -5.3922761e-03   4.1268550e-01  -5.5517749e-01   4.1793334e-01  -8.0424033e-01   2.7243758e-01   9.8640281e-01  -2.7635931e-01  -1.5443998e-01   9.5847362e-01   4.3834667e-01   1.1898055e-01  -5.1898740e-01   8.6887141e-01  -6.5409774e-01  -4.2952120e-01   3.5194789e-01  -8.1203023e-01  -1.4103807e-01  -2.6435550e-01  -4.5664529e-01   6.8714710e-01   1.8076021e-01  -7.0315241e-01  -4.8198199e-01  -1.9090732e-01   6.4097176e-01   5.3934683e-01   6.4378515e-01   4.3222728e-01   6.3073811e-02  -6.7644234e-01  -8.6071746e-01   1.1475167e-01   7.0483360e-01   4.7479462e-01  -8.1441335e-01   5.5257628e-01   3.3710612e-02  -2.9732674e-01   2.7357703e-01  -8.9057847e-01   8.1371440e-01   8.0016258e-01   7.9554887e-01  -5.7279588e-01   6.1463037e-01  -5.2478598e-01  -6.0317332e-01  -2.6360667e-01   4.7012888e-01  -3.2197738e-01  -9.2125419e-02  -4.1190558e-01  -8.9391554e-01   6.6564395e-01  -2.0872847e-01   6.7652986e-01  -6.2044716e-01  -3.6483711e-01   1.5469947e-01  -9.4741937e-02   5.8753369e-01   1.2126276e-01   4.6870124e-01  -4.9007001e-01  -3.7297360e-02  -6.4036507e-01  -8.3825238e-01   2.9483115e-01  -7.4083832e-01   3.6637593e-01  -1.7389591e-01  -7.4160709e-01  -3.6695307e-01  -3.6358643e-02  -1.2740707e-01  -5.0718024e-01   1.0769634e-01   1.7957545e-01   4.8099912e-01   5.8627021e-01  -1.1402237e-01  -8.4378504e-01  -4.7338050e-01   4.1195973e-01   7.6445007e-01   9.8649805e-01  -7.7003285e-01  -2.4009535e-01  -7.0580383e-01   2.5881645e-01  -3.6943742e-01   6.4247383e-01  -3.9269351e-01   1.2545037e-01   9.8194543e-01  -9.4356435e-02  -3.7676763e-01  -6.6503094e-01  -5.9902325e-01  -6.3096923e-01  -9.5628628e-01  -3.1688721e-01  -2.0305053e-01  -5.0238314e-01  -2.1420691e-01   4.8274811e-01  -2.3554770e-01  -3.2319807e-01   9.0007999e-01  -4.6617236e-01   1.9596096e-01  -8.9726317e-01  -6.0498184e-01   1.6414929e-01   8.2877091e-02   6.8424806e-03   4.0975904e-01   4.3859862e-01   9.4205597e-01  -9.1608259e-01   4.4921543e-01  -3.9308542e-01  -7.4810335e-01   5.6138808e-01   2.2279887e-01   9.1012260e-02   6.7363666e-02  -9.1736575e-01  -9.7694568e-01  -8.3543769e-01   8.9452951e-01  -7.4687629e-01   7.8741011e-01  -4.8990953e-01   3.9126332e-01  -2.3387996e-01   8.3890525e-01   9.3408638e-01  -9.5320620e-01  -6.0062534e-01   1.6916834e-01  -9.0486142e-01  -7.9464894e-01   4.0922436e-01   7.2568141e-01   1.0267540e-01  -9.9696843e-01   1.9637299e-01  -7.5073567e-01  -5.5619694e-02  -7.5800431e-01   9.8281741e-01  -4.8095251e-01   9.1042451e-01   4.7440377e-01   5.3038539e-02   9.9969901e-01   9.4032824e-01   2.3829628e-01   6.5674903e-01  -3.2952527e-01   5.6911362e-01   9.2705404e-01  -3.6075000e-01   6.7533954e-01  -8.1309100e-01  -8.4901825e-01  -8.5414859e-01   4.7464703e-01   2.0958204e-01  -5.5179546e-01   6.2137022e-01  -5.2864981e-02  -8.9494697e-01  -6.3557223e-01  -2.7657990e-01   4.2192406e-02   6.0667829e-01  -7.4410980e-01   7.7224760e-01  -8.0748571e-02   3.1700426e-01   4.2818292e-01   4.9962384e-01  -9.6330752e-01   3.8391672e-01   2.1466642e-01  -3.1231313e-01   5.6239987e-02  -8.6110139e-01   4.8629674e-01   2.3581191e-01  -9.9173063e-01   5.0990357e-01  -7.3026318e-01  -5.7367085e-01  -3.1162010e-01   7.5871900e-01   7.6775985e-02  -7.5071194e-01   7.3820539e-01   7.5889633e-01   6.8013509e-01  -4.9826210e-01   9.6362882e-01   5.6632986e-01  -5.2469506e-01  -8.8109795e-02   1.9674494e-01  -8.2473480e-01  -5.7140293e-01   3.7391943e-01  -7.7272632e-01  -1.4636877e-01   5.6212919e-01   5.4373341e-01   7.3345449e-01   8.4017410e-01  -5.7688528e-02  -2.2712973e-01   2.3762007e-02  -3.2059149e-02  -8.8291318e-01  -1.6837391e-01  -6.9899244e-01   9.4350816e-01   6.9685418e-01   1.4637037e-01   5.5172495e-01   7.8255575e-01   3.8354354e-01   1.5272545e-01  -3.0016016e-01  -8.8941990e-02  -9.9608270e-01   5.9075248e-01   3.5799379e-02  -1.5212704e-01  -4.6114850e-01   5.0220244e-01  -6.5851789e-01   8.8434718e-01   5.2735976e-01  -7.7892184e-01   8.3908858e-01  -1.9044778e-01  -7.7467356e-01   7.0028031e-01  -2.8619037e-01  -4.7095718e-01   9.3073057e-01  -8.6162509e-01  -9.8310453e-01   8.6688302e-01  -2.2863538e-01   9.4048457e-01   4.2257712e-01   5.2627950e-01   7.2783793e-01  -5.3969482e-01   5.1174257e-01  -6.9630791e-01  -6.9140884e-01   2.9068017e-01  -4.0389027e-01   8.1911792e-01  -4.6051295e-01  -9.0935597e-01   6.1256073e-01   3.4025658e-01   8.5376404e-01   7.5931850e-01  -4.5970782e-01  -8.1363842e-01  -7.2597216e-01   5.6284090e-01  -7.8218896e-01   1.2538866e-01  -9.5797120e-01   8.3768351e-01  -9.8915030e-01   6.8546648e-01   5.2853882e-01  -8.2553970e-01   6.2230816e-01  -2.6223688e-02  -9.0028717e-02   6.9746348e-01   1.8820344e-02   9.1617528e-01   3.8036461e-01  -5.5635677e-02   9.1717799e-01  -6.2853139e-01   8.0648221e-01   4.1936843e-01  -7.1952519e-01  -4.1052426e-01   6.1521774e-01  -6.4789103e-01   5.5553158e-01   5.2275493e-01  -3.0819912e-01  -2.0894824e-01   3.2722341e-02  -1.2339975e-01   2.9806132e-01  -7.9636046e-01  -7.2528649e-01   2.4009213e-01   8.4920359e-01   8.7371598e-01   2.7370491e-01   9.5830577e-01  -5.6555000e-01  -7.1247829e-01   6.0212946e-01   4.8537673e-01  -7.4381469e-01   9.4015637e-01   5.9099312e-01  -2.8549759e-01  -9.8218934e-01   8.9623578e-01  -5.8825523e-01   8.2805732e-01  -9.1363673e-01  -5.2987054e-01  -8.1648798e-01  -1.2634978e-01   7.1062580e-01  -6.9310726e-01  -6.9684696e-01   3.7399800e-02   3.8011036e-01  -3.5001553e-02  -2.3950286e-01  -3.6592609e-01  -6.3162735e-02   6.8186322e-01   5.1608574e-01  -3.9127767e-01  -7.7327779e-01   3.2737696e-01  -2.6798081e-01   4.6720893e-01  -2.3761858e-01  -1.7619037e-01  -9.3222244e-01  -6.7610974e-01   5.0580300e-01   4.0731727e-01   1.3085703e-01  -9.5019030e-01  -4.2665801e-01   2.6866439e-01  -2.4769416e-01  -7.9016193e-01  -4.1379465e-01   7.2949405e-01  -7.9693724e-01
   8.5485014e-01   3.2603845e-01   5.7362369e-01  -5.6469284e-01   4.1631648e-01  -1.5596910e-01  -3.9173131e-01  -7.4457799e-01  -3.4835368e-01   7.0044870e-01   8.5432831e-01  -2.1118691e-01   8.9856722e-01   1.0138197e-01  -6.5830309e-01  -7.0297180e-02   8.5535897e-01   1.1318367e-01   5.3161426e-01   7.7878525e-01  -2.5615460e-01   1.3457250e-01   1.0592789e-01   8.9588303e-01  -4.2040454e-01  -3.6099660e-01  -5.1569049e-01  -7.3631359e-01  -5.9898142e-01  -6.2869939e-01   7.7849908e-01  -3.4240982e-01  -4.6341556e-01   3.2425352e-01  -5.0810182e-01   6.0771456e-01  -9.8917259e-01  -3.7711104e-02   4.9623959e-01  -7.3366896e-01   2.9195362e-01  -7.4692871e-01   5.8865463e-01  -5.7201654e-02   7.5321313e-01   5.5319905e-01  -3.3164822e-01  -7.5797319e-01  -2.5091095e-01  -6.4611349e-01  -6.3158238e-01  -9.0099228e-01  -6.5963836e-01  -6.9343227e-01  -5.5918462e-01  -4.9439165e-01  -7.6138631e-01  -2.6951021e-01  -8.8867525e-01  -1.3193634e-02   8.7087838e-01  -7.9679272e-01  -8.5711140e-02   6.1556669e-01   9.1976671e-01   8.0366979e-01  -7.1174157e-01  -9.7582110e-01   6.9389816e-01  -5.9975318e-01   3.8779633e-01  -9.9995311e-02   9.9539316e-01  -9.0646696e-01  -7.5118059e-01  -2.6689821e-01  -3.0958215e-02  -7.4987711e-01   3.5525294e-02   1.1020380e-01  -8.5877011e-01   5.6208521e-01  -3.1014098e-01   8.5501614e-01   3.1373965e-02  -8.9431775e-02  -1.6250864e-01   3.6145556e-01   8.2938960e-01   6.8362183e-02   9.7700589e-01   3.6306525e-01  -2.4154435e-01  -1.3307343e-01   5.0361654e-01   3.4926765e-01  -5.8270719e-01  -4.4368474e-01  -3.6327443e-01   6.8028768e-01   2.6306960e-01  -6.0440127e-01  -3.2354997e-01   7.1780337e-01  -7.8551894e-02  -1.0958634e-01  -9.8301420e-01  -9.1417182e-01  -4.3908770e-01   6.2677509e-01   5.9583885e-02  -3.9120828e-01   9.6519545e-01  -8.9671297e-01   5.8749147e-01  -4.2236355e-01  -8.9325045e-01  -5.7912051e-01   8.1304761e-02   4.3376585e-01   6.8989469e-01  -4.2493502e-01   1.4880887e-01   9.1327970e-01  -3.8234771e-01   5.4410796e-01   9.1278138e-01   5.6554923e-01   5.3370622e-01   6.9486310e-01   6.0428949e-01  -8.8252449e-02   3.4044700e-01  -5.5136826e-01   7.6778023e-01  -9.3668809e-02   5.2510197e-01   1.5101429e-01   9.9428814e-01   3.1267119e-01  -7.3498953e-01  -5.9227032e-01   7.2265555e-01  -5.6316834e-01  -4.9309917e-01   8.4571105e-01   4.7908076e-01  -7.9165066e-01  -2.4397974e-01   6.6051624e-01  -9.4200270e-01   6.6863483e-01  -5.6830977e-01   5.3310379e-02  -3.2917772e-01  -6.0861736e-01   4.3336648e-01   7.5598184e-02  -4.7157341e-01   5.6477438e-01  -6.0615477e-01  -3.7111536e-01   1.6527348e-01   9.4892064e-01   2.3149599e-01  -5.2190930e-01  -6.6925966e-01   7.4744543e-01   1.8120384e-01   7.3257581e-01   9.0703428e-01   2.3904327e-01  -6.0181902e-01  -2.7575659e-01  -8.8491912e-01  -5.4779298e-01  -9.2185103e-01   3.7252697e-01   8.9337203e-01   3.5579986e-01  -4.0106868e-01   8.7220436e-01   7.7956999e-01  -9.9383071e-01  -6.8652973e-01   9.9770947e-02  -6.2275177e-01  -2.7495934e-01   5.8032763e-01   7.1427524e-01   3.3666414e-01  -9.3036078e-01   3.0895535e-01  -7.4221648e-01  -2.9633816e-01  -3.6756877e-03   5.0070114e-01   1.8688571e-01   4.6612186e-01   4.6910837e-01  -7.4836396e-01  -6.1094736e-01  -2.1593840e-01   1.4828347e-01  -5.1727051e-01  -6.7068596e-01   8.8576107e-01   4.2155959e-02  -9.7997807e-01  -5.9285648e-01  -8.5143853e-01  -1.6962324e-02  -3.7481517e-01   2.3560174e-01   7.1277341e-01  -5.3196629e-01   8.7716696e-01  -5.3073022e-01   4.6279929e-01  -5.8749222e-02   2.3401255e-01   7.9319300e-01  -9.7628028e-01  -5.3757753e-01   6.7550438e-01  -9.4397546e-01  -8.9547996e-01  -7.2280421e-01   8.8893066e-01  -8.6614765e-01  -9.2583755e-02   8.7392137e-02  -7.5987985e-01   7.7144557e-01   3.0915960e-01   4.7836005e-01  -3.9305491e-01  -1.7752791e-01  -3.2650023e-01  -9.6577227e-01   9.7531157e-01   8.3208184e-01  -3.9650805e-01   5.0745612e-01   8.6575238e-01  -3.7255851e-01   7.5214785e-01  -1.0518479e-02   8.4668646e-01   8.2428062e-01   4.7428824e-01   6.9802092e-01   4.1941314e-01   6.2914233e-01   6.8957458e-02   6.1190154e-01   5.0465565e-01  -6.6805885e-02   1.5115790e-01  -7.2751571e-02   3.2491807e-01   4.9329529e-01  -1.9381951e-01   9.5813969e-01  -6.7798589e-02   3.4362650e-01  -6.8253334e-01   4.0358978e-01   1.7684000e-01   5.8008662e-01   4.7871020e-02  -8.5504209e-02  -6.3333887e-01  -6.0220120e-02   3.1486130e-01   6.6607959e-01   3.6286070e-02   1.4206507e-01   3.3553993e-01   9.0306737e-02  -8.5999533e-01  -6.7043428e-01   4.8904060e-01   9.7461238e-01  -9.7614409e-01  -3.3437255e-01   1.8006756e-01  -3.4746003e-01  -5.7377452e-01  -2.8270169e-02  -2.6946792e-01   6.6135452e-01   7.3820015e-01  -2.0989172e-02  -1.0792385e-01   9.0979676e-01  -7.7683546e-01   8.5327592e-01   2.4042404e-01  -3.4586627e-02  -6.0051148e-01  -5.7154201e-01   4.4198870e-01   6.2484287e-01   3.1914411e-01  -3.6444916e-01  -6.7670535e-01  -5.0052653e-01  -8.0347471e-01   3.0714037e-01   2.1663860e-01   8.1952301e-01   4.3311013e-01   7.4370896e-01  -7.0163133e-01  -8.3183504e-01  -9.5868893e-01  -2.4245562e-01  -2.8446282e-02  -9.1122689e-01   1.6118086e-01  -9.9267021e-01  -9.0830291e-01  -9.0380488e-01   9.1505908e-01   5.3975394e-01  -1.9087069e-02  -1.9013933e-01   6.9290315e-01  -3.2892563e-01  -1.8770923e-01  -5.1306674e-01  -1.9114446e-01  -7.6162828e-01  -7.4857293e-01   1.3666299e-01   5.8666542e-01   3.5897445e-01   2.8473604e-01  -8.9161495e-01  -7.2223024e-01   9.3513634e-01  -6.7869935e-01   2.4872852e-01  -9.7689892e-01  -5.6447994e-01  -5.6505040e-02   9.4162164e-01  -6.1013238e-01   3.0909676e-01   2.3938825e-01  -5.9592418e-01   6.3673171e-01   1.5672209e-01   1.1760177e-01   7.5085737e-01   2.1058771e-01   2.5286919e-01   4.1419010e-01  -1.7944646e-01  -7.0781933e-01  -8.5159212e-01   7.2916396e-02  -4.3532904e-01  -3.0707439e-01  -3.3574023e-01  -6.7966905e-01  -7.1548447e-01   9.6046513e-01  -3.1271554e-01   5.8664232e-01  -2.5253098e-01  -1.4498424e-01   1.7006320e-01  -4.7030672e-01   8.9954026e-02  -1.9020432e-01  -8.6295711e-01  -7.5672423e-01  -5.4632389e-01  -6.2505423e-01   5.3904214e-01  -1.7238759e-01  -1.8258985e-01   1.3437074e-01  -5.2244990e-01  -4.6485840e-02   5.8133090e-01  -6.3719588e-01  -9.9588738e-01  -6.7960126e-01  -1.4215774e-01   8.8828585e-01   7.4096877e-01   7.8281590e-02   6.1602776e-03  -8.2873355e-02  -6.6375506e-01   6.9846626e-01   1.5936213e-01  -2.8327353e-01  -7.7778306e-02   4.3104163e-01  -9.4364433e-01   4.5174461e-01   4.6184066e-01  -2.3387283e-01  -8.9315456e-01  -8.0068005e-01   7.2132772e-01   5.3580516e-01  -7.2448887e-01   1.8320751e-01   2.1731018e-01   2.7381930e-01  -7.6632496e-01  -1.1175631e-01  -3.4834943e-01  -3.3084103e-01  -9.4015118e-01   3.7305639e-01  -7.2738155e-01  -2.4473322e-01   3.8651145e-01  -1.7754398e-01   8.1954812e-01   4.3867480e-01  -9.9942418e-01  -3.0545531e-01   4.6495367e-01  -8.2418059e-01   8.8385042e-02  -1.8930480e-01  -2.8106852e-01   2.1418407e-01   7.5496821e-01   2.7193701e-01  -5.2555965e-01  -4.2244248e-01  -3.5558102e-01  -2.0610478e-01   5.9694374e-02   4.7616306e-01  -5.7730679e-02   6.5842723e-01  -4.2082816e-01   7.7296096e-03  -2.7510522e-02   2.5972405e-01   9.4467118e-01  -7.6613181e-02  -5.8948766e-01  -8.1337737e-01   1.6677740e-01  -9.7110895e-01   5.5716788e-01  -3.6612757e-01   1.1110094e-03   5.1632434e-01   9.5198502e-01  -2.7741374e-01   2.3561391e-01  -9.0448447e-01   5.0013932e-01   1.9064084e-01   3.6859390e-01  -2.4550613e-01  -8.6826650e-01  -1.3130890e-02  -2.6049507e-01   7.5957556e-01  -5.1584247e-01  -3.2860979e-01   2.0479129e-01   5.5443733e-01   1.9439192e-01   6.1273831e-01   5.1644138e-01  -3.6132335e-01   3.2836873e-01   8.2936548e-01   8.2120946e-01   4.6233747e-01  -4.3425393e-01  -2.4512112e-01   9.9126779e-02  -2.0429201e-01  -1.5744619e-01  -7.1520726e-01  -6.5284513e-02  -6.0800821e-01   8.7161154e-01   1.6324976e-01  -9.3511931e-01  -3.7563107e-02   8.0447133e-01  -8.4145152e-01   6.1764866e-01  -6.9906541e-01   5.0948028e-01   7.3639617e-01  -3.5358806e-01  -6.0444286e-01  -2.9808372e-01  -5.7233778e-01  -6.8310038e-01   4.1707952e-01   6.1634324e-01  -3.9325101e-01   4.5156610e-01  -6.1164909e-01  -7.0505223e-01   7.5134225e-01  -8.5727195e-01  -5.0542230e-01   8.1868076e-01   7.9842975e-01   7.0696567e-01  -3.1672946e-01   5.7567976e-01   4.0045337e-01  -2.8424910e-01   6.9451358e-01   4.0085633e-01  -5.5653124e-01  -6.3436778e-01   9.4023510e-01   6.9507364e-01   1.2082688e-01   5.4181610e-01  -4.4558176e-01   4.5874071e-01   6.2574007e-01   5.0416643e-01  -7.4831373e-01   1.1850972e-02  -9.8645037e-01  -6.6276258e-01  -8.9185094e-02  -5.9983818e-01  -7.0466113e-01   1.3728908e-01  -8.9393286e-02   8.8244931e-01   4.3432710e-01   7.1724085e-01  -2.4513241e-01  -3.2063475e-01  -8.4601464e-01  -9.8223107e-01  -9.1620762e-01  -9.8241733e-01  -9.4190474e-01   2.3072128e-01   1.6072223e-01  -2.1764202e-01   2.7516156e-01  -8.8967953e-01  -1.0599389e-01  -1.2111920e-01   1.3045818e-01   5.1142249e-01   8.7837668e-01  -9.2296299e-01   1.6270279e-01  -1.4775880e-01   2.1016299e-01   8.5724013e-01  -9.8431993e-01  -1.1909774e-01  -3.3266895e-01   6.5087617e-01  -2.1346795e-01  -5.3112507e-01  -4.5336771e-01  -6.5918762e-01  -1.3537842e-02   3.0796023e-01  -8.9021612e-02  -1.0114186e-01   4.1270184e-02  -1.6231708e-01  -5.7985077e-01  -8.0478064e-01   5.4153477e-01   7.1079160e-01  -4.9654310e-02   5.9770784e-01   1.0311099e-01  -2.1590323e-02   2.8051653e-01   2.1281454e-01  -5.0611645e-01   9.3084226e-01  -1.1078010e-01   1.2491082e-01   1.5886829e-01   9.9511395e-01   9.6317604e-01  -2.5506751e-01  -9.7321327e-01  -4.3830397e-01   5.3557148e-01  -2.2039635e-01   3.1597025e-01   1.8811378e-01  -9.5185341e-01   7.4135699e-01   3.1316342e-01  -2.3062951e-01   8.3838467e-02   8.7561779e-02  -8.4452739e-04   7.8855455e-02  -1.3083483e-01   2.0150193e-01  -1.7837628e-01  -9.4071434e-01   1.0999772e-01  -8.8140343e-01   6.5249995e-01  -7.3663992e-01   8.6553050e-01  -3.9918006e-01  -8.1003605e-01  -2.3898076e-01   3.4143231e-01  -2.1263068e-01   5.5845317e-01   4.6768979e-01  -6.9202591e-01   7.3144228e-01  -7.5796065e-01   7.4077323e-01  -6.8886403e-01  -6.5189654e-01  -5.8959302e-01  -4.8664634e-01  -2.2684900e-01   1.4587487e-01  -7.9290960e-01   9.1682635e-01   5.0861288e-02   1.7598866e-01  -8.6005846e-01  -9.5496449e-01  -3.9533802e-01   2.9824001e-01   5.8303828e-01  -5.9370025e-02   9.8305881e-01  -9.7551890e-02   3.3478741e-01   6.8935832e-01  -6.1846125e-02   5.1037749e-01   9.8200589e-01  -9.5016186e-01  -8.5168434e-01  -6.6514679e-01  -6.5473867e-02   8.9471617e-01  -9.2784346e-02   8.7048971e-01  -6.5016086e-01   8.0733237e-01  -4.0977646e-01  -5.2596519e-01   1.2880835e-01  -9.4263980e-01  -7.2316524e-01  -2.5782801e-01   9.7274110e-01   5.3628359e-02   5.3949811e-01  -3.7753539e-01   9.5852461e-01  -1.8728389e-01   5.5653900e-01  -4.2794799e-01  -7.1573373e-01   4.1170189e-01  -8.1909446e-01  -1.1919223e-01   9.2791602e-01   3.5623201e-01   4.9936597e-01  -6.2076922e-01   8.7226618e-01   1.1760693e-01   7.5625255e-01  -3.5125140e-01  -7.0788052e-01   7.8529784e-01  -3.5187458e-01   5.7271881e-01   5.7116832e-01   4.0822058e-01  -8.6242642e-01  -7.1502432e-01  -4.2404130e-01   7.3183091e-01  -2.6961173e-01   9.1774745e-02   9.9809186e-01   4.8927814e-01   1.3138494e-01  -5.8612553e-01  -8.8197560e-02   5.6602421e-01   4.2861262e-01  -2.5606182e-01  -6.2651773e-01  -5.0127112e-01  -2.2188584e-01   8.2965577e-01   9.2833032e-01   7.4593013e-01  -6.8735098e-01  -3.0100696e-01  -7.8227701e-01   5.8103209e-01  -1.6322111e-01  -6.1780306e-01  -8.5392233e-01  -9.3806515e-03  -2.5611505e-01  -6.7186204e-01  -7.8524858e-01   7.8769270e-01   4.4166736e-01  -5.4377125e-01   3.6761740e-01  -9.7983992e-02  -1.1872417e-01   1.6616748e-01  -1.4743401e-01  -1.8340698e-01  -2.8689109e-01  -2.6075708e-01   8.8740539e-02   8.8978060e-01  -8.3760728e-01   3.9934143e-01  -8.8484553e-01  -5.8227104e-01  -1.7521617e-01   8.8255206e-01  -6.5390664e-01   2.5137736e-01  -7.2152220e-01   4.5191333e-01  -4.7723794e-01   8.3208580e-01  -4.4652352e-01  -5.5324602e-01   1.5902146e-01   8.8618599e-01   9.8907331e-01  -1.1857622e-01  -6.1551204e-01  -9.0462120e-01   8.4917398e-01  -6.6608283e-01   2.0905913e-01  -7.0413440e-02  -1.4460148e-01  -1.8155774e-01   1.1843294e-01   3.4395520e-01   3.0259789e-01   2.6072361e-01  -9.6224092e-01   9.5131477e-01   1.4821402e-01   6.6786906e-01  -4.1233251e-01  -8.7872643e-02   2.3583238e-01  -3.8607973e-01  -3.2659402e-01   8.4799835e-01   6.5862012e-01  -2.5006263e-01   8.7806617e-01   9.8188317e-02   5.9652165e-01   8.2204370e-01   9.0508571e-01   9.3915330e-01   4.1132845e-01   1.4542559e-01  -6.1251711e-01  -6.4010112e-01   8.5470823e-01  -7.4952605e-01  -5.3239875e-02  -8.9399439e-01  -5.6957943e-01   4.5478196e-01   2.4021683e-01  -7.7031298e-01   9.8371084e-01  -3.1997875e-01   3.7980790e-01   5.9151483e-01   8.2743504e-01   7.3656560e-01   5.2911937e-01   8.4882475e-01  -3.6628516e-01  -4.9495357e-01   8.7662114e-01   4.8639633e-01   4.4891067e-01   7.2009128e-01  -8.3309214e-01  -2.6515617e-01   9.3764333e-01   5.2628038e-01   4.9761029e-01  -4.2396261e-01   2.1156866e-01  -4.9976876e-01   2.7572097e-01  -1.8115354e-01   1.5344619e-01  -5.8251237e-01  -9.5067490e-01  -6.4999454e-01   4.8366331e-01   2.7063799e-01   2.4032146e-01  -1.1279718e-01  -3.0165802e-01   1.2141934e-01   7.0999385e-01   8.4611064e-01   6.1549757e-01  -9.8106948e-01  -8.5862101e-01   4.1305546e-01  -7.5125160e-02   9.9833164e-01   2.0951805e-01   7.4439374e-01   7.2148671e-01  -1.5930448e-01  -1.1952814e-01   9.8619556e-01   9.7314806e-01  -5.9071405e-01   6.5904379e-01  -2.6051814e-01  -2.6631539e-02  -5.5872844e-01   8.3378985e-01  -1.8604298e-01   8.0272224e-01  -4.9623220e-01   7.5052781e-01  -3.4065739e-02   8.9425133e-01   1.1832838e-01   6.9771194e-01   2.0325501e-01  -2.6735486e-01   3.5778935e-01  -1.8718175e-01   2.1582319e-01   5.0160457e-01  -8.2159811e-01   9.8087870e-02   5.1348725e-01   7.0889395e-02  -3.2826450e-01   7.1658492e-01   9.4590526e-01  -5.3885655e-01   5.8156938e-01   1.1111589e-01   6.6335322e-01  -2.6059270e-01   2.9534149e-01  -3.3169652e-01  -3.5613682e-01  -2.3419481e-01  -3.7320075e-02   9.5507166e-01   9.4243393e-02  -6.3572091e-01   7.7785837e-01  -6.0566848e-01  -9.5989555e-02   4.6499334e-01  -8.0713621e-01   5.7246523e-01  -8.2351830e-01  -3.3831210e-01  -5.9090533e-01   7.1383687e-01   1.5911744e-01  -1.5837120e-01  -3.3080107e-01   3.3889478e-01  -1.2800620e-01   4.4653624e-03   8.5375587e-01  -9.8577003e-01   6.5564545e-01   8.3476496e-01   4.2886588e-01  -9.7540061e-01   4.5102894e-01  -8.7234926e-01   9.8656971e-01   2.3544667e-01  -7.9698023e-01   6.4514884e-01   9.6894942e-01  -6.8745840e-01  -2.9714373e-01   2.2636786e-01   4.7055237e-01   8.9134078e-02   2.3256511e-01  -7.9769743e-01  -5.9879858e-01   1.8424596e-01   2.8381265e-01  -7.5075676e-02   9.6873088e-01  -3.8699688e-01   4.6271749e-01   1.4295269e-01   9.6650874e-01  -2.6182561e-01  -5.6448905e-01   3.5012483e-01  -5.9424065e-01  -5.9488223e-01  -2.6495312e-01  -5.1750532e-01  -5.4437424e-01   2.9404425e-01   3.9169690e-01   9.5268588e-01   2.2065520e-01   5.7546581e-01   4.7489173e-01   7.1635778e-01  -4.2228515e-01   6.4334348e-01  -1.4152105e-01   8.1159996e-01  -7.6137967e-01  -3.7645067e-01  -8.4952115e-01  -8.4714585e-01  -6.6317100e-01   9.1512447e-01  -7.8995543e-01   4.5927177e-01  -2.8273451e-01   8.0381345e-01  -2.4197495e-01   5.5446959e-01  -3.2658595e-01   9.6311010e-01  -5.0041286e-01  -5.7273859e-01  -8.2633180e-01  -5.1060156e-01   3.9591909e-01   2.9237177e-01  -1.1385293e-01   3.3372281e-02  -9.2458629e-01  -6.7355975e-01  -2.2480773e-01  -2.8892551e-01  -3.4830927e-01  -7.7462329e-01   3.0528890e-03  -4.4081066e-01   9.5975455e-01  -1.7755467e-01   5.3825182e-01   6.9760696e-01   3.8557146e-01  -5.5023374e-01  -5.3225005e-01  -7.3090012e-01  -8.4501903e-01   8.6652415e-01  -7.8507526e-01   2.7780476e-01  -1.4488687e-01  -5.3886525e-01   5.4323569e-01
  -4.4108290e-01   1.5185467e-01   7.9861023e-01  -4.3234011e-01   4.7416313e-01   6.5891841e-01  -7.9800801e-01  -1.1802933e-01  -3.1237016e-01  -6.9265481e-01  -2.4770608e-01   3.7978580e-01  -5.9739995e-01   1.2215404e-01   9.3182751e-01   4.6568333e-01   6.9661540e-02  -5.1370932e-01   2.7962478e-01  -3.2787528e-01   5.9186549e-01   1.8945589e-01  -6.5196032e-01   5.7757818e-01   6.6224863e-01   4.8760774e-01  -2.1027906e-01  -1.9302526e-01   9.9924360e-01  -9.6926944e-01  -8.4440041e-01  -7.4187175e-02  -5.8720277e-01  -5.4953809e-01  -7.0148442e-01   9.4550794e-01   5.1171350e-01   3.0068778e-01  -6.0301834e-01   2.9743159e-01  -4.8725595e-01   8.1098113e-01  -7.0532822e-01  -7.5881683e-01   3.9109972e-01  -9.7600385e-01  -8.6237634e-01   8.4470163e-01   2.4848299e-01   2.2589036e-01   4.5789972e-01  -3.6089490e-01  -2.1359646e-02  -3.3042148e-01   9.3423355e-01  -4.3611124e-01   1.7933591e-02   4.6285515e-01   6.9833133e-01   6.2327518e-01  -3.5511051e-03   7.0182910e-01  -6.7504827e-01  -7.7460978e-01   4.8706990e-01   8.9277154e-01  -1.1077211e-01   3.0865590e-01   5.3553776e-01  -5.7447089e-02  -5.9419796e-02  -5.9323825e-01  -2.2967759e-02   1.6168597e-01   1.8097080e-01  -9.2468011e-01   9.3740086e-02   3.8975187e-01  -8.7750818e-01   4.8877075e-01   9.3712376e-01  -5.1785340e-01   8.2743301e-01  -3.1419931e-01   6.1259592e-01  -9.0300372e-02   9.7707488e-01   6.4008958e-01  -8.0821263e-01   9.4344965e-01  -6.4094089e-02  -1.3003754e-01  -5.7804391e-01  -3.1794282e-01   8.9977630e-01  -7.2943856e-01   9.7411603e-02  -1.3327738e-01   7.6886678e-01   5.2275097e-01  -9.7640684e-01   3.7333486e-02  -9.0714586e-01   3.8618772e-01  -5.8343228e-01  -4.1283804e-01   8.2655347e-01  -2.6580623e-01   3.0161632e-01   8.2306305e-01   3.7610403e-01   3.4142611e-01  -1.1245808e-01   5.0648911e-01   3.7624907e-01   6.3261256e-01  -6.4952141e-01   3.6870590e-01   4.2534992e-01  -8.9244258e-01  -9.9644988e-01   3.3253776e-01  -2.0412167e-01  -9.3893208e-01  -9.7011813e-01  -6.1002063e-01  -9.8442735e-01  -3.3652674e-01  -2.2443749e-02  -4.7952179e-01   7.9225655e-01   3.6099336e-01  -2.7176074e-02  -2.0385363e-01  -8.9207719e-01  -7.1223286e-01  -7.5811392e-01  -8.7297475e-01  -4.0177382e-01   8.8837670e-01   5.3295651e-01  -4.8328844e-01  -2.9836862e-01  -1.9197013e-01   9.4515697e-02  -7.1321423e-01   9.0493996e-01  -1.9712057e-01   1.7447754e-01   9.6905264e-01  -2.0926551e-01  -3.2657658e-01   8.8630396e-01   9.5853181e-01  -9.1171475e-01  -9.0606585e-01   7.1952749e-01  -9.4427684e-01   8.1613238e-02   3.3258014e-01  -6.3102513e-01   5.8565253e-01  -4.6242721e-01   1.0664748e-01   6.0491692e-02   6.0826726e-01   4.9499512e-02   1.1676053e-01  -4.8754320e-01   4.8850985e-02  -6.1034403e-01  -9.1598891e-01  -6.6691769e-01   5.3981661e-01   3.2969805e-01  -5.3496325e-01  -7.1787731e-01  -1.2914969e-02   5.1022642e-01   4.0640586e-01  -2.4875786e-01  -6.7417946e-01   6.9366834e-01   4.0741718e-02  -2.1661682e-02  -9.1584424e-01   5.6290869e-01   5.0031024e-02  -4.9643972e-01  -7.9086408e-01  -3.7514895e-01   3.6192789e-01   4.5023764e-01   2.9601512e-01   6.0001775e-01  -6.8092582e-01  -4.4830324e-01  -6.0391069e-01   4.1576270e-01  -7.5431571e-01   1.1749890e-01  -4.1501757e-01   8.9408000e-01   5.8371706e-01   6.8943241e-01  -8.5440081e-01  -6.1677140e-01   5.2403342e-01   7.7307492e-01  -6.2749495e-01   2.6660562e-01  -4.6144537e-01  -1.1656099e-01   6.7424700e-01   8.3689442e-01  -9.4077876e-01   3.9276965e-02   5.9870666e-01   5.9191215e-01  -5.0494218e-01   9.2018090e-01  -5.5180221e-01  -2.8619699e-01   5.5004302e-01  -6.3659720e-01  -9.9157299e-01  -9.0244454e-01   9.8156775e-01  -4.0252558e-01   9.5624767e-01   3.3717246e-01  -9.4388481e-01  -7.2184205e-01  -8.3062188e-01   3.7552677e-01  -6.1947203e-01  -9.9681225e-01  -9.4693403e-01   8.2766394e-03  -4.5146457e-03  -8.1256814e-01   7.0029206e-01  -3.8553879e-02  -2.7471382e-01   4.5888785e-01   2.3269183e-01  -1.8945858e-01  -8.2401363e-01  -9.9443389e-01   4.8591530e-01   3.0164398e-01   8.1348226e-01   4.0055959e-01   2.3696056e-01  -1.7847792e-01   1.1506743e-01  -6.2892425e-01   9.7969949e-01   1.9819602e-01   4.4160797e-01   1.6742174e-01  -1.3801491e-01  -9.8493458e-01  -4.0304662e-01  -2.9796739e-02   2.0314813e-01   4.1962934e-01  -1.3560744e-01   2.0431665e-01  -3.5170642e-01   9.4660424e-01   8.1229881e-01   8.5873995e-01  -8.7043908e-01  -2.3676474e-01  -4.1957781e-01   9.3537611e-01   4.9207606e-01   7.5226466e-01   9.5243632e-01  -5.9030715e-01   7.0252443e-01  -8.8912124e-01   9.9367016e-01   1.3140283e-01  -2.2062859e-02  -6.9631599e-01  -6.5305642e-01   6.7240689e-01  -5.4430924e-01  -9.1433857e-01   4.4625014e-01   6.5867039e-01  -5.7725156e-01   4.0593196e-01   4.1513484e-01  -1.7339643e-01   1.8493424e-01   3.8934222e-01   4.1791686e-01  -8.7317381e-01   5.2982458e-01   2.0221797e-01   8.8094346e-01  -2.4465385e-02   8.3925741e-01  -1.9274963e-01   6.8438529e-01  -2.6641852e-01   7.7986543e-01   6.1501644e-01  -4.9449529e-01  -8.8324204e-01   3.9111051e-01  -5.5332543e-01  -8.6723203e-01   1.1753336e-02  -5.1244066e-01   1.0909777e-01   8.7127764e-01  -2.1163071e-01  -2.8036063e-01   8.8740210e-01   5.2972137e-01   9.8809256e-01  -8.6568500e-01  -3.6332742e-01  -3.7606299e-01  -8.8078028e-01   7.2015392e-01  -1.7775468e-01   4.0336361e-02   1.4924510e-01  -7.7611744e-01  -2.5588172e-01   3.1494871e-01   3.7345106e-01   8.4225544e-01   8.6696482e-01  -8.5048393e-01   1.1798696e-01  -9.0971891e-01   5.6499157e-02   4.6589090e-01  -9.0010200e-01  -8.1133348e-01  -9.8031624e-01  -1.3937747e-01   9.0741589e-01  -1.5183157e-01  -5.6838966e-01   8.9297131e-01   3.9626179e-01  -5.1220116e-02   3.8245242e-01  -5.5982053e-01  -2.8578014e-01   7.3086006e-02   7.4694862e-02   2.9887040e-01  -6.6063565e-01   7.1016733e-01  -3.7884422e-01  -7.4854672e-01   2.3552816e-01   5.4639651e-01  -1.2336207e-01   9.6399750e-01   1.2506961e-01  -1.8001452e-01  -1.0494007e-01  -4.8360786e-01  -4.4165645e-01   8.7503548e-01  -9.6520677e-01   6.3723786e-01  -5.8042512e-01   3.5403522e-01  -1.4176679e-01   3.2152536e-01  -1.0310721e-01   4.3154098e-01   1.5245372e-01  -3.1883546e-02   2.3719798e-01   1.9355600e-01  -4.2415514e-01   6.4764271e-01  -6.8692135e-01  -6.3760454e-01   6.4580358e-01  -6.4935880e-01   9.3465299e-01  -7.9175874e-01  -9.7884273e-01  -5.5324917e-01   9.5490013e-01  -5.8623767e-01  -5.3062469e-01   5.1136219e-01   1.7574620e-01   9.1495722e-01  -7.8550777e-01  -7.8940707e-01  -7.7082360e-01   6.0539307e-01   9.1115924e-02  -6.6599996e-01  -4.1029995e-01  -4.1930583e-01   8.0808147e-02   8.8209556e-01   9.2667881e-01   3.6254525e-01   9.4302478e-01   5.5567239e-01  -5.5088161e-01   5.8441041e-01  -3.1216922e-01  -8.5266556e-01  -1.7639817e-02  -1.4846500e-01   9.2978305e-01  -6.2371976e-01  -8.8664233e-01   5.7076172e-01   1.1303773e-01   2.8665557e-01   7.6990579e-02  -8.6382576e-01  -8.5930386e-01  -3.4431994e-01  -5.1359063e-02   6.2459394e-01  -2.0393002e-01   6.2109193e-01   2.3157952e-01  -6.6953943e-01   6.5139634e-01   1.4358788e-02  -7.5713644e-01   5.0448896e-01   5.2068210e-01   2.1994036e-01   3.0732942e-01  -9.5687958e-01  -3.2248017e-01  -3.4743628e-01  -9.1661965e-01  -4.4030260e-01   1.7580921e-01  -4.2609459e-01  -9.7912609e-01  -2.2486214e-01  -8.7793132e-01  -5.5297486e-01  -3.7682932e-01  -4.6568213e-01  -5.5691634e-01  -8.3049718e-01  -9.2525046e-01  -3.5003213e-01   1.3930724e-01   1.3329134e-01   1.7116241e-02  -1.0690921e-02   8.9032707e-01  -8.6644669e-02   4.7264689e-01  -1.6661218e-02   4.9516221e-01   5.7749000e-01   5.8562465e-01   4.4308647e-01  -6.3386889e-01  -8.5918536e-01   9.2419434e-02   1.4301697e-02  -2.2295816e-01  -6.9186334e-01  -2.2395821e-01   6.6729549e-01   5.0280132e-02   7.3713894e-01   5.8387410e-01  -5.1570756e-01  -2.7580381e-01   8.8775372e-01   9.8136222e-01   2.6102745e-01  -7.8067450e-01  -6.5056878e-01  -7.3424109e-01   3.9235435e-01  -8.3644754e-01  -5.0684431e-01   7.5622639e-01   3.9336916e-01   1.9950662e-01   4.5606233e-01   7.7080930e-01  -1.3970095e-01  -7.2289547e-01   6.6661020e-01  -9.1267355e-02   7.9703303e-01   8.2383573e-01  -1.3977730e-01   5.0013070e-01   7.0884640e-01  -5.7332564e-01   6.4972111e-01  -2.1190069e-01   7.0840802e-02   1.1716819e-01  -8.4635643e-01  -6.7220238e-01   2.5679253e-01  -4.0969677e-01   9.8627249e-01   1.8327465e-01   2.7227615e-01  -6.3028331e-01  -7.6180871e-02  -4.4009110e-01  -1.0065203e-01  -3.5795401e-02  -6.4674882e-01  -9.9186604e-01   6.4746511e-01   9.6748464e-01   5.3477272e-01   8.7025884e-01   8.0435115e-01   3.2571583e-01   2.9519583e-01  -4.7799670e-02  -9.8439022e-01  -8.7757224e-01  -5.6573247e-01  -1.5498435e-01   5.9784460e-01  -4.6090924e-01  -5.7566426e-01  -1.7190453e-01   9.7576266e-01   3.7620116e-02   6.0550252e-02   5.7197022e-01  -1.5041645e-01  -8.4484115e-01   2.4359550e-01  -9.9490532e-01  -2.9368564e-01  -6.5099324e-01  -5.6774339e-02  -8.4640483e-01  -4.3991028e-01   9.5584462e-01   8.8221019e-01   5.9998845e-01  -3.7893982e-01   4.5801801e-01  -8.8082181e-01   7.2593347e-01  -1.1876186e-01  -5.4606184e-01  -9.7532361e-01   3.7213112e-01  -8.6015300e-01  -2.4558653e-01  -5.5536991e-01   8.2697562e-01  -1.0653408e-01  -8.1711837e-01  -6.1201519e-01   8.4593062e-01   8.2876661e-01   9.0357901e-02   2.8351357e-01  -6.5308579e-01   6.9373989e-01   3.7614308e-01  -4.4218847e-01   1.3050956e-01   6.0289790e-01  -2.0969382e-01  -4.9253746e-02   5.5513477e-02   7.0921535e-01  -3.1524322e-01  -1.8927524e-01  -5.6988333e-01   6.2744348e-01   9.2279942e-01   2.8364121e-01   4.8232241e-01   6.3560098e-01  -6.3406711e-01   7.1954906e-01  -6.3243030e-01   1.4627202e-01  -6.4462194e-01  -9.9761142e-01   4.7204711e-01  -5.2664801e-01   5.2084850e-01  -4.1565198e-01  -6.9712046e-01  -7.8045895e-02  -3.6088689e-01  -1.8787063e-01   7.5859883e-01   7.4730182e-01  -1.0006085e-01   8.0966133e-01   9.5722155e-01  -6.8147200e-01  -6.1201902e-01  -8.9751243e-01   3.9812133e-01  -3.5500773e-01  -1.9606979e-01   2.6301637e-01  -2.6606218e-01  -7.5683067e-01  -1.4831321e-01  -5.2494425e-01  -9.4503264e-01   5.8854126e-01   8.1630386e-01  -9.1952330e-02   6.0826295e-01   9.1705845e-01  -7.9611590e-01  -2.5541090e-01  -5.6460781e-01   2.2544099e-01  -4.0959859e-01  -1.8237896e-01   1.7254945e-02   1.2515874e-01   1.3995536e-01   5.9020715e-01   6.0022005e-02  -4.4993854e-02   6.7774902e-01  -1.7944344e-01   3.1110606e-01   8.1952577e-01  -9.4430258e-01   9.9557681e-01  -1.0028740e-01  -2.8545123e-01  -1.5523436e-02   6.6367378e-01   5.3356176e-01  -6.4632163e-01   3.8093704e-01   5.8612647e-01  -6.0613110e-01  -7.9085984e-02   4.8472648e-01   5.1827824e-02   7.2610392e-02  -4.0528112e-01   8.7835826e-01  -4.5234339e-02   8.3042850e-03  -5.0622655e-01  -8.3817052e-01  -8.1081407e-01   9.6904033e-01  -8.2562624e-01  -4.0145714e-01  -9.7410372e-01  -7.7581156e-01  -2.0332758e-01   5.5601155e-01   7.1157821e-01   3.7799983e-01   1.6624694e-01  -5.7721086e-01   1.8618690e-01   3.5034513e-01  -6.5187518e-01  -6.2022728e-01  -3.2432817e-01   9.5828658e-01  -6.5514137e-01  -6.0381590e-01  -8.5969783e-01  -4.3369829e-01  -2.6515681e-01   4.2486237e-01   4.6939159e-01  -1.4005669e-01  -2.0775328e-01  -9.7610786e-01  -9.8390972e-01  -3.2080003e-01   8.5250726e-01  -7.6807013e-01  -4.1037997e-01   2.4423269e-01  -6.5814098e-01  -4.3287574e-01  -3.9899793e-01  -2.7504236e-02   6.4175955e-01   9.9550808e-01   3.2301487e-01   6.6550463e-01   2.2489337e-01   4.3273407e-01   3.5080026e-01  -6.2828262e-01  -6.3787150e-01  -5.9597519e-01  -1.2555451e-01   9.8779660e-01   7.1071401e-01  -9.3816466e-01   5.5770765e-01  -3.7649148e-01   6.8854683e-01   7.1644496e-01   6.5035111e-01  -7.3895966e-02   2.2806068e-01   7.4882290e-01   4.9680185e-01  -7.3166065e-01   1.7033995e-01  -5.4714375e-01  -6.7503031e-01   5.9492251e-01  -8.6764439e-02  -9.3383139e-01  -3.0850499e-02   3.1031742e-01  -3.8190000e-02   4.8835882e-01   2.5168440e-02   2.8988939e-01   9.4321776e-01   3.8544911e-01   1.1294779e-01  -1.9329308e-01   5.0204029e-01  -8.9453324e-01  -3.5014780e-01   6.2746953e-01   2.8138909e-01   6.9048275e-01  -3.2816369e-01  -3.8055719e-01   1.8170525e-01   3.0785532e-01  -2.2933821e-01  -4.6218099e-01  -6.3893357e-01  -5.6635703e-01   2.4375312e-01   3.8063501e-02  -9.7974397e-01   8.2814183e-01   8.5847319e-01   9.4231984e-01   8.6456259e-02   4.0220709e-01   6.5587866e-01  -9.5324168e-01   5.3933676e-01  -1.3294995e-01  -6.1083502e-01  -9.7675619e-01  -9.7079395e-01   7.0662183e-01   8.9071131e-01  -6.1125553e-01   8.3509688e-01   3.8282685e-01   4.1045444e-01  -2.9972571e-01   8.5083508e-01  -6.2979296e-01  -6.9936511e-01   4.0833535e-01  -9.1817043e-01  -8.3245504e-01  -5.9914168e-01  -4.4234476e-01   6.7311521e-01  -4.1903416e-01  -9.0736642e-01   7.9207931e-01   2.8827632e-01   7.7220200e-02   6.5609479e-01  -7.3426383e-01  -2.7007443e-01   6.4700971e-01   5.5414542e-01  -1.4226111e-01   4.0865492e-01   9.1506283e-01  -7.8124770e-01  -2.5929482e-01   9.3796300e-01  -5.2081262e-01   5.3707559e-01   4.1559609e-01  -5.8007589e-01   6.5402271e-01   4.4378030e-01  -6.0517448e-01   7.8989366e-01   9.6909788e-01   2.0397407e-01   4.1517249e-01   4.7962952e-01   9.9129814e-01   3.9529476e-01  -3.3906561e-01   6.5764683e-01   8.6375730e-02   3.3960857e-01  -1.5838282e-01  -9.4008289e-01  -3.6005486e-01   5.7727280e-01   3.0175677e-01  -4.6181998e-01  -8.4031098e-01   1.7483460e-01  -1.0001780e-01   8.4980993e-01   2.5646285e-01  -7.2572805e-01  -9.0765665e-01   3.2396154e-01   6.4088510e-01   8.0844108e-01  -1.7493659e-01   3.2377086e-01  -2.3919301e-01   8.5246730e-01   4.4898830e-01  -9.5309139e-01   9.4395477e-01   8.0222079e-01  -8.8106722e-02   9.5922322e-01   3.6961331e-01   7.9039128e-01   2.0777025e-01  -1.6270133e-01  -1.4703485e-01   7.5658044e-01   2.7501085e-01   7.7122221e-01  -1.7425766e-02   8.6744572e-01   5.5361647e-01   9.4677702e-01  -1.9617160e-02  -6.6977827e-01  -4.9403752e-01   7.3688166e-01   1.6988882e-01   2.7381903e-01   6.0858000e-01  -4.7066938e-02   7.5612655e-01  -6.7596448e-01   2.4098066e-01  -2.6741142e-01  -2.9578797e-01   1.5772780e-01   6.0169916e-01  -1.8394216e-01  -8.6137975e-01  -7.5753703e-02   7.3595756e-01   6.1693107e-01   3.8139185e-01  -9.9265706e-01  -7.2089378e-01  -7.5340262e-01  -3.9243307e-01   3.6166600e-01  -3.1454503e-01   5.8905998e-01   2.1273530e-01   5.7865487e-01  -4.7665987e-01   7.3575307e-01   5.6500493e-01  -7.4990719e-02  -5.1584442e-01   2.4641830e-01   6.8538780e-01   3.3349637e-01   1.3136202e-01  -6.8698086e-01   3.4745842e-03   4.2658232e-01  -4.7335256e-01   3.9714660e-01  -9.2458551e-01  -8.1268442e-01  -9.4229308e-01  -5.5090689e-01   9.8510358e-01  -5.1500096e-01   3.9882961e-01   4.9851387e-01  -5.1192499e-01  -4.5901453e-02   9.0714664e-01   9.4823213e-01   5.6397679e-01  -8.0889575e-01   7.5024627e-01  -6.3161557e-01   3.4516169e-01  -2.8785455e-01  -1.8900715e-01   4.4349181e-01  -1.1795205e-01  -8.9994470e-02   5.7043113e-01   6.8664063e-01   4.4909108e-01   2.3031908e-01  -6.6827500e-01  -8.5546503e-01   4.3571734e-02  -1.0434043e-02   1.1484285e-01   4.3919936e-01   7.7991252e-01  -3.6246661e-01   4.8708405e-01   8.5332102e-01  -1.9300251e-01   3.9533532e-01  -8.1236203e-01  -6.7994619e-01   7.5247454e-01   4.3635942e-01  -1.8795117e-01   5.2592196e-01   9.0689482e-01   6.5553038e-01   1.8625008e-01   5.9308278e-01  -8.0893559e-01   8.0737176e-01   8.2922698e-01  -7.3136470e-01   6.3438420e-01   6.4346252e-01   6.9085488e-01   1.4983647e-01  -5.6891673e-01   5.5576352e-01   3.6432489e-01  -5.8427462e-01  -8.3932194e-01   3.0460693e-01   6.4550249e-01  -8.8502781e-02   1.8547582e-01  -3.8910951e-01   9.9922867e-01   3.8776029e-01   1.1191524e-01  -1.4754789e-01   2.7139208e-01  -5.6161812e-01   2.5741180e-01  -9.5550729e-01   7.0177203e-01   4.9216018e-01  -9.2723024e-01  -7.2295847e-01  -3.2361112e-01   4.8547054e-01  -7.5048878e-01   7.5149679e-01   2.6653028e-01  -3.8529723e-01   5.5119010e-01   6.0337754e-01   4.1655376e-02  -9.1935619e-02   7.5696057e-01   1.5293886e-03
  -7.2925726e-01   8.4274449e-01   7.3482085e-01  -8.0093062e-01  -3.0008880e-01   1.7171194e-01   6.0451143e-01  -9.9492859e-01   8.5276054e-01  -9.4078532e-03  -4.8681295e-01  -7.0949168e-01  -8.0205763e-04   4.3202819e-01   4.7103212e-01   3.0476042e-01  -5.4776753e-02  -5.2329254e-01   7.2363051e-01   3.7507041e-02  -3.2017822e-01  -5.7339539e-01  -1.4677441e-01   4.1775473e-01   8.1815811e-01  -7.8219219e-01  -1.2718928e-01   2.4689216e-01   2.0674732e-01  -5.2686608e-01  -3.5504400e-01  -5.2720990e-01   9.6603040e-02   1.2238893e-01  -4.2911016e-02  -7.3416343e-02   6.3726691e-01   6.3929178e-01  -5.8626427e-01   7.4551485e-01   3.1809296e-01  -3.7579122e-01  -7.0315414e-01   3.6023980e-01   7.9115814e-01   8.2349993e-01  -9.5496401e-01  -4.9378018e-01   3.2142293e-01  -1.8310859e-01  -2.2409968e-01   9.4928089e-01   8.5570412e-01  -4.1976021e-01   5.6900066e-01   8.9642972e-01  -9.4839178e-01   6.0626802e-01  -6.2459098e-01  -1.8985977e-01   5.0498668e-01  -9.7112210e-01   1.1072753e-01  -1.5240943e-01  -9.5174957e-01   8.2510845e-01   1.2646392e-01  -9.0908403e-01  -2.2864714e-01  -1.9738641e-01  -3.9936236e-01  -9.8920405e-01   2.0472238e-01   4.7362368e-01  -5.4670888e-01   1.5696328e-01   7.8761978e-01  -9.6841201e-01   2.1299625e-02  -5.5031388e-01   6.9042821e-02  -6.4724616e-01  -4.4615727e-01  -2.0472072e-01   4.6959030e-02   1.7389798e-01   9.0747009e-01  -3.4420938e-02  -6.9138329e-01   2.5545067e-01  -4.3358149e-01   1.5474011e-03   7.8318598e-01   8.7085187e-01  -3.1994560e-01  -1.9546516e-01  -1.2773193e-01  -3.2690623e-01  -7.3157962e-01  -4.3239354e-01  -8.2462203e-01   5.6807278e-01   9.9286655e-01  -8.3916788e-02   3.4199670e-01   7.6335184e-01  -5.6362563e-01  -2.0744698e-01  -9.6197162e-01  -9.9937354e-01  -7.5686353e-02  -6.8902150e-01  -5.1731041e-01   8.9594684e-01   6.6817074e-01  -1.8256686e-01   5.7227173e-01  -2.9462799e-01   6.3510902e-01   7.3161325e-02  -4.2307361e-01   9.3455732e-01  -4.5348329e-01   6.0834767e-01  -1.6580654e-01  -2.1535763e-01   8.5829485e-01  -2.0705172e-01  -6.3670880e-01   4.6324867e-01  -2.2959587e-01  -3.7643331e-01  -9.0009135e-02   3.9432300e-01   9.5472352e-01  -4.9958448e-02   6.0332580e-01  -5.8112399e-01  -6.7585733e-01   8.3038944e-02  -6.6267441e-01   1.2256544e-01   4.0798377e-01  -9.1424318e-01   9.4167527e-01   3.5203565e-01   8.2877901e-01  -8.9079949e-02  -9.6831874e-01   7.5900859e-01   6.1339068e-02  -7.2571063e-01  -7.2631284e-01  -4.8356657e-01  -8.2310543e-01   3.9026209e-01  -9.6574718e-01   3.7639240e-01   1.4864101e-02   7.7225165e-01   3.1480128e-01  -4.0861621e-01  -4.0224157e-01  -9.3047884e-01   4.2182663e-01  -1.2115590e-01  -1.9794202e-01  -2.3208202e-01  -1.6261724e-01   5.8673762e-01   5.8823246e-01   7.7579447e-01   1.3107553e-02   7.5375826e-01   9.6719620e-02  -1.0033855e-01  -3.6177716e-01  -6.2845881e-01   6.4162309e-01   4.7776508e-01  -4.3720979e-01   2.9535501e-01  -2.4004753e-01   8.4339128e-01   3.2357458e-01   7.2618825e-01  -3.9951884e-01   3.1942306e-01   6.9906569e-01  -1.8380621e-01  -5.2918310e-01  -1.9248814e-01   5.1216932e-01   7.9917007e-01  -4.5228117e-01  -2.6177314e-01  -9.5991675e-02  -5.6483595e-01   8.5986764e-01  -1.2217872e-01  -6.0246692e-01   9.2073377e-01  -5.0239377e-01   7.7821462e-01   5.4437460e-01   7.2610598e-01  -6.5786851e-01   9.4104661e-01   3.7335082e-01  -8.4967461e-01   6.6684526e-01   6.2819288e-01  -2.6410674e-01  -9.5019473e-01  -4.5044541e-02  -7.0777122e-01   6.4614189e-01  -1.5705239e-01   9.9126599e-01  -6.9749458e-01   3.5870931e-01  -1.8986562e-01  -6.3053489e-01   8.1563224e-01  -9.3873486e-02  -7.1184617e-02   3.2883943e-01   3.2191987e-01  -3.4947231e-01   2.0534433e-01   6.0252638e-01   3.9757503e-01  -1.0179516e-01   6.6518968e-01  -9.6168065e-01  -6.7442763e-01   5.1119629e-01   6.6149179e-01   6.8596907e-01  -3.1649893e-01   2.1420159e-01   2.5781738e-01  -5.2594918e-01  -3.1813451e-01   7.2683056e-01   6.4861192e-01   7.0754369e-01  -1.5106308e-01  -1.9251184e-02  -2.0621213e-01  -2.5837129e-01  -2.7304528e-01   8.4213557e-01   7.1257355e-01   7.8536851e-01  -8.1815779e-01   2.4185515e-01   8.4957243e-01   7.9228286e-01   2.0092954e-01   2.6993723e-01   4.3470571e-01   6.6495256e-01  -4.2509106e-01  -7.1347733e-01   7.6630162e-01  -9.9180478e-02   1.6292972e-01  -8.3374328e-01   8.1261924e-01   3.0530114e-02   9.4108838e-01   3.0424845e-01  -4.8456604e-01  -9.2775112e-01  -4.2395575e-01  -4.5962485e-03   8.5355267e-01  -3.3017017e-01   4.1653780e-01   8.8245160e-01  -7.2888056e-01   5.6919120e-01   8.5795863e-01  -8.0955155e-01  -5.5659355e-01  -2.8285718e-02  -3.8296816e-01  -6.7205557e-01  -7.2705342e-01  -4.4335467e-01  -6.5735892e-01   3.3692648e-01   2.8936926e-01   7.3490829e-01  -2.3460581e-01  -2.2196574e-01   5.7453979e-02   4.8050753e-01  -2.1096416e-02  -3.4900398e-01   7.4121705e-02   6.3041678e-01  -4.1143813e-01   8.5942511e-01   4.2171242e-01   3.7808028e-02   2.3253431e-01  -5.8547187e-01   3.8499321e-01  -9.0030098e-01   5.4022063e-01   1.3603252e-01   7.2207804e-01   3.2156173e-01  -7.4639515e-01  -7.4849983e-01  -4.4277954e-01   4.8804499e-01   4.1395893e-01  -3.7614637e-01  -1.2432442e-01   9.9983693e-01  -6.0828674e-01  -5.6901224e-01   9.0356548e-01   6.0198090e-01   5.3111307e-01  -4.9569150e-01  -6.0698034e-01   9.6104216e-01  -9.6964778e-01  -3.2070043e-01   5.7132896e-01  -6.2051867e-01   3.2689515e-01   3.0950760e-01   9.1105613e-01  -1.8344771e-01   9.0814634e-01   5.3226906e-01  -7.2340709e-02  -3.6077609e-01  -7.7700221e-01  -6.8164925e-02   3.9491350e-01   4.4834249e-01   9.9682813e-01   5.7886948e-02  -1.5573582e-01   6.5519276e-01  -6.0827197e-01  -3.8115444e-01   8.2267569e-01  -2.9975762e-01  -6.3077048e-01  -4.6503188e-01  -3.9189450e-01  -6.4105426e-01   3.3574360e-01   7.4450155e-02  -5.3298033e-02  -8.3653650e-02  -3.1223399e-01   7.0898700e-01  -4.4654185e-01  -5.1815653e-01   7.6871172e-01  -8.6095679e-01   6.6476936e-01  -2.3914785e-01  -3.0400383e-01   7.2605624e-01  -6.0003125e-01   3.5233126e-01   7.7909772e-01  -3.8807608e-01   2.7780071e-02  -4.9510773e-01  -3.6300390e-01   4.4368385e-01   9.9284277e-01  -1.1183354e-01   1.2667961e-01   2.7787399e-01  -4.0734766e-01   7.5883647e-01   2.5666420e-01   4.2224921e-02  -1.7523887e-01  -1.8359997e-01   5.0563773e-01  -9.2271382e-01   7.9285182e-02   9.8045095e-02   5.6896794e-01   9.5743921e-01   4.6972926e-01  -5.0695341e-01   3.5213088e-01  -8.4700230e-01   6.4011023e-01   3.8256307e-01  -1.6183849e-01  -8.4489872e-01  -9.9684216e-01  -7.5186104e-01  -7.6867373e-01   9.9348313e-01   7.4218778e-01  -6.1835590e-01   3.6681164e-01  -3.9957202e-01   6.5982736e-01   5.1149046e-01   5.3914554e-01  -3.4560727e-01   4.7887895e-01  -3.3361187e-01   1.1676392e-01  -6.6366495e-01   1.8339335e-01  -7.3633586e-01  -8.3760045e-01  -3.6256728e-01   4.8031449e-01   1.9667272e-01  -7.3822989e-01   1.4510033e-01   9.0277820e-01   8.0488747e-01  -6.7924289e-01  -7.9533862e-02   5.1587347e-02   7.9466865e-01  -2.2807604e-01  -8.5691072e-01   6.0347218e-01  -8.7598797e-01  -4.2515760e-01  -7.7294277e-01  -6.3770482e-01   4.1978429e-01   6.3034875e-01   6.0056866e-01   4.7941714e-01   6.9547243e-02  -7.2346579e-01  -7.7255940e-01   8.1997034e-01   8.3081931e-01  -2.8279215e-01   3.3547204e-01  -5.3267761e-01   8.1696532e-01   5.8399618e-02  -5.3589384e-01   8.3825667e-01   1.8591210e-01  -7.5144098e-01  -4.0987890e-01   5.9684468e-01   1.3312468e-01  -2.4794203e-01  -1.9993179e-01   8.8204167e-01  -3.5084844e-01   6.7251233e-02  -9.4096304e-01   5.9680140e-01   5.1972912e-01  -7.7493837e-01  -3.0814708e-01   7.4632255e-01  -6.0218130e-01   1.1648404e-01   7.2884965e-01  -2.3293276e-01  -7.8933556e-01   8.8711521e-01   1.0435894e-01   8.5745398e-01   5.2006870e-01   2.1799219e-01  -3.2712354e-01   7.8658385e-01   9.6142220e-01  -4.0500835e-01  -3.4483193e-01   7.1277981e-01  -2.8445347e-02  -5.7133190e-01  -1.6615912e-02  -3.3468398e-01   4.9513922e-01  -1.2660481e-01   5.4653032e-01  -7.6745364e-01  -8.0214195e-01   5.3194023e-01   2.9531104e-01   3.7719232e-01   2.7631782e-01  -6.1548405e-01  -5.7135430e-01   5.0754940e-01   8.5293361e-01   9.7675833e-01  -8.3085391e-01  -2.4755148e-01  -6.7183046e-01   5.5701156e-01  -4.7926442e-01  -5.7328661e-01   2.5137956e-02  -6.4103653e-01  -9.0743912e-01  -2.5668301e-01  -9.2182843e-01  -9.9810561e-01  -5.3823992e-01  -1.7562075e-01  -3.5923729e-01   7.7849311e-01   6.8120862e-01   2.4117853e-01   6.9752511e-01  -1.1151666e-01   4.0139736e-01   7.4516348e-01  -2.1105025e-01   5.1241530e-01  -7.7665806e-01  -6.7734910e-01  -3.3283645e-01   1.1580568e-01  -6.3465309e-01  -6.4323273e-01  -4.0224761e-01   7.3659754e-01  -6.3066627e-01  -2.7397535e-01   4.2951409e-01   5.7509657e-01   3.9864297e-01  -8.9381962e-01   2.8588318e-01   7.0222988e-01  -4.3943096e-01  -3.3508395e-01  -7.3977707e-01  -2.2335843e-01  -7.9548195e-01   6.3695049e-01   7.7516140e-01   7.2839642e-01  -5.8876323e-01   6.6328909e-01  -7.5540318e-03   3.2758450e-01  -6.4867097e-01  -8.4498952e-01  -7.3680102e-01  -1.3003723e-01  -6.0265758e-01  -4.6671684e-02   5.1332395e-02   9.3327993e-01   5.0509601e-02   3.8533759e-01   6.0415746e-01   9.0765283e-01  -9.6913114e-01   1.1218227e-01  -1.4123030e-02   4.6044028e-01  -9.0698878e-01  -8.3241459e-01   7.4870183e-01   5.8278364e-01   7.0118299e-01   6.1175883e-01  -8.6263460e-01   9.5358489e-01  -2.4107580e-02  -3.4603312e-01   1.0597450e-01  -5.6217809e-01  -7.9959741e-01  -1.1659210e-01   4.2621343e-01  -1.7011805e-02  -3.0566943e-01   3.7174029e-01   8.0905862e-01   8.4844508e-01   2.0681850e-01  -2.9018477e-01   7.5240189e-01   1.5442713e-01  -3.8336742e-01   5.5034455e-01   2.5735029e-01   5.2086618e-01  -8.3069271e-01  -3.5203968e-01   5.6240394e-01   6.1549342e-01  -8.8780134e-01   1.8739432e-01  -6.9634747e-01   3.3121193e-01   1.8345840e-01   6.8989463e-01  -4.5096156e-01   7.8051292e-01  -7.8269570e-01  -5.0655865e-01  -6.3750361e-01   4.2221863e-01   9.0883374e-01   1.0729703e-01  -4.5083496e-01   7.4631749e-01  -1.5285485e-01  -2.5990234e-01   9.9653701e-01   1.8627922e-01  -3.6004854e-01   8.1373196e-02   3.1223865e-01  -4.1526637e-01  -5.7560778e-01  -9.3394736e-01   3.4900534e-01  -8.4973176e-01   8.9205556e-01  -9.3099724e-01   8.8575609e-01  -3.1443406e-01  -4.8171700e-01  -2.3283392e-01  -2.6607096e-01  -7.7828244e-01  -2.6401789e-01  -9.2559051e-01   3.7720864e-01  -4.5566996e-01   2.0568864e-02   3.8274902e-01   5.2942083e-01   6.9274618e-02   1.1038803e-01   2.4818333e-01   7.5748836e-01  -4.8777774e-01  -5.3169741e-02   2.3835541e-01   9.5787085e-01  -3.1914312e-01  -4.0606935e-01   7.7345634e-01  -4.0780893e-01   1.9964061e-01  -4.5663081e-01  -7.0892999e-01  -2.6667270e-01  -4.1983996e-01   8.2701095e-01   1.1152932e-01  -2.8375640e-02  -8.4524033e-01  -1.8364068e-01   1.4908211e-01  -8.0660001e-01  -2.8082603e-01   7.2835301e-01   1.1978579e-02  -4.5216870e-02  -9.1425465e-01  -1.5384641e-03  -5.8771588e-01  -4.7846075e-01   2.4238252e-03  -2.6838268e-01  -8.7112752e-01  -6.2686117e-01  -6.0823529e-01   8.7405388e-01  -4.4363180e-01  -5.2782751e-01   5.6673561e-02  -8.6976229e-01   8.3486359e-01  -7.5786000e-01  -9.8353650e-01  -8.1232592e-01  -5.4004746e-01   2.1477406e-01   6.7604782e-01  -4.1777779e-01   4.5379980e-01  -4.6273154e-02  -2.2297938e-01  -1.4983679e-01   5.1118464e-01   6.9788943e-01   7.7405181e-01  -1.5161614e-01   6.1423061e-01  -8.7805731e-01  -7.5140914e-01  -5.0798668e-01  -3.4472188e-01   1.9662012e-01   5.1570105e-01   9.4328963e-01   6.9449092e-01   9.7949410e-01   6.0056527e-01  -9.6441510e-01  -3.0588269e-01   4.3437833e-01  -4.1822809e-01   9.1766756e-01  -9.0870327e-01   9.9974039e-01  -2.3049816e-01  -4.1037491e-01   3.9288933e-01  -4.8459677e-01   6.7192053e-01  -7.4519242e-01  -3.4735900e-01   4.7474271e-01   8.4921036e-02  -4.4959394e-01  -1.2615895e-01  -6.6074479e-01   4.0504631e-01   1.2211898e-01   1.5549902e-01  -9.1704367e-01  -6.7409872e-01   9.3378681e-01   5.2164891e-01   3.7350180e-01  -4.0286432e-01   4.2099921e-01   7.8393971e-01  -2.9462490e-01   8.1882307e-01   4.7170302e-01   6.2351564e-01  -5.3501368e-01   5.6625078e-01  -7.1318659e-01  -6.6383451e-01   3.6919350e-01  -9.7742196e-01  -8.3519786e-01  -4.8930475e-01  -8.9029632e-01   6.2877345e-01   5.1350332e-01   1.5129854e-01   7.6131757e-01   1.6372269e-01  -3.7255067e-01  -2.8488044e-01  -6.7517181e-01   6.4654080e-01  -4.0442834e-01   6.9723208e-01   3.1968765e-01   1.7714346e-01  -9.5344685e-01  -8.2195180e-01   2.8697958e-01   7.6095728e-01   9.4724147e-01   3.1611685e-01   7.3920049e-01   3.6266756e-01  -1.1875066e-01   6.5616587e-01  -7.4320261e-01   9.2450658e-01   6.6714352e-01   3.1641331e-01   2.1797516e-01  -4.3558883e-01  -7.6312251e-01  -2.9366831e-01  -6.6707989e-01  -3.0197870e-01   4.1639634e-01  -4.4624486e-01   3.0607673e-02  -4.7775857e-01   4.5514445e-01  -5.6069820e-01  -4.9634432e-01   6.8733340e-01  -4.0015459e-01   2.8370106e-01   7.9614239e-01  -3.2600102e-01  -6.7273472e-02  -5.7556212e-02  -1.1760256e-01  -8.6445490e-01  -6.1470440e-01   2.2532494e-01   4.4237296e-02   1.0640399e-01   3.5181336e-01  -2.6636767e-01  -9.4821413e-01  -1.6333793e-01   1.0702698e-02   3.0175003e-02  -8.5627295e-01   4.4817243e-01  -8.6654091e-01  -1.5988589e-01  -4.2418635e-01   5.6190084e-01   8.3258961e-01  -2.2960000e-01   4.8964817e-01  -5.4127308e-01  -5.0640133e-01  -5.0769208e-01   3.5169247e-01   8.6323948e-01   1.1303314e-01   3.6384000e-01  -5.3599892e-01   6.6403136e-01  -8.3268209e-02   5.3244074e-01  -8.3725823e-01  -9.8805718e-01  -9.0114975e-01   2.2804542e-01   5.2714788e-01   2.0995346e-01   7.9752262e-01   6.2648692e-02   1.8272212e-01  -2.1535896e-02   5.7296784e-01  -1.1677258e-01  -5.6083693e-01   1.9440864e-01  -9.6069700e-01  -5.2285534e-01  -9.4337030e-01  -7.7382867e-01   5.5476485e-01  -3.6127152e-01  -7.0798286e-01  -7.6100531e-01  -8.0810002e-01  -5.8327813e-01   3.9047067e-01   6.4890170e-01   4.4069473e-01   8.3000756e-01   3.9989613e-01   3.2508533e-01   6.6767026e-01  -5.6706581e-01   9.2358330e-01  -8.8997309e-02   1.6457745e-01  -1.4463341e-02   7.5584601e-02   8.2930575e-01   4.2579002e-01  -3.8387505e-02   5.2026150e-01  -4.9872518e-01   3.8114790e-01   5.2005651e-01   7.0273585e-01   4.2701655e-01   2.4234674e-01   3.4181276e-01   5.1138231e-01  -1.2508607e-01   2.2054018e-01   4.0681723e-01  -3.9460205e-01  -5.1661453e-01   4.2738014e-01  -9.8694326e-01  -8.5138963e-01   5.7346011e-01  -7.5225233e-01   4.1050529e-01   5.0145331e-01  -9.7556916e-01   7.0238556e-01   2.6922221e-01   8.0950178e-01  -1.8084295e-02  -7.9404241e-01  -4.1437422e-01   6.9117444e-01  -9.1039577e-01   2.6061226e-01   4.8258930e-01   5.8587653e-01  -3.9407731e-01  -8.5926123e-02  -4.2547807e-01  -6.3863516e-01   6.4965906e-01   5.6241928e-01  -9.2647987e-01   7.9395712e-01   2.7225886e-01  -1.7516872e-01  -7.8244112e-01  -5.1490467e-01   9.1224916e-01  -1.8006783e-01   9.7778330e-01   3.8991867e-01  -8.6000493e-01  -5.3832681e-01  -1.2949680e-03  -6.1602457e-02   3.4738301e-01   1.6696682e-01   7.0482516e-01   4.7912278e-01  -9.3525007e-01  -7.8758634e-01   2.7943632e-01   4.4484425e-01   4.5691999e-01   4.5496230e-01   4.4543678e-02   3.2395732e-02   2.1831279e-01   3.1152058e-01  -7.2452523e-01  -9.3227037e-01  -2.0591392e-01  -2.5413634e-01   8.1245956e-01   4.3645079e-01  -2.0897553e-02  -1.8146011e-02   2.2611069e-01  -3.6717788e-01  -9.2095658e-02  -3.9366875e-01   7.4783773e-01  -2.2370842e-01   9.6434969e-03   1.9583682e-01   9.4437681e-01   6.9341646e-01   6.8246741e-01  -1.6622357e-02   3.3277495e-01  -8.5861451e-01  -7.4796366e-01  -9.8885630e-01   5.0385909e-01  -7.9678670e-01   4.1267642e-01  -7.2267136e-01  -9.0344566e-01   9.6936258e-01   9.0107676e-01  -2.4009636e-01  -8.2881649e-01  -3.6227162e-01   8.8697013e-01  -7.4603104e-01  -8.9462950e-01  -4.0985813e-01  -1.5697282e-01  -5.2852495e-01  -2.8286669e-01  -5.3911011e-01  -1.7192689e-01  -2.4948321e-02   4.2962671e-02   5.1780304e-01  -3.2396705e-01  -7.0581024e-01  -5.8476141e-01  -2.9132098e-01  -5.3076498e-01
