   4.5041033e-01  -9.0988322e-01   4.4405791e-01  -3.5405563e-01  -3.5971962e-02  -1.6648716e-01   6.7731744e-01   5.9052568e-01   9.4263416e-01  -4.2600742e-01   7.4169824e-01   1.1921630e-02   3.0384084e-02   1.4619046e-01   1.8944732e-01   5.9218225e-01   9.0149595e-01  -2.1601339e-01   6.9247811e-02  -2.5133685e-01  -4.0847269e-01   8.7982042e-01  -2.2349182e-01  -8.4738370e-01   9.8804555e-01  -5.3381182e-01  -8.8658127e-01  -8.9094832e-01  -9.2351697e-01  -9.9372705e-01  -6.7047006e-01  -6.3640645e-01  -2.2350324e-01  -5.9753539e-01   9.7937913e-01   5.0075926e-03   1.0007390e-01  -3.6735365e-01   1.3492663e-01   3.2260974e-01   9.4829930e-01   3.1126593e-01  -4.5289048e-01  -2.8739824e-01  -3.8523326e-01   8.9539315e-01  -4.5186058e-01   5.1338542e-01   1.3805519e-01   2.2003542e-01  -8.8500351e-01   9.0306642e-01  -8.6869565e-01   4.4691004e-01  -6.4657408e-01   2.0993627e-01   1.8159817e-01   2.5909316e-01  -9.7213201e-01   9.9441415e-01  -9.9559245e-01   8.9608967e-01   7.6650284e-01   2.4397909e-01  -9.4338829e-01  -9.7385967e-01   4.8318949e-01   7.9763405e-01  -9.9038102e-01  -2.3784492e-01  -9.9008317e-01   8.5107815e-01  -4.9655386e-01  -5.0883089e-01  -9.7656507e-01  -6.7071431e-01   6.0428950e-01   5.4985643e-01  -2.5432811e-01   3.7328469e-01  -6.9973412e-01   9.3734676e-01   5.1644320e-01   6.8689667e-01   3.7307344e-01   4.0335425e-01  -1.9250510e-01  -6.2307768e-01  -8.9708344e-01   2.9926630e-01   3.4185355e-01   6.4462611e-01   2.0738308e-01   7.5937765e-01   1.1243755e-03   4.0071775e-02  -6.9647323e-01  -8.5910372e-01  -7.0742087e-01   3.9287151e-01   1.0596535e-01   3.2484179e-02   9.2193283e-02  -5.4285989e-01  -6.5278027e-02   1.6428421e-01   9.7315639e-01  -2.2584959e-01   8.8844836e-01   6.3225209e-01   7.3999298e-01  -1.3325909e-01  -1.3301985e-01   6.3880262e-01  -8.3456338e-01   2.7825822e-01   8.1842499e-01  -1.2912985e-01   6.3096473e-01  -3.0465823e-01   5.8708767e-01   4.3261927e-01  -4.7230115e-01   2.8949813e-01   7.2340760e-01  -9.7809524e-02  -5.3998391e-02  -6.6197086e-01  -8.7903993e-01   3.6473179e-01   2.3604216e-01  -4.5093967e-01  -7.2862309e-01  -4.6012200e-01   6.7216410e-01   3.0246215e-01  -4.9604543e-01  -9.0377199e-02   4.5491130e-01   6.3530942e-01   2.8827495e-01  -5.7346806e-01  -5.4447460e-01   2.8383167e-01  -8.0892803e-01  -6.0655509e-02   9.2536628e-01   5.6253339e-02   3.3815333e-01   1.0118642e-01  -3.9902289e-01  -1.6940652e-01   9.6128051e-01  -1.7737714e-01  -1.1305651e-01   3.3994876e-01   2.4989154e-01   5.0712334e-01   7.9371978e-01   9.6414895e-01   4.6241296e-01  -5.2040874e-01  -2.4519460e-01  -9.1681363e-02  -6.9311986e-01  -5.2352560e-02   1.4816890e-01  -7.1226117e-03  -3.7217103e-01   6.3854434e-01  -1.8189076e-01  -6.5237852e-02   1.4918797e-01  -4.7123251e-01   7.8299956e-01   2.3239632e-01   2.3467974e-01  -1.6175811e-01  -1.8480291e-01  -5.5601786e-01  -9.7631687e-01  -1.6860151e-01   9.7776064e-01  -9.0995397e-01  -8.1181560e-01  -1.4339862e-01   1.8517521e-01   9.0372617e-01  -5.2805751e-02   7.6734183e-01  -4.5414765e-01   9.5163200e-01  -5.2200481e-01   2.1151604e-01   7.4912598e-01   3.9015164e-01   2.5269091e-02   7.8906204e-01   6.8085015e-01  -1.3424499e-01   4.9953352e-01  -5.7870317e-01   1.2380636e-01   4.8192415e-01   9.4146036e-01   2.2748071e-01   8.7965548e-01  -6.3178273e-01  -2.8716678e-01   2.2717826e-01  -9.1377775e-01  -2.6854705e-01   9.0323833e-01  -3.3492353e-01  -8.3309440e-01  -9.4041052e-01  -6.4956576e-01  -9.6675983e-02  -6.9133106e-01   1.2882980e-01  -1.8836721e-01   9.2250503e-01   7.9795641e-01  -7.6510478e-01  -4.1104789e-01   4.0776788e-01   2.9079448e-01   1.3502854e-01   9.5663042e-01   7.2119584e-01  -8.2794096e-01  -8.8247317e-01   8.0596376e-01  -8.5518173e-01   5.0501668e-01  -7.0582814e-01  -3.9870610e-02   5.5962416e-02   2.2076782e-02  -7.9277629e-01  -8.0950382e-01   3.2522222e-01   4.5568845e-01  -4.4857294e-01  -4.1768841e-01   1.0954883e-01   5.9791680e-01   9.2171722e-01  -8.8241210e-01  -5.2395993e-01   7.4424677e-02   2.4479464e-01  -1.8415696e-01   2.2203734e-01  -9.3773743e-01  -5.6264128e-01  -6.7251686e-01   6.8125120e-01  -6.4386255e-01   7.1202931e-01   1.6489476e-01  -9.9728869e-01  -9.6393800e-02  -2.1936204e-01   4.1663007e-01  -4.0617337e-01  -5.7965315e-01   9.2332894e-01  -1.9743712e-01   4.3643234e-02   8.5222918e-01   5.2418308e-01  -9.0051739e-01  -6.3840610e-01   9.9495003e-01   2.4371246e-01  -3.3765580e-01   7.0299903e-01   9.7259636e-01   1.4708282e-01  -7.1840658e-01   8.8404040e-01   3.8257560e-01  -5.5221880e-01   2.0441152e-01   3.5209929e-01   8.2108409e-02   8.2871040e-01  -4.3823721e-01   2.8955390e-01  -7.6777255e-01   6.4407388e-01  -7.3213946e-01   7.9975869e-01  -7.2587004e-01   4.2200184e-02   8.3297668e-01  -5.9016604e-02   9.3637914e-01   5.3611161e-01  -4.0331126e-01  -6.0691918e-01  -8.0610995e-02   3.0422504e-01   7.1821600e-01   5.4018153e-01  -8.8411952e-01   3.0248670e-03  -1.8131370e-01   2.8942235e-01  -7.5229192e-02  -3.7580092e-01  -2.5032392e-01  -6.1560673e-01   3.3174311e-01  -6.0466013e-02   3.4214127e-01  -6.4122753e-01  -8.0319777e-01   4.1407858e-01  -1.5627551e-01  -6.6082534e-01   1.6616526e-01   1.0853347e-01  -1.2899295e-01   6.8877282e-01   5.3684168e-01   8.8705557e-01   6.6540538e-01   7.7202123e-02   7.3050596e-01  -3.6160941e-01   3.0319261e-01   1.4592017e-01  -9.4857888e-02  -3.7620361e-01   1.1895041e-01  -6.7271614e-01  -1.8531480e-01   1.1691408e-01   7.0750744e-01   1.3821035e-01  -6.4582408e-01  -4.7802002e-01  -5.0214469e-01  -7.9103155e-01   2.4301463e-01   5.3119312e-01   4.9987575e-01   8.7862590e-01   1.3125935e-01  -3.1542580e-01  -5.6251216e-01  -9.1432175e-01  -8.6125452e-01   9.7158120e-01  -2.5624151e-01   3.0825448e-01   5.7660285e-01   8.7415903e-01  -8.5315194e-01   6.2942302e-01   4.3137508e-01  -5.7477142e-01   7.0544536e-01  -9.2638914e-02   1.5736167e-01   8.1586733e-01   7.6589622e-01   6.4500531e-01  -1.1584010e-01   9.6991335e-01  -3.1288535e-01   1.8579097e-01   5.9453747e-01   2.1616306e-01   1.7751982e-01  -6.3415469e-01   8.5038966e-01   5.2394555e-01  -2.4263478e-01  -5.5466115e-01  -3.8052587e-01  -8.7768069e-01  -6.6944998e-01   1.1976919e-01   8.8256365e-01  -4.0485694e-01  -5.8153775e-01   6.6222974e-01   4.7497655e-01  -3.4112798e-01  -1.6142529e-01   9.3849226e-01  -8.4896357e-01  -6.0353932e-01   8.4079696e-01  -5.1874363e-02  -9.0945287e-01  -9.2530820e-01  -6.5418036e-01   9.0591333e-01  -5.0742831e-02  -9.7563132e-01   4.9249370e-02  -7.5977689e-01   2.2924049e-01  -7.8090215e-01  -6.9906054e-01   3.8468539e-01  -5.1794738e-02   7.9133232e-01   9.7170293e-01  -5.2447296e-01  -5.8477410e-01   8.7963500e-01   4.3044003e-01  -1.7199286e-01  -8.2496825e-01  -9.9431026e-01  -7.8881669e-01   6.1025050e-01   5.6328588e-01   2.5406629e-01  -6.0035132e-01   9.7059991e-01   1.7787555e-01   2.2038472e-01  -5.1031367e-01  -5.9390245e-01  -1.8066714e-01  -9.4119968e-01   3.2788944e-01   2.9643654e-01   6.0039268e-01   2.9115073e-01   6.3755017e-02   7.6941789e-01  -3.5080780e-01   6.2269131e-01   3.3020045e-01  -8.1108743e-01   3.6271226e-01   5.1867778e-01  -5.4229738e-01   7.6109493e-01  -9.8939063e-01   3.6728591e-01  -8.4721799e-01  -2.1723519e-01  -1.3741857e-01  -3.0920074e-01   8.7991361e-02  -1.5463999e-01  -6.6820156e-01  -8.1760042e-02   7.5156797e-01   1.9911542e-01   1.7087518e-01   7.8821997e-01  -8.1791039e-01   5.0630140e-01  -6.6295391e-02   2.7702917e-01  -7.3353268e-01   2.0663706e-01  -8.5304314e-01   9.8111917e-01   4.7508776e-01  -2.3396775e-01  -3.2300556e-01  -9.6342351e-01  -2.6856224e-01   4.3140246e-02  -1.8201124e-01  -6.7649449e-01   5.7044193e-01  -2.4818278e-01  -7.5447084e-01  -9.4249401e-01   7.6133565e-01   9.7773698e-01   2.2269863e-02  -2.6474542e-01  -2.0098757e-01  -5.4814655e-01   8.0062101e-01  -8.5650850e-02  -6.3089255e-01  -2.4407118e-01  -5.3206317e-01   1.5053227e-01   1.8283103e-01  -5.1187334e-01   8.1899703e-01   9.4498652e-01  -8.0096690e-01   3.3247831e-01   3.6203506e-01  -5.6826399e-01   2.0713747e-01  -7.0050177e-01  -6.6541750e-02  -8.0921931e-01  -2.1409381e-01   3.4343944e-01   1.1827746e-01   6.6549349e-01   6.3948451e-01  -9.9541477e-01  -2.2781719e-01   3.1661028e-01  -9.2856618e-01  -5.2976152e-01  -1.0341709e-01   6.9822125e-01  -8.6792576e-01   4.0760300e-01   8.8598620e-01  -9.7964439e-01  -9.9036638e-01   5.0679582e-01   9.2318546e-01  -1.0813731e-01  -3.5675952e-02  -1.5220901e-01  -9.5302665e-01   5.4048658e-01   2.3837913e-01  -2.7672190e-02  -9.8825379e-01   8.3544982e-01  -3.7674971e-01  -3.2530448e-01  -3.2701043e-01  -9.6678294e-01  -3.8117464e-01   2.2551410e-01  -4.6068016e-01  -3.3171145e-01  -8.6759584e-01   6.9928274e-01  -7.4734456e-01   2.7323722e-01   8.5347386e-01  -6.4656162e-01  -7.0717884e-01   7.8799046e-01  -6.9622019e-01   5.6075302e-01   9.7613836e-01   5.7972518e-02   2.0881671e-01  -1.0488050e-01  -5.7324573e-01   2.7423461e-01   9.2411683e-02   2.6230472e-01  -1.3270518e-01  -4.1107096e-01  -3.9526595e-01   3.6414889e-01   9.3928298e-01   2.2268445e-01  -6.9782931e-01  -7.9347222e-01  -1.8176580e-01  -3.1344337e-01   6.6290866e-01  -8.0763490e-01  -7.1702358e-01  -8.6374304e-01   8.9917398e-01   4.7748887e-01  -4.7469703e-01   9.0919133e-01  -6.8208032e-01  -8.3846653e-01   1.7801707e-02   5.3446862e-01   4.6768002e-01   7.5022680e-01   9.0417166e-01   9.4712801e-02   4.5305434e-01   5.7808032e-01  -3.2583609e-01   1.4835750e-01  -7.5392678e-01   2.2770702e-01  -5.6442471e-01   3.5120019e-01  -2.4531854e-01   2.6442947e-01   8.0228215e-02   8.3222872e-01   8.0236610e-01   1.9045528e-01  -2.7515960e-01  -5.4389452e-01  -1.9140455e-01   7.4807884e-01  -7.7072291e-01  -2.5149667e-01  -2.6885324e-01   2.3943079e-01  -8.1648425e-01   6.6585169e-02  -9.7008834e-01  -5.2837891e-01   2.6201579e-01   2.1734130e-01  -1.2475870e-03  -2.3370975e-01   5.8016203e-01   5.3692520e-01   7.5192650e-01   8.0587900e-01  -2.9473574e-01   3.4256480e-01  -8.6151162e-02   6.1885077e-01  -4.4056279e-01   6.5175986e-02   6.9444793e-01   2.7541980e-01  -8.6387681e-01   1.1951905e-01   5.0888382e-01   8.3408055e-01  -4.3543428e-01   9.9019234e-01  -6.3770614e-01   9.8047663e-01   1.9395160e-01   9.5306448e-01   8.3567022e-01   6.1568277e-01   7.5486047e-01   2.4138861e-01   2.2274004e-01   1.8783127e-02   8.1170879e-01   4.3795560e-01   2.2459562e-01   7.0772924e-01  -7.5780770e-01   2.5913358e-01   8.0960859e-01   9.2086566e-01  -1.8381014e-01  -4.2358921e-01  -8.0648606e-01  -4.3340516e-01  -3.9099159e-01  -5.1643086e-02   3.9255206e-01  -2.2681164e-01  -8.7746713e-01  -6.4090154e-02   3.9826190e-01   9.7290253e-01   4.8048270e-01  -4.7882376e-02   2.5400171e-01   8.7262273e-01   4.7707755e-01   4.9036262e-01  -5.7238742e-01   8.7508451e-01  -2.2987607e-01   4.4778756e-02  -9.6305233e-02  -2.6138736e-01  -2.7279422e-01  -5.9178540e-01  -3.2756150e-01  -5.9636478e-01  -6.3133500e-01   6.9507462e-01  -2.0993824e-01  -6.7287791e-01  -1.3786110e-01  -9.3523149e-01   5.1836166e-01  -2.0674148e-01   1.1916559e-01   2.3827773e-01  -4.8534132e-01   2.2740177e-01  -8.1574900e-01   3.1053849e-01   8.4137156e-01  -6.8216636e-01   8.2319037e-01   3.9448070e-01   7.9078753e-01   2.2303073e-01  -4.8519050e-01   1.2391156e-02   9.2810020e-01  -7.5374139e-01   4.1069450e-01  -1.2755052e-01  -3.6373363e-01  -8.6887597e-01  -3.4012686e-01  -4.0908172e-01  -8.1793889e-01   5.5486286e-01  -5.9668378e-01  -1.6064169e-01  -5.8877103e-01  -5.2205440e-01   8.8327691e-01  -8.0512196e-02  -4.1191975e-01   7.6102479e-01  -7.9304649e-01  -8.4387929e-01  -2.1108277e-01  -9.2239976e-01  -5.1546541e-01   2.7938068e-01   1.9755599e-01  -5.6770322e-01   4.1755888e-01   5.6686999e-01  -1.8691622e-01  -4.4972854e-01   5.1730921e-01   1.7352289e-01  -8.6779823e-01  -5.3452177e-01  -6.9851333e-02   4.9031830e-01  -9.0179736e-01  -4.7538070e-01  -7.6068787e-01  -3.6737003e-01   8.3212572e-01  -5.3074038e-01  -7.9603647e-01   6.4704430e-01  -3.5460792e-01  -1.2745460e-01  -8.4853339e-01   4.9419479e-01  -4.7946182e-01  -7.9413399e-01   8.7900855e-01  -2.6880425e-01  -3.3494616e-01   2.6424647e-01  -2.1746345e-01  -9.3860756e-02  -6.1277503e-01   7.5206486e-01  -9.7536945e-02   8.4207928e-01   9.1858730e-01   7.4863162e-01   2.2109390e-01   1.8451964e-01  -2.4806986e-01   6.3675482e-01  -6.3031930e-01  -4.0260593e-01  -3.2015596e-02   3.3490787e-01  -2.9456306e-01  -7.5818910e-01  -3.9550236e-01  -2.0346332e-01  -7.9764457e-01   5.2817426e-01   7.0652115e-01   4.6572876e-01  -3.4537066e-01  -7.3268658e-01   2.8120103e-01   6.8510171e-01   1.9408793e-01   3.4567735e-01   4.8288096e-01  -6.3542628e-01  -8.8787983e-01  -1.4017430e-01  -3.1971547e-01   7.7543225e-01  -2.1670732e-01  -3.6998526e-01  -8.2003725e-01  -7.2335427e-01   3.5302082e-01   8.8989632e-01   8.4461973e-01   3.6873327e-01   7.1660976e-01  -8.9412693e-01  -5.8513898e-01  -1.7864146e-01   8.3109509e-01   6.0341316e-01  -7.4731343e-01   7.7420019e-01  -6.1443706e-01  -1.1792911e-01  -6.2424367e-01  -2.4394103e-01  -3.6655846e-01   2.1992365e-01   7.1627512e-01  -2.4073002e-01  -2.7114288e-01  -1.8491075e-01   4.3511401e-01  -9.8853378e-01  -9.8034461e-01  -5.9084015e-01  -3.0819020e-01  -5.7574413e-01  -9.6097939e-01   1.9497677e-01   9.5037720e-01  -5.6105690e-02   8.3161140e-01  -2.4689901e-01   1.7255590e-01  -2.1184196e-01   7.0768325e-02   2.0690703e-01   8.6143928e-01  -2.7460514e-01   7.0423527e-01   1.9404586e-01  -8.8246231e-01   2.6397086e-01  -2.9748059e-01  -3.6173477e-01  -8.3329348e-01   7.6535819e-01  -2.9562383e-01  -6.0374978e-01   9.0587170e-01   1.0056436e-01  -3.6162117e-01  -4.7030128e-02   5.5792548e-01   1.9241876e-01  -5.6026703e-02  -9.9933101e-01  -8.7249162e-01  -3.3082619e-01   3.3162039e-01  -4.6293155e-01  -4.2099171e-01   4.2197553e-01   6.8155516e-01   9.4107061e-01  -5.4260443e-01  -7.8115356e-01  -5.9181162e-01  -2.9625462e-01   3.3686206e-01  -9.3569199e-01  -9.4140309e-01  -5.0913635e-01   8.8964139e-01   6.4169803e-01  -4.0667874e-01  -4.7316758e-01   4.3231655e-01   4.0451382e-01   3.4294148e-01   9.3401743e-01   8.5259563e-01   2.2624702e-01   9.1358342e-01   2.0897340e-01  -7.0925762e-01   8.4214995e-01   9.2033893e-02  -1.7874722e-01   5.7413110e-01  -3.0048709e-01  -3.3036603e-01  -5.8198154e-01   9.1367606e-01   7.8324003e-01  -3.9514915e-01  -6.8297270e-01   5.1346901e-01   9.3101072e-01  -2.0364537e-01  -8.7852120e-01  -2.9342054e-01  -2.3216325e-01  -9.8335989e-01   8.9552364e-01   2.8600177e-01   4.6503645e-01  -6.8932868e-01   7.2219402e-01   6.9279643e-01  -5.6879386e-01   1.5659792e-01   8.0365950e-01   1.4714855e-01  -8.4297438e-01   3.5128140e-01  -9.7045302e-01  -5.8394807e-01  -8.4072754e-01   4.6322177e-01  -3.3554255e-01  -4.6582436e-01  -6.1705126e-01   3.8389684e-01   4.5918700e-02  -1.7051830e-01  -6.7754006e-01  -4.3138929e-01  -6.0705592e-01   6.0969950e-01   2.0227714e-01  -8.2770683e-01  -9.0000517e-01  -9.4428569e-01  -7.2264707e-01  -3.6531354e-02  -4.4216435e-01  -1.6527051e-01  -1.4195098e-01  -9.5105303e-01   8.1279598e-01   2.4178691e-01   9.7753059e-01   4.2921347e-01  -8.7313981e-01   4.6609568e-02   5.2212732e-02   2.3682616e-01  -4.4673669e-01  -6.5373901e-01  -3.4659833e-02  -1.1823393e-01   8.7988212e-01  -9.2249809e-01  -6.8904336e-01  -7.6589830e-01  -7.2290782e-01  -2.7493684e-01   4.2803873e-02  -6.3157855e-01   1.2818951e-01   9.8216193e-01  -5.1870934e-01  -5.1650797e-01   6.2097414e-01  -2.0927728e-01   5.5541188e-01  -7.0172957e-01   6.1596453e-01   7.5350114e-01   4.3342153e-01   9.4068695e-01   6.7400547e-02  -7.9857251e-01   8.7615794e-01  -2.5865141e-01   1.4176472e-01   5.1198845e-01  -7.0830716e-01   3.1946114e-01  -5.6731828e-01  -2.2244026e-01  -8.1720582e-01   1.4545083e-01   7.9535961e-01  -7.4735130e-02   6.1325973e-01   2.3988238e-02  -7.9590543e-01   4.7116341e-02   4.4673227e-01   6.9516343e-01  -7.6892662e-01  -4.9548168e-01   5.9856219e-02  -2.3670227e-01   3.2732955e-01   7.4508948e-01   9.9921387e-01   7.9453423e-01  -9.3820647e-01  -7.3653050e-01  -8.5322532e-01   1.7931498e-02   1.3441049e-01
  -2.8418669e-01   1.8883496e-01  -7.6760642e-01   1.5322672e-01   5.9040514e-01   5.0569467e-01  -6.6533391e-01  -1.0814863e-01   6.6299482e-01  -1.1061156e-01  -9.7800241e-01  -2.7208012e-01  -7.3487361e-02  -9.8123955e-02   2.9878639e-01   7.9293294e-02  -7.1008791e-01   9.1338951e-01  -7.2335717e-01  -4.9912745e-02   5.4348523e-01   4.5303862e-01   5.1049207e-01   8.0107266e-01   7.1116706e-01  -8.8093700e-01   1.8389187e-01  -4.5550660e-02  -8.7842640e-01  -2.4991563e-01  -5.6687184e-01   3.3311155e-01   1.7906400e-01   3.9003016e-01  -9.9898551e-01   3.3272874e-01  -1.8786649e-01  -4.0572648e-01   7.3724747e-01  -4.4469568e-01   6.2502451e-01   8.3820440e-01   6.1312007e-01   9.9318613e-01  -5.9696187e-01  -8.6590178e-01  -5.2584828e-01   8.1596864e-01  -8.8301833e-01   3.1234777e-01   1.5898004e-01  -8.3983097e-01  -5.2169884e-01  -3.2810242e-01  -5.3219364e-01   6.3399849e-01  -1.0008032e-01   3.6331219e-01   6.1566746e-01  -6.9043499e-01   2.4658613e-01   2.0643908e-01  -4.1949173e-01  -2.0631884e-01   2.7682251e-01  -7.5435638e-01  -9.6365728e-01   1.3821678e-01   4.7844484e-01  -9.3805877e-01   8.9713453e-01   5.9858925e-01   9.2995600e-02   8.1830733e-01  -9.1230354e-01  -5.8622798e-01  -8.3833360e-01   4.9580505e-02  -9.2527563e-01   8.6754582e-01  -8.0164056e-01   2.8544082e-01  -9.6161418e-01  -5.8683391e-01   6.4345014e-01  -6.6040976e-01   5.9549717e-01   5.9672595e-01   9.6875360e-01  -7.3354747e-01  -3.1306237e-01  -9.5976885e-01  -4.1140119e-02   4.0613648e-01   8.0355294e-01   7.2514394e-01  -3.3075867e-01   5.2221938e-01  -1.8634313e-01   7.8347197e-01  -8.8644893e-01  -7.2937962e-01   3.0856911e-01  -8.5441374e-01  -8.4195595e-01   9.7411366e-01   2.9032636e-01   6.5392447e-01   9.2301390e-01  -6.5850124e-01   9.3818854e-01   2.2715752e-01  -7.6944242e-01  -4.1051446e-01   8.4385995e-01  -3.0236060e-01   5.7864423e-01  -4.9921588e-01  -8.3361981e-01  -9.2008162e-01  -2.7656792e-01  -4.6650311e-01   3.5968139e-01   6.2129498e-01  -4.6496373e-01  -3.2878999e-01  -1.4582412e-01  -9.6130229e-03  -5.7221980e-01   2.4551562e-01  -3.4117952e-01  -7.1860704e-01   7.0857201e-01  -2.8441157e-01  -3.4558352e-01   4.4382662e-01  -6.9898547e-01  -8.6957672e-02  -7.7861830e-01  -5.0951227e-01  -3.1108534e-02   6.9464318e-01  -1.9021800e-02   7.6329974e-01   6.5401654e-01  -7.4851675e-01   5.5281505e-03  -9.0719409e-02  -6.0947578e-01  -4.8898663e-02  -9.1138846e-01  -4.2790925e-01  -9.5229642e-01  -1.3724130e-01   6.4637371e-01  -9.7416592e-01   2.3237454e-01   1.3791361e-01  -8.5375825e-01   7.1614212e-01  -5.3562354e-02   9.7692201e-02   8.9542423e-01   5.1113947e-01  -8.0647679e-01   1.4525471e-01   3.4399017e-01   1.8913876e-01  -4.5591404e-01   8.9545323e-01   5.4091904e-01   8.4752115e-01   4.6480877e-02  -1.0400098e-01   4.7608906e-02  -9.8310656e-01   2.8445846e-01  -8.3218829e-01   1.1417938e-01   2.7915826e-01   8.4103931e-01   3.9887468e-01  -3.2583852e-01   9.9722386e-01   9.7482059e-01  -6.0288799e-01   4.0802866e-01  -2.4694976e-01   3.9378545e-01  -9.3340227e-01   9.8886682e-02  -7.2385944e-01  -4.5205312e-01  -9.3263084e-01  -7.3295387e-01  -7.2918425e-01  -9.5955738e-01   8.5893737e-01  -2.9062605e-01   5.3180925e-01  -9.0148943e-01  -8.2969830e-01  -3.8820754e-01   3.6553699e-01  -4.5333495e-01  -4.9078075e-02  -8.4377935e-02   9.3593740e-01  -3.4554890e-01   9.7616032e-01  -4.0552916e-01   8.9114500e-01   1.8039277e-01   3.3560256e-01  -2.1511049e-01  -4.6793004e-01  -7.9439122e-01   2.0924974e-01  -5.8853373e-01  -5.6607157e-01   3.9670569e-01  -5.5901247e-01  -8.7218915e-01   5.5835042e-01  -6.4097602e-01  -6.5106531e-01  -7.4352933e-01  -6.5000821e-01   6.3135533e-01  -4.4142334e-02   2.7671541e-01  -1.3890635e-02   1.0182048e-01   6.0274563e-01   3.2814930e-01  -1.5523832e-01   6.8226297e-01   8.1163016e-01  -1.2629621e-01   5.8504680e-02  -2.9403218e-01  -8.8654058e-01  -7.0664236e-01   9.7118685e-01   5.0659845e-01  -1.3147208e-01   2.6313600e-01   1.0317953e-01  -1.9040118e-02  -1.7838371e-01  -7.3863383e-01   1.2615065e-01  -6.5684406e-01   2.1796323e-01   4.7316272e-01   6.4763243e-01  -2.7720463e-02   3.8790794e-01  -8.1668926e-02  -9.3701629e-01  -2.8184476e-01  -2.1177431e-01   5.7339865e-01  -1.4131805e-01   7.6982680e-01   6.6597635e-01  -4.8697528e-01   6.8213808e-01   2.0981647e-02  -7.9694851e-01  -9.5492281e-01  -1.2964392e-01  -1.5288630e-01   2.2542496e-01  -4.4482967e-01  -5.5488863e-01  -8.8285330e-01   7.7597578e-01   5.2459176e-01   1.3233109e-02   1.5669690e-01  -9.4990049e-01  -2.5687466e-01   7.3650700e-01   9.4938740e-01  -5.5736963e-02   5.9721251e-01  -8.2590145e-01  -5.9262588e-01  -5.0615791e-01  -4.8309569e-01  -3.4364337e-01   3.2513139e-01   2.6047742e-01  -2.6457947e-01   6.8779976e-01  -5.7169614e-01  -8.2434582e-01   5.2130407e-01   7.7001725e-01   8.6435846e-01   9.8276915e-01   3.9292783e-01   4.5036812e-02   7.7004070e-01   9.2609342e-01  -6.0545471e-01   6.4934151e-01   4.0662124e-01  -1.3098236e-01   3.5096000e-01  -7.2197673e-01   4.2660885e-02   1.8552103e-02  -8.7647630e-01  -8.0811709e-01   4.1297787e-01   8.4487176e-01   8.5669715e-01  -7.5376784e-01  -6.6137044e-01  -6.8920957e-01  -2.5564444e-01   5.7474232e-01   4.2228097e-01   8.3798967e-01   7.8367317e-01  -7.3727243e-01   9.0972628e-01   4.5314337e-01   5.8057520e-01   8.9643492e-01   6.1090453e-01  -2.7207527e-01  -9.3721736e-01  -2.5312703e-01  -5.2198352e-02   4.3071821e-01   9.9804599e-01  -2.5741874e-01   1.8845573e-01   5.8189937e-01   5.0180759e-01   2.8997907e-01   3.0261695e-01   9.0993903e-01   9.3236925e-01   3.8578973e-01  -3.4495943e-01  -3.2103241e-01  -6.3122286e-01  -5.4303507e-01  -2.5738664e-01   5.2435846e-02   5.1956309e-01   7.6325683e-01   8.1980048e-01  -1.9776671e-01   8.4522519e-01   6.1724265e-02  -8.6655959e-01  -8.4139435e-01  -8.3636787e-01   2.3568867e-01  -7.9676332e-01  -1.9320737e-01   4.6948494e-01   6.5537959e-01   8.8153471e-01   9.9035519e-01  -8.2356390e-01  -9.7615270e-01   1.7508279e-01  -8.0695013e-01   9.9276562e-01  -5.0011317e-01   1.9594690e-01   9.6798662e-01  -5.7396572e-01  -6.5632355e-01   2.1491009e-01  -6.7285456e-01  -4.3188742e-01   4.1360384e-02  -7.7072159e-03   8.7467539e-01  -8.7570837e-02   4.8956532e-01  -2.2134865e-01  -1.0057748e-02   7.6769752e-01   4.7041525e-01   3.9102016e-01   5.2084635e-01  -9.7517504e-02  -7.8539861e-01   7.8337076e-01  -8.0126523e-02  -9.5479140e-01  -9.5212479e-02   7.2312122e-01   4.7255792e-02  -4.4242110e-01  -2.3448134e-01   8.2293593e-01   2.7796474e-01   1.9508471e-01   6.3132985e-01  -4.6526772e-04   6.8563469e-01   1.6882442e-01  -5.7294118e-01   3.8356730e-01   9.5845570e-01   7.1724451e-01  -5.9685013e-01  -1.6221311e-01   8.5148356e-01   1.5621607e-02   4.3207936e-01   9.1953427e-01  -1.2254243e-01  -4.6041245e-01   2.6229616e-01   9.9319993e-03  -4.1052259e-01  -5.3097147e-01  -3.7328702e-01   5.2884239e-01  -4.9463559e-01  -2.5462207e-01   1.1800665e-01  -6.8199550e-01  -5.7758984e-01  -6.2484489e-01   2.5146540e-01   2.5934896e-01   2.5432834e-01   4.0053036e-02  -7.3290499e-01  -3.7206157e-01  -4.9975920e-01   8.1146446e-01  -4.9001542e-01   1.4343324e-01  -6.1956668e-01  -8.4575706e-03  -7.9283629e-01   7.7162601e-01  -6.5517869e-01   1.1779632e-01  -6.9280331e-02   4.5508012e-02   6.6346066e-02  -6.6825286e-01   6.2128064e-01   1.6112218e-01   6.5528817e-03  -2.7799579e-01   6.5188438e-01   5.3908108e-01   6.3552572e-01  -5.5277777e-01  -1.6589405e-01   1.8876550e-01  -4.9938937e-01   1.1975507e-01   3.4863351e-01   4.9963552e-01   3.1969045e-01  -9.0904231e-01  -6.7895874e-01  -9.9270716e-01  -6.3191130e-02  -2.8079286e-01  -4.3336189e-01   7.1179579e-01   3.7338436e-01  -7.8900520e-01   5.9638274e-01  -4.5141396e-01   4.2971643e-01   5.1113905e-01  -3.5805695e-01  -6.4859498e-01   4.9895008e-01  -8.4604228e-01  -3.8741699e-01   9.0172146e-01   1.4560100e-01   8.6063038e-01  -6.2929185e-01  -7.3884504e-01  -3.6400172e-01   4.4663763e-01  -6.6593471e-01  -3.9080038e-01  -2.7037648e-01   7.5832869e-01   9.7607561e-02   1.6618153e-01   9.9415809e-01  -7.9137436e-01  -3.2196583e-01   1.8195002e-02   7.2824841e-01  -9.5095994e-01   2.5090725e-01  -3.7758432e-01   9.1189771e-01  -3.2047364e-02   1.8925267e-02   7.7903719e-01  -6.2943292e-01   6.5715455e-01   7.6460908e-01   7.2879645e-02  -5.5941445e-01   8.0900271e-01   8.8449270e-01   3.3628573e-01  -2.7706555e-01  -9.2260765e-01   6.4423113e-01   9.6680579e-01   8.5800592e-01   6.0323068e-01  -3.1269680e-02   1.0444120e-02   5.0763256e-01  -7.2922610e-01   9.0496775e-01   9.8021835e-02  -7.0752214e-01  -9.4324974e-01   2.0615776e-01  -8.7492616e-01  -5.0882480e-01  -9.4340185e-01  -6.9141987e-01   4.9342214e-01   3.0490635e-01  -7.5866022e-01  -4.8473081e-01  -1.8233917e-01  -2.8206657e-01   8.3625230e-02   2.7238885e-01  -7.8270646e-01   6.0664828e-01  -8.2902303e-01   5.6643222e-02   8.9653706e-01  -7.5716375e-01   8.0079985e-01   4.0851641e-02  -6.2075080e-01   3.7976998e-02   5.9961955e-04  -9.5852095e-01   3.1146867e-01  -8.1237632e-01  -2.0050819e-01  -4.8542837e-01  -3.1052052e-01  -3.4269138e-01  -7.0137271e-01  -9.7718096e-01  -8.4266985e-02   5.5064014e-01   7.8526855e-01   1.6012227e-01   3.6557415e-01   5.1215066e-01   4.8326341e-01  -6.2306569e-01   8.9354882e-01   1.6761861e-02   2.9107087e-01  -8.8238516e-01  -2.4444244e-01   5.8414746e-01   2.0287132e-01   4.4173262e-01  -8.2157554e-01   2.5729075e-02  -6.0168073e-01  -1.4162805e-01   8.7116229e-01   5.7821242e-01   3.8707630e-01  -1.3609655e-01   3.1739323e-01   4.4486572e-01   4.7273559e-01   5.1213033e-01   1.5398503e-01   7.4829804e-01   4.5166192e-01  -1.2743784e-01  -2.2423161e-01  -3.4559473e-01  -6.4313277e-01  -1.0626462e-01   7.8991748e-01   4.0681536e-01  -8.1660238e-01   3.5474407e-01  -1.4349602e-01  -9.8643018e-01   7.2601497e-01   9.6121867e-01  -6.8049807e-01   7.3493395e-01   7.1814491e-01  -5.5217107e-01  -3.6939111e-01   3.4447173e-01   8.0931795e-01  -2.0262536e-01   8.3595641e-01  -5.0513571e-01  -3.3877594e-01  -7.5087468e-01   6.1212854e-01  -6.7192425e-01  -1.0216940e-01   2.4719510e-01  -8.1511863e-01   4.7642607e-01  -1.7569544e-01   4.4179965e-01  -3.3303621e-01  -4.3405488e-01  -2.9661088e-01  -8.5901345e-01  -6.6529491e-01  -6.5631109e-01   7.0540396e-01   8.2567074e-01  -7.4330102e-01  -2.2044645e-01   3.6141690e-01  -5.4034899e-01  -5.3153368e-01  -2.4882541e-01  -6.4546733e-01   2.7071695e-01   5.7241765e-01  -2.4411890e-01   8.8988085e-01   4.4899459e-01  -8.6340399e-01  -5.6121824e-01  -6.6488851e-02   5.5116564e-01  -5.5837282e-01   9.8222766e-01   8.4565632e-01   7.6255608e-01   7.2414500e-01   4.3071795e-01  -4.2040269e-01   7.9897125e-01   5.4469945e-01   8.6169347e-01   8.1287790e-02   6.7542769e-01   3.5148929e-01  -2.8504839e-01   3.1153365e-01  -6.8539972e-01  -3.1628370e-01   5.6548257e-02   4.6910153e-01  -7.0548139e-01  -9.4631324e-01  -1.1789395e-01   1.8883248e-01  -4.5583754e-01  -8.0902686e-01  -4.9506667e-01  -4.0291360e-01  -4.7989585e-01  -5.0613571e-01  -5.4664903e-01   8.3797108e-01  -3.3506641e-01   6.7899750e-01  -2.9466918e-01  -6.0896914e-01  -8.8586138e-01  -3.5032425e-02  -8.0576363e-01   3.7129367e-03  -7.5884354e-01  -9.7430002e-01  -9.0382047e-01  -2.0509435e-02  -1.6331238e-01  -3.9369107e-01  -7.9378530e-02  -5.4040381e-01  -2.6748503e-01  -6.0725043e-03   9.7603692e-01   2.0697765e-01   5.6533585e-01   2.0916345e-01   3.4828989e-01   9.3434810e-01   8.2909768e-01  -5.2669144e-01  -4.8532871e-01  -9.5405860e-01   8.3927904e-01  -1.6041832e-01   2.0685632e-01   9.1480435e-01  -1.4065878e-01  -7.9021163e-01  -1.3063391e-01  -9.4808111e-01   5.0284355e-01   7.8650730e-01  -7.2314297e-01   1.3168880e-01   4.7719401e-02   2.5736384e-02  -1.5216766e-01  -4.8745227e-01   4.5654549e-02  -6.0904550e-01   7.0336784e-01   7.1800267e-01  -7.8260453e-01  -9.0701992e-01  -5.1205061e-01  -4.9728652e-01  -6.8315516e-01  -2.2647894e-01   4.8695555e-01  -6.0165010e-01   4.7019236e-01  -9.9825137e-01  -9.7779494e-01  -6.2294521e-01  -1.2508457e-01  -8.8543179e-01   5.7958172e-01   8.1843819e-01   3.4729271e-01   9.8839176e-01  -9.1638667e-01  -5.1898540e-01   1.4448391e-01  -9.8324517e-01  -7.7276057e-01   3.3961852e-01  -1.4781419e-01  -6.6477187e-01   9.5007885e-01  -8.5306794e-02  -2.6325865e-02  -4.7578924e-01  -9.7483391e-02   9.0714825e-02  -5.0783945e-01   5.7119959e-01   8.2199043e-01   5.2987595e-01   2.0660118e-01  -8.1235525e-01  -9.4012305e-01   5.8319855e-01   9.0458663e-01   8.5906088e-01   7.6849988e-01  -9.4191911e-02  -8.7029151e-01  -2.9999117e-01  -1.0848105e-01  -4.8716059e-01  -1.8620056e-03   2.3576041e-01  -3.3076601e-01   8.0184473e-01   7.3378064e-01   6.8806980e-01   1.4298006e-01  -7.2266472e-01   5.4675759e-01   3.3326890e-01   3.6601330e-02   4.8146037e-01   9.4847864e-01   3.9159425e-01   4.3373694e-01  -9.0704153e-02   4.3518659e-01  -6.2337404e-01   2.3533822e-01   3.0391341e-01   1.5313219e-01  -9.9961672e-01  -4.0417101e-01   5.4568556e-01   3.8260403e-01   9.7592346e-01  -6.1879517e-01  -2.5372880e-01  -5.3446575e-01   3.2361686e-01  -4.0884255e-01   6.5483438e-01  -9.6211279e-01  -5.3184222e-01   4.2518603e-01   7.1925452e-01   8.2426873e-01   1.9788200e-01   5.7646625e-01   1.1023943e-01  -1.7099205e-01  -4.8256550e-01  -3.5257347e-01   8.0493295e-01   4.2014494e-01  -4.5469273e-01  -3.9488068e-01  -5.1538595e-01   5.3160998e-01  -9.2892983e-01   9.1710698e-01   1.3624231e-01   9.6076664e-01  -2.3579673e-01   8.2062784e-02   6.1154213e-01   2.8794185e-01   8.3288303e-02  -9.5125737e-01   9.8987233e-01  -8.2823292e-02  -8.3635949e-02   1.1416374e-01   7.5758040e-01   7.9356207e-01   1.2500038e-01  -2.9910568e-01   3.8263232e-01   7.5881157e-02   9.7804203e-01  -8.0563959e-02   4.0523055e-01  -7.6763820e-01  -1.5853632e-01  -2.9182074e-01  -1.0283446e-02   1.4183574e-01  -6.4386596e-01  -3.6329512e-01  -6.7621144e-01   5.2254770e-01  -4.5188114e-01   8.2386370e-01   9.5162678e-01   8.2828426e-02  -1.5370542e-01   8.2775833e-01  -2.7965979e-02   9.2973624e-01   4.5179735e-01   8.7498169e-01   9.9344875e-01  -2.6647836e-01   9.4451668e-01   2.9749347e-01  -9.7648350e-01  -3.1454650e-01   2.7060363e-01  -7.7882152e-03  -6.4346613e-01  -6.9512708e-01  -2.4103476e-01  -7.4325152e-01  -8.0759602e-01   3.6347463e-02   6.4320288e-01   9.5491266e-01   1.7250810e-01  -5.6248297e-01   5.4062101e-01  -8.0331521e-01  -5.8396295e-01   3.3386686e-01   6.3193467e-01  -7.6002894e-01  -3.1055963e-01  -2.2770250e-01  -7.4468557e-01   9.9852944e-01  -8.2872271e-01   6.8009777e-01   7.4506316e-01  -6.3173775e-01  -2.8525737e-01   2.7323855e-01  -2.1735706e-01   7.8163562e-01   1.2483779e-01   9.0444153e-02  -4.4470380e-01  -2.8263379e-02  -2.8725832e-01  -3.6496284e-01  -2.4196448e-01   2.0479418e-01  -2.6645012e-01   1.6040531e-01  -5.1871294e-01   8.2667634e-01  -9.8492124e-01   4.5402811e-02  -1.9355064e-01   1.3570471e-01  -1.5064164e-01  -5.8122746e-02   3.2757023e-02  -1.9944899e-01   3.9936501e-01   1.5549982e-01  -2.5521179e-01  -3.3085400e-01  -4.4290168e-01  -7.5203106e-02   1.5281470e-01  -3.5483192e-01   9.1971154e-01  -9.3090494e-01  -8.3483635e-02  -7.9358782e-01   2.3652335e-01  -6.5115655e-01   2.7852613e-01  -7.6719078e-01   5.9622472e-01   8.7233296e-01   6.2440612e-01   9.3342034e-01   4.5989380e-01   9.5034887e-01   8.1067268e-02  -1.1389790e-01   2.1033084e-02  -6.1898043e-01   2.2723841e-01  -3.3030343e-01  -3.7988202e-01  -3.4509046e-01  -4.0375342e-01   7.4170131e-01   2.3832010e-01  -7.0058406e-01  -6.5516657e-01   3.4633537e-01  -3.7821734e-02  -7.9916264e-01  -9.0082477e-01  -4.0359131e-01   1.4258240e-01   8.3883699e-01  -1.7106722e-01   7.6227419e-01   6.9358945e-01  -9.8988110e-01  -4.7921822e-01   8.9478731e-01   2.1034033e-01   2.0257210e-02   1.7803661e-02  -1.1617766e-01  -5.1963049e-01  -9.2682468e-01   5.2274932e-01  -6.5359144e-01   2.6684161e-01  -5.7606818e-01   7.7223079e-01  -2.6465235e-01   7.7410151e-01  -2.4891989e-01   9.5026875e-01  -3.0204078e-01   9.8221591e-01  -7.2045079e-01  -7.9774038e-01   4.9060924e-02   3.1094035e-01   2.9608697e-01
   3.2473883e-01  -5.4463362e-01   2.2701149e-01  -2.8049501e-01   1.9122422e-01  -5.1769759e-01  -1.0046820e-01   4.4792276e-01  -8.4034189e-01  -3.2761946e-02   8.1217708e-01   9.7201506e-01   2.2140500e-01   8.4777128e-01   5.8985212e-01  -9.9158658e-01   3.1358266e-01  -7.4896421e-01  -3.6092458e-01  -1.4952186e-02   2.2397883e-01  -7.3384986e-01  -7.2043360e-01  -8.1642799e-01   5.2069544e-02   3.8349829e-01  -5.9090104e-01  -9.3675498e-01  -3.7792738e-01  -9.1324962e-01   5.5424376e-01  -2.7055709e-01  -7.3569484e-01   7.2395921e-02   3.3075653e-01   3.0347702e-01  -3.8226656e-01  -1.2085899e-01  -3.5095453e-01   1.9139013e-01   6.9405373e-01  -5.8459093e-02   1.8803512e-01  -6.3923636e-01   3.6765278e-01   3.0496400e-01  -8.7018413e-01   4.4935369e-01   6.8516603e-01  -4.3093707e-01   2.0828126e-01   2.4996971e-01  -3.6760090e-01   7.4637337e-01   9.8018598e-01  -2.0633464e-01   2.5137485e-01   4.7758213e-01   4.3791093e-01   9.9964281e-01  -3.9653263e-01   8.1032653e-01  -2.2836509e-01   7.2025688e-01   5.9813715e-01  -5.8326121e-01   5.8907694e-01  -5.8060798e-01  -3.0731160e-01   2.5051213e-01  -7.3504776e-01  -7.4195345e-01   9.3114564e-01   6.1380832e-01   6.7771773e-01   9.1416471e-01   1.9649159e-01   4.1119359e-01  -2.2201754e-01  -5.4664066e-01  -9.4596752e-01   2.0806487e-02  -9.0238487e-01  -7.8712207e-01   1.2182436e-02   5.2666891e-01   2.1844111e-02   6.3531972e-01   6.1890829e-01  -5.1390173e-01  -7.2519589e-01  -4.4848531e-01  -2.4497108e-01  -6.7155234e-01   9.1570991e-01   8.0094045e-01  -4.7986449e-01  -3.5632349e-01   3.2677135e-01  -2.2427192e-01  -5.4125459e-01   2.6635539e-01   3.9915903e-01  -7.8203331e-02  -2.7907975e-01   4.9792610e-01  -8.5757879e-01   3.1355123e-01   1.7463726e-02  -9.8410338e-01   2.2780026e-01   1.4236955e-01   1.4604482e-01  -4.6432437e-01   9.7249489e-01   1.0091582e-01   6.8888324e-01  -9.2368828e-01   1.0186229e-01   3.0283352e-01   6.7251777e-01   1.1491492e-01   2.0354703e-02   7.4476701e-01   9.2480087e-01  -1.7913293e-01  -1.2376091e-01   6.7252352e-01   3.4739415e-01  -9.8553430e-01   5.9463437e-01  -8.0404267e-01   8.1956847e-01   1.5757961e-01  -6.5771299e-01   9.1438586e-01   8.1954953e-01   6.5243225e-01   1.8914059e-01  -5.7436002e-01  -9.4063128e-01  -6.3287923e-01   8.2640937e-01   5.1266126e-01  -8.5271144e-01   2.1506351e-01   3.6622704e-01  -6.8250878e-01   4.2292359e-01   6.0904190e-02   8.4780544e-01  -6.0804888e-01  -9.4044419e-01  -8.0360442e-02   7.2379173e-01   2.7254315e-01  -9.5094092e-01   1.3267807e-01   6.9718076e-02   2.1792549e-01   1.1035881e-01  -5.5320883e-01   2.7777312e-01  -7.0144803e-01  -3.8501086e-01   4.9839148e-01   3.7279271e-01   3.7793814e-01   1.8756819e-01  -6.9658285e-01   6.2491251e-01  -8.1601121e-01  -3.8233462e-01  -5.3376738e-01   6.0257058e-01   1.9847303e-02  -6.7764281e-01   9.2861444e-01  -5.8106768e-01   9.6173685e-02   9.6202482e-01  -7.0617174e-01   6.0947256e-01  -9.6090292e-01   8.6015963e-01   4.1461827e-01   7.1469981e-01  -1.3552527e-01  -8.5123090e-01  -8.0922710e-01  -5.9539648e-01   6.7890809e-01   5.2797341e-01  -9.4632090e-01   5.8943176e-01  -8.6512735e-01  -2.9610997e-01   8.6026218e-01  -9.7874133e-01   9.2486313e-01  -9.9057074e-01   2.7306868e-01  -2.9791108e-01  -4.4421180e-01   8.5400633e-02  -4.9347644e-01   1.9777655e-01   4.8509305e-01   6.4628113e-01  -6.7220939e-01  -9.9664903e-01  -8.6397026e-01  -4.9472146e-01  -6.8061040e-02  -5.0344204e-02  -2.1260922e-01  -3.4984885e-01  -1.1397542e-01   8.3506808e-01   7.2316253e-01  -8.7571338e-01  -2.9573408e-01   5.3831016e-01  -5.2755829e-01  -7.7879577e-01   9.3221384e-02  -6.2322680e-01   8.9188556e-01  -7.5889425e-01   8.5288680e-01  -6.4174941e-01  -7.9917323e-01  -7.1376165e-01  -8.0974765e-01   3.9613603e-01   2.2667067e-01   1.0943489e-01   6.5934191e-01  -9.8345619e-01   5.5562338e-02  -5.1823859e-02   9.4774863e-01  -8.1932925e-01   6.6410618e-01   4.7669051e-01  -6.4538831e-01  -9.4944273e-01  -8.8198317e-01  -8.7609004e-01  -5.2517680e-01  -8.7628397e-01  -3.8601585e-01  -7.8905473e-01   2.9637797e-01   5.5527210e-01   1.6078061e-01  -9.6188799e-01   8.8816353e-02  -2.6316699e-01   7.7724773e-01  -1.3324396e-02  -9.2834598e-01  -2.2697895e-01  -6.9286308e-01   1.2058216e-01  -3.4350813e-01   7.9827532e-01   2.1413246e-01   9.5996378e-01  -4.8560393e-01   7.6225641e-01  -4.2956552e-01   3.2908552e-01   3.7449107e-01   9.9551198e-01  -1.1636996e-01  -4.8610329e-04  -8.9610250e-01   9.8043587e-01  -7.6847866e-02  -9.3999854e-01  -9.3313620e-01  -7.0945781e-01   3.1305225e-01   1.6171611e-01  -8.8151317e-01  -6.5017930e-01   1.8128532e-01  -4.6634470e-01  -5.8015770e-01   1.7452459e-01   2.9351508e-01   4.4333936e-01   5.4914407e-01   3.1793778e-01  -6.6084292e-01  -7.7856666e-01   7.0889319e-02  -4.6071391e-01   7.1067177e-01   6.6759641e-01   1.8853756e-01  -6.0834782e-01   6.4080410e-02  -6.1614632e-01   3.9442265e-01  -1.2481902e-01  -2.5601747e-01  -1.3327671e-01   6.6079192e-01   8.6470008e-01   9.0845829e-01  -9.1561714e-01   8.5352386e-01  -3.1083249e-01   2.7136287e-02  -1.2719428e-01  -2.4457016e-02  -7.6331305e-01  -3.3551310e-01   9.3085381e-01  -2.2528616e-01   2.3453167e-01  -7.4092633e-02   9.3791825e-01   2.2735501e-01   8.7170588e-01   9.1928643e-01  -5.3023914e-01  -5.5438849e-01  -3.2804195e-01   8.8599913e-01  -9.1017808e-01   5.6590525e-01   3.4467396e-01   1.7605348e-01   5.1068357e-01   4.3254304e-01  -7.4470456e-01   3.7415639e-02  -4.4017841e-01  -6.7758565e-01   2.7233374e-01  -8.3230817e-01  -4.8822008e-01  -1.8300071e-01   5.9578180e-02  -4.7259885e-01  -7.8902166e-01   7.8634941e-02   4.5412881e-01   4.4785449e-01  -2.0831874e-01  -2.1227793e-01  -9.0618788e-01   1.3867812e-01   8.8577668e-01  -7.9876536e-01  -3.3609878e-01  -4.2189287e-01   9.4258368e-01   1.0041566e-02   7.8193385e-01   4.7251716e-01   1.5155774e-01  -9.7882840e-01   5.1108628e-01   4.2746237e-01   6.0927851e-01   4.5265531e-01   9.7989715e-01  -2.0920954e-01  -8.7805684e-01  -8.0809024e-01  -4.1725581e-01   8.4834899e-01   6.4074811e-01   2.6070584e-01  -5.3577995e-01   4.7296918e-01  -5.0716034e-01   1.1010406e-01   3.4354493e-01  -2.3407553e-01   5.5661183e-01   2.7166369e-01   7.5014684e-02   2.0269374e-01  -6.2517275e-01   2.3857333e-01  -8.6766225e-01   2.5851472e-01   6.4989737e-01  -8.8528827e-01   2.2960787e-01   4.7438136e-01  -3.8681129e-01  -3.2820536e-01  -2.2425734e-01  -2.1666541e-01  -3.9751361e-03   3.9284096e-01  -7.2556533e-01   3.0674618e-01   5.4847441e-02   2.2206274e-01   2.8873549e-01  -2.2568350e-01   2.6127202e-01   2.1464617e-01   4.5812857e-01   5.0599933e-02  -1.7502503e-01   7.9843022e-01  -9.2715622e-01   3.8861348e-01   5.0629088e-01   6.2525135e-01  -4.7576995e-01   9.4405946e-01   2.4977881e-01   4.4417642e-01  -7.6081896e-01   7.7737056e-01   1.8350441e-01  -9.5935475e-01   5.4755182e-01   9.9165079e-02   8.2213364e-01  -4.3164750e-01  -2.8748924e-01   2.8864857e-01   8.5570786e-01  -7.3489015e-01  -3.7154605e-01  -5.3120875e-01  -8.8471741e-01   5.2842625e-01   6.6113964e-01  -4.6323181e-01  -4.2086778e-01  -8.9308143e-01  -5.5813912e-01  -6.8448114e-01  -7.8831905e-01  -5.2377821e-01  -1.4371007e-01   9.5646079e-01   3.2996628e-01   2.3080943e-01  -9.1621395e-02  -6.4929889e-01   7.8277014e-01  -1.3115201e-01  -1.0537940e-01  -6.8604987e-02   7.9240698e-01   4.3937655e-01  -3.0290698e-01  -7.1866045e-01   7.0956100e-01   7.8481515e-01   4.2343240e-01  -6.0876953e-01   1.9312987e-01  -2.3439771e-03   6.9079765e-01  -3.8907515e-02  -3.5550200e-01  -3.9774980e-01  -6.9796570e-01   4.1602062e-01   7.6265623e-01  -2.9291583e-01  -7.2985713e-01   2.0655597e-01   9.8845675e-01  -4.7720971e-01   5.5595826e-02   7.3909126e-01  -7.1352373e-01  -8.7740239e-01  -4.7170128e-01  -9.3564791e-01   9.9246055e-01   7.9864719e-01   2.5434616e-01  -8.1322576e-02  -9.8281271e-01  -7.0701617e-01  -1.5134670e-01   3.7146977e-02   6.0063394e-02   2.5784234e-01  -7.4567993e-01  -7.6611739e-01   9.1327417e-01   7.9462933e-02  -9.8390021e-01  -2.3807670e-01  -1.1726163e-01  -9.0946655e-01   5.1836004e-01   5.5993153e-01  -5.9025967e-01  -1.4376510e-01  -2.5958131e-01   5.7485584e-01   1.2071308e-01   9.7917690e-01   7.5143929e-01  -9.2400129e-01  -8.0318911e-01   3.6943025e-01  -7.8280227e-01   1.6453303e-01  -5.8705642e-01   6.8208244e-01   1.5016162e-01  -6.5664648e-01  -6.1441075e-01  -4.7647815e-01  -9.9310611e-01  -9.4435481e-01  -9.7205818e-01   3.4693548e-01   6.4936526e-01   2.8938449e-01   9.7917282e-01  -2.9721657e-01  -6.0396789e-01  -7.7906991e-01  -9.7944402e-01   1.5644924e-01  -2.8442293e-02  -8.9824053e-01   1.5250649e-02   7.5148997e-01   4.3625938e-01  -1.9128035e-02   6.9914431e-01  -9.9382135e-01   5.1735856e-01  -4.9954915e-01  -6.1861738e-01   3.0259215e-01   8.6453935e-01   6.9476549e-01  -5.1997704e-01  -2.4473057e-01  -3.7045887e-01  -2.4911954e-01  -1.3932194e-01   6.3284372e-01  -5.7991632e-01  -9.8782663e-01   1.6762517e-01  -6.9425137e-01  -3.4917802e-01  -1.6535114e-01   4.5023493e-01  -4.7159662e-01  -6.8255311e-01   7.4503420e-01   7.4960933e-01  -7.7862356e-01  -9.2767790e-01  -3.9386147e-01   7.9588625e-01   2.2712058e-01  -8.0679497e-01  -4.2021059e-01  -7.1971403e-01  -2.1521236e-01  -1.6715584e-01   1.2192350e-01   2.3147420e-01  -7.7950839e-01   6.0854907e-01   4.0027001e-01  -6.3352964e-01   1.1237011e-01   2.6535702e-01   9.1183053e-01  -7.3765575e-01  -3.2872840e-01   3.8828179e-02   6.2003856e-02  -1.9560603e-01   2.7973455e-01   9.1905347e-01   3.9906698e-01   4.9650808e-01  -2.0984082e-01  -4.6655973e-02   2.0467936e-01   1.4310460e-01  -6.8006479e-01   4.7739951e-01   9.1393740e-03   7.7285992e-01   1.2156251e-01   7.2656568e-01   7.7695269e-01  -3.5142310e-02  -2.7306010e-01  -2.4558246e-01   6.8089472e-01   1.9645028e-01   3.9724433e-01   2.5086443e-01  -6.6698736e-01   5.6980466e-01   5.9478400e-01   8.1734897e-01   5.4260633e-01   9.2164340e-01  -5.3289203e-01  -6.8884486e-01   8.5973164e-01  -6.9290986e-01   9.7439160e-01   5.7117516e-01  -9.7586703e-01   5.3538001e-01  -1.3853844e-01   5.6694279e-03   5.2578836e-01   7.3766386e-02  -8.8155977e-01   1.4640970e-01  -4.0951719e-01  -4.8489859e-01  -3.3412522e-01  -9.9292437e-01   8.0457744e-01   9.5187044e-01   9.9544120e-01  -3.6781924e-01   9.2906553e-02   7.7090494e-02   2.1311813e-01   8.7716353e-01   2.5504282e-01   5.0218348e-01   9.8058396e-01  -9.6993650e-01   2.3959932e-01   9.6738096e-01   1.4607399e-01   3.0068404e-01   6.9110840e-01  -8.1416634e-02  -6.1627306e-01  -9.4660237e-01   9.6136390e-01  -1.0298420e-01  -9.9985027e-02   4.7068497e-01   9.4436485e-01  -7.9671624e-01  -9.2801939e-01   2.0615773e-01  -1.2615911e-01  -5.5079259e-01   9.0283436e-01   4.7509916e-01   4.4551981e-01  -8.4533826e-02   6.9119397e-01   2.6261942e-01  -4.9764056e-01  -4.2583187e-01  -9.6280697e-02  -8.6277638e-01   1.9031389e-01  -8.5833560e-01   1.8116275e-01  -1.2466361e-01   8.5018755e-01  -5.6315720e-01  -3.1137438e-01   2.0728609e-01  -6.7863290e-01   8.7874926e-01  -2.3296721e-01  -8.9074118e-01   7.7700242e-02   4.8365120e-01   7.6569675e-01  -7.6659596e-01  -5.5269159e-02   6.5960162e-01  -7.9635032e-01   4.8707939e-01  -3.4160486e-01   9.7590430e-01   5.4843253e-02   4.4228408e-01  -5.6647250e-01   5.7581746e-01  -2.8189135e-01   2.9132749e-01   5.0654814e-01   2.7075914e-01   3.5024311e-02   1.1962366e-02  -8.6172166e-01   2.8200198e-01  -1.7978437e-01  -7.3385953e-01  -1.7481407e-01   3.6129173e-02  -6.3709079e-01  -3.8556911e-01   8.5776874e-01  -3.9728129e-01   3.9949756e-01  -2.2634597e-01   2.6019954e-02  -5.1381797e-01   8.8014704e-01   9.4204388e-01  -2.9396353e-01  -4.6696690e-01   1.3380359e-01   5.6445244e-01  -5.6907923e-01   9.1780085e-01  -1.8449715e-01   7.6634913e-02  -9.3492069e-02   4.7167352e-01  -9.9658273e-02  -9.9645776e-01  -8.0510054e-01  -2.5085372e-01  -3.3613157e-01   6.6657318e-01  -6.4784885e-01   8.7208771e-01  -3.0514012e-01   1.7041744e-01   4.8243158e-01   6.2415310e-01  -7.7750962e-01   6.0467946e-01  -8.9553875e-01   4.8533620e-02   9.1818675e-01   2.3349519e-01   6.1325211e-01   3.4270098e-01   5.6813441e-01  -9.8221609e-01  -9.8288260e-01  -1.0200038e-01   3.4710286e-01   7.3337398e-01  -2.3367306e-01   7.2835995e-02  -2.2025440e-01   2.8580788e-03  -3.5089513e-02  -6.2651371e-01   4.8478265e-01  -4.0794129e-01   5.9738883e-01   7.6533035e-01   7.6733225e-02  -8.1204065e-02   1.3377188e-01  -8.5461004e-01   1.4640988e-01  -8.9011234e-01  -9.3173888e-01  -5.3873596e-03   3.0390288e-01  -6.5116849e-01  -2.8852779e-01   7.0494967e-01   1.2530157e-01  -7.2215926e-01  -1.0921402e-01   2.6095049e-01   7.0781523e-02   4.9875829e-01   7.1916300e-01  -9.8002241e-01   6.7985127e-01  -5.7770601e-01  -2.0615954e-01  -6.4554238e-01  -5.1281950e-01  -6.8605118e-01   7.7271470e-02   4.0600770e-01  -1.7679374e-01  -6.4542202e-01  -6.1880075e-01  -6.7179434e-01  -3.4485943e-01  -6.1044969e-01   2.6048704e-02   6.0211381e-01  -4.7302214e-01  -6.1086509e-01  -5.9328422e-01   9.0378926e-02   8.1790914e-01  -9.9310543e-01   7.1515795e-01   6.0864774e-01  -2.3173800e-01  -1.6278963e-02  -4.1809945e-01  -7.0124725e-01   6.9607330e-01   3.8087702e-01  -3.1305625e-01   2.0719278e-01  -2.2309073e-01  -7.3237136e-01  -5.1298683e-01   2.6390447e-01   5.0032230e-01  -9.4960465e-01  -4.5210489e-01  -8.4612778e-01  -6.3025160e-01  -9.1593793e-01  -6.5796864e-01  -6.5611174e-01   7.0910857e-01  -7.3973320e-01  -3.7947014e-01  -4.5668319e-01   9.6784858e-01   8.4391174e-01  -8.6474493e-01   2.4372925e-01  -5.4485277e-03   3.2618973e-01  -9.9114757e-01  -3.9105404e-01   6.4882126e-01   1.6739094e-01   9.3682727e-01   7.9964676e-01  -7.1291127e-01   5.9572922e-01   2.3296884e-01   9.0974197e-01  -5.2740102e-01   1.0990193e-01   8.8803356e-01  -8.1861149e-01   6.2503035e-01  -2.9570763e-01   9.4855476e-01  -6.3590382e-01  -6.9128132e-01  -5.5234260e-01  -3.8750149e-02  -9.6908861e-01   6.2685696e-01   9.7486257e-01   9.8548609e-06   8.9012078e-01  -8.3274197e-01   7.5934953e-01  -5.3665895e-01  -4.1008308e-01   2.3203437e-01  -3.4150525e-01  -3.7471140e-02   5.5420996e-01   2.9963091e-01   6.8652459e-01   9.7697644e-01   9.1986274e-01   6.4166226e-02   4.2650813e-01   7.8239913e-01   7.3036738e-01  -1.5457766e-01  -5.0088303e-01   6.0276945e-01  -1.3919119e-01   7.6469268e-01  -3.5866433e-01  -5.3676482e-01   1.0941891e-01  -6.3434765e-01   4.9571642e-01   4.0789758e-01  -8.3139338e-01   1.4052214e-01  -9.9004002e-01   1.8123327e-01  -8.6408428e-01  -7.5794300e-01   4.3614866e-01   3.6903482e-01   4.0876756e-01   2.9675617e-01  -1.1555703e-01   8.8593417e-01  -7.9838702e-01  -2.5778886e-01   2.7352810e-01   2.6795081e-01   2.8086617e-01   3.4080734e-01   2.6070995e-01   3.3293790e-01  -6.7211008e-03  -9.8458642e-01  -4.6626135e-01  -5.4489255e-01   3.1030013e-01   2.4946742e-01  -1.1949663e-01   3.7158976e-01  -3.8170286e-01  -9.6169604e-01  -4.3087643e-01  -3.2499857e-01   2.8880884e-01  -3.8816742e-01  -5.3900177e-01   3.2390781e-01  -1.8069478e-01   9.0389323e-01   8.4183208e-01   7.6427824e-01  -8.4663650e-01  -1.4289061e-01  -8.7798116e-01  -8.9372312e-01   6.3171739e-02  -9.2544010e-01  -8.0008267e-01  -7.5446691e-01   2.1737358e-01  -6.6695865e-01   2.2497776e-01   2.6713393e-01   7.9157092e-01  -6.6636719e-01  -2.5382536e-01   5.2327972e-01  -9.0319317e-01  -7.9895803e-01  -9.2718767e-01   5.0432492e-01   8.7708002e-01  -7.8059836e-01   8.6798452e-01  -9.1290477e-01   7.7911331e-01   5.9648946e-02  -3.6086891e-01  -4.8339006e-02   5.9668740e-01  -9.6907185e-01   9.5265932e-01   3.7923414e-01   1.5638810e-02  -9.4240778e-01   7.0129336e-01   8.9906815e-01  -8.3169803e-01  -2.5459360e-01  -2.6735488e-01   9.8103471e-02   8.6774409e-01   8.6108100e-02   6.2433079e-01   6.4707393e-01  -8.2109787e-01  -4.5574071e-01   1.3416837e-01   5.5956717e-01   7.1297735e-01   7.5916653e-01  -5.2551049e-01  -5.6626484e-01   5.1447397e-01  -7.4283906e-01  -7.0566647e-01   8.3328552e-01  -4.0982590e-01  -4.8382286e-01  -6.4108462e-01   8.8010997e-01   2.4961672e-01  -4.4551726e-01  -6.0374421e-01   4.3078127e-01
  -5.6830859e-01   5.7663092e-01   5.0339636e-01  -4.3812474e-01   8.0286411e-02  -2.3677647e-01   1.1556666e-01   9.9289190e-01   3.0680046e-01   5.0165877e-01   3.3736608e-01   2.8408056e-01  -7.7076442e-01   8.3440099e-02  -3.6086154e-02  -6.0028752e-01   3.7285195e-01  -4.6117004e-01   2.9313528e-01   2.3797967e-01   3.5469936e-01   6.8498516e-02  -2.2322095e-01  -3.4499793e-01   9.8290691e-01   7.1562090e-01   1.5487081e-01  -9.6917200e-01   8.8669008e-01   2.6786829e-01  -4.0884669e-01   9.0460662e-01  -6.9495910e-01  -5.8825845e-01  -3.9262658e-01   5.9189649e-01   7.0349192e-02  -4.0965797e-01   5.7862111e-01   5.1644277e-01  -5.2646778e-01  -8.9867053e-01  -8.8238569e-01  -1.9247597e-01   3.5706346e-01  -4.4407465e-01  -8.4584285e-01   3.6321983e-01  -1.4858858e-01   1.1834212e-01   6.0255170e-01   9.8714065e-01  -3.0843606e-01  -3.2260493e-01  -2.5273485e-03   2.6352035e-01  -7.5872724e-01   3.7809673e-01  -1.2507852e-01   9.0213436e-01  -8.1516028e-01  -5.5561484e-02   5.0164521e-01  -4.3224196e-01  -5.5127953e-01   8.1562377e-01   1.7845641e-01  -1.5043681e-01  -8.3063545e-01   1.5406605e-01  -2.4577266e-01   4.9383659e-01  -3.7543830e-01  -3.4219593e-01  -6.6844155e-02   7.7167902e-01  -2.5279052e-01  -9.4708947e-01   7.4379694e-01   9.2158551e-02   7.9124463e-01  -5.0456739e-01  -9.8672478e-01   4.2269346e-01  -9.8588924e-01  -2.6204409e-01  -7.9122997e-01  -5.6909020e-01  -4.7604252e-01   3.5075510e-01  -4.1300066e-01   2.6843806e-02  -4.2548044e-01  -6.6988926e-01   2.3180347e-01   8.0432454e-01  -9.3088592e-01   6.4102958e-01   3.2350344e-01   7.9430064e-01  -9.6375756e-01  -4.4506908e-01  -1.1925388e-02   1.9457994e-01  -7.2178838e-01  -6.0797492e-01  -6.5180273e-01   9.2601837e-01  -1.7543160e-01  -9.4871397e-01  -9.4911672e-01   6.9631345e-02  -4.2825539e-01   5.4244846e-01   1.6392032e-01  -8.3965244e-01   6.5934968e-01  -8.0628149e-01  -1.8244546e-01   7.1894155e-02   6.8481931e-01   4.7332521e-01  -5.7670008e-01  -8.2306212e-01   1.7539266e-01  -1.9737731e-01  -3.1670519e-01  -5.1448700e-01  -3.8662645e-01  -8.2227204e-01   2.0994078e-01  -7.1897777e-01   8.5612751e-01  -8.8866008e-01  -1.6794657e-02   9.2027128e-01   8.9029719e-01   9.6804779e-02  -9.6187353e-01   2.4956743e-01   2.9746908e-01  -3.4347802e-01   1.2937039e-02  -4.0328705e-01   6.4921358e-01   1.9471836e-01  -2.7817027e-01  -8.0100116e-01   8.2919279e-01  -4.9076270e-01  -3.8769120e-01   2.0594943e-01   2.9988182e-01  -5.1834612e-01  -2.2356023e-01   3.0610000e-01  -4.1181737e-01  -1.1931071e-01   8.2778937e-01   8.1409043e-01  -6.9758762e-01   3.9744710e-02   9.5662058e-01  -5.9270962e-01  -9.0453166e-01   1.1431019e-01   6.3115018e-01   6.4631373e-01  -5.3894773e-01  -8.5315237e-02  -3.8794291e-01   4.6096443e-01  -5.3886738e-01  -7.0212783e-01  -8.7514263e-01  -7.5754681e-01   7.6683568e-01  -8.4917726e-01  -2.7163483e-01   7.0219303e-01   5.8266764e-01   8.7199354e-01   1.4861309e-02   3.9721014e-01   4.3778490e-01   1.5632899e-01   1.7182654e-01  -1.3266798e-01   7.9850724e-01   4.7529674e-01  -9.1941888e-01  -9.0243176e-01   4.5541664e-01   7.7441641e-01   7.1948443e-01   7.1936948e-01   6.0061259e-01   4.3869856e-01  -6.2823172e-01  -5.0350731e-01  -8.5155497e-01   9.4627162e-01  -1.1700816e-01  -6.5605407e-01  -5.9285329e-01  -1.0546879e-02  -2.3147257e-01   6.9802917e-01   2.1710635e-01  -7.4686548e-01  -8.1840464e-02  -1.1895120e-01   7.8591609e-01   9.4435466e-01   3.2790411e-02  -5.7680740e-01  -9.3781764e-01   3.8861160e-01   3.8438063e-02  -9.4826631e-01  -5.5640356e-01   2.9448750e-01  -5.8861646e-01  -2.9209881e-02   9.0249544e-02  -1.5325033e-01  -3.3894525e-01   5.6206891e-01   2.4984423e-01   8.6861030e-01   1.1809292e-01  -7.4734210e-01  -5.7210956e-01   2.1571118e-01  -4.0325445e-02  -9.2934227e-01   6.4303348e-01   3.0710674e-01   4.0663978e-01  -4.8976816e-01  -2.5904682e-01  -2.1438539e-01  -4.0194366e-01  -1.6206327e-01  -8.3403915e-01   7.9208553e-01   1.5223241e-01   1.4618169e-01   3.0310056e-01  -7.2960560e-01   3.1701495e-01  -8.8650864e-01   1.3338222e-01   3.1404673e-01  -4.9648852e-01   8.8303154e-01  -9.1299297e-02   9.6307781e-01  -9.4255379e-01  -8.4138195e-01   1.0297670e-01   6.1967964e-01   3.2217341e-01  -2.5535018e-02  -1.4877309e-01  -9.8274589e-01  -9.1896824e-01  -6.7555390e-02   2.5617504e-01  -8.7130888e-01  -3.0331362e-01   9.6072100e-01   7.4833871e-01   9.5615297e-01  -9.7270445e-01   9.7896945e-01   7.2432802e-01   2.0652527e-01   8.1818317e-01   6.6116625e-01   5.3113947e-01   9.1361230e-01   8.0461237e-01   9.7932747e-01   3.9603396e-01   1.3797560e-02   8.7705127e-01   8.5499775e-02  -8.3080019e-02   2.0777078e-01  -7.2976176e-02  -1.8038234e-01   8.4603992e-01   2.1959518e-01  -3.2344451e-01   6.4166620e-01   9.4698007e-01  -4.3689330e-01  -6.5835156e-01  -3.3199585e-01  -4.6252299e-01   4.1021645e-01   7.9194970e-01  -3.4171654e-01  -2.0373307e-01  -8.9768232e-01   1.1173971e-01  -3.9220283e-01  -4.1348300e-01   3.4986948e-01   3.8542914e-01  -4.0730349e-02   3.0203372e-01  -3.8562456e-01  -9.9077277e-01  -4.9437213e-01  -4.7249101e-01   1.2214251e-01   4.0190265e-01  -6.4070320e-01   7.7663188e-01   3.9954441e-01  -1.5134607e-01   3.0420731e-01   9.5850823e-02  -9.1445052e-01   9.1390968e-01  -3.3693527e-01   9.4506020e-01   9.9601810e-01   9.0181005e-01   9.0252406e-03  -8.0690018e-01   9.1531797e-01   2.6361687e-01  -7.7628515e-01   2.1653807e-01  -9.0066866e-01  -2.1588351e-01  -7.8736662e-01   4.7967070e-01   6.1934244e-01   8.7820228e-01  -5.0138734e-02  -7.6421639e-01  -3.6468470e-01   1.2924320e-01   7.2840649e-02   7.8901275e-01   7.0121803e-01  -6.5049726e-02  -6.6362390e-01  -8.2235007e-01   6.3529578e-02  -4.8927853e-02  -9.0110372e-01  -2.5456271e-01  -9.1633445e-01   3.5016643e-01  -7.5453977e-01  -1.7330675e-01  -6.4483751e-01  -7.6556418e-01   7.8966386e-01   1.9569556e-01  -1.9155056e-01   8.0587869e-01  -8.3325598e-01   3.4405670e-01  -3.3917102e-01  -4.3010238e-01   1.7276647e-01  -5.4821127e-01  -8.2327486e-01   9.8441184e-01  -6.0590125e-01  -5.9456652e-01   3.6598206e-01   9.2399235e-03  -6.4182238e-01  -1.1081014e-01  -1.1268576e-01  -9.5234820e-01   2.7766503e-01   4.0496301e-01   6.5358258e-01   9.1739932e-01   9.9894726e-01   4.2708429e-01   2.4924135e-01   6.2873171e-01   8.5090018e-02   7.4011100e-02  -4.2627475e-01  -2.4500759e-01   2.4228009e-01   5.2284777e-01   6.4673737e-01   7.6658805e-01  -5.6895794e-01   1.0222874e-01   9.9602676e-02   7.3124136e-01   7.2889419e-01   1.0162711e-01  -8.2239977e-01   8.8098950e-01   6.4785642e-01   4.3894079e-02   6.8641263e-01  -1.3016481e-01  -1.9897989e-02  -9.2110661e-01   1.8218211e-02  -9.4475485e-01  -7.5509927e-01  -1.9953891e-01   5.8794275e-01   1.7387248e-01   3.6430199e-01   6.4628390e-01   9.4192232e-01  -7.0412811e-01  -9.4614568e-01  -1.7620753e-01   9.5072019e-01   7.7388090e-01   2.3327821e-01   8.8125181e-01  -1.0369058e-01  -9.6683204e-02   9.7687856e-01   9.0995043e-01  -6.2897653e-01  -5.2751985e-01  -5.3063892e-01  -1.5200823e-01   8.9297190e-01  -9.8775492e-01   3.4604565e-01   4.1214052e-01   2.7122929e-01   6.3491095e-01   6.0441388e-01   4.6238328e-01  -6.3997823e-02  -7.3291068e-01   2.7087100e-01   2.2879998e-01   1.3471338e-01   4.0626715e-01  -7.6795457e-01  -3.8003933e-02  -8.2473883e-01  -4.9532732e-01   2.3918902e-01  -7.6575468e-01  -1.8651547e-01   7.5208773e-01  -1.1469308e-01  -1.5815774e-02  -8.6158486e-01  -3.1085174e-01  -5.5498856e-01  -6.1237842e-01   7.4283123e-01   7.5821361e-01  -8.4691218e-01  -9.1756281e-01   3.5931020e-01  -7.4179998e-01   5.0702105e-01  -6.0691820e-01   5.3414738e-01   1.0646262e-02  -5.6562947e-01  -8.7946985e-01   4.1679482e-01  -1.3910051e-01   7.7124470e-01   8.0056280e-01  -9.4565915e-01   2.1149342e-01  -9.0758416e-01  -5.7779833e-01  -2.5050268e-01  -2.4804091e-01   1.0983714e-01   3.0420404e-01  -5.6761371e-01   3.8190506e-01   2.4047654e-01   5.8291961e-02  -7.9330291e-01   1.7461836e-01  -6.7414893e-01   6.4225125e-01   3.4027372e-01  -2.1781549e-01   1.1660448e-01   9.0397867e-01  -8.2222631e-01  -2.8823882e-02   7.7008578e-01   2.0078227e-01   2.0420320e-01  -7.0570372e-01  -4.4617341e-01  -6.6484259e-01  -2.9292829e-01   4.1625382e-01  -6.5604515e-01  -5.2863966e-01  -9.6694943e-01  -7.0603964e-01  -7.1556978e-01  -6.3477881e-01   3.0065176e-01  -6.0519940e-01   4.1983944e-01  -9.1036654e-01   2.5492484e-02  -3.8053220e-01   3.8019584e-01  -3.7933609e-01  -7.4447081e-01  -3.3316620e-01  -3.3000102e-01   9.9939294e-02   2.7925857e-01   9.6732073e-01   2.2909488e-01  -5.0127379e-01   9.0791087e-01  -5.0291764e-01   5.7419544e-02  -9.5573362e-02   9.0234528e-01   9.3836738e-01   9.1966017e-01  -7.7579572e-01  -4.8802744e-01  -5.5685362e-01  -1.0351822e-01  -4.7358214e-01  -4.8793853e-01  -2.7332328e-01   6.4401464e-01   6.7991151e-01   8.2760147e-01   9.7460279e-01   3.0003768e-01  -5.0297995e-02  -2.8769716e-01   1.6840895e-01  -9.7858282e-01  -4.0332338e-01   7.6469925e-01  -5.9555091e-01   1.8614582e-01   3.7944573e-03   9.3623862e-01  -7.1614395e-01  -2.6117290e-01  -9.7404437e-01  -2.7127884e-02  -3.9333852e-01   6.1829052e-01   1.3840041e-01   4.2199671e-01   5.4001114e-01   6.5147646e-01   3.8203647e-01  -6.2880365e-01   2.9132222e-01   6.7589890e-01   4.3693151e-01  -3.5576801e-01  -6.6738312e-01   1.2614014e-01   2.5262540e-01   1.7490939e-01  -6.6418165e-01   2.8494079e-01   6.8946641e-01  -4.4709939e-01  -9.7667576e-01  -6.0552524e-01   2.4091419e-01   8.8016755e-01  -1.8347332e-01   9.4917082e-01  -9.6511700e-01  -2.6612592e-01  -2.3052676e-01   1.8970744e-01   8.2896207e-01  -5.8294938e-01   2.1858847e-01  -3.1089236e-01   6.8652236e-01  -1.4286148e-02   8.4207927e-01   2.9337417e-01   5.0266472e-01   5.8873305e-01   3.6813408e-01  -5.8680346e-01   3.2562709e-01   3.8916775e-01   1.0643846e-01   1.0907223e-01  -6.5218070e-01  -6.0143790e-01   5.7559916e-01  -4.6810171e-01   8.5889805e-01   5.0344595e-01  -8.2173925e-01   1.8843132e-01   6.8858177e-01   4.7542403e-01  -7.3694171e-01   4.8051818e-01  -2.0425601e-01  -2.4410468e-01   4.2657534e-01   5.3283150e-01  -4.8693734e-01  -2.8839791e-01  -7.2073352e-01   4.3010619e-01  -9.3506838e-01   9.8125591e-01  -2.9647701e-03  -3.4867702e-01   5.2036305e-01   9.7522384e-01   9.9922276e-01  -9.9217873e-01  -3.7338753e-01  -2.7046015e-01   4.8657041e-01   1.2814112e-01  -7.7385878e-01   9.1530021e-01   4.3181264e-02  -8.7290761e-01   9.9130831e-01   2.8446482e-01  -3.6002610e-01  -9.9966291e-01  -5.1100631e-01   9.0564825e-01   2.6732005e-01   9.4545522e-01  -3.5057987e-01   6.4415334e-01  -3.9546190e-01  -5.0941937e-01   9.0263310e-01  -5.6425276e-01   8.6081303e-01   9.4685127e-01  -8.7537621e-01   4.1445694e-01  -2.3791085e-01  -9.3544008e-01  -6.3890611e-01  -2.5977761e-01   6.9158472e-01   4.2650714e-01  -8.4600328e-01  -2.9285419e-01  -6.8800112e-01  -5.8784400e-01  -1.2804657e-01  -8.9791988e-03   9.4113027e-01  -2.4787153e-01   9.9476457e-01  -4.2571521e-01  -8.2410514e-01  -5.3356850e-01   6.2022842e-01  -6.8161515e-01   1.4423295e-01  -4.6559303e-01  -2.2701333e-01  -8.7966411e-01  -3.4219799e-01  -6.1802646e-01   7.9426240e-01  -2.4295562e-03   7.4272378e-01  -2.2419868e-01  -9.6586423e-01   2.1267283e-01   3.8711037e-01   8.3393970e-01   7.6442852e-02   1.0002938e-01  -7.0407079e-01   7.9574829e-01  -5.5800619e-01  -2.2510630e-01  -6.7468006e-01  -7.5376034e-01   5.9300232e-01  -8.3492404e-01  -5.2302893e-04   8.0865105e-01  -3.1812195e-01   2.8530479e-01  -9.1520982e-01  -4.8063654e-01   6.1466970e-01   9.2715444e-01  -7.4275967e-01   6.6155608e-01   7.0870110e-01   8.2955698e-01   9.1914019e-01  -4.8795752e-01  -4.5341314e-01  -8.7819921e-01   2.6295302e-01  -2.4358853e-02   1.5726311e-01  -5.8521102e-01  -6.9998195e-01  -8.1051320e-01  -1.9662461e-01   3.9091823e-01  -6.5732778e-01   9.4261341e-01   6.1552256e-01   8.4864923e-02  -6.8090108e-01   1.9613755e-01   6.3927063e-01  -8.3473687e-01  -5.3648884e-02  -2.8705750e-02   8.5155105e-01  -4.1704774e-01   1.2348513e-01   2.8872929e-01  -9.6473453e-01   5.9523108e-01  -7.4363547e-01   9.9074118e-01   5.4709869e-01   9.4104899e-01  -9.4786785e-01  -1.7896085e-01  -4.7387451e-01  -7.2700454e-01   6.8831242e-01   9.9447272e-01   5.8194484e-01  -7.2647399e-01   9.3156856e-01  -9.4868411e-01  -9.9307052e-01   9.7315021e-01   9.6651593e-01  -4.0355193e-02   1.9669803e-02   5.5798817e-01   1.9344807e-01   6.0268344e-01  -9.7215703e-01  -9.7422142e-01  -6.8573042e-01  -2.1361705e-01   5.6984696e-01   5.9617692e-01   7.7817427e-01   2.6590496e-01  -6.4266209e-01   8.3386953e-01   8.2366472e-01   9.5296781e-01   6.6573537e-01   1.9891535e-01   6.6904536e-01   8.7600711e-01   1.0517029e-01   6.0043406e-01   7.1410392e-01  -1.7127460e-02  -6.3373159e-01  -9.2818912e-01   4.9838086e-01   3.0497604e-01  -3.2572840e-01  -7.6718198e-02   1.2843766e-01  -8.3118809e-01  -1.0263673e-02  -2.6305837e-01  -1.1888021e-01  -6.4603005e-01   4.8242384e-02  -6.5828699e-01  -5.2257033e-01   8.4894751e-01   3.5103964e-01   3.0820371e-01  -2.7333323e-01   4.2007693e-01  -3.7144092e-01   8.4700415e-01  -4.9710599e-01   8.5304373e-01   4.3293344e-01   2.5608005e-02   4.9757972e-02  -9.5248620e-01  -1.6756628e-01   9.6139941e-01   4.2657563e-01  -6.0785878e-02   7.1104576e-01   1.3770981e-02  -9.9596116e-01   8.7649572e-01  -2.3634583e-01   3.5907599e-01  -6.5944974e-01   7.4778048e-01  -6.2042965e-01  -7.0390206e-01  -7.1149276e-01  -8.1280291e-01  -1.3075907e-01  -7.8980730e-01  -7.3963392e-01   9.2860443e-01   5.9729455e-01   2.1446772e-01   4.4565418e-01   2.0350285e-02  -3.3461992e-02   7.7149108e-01  -8.8200070e-01   4.6685976e-01  -9.3718298e-01  -2.9795041e-01   5.8267570e-01  -7.8687049e-01  -7.6799528e-01  -2.8058661e-01  -4.7852136e-02  -5.0885299e-01  -1.0292164e-01  -1.2748475e-01  -8.7347461e-01  -9.7629462e-01  -9.3255687e-01   4.5227889e-03   7.9902940e-01  -5.1986459e-01  -6.7637906e-02  -7.2272824e-01   5.4070914e-01   6.2492088e-01  -7.9924825e-02   5.9880275e-01   6.0591028e-01  -8.8245889e-01   8.1631406e-01  -3.0079932e-01  -6.9484478e-01  -4.8400171e-01  -3.1646683e-01  -8.8669633e-03   5.7751356e-01   2.7417325e-01   7.6436709e-01  -4.3287381e-01  -3.3694985e-01  -3.2389653e-01   3.5549072e-02  -8.4384972e-02   8.6867532e-01  -1.4818517e-01  -4.1571694e-01   2.4593961e-02  -1.4275117e-02  -6.2178887e-01  -7.9922560e-01  -8.1779612e-01   5.5202751e-01   6.8430654e-02   9.4147049e-01  -9.3183622e-01  -4.7063606e-01   8.0078736e-01  -5.7000418e-01  -3.5801817e-01  -1.7369111e-01   2.2548225e-01   6.4367415e-01  -1.1105958e-01   1.2079767e-01  -6.8479775e-01   6.0785844e-01   6.6602027e-01   5.9629877e-02  -4.8311274e-01   5.3041891e-02  -3.6277807e-02   9.8121047e-01   1.7327511e-01  -7.8955016e-01   1.9945204e-01  -9.2546890e-01  -9.3695817e-01   1.5144186e-01  -6.6147287e-01  -6.5686771e-01   4.9240690e-01  -6.1934384e-01   3.2457856e-01  -7.3353121e-01  -7.0999450e-01  -2.6000233e-01   7.4561080e-01   3.2624129e-01  -2.0029637e-01  -6.3891810e-01   8.2738626e-01   7.0187121e-01   1.6990865e-01   8.1900002e-01  -7.4661014e-01   2.0736935e-01  -7.8743914e-01   8.8173756e-02  -3.7241207e-01   7.6545113e-01  -7.5644112e-01  -2.2173031e-01  -4.5458877e-02  -6.7300909e-01  -7.0918373e-01  -2.0090446e-01   6.8429726e-01   5.0042696e-01  -4.8885391e-01  -3.2748477e-01  -2.6463213e-01  -2.1776577e-01  -5.2001994e-01   1.4682435e-01   4.6805038e-01   6.1376136e-02  -8.6148969e-01   5.0891772e-01  -4.5518946e-01   1.4914450e-01   7.4081908e-01  -3.5589342e-01   4.9661325e-01   1.8788490e-01  -9.6427512e-02   9.3181652e-01  -1.2089859e-01   3.5772180e-01   8.8383748e-01   3.5479236e-01   4.9218905e-01   6.1110100e-01   7.6966981e-02   8.2133541e-01  -7.6248243e-02   3.6452678e-02   8.6007091e-01  -9.7752887e-01  -2.0587723e-01   9.9061482e-01  -1.7364268e-01  -9.8434685e-01   9.1868564e-01   3.4045299e-01   9.1747176e-02  -5.5036198e-01  -2.3678818e-01   8.2978474e-02   8.8452088e-01  -7.5571492e-01   1.6480684e-01   6.3278408e-01   5.0776097e-01   2.4930003e-01  -8.3852846e-01   3.5073129e-01  -5.8961417e-01
  -4.8263525e-01  -8.1161008e-01  -7.8691084e-01   8.9642487e-01   7.6178371e-01  -7.6498529e-01   3.6881663e-01  -3.4573236e-01   6.9491766e-01   4.7248740e-01  -9.6116539e-01  -1.0930970e-01  -6.6800953e-02  -3.3101144e-01  -2.3435878e-01  -5.7073364e-01  -8.2424383e-01  -8.7458410e-01   7.6879157e-01  -5.2017197e-01   8.9579035e-01   2.9071997e-01   8.1340104e-01   9.5721742e-01   5.9576109e-01  -8.5937652e-01  -7.6625161e-01  -4.9038317e-01   6.9386493e-01  -9.5405282e-02   7.0309956e-02  -5.8225201e-01  -3.7887491e-01   7.7093470e-01  -8.4458059e-01  -8.8224406e-01  -9.5683139e-01   3.0812581e-01  -8.6377186e-02   2.8701966e-01   1.6836775e-01  -1.0568164e-01   7.8743067e-02  -1.0915902e-01   2.1073550e-01  -3.0020334e-01   2.2379021e-02   1.4669202e-01  -1.9121478e-02  -1.1578402e-01  -5.4974509e-01  -9.6724258e-01   6.9639482e-01  -5.3724134e-01   6.0875464e-01   9.1187497e-01  -8.0557564e-01  -4.6317327e-01   9.4618984e-01   8.7945048e-01  -3.5985965e-01  -2.8958662e-01  -1.4105719e-01  -7.9634049e-01   9.8230602e-01  -1.3003735e-01  -3.9677361e-01  -7.7766750e-02   6.9398095e-01   2.0444255e-01  -5.6253721e-02   3.5876653e-01  -2.5306603e-01  -8.2745170e-01  -6.7614601e-01   5.5764297e-01  -7.3657294e-01  -7.4190087e-01   1.3069302e-01  -9.4650563e-01   7.5755386e-02  -3.9193315e-01   6.3910478e-01  -3.0092453e-01   6.0836673e-01   8.3139334e-01  -4.1925416e-01   3.3494335e-01   3.4511190e-01  -7.7581085e-01  -8.6039661e-01  -5.8272971e-01  -7.5131254e-01  -3.2178267e-01  -5.9368035e-02   9.0986221e-01  -3.6292589e-01   8.7809161e-01   1.4643608e-01   8.3276260e-01   3.0468364e-01  -9.0192354e-01   9.3360761e-01   4.6663319e-02  -6.8632205e-01   1.9500010e-01  -5.1435248e-01   6.7426315e-01   2.3737673e-01  -3.8846866e-01   6.1473652e-01  -4.0162253e-01  -2.4190386e-01  -2.1171834e-01   6.2111601e-02   6.1407781e-01   4.7074668e-01   6.3390875e-01   2.3665529e-01  -3.1392107e-01   7.5777697e-01   2.0511290e-01  -6.7378785e-01   2.5491798e-01   9.4663211e-01   5.3404317e-01  -9.7786588e-01  -6.3404896e-01   4.5567519e-01  -4.7932768e-01   2.2826439e-01  -5.9901455e-01   6.6442875e-01   5.2381244e-01   6.4919566e-01   8.1890748e-01   8.7404916e-01  -9.1318886e-01   9.8633116e-01   8.8224616e-01   8.1643549e-01  -3.5333400e-01  -7.7781188e-01  -5.7862478e-01   9.4504687e-01  -9.7517758e-01  -8.2113465e-01   8.5234942e-01  -2.0969717e-01  -4.2353260e-01  -3.8687002e-01   2.7380799e-01   7.5822259e-01   8.6928284e-01   9.7300115e-01  -1.6197752e-01  -5.9610306e-01   3.3975979e-01  -2.0367046e-01   9.3722571e-01  -9.5010475e-01  -2.9941313e-01   4.2263348e-01  -6.2098341e-01  -5.8157330e-01   9.7953226e-01   7.1197067e-01  -7.9785385e-01   1.1958673e-01   2.1180659e-01   9.0269836e-01   1.9804501e-01   4.6800441e-02   3.8237846e-01   2.3102515e-01   5.1219695e-01   9.5098808e-01  -1.7818259e-01   7.3092583e-01   5.1008934e-01   8.1833385e-01  -2.1773614e-01   4.7823787e-01  -9.5436605e-01   8.8529747e-01   7.8613894e-01  -9.3502055e-01   9.2158256e-01  -1.1401558e-01   1.0345791e-01   5.2908582e-02   9.3569540e-01  -4.1799013e-01  -9.7757769e-01   9.4855607e-01  -4.8049214e-01   7.8857979e-01   8.1813975e-02   9.2841608e-02   2.1803435e-02  -7.4678417e-01  -8.9590708e-01  -7.5897415e-01   3.9536721e-01   6.2869779e-01  -5.4681787e-01   6.1156660e-01  -7.7748150e-01   8.2136728e-01   3.2522646e-01  -4.8995136e-01  -1.7208819e-01   3.2356239e-03  -7.6297723e-01  -3.4070360e-02   6.1194719e-01   8.5356907e-01   3.8211629e-01  -8.4880443e-02  -6.0075827e-01  -1.3830207e-01  -8.2526380e-01  -9.7565010e-01  -9.4690566e-02   4.2754152e-01  -6.0073793e-01   1.1352532e-01  -8.9248051e-01  -9.9004949e-02  -3.1992066e-01  -6.5049821e-01   5.2714136e-01  -9.4315950e-01  -7.3657923e-01   1.6218840e-01  -2.0238628e-01   4.0140642e-01   8.0775640e-01  -7.1109649e-01   8.0418985e-01  -3.1671549e-01   9.4159350e-01   5.2869293e-01   7.9261810e-01  -1.7810658e-01   7.8082771e-01  -2.5496308e-01   8.7006886e-01  -3.4154434e-02   6.4092003e-01   5.6337262e-01   8.7823518e-01  -3.0003930e-01  -6.3386713e-01   9.1204791e-01  -8.3561279e-01   6.5548354e-01   8.6817270e-01  -2.3377822e-01   3.3122888e-01  -4.8310047e-01  -4.4634563e-01  -9.8781746e-01   5.0717809e-01   1.6435800e-01   7.5966051e-01  -3.4442881e-01   7.8797694e-01  -1.3957762e-01   5.8839286e-01   3.1602254e-01  -9.6282544e-01  -5.2987167e-01   5.5675858e-01  -3.2910960e-01  -6.4922938e-01   7.5873400e-01   6.9935256e-01  -3.7746429e-01   9.1031206e-01  -6.6009683e-01  -5.2386364e-01   5.3024278e-01   6.7406450e-01   1.0478598e-01   4.7938942e-01   5.6163558e-01   5.5731616e-01   7.2551722e-02   6.0011918e-01   8.7134574e-02   2.6269709e-01   1.3344350e-01  -7.3128218e-01  -5.9074975e-01  -5.0576482e-01  -1.0189915e-01  -5.3698703e-01  -9.7025954e-01  -7.2246539e-02   9.0594755e-01   5.2157735e-01   2.9212048e-02   4.8026907e-01  -8.9950210e-01  -3.8950214e-01   6.1999797e-01   3.8086448e-01  -5.6985074e-01  -1.5786302e-01  -3.0227414e-01  -4.2917476e-01  -5.5409167e-01  -3.1372836e-02   5.8150604e-01   3.0143686e-01   4.5505751e-01   5.4486647e-01   1.7383976e-01   1.0532928e-01  -2.4343855e-01  -7.9052833e-01  -6.0483799e-01   3.2271291e-01  -3.1237662e-01  -8.2393563e-01   5.4561971e-01   8.7337216e-01  -9.2738955e-01  -7.5746536e-01   2.1745369e-01   8.1903762e-01   6.4155365e-01  -3.3053586e-01  -1.9818501e-01  -4.3504673e-01   5.1481267e-01   2.8396108e-01   1.7341108e-01  -1.6137029e-01   3.8454457e-01   9.9665641e-01  -6.3076825e-01   3.5563075e-01  -5.0912405e-01  -4.7213097e-01  -5.9138779e-01  -4.4142955e-01   8.1461974e-01  -5.7063635e-01  -6.9357777e-01   8.3627973e-01   3.7887600e-01   7.0669535e-01  -3.8109811e-01  -5.5821698e-01   8.0290184e-01  -2.3819071e-02  -9.4606122e-01  -5.3960179e-02   5.2465600e-01   9.0732636e-01   9.3430295e-01   9.9035211e-01   6.2500218e-01   8.0115719e-01  -2.3654251e-01   9.9132314e-01  -2.9582991e-03   3.6515495e-01   4.0869518e-01  -4.4457599e-01   7.8076105e-01   1.0753123e-01  -1.6479320e-01   9.9819671e-01   5.6714444e-01   9.9135119e-01   1.5659788e-01  -3.9535924e-01   6.3799865e-01   7.9926396e-01   7.4674279e-01  -2.8479918e-01  -1.0962005e-03  -4.0245258e-01  -1.1287380e-01  -7.2151564e-01  -9.3672087e-01  -5.7185268e-01  -2.0777464e-02  -2.7773253e-01  -6.0248435e-01  -7.9461429e-01   7.3356451e-01  -7.5967198e-01   5.6882299e-01   2.3618869e-01  -5.3141500e-02  -6.6563410e-02  -6.0844251e-01   2.1595636e-01   9.7803887e-01   6.0952996e-01  -2.4758540e-01   3.1916091e-01  -1.8112785e-01   4.6279829e-01   5.9264638e-01  -9.8828067e-01   3.4197538e-01  -7.0040246e-01   8.7054207e-01  -3.7742371e-01  -8.7440298e-01   7.7246865e-01  -8.5465772e-01   3.9377357e-01  -1.6981225e-01   6.0844821e-01  -5.6308846e-01   8.2629664e-01  -6.3512107e-01   4.7338545e-01  -9.1071578e-02   2.7774667e-01   7.6165007e-02  -3.8611425e-03  -5.7991912e-01   5.8085052e-01   2.5231628e-01   8.4583242e-01   5.0331860e-01  -1.8455617e-01   2.3307128e-01  -1.0277255e-01   6.7775100e-01  -8.9933834e-01  -1.6222525e-01  -6.6824166e-01  -8.7514000e-01   8.1612794e-01  -1.2890809e-01  -2.3445502e-01  -9.5218112e-01   8.9573863e-01   1.3398063e-01  -4.7779482e-01  -7.7675854e-01   5.6236781e-01   1.7602434e-01   6.2672376e-01   5.0982429e-01  -8.7912800e-01  -8.0996607e-01  -7.4704372e-01  -4.3967392e-01   9.0882453e-01   2.6847119e-01  -7.4439314e-02   5.4405489e-01  -6.5689600e-01  -9.1369284e-02  -1.4648523e-01   3.0379317e-01  -3.7880033e-01  -7.0110686e-01   2.6807371e-01  -4.7879016e-01  -4.3889305e-01  -2.1485232e-01  -7.6287067e-01   8.5468221e-01   3.7274152e-01  -8.2313422e-01   7.1505060e-01  -9.6038720e-01   4.8465709e-01   6.2648700e-01  -6.6018962e-01   7.0304355e-01  -1.5001111e-01   5.9409732e-01  -6.4572004e-01   2.3270622e-01   5.0887306e-01  -1.1852700e-01  -8.9628273e-01   8.8860470e-01   6.3058167e-01   7.7607987e-01  -6.0415504e-01   5.2090966e-01   1.2348017e-01  -2.1322242e-02  -8.5471709e-01  -9.7785793e-01  -3.2164580e-01  -6.9552433e-01   5.2000818e-01  -2.3816255e-01  -7.4018773e-01  -9.5705394e-01   6.9018378e-02   8.7291862e-01   7.2000789e-01  -3.4032995e-01   3.9327408e-01  -3.4455478e-01   9.0418348e-01  -9.2842023e-01  -9.0694091e-01   2.7918546e-01   9.0539898e-01  -1.1192171e-01  -9.6676382e-02  -4.8554240e-01   1.5881117e-01  -4.6059626e-01   3.6310952e-01  -8.8827092e-01  -2.6780537e-01   3.8865657e-01  -8.7310416e-01   1.6081912e-01   4.1691020e-01  -7.7754415e-01   1.9560255e-01   1.8193436e-02   9.6441341e-02   4.6034843e-01  -5.3022043e-01   4.8556087e-01   5.5556396e-01   9.6466013e-01   1.9461433e-01   5.2274494e-01   3.5038150e-01  -5.2833083e-01   4.0774999e-01  -6.8149894e-01   2.6473318e-01  -4.3311621e-01   7.0047542e-01   1.7865838e-01  -7.6829022e-01   7.1652561e-01  -5.5305839e-02  -6.6986204e-01   8.5170705e-01   5.4456436e-02   8.8918586e-01   7.2364132e-01   6.8077079e-01  -2.4626596e-01   1.4343612e-01   9.8218674e-01   4.2494760e-01  -2.8814469e-01   7.5367497e-01   8.7703270e-01  -4.1089405e-01   8.6796888e-01  -6.1523231e-01   8.6998765e-01   5.4586397e-01  -4.3657953e-01   4.0959274e-01  -2.0112115e-01  -5.6457936e-01   3.0296924e-01   3.7769600e-01   1.2341571e-01   3.1145003e-01   5.0030373e-01  -1.2850117e-01   8.4835658e-01   4.7871090e-01   2.7989524e-01  -9.2670463e-01   4.3334167e-01  -2.7728035e-01  -1.0032519e-02  -8.9180108e-01  -5.2929900e-01  -9.5091129e-01   4.4709883e-01  -5.7686771e-01  -1.1806289e-01  -1.8739452e-01  -6.4522454e-01  -9.1167606e-01  -8.9460801e-02  -8.7849411e-01  -8.7384213e-01  -6.8725187e-01  -5.7236993e-01  -2.8332669e-01  -4.1592557e-01  -2.8493965e-01  -7.6880523e-01   6.2639616e-01  -7.0747786e-01  -3.5344479e-01  -8.4568501e-01  -5.1340279e-01  -6.2573088e-01  -5.8551572e-01  -7.6542117e-02   1.8310886e-01   9.5281748e-01   1.8155732e-01   3.3294487e-01   7.0067401e-01  -2.8108299e-01  -4.9754760e-01   4.6021801e-01   1.5161386e-01  -7.2770390e-01   7.4395010e-01   2.1274192e-01  -8.1953331e-02  -7.9974086e-01  -8.9437899e-01  -4.5139739e-01  -3.9184108e-01  -8.7534616e-01   5.1261074e-01  -2.8448745e-01   8.3223126e-01  -7.9060032e-01  -6.1928707e-01  -5.8042109e-01   8.5592493e-02   9.2081485e-01   2.1201707e-01  -7.6730132e-02  -9.7600013e-01   1.2192482e-01   3.3750810e-01  -1.1583573e-01  -8.6205017e-01  -3.3193350e-01  -2.1540811e-01   2.6419728e-01   3.1804301e-01   8.8221810e-01  -1.2780068e-02   9.8514705e-01   5.0921160e-01   7.9041224e-01  -4.4615039e-01   2.8151315e-01   9.4068945e-01  -4.7399243e-02   1.3268342e-01  -2.0727651e-01  -9.8212862e-01  -7.2265265e-01   9.2245678e-01   6.3892613e-02   1.6184109e-01  -8.0969680e-01  -2.4633050e-01  -7.6061947e-01   4.5405903e-01  -6.5925272e-01  -2.1694357e-01  -7.9085699e-01  -9.0001366e-02  -6.8670449e-01   2.9385942e-02   6.9105602e-01   3.8984983e-01   1.7698833e-01   1.8438478e-02   6.2778825e-01  -5.9075986e-01  -3.4769323e-01   4.2231142e-01  -3.0720203e-01   3.8770321e-01  -5.7705730e-01   6.0975230e-01  -3.6074227e-01   6.7263520e-02  -6.2285023e-01   6.5450005e-01  -7.1156809e-01  -2.1351323e-01   8.4783700e-01  -1.5472069e-01   5.3117998e-01   5.9279996e-01  -8.8487779e-01   9.8480217e-01   4.7995986e-01  -4.6287954e-01   2.1759816e-01  -5.7779640e-01  -8.8073555e-01  -7.6160474e-01   4.6937691e-01   1.2626003e-01   4.7227679e-01   7.8429498e-02  -3.4912079e-01   4.4340957e-01  -2.2215902e-01   8.4115767e-01  -2.9519529e-01  -7.3463271e-01   6.0564867e-01   6.4201129e-01   4.1320275e-01   4.9687404e-01  -7.3399830e-01   1.4186081e-01   1.9776053e-01  -7.4991644e-01  -2.8641335e-01   3.9025783e-01   7.5235482e-01   1.5998398e-01   9.9346803e-01  -3.1557657e-01   3.2171639e-01   3.6736997e-01  -5.5901220e-01  -6.9415088e-01  -9.1779643e-02  -1.2308374e-01   5.6377450e-01   3.6406451e-01  -6.5727975e-01   6.5136482e-01   2.1787647e-01  -9.3547996e-01  -7.7626465e-02  -9.9374188e-01  -1.2540580e-01  -5.7961684e-01  -3.6392709e-01   9.1495199e-01  -3.0426851e-01  -5.7306214e-01  -8.4564972e-01   6.0191771e-01   7.1610657e-01   9.7845739e-01  -2.6554071e-01  -3.0155663e-02   9.2847358e-01   4.2704363e-01  -4.1063412e-01   5.1947508e-01  -6.3204963e-01   9.0217896e-01  -6.9731193e-01  -4.7419688e-01   7.8151195e-01  -8.0930376e-01  -3.4507567e-01  -9.5673906e-01  -7.2378616e-01  -5.3477102e-01   8.9470014e-01   5.1102697e-01  -3.4702764e-01   6.3627768e-01  -8.1208124e-01  -2.6034366e-01  -9.6737939e-01  -8.5210428e-01   7.2351318e-01  -5.0981979e-01  -3.0517259e-01  -1.2808087e-01  -2.0633071e-01  -6.0898852e-01  -6.8991179e-01  -6.3097072e-01  -5.6955446e-01  -8.5029763e-01  -4.3064657e-01   9.9935379e-01  -7.0460196e-01   4.8032349e-01   5.3944662e-01  -2.7709875e-01   7.3172819e-01  -5.7093645e-01  -5.4628302e-01  -5.9407433e-01   7.3793704e-02  -1.8916263e-01   7.9443673e-01  -4.2138157e-01   1.6213862e-01   1.0886943e-01  -3.8996944e-01  -6.1255723e-01   6.5990738e-01  -5.9042012e-01  -9.3413753e-01  -5.8169126e-01   5.9213252e-01   4.9072285e-01  -9.3171321e-01   4.8855724e-01   5.4488994e-02   8.2209516e-02   7.8061960e-01  -7.5141039e-01   2.1306211e-01  -8.4019928e-01  -1.5847821e-01   3.9163243e-01  -9.1093036e-01  -3.7570558e-01  -4.8644617e-01  -1.7764627e-01   6.0189243e-01  -5.5385781e-01   7.4094119e-01  -7.1656832e-01  -9.3057691e-01  -6.5432571e-01   9.3270671e-01  -5.4758903e-01  -2.9918646e-01   2.8159678e-01  -9.1279722e-01  -2.3142116e-02  -5.5983900e-01   7.1815949e-01   9.0848855e-01   7.6570622e-01  -5.4124203e-01  -7.1201060e-02  -6.2926122e-02  -4.3883320e-02  -1.4700525e-01   6.8600531e-01  -7.4505191e-01  -6.7277736e-01  -5.6390355e-01   6.0709114e-01  -2.1198060e-01   8.3690941e-01   2.4462620e-03   3.9708893e-01   6.8835527e-01   7.1303063e-02  -4.6668132e-01  -6.7501809e-01  -8.1215905e-01   1.6119189e-01   7.5122724e-01  -4.6360387e-01   3.1007457e-01  -7.7337007e-01  -3.1664102e-01  -8.2404518e-01   9.7058135e-01   4.1980221e-01   7.5303851e-01   1.5762996e-02   1.6160096e-02   3.4741664e-02   7.6898688e-01  -1.0578733e-01  -9.2160851e-01  -5.8257145e-01  -6.8544713e-01   8.8036646e-01   3.9251694e-01  -2.7612793e-01   5.9861034e-01  -9.1083214e-01  -5.1626114e-01  -4.9458974e-01  -6.2819003e-01  -5.5723610e-01  -2.9626714e-01   8.3346584e-01  -1.7532845e-01   5.9215728e-01  -9.1292010e-01  -7.1714532e-01  -8.9562069e-01  -3.3972170e-01   5.2111153e-01  -7.6150846e-01   8.1100968e-01   9.8302538e-01   9.8029929e-02   8.4553215e-01  -7.8291358e-01   3.3012887e-01   1.7003475e-01   8.0303067e-01  -3.4674236e-01  -2.3943299e-01  -2.0705478e-01  -4.7920114e-01  -6.5151044e-01  -2.8389506e-01  -6.7828734e-02   5.0382190e-01   5.2799237e-01  -7.0793219e-01   7.4285419e-01   8.0643170e-01  -3.3161451e-01  -7.2099342e-01   4.9158953e-01  -8.3085695e-01   3.8347151e-01   3.4928888e-01   5.7475785e-01  -5.4489544e-01  -5.6601129e-01   5.4702871e-01  -8.1655716e-01   4.7182290e-01  -7.4474956e-01  -4.6146249e-01   6.4798963e-01  -8.1867367e-01   5.2650483e-01   6.1640527e-01  -2.2227535e-01   3.5108500e-01   6.2948232e-01  -4.4467626e-01   6.5843458e-01   4.6822652e-01  -3.6323196e-01  -9.2110426e-01   5.7376030e-01   5.5169156e-01   9.6121167e-01   5.5367450e-01   3.9980854e-01  -9.5444522e-01  -7.5660369e-01   7.5752975e-01   7.2380196e-01  -4.9726422e-01   5.9352398e-02   6.7997256e-01   7.3934336e-01  -1.9244223e-01   1.6384330e-02   6.9768785e-02   4.1946201e-01  -7.3232315e-01  -4.4354437e-01  -7.5373212e-01  -4.7037920e-01   6.7721932e-01  -6.9756970e-01   5.0634559e-01   5.4734535e-01   5.1821996e-01  -1.1859213e-01   3.7607875e-01   6.9212766e-01  -5.8646434e-01   3.7031804e-01  -7.6591662e-01   8.9180414e-01   7.3826912e-01  -8.1791229e-01   9.1667063e-01  -7.2963486e-01  -2.4242543e-01   6.3947043e-01   7.9311381e-01  -2.6952126e-01  -7.0085717e-01  -9.7685130e-01   5.8173273e-01   2.3879299e-01   8.8535833e-01  -9.8687600e-01   8.0977911e-01   4.2034250e-02  -4.8252243e-01  -2.4604879e-01  -2.3732371e-01  -2.6227598e-01   6.5273139e-01  -3.7195487e-01  -2.4260554e-01  -9.7588708e-01  -4.0689429e-02  -9.1710208e-02  -4.8526662e-01
  -2.5118136e-01   5.9020705e-01  -4.8896263e-02   6.6153828e-01  -2.6804860e-01   6.3436805e-02  -3.4470049e-01  -4.2032815e-01  -1.2691943e-01   4.3300030e-02   7.5161649e-01  -4.4152740e-01  -3.6254580e-01   1.5488215e-01   1.9324216e-01  -5.9509146e-01   4.9114674e-01   2.2348906e-01  -9.1634058e-01   7.3827004e-02  -1.2966415e-01   1.1750288e-01  -4.4559279e-01   6.9837206e-01  -5.0642763e-01  -5.7054235e-01   1.1030114e-01   3.5514942e-01   6.0986831e-01  -2.5134424e-01   7.5605967e-01  -1.5781388e-01  -5.3811553e-01  -4.1593698e-01   4.4963085e-01   9.1347598e-01  -6.5489927e-01   6.6389444e-01   7.9252719e-01  -8.6032438e-01   9.7709642e-01   4.4237180e-01   3.7267877e-01  -5.2620890e-01  -9.9974519e-01  -4.8962626e-01   1.7569032e-01  -4.5604424e-01   1.0185150e-01   5.5779635e-01  -4.0069820e-01  -7.0699106e-01  -3.3949989e-01   5.6857347e-01  -2.5241138e-01   2.6145007e-01   1.3807107e-02   5.8701208e-01  -7.6360785e-01   8.4927325e-01  -6.6130743e-01  -9.0234074e-01  -2.5241989e-01   9.4381089e-01  -3.8212199e-01   5.4713988e-01   8.0282664e-01  -6.8558930e-01   6.0774002e-01   5.2907516e-01  -6.7598180e-02  -5.9815158e-01   8.1949886e-01   9.4553946e-01   6.6312852e-01  -3.3976802e-01  -4.2012136e-01   3.7081855e-01  -3.7730033e-01  -4.3155774e-01   8.2499844e-01  -3.8504436e-01   8.2077523e-01   7.4524616e-01  -8.5172138e-01  -3.9421568e-01   3.4490464e-01   7.3560904e-01  -9.9235130e-02   3.2986872e-01  -9.3794567e-01  -6.4698890e-02   3.0209671e-01  -8.1575769e-01   1.8622887e-01  -7.0600321e-01  -8.2086077e-01   6.6081574e-01  -4.6627545e-01  -7.6491011e-01  -9.1278098e-02  -6.0255386e-01   2.9818123e-01  -7.4190623e-02  -9.1198816e-02  -4.2915449e-01   8.1423537e-01   6.1909758e-01  -3.4646252e-02  -8.7137787e-01   8.3278236e-01  -1.5100775e-02  -9.4787455e-01  -1.5830996e-01  -9.4276437e-01  -3.7178502e-01   9.7243211e-01  -6.8388295e-01  -9.2739935e-01  -2.8157238e-01  -2.2939613e-01   1.8558803e-01   8.6898610e-01  -1.6258677e-01  -1.2002780e-01   1.5665555e-01  -8.4292012e-01  -8.4660431e-01  -6.5852699e-01   3.2205382e-01  -2.4110409e-01   4.9200022e-01   9.3202539e-01   9.2026131e-02  -8.7157884e-01   1.1386593e-01   9.0991326e-01   4.6744138e-01   1.5327399e-01   6.9363139e-01  -3.7209395e-01   8.4641641e-01   4.3427413e-01  -9.6654550e-01   4.1412672e-01   5.4493261e-01   4.0212026e-01   8.8552981e-01  -3.0627179e-01  -9.8577154e-01   3.7912381e-01   5.3165777e-01  -4.6669525e-01  -3.9422906e-01  -2.0116324e-01  -4.7113716e-01   7.8509639e-02  -5.3120329e-01  -1.4164276e-01  -7.0931781e-01   8.5421165e-01   3.3071568e-01  -3.9670387e-01  -4.5076224e-01  -3.2046320e-01  -9.2059741e-01  -1.1525688e-01  -8.0315431e-01  -4.1005083e-02   8.5694188e-01   7.8529236e-01   6.2830898e-01   4.6942881e-01  -9.5098482e-01  -8.3824920e-01   2.0360124e-01   1.4157229e-01   9.3656821e-01   9.5530129e-01  -4.2038980e-01  -1.3878574e-01  -8.9960113e-01  -3.7222338e-01   9.1827231e-01   3.7288131e-01  -6.1742857e-01   9.6271956e-01   8.4973474e-01   5.1673424e-01  -1.4493165e-01   8.6588574e-01  -5.6552891e-01   7.7041350e-01  -7.3018369e-01  -8.4451067e-01   7.1471351e-01   8.9855936e-01  -2.4640748e-02  -3.5055907e-01   6.7098728e-01   1.5487326e-01  -9.2392690e-01   5.4331065e-01  -1.6065310e-01  -6.0377529e-01   3.8823203e-01   1.9282425e-02   4.7453806e-01  -7.5270739e-01   5.3894856e-01  -7.3472996e-02  -9.3349359e-01   3.3246457e-02  -6.5402868e-01   4.7442612e-01  -7.7092322e-01   8.0328095e-01   1.8849139e-01   5.9860312e-01  -1.6894115e-01   6.1820782e-02   2.0022292e-02  -1.6958100e-02   9.1887921e-01  -5.4554760e-01   1.1747439e-01  -3.8703831e-01   6.6677991e-01   7.6783467e-01   6.3885705e-01  -1.9085526e-01  -6.0968873e-01  -5.6392273e-01   2.2476612e-01   2.1992961e-01   5.9528004e-03  -1.0594241e-02  -4.8526482e-01   6.5537826e-01  -5.4842378e-01  -3.7987640e-01  -9.8562086e-01  -1.0769904e-01   1.0393167e-01   8.6205065e-01   3.9656078e-02   3.7125218e-01  -8.7672516e-02  -9.8516124e-02  -4.0576746e-01  -7.0811602e-01  -7.3258310e-01  -4.4385221e-01  -8.7074078e-01  -1.8014771e-01  -3.5060230e-01  -5.8323096e-01   3.2780461e-01  -2.5577688e-02  -8.7544987e-01   1.0642977e-01   6.2365699e-01  -7.8439163e-01   6.5304717e-01   9.6261896e-01   9.0225690e-01   2.4104328e-01  -2.4247147e-01   3.0262691e-01  -6.7465225e-01   3.7913092e-03  -5.3040271e-01  -6.9449065e-01   8.7340104e-02   8.7444546e-01  -9.3933237e-01   8.8804943e-01   9.8993967e-01   8.9692820e-01  -6.9776324e-01  -7.7986552e-01   3.9448441e-01   5.2707369e-01  -7.6663344e-01  -1.7926280e-01   2.6333593e-01  -1.6399179e-01  -6.1784677e-01  -7.3448578e-01  -1.2007257e-01  -6.8334873e-01  -4.0413029e-01   7.7802184e-01   3.1644349e-01   4.4264662e-01   5.3225381e-01  -1.7309204e-01   4.3675226e-01  -3.0352814e-01  -9.5643839e-02   5.6418450e-01  -4.2205822e-01   2.2850277e-01  -5.7024846e-02   5.2509640e-01   2.8544029e-01  -5.9946454e-01   8.6507808e-01   7.5606430e-01   3.3114638e-01   3.3285405e-01  -7.5052739e-01   3.8450380e-01   1.5826389e-01  -1.8874322e-01  -2.3650470e-01   8.8891249e-01  -1.5197832e-01   1.7703128e-01  -2.8865479e-01   7.5782314e-01   2.7377783e-02   9.8524585e-01   2.3453109e-01  -3.3225357e-01   6.4494964e-01   3.1153224e-01  -2.5533067e-01  -6.1419605e-01  -7.1157765e-01   6.3821265e-01  -7.8588539e-02   9.1532784e-01  -8.8881371e-01   1.6246317e-01   8.7239671e-01  -2.0676386e-01   4.6138676e-01   9.5062674e-01   8.9708200e-01   9.0257290e-01   7.3273058e-01  -1.4931948e-01   5.0377826e-01  -4.5817075e-01  -1.3399255e-02   2.6896362e-01  -7.2657633e-01  -4.0545521e-01  -7.1728058e-01   8.8323402e-01   4.9413765e-01   3.0896504e-01   9.6249253e-01   4.7820151e-01   9.7529691e-01   3.0425715e-01  -8.4156405e-01  -7.6511019e-01  -2.3375667e-01   8.0327316e-01  -8.2431801e-01  -5.8703549e-01   5.5848347e-01   9.8685318e-01  -2.7808258e-01   7.3860983e-01   3.8939851e-01   1.8356136e-01  -9.0318233e-01   3.8121588e-02  -4.1424533e-01  -6.8688912e-01  -5.2748671e-01   5.2921853e-01  -1.8851776e-01  -9.6548619e-01   3.9791330e-01   3.6734151e-01  -7.5028957e-01  -9.7462276e-01  -7.2914985e-01   1.1453118e-01  -2.4180051e-03  -6.9718497e-01  -1.5371311e-01  -1.4384252e-01   1.2092123e-01  -1.9938405e-02  -7.8629689e-01   8.1137041e-01  -7.3444653e-01   8.0705612e-01  -5.6239975e-01  -2.9250824e-01  -6.0115825e-02  -2.4607494e-01  -7.8570689e-01   5.2820956e-01  -4.8226103e-01  -6.9361243e-01   4.3105253e-04  -7.6061602e-01  -7.2748592e-01   9.9678960e-01  -1.2025044e-01  -4.7939243e-02  -1.4800168e-01  -7.5042452e-02   8.5072304e-01  -7.5045970e-01  -7.0305784e-01   5.8325679e-01  -5.7256102e-01   1.0668799e-01  -4.3576929e-01   5.6537484e-01  -6.9359660e-01   8.8872842e-01   4.4602646e-01   4.9515745e-01   7.4775937e-01  -3.8153553e-01  -3.6660721e-01  -4.0583514e-01   8.5744036e-01  -5.7922192e-01  -2.3561064e-01   5.9763292e-01  -4.3920230e-01   7.4631578e-01  -5.3162138e-01   3.7942152e-02   4.2939266e-01   8.3487709e-01  -7.6438140e-01  -6.4878944e-02   8.9673834e-02  -9.0532095e-01  -3.7686441e-01   4.7049176e-01   3.4971292e-01  -4.9646876e-01  -6.5893179e-01  -4.6987257e-01   8.7984955e-01   5.1608489e-01  -2.9474871e-01  -7.2334843e-01   1.6344029e-01   7.3211818e-01  -8.0421457e-01  -1.8630161e-01  -2.4847541e-01   6.7991872e-01   9.7826701e-02   4.8722728e-01  -4.3693470e-01   2.4225269e-01  -5.1487686e-02  -1.0414881e-01  -2.3004096e-01   6.1129546e-01   3.5458413e-01  -1.5109714e-01  -9.0539867e-01   5.2085905e-01  -4.7713931e-01  -6.1544251e-01  -9.5231132e-01  -7.2985068e-02  -1.3318082e-01   5.9014358e-01   5.6021719e-02  -5.7984872e-02   8.3120076e-01  -3.0777346e-01  -1.6572008e-01   9.4092613e-01   8.1810292e-01  -7.2058861e-01   2.6752036e-01  -6.7071119e-01   2.2390095e-01  -7.7649898e-01   9.9739797e-01  -2.2846651e-01   1.0438588e-01  -5.2866698e-01   9.4279749e-03  -8.8883092e-01  -6.3054147e-01   6.2347284e-01   2.4757458e-01  -7.1461419e-01  -7.1116732e-01   6.4459732e-01   1.7107287e-01   6.5242937e-01   6.7778452e-01  -8.6089101e-01   1.5440247e-02  -1.1432993e-01   9.6973637e-01   2.8227363e-01  -3.9017697e-01  -4.5674063e-01  -4.4709261e-01   6.2091469e-01  -7.4000377e-01   2.2411611e-01   7.9327002e-01  -4.4887577e-01   8.5338154e-01  -4.0006311e-01   1.1930474e-01  -3.4320308e-01   1.0442636e-01  -7.0273142e-01   8.0359700e-01   3.8357798e-01   4.5406421e-01   7.8401023e-01   9.0353717e-01   6.8404956e-01   4.1685821e-01   6.4686050e-01   6.0474582e-02  -9.2058088e-01   3.5765235e-01   8.9927391e-01  -7.7773090e-01   6.1891160e-01   6.9069480e-01   5.8306343e-02  -1.4686753e-01  -5.2340748e-01   1.1938724e-01  -5.4741871e-01   9.7575026e-01  -3.4451912e-01   6.5840012e-01  -2.4859617e-01   7.2722714e-01  -7.2112372e-01   8.7513471e-01  -1.7284785e-01  -2.5372821e-01   1.0808647e-01   9.6931131e-01  -8.6693133e-01   2.5697352e-01   8.4363994e-01   1.3813278e-01  -7.8950867e-01  -2.9302203e-02  -5.0943585e-01   2.6271925e-01   5.4218666e-01  -2.2381939e-01  -6.1613630e-03   3.7496667e-01   9.1665770e-01   7.8071038e-01   1.0546734e-01  -8.7786059e-01   7.6965344e-01  -8.2810046e-01   1.3122352e-02  -5.0657293e-01   5.1014872e-01  -4.3091279e-01   7.1998676e-01  -4.8013839e-01   6.3817020e-01   1.8482315e-01  -5.1111254e-01   7.9841490e-01   8.2409645e-01  -4.7951509e-01   9.1674873e-01  -7.3196429e-01   9.4024278e-02   3.7604780e-01   5.7339979e-01  -1.9047749e-01  -1.0971516e-03  -9.3244786e-01  -6.4662416e-01   1.8094263e-01  -9.4837948e-01   5.5936934e-01  -5.1167604e-01   7.2365677e-01   5.2280591e-01   3.9792666e-02   1.4988149e-01   3.7734212e-01  -7.1097217e-01  -9.3946527e-01   3.5571567e-01   4.7330451e-02   7.5661601e-01   8.7203970e-01  -7.7340312e-01  -4.5926728e-01  -1.4822242e-01   9.2842006e-01   9.2952187e-02   8.3147527e-01   1.0028561e-01   6.0695028e-01   1.0587355e-01  -4.6325481e-01   1.2486240e-01   1.6261949e-02  -3.4713841e-01  -6.8365833e-01   7.0096953e-01   9.4800914e-01   2.6912572e-01   3.4848455e-01  -1.4738136e-01   6.7323926e-01   3.4558515e-01   4.9667841e-01  -9.4283046e-01  -6.0875318e-01  -7.2070305e-01   3.4075603e-01  -6.5652887e-01  -5.8846707e-01  -7.2091846e-01  -4.6817395e-01   9.7802072e-01  -4.9040608e-01  -3.5048171e-01  -9.8662497e-01   5.7448426e-01  -7.5543703e-01   3.2276566e-01  -7.5650781e-01   5.6195705e-01   3.5175837e-01  -2.5464475e-01   1.7265548e-01  -1.0174427e-01  -9.0261267e-01   8.0958101e-01  -2.4575810e-01  -7.3679752e-01   6.2969383e-01  -4.4798672e-01   7.4087041e-01   7.3238580e-01   8.3802030e-01   5.3326323e-01  -8.9327158e-01  -8.6433653e-01   6.1906859e-01  -5.8583635e-01   7.8739929e-01   1.4736438e-01   5.2758164e-01   2.2526100e-01   5.6640004e-01   2.1309959e-01  -8.0537650e-01   5.4015435e-01   6.7017730e-01   9.0998171e-01   5.6175361e-01  -2.8129437e-01  -5.9435483e-01   7.8179854e-01  -6.9253396e-01  -8.3597573e-01  -1.9632808e-01  -8.7566904e-01   6.9420339e-01   1.9883241e-01   6.1713881e-02   2.7990350e-01  -1.6325405e-01  -7.0757209e-01  -6.6037496e-01  -9.7633518e-01   8.0352253e-02  -5.8471582e-01   9.7102313e-01   6.3703795e-01  -9.5762593e-01   9.0003699e-01  -1.1435043e-01  -1.3610397e-01  -5.3144198e-01   6.9289436e-01  -5.4539378e-01  -7.0993092e-01   5.4743864e-01   1.9951804e-01  -4.2834261e-01  -5.6379599e-01  -3.4608868e-01  -9.2659702e-01   7.7411096e-01   1.1446906e-01  -1.0862140e-01  -8.4126868e-02   7.6762671e-01   5.6987137e-01   3.1831498e-01   8.8342696e-01   9.4978924e-01  -2.6161631e-01  -8.8464684e-01   4.4457141e-01   3.1911671e-01  -8.3384493e-01   1.1076513e-01   1.7225877e-01   6.8847933e-01  -4.1169185e-01  -8.2195297e-01  -6.5726461e-02   8.2329847e-01   1.9767142e-01  -7.2293219e-01  -8.0251664e-01   1.7381023e-02  -6.0993792e-01  -5.2231502e-01  -6.3120976e-01  -4.7900436e-01   7.7518069e-01   2.5595868e-01   2.4376289e-01  -2.8599751e-01   6.1701104e-01  -8.0401056e-01   7.0925217e-01  -7.4956344e-02  -9.3267883e-01   9.6394638e-01  -9.4068635e-01   2.5638097e-02  -9.9608458e-02  -4.2882151e-01   2.9903643e-01  -1.4665662e-01  -5.4712251e-01   1.4890495e-01   6.7877413e-01  -2.7831582e-01  -4.9063802e-01  -2.8788858e-01   4.3468807e-01  -4.9869583e-01  -5.2682953e-01  -4.6315990e-01   8.9988963e-01  -3.7177710e-01   9.5465500e-01   3.1764855e-01   4.1141848e-01   9.6060792e-01   9.5735122e-01  -8.9382316e-01  -9.6304394e-01  -3.7080235e-01   5.2895735e-01  -2.8149603e-01   8.2897322e-01   7.8704184e-01   9.9923141e-01  -7.8375044e-01   7.9408015e-01  -3.3005447e-01  -7.9746122e-01   9.7016015e-01  -7.9140275e-01   5.0432261e-01   2.7236832e-01   5.9549150e-01   7.4723638e-01  -9.4334280e-01  -8.2343582e-01  -6.1360215e-01  -5.3601773e-01  -4.7298549e-01   8.0263456e-01   9.2492026e-01   2.6494439e-01  -3.5686603e-01   1.9883174e-01  -6.8556218e-01   7.1777884e-01  -6.6379822e-01   8.4106435e-01  -7.3515767e-01  -2.0430574e-01   9.2053814e-01  -3.9913173e-01  -7.8563514e-03   4.8886270e-01   2.6117727e-01  -6.1871396e-01  -3.3438928e-01   2.8116522e-01   7.9259850e-01   5.2597684e-01  -9.3732116e-01  -2.6995297e-01   9.9485737e-01   2.0297010e-01   5.0763948e-01  -2.7180679e-01   5.5305071e-01   1.9835326e-01  -6.6367676e-01   8.4300394e-01   9.0425474e-01   3.7777146e-01  -9.9021482e-01   2.4378588e-01  -9.6329698e-01   6.6035921e-01   3.8396135e-03  -2.7632697e-02   5.7883856e-01   5.0977630e-01   7.8044863e-01  -5.7448725e-01   5.5312999e-01  -5.8540526e-01  -8.3812205e-01   7.5661258e-01   9.0601017e-01   5.2234240e-01   4.5131640e-01   2.4160337e-01   2.3652842e-02   2.0230536e-01  -7.9500226e-01  -5.9189729e-01   5.2132018e-01   1.1725602e-01   5.8320641e-02   8.3653499e-01   9.4722677e-01   9.0869854e-01  -3.6289626e-01   5.1706131e-01   1.3977808e-01   8.2046939e-01   4.5817077e-01  -4.2374179e-01  -7.1199880e-01  -2.3000158e-02  -5.5216664e-01  -6.0503766e-01  -4.0663571e-01   8.4229924e-01   9.1081473e-01  -5.9103391e-01   1.6998844e-02   6.7471747e-01  -4.0231508e-01   1.7219658e-01  -1.9402681e-01   3.0641517e-01  -2.3473269e-01   7.0131464e-01   8.8778985e-01   6.2570703e-01  -7.5921051e-01   1.0753070e-01  -6.1963997e-01  -3.4961279e-01  -6.6996255e-01   5.6091505e-01   8.9554346e-01   9.0241086e-02  -5.1235005e-01  -5.7528393e-01   2.4358666e-01   2.1734536e-01  -1.4700461e-01  -7.5083127e-02   3.3767211e-02   8.7498873e-01  -4.7394012e-01  -9.9062817e-01  -6.1272000e-01  -3.7545056e-03   8.7730934e-01  -4.9591789e-01  -8.3432063e-02   8.0658817e-01  -7.3779229e-01  -3.6190371e-01  -2.2346094e-01   4.0981223e-01  -6.8171961e-01   8.0685216e-01   1.9809550e-01  -2.0257084e-01   4.9510341e-02  -5.2566646e-02  -1.0286405e-01   5.9146982e-01   6.1028236e-01  -8.7302031e-01   7.7296156e-01   4.1425749e-01   8.0390515e-01  -9.5477510e-01   2.5158357e-01   8.3326293e-01   6.9817840e-01   1.8186166e-01   4.8295287e-01   8.5803590e-01  -4.2073925e-01   7.3108025e-01  -8.5051777e-02   6.5484214e-01  -9.8586058e-01  -6.2459678e-01  -1.0832940e-01  -1.8609687e-01   2.7733960e-01   5.2859428e-01  -6.2498005e-01  -7.0849406e-01  -4.6376692e-01  -7.7810399e-01   5.2677258e-01   3.9310206e-01   2.9651583e-02   6.5833784e-01  -6.1091171e-01   1.0552975e-01   9.3686040e-03  -1.1672268e-01   3.5053699e-01  -8.7510316e-01   2.9619236e-01   5.5508886e-01   1.2121038e-01   7.7059273e-01  -4.2230938e-01   9.8649106e-01  -2.2522084e-01   7.9791778e-02  -8.1383022e-01  -5.9077494e-02  -9.3484320e-01   4.9107349e-01   5.6855142e-01  -8.1695501e-01   2.7447755e-01  -4.2614715e-02  -5.1227551e-01   5.8268485e-02   2.5414485e-01   2.1026188e-01   2.7155254e-01  -5.8437630e-01  -1.6968920e-01  -5.4308083e-01  -1.9426921e-01   7.5072653e-01   9.1414763e-01   9.7498679e-01   3.5582248e-01  -3.6540521e-03  -6.9425882e-02   3.2788339e-01   1.2457816e-01   8.1356101e-01   4.8921902e-01   2.0295287e-01   5.8011403e-01  -5.2543748e-01   1.0533807e-01   9.7824756e-01  -7.7444608e-01  -1.0821263e-01  -7.8378042e-01   5.5865359e-01   5.0366670e-01  -6.3644321e-01  -7.4597938e-01  -2.2198460e-01   5.2554308e-01  -1.3854426e-01   4.6732134e-01   2.3353061e-01   2.3787370e-01
   4.6481211e-01   2.0453351e-01  -4.0859211e-01  -5.6681364e-02  -9.9045151e-01   5.5269816e-01  -8.1549971e-01   6.0096627e-02   6.6130466e-01  -4.8256954e-01  -1.0965647e-01   2.0467165e-03  -2.0487729e-01  -7.8368840e-01   5.7731843e-01  -6.2354685e-01   9.5612014e-02  -9.7736831e-01  -6.7468689e-01  -3.2887812e-01   3.1715697e-01   4.7479622e-01  -4.1769734e-01   4.4541106e-01   3.7134490e-01  -5.0047324e-01   8.2195247e-01  -5.7565642e-01  -8.4691687e-01   4.2377322e-01  -9.6966711e-01   3.6220643e-01   9.1082149e-02  -5.8259697e-01  -1.6608616e-01   6.8223316e-01  -4.4519038e-01  -7.9995092e-01  -9.5823298e-01   4.8858056e-01  -9.5281676e-01  -8.1821799e-01  -8.6647708e-01   2.7803094e-01  -9.7289625e-02   9.8819678e-01  -3.2233995e-01   6.8991272e-01   3.2106299e-01  -5.8635688e-01   4.4829768e-02  -3.4378301e-01   1.6463784e-01   7.3616779e-01  -1.2222827e-01  -1.4695556e-01   8.0344612e-01   1.4870531e-02   9.9906174e-01   1.0328919e-01   5.9815765e-01  -8.4277292e-01   4.0235634e-01  -4.5994097e-02   6.2882734e-01   9.6972969e-01  -2.4944391e-01  -7.7160382e-01  -1.9648261e-01  -7.1278202e-01   2.0502181e-01  -4.6073567e-01   8.5398284e-01  -6.3703630e-01   9.6583755e-01   3.2413618e-02   5.1808820e-01  -3.3473152e-01   7.3127417e-01  -3.2090265e-01   1.1675943e-01   2.6684916e-01  -4.6042250e-01  -9.9688027e-01   9.6792093e-01  -6.4318746e-01   4.5468540e-01   3.1365927e-01   4.2298488e-02  -1.6192432e-01  -3.4383419e-01   3.5200953e-01   7.8243880e-01   2.2698816e-01  -8.7576263e-01   6.1919424e-01  -4.4330002e-01   7.4048102e-01   7.0945502e-01   7.5752219e-01  -7.2263199e-01   2.7783781e-01   3.9918897e-01   2.0669893e-01   8.9353462e-01  -7.6582079e-01  -3.5450450e-01  -6.6540431e-01  -7.5834912e-01   4.7247679e-01  -5.1371712e-01  -4.8886149e-01   3.9348416e-01  -9.2530068e-01  -2.1348010e-02   9.7207892e-01   8.8121378e-01   1.3196786e-01   1.6782158e-01  -9.9655884e-02   3.8992443e-02   3.0001714e-01   8.8466937e-01  -9.9593354e-01   1.8858389e-01   7.7505663e-01  -3.5762805e-01  -8.7541819e-01   7.5397066e-02  -4.4730900e-01   7.6194463e-02  -3.4847900e-01   8.1031114e-02  -9.3515384e-01  -9.3409687e-01  -7.8642828e-01   1.3952678e-01  -7.2309496e-01   8.6555265e-01  -2.1606850e-01   5.7192898e-01  -8.0008243e-02  -8.5151051e-02  -3.6720934e-01  -5.2922791e-01   5.9620994e-01  -5.3454277e-01   7.9589130e-01   9.4351163e-01  -9.7743369e-01   1.9861002e-02   1.3258275e-01  -6.7862594e-01   3.4846829e-01  -2.2941080e-02  -3.2768574e-01   9.6302950e-02  -3.0478267e-01  -2.0135206e-01   6.0435338e-01   3.3485738e-01   7.9899189e-01  -2.3456194e-01  -7.4171342e-01  -5.8077610e-01  -4.5802697e-01  -6.2934643e-01   1.9047986e-01   2.7302395e-01   1.6552154e-02  -1.5887233e-01   9.5902483e-01  -3.0524372e-01   1.9558275e-01  -3.4328608e-01  -1.5226613e-01  -4.3399930e-01   4.2650637e-01  -9.6964953e-01  -4.3962006e-01   9.6342241e-01  -4.9971292e-01   2.4161872e-01   1.0652230e-01   9.7456269e-02   7.2090755e-02   7.1781763e-01  -3.7904818e-02   9.5970672e-01  -7.3604273e-01  -7.7243065e-01  -8.8590932e-01  -5.8430833e-01   8.7361362e-01  -9.0188495e-01  -5.2313066e-01  -2.0220952e-01   9.8405230e-01  -6.6692984e-01  -4.5856301e-01  -2.6181376e-01   1.9152169e-02  -6.5853766e-01   8.1780363e-01  -7.3822095e-01   2.5806392e-01   6.2765554e-01   4.9858535e-01  -1.1580532e-01   8.7098582e-01  -4.3764181e-01  -5.8083745e-01  -4.3984617e-01   8.6264878e-01  -1.3682706e-01   9.2178477e-01  -4.6118629e-01  -3.3955216e-01  -3.8947155e-01  -5.3966345e-01   6.6448462e-01   9.1458067e-01  -9.2440735e-01   2.9633709e-01   7.9843613e-01  -5.0864593e-01  -6.6191868e-01  -8.6983116e-01   7.0033057e-01   7.9622486e-02  -2.1534674e-01   4.5969131e-01   7.6043904e-01  -9.7252032e-01   9.1372795e-01  -2.3069435e-01   2.2007619e-01   7.5526318e-01  -5.1094804e-01   7.5395431e-01  -8.3195606e-01  -7.3606855e-01  -8.3638470e-01   3.8883813e-01   4.0530756e-01  -6.7343128e-01  -3.3908938e-01   9.3425284e-01  -8.2844294e-01   9.1383964e-01  -2.4715968e-01   9.8038168e-01  -9.9428215e-01   3.2280506e-01  -6.9050563e-01  -6.3601955e-01  -6.8998629e-01   9.6639369e-02  -8.9387397e-01  -9.0209263e-01   3.3035799e-01   1.3512093e-01  -5.1330109e-01   6.1962052e-01  -1.3349140e-01  -4.5672404e-01  -8.9793851e-01   3.3473270e-01   3.0144479e-02  -5.0980449e-01  -7.6236051e-01   7.3086430e-01   8.7831844e-01   7.9275540e-01  -4.5605057e-01  -8.6794235e-01  -2.6213770e-01   6.4808631e-01   4.2123864e-01   7.7554960e-01  -8.7712080e-02   2.8778352e-01  -5.0784162e-01  -6.6868549e-01  -6.5704652e-01  -8.4224494e-01  -6.9942490e-02   1.0738739e-01   5.0426823e-01   4.2738617e-01  -5.1485863e-01   3.0698321e-01   2.6616214e-02   9.5021819e-01   6.1944623e-01   1.4166388e-01  -5.6513462e-01   3.2725071e-01   5.8270654e-02   9.6007486e-01   6.1173104e-01  -8.7440013e-02  -4.1901872e-01  -4.8625197e-01   6.7322739e-01   6.6089796e-01  -2.5605989e-01  -4.0196054e-01   8.3856240e-01  -9.8457941e-02  -8.6162298e-01  -2.2479925e-01   7.9122003e-02   1.9374809e-02   8.5778582e-02   4.5280841e-02  -5.2381653e-01  -6.0724416e-01   6.1414074e-01  -7.8967343e-01   5.3360128e-01   9.2069448e-01   9.5858900e-01   8.3614086e-02  -7.9181990e-01   5.3625956e-01   6.4839689e-02  -1.4264654e-01   9.9271869e-01  -7.3665915e-01   1.9473736e-02   3.1409010e-03  -3.1870203e-01  -3.4303221e-02  -8.8985124e-01  -9.7953195e-01   9.7156561e-01   9.3506315e-01  -1.5428630e-01  -3.4046576e-01  -5.9649865e-02  -7.2049023e-01  -6.4563247e-01  -2.6382242e-01   9.1428002e-01   8.9829861e-02   5.9988322e-01   3.5239479e-01  -5.7586384e-03  -6.1687734e-01  -5.2924459e-01   2.3197025e-01  -6.1480089e-02   5.7402508e-02   4.4165328e-01  -6.5081550e-01  -2.9617256e-01  -7.6063592e-01  -2.0304608e-03  -3.6107519e-01  -2.2752925e-01   3.6642364e-01  -5.1300427e-01   1.1852340e-01  -9.8947824e-01   4.3508152e-01  -9.1400412e-01   7.4069688e-02   1.7918988e-01   8.7965169e-01  -7.0933108e-01   7.0920019e-01   2.1746313e-01   5.0581571e-01   4.7052342e-01  -7.4670283e-01   8.3770896e-01   9.4526429e-01   5.0152145e-01   2.9270885e-01   7.6476573e-01  -1.6543004e-01  -3.2853280e-01   2.1706009e-01  -2.0107081e-01  -4.7843581e-01   8.2874660e-01   8.6653481e-01   7.2089536e-01   2.6893371e-01  -3.8809194e-01   2.7206487e-01   2.7369165e-01  -1.4307983e-01   9.4672160e-01  -2.7986180e-01   4.4212914e-01   6.8028860e-01  -3.0035808e-01  -4.5691179e-01  -3.2090802e-01  -4.6434307e-01   6.0510510e-01  -3.9859750e-01  -2.1829890e-01  -3.0539371e-01   4.5923007e-01  -8.5998432e-01  -7.9932701e-01   1.3858018e-01  -3.5655433e-01  -6.4583391e-01   3.3392421e-01  -1.8221877e-01  -4.0798055e-01   5.3686831e-01   6.6110861e-01  -4.2058377e-01  -6.0582124e-01   7.7110640e-02   7.4459315e-01   6.6462155e-01  -5.4812115e-01   4.8655186e-01  -4.2412807e-01  -8.5523184e-01  -7.9928607e-01   7.4129041e-01   1.1436011e-01   2.5774975e-01   9.7393761e-01   8.6575712e-01   7.0633094e-02   1.4006458e-01  -5.6622330e-01   3.5158818e-01   1.1397738e-01  -8.4095478e-01  -9.2302040e-01  -4.8467587e-01  -1.9145282e-01   2.9375573e-01  -8.0944723e-01  -8.5414366e-01   1.5544445e-01   2.4816256e-01   1.5804763e-01  -1.8076858e-01   2.9233316e-01  -2.7794098e-01   4.7598380e-01   2.9231836e-01   4.9512639e-02  -2.4352641e-01   1.5183203e-01  -8.3641163e-01   8.8730906e-01  -6.6640644e-01   7.7264781e-01  -2.2030077e-01  -9.4262276e-01  -7.8774759e-01  -1.4549473e-01  -7.7207950e-01  -4.3469447e-02  -5.0891744e-01   7.6261190e-01   6.7574299e-01  -9.2689473e-01  -3.7317279e-01  -7.0494255e-01  -4.3063712e-02   3.9544532e-01   8.0849040e-01  -9.0008983e-02  -2.0370461e-01  -8.3489368e-01   1.0870127e-01  -7.4443273e-01   4.0266520e-01  -8.2349910e-02  -6.2972712e-01   7.4429024e-01  -1.1431422e-01   3.8436640e-01   8.0802675e-01   4.0231548e-01   3.2729136e-01  -3.7953713e-01   3.8353092e-02  -5.9139277e-01  -2.9452285e-01  -9.3934641e-01  -8.9291991e-01  -6.9966269e-01   9.1248283e-01   4.2794605e-01  -8.6416708e-01  -6.9077160e-01   9.3161247e-01  -6.4443863e-02  -9.5624572e-01  -4.5749543e-01  -7.6496262e-01  -8.3713353e-02  -9.9637824e-01  -4.8762218e-01   9.9838309e-01   1.8634569e-01   8.1305540e-01   1.2323376e-01  -9.6052559e-01   6.6179317e-01  -9.7212111e-01  -7.1296463e-01  -6.2048182e-01  -4.6592548e-02   1.8061307e-01   5.9304410e-01   2.8984893e-01  -1.3486058e-01   6.8472139e-01  -5.7191709e-01  -7.3049360e-01   8.8209628e-01   3.8655560e-01   8.9738888e-01   2.1426738e-01   4.8269838e-01  -6.3993287e-01  -7.1528608e-01  -8.4663621e-02   4.6287965e-01   6.8466869e-01   6.5979503e-01   6.9725764e-01  -9.7426630e-01   6.1132064e-01   9.7763031e-01  -8.8134890e-01  -5.4719865e-01   5.8102042e-01   4.2075723e-01  -3.3367361e-01  -9.0837524e-01   7.8249861e-02  -1.0405567e-01  -5.8852510e-01   7.6414430e-02  -4.5530070e-01   3.7063325e-01  -4.1751081e-01  -7.6555021e-01   6.1105621e-01   8.6918920e-01  -6.9006298e-01  -8.0544085e-01  -8.1129762e-01  -4.8633386e-02   5.2543159e-01  -5.2836382e-01   3.4682893e-01  -6.8561874e-01  -7.8360748e-01   9.3392782e-01  -6.7389002e-01  -8.9773456e-01  -2.2500763e-01  -4.2056476e-01  -7.8568901e-01   7.3908982e-02  -9.0834240e-01  -3.4593079e-01  -3.9836530e-01   2.4811956e-01  -7.9398772e-01   8.4750390e-02   3.3393020e-01  -3.9072224e-02  -8.3732535e-01   3.3812110e-01  -2.5174185e-02   3.9009078e-01  -8.6086054e-01  -9.8882938e-01   7.5840366e-01   8.4822350e-01   9.1889359e-01  -8.9524241e-01  -9.9898827e-01  -9.8512806e-01  -7.2168402e-01   7.4268407e-01  -2.6403422e-01  -1.2728330e-02  -9.0223040e-01   4.2523772e-01  -1.3835256e-01   2.4405391e-01   5.2176265e-01  -4.8140354e-02  -4.8171398e-01   3.7220926e-01   3.9528453e-02   4.6153691e-01   4.3877593e-01  -8.2272417e-01   9.1227179e-01  -9.6886061e-01  -4.1900802e-01  -3.8331140e-01  -6.8696442e-01   9.8387890e-01  -9.5317087e-01   6.3598592e-01   5.6499463e-01  -6.9835947e-01   6.8905588e-01  -9.5588427e-01  -8.6183716e-01   5.4989007e-01  -6.0254683e-01  -8.2051601e-01   8.1401813e-01  -5.1435960e-01   3.7201122e-01   1.2712083e-01  -8.8268877e-01  -9.6601323e-01  -6.4639598e-01   6.9556291e-01   3.4385361e-01   3.2586077e-01  -1.7131728e-01  -2.0381772e-01   9.2014090e-01  -3.3358671e-01  -6.6822922e-01  -7.5900655e-01  -9.7550084e-01  -7.6319459e-02  -2.7311398e-01   3.2979771e-01  -8.7698631e-01  -3.3036127e-01  -1.9997320e-01   7.4834801e-01   3.6980409e-01   1.4121699e-02  -9.6845821e-01   8.7268398e-01  -7.6799231e-01   3.8427653e-01   4.7853803e-01  -8.2887260e-01   5.1332046e-01   9.8268249e-01   8.6501627e-01  -5.3979089e-01  -6.7947832e-01   4.7635924e-01  -9.0878153e-01  -6.4514571e-01  -2.7809564e-01  -3.1544588e-01   2.8088849e-02   8.5437529e-01   2.5046153e-01  -1.4677375e-01  -7.4031414e-01  -8.6364469e-01  -1.1384247e-01  -2.7869217e-01  -4.3679533e-01   4.1814261e-01   3.3948469e-02   4.7731619e-02  -9.1758645e-01  -4.1057642e-02   2.3317505e-01   1.3429799e-01  -2.8179242e-01  -9.4730597e-01  -9.7668830e-01   3.2241300e-01   1.3562170e-01   4.0716531e-01  -5.6987082e-01  -9.8115952e-01   7.9721258e-01   1.3976398e-01  -3.7530912e-01  -6.1672928e-01  -9.2684592e-02  -8.8629512e-01   6.0962430e-01  -4.6678115e-01  -5.1247903e-01  -1.9590280e-02  -9.8328997e-01  -8.0721607e-01   8.7360948e-01  -8.0655082e-01   5.1803668e-01  -8.6581372e-01   2.3537300e-01   5.6197491e-01   3.6818536e-01  -3.4154691e-01   7.7646892e-01   4.4993694e-01  -2.1983574e-01  -2.8759964e-01   2.7415090e-01   2.1637453e-02   5.1741507e-01  -7.3661780e-01   6.5686101e-01  -4.2035068e-02   4.2749906e-01   7.4889475e-01   2.1831119e-01   1.5399104e-01   1.1877365e-01   6.9389010e-01  -3.9191484e-01   5.5727161e-01   6.7719157e-02  -7.4611595e-02   6.6726121e-01   3.8982436e-01   9.7666793e-01   4.7259105e-02  -2.4843380e-01   3.5666790e-01  -5.3240726e-01  -4.5146821e-01  -2.4281253e-01  -4.0555346e-01   7.2109339e-01  -1.5290219e-01  -6.8309994e-02   2.3468739e-01  -1.1881505e-02  -7.3436152e-01  -1.3879113e-01   4.8705765e-01  -8.5259718e-01   7.2176836e-01  -4.0943674e-01   9.7016951e-01   5.6882942e-01   3.8187831e-01   1.0873187e-01   7.3637787e-01  -3.6053814e-01   9.1125597e-01   4.5223984e-01  -6.6765066e-01  -8.8804298e-01  -7.5731589e-01   9.0933001e-01   1.9156368e-01  -2.1231338e-01  -2.6975354e-01   3.4991936e-01  -5.9743560e-01  -2.4459566e-01   3.8497315e-01  -7.3847181e-01   2.4711129e-01  -3.1065016e-01   2.1042459e-01   4.4390229e-01   7.3684566e-01   4.7763304e-01  -3.5858722e-01  -5.6453028e-01  -9.6787168e-01  -3.9580593e-01  -7.2583234e-01  -8.3041545e-01   7.0344032e-01   3.8434773e-01   4.0120130e-01  -3.8992553e-02   7.3898140e-01   2.6543803e-01  -6.4300059e-01  -8.8802012e-01   4.1005333e-01  -9.6389323e-01  -6.2708146e-01  -8.3701442e-01  -9.6582376e-02   2.0451231e-01  -4.6055360e-01  -6.0245836e-01  -3.2078180e-01   3.7888218e-01   2.7544044e-01   5.1805572e-02   9.0964456e-01  -3.9102659e-01  -7.9550512e-01   7.0016152e-01  -2.4191393e-01  -4.4320883e-01  -3.0038157e-02   4.3184917e-02   9.6225246e-02   1.8176075e-01   7.3580940e-01  -3.9009798e-01  -1.8955436e-01   1.1961276e-01   8.3478102e-01  -3.9848477e-01  -9.6989490e-01   4.2863947e-01  -4.4726208e-01   5.2057409e-02  -8.6435403e-01   1.3280188e-01   8.6339419e-01  -9.7976544e-01  -5.4158789e-01  -3.3802160e-01  -5.8086370e-01  -1.9915967e-01   7.2843244e-01  -7.7237862e-01  -7.6331360e-01   8.3762264e-01   4.3787906e-01  -2.6667621e-01   3.5317883e-01  -1.4685496e-01  -4.5643014e-01   5.1263206e-01  -7.0438678e-01   5.1624888e-01   9.9633330e-01  -9.2790505e-01  -7.7144045e-01  -9.5203058e-01  -5.3108160e-01  -6.9884897e-03   5.7351702e-01  -4.9273070e-01  -3.8191932e-01  -7.7244841e-01   6.6201964e-01   3.8312532e-01  -8.7765571e-01   5.0165335e-01  -2.0144130e-01  -8.5616519e-01   1.1398933e-01   9.8157776e-01   6.5586114e-01   8.0339107e-01  -1.9613907e-01  -8.4077803e-01  -1.0869576e-01  -5.8798722e-01   5.3317418e-01   1.6567065e-02  -5.5923034e-01  -8.2261096e-01   4.1559703e-02  -4.0515231e-01   9.2568943e-01   9.0662109e-01   2.2870642e-01  -9.3105712e-01  -3.5865375e-01   3.9849537e-01  -1.8742421e-01  -9.2474345e-01  -2.2499869e-01   8.3885141e-01   6.6397756e-01   2.0737156e-01  -8.2442258e-01   4.4113886e-01  -8.1374527e-01   4.0469703e-01  -8.8323789e-02  -5.1294566e-02  -1.1251327e-01   1.6566857e-01   2.1838826e-01  -3.3166917e-01   6.4281633e-01   4.6517321e-01  -2.3484487e-01   3.1641075e-01  -3.3840670e-03   7.6411578e-01   4.1001956e-01  -7.9192411e-01  -5.3426034e-01   9.5423096e-01  -4.1433900e-01   3.2906620e-01  -8.1415948e-01  -6.3539500e-01   9.6698109e-01  -7.4603830e-01   6.7935318e-01  -7.0385698e-01   8.3307240e-01   3.5986760e-01   3.6875351e-01  -9.6456460e-01   9.1322800e-02   4.3198080e-01  -5.8293825e-03  -9.4429672e-01   2.6009968e-01  -6.2782288e-02   6.4463539e-01   2.7638865e-02   7.0857797e-01  -3.1661910e-01  -3.3502199e-01   2.8476761e-01  -2.1437227e-01   7.1268771e-01  -9.9301393e-01   9.8809455e-01   5.9453075e-01  -1.1963111e-01  -2.7299646e-01  -9.3082614e-01   7.4160137e-01   1.8961631e-01  -8.9608723e-01   7.2567522e-02   8.8318953e-01  -2.2150617e-01   4.5872798e-01  -9.9449460e-01  -4.9063503e-01   4.1361707e-01   4.4019261e-01  -8.3057407e-01   5.7064434e-02   4.4246072e-01  -3.5932067e-01  -3.2801809e-01   2.7064176e-01  -9.2154105e-01  -8.4849876e-01  -7.9596216e-02   7.4605629e-01  -6.0535633e-01   9.7527626e-01   3.0316123e-01   9.8974206e-01  -8.6345736e-01  -1.9410225e-01  -9.0395510e-01  -9.6534881e-01   7.8736939e-01   1.3670310e-01  -7.0377294e-01  -6.5294334e-02  -8.9436278e-01  -9.8393470e-01   6.7147095e-01   5.8499304e-01   7.4670067e-01  -7.5103492e-02   5.1855878e-01   2.9718660e-01  -5.3466591e-01  -1.5639019e-01  -5.7077533e-01   6.1337948e-01   2.0147994e-01   5.2301356e-01   5.7923876e-01  -8.6439842e-01  -2.4711226e-01   2.8050500e-01   3.0494386e-01   7.6739380e-01  -7.7957216e-01  -7.2171790e-01   2.6253536e-01  -4.3625028e-01  -5.0939148e-01  -9.5541908e-01  -2.7286696e-01  -6.7523260e-01   7.8642383e-02  -8.1557941e-01  -1.4516015e-01
