   8.1249601e-01  -8.0379498e-01   1.9502091e-01  -9.2962528e-01   4.0835622e-01   3.5432276e-01   6.3826863e-01   9.3342686e-01   6.8792734e-01  -8.8583609e-01  -7.7599286e-01   7.0844467e-01  -7.0633644e-01  -3.9793641e-03   2.8148199e-01  -4.8267778e-01   1.7027436e-01  -4.0744935e-01   5.5548316e-01   7.6009889e-01  -9.8601300e-01  -4.0071816e-01   6.5585684e-01   8.2418032e-01   5.3359586e-01   4.5201640e-01   1.6072578e-01  -6.8453860e-01   2.8610110e-02   3.6097318e-02   9.0463422e-01   9.9255152e-01  -7.2801892e-01   3.1742196e-01  -5.5083901e-01  -6.4389294e-01   6.7734829e-01   5.7263943e-01  -8.7167739e-01  -2.6438921e-01  -3.5986201e-01   3.1044883e-01   9.7381267e-01   6.9550136e-01   5.0251722e-01   8.5468063e-01   3.6270350e-01  -8.9114110e-01   4.7640816e-01   1.0579812e-01  -9.7008457e-01  -2.0999650e-01   9.7337245e-01   1.9353058e-01  -8.2147739e-01  -4.2203328e-01  -2.0868525e-01   1.2021561e-01  -5.2678414e-01   6.3741258e-01   7.0784379e-02   3.3597554e-02   3.6081623e-01   3.9373132e-01   6.1847916e-01  -4.8369997e-01   3.3720398e-01   8.2835430e-01  -8.8045885e-01  -5.2592522e-01  -6.9924698e-01  -8.6541557e-01  -2.3822297e-01  -8.7110139e-01  -7.2326276e-01   4.9071112e-02  -8.0081315e-01   3.2057556e-01   5.6520315e-02  -3.8112866e-01  -6.5281959e-01   7.0789415e-01   7.3664343e-01   6.4203206e-01  -2.3516135e-01  -5.6115732e-01   6.8319654e-01  -3.7398995e-01  -3.3209853e-01  -9.3398201e-02   1.1592013e-01   2.2817382e-02  -6.1233422e-01  -1.3883406e-01   8.0255128e-01  -2.6070876e-01   4.3182391e-01   6.1870377e-01  -8.4634769e-01  -5.1686918e-01  -4.2977028e-01   9.6860947e-01  -4.7703353e-01  -1.2653332e-01  -4.3799624e-01  -1.4102247e-02   3.0244246e-01   1.6321779e-01  -7.2066959e-01   3.1627724e-01   3.0947981e-01   8.0693338e-01   6.9918602e-01  -7.5726645e-01   3.4701118e-01  -6.5483567e-01   6.2684129e-02  -7.1133353e-01  -8.0814909e-01   2.3675936e-01   1.6851359e-02  -1.3513543e-01  -3.1536685e-01  -9.7551784e-01  -1.4754746e-01   5.5999106e-01   6.3775144e-01   1.4326561e-01   5.7125298e-01  -5.7833162e-01   8.7355710e-01  -2.3819301e-01   2.7433605e-03   7.9036716e-01   6.4557529e-02   9.1009872e-01   7.4772820e-01   5.6294244e-01   6.4409167e-01  -3.6360246e-01   1.1516712e-01  -4.8552825e-01   9.9705541e-01   1.4811878e-01   2.8639586e-01  -5.0440798e-01  -8.7454558e-01   7.7677910e-01   9.8985976e-01   5.1080551e-01   8.8061204e-01  -5.3632364e-01   2.4000909e-01   1.1113355e-01   6.2548239e-01   6.2533283e-02   8.5456286e-02   1.0367399e-01  -4.4953222e-01  -2.0863612e-01   6.6703977e-01  -1.9480475e-01  -8.1389255e-01   9.0113765e-01  -2.0060760e-01  -3.7985758e-01   2.2205636e-02   3.6480838e-02   2.3779691e-01  -3.9484670e-01  -2.1891229e-01   2.9210535e-01   5.4637031e-01  -2.8150020e-01  -4.9565278e-01  -8.8032459e-01   3.8206115e-01  -4.3865058e-01   1.2210026e-01   9.6077463e-01  -4.7326922e-01  -2.6591301e-01   6.0255373e-01  -4.8710710e-01   5.0713386e-01   4.4260045e-01   8.9245498e-01   6.2959645e-01   5.3812353e-01   9.1306746e-01   5.6181422e-02  -4.2342778e-01  -1.5191408e-01   6.1994184e-01  -4.6206307e-01   6.9834017e-01   6.5295970e-02  -7.5260744e-01   3.8648051e-01  -3.9994240e-01  -4.9095095e-01  -5.4189034e-01   9.1785661e-01   2.0192164e-01  -5.4021690e-01  -4.5193334e-01   8.8358203e-01   6.6536190e-01  -7.5953619e-01  -4.8519720e-01   3.2203254e-01  -7.4201192e-01  -5.8211410e-01   8.1015062e-01   6.6937234e-01  -1.4155847e-01  -6.5861067e-01   2.1029711e-01   8.1377460e-01   6.6892997e-02   7.7261196e-01  -4.4337992e-01   8.9970196e-01   8.8171167e-01   8.6199600e-01   9.3444662e-01  -5.8863231e-01  -6.7704646e-01  -6.0602051e-01  -3.5035062e-01   2.1386230e-01   1.0213947e-01   4.1403188e-01  -1.5022071e-01   5.6953145e-01  -1.8336935e-01  -8.8765438e-01   3.2745821e-02  -1.5694640e-01   5.7591802e-01   4.4271523e-01   7.4390254e-01  -8.4894627e-01  -1.8317568e-01  -1.1101307e-01   9.3910539e-01  -2.4045888e-01   3.3007730e-01  -1.0170577e-01   9.5029061e-01  -8.2595788e-01  -2.9150922e-01  -1.9408972e-01   7.0222957e-01   7.7025733e-01  -6.0841043e-01  -6.2957424e-01   7.3292828e-01  -4.1784450e-02   6.1904496e-01  -4.8464988e-01  -1.5705971e-01  -6.1718112e-01  -9.6200081e-01  -9.1097756e-01   1.3649984e-01  -9.0935465e-01   4.8901561e-01  -2.4745434e-01  -1.7081608e-01  -5.0259790e-01   6.9972004e-01   5.2324982e-01   4.2243210e-01   7.8379969e-01   1.0412244e-01  -8.0582515e-01   2.1751189e-01   2.0413034e-01  -6.1821666e-01  -1.0127613e-01  -4.5539865e-01   1.6265867e-02   5.3284214e-01   3.4827547e-01   1.5329157e-01  -5.5129821e-01  -2.9541495e-01   3.9180623e-01  -1.7587414e-01  -9.2971393e-01  -3.0509063e-03   9.4971464e-01   8.6340102e-01   6.2111120e-01  -9.0992781e-01  -5.0511419e-01  -6.1839470e-01  -9.9303494e-01  -2.0382078e-01   3.8281255e-02   3.9908108e-01   9.2381400e-01   6.3497271e-01   8.6672502e-01   1.2291301e-01   2.7610740e-01  -1.1117148e-02  -1.2840052e-01   9.8638151e-01   1.1779727e-01   2.6041364e-01  -1.7416516e-01  -2.6213291e-01   7.8284755e-02  -7.0378839e-01   5.6327557e-01  -7.1933597e-01   3.9974320e-01   3.7032061e-01   1.3224265e-01  -8.8303041e-01  -1.9088423e-01  -4.9317900e-03   6.2794241e-01  -9.1091011e-01  -3.5698017e-01  -8.3571769e-01  -9.0189823e-01  -3.8790298e-01  -4.0826507e-01  -2.3755502e-01   2.2199572e-01  -8.0144934e-01   8.4406803e-02  -8.3845499e-02  -3.8397407e-01  -3.2391525e-01   6.6587240e-01   4.0530642e-01  -3.5192636e-01  -5.8975403e-01  -5.3739962e-01   2.7063096e-01   2.0655977e-01  -4.8046567e-01   9.9305463e-01  -4.4267925e-01  -9.7397410e-01  -1.6766247e-01  -3.4889647e-01   1.4347474e-01   2.2696737e-01   6.7940746e-01  -7.6381695e-01  -3.3353190e-01   2.6736132e-01  -8.9995655e-01  -7.9215456e-01  -9.6828972e-01  -8.4620987e-01   9.5135624e-01   2.5871184e-01  -4.4418254e-01   3.6160213e-01  -7.6296471e-01   2.2367904e-01   9.9500139e-01   1.6538011e-01  -7.2696080e-01  -2.4908788e-01  -9.1428288e-01  -9.9132233e-01  -1.7602213e-01   2.5529245e-02  -5.8719282e-01  -5.0725929e-01  -2.1393913e-01  -1.8298036e-01  -2.0883804e-01  -3.8802872e-03   2.9300846e-01  -9.6963322e-01  -2.6353130e-01  -7.4385355e-01   7.0838278e-01   8.3933089e-01   1.7309001e-01  -9.8037687e-02  -2.4568567e-01  -4.1888517e-01   5.6804780e-01  -5.9149783e-02   8.3233716e-01   3.6098014e-01   2.9379816e-01  -9.4665072e-01  -6.5418658e-01  -5.9102831e-02  -8.4821544e-01  -7.8239586e-01   6.9132515e-01   3.7065240e-01   7.8779396e-01   2.0775829e-03   6.0144450e-01   1.4918342e-01   2.9829396e-01   5.3907637e-02  -3.5023824e-01   9.0272335e-01  -6.1740007e-01   1.8144676e-01  -1.2244760e-02  -4.5107513e-01  -9.8273588e-01  -1.8628305e-01  -5.1414562e-01   8.3645015e-01   1.2861620e-01   7.3879085e-01  -9.7258308e-01  -9.9400815e-01  -6.2342014e-02  -4.2731760e-02  -4.7453382e-01   2.6642789e-01  -8.8378554e-01   4.0358043e-01  -5.7848174e-01   5.4791534e-01  -5.4357675e-01   1.6490597e-01   2.5013248e-02  -7.4001797e-01   1.2330514e-01   6.3621450e-01  -1.1567557e-01  -4.9303107e-01  -6.6469813e-01  -2.9064304e-02  -7.2535643e-01   2.0259241e-01   2.7657914e-01  -1.7322162e-01  -9.6382825e-01  -2.5496018e-01  -7.1168897e-01  -1.2390248e-01  -3.1394545e-02  -4.5777142e-01  -8.6678973e-01   4.5451336e-03  -1.6598489e-02   2.1484299e-01  -3.7493069e-01  -4.6769152e-01  -6.1189591e-01  -3.4845027e-01   2.5889025e-01  -5.7663637e-01  -2.5572915e-01   1.0098272e-01  -5.3992512e-02  -8.1232270e-01  -2.1467393e-01  -2.3563490e-01  -5.8595408e-01   5.3002015e-01   7.6964186e-01   3.4720047e-01  -4.8235180e-02  -1.8336942e-01   9.8733563e-01   6.6447655e-01   7.3659168e-01  -7.2000986e-01  -9.6334860e-01  -4.8832933e-03   4.2739660e-01   8.3640377e-01  -2.9714550e-01  -1.2192938e-01  -3.9792795e-01  -6.9755114e-01  -7.3320570e-01   2.9568786e-01   6.7062912e-01  -8.6652545e-01   2.5868835e-01  -4.4791966e-01  -8.7680238e-01  -7.8658848e-01   6.2922950e-01   4.9744258e-01  -6.2635220e-01  -9.6800059e-03  -3.9661669e-01  -9.9287180e-03  -7.5716013e-01   6.1003814e-01  -7.2749582e-01   5.2825288e-01   5.6541191e-01  -9.0633468e-01   2.7285197e-01  -1.7731366e-01  -3.6967765e-02   9.1178723e-01  -2.8665963e-01  -8.2008817e-01   6.8221414e-01   6.7544514e-01  -9.0294213e-01   9.7505862e-01   1.9170393e-01   8.0078779e-01  -4.2660156e-02  -7.9016082e-01  -1.6327839e-01  -3.7776643e-01  -6.2402285e-01  -6.8327469e-01  -1.5513043e-01  -6.0898390e-01  -1.7337122e-01  -1.9989943e-01  -9.2039891e-01  -6.8358656e-01   2.0971639e-01   1.0613559e-01   3.4059722e-01  -6.6778927e-01  -9.3447389e-01  -8.7925448e-01  -6.2657536e-01   5.7368732e-01  -4.3930807e-01  -9.9444861e-02   3.3460074e-01  -5.0213590e-02  -1.1358818e-01   4.7582351e-02  -3.3578287e-01  -7.2721318e-01  -5.2614231e-01  -2.2164316e-01  -2.8536361e-01   4.9471237e-01   7.3570158e-01  -8.7158721e-01  -6.2298247e-01  -8.8737693e-01   2.0584835e-01  -2.5905204e-01  -8.3725756e-01   2.7834136e-01   4.3631202e-01  -1.0954692e-01   3.8366829e-01   8.4432054e-01  -8.9873825e-01   1.8777089e-01   2.2980143e-01   2.7458497e-01  -1.9862967e-01   8.9468967e-01   3.7875419e-01  -8.2678208e-01  -5.6272431e-01   4.3955652e-01  -1.7871386e-02  -5.1710717e-01   4.8813591e-01  -6.6047247e-01   4.6039666e-01  -6.3928727e-01  -4.8671835e-01  -1.4350382e-01   1.2428536e-01   4.8585247e-01   5.4466137e-01   7.1700643e-01  -4.1235052e-01  -3.1164380e-02   4.8595504e-01   6.9034654e-01   5.0644989e-01   6.9250869e-01  -4.4443104e-01   1.4421461e-01  -3.6475931e-01  -9.8382226e-01   5.4243671e-02   6.5419338e-01   6.4177290e-01  -1.2448128e-01   8.1863554e-01   2.2162165e-02  -2.6191677e-01  -5.3836648e-01  -7.8286426e-01   5.8337292e-01  -4.4198574e-01  -2.3041605e-01  -2.0486977e-02   5.8133644e-01  -2.3845488e-01  -3.7923777e-02   8.7414860e-01  -7.5639174e-01  -7.9005159e-01  -5.1758911e-01   4.4791376e-01  -5.5736688e-01   8.6131001e-01  -2.0251708e-01  -8.8406903e-02   3.2979976e-01   1.6767340e-01  -8.5581489e-01   5.3793571e-01  -5.3095089e-01   5.3632883e-01  -5.1431231e-01   9.7562841e-01  -5.6305189e-01   8.1398629e-02  -2.4821612e-01   9.2483410e-01  -4.5980836e-01  -7.8554099e-01  -6.1963966e-01  -3.2841366e-01   4.8912679e-01  -5.8152909e-01   2.1916135e-01  -7.4530076e-01  -9.1491268e-01   4.4175925e-01   6.5490976e-03   9.2892756e-01   9.8815630e-01  -2.5769923e-01   3.8517329e-01  -3.3592398e-01   8.5312219e-01   6.1210155e-01   2.7428965e-01  -6.2636108e-01  -7.1051149e-01   8.6350151e-01   9.3352394e-02  -7.6074750e-02   2.4954245e-01  -9.6135313e-01   3.6010501e-01  -5.9671998e-01  -4.0862382e-01  -5.4463739e-01  -1.2601641e-02   2.3113257e-01  -9.0020503e-01  -7.7077923e-02  -4.8703186e-01  -1.7495336e-02   3.1026833e-01  -9.6399325e-01  -3.9548486e-01   8.2004000e-01   9.6362200e-01   3.9438004e-01  -7.1367994e-01   3.1857041e-05  -7.2662919e-01   8.3070455e-02   1.2104864e-01  -8.1712284e-01  -6.8101730e-01  -7.0961165e-01  -4.3023317e-01  -5.9996701e-01  -4.7513180e-01   5.1978618e-01  -8.8393238e-01  -2.0221999e-01   7.1687253e-01   6.7847158e-01   6.0755579e-01  -5.0498150e-01  -5.8985254e-01  -3.1366700e-01  -4.0602766e-01   3.6970828e-01  -8.1354870e-01  -8.4722956e-01   9.9108534e-01   9.6786797e-01   3.0667042e-01  -1.6495032e-01   1.8379908e-01   2.2919539e-01   4.4091460e-01   5.7697611e-01   9.9062461e-01   6.6246226e-01   9.5818122e-01  -7.5189207e-02  -6.7949509e-01  -7.1180167e-01   3.6117932e-01   9.5434318e-01   3.3037834e-01  -7.5477047e-01  -8.6073311e-01  -1.1122157e-01   6.4182452e-01  -6.4058562e-01   3.8659272e-01  -7.5061792e-01   6.0559483e-02  -4.8861767e-01  -5.0278068e-01   6.3064280e-01  -1.2778545e-01  -7.9540784e-01  -5.6656427e-01  -2.3519234e-01   8.7315062e-01   9.0954854e-01  -5.0807141e-01  -9.8341398e-01   8.8544292e-01  -6.9603508e-01  -2.8908538e-01   3.2451084e-01  -4.9850293e-01  -6.0244776e-02   5.7193306e-01   2.0029142e-01   8.2777539e-01   2.1615676e-01  -7.9079781e-01  -5.0016780e-01  -1.9036131e-01   7.0013973e-02   8.1304373e-01   3.0305366e-01  -1.5139887e-01  -1.6280906e-01  -9.2824455e-02   2.7832211e-01  -5.2284449e-01   3.7580609e-01   6.4352697e-01  -9.5458869e-01  -1.7548725e-02  -2.4996476e-01  -1.9469871e-01   1.0941280e-01   8.8461426e-01   5.3930834e-01  -7.0537175e-01  -3.1643332e-01  -6.1416473e-01  -5.0357013e-01  -9.2681287e-01  -3.4397302e-01   1.5844696e-01   3.6447517e-01   7.6743740e-01   2.4047016e-01  -8.6334144e-01   5.9399950e-01   4.3528411e-01   6.9903628e-01   3.7876153e-01   6.9608621e-01  -7.0001064e-01  -1.1859195e-01   7.4409926e-01   6.7313082e-01  -7.8429640e-01  -8.8606389e-01   1.5926908e-01   3.5078156e-01  -7.9991469e-01   2.8195744e-01   9.8301385e-01  -7.9556362e-01   5.6470479e-01  -2.7380517e-01   6.9341315e-01   2.9371862e-01  -4.5675289e-01  -3.3177692e-01  -4.2649810e-01  -9.8919014e-02  -5.2188674e-01  -4.5108252e-01   6.4195725e-01   3.5842020e-04   5.1373133e-01  -5.8921124e-01   6.9340363e-02   1.5513155e-02  -6.4532629e-01  -3.9264208e-01  -5.2552741e-01  -3.3749886e-01   7.8813501e-01   6.2226639e-01   2.7911407e-01  -1.6640407e-01  -1.1920988e-01  -5.5880125e-01  -8.2465525e-01  -9.3449005e-01   6.7308568e-01  -2.8877279e-01   6.0261130e-01   1.7607446e-01  -2.1475638e-01   9.7755085e-01   9.8682013e-01  -8.3769110e-01   2.3292750e-01  -6.9937106e-01  -9.9926467e-02  -7.1362116e-01  -6.4171130e-01   7.2424202e-01  -2.2013514e-02  -3.8118680e-01  -3.7895253e-01  -7.2022247e-01  -4.9566218e-01   7.0422605e-01  -6.9844590e-01   8.2130397e-01   8.2081378e-01  -4.2511676e-01  -7.0103526e-01   6.5433306e-01   5.9688776e-02   3.6666739e-01   3.6290752e-02  -9.8126685e-01   5.4891912e-01  -9.6087772e-01   4.5248619e-01   6.8568754e-01  -1.7280074e-01   6.4858138e-01   9.3021997e-01   6.9010840e-01   9.6599608e-01  -1.2799420e-01  -1.6762848e-01  -6.8661111e-01  -7.4835731e-01   5.7855042e-01   3.2436231e-01  -9.5405662e-01  -9.9922387e-01  -1.4047922e-01   6.6319819e-01   4.2218154e-01   6.8732387e-01  -2.3356981e-01  -2.0992268e-01   4.6623474e-01   5.8214617e-01  -1.0514336e-01   5.3657961e-01  -3.9978006e-01   7.6865837e-01  -2.1797773e-01   3.5236366e-01  -3.0925554e-01   5.3643505e-01  -4.6127012e-01   2.5189804e-01   6.6624705e-01   9.8530702e-01  -5.1225291e-01  -1.3161932e-01  -2.3152453e-02   7.6112269e-01   6.2448537e-01  -4.2263463e-01   2.0717154e-01   1.4195209e-01  -2.4956195e-01  -3.8451211e-01   5.2614121e-01  -6.7075400e-01   7.3596608e-02   7.4725742e-01   2.1356840e-01   6.5138560e-01   5.6862245e-01   8.7488665e-01   2.6445077e-01   3.8780855e-01  -1.2075022e-01   7.5502975e-01  -5.1003873e-01   4.9222979e-01   9.0984513e-01   9.0635388e-01  -5.9422321e-01  -8.3782699e-01   4.7669962e-01  -1.4065295e-01  -2.4641345e-02  -8.2931894e-01  -9.6488890e-01   3.9422360e-01  -2.4463642e-01   1.5389314e-01   5.0178805e-01  -9.2865826e-01  -1.7914544e-01   8.7903099e-01  -7.0318719e-01   4.3446761e-01  -1.4446123e-02   8.4330698e-01   2.6283257e-01   2.9172337e-01   7.3625851e-01  -6.5395335e-01   4.7465114e-01  -6.4938731e-01  -2.7945197e-01  -2.9809667e-01  -2.5536496e-01  -3.6511150e-01  -7.3050746e-01  -4.5231245e-02   4.1619002e-01   5.4188526e-01  -6.0309857e-01   2.5277822e-01   3.5832487e-01   9.7228841e-01   3.9694799e-01   2.7634668e-01  -9.6297537e-01  -4.8095696e-01   3.5077552e-01   2.7181911e-01   6.4052643e-01  -2.5556685e-01   2.3441128e-01  -1.9207974e-01  -9.6050386e-01  -2.1868708e-01  -8.3915212e-01   1.4458040e-01  -6.1402070e-01  -7.0291406e-01  -3.6025704e-02   1.0402347e-01  -2.3084607e-01   7.9884316e-01  -4.1061054e-01   6.3247701e-01  -7.4688165e-01  -1.0500222e-01  -9.6851122e-01  -2.8886078e-01  -7.6118764e-01   8.3744762e-01   2.5712042e-01   2.9383124e-01  -5.5438022e-01   9.4783480e-01  -2.9665769e-01  -1.6295413e-01   2.7441059e-01   9.7330358e-03   4.2084554e-01  -8.9137656e-02   6.8678876e-01  -9.0994719e-01  -9.2226224e-01  -3.7287512e-01  -6.1058767e-01  -1.4464973e-01  -6.0323300e-01  -2.3210455e-01  -4.0624858e-01   2.0055098e-01   9.2123081e-01  -1.6838183e-01  -8.3257944e-03  -8.7201148e-01   9.2330094e-01
