  -4.0542057e-01  -2.8017593e-01  -8.7299489e-01  -4.8284294e-01   8.2700428e-01   5.2137900e-01   3.1683941e-01  -8.7203640e-01   2.9120007e-01   2.6712842e-01   6.5137421e-01  -2.1363490e-01  -7.8791038e-01  -6.2457318e-01   1.2303449e-02   3.6600327e-01   6.1756383e-01  -8.3121860e-01   6.6139332e-01  -8.6886780e-01  -5.4948669e-01  -5.9528971e-01   1.2067335e-01  -2.4036511e-01   5.7954311e-01  -8.4578797e-01   3.7178516e-02  -8.4955406e-01   1.7251719e-01  -7.6810756e-01   2.2773469e-01  -1.7794847e-01   1.8807960e-01  -6.7223022e-03  -3.0256139e-01  -4.8200180e-02  -2.3676357e-01  -3.5401228e-01  -1.7300444e-01   3.9788679e-01  -5.0693307e-01  -6.5066486e-01  -2.0597424e-01   4.4857089e-01   1.6347683e-02  -5.6349165e-02  -3.5314301e-01   9.1607582e-01  -7.1008880e-01  -1.4082942e-01  -4.9515538e-01   7.0844686e-01   5.1648437e-01   1.3639156e-01  -5.2789844e-01   9.8581128e-01   9.7891175e-01   2.1666738e-02  -7.2665702e-01   6.2032846e-01   4.3762591e-03  -3.7175030e-01  -7.0305096e-01  -2.3558850e-01   6.2048466e-01   3.1476034e-01   2.9966717e-01   4.0645808e-01   7.0491310e-01  -3.9385352e-01  -3.9735392e-01   1.6507707e-01  -9.7199791e-01   8.8298932e-01  -6.4024139e-01  -5.9944665e-01   2.2725465e-01   9.4350594e-01   9.0201804e-01  -5.3032878e-01  -1.4790658e-01   9.4770131e-01   4.3196662e-01   3.3633447e-01   1.9126513e-01   8.3106127e-01   8.9768914e-01   4.0229268e-01  -9.2881134e-01   5.6479683e-01  -9.8542178e-01   2.2719639e-01  -3.8691283e-01  -9.6647209e-01  -6.9524501e-01  -3.4628915e-01  -2.2587083e-01  -8.0220875e-01   9.8527746e-01  -9.7882243e-01   3.9415670e-01   9.3133549e-01   4.0000277e-01   9.1632340e-01   3.9284292e-01   6.2095741e-01  -1.2369472e-01  -4.4255177e-01   3.0940408e-01  -7.7290161e-01  -7.7955937e-01  -9.1197694e-01   1.1331913e-01   6.7464356e-01   7.3852068e-01   8.5642842e-01  -8.2477278e-02  -9.0792884e-01   4.6728869e-01   6.3347265e-01  -1.8301933e-01   8.4096642e-01   6.0470787e-01   4.7887510e-01   9.6965565e-01  -6.9937811e-03   8.4549520e-01   5.2081261e-01  -4.8271536e-01  -5.8478593e-01   5.8693405e-02   6.2178912e-01  -5.4061381e-01  -9.4409117e-01   4.4244915e-01  -5.2174406e-01  -3.5160759e-01   7.5363914e-01   2.0718889e-01   8.2191614e-01   1.2273247e-01   9.8286183e-01   9.0798121e-01  -2.6034786e-01  -6.4181185e-01  -1.4793533e-01  -7.8151763e-01  -2.5875225e-01   3.8944378e-01  -6.8855798e-01   7.3370378e-01   3.7295816e-01   3.8392776e-01  -3.8452677e-01  -3.6124888e-01  -6.2814762e-01  -8.5306512e-01  -3.1843826e-01  -6.4988345e-01   8.8519444e-01  -8.0408970e-01   1.0838710e-01   3.3269144e-01   7.5175147e-01  -4.1065735e-01  -5.3939529e-02  -9.5375735e-01  -1.6684168e-01   7.5182622e-01  -2.5701419e-01  -6.7161165e-01  -4.2912481e-01   7.1514306e-01   1.8053736e-01  -5.1899066e-02   3.3618886e-01  -3.7302998e-01  -9.6346691e-01   3.0568584e-01  -4.9583087e-01   5.9218839e-01  -6.5070724e-01   4.7501359e-01  -1.1107243e-01   7.2377842e-02  -1.2026595e-01  -2.7554157e-01   8.5484178e-01   9.9452718e-01   2.8834879e-01  -7.2718838e-01   2.3643125e-01   5.4594059e-01  -3.6264465e-01   3.2519860e-01   8.5256329e-01   7.3634120e-01   4.0013737e-01   1.2963842e-02  -3.4874322e-01  -1.6575790e-01  -9.8973364e-01   6.4089051e-01   8.8047637e-02  -1.6257673e-01   6.7317178e-01  -2.7347308e-01  -3.2310986e-01   6.8093438e-01  -3.9374724e-01   1.3543594e-01   2.0192889e-01  -7.4668176e-01   6.0934842e-02  -8.0406918e-01  -4.6423321e-01   3.9754339e-01  -2.7432714e-02   9.3990285e-01   4.4777190e-01   4.0049319e-01   2.4192628e-01  -6.9614349e-01   6.7616768e-01  -9.9690122e-01  -6.0384269e-01   7.9234758e-01  -3.8701520e-01  -9.8028365e-01  -7.5403544e-01  -5.8763200e-01  -7.8594353e-01  -7.0566432e-01   6.0479581e-01  -6.1588545e-01   4.5673023e-01   6.4341508e-01  -1.1231412e-01  -3.5137741e-01   2.1112782e-01   2.7695676e-01  -6.7832753e-01  -7.1464287e-01   3.2972814e-01  -4.7971698e-03   8.4308769e-01   2.5335738e-01  -2.5661408e-01   8.4586447e-01  -4.5004018e-01   3.1674885e-01  -1.5416333e-02   6.8664819e-01   3.4336178e-01   3.6269084e-01   4.5443477e-01   8.3190895e-01  -8.9900826e-01  -7.7551275e-01  -8.9286649e-02  -7.2630013e-01   8.1315432e-01   7.6596468e-01  -9.1090194e-01  -5.0123330e-01  -7.8053443e-01  -5.7531670e-01   6.5130402e-01  -5.5744463e-01   1.6265916e-01  -5.1325920e-01  -6.2389951e-01   5.2871617e-01  -5.1355918e-01  -3.8060535e-01  -7.4406563e-01   1.4003303e-02  -8.0438322e-01  -4.9244577e-02   5.8448163e-02  -7.5606385e-01   7.6278869e-01  -8.4258121e-01   3.8253356e-01  -1.8067427e-01  -1.5191487e-01   6.9077201e-02   7.8978096e-01   6.9128101e-02   2.0742405e-01   7.2001199e-02  -7.4062553e-01   7.9642470e-01  -9.4969074e-02   6.5796123e-01   2.0243212e-01   1.1553745e-01  -7.2224600e-01   1.8112122e-03  -4.1284370e-01  -8.0780646e-01  -3.0454547e-01   6.9309635e-01  -8.0451582e-01  -4.8395590e-01  -1.0955148e-01   1.6798405e-02  -6.6609395e-01  -2.5228411e-02   5.2009444e-01   3.3240044e-01   9.0608245e-01   5.0032478e-01   1.4915798e-02   6.4993041e-01  -9.0618136e-01  -2.8974328e-01   8.9373437e-01   4.2475304e-01  -4.7594383e-01  -9.0235201e-01  -8.5141729e-01  -7.3038751e-01  -3.0736071e-01   8.9083842e-01  -3.8896589e-01  -8.2334491e-01   1.6421984e-01  -6.3966064e-01  -4.2488829e-01   7.7736343e-01   6.5006633e-01  -6.7115295e-01   6.2081491e-01   7.5654535e-01   1.6322036e-01   1.9501324e-01  -6.6464231e-01  -3.1484516e-01   5.0752128e-01  -3.9625038e-02   4.6577016e-01   8.2458803e-01   4.7981342e-01   9.0581022e-01   7.4793570e-01  -1.8347425e-03  -9.5648246e-01  -4.7235739e-01  -8.5625734e-01  -4.9503894e-01   8.5427442e-01  -8.1962410e-02  -5.7423482e-01  -4.0216392e-01  -9.0324678e-01  -6.7099480e-01   4.1261083e-01   8.2300096e-01  -7.2799335e-01   2.1472363e-01   1.0094809e-01  -9.1840818e-01  -7.7296203e-01  -4.8274789e-01   4.8004765e-01   5.6201368e-01   2.1486222e-01  -6.7421781e-01   3.7467556e-01  -9.5558209e-01  -9.5351181e-01   3.9370173e-01  -2.1097883e-01   5.0927061e-01   2.8252054e-01  -8.5008135e-01   8.5384140e-02  -9.0421201e-01   3.0226077e-01   9.1898021e-01  -9.9982805e-01  -5.5673259e-01  -7.3543841e-01   5.9666919e-01  -2.5565264e-01  -3.6471676e-01   9.6725072e-01  -8.4206584e-01  -9.8074524e-01  -9.3385845e-01   8.3313942e-01  -9.8734640e-01   8.2622314e-01   4.3678008e-01  -5.1587953e-01  -7.1008902e-01  -4.3062752e-01   8.3800591e-02  -5.8654718e-01   1.2096455e-01  -5.8895443e-01  -3.7506972e-01   6.9625969e-01  -9.6830687e-03   6.8785043e-01   3.7398230e-01  -2.4955445e-01   3.8096847e-01   8.5372506e-01  -1.9890644e-01   2.8253660e-01   6.0142319e-01   8.0492000e-01  -6.8308724e-01  -2.4587340e-01  -9.6902667e-01   8.6274142e-01   8.4842613e-01  -7.7952583e-02   5.0671357e-02   2.1247938e-01  -5.3416808e-01   9.8414949e-01   3.3719620e-01   8.5707288e-01   9.5130844e-01  -6.6828636e-01   4.5456797e-01   1.1759270e-01  -1.7493313e-01  -1.1805089e-01  -8.9398605e-01   8.2903558e-01   8.0107789e-02  -4.3025225e-01  -3.6395566e-01  -5.6470276e-01  -8.4837838e-01   2.5651721e-01  -6.9278877e-01   7.8850459e-01   4.8964562e-01   5.6775024e-02   8.6173553e-01   9.7248398e-01   3.8565530e-01  -3.9656279e-01  -1.3778845e-01   8.8810802e-01  -4.8095531e-01   1.0147868e-01  -6.7481203e-01  -1.0648301e-01  -3.3921577e-01  -2.5500036e-02   1.1015808e-01   4.7833482e-01   4.2450309e-01  -5.6030203e-01  -4.3079918e-02  -7.7383941e-01  -9.3792541e-01   3.0266431e-01   1.3432703e-01  -5.1883659e-01   8.4763093e-01  -1.8045751e-01   1.4043952e-01  -2.6987049e-01   8.1552455e-02   6.0945955e-01   8.5764555e-01  -3.1003912e-01   5.1823751e-01  -9.3288245e-01  -1.3684148e-01   6.3731541e-01  -1.7388281e-02  -4.5315270e-01   2.1168905e-01  -5.0657676e-01  -9.1031523e-01  -6.2169711e-01  -4.9990588e-01  -1.8986343e-01  -1.1609350e-01  -3.3619602e-01  -3.8847211e-01   9.7511779e-01   2.9777374e-01   2.8314666e-01   9.2779168e-01   8.4352981e-01  -6.7660385e-01  -1.9080201e-01  -2.3331506e-01  -6.0280699e-02  -2.0172992e-01  -4.5979657e-01  -9.6844921e-01  -8.4701616e-01  -3.5722430e-01  -5.2167900e-01   5.8854153e-01   4.7587117e-01   3.9096250e-02  -4.6995345e-01  -8.2856042e-01  -9.7448822e-01  -8.3267391e-01   5.5422926e-01  -7.1762637e-01   4.0051956e-01  -7.7299050e-01   1.9464573e-01  -2.8359652e-01  -3.0555096e-04   7.8331923e-02   9.1927093e-01   7.5875199e-02   3.4212890e-01  -8.1908143e-01  -9.9403617e-01  -3.3832341e-01   2.2533863e-01   3.3060147e-01   9.3715191e-01   8.8973970e-01   6.3796935e-01   7.5235127e-01   7.4251624e-01   1.5277404e-01   6.7497033e-01  -2.4021442e-01  -8.3315473e-01  -8.2660777e-01   9.0474245e-01   4.1364625e-01  -4.4543671e-02   5.2030583e-01  -1.4617690e-01   3.1140624e-01  -6.5581454e-01   2.8155588e-01  -3.9025941e-01   3.9940733e-01   5.1998415e-01  -4.9368339e-01   4.7652633e-02   6.7767782e-01  -2.9926376e-01   7.2574137e-01  -2.2575414e-01  -9.2230622e-01   8.4437769e-02  -4.2424156e-01  -1.0185556e-01  -6.8148736e-01   8.0233553e-01  -5.9810762e-02   3.6983356e-01   4.9126419e-01   7.3309257e-02  -7.9313379e-01  -1.6413118e-01  -4.9920730e-01   1.5113739e-01  -7.9367914e-01   7.8419137e-01   5.9222229e-02   5.9421924e-01   4.1154266e-01  -1.8062056e-01  -7.7991072e-01   6.3131210e-01   3.4063508e-01  -9.0332477e-01   1.2687352e-01  -9.4594217e-02  -4.4010083e-01  -8.8547519e-01  -1.2294433e-01  -8.5410914e-01   4.4054427e-01  -8.3924419e-01   7.2442964e-02  -2.6425871e-01  -7.8885637e-01   5.6731958e-01   5.3622278e-01  -8.8508543e-01   1.8370234e-01   9.5630379e-01   2.2558179e-02   1.2663170e-01  -2.0135352e-01  -4.1110842e-01  -1.1945565e-01  -9.3732140e-01  -8.6585580e-02  -4.2480333e-01   7.7655340e-02  -3.0600043e-01   5.7872040e-01  -4.4401345e-01   5.9558849e-01   7.0781158e-01  -5.3934986e-01   9.0155251e-01   5.2105478e-01  -6.6784866e-01   4.9664677e-01  -5.5643083e-01  -1.4660099e-01   2.3931746e-01  -8.3675333e-01  -4.9176285e-01   8.1066895e-01  -2.8139037e-01  -5.0036315e-01  -2.3545516e-01   6.0932025e-01  -2.0561389e-01  -8.0769641e-01  -3.2517792e-01  -7.1150428e-01   4.3022760e-01   9.4573184e-01   3.9997905e-01  -7.4041891e-01   7.6433836e-03   8.8874184e-01  -7.9084560e-01   3.5797476e-01  -7.3872807e-01   3.6466323e-01  -7.3232748e-01   3.6221293e-02  -4.5165016e-01   5.4873660e-01  -8.3774838e-02  -7.2446114e-01  -6.4135309e-01  -5.4507232e-01  -5.6807639e-01  -6.6560310e-01  -4.1515183e-01  -6.9957571e-01   8.7426230e-01  -9.8794201e-01   8.1873644e-01   7.8232908e-01  -2.7278697e-01  -1.4790159e-01   3.6325396e-01  -3.0542108e-01   4.1632968e-01  -9.7728781e-01   9.8722383e-01   5.1365939e-01  -4.1526718e-01   2.2813220e-01  -4.1664797e-01   4.9016680e-01   8.4028701e-01   8.4691676e-02  -9.6917295e-01  -9.4392148e-01   9.1545111e-01  -1.9093684e-01   2.9027606e-01   1.0937373e-01  -4.8558878e-01  -2.2703700e-01  -5.5970225e-01  -1.8014422e-01  -3.3082620e-01   4.8793491e-01   8.6750118e-01  -1.0056775e-01   4.1437303e-01   1.4968745e-01   2.7480776e-01   9.5779344e-02  -6.7096307e-01  -1.3361963e-01   8.4478570e-01   1.8171384e-01  -4.8545975e-01   4.0206112e-01  -4.4563310e-01  -3.4864417e-01  -1.4444595e-01   1.7350152e-01  -9.1366114e-01   9.3841405e-01   9.0688805e-01   4.8664805e-02   9.2805205e-01   5.8649918e-01  -6.5801919e-01  -5.5339667e-01   9.9984862e-01  -6.8533660e-01  -7.0705790e-01   6.4320983e-01  -7.1015154e-01   9.8489843e-01  -8.4675955e-01   4.7770160e-01  -2.5571725e-01  -1.9446410e-01  -8.8284163e-01   9.8250192e-01   1.7643430e-01   5.8018397e-01  -8.1449778e-01  -2.9996528e-01   3.7569558e-01  -5.0384886e-01  -8.6948938e-01   3.4818140e-01   9.4268208e-01   8.4794241e-01   8.6033489e-02  -7.8703120e-01   3.7703724e-02   2.4921221e-01   8.2667150e-01  -6.4636647e-01  -9.7046011e-01  -8.9015443e-02   7.0877604e-01   6.6164220e-01  -5.8740661e-01   9.2585613e-01  -1.9456190e-01   5.6485351e-01  -1.4861982e-01   3.7540765e-02   4.7097294e-01   1.1274799e-01  -8.4401978e-01  -8.9761500e-01   7.2115342e-01   7.9193121e-01   9.2552019e-01  -2.8580368e-01  -1.3325259e-01  -3.8713734e-01  -1.7091420e-01  -5.4707697e-01   1.2229661e-01   7.1516469e-01   2.4661311e-02  -8.4700174e-01  -1.9551966e-01  -6.3530876e-01  -5.7069168e-01  -5.6270512e-01   6.2661363e-01  -6.4578583e-01   9.1589758e-01  -2.1870537e-01   7.7443480e-02   1.1564364e-01   2.0777990e-01   6.8125971e-01   1.9289006e-01   2.7265215e-01   3.5739030e-01  -6.9078025e-01  -4.7485769e-01  -4.4575432e-01   9.9707277e-01  -3.3094820e-01   7.9430343e-01  -8.1623821e-01  -4.1398365e-01  -3.0557358e-03   4.6235825e-01  -6.3267725e-01   7.8533523e-01   6.5504109e-01  -7.8622897e-01   8.4609759e-01  -9.5569342e-01   1.6712295e-01  -6.0244194e-01   3.2082484e-01   1.0901370e-01   4.3538930e-01   8.1968439e-02  -2.6890169e-01   6.5325795e-02  -3.7385165e-01  -7.3736942e-01   5.3751785e-01   8.2401143e-01   9.6947162e-01  -9.6671417e-01   4.8598969e-01   1.1725730e-01  -3.1406291e-01   8.6408354e-01  -3.6803122e-01  -8.6470791e-01  -6.9990712e-01  -1.8058971e-01  -9.3482001e-01   5.0296506e-01   9.9639863e-01   5.1081053e-01   2.3297528e-01  -9.4555542e-02   7.9435810e-02  -1.1621299e-01   4.1670828e-01  -3.7101237e-01   5.1585343e-01   3.2160303e-01  -7.1324966e-01  -8.1045013e-01  -3.8928148e-01   1.2499763e-01   7.1787891e-01  -2.8544748e-01   6.7496719e-01  -1.7240908e-01   7.4870913e-01   5.7110624e-01   1.0736549e-01  -2.9586045e-01   6.6401975e-01   9.0212183e-01   8.4389292e-01   8.4409822e-01   3.8115070e-01   2.9382248e-01  -5.7640277e-01  -7.3651470e-01  -1.6207282e-01  -9.2748082e-01   6.4899453e-01   3.4853079e-01   2.4365652e-01   6.9263060e-01  -1.0260423e-01  -2.0898869e-03   9.7710995e-01   3.4327812e-01   5.7573994e-01  -6.0892916e-01  -1.0280791e-01  -8.4132013e-01  -6.0475840e-01   9.9776046e-01  -2.8163270e-01   7.5474628e-02   3.8286417e-01   3.0653464e-01  -1.3909293e-01  -1.2067629e-01  -3.3228702e-01   9.4648994e-01   9.5784353e-01  -2.4856333e-01   8.4287178e-01   7.6167053e-01   1.8712973e-01   7.3041308e-01   5.2011229e-01  -6.8390071e-01   7.1545911e-01  -2.5769688e-01  -4.7758279e-01   3.8304080e-01   1.7929284e-02   7.9456637e-01   5.9135063e-01   1.6005225e-01  -5.7978339e-01  -4.2986840e-01  -2.8724284e-01   8.1728093e-01  -6.7165798e-02  -2.0947498e-01   8.1682464e-01   1.7158902e-01   1.6262585e-01  -3.4258052e-02   9.0583399e-01  -8.3766319e-01   9.0578964e-01  -1.8347514e-01   8.4678455e-01  -9.8214915e-01   5.2977133e-01   3.8490729e-01   3.0368997e-01   7.6557378e-01   9.5301919e-01   8.8659911e-02   6.0334057e-01   8.0412835e-01  -8.1516265e-01  -9.6150484e-01  -8.9555769e-01   2.6816527e-01   8.1270600e-01   4.2826100e-01   5.3222092e-01   1.0027583e-01  -5.6248878e-01   7.9146979e-01   4.8908096e-01  -7.7978782e-01   9.3662196e-01  -7.6940224e-02   8.5570959e-01  -2.5785782e-01   4.9188925e-01  -8.9265237e-01   3.8455458e-01  -5.1816866e-01   3.2964142e-02   7.1516783e-01   2.3517469e-01  -6.1364394e-01   3.2738960e-01   9.2173790e-01   7.6453054e-01  -5.5013236e-01   2.0720847e-01  -7.0741556e-01   4.4400753e-01  -2.5287364e-01  -8.2610116e-01   1.3736783e-01   9.0507214e-01   7.5779382e-01   2.7750713e-01   7.6428952e-01  -2.9898490e-01   8.1169380e-01   1.1576229e-01  -3.1694399e-01   4.7471849e-01  -8.5326058e-01  -7.0756025e-01  -3.3457305e-01  -4.8084394e-01   4.2338627e-01   1.8341540e-01   1.4104532e-01   2.5810244e-01   7.3682253e-01   5.2131567e-01  -9.5538689e-01   9.7657296e-01  -7.0462418e-01   7.1187897e-01   6.4136671e-01  -4.6385545e-01   2.0609602e-01  -7.0666977e-02   5.5620707e-01   5.9212784e-01   2.6899466e-01  -1.7699122e-01   6.2775352e-01  -5.4421451e-01  -5.0903240e-01  -6.0148256e-01   9.1408929e-01   9.9399441e-01   7.4929355e-01   8.8891775e-01   3.7087292e-01  -4.2635970e-01   9.1653657e-01  -2.8178305e-01   7.7520591e-01  -5.9062483e-01   6.1335855e-02   9.1613417e-01  -8.7232845e-01  -3.7926979e-01   6.0437656e-02   7.2916971e-01  -1.3281730e-01  -2.4597695e-01   7.3125448e-01  -9.2349222e-01  -9.8556899e-01   1.8756946e-01   9.8648019e-01  -4.8938511e-01   9.8560853e-01
   4.0725939e-01   3.6571894e-01   2.8796870e-01   4.3012378e-01  -5.7956629e-01   3.2343191e-02  -9.6603150e-01   8.5428386e-01   3.9502237e-01  -6.9432594e-01  -2.2531776e-01   1.3194118e-01  -8.1830244e-01  -3.8174263e-01  -7.0375713e-01   6.6991719e-02   1.0371745e-01   4.6541867e-01  -4.8236777e-01   3.3591078e-01   1.4108377e-02  -7.2933501e-01  -9.1783941e-02  -9.2695765e-01   3.7820210e-02  -9.8261011e-01  -2.6760164e-01  -9.2931429e-01  -8.2706994e-01  -1.5355675e-01   5.6008620e-01   3.5610246e-01   8.4156505e-01  -5.0852771e-01   1.8044479e-01   2.5844826e-01  -6.5840336e-01  -3.7549830e-01  -9.3459743e-02   9.5210147e-01   4.4648222e-01  -5.9312386e-01   7.2690472e-01  -7.7090719e-01  -3.3890431e-01   6.3138780e-01   2.0613945e-01   7.6056334e-01   4.0635804e-01   6.2084088e-01   3.2432360e-01   4.3042761e-01  -3.6852303e-01   1.3110798e-02  -6.0438495e-01   8.0011572e-01   6.2630751e-01  -8.6758904e-01  -5.0939973e-01   9.6396192e-01  -3.4231388e-01   1.3174975e-01  -2.2462045e-01   7.0561788e-01  -4.1093127e-01   2.4125106e-01   1.7131883e-01  -3.0565289e-01  -2.1896395e-01  -3.7897072e-01  -5.5900046e-01   8.3079063e-01  -6.2669117e-01   4.7109643e-01  -7.3718836e-01  -8.3738891e-02  -2.2861933e-01  -2.3679224e-01   6.0857340e-01  -6.2350689e-01   4.5153478e-01   3.4378233e-01  -3.6310395e-01  -7.9309321e-01  -9.0304420e-01  -8.4392313e-01  -3.2104449e-01  -8.5454949e-01   4.9981972e-01  -2.1278396e-03   6.4222133e-01  -2.0904315e-01  -8.5533406e-01  -9.4921087e-01   6.6581097e-01   3.6391282e-01   7.0407259e-01  -8.7725896e-01  -7.9447182e-01  -1.1632330e-01   6.7585882e-01   7.5015787e-01   8.7261975e-01   1.8110823e-01  -8.7619537e-01  -9.2564634e-01   9.6360342e-01   4.4305819e-02   2.6481041e-01   2.9016095e-01  -7.6262107e-01  -2.8827462e-01  -4.6223116e-01  -8.2849423e-01  -6.1142883e-02  -9.5787077e-02   7.5877197e-01   9.5465809e-01   7.3597135e-01  -9.4303051e-01   3.1674022e-01   6.6617312e-01  -8.7446484e-02   7.8220983e-01  -1.6471911e-01   1.8407022e-01   7.7563174e-01   8.0107295e-01   4.9300410e-01  -4.2978147e-01  -6.8365533e-01   3.5471827e-01   4.0058067e-01  -8.1211689e-01   2.7564120e-01   7.9620093e-01  -5.0328097e-01   7.1564509e-01   6.4943107e-01   1.8156069e-01  -7.4475205e-01   6.0478405e-01   9.8946627e-01   7.4936487e-01   2.9544015e-02   5.1949621e-01  -7.0230942e-01   2.6459198e-02  -3.7495821e-01   6.3453890e-01  -3.2635786e-01  -5.5555073e-01  -1.0722696e-01   1.3877719e-01  -7.1829993e-01  -9.3448790e-01   7.3732166e-02   1.5036119e-01   9.9318410e-01   1.5534494e-01   3.4865933e-01   4.5451576e-01   8.0493808e-01  -2.3744463e-01   4.1776537e-01  -5.9398095e-02   4.1901510e-01   5.0352021e-01  -3.8280351e-01   4.2791804e-01  -3.3211778e-01   4.8786758e-01   4.6977912e-01  -4.7548359e-01   7.0314659e-01  -1.7489265e-01   7.8592630e-01   3.4770824e-01   1.6891595e-01  -6.2984581e-01  -1.6801821e-01  -4.0249036e-02  -6.8691243e-01   6.2955479e-02   9.1143255e-01   2.9084444e-01  -3.7769461e-01   6.8050096e-01   4.8328917e-02   3.5787000e-01   7.2295424e-01   7.6564126e-01   7.4662225e-01  -7.8646971e-01  -2.4717565e-01  -9.2640244e-01  -8.2528355e-02   3.2048359e-02   9.2330905e-01  -6.3996991e-01   8.9172435e-01   6.9113043e-02  -9.4092226e-01  -1.8230885e-01   6.1868662e-01   4.9011179e-02  -3.2775812e-01   6.7038556e-01   9.8375784e-01  -6.4458458e-01   5.6910290e-01  -5.5418875e-01  -4.9176665e-01  -9.0554744e-01   7.1745166e-01   3.7208130e-01  -3.4836076e-01  -9.4712144e-01   9.6164300e-01   2.6823124e-01  -5.1586018e-01   1.8767878e-01  -4.5801678e-02   9.6110915e-01  -1.3548434e-02   6.3187496e-01  -2.0959234e-01  -4.2491795e-01  -2.1618854e-01   9.6001149e-01  -5.5597299e-01  -3.2932615e-01   2.5214457e-01   1.3014830e-01  -5.1686718e-01  -3.4559419e-01  -8.9792479e-01   9.0161669e-01   8.6987775e-01  -5.0730129e-02  -5.6144249e-01  -9.9007595e-01   1.3215494e-01   1.3679202e-02   3.9028558e-01  -9.0472853e-01   5.3464790e-01  -1.2572477e-01  -9.5610238e-01   4.7440110e-01   2.6045021e-01   5.0126509e-01   4.4756047e-02   4.2021599e-01  -4.7761681e-01  -8.8709292e-01   3.3779698e-01   3.4870852e-01  -8.9664474e-01  -8.6979335e-01   5.0402939e-01   4.3762664e-01   9.9754663e-01   2.9350301e-01  -2.1975120e-01   5.8400105e-01  -8.6563491e-01  -6.0107653e-01   3.9046190e-01   3.4547352e-01  -6.8812616e-01   8.9810544e-01   1.9041500e-02  -2.0128098e-01   9.8934422e-03   4.3395850e-01  -7.5022405e-01  -3.7877122e-01   3.0441546e-01  -9.3441713e-01  -4.2905759e-01  -6.6888835e-01  -4.8038252e-01  -2.5583525e-01   8.7294675e-01   8.9427480e-01  -6.6646435e-01   4.1332924e-01   7.7969797e-01   5.6133581e-02   2.7822641e-01  -2.6024144e-01  -5.6569355e-01   1.5691500e-01  -8.2032630e-01   2.3220070e-01   7.5124168e-01   6.9062150e-01  -4.8184270e-01   7.0993102e-01   5.1924587e-01  -6.9848617e-01   4.5301283e-01   7.4969735e-01   5.9180630e-01   6.4629944e-01   5.7416541e-01  -4.1588655e-01   8.5801895e-01   7.9044824e-01   6.6225510e-01  -9.7115418e-01   7.4603639e-01  -7.8332802e-01   4.1825973e-02  -6.0600687e-01  -2.9254739e-01  -9.2570802e-01  -2.6184329e-01   6.9281192e-01   2.8435298e-01   8.0905193e-01   4.5408756e-01  -5.2790416e-01   2.3986255e-01  -1.8912107e-02   6.6660327e-01   2.9470984e-03   9.7144402e-01  -8.4273152e-01   2.2510882e-01   6.3266032e-01   1.6393312e-01  -5.5487822e-01   6.6003209e-01   5.8176717e-01  -9.2753805e-01  -1.0222000e-01  -2.5004186e-01   5.3378831e-01   1.5775212e-01   8.2005829e-01   2.5830386e-01   5.5343346e-01  -7.8448430e-02   5.6852819e-01  -6.2194815e-01  -6.1344425e-01  -3.4332718e-01   8.8800116e-01  -9.1689859e-01   6.3616860e-01  -9.3654291e-01  -6.1971615e-01   7.3409842e-01  -6.6098327e-01  -3.4560373e-01  -5.1563903e-01  -5.4128578e-01   6.3119731e-01  -2.7570025e-01  -1.6054736e-01  -9.9454407e-01   9.5231948e-01   1.0450597e-01   6.7117226e-01  -5.1619175e-01   9.5980774e-01   5.1680839e-01   8.4375403e-01  -4.5086241e-01   4.3264750e-02   1.0979471e-01   8.3357285e-01  -4.1820582e-01   8.1612068e-01   3.4017952e-01   6.2177167e-01  -9.4378060e-01   7.9479354e-01   4.3469042e-01   5.4457207e-01   1.5119026e-01   5.0400016e-01  -5.5906667e-01  -4.0398506e-01  -7.0621205e-01  -2.4636844e-01  -1.1186152e-01   9.2836352e-01  -6.3215755e-01   3.7057381e-01  -4.5650290e-01  -4.8779552e-01  -6.0874312e-01  -1.5653586e-01   8.2599779e-01   4.8204902e-02   5.6114892e-01   4.8096202e-01   4.8336801e-01   3.3295569e-01   7.5844462e-01  -7.6343362e-01  -8.7276986e-01  -7.7078519e-02  -3.8372529e-01  -9.2902877e-01  -6.9626182e-01   1.0702971e-02   9.9795525e-01   3.1050655e-01  -7.9135485e-01  -5.0055461e-01   6.4511949e-02  -7.3321706e-01   5.1307621e-02  -2.8066662e-01   4.6948500e-01  -8.7577864e-01   4.2618326e-01  -4.8966623e-01   7.3542663e-01  -7.4522203e-01  -7.8636809e-02  -3.1848666e-01  -3.4563310e-01  -3.3912496e-02  -8.3936550e-01  -7.0894844e-01  -4.6417492e-01  -1.8177409e-01  -5.2645654e-02  -4.6789315e-01  -3.2506669e-01  -4.3194029e-02   2.7307866e-01   6.7116556e-01  -7.9129817e-01   9.0059062e-01   5.1582235e-01   7.2076192e-01  -8.4451933e-01   1.4092003e-01   1.4580004e-01   8.8754808e-01   7.3857353e-01   3.3838713e-02   4.0155389e-01  -8.4617960e-01   2.3453823e-01  -3.8203371e-01   2.9185091e-01   1.9759147e-01   7.9538016e-01   2.1801278e-01  -9.0831219e-01  -6.3221755e-01  -7.6231110e-02  -6.0933703e-01   2.1023073e-01  -7.1238901e-01  -1.2199595e-02  -5.2056082e-01  -4.0483107e-02  -4.1044250e-01   3.0474443e-01   6.0370432e-01  -2.2874081e-01  -3.0231657e-01   8.4738638e-02   1.8748121e-01   4.9540175e-01  -7.9599493e-03  -6.0060130e-01  -1.0292642e-01   4.0755509e-01  -9.0370473e-01  -3.5482637e-01   6.8306316e-01   2.5698068e-01  -6.7319885e-01  -9.4058199e-01  -6.9528865e-01   9.5539694e-01   9.6705205e-01   9.7425063e-02   3.8452919e-01   5.5689046e-01   2.6874043e-01  -4.7942793e-01  -2.5783365e-01   1.9024945e-01  -6.1622593e-01   2.5179265e-01  -5.7921563e-01   4.3283933e-01   6.8423401e-01   4.0090411e-01  -4.4402041e-02  -2.3716363e-01  -8.7049089e-01   4.1348952e-02  -7.2397302e-01  -7.8623228e-02   3.5744069e-01   8.9146414e-01  -9.3091574e-01   1.2321691e-01   4.9620037e-01   8.6776070e-01  -5.1941478e-01  -9.1015065e-01   1.7215387e-01   8.0639753e-01   4.9296165e-01   2.2252837e-01  -4.9984427e-01   7.6706198e-01   6.4390941e-01   5.8427682e-02  -3.5947664e-01  -4.7042069e-01  -5.3855850e-01  -1.3422504e-01  -5.5375023e-01  -9.0494179e-01   8.5697445e-01   8.8751954e-01   6.6239837e-01  -7.5633357e-01  -5.7534453e-01  -1.9829563e-01   3.5745092e-01   5.8893974e-01   4.1196464e-01   3.9704955e-01   3.4793289e-01   4.5463569e-01   7.7222937e-01   7.3004315e-01  -6.7338261e-01  -7.4224323e-01  -4.6086393e-01   4.6322547e-01  -4.3102924e-01  -5.4843988e-01  -1.8559010e-01  -2.7549278e-01  -5.8761792e-01  -3.3620263e-01   7.8562648e-01   7.1637886e-01   5.3437625e-01   2.0667017e-01  -5.6150995e-01  -2.5622705e-01  -6.5591500e-02   7.9258139e-02   4.4706050e-01   2.3120123e-01  -6.2967702e-01   5.6618700e-01   1.2327965e-02   8.1974332e-01   2.4984771e-01  -7.3741426e-01  -1.5589757e-01   9.8354879e-01  -5.2084580e-01  -6.2714430e-01   2.4039285e-01  -1.0207996e-01   3.1760143e-01  -9.3694597e-01  -7.6020811e-02   8.0494844e-01  -2.4194185e-01   6.0176773e-01   8.4849304e-01   3.3194256e-01   8.3916584e-01   6.0509543e-01  -9.8862396e-01   3.7351982e-01   8.5339160e-01  -3.7930581e-01  -1.5357934e-01   1.7799986e-01  -2.5695685e-01  -7.7366183e-01  -3.4671478e-01  -4.4830462e-01  -4.8719491e-01  -9.9297642e-01   9.0079941e-01  -5.1510887e-01  -7.0247145e-01   2.7287679e-01  -2.5759531e-01  -4.7216450e-02  -1.6293951e-02   1.6999352e-01  -8.8022409e-01  -5.8338970e-01  -6.7411380e-01   7.3759838e-01  -2.2168428e-01   1.1193391e-01  -7.4955860e-01   6.6755787e-01  -1.2739729e-01  -6.9954349e-01  -3.4890150e-01  -5.8314694e-01   7.9436721e-01  -1.8564450e-01   3.5495811e-01   5.8160190e-01   1.1273971e-01   1.7862796e-01   5.4818963e-01  -6.3782296e-01  -7.9563951e-01  -9.9758153e-01   9.7736309e-01  -4.4794013e-01  -6.5148927e-01  -7.5239189e-01   6.7989811e-02  -4.9105291e-01   5.8194739e-01   2.1808633e-01  -3.5520338e-01   9.0472034e-01   9.3097036e-01  -4.2873857e-01   3.8777241e-01   6.6664522e-01   6.3332936e-01  -9.4188021e-01   9.6290342e-01  -6.3788164e-01   2.0638833e-01  -4.2246172e-02   5.4974801e-01  -1.2525896e-01   6.9677216e-01  -4.1893474e-01   2.0108961e-01  -8.3606417e-02   9.8509443e-01   7.7164438e-01   5.0840295e-01   1.1995639e-01   3.2685626e-01   5.7230927e-01  -5.3266613e-01   5.1627561e-01   7.8561607e-01  -9.6170031e-01   4.2039148e-01   1.1430402e-01  -4.8502395e-01   9.0601336e-01  -9.8712705e-01   1.4113661e-01  -1.1507367e-01  -1.6510622e-01   6.7024618e-01   5.9326048e-01  -8.9563486e-01  -2.3234475e-01  -7.8489732e-01   4.7027474e-02   1.5316701e-01  -5.4640727e-01   7.7373970e-01   3.8268615e-01   1.7008194e-01   8.1540970e-01  -7.0783415e-03  -1.8255982e-01   1.8960814e-01   4.2401405e-01   6.9007724e-01   3.1253736e-01   2.2016032e-02   8.9246796e-01  -9.5072378e-01   2.5058003e-01   1.3401014e-01  -8.7496137e-01  -4.8133105e-01   7.5255113e-01   5.6773026e-01   3.0796750e-01   7.4203625e-01  -6.6085271e-01   8.8034583e-01   9.0201422e-01  -6.7562653e-01  -5.5518394e-01  -1.2382546e-02   3.1875383e-01   3.6793929e-01  -7.8800492e-01   1.2316788e-01  -9.0578915e-01   9.1187680e-01   7.3722492e-01   2.4315714e-02  -3.9134735e-03   7.5084682e-02   7.2018299e-02  -3.2206152e-01  -9.0599600e-01  -2.2653471e-01   4.1629657e-01  -6.6619555e-01   5.7684663e-01   1.7450784e-01   1.5531117e-01   5.6749122e-01  -6.1760338e-01  -5.2476686e-01   7.5740747e-02   8.1823797e-01  -8.0051290e-01  -2.7756561e-01  -4.7209008e-01  -2.6620944e-01   6.7125667e-01  -5.0417558e-03   1.1594197e-01   8.7806022e-01  -9.7006670e-01   4.5004037e-01   2.2660171e-01   2.6204535e-01   6.6912747e-01  -1.5369536e-01   4.0941525e-01  -1.9045131e-01  -2.8601070e-01  -5.8815283e-01  -3.1117270e-01   3.2308654e-01   4.6592262e-01   6.1319789e-01   2.6376721e-01   1.6923631e-01   7.8702518e-01   2.1628967e-01  -4.3713807e-02   7.6540321e-01   8.9426930e-01  -8.7291820e-01  -5.9778480e-01   2.7135426e-01  -6.9639182e-01  -1.8723838e-01  -1.6202715e-01   4.8111048e-01  -5.2345864e-01  -7.8333188e-02  -4.1197684e-01   4.2995608e-01   6.8798608e-01   8.2546014e-01  -7.7086788e-01  -4.8598711e-01  -8.2474664e-01   1.4779623e-01   3.8051579e-01  -6.6071043e-01   2.8177773e-01  -9.2041940e-01   4.7339562e-01  -3.2681096e-01  -7.4980315e-02  -2.5810178e-01  -5.4309271e-01  -5.9434348e-01  -4.7191065e-01  -2.9218766e-01   7.1979418e-01   1.5488804e-01   2.4328729e-01   9.5329502e-01   7.3134720e-02   9.7694243e-01  -6.8020322e-01   5.4182816e-01  -6.1452809e-01   4.9648002e-02   9.4982136e-01   2.0129076e-01  -4.9066544e-01  -1.2863342e-01   2.7091236e-01  -6.3904254e-01  -8.8119077e-01   3.6578171e-02   7.2013247e-01   6.1564749e-01  -5.0082390e-01  -4.5419558e-01   3.6178848e-01  -5.9099114e-01   5.1989885e-01  -1.7230639e-01   8.6274446e-01  -9.6919587e-01  -9.5093166e-01  -5.0476598e-01   2.8677559e-02   3.5282450e-01  -3.1992660e-01   6.8174520e-01   3.6927835e-02   7.8789833e-01   4.8299093e-01  -2.5141698e-01   6.8312625e-01  -7.8205911e-01  -7.9260142e-01  -4.8675980e-02  -9.2023116e-01   8.3573173e-02   4.1467092e-02   6.8484592e-01   1.2683066e-01  -6.3942281e-02   5.0069646e-01   5.7564491e-01   4.6495822e-02  -9.7162034e-01   7.0815948e-03  -1.5280638e-01   9.7274705e-01  -7.2715992e-01   8.8958057e-01  -2.0977087e-01   8.3683959e-01  -6.8451387e-01  -6.2716616e-01   7.7160017e-01   3.0503602e-01  -3.2263784e-03  -6.6555763e-01   1.9698621e-01  -5.1785688e-01  -7.0402946e-01   9.9197968e-01  -6.6768581e-01   1.8640464e-01   7.5611893e-01   9.0161673e-01  -9.6692899e-01   5.3862182e-01   9.9139972e-01  -5.4845955e-01   9.6899255e-01   7.1688836e-01   4.0684128e-01   1.5732637e-01   9.8992272e-01   3.0000220e-01   7.1082705e-01   8.2563008e-01   2.3029469e-01  -8.7193198e-01   8.2936547e-01   2.4539424e-01  -6.0990226e-01   6.8563968e-02   8.0316579e-01  -2.8015017e-01  -9.7942305e-01   2.6526874e-01   3.7576413e-02   7.0177407e-02   3.9386018e-01   6.1717964e-01  -5.0129451e-01  -4.7295349e-01  -5.7818968e-01  -5.1111211e-01   1.6257985e-01  -3.9433998e-01   6.3331682e-01   9.0788525e-01  -9.2036676e-01   1.7603729e-01   8.4675868e-02  -9.6939737e-01  -3.4099065e-01  -3.1374556e-01   3.8794056e-01   7.4461972e-01  -2.3960409e-01   6.9608125e-01  -1.1145781e-01   2.7947780e-01   7.4423184e-01   2.1014865e-01   7.7230448e-01   4.5675797e-01   1.0928435e-01   7.2821432e-02   8.0837006e-01  -3.4316202e-01   1.2322382e-01  -7.1351513e-01  -6.1862791e-01   7.1282154e-01  -1.9292851e-01   3.2915211e-01   1.1842368e-01   4.4458592e-02  -6.2352038e-01  -7.6385955e-01  -1.5590179e-01  -9.3144596e-01  -7.7883734e-01   5.0981397e-01   9.6322825e-01   5.5618526e-01   1.1901532e-01   1.4990902e-01  -5.0354455e-01  -4.6452000e-01  -9.9961788e-01   8.8841174e-01  -6.7272273e-02   5.9027095e-01   5.9471500e-01  -2.1833271e-01  -9.1434997e-01  -8.0122590e-01  -5.3764448e-01  -7.9882224e-01   4.8818803e-01  -4.0711730e-01  -7.8318271e-01  -6.4108725e-01  -8.6238332e-01   7.1560712e-01  -7.9896469e-01   4.5598003e-01  -6.9114546e-01  -6.8518826e-01  -6.9857224e-01   6.4253472e-01  -1.7323505e-01   1.9777326e-01   8.1746821e-01   6.1746161e-01  -2.7377383e-01  -8.7027232e-01  -5.0480395e-01  -3.4120435e-01   8.6163536e-01   7.4402714e-01  -5.4508568e-01  -2.1183134e-01  -9.4572668e-01  -1.7967700e-01   5.7572827e-01  -4.9743732e-01   8.2681189e-01  -1.3310182e-01  -3.5561061e-01   2.3464716e-01   9.9190864e-01   3.1450575e-01   7.7008829e-01   4.2872078e-01  -9.3816754e-01   9.0966683e-01  -9.0302836e-01  -9.8637471e-01   4.1074915e-02  -5.1837043e-01  -6.9726831e-02   8.9829725e-01  -5.0207249e-01   4.9263284e-01  -6.1566317e-01  -1.8127837e-02  -8.3505236e-01  -6.3068367e-01  -8.9214867e-01  -2.5230678e-01  -8.3631581e-01   3.6780701e-02  -2.1038247e-01   7.6110848e-01   1.6673637e-01
   2.7665270e-01   6.2179471e-01  -6.3372079e-01  -1.0315917e-01  -1.6270069e-01  -8.4246956e-02  -2.3653788e-01   8.8512245e-01   4.5720297e-01  -6.4024636e-01  -9.1699755e-01   2.9277839e-01  -7.3681514e-01   4.0258296e-01   2.2211547e-01   3.4767285e-01   7.4649974e-02   8.2037483e-01  -6.1345312e-01  -8.2378665e-01   5.9092950e-01   5.3001031e-01   8.1975397e-01   6.5671844e-02  -4.7871361e-01   5.6977700e-01  -9.5755178e-01  -4.2546713e-01   6.3451938e-01  -7.4298101e-01   6.9251707e-01   7.5680074e-01   1.5373048e-02  -9.5413047e-01   5.3824206e-01   8.4898404e-01   1.0939396e-01  -5.1405548e-02   1.5688440e-01   2.1442548e-01   6.7423517e-03  -6.4093970e-01   1.0096269e-01  -6.4044618e-02  -8.4179982e-01   4.0683296e-01  -3.3655686e-01  -2.4551641e-01   5.4103169e-01  -6.4133348e-01   2.7850766e-01  -3.7051108e-01   2.4378301e-01   3.8785608e-01   1.0870341e-01   4.9205599e-01  -5.1334281e-01   7.5475870e-01   2.1998223e-01   7.5182158e-01   6.5992410e-01  -6.3176176e-03  -8.6444312e-01   7.4168941e-01   9.6721898e-01  -4.7861132e-01  -2.1601921e-01  -5.4565382e-01  -4.9460426e-01  -4.1673424e-01   2.3475480e-01  -9.2572550e-01  -4.6818568e-01   8.3006708e-01  -6.0381813e-01   4.5416480e-01  -5.5309245e-01   8.9145527e-01   1.1893938e-01   4.1526496e-01  -1.3418127e-01   3.3485952e-01  -3.4418658e-01  -7.3249918e-01   9.6328600e-02   7.9809719e-02   1.7654835e-01  -9.7507610e-01  -3.0666982e-01  -8.9760587e-01  -5.8421453e-01  -6.3511671e-01  -4.9557251e-03   5.2166494e-01   4.4503618e-02   2.6560050e-01   2.7290613e-03  -4.2238020e-02   7.0347351e-02   8.3730254e-01  -2.8691970e-01   9.9407816e-01  -4.6917624e-01  -4.5880993e-01   4.2598794e-01  -2.4586578e-01   9.2331569e-01   9.9541578e-01  -4.1626250e-01   7.8183306e-01   5.7554966e-01  -2.3565257e-02  -9.3863796e-01  -2.8729925e-01   1.8849854e-01   1.9527938e-01   2.1104978e-01   9.6618796e-02  -3.5707848e-01  -4.1567172e-01   2.7626399e-01  -7.0052813e-01   1.4698273e-01  -3.9791489e-01   4.6929404e-01   3.8063452e-01  -3.8770880e-01  -3.0149490e-01  -8.0407584e-01  -5.6196112e-01   9.9043761e-02  -8.0863471e-01   7.2880841e-01   3.3670850e-01  -8.8438317e-01   7.1653424e-01   9.9539216e-01  -1.7932692e-01   2.6952179e-01  -5.4696457e-01   7.0106393e-01   4.7050870e-01   8.6000559e-01   7.0297984e-01   6.4018234e-01  -7.0016273e-01  -6.1994392e-01  -8.1320108e-01   5.7311739e-02   3.1681780e-01  -3.4135879e-01  -1.7385769e-01   6.0253646e-01   5.3996291e-01   3.3868112e-01  -6.0057638e-01   4.5111834e-01   3.0789170e-01   2.6523003e-01  -2.7218721e-01   7.0903666e-01  -8.9311016e-01  -5.1417714e-01  -5.8686014e-01   5.8052183e-01   4.2618666e-01   4.0239269e-01  -7.6855471e-01  -8.9802962e-01  -5.2150015e-01   7.6293918e-02  -6.1886379e-01   2.2472058e-01   9.0966770e-01  -5.0468955e-01  -6.3690402e-01  -3.6554443e-01  -6.2107070e-01   4.5388260e-01  -3.1469613e-01   9.7777682e-01  -1.6277945e-01  -4.5034958e-01  -8.0275980e-01   1.9798048e-02  -8.4883533e-01   8.7442883e-01   3.9673055e-03   3.1544583e-01  -6.2366829e-02   9.6540213e-01   2.5951599e-01   2.0497870e-01  -6.9566530e-01   8.5051484e-01   1.3944541e-01   9.1313706e-01   5.5929251e-01  -5.4567223e-01  -6.0384231e-01   1.7217688e-01  -8.2967606e-01  -8.1823348e-01  -8.4139114e-01   2.0989810e-01  -5.4302348e-02  -8.7043704e-01   4.8343171e-01   1.0719422e-01  -8.2168716e-02   8.9417288e-01   6.3002110e-01  -2.3963443e-01   4.0987670e-01   8.1451966e-01   6.3341261e-01  -4.1665047e-01   9.2441990e-02   2.7045586e-01  -8.5695187e-02  -5.8072907e-01   4.2231267e-01  -5.2375400e-01   7.3663717e-01   9.0848898e-01   5.7008255e-01  -9.6523038e-01  -4.9443966e-01  -5.0312269e-01   3.8389698e-01   7.7104482e-01  -5.4424529e-01   9.3905450e-01  -2.1090646e-01  -4.3148439e-01  -8.6349469e-01  -6.5321519e-01   1.7213999e-01   9.7967464e-01   1.7168544e-01   6.3841886e-01   9.6060308e-01   8.3293809e-01   7.8904233e-01  -6.7954498e-01  -1.9851036e-02   8.6914141e-01  -2.6117756e-01  -4.0621844e-01   4.4923168e-01  -3.4095351e-01  -9.6892411e-01   6.6286393e-01   6.8789782e-01  -8.0394379e-01   7.5072558e-01  -8.3567183e-01   3.0749398e-01   9.4800362e-01  -1.0164268e-01  -9.2451860e-01  -8.3619655e-01  -1.6119333e-01   2.1733282e-02   1.6917312e-02   3.1638426e-01  -6.7572181e-01  -1.5940598e-02   7.0813842e-03   7.9931469e-01  -8.6591592e-01  -7.5399083e-01   5.8177868e-01  -9.4325036e-02   6.6096012e-01   4.8850964e-01  -1.1782891e-01  -4.8373380e-01  -8.6252357e-01  -7.3054200e-01   2.3856271e-01   9.5469889e-01   4.4653605e-01  -5.3659120e-01   5.4269259e-01  -4.6644279e-01   7.2193350e-01   6.9233141e-01   3.1134774e-01  -1.0691732e-01  -3.4573143e-01  -1.6423840e-01   7.0039986e-01  -1.7497607e-01  -9.6524494e-01  -8.5089171e-01   2.7245064e-01   8.8321535e-01   9.4709879e-01   2.0909869e-01   2.6174531e-01   2.3472501e-01   5.3866934e-01  -3.9793084e-01   9.0180663e-01   5.4731961e-01   2.6022401e-01   9.3049283e-02  -3.4153649e-01  -2.9857781e-01  -3.2287614e-01  -4.1343649e-02   2.9789611e-01   9.0075050e-01  -7.7588190e-02   6.8594876e-01   7.9329788e-02  -5.2346054e-01  -2.0278541e-01  -5.1461639e-01  -4.2141834e-01  -9.6548325e-01  -2.1109721e-01  -1.5465210e-01   7.5562409e-01   2.8649358e-01   4.9395171e-01   4.3076135e-02   9.3894264e-01   7.4409040e-01   8.8086768e-01  -2.9510335e-01  -7.5166251e-01   2.3919716e-01  -2.8434249e-01  -8.2586268e-01  -6.6024539e-02  -2.9282238e-01   6.4765556e-01   6.8974350e-01  -7.4033560e-01   4.6408808e-01   1.5694923e-01   5.6681230e-01   4.5904161e-01   3.7488194e-01  -8.4733145e-01   5.7625937e-01  -1.4764443e-01  -6.4471297e-01   2.0325407e-01   4.8955066e-02   3.4127084e-02   2.3674753e-01  -6.9558202e-01  -6.6401936e-01   4.8204491e-01   1.8976801e-02   4.3278720e-01  -7.0880018e-01  -2.2945970e-01  -9.9010435e-01   4.3343055e-01  -8.2138486e-01  -9.8421030e-02  -7.6684534e-01  -5.6675997e-01  -6.8054173e-01  -9.1736048e-01  -6.2601157e-01   3.4427514e-01   8.1486899e-01  -9.4164814e-02  -5.4669243e-01   1.8790440e-01   9.3046237e-01  -5.4775440e-01   1.4337618e-01   4.1628827e-01   5.7710264e-01  -9.7863529e-01   3.6668626e-01  -8.9806580e-01   2.4773452e-01  -8.2519441e-01  -4.8965563e-01  -8.5065651e-01  -7.7952858e-03  -6.6376008e-01  -1.0155118e-01  -7.9903716e-01   6.9986960e-01   9.2290733e-01   2.0211806e-01   3.9747939e-01  -2.0931344e-01  -1.1089723e-01   7.6884020e-01   6.3572911e-01   8.7297071e-01   9.1864968e-03  -5.3979527e-01   6.0618096e-01   2.1875208e-01  -6.9759564e-01   4.5754802e-01   5.2452557e-01   1.9882815e-01   2.9867404e-01   3.4435618e-01  -6.2592659e-02  -9.3150760e-01   6.6608077e-01  -7.0092673e-01  -4.1735612e-01   8.0447443e-01   6.4440210e-01  -3.0924110e-01   5.7096742e-01  -7.8760899e-01  -2.9809965e-01  -3.2595791e-02   9.1185109e-01   5.7465237e-01  -7.5262371e-01   2.9287657e-01  -6.4161783e-01   7.6829634e-01   8.5225881e-01  -4.9207467e-01   8.3275148e-01  -6.2198698e-01   3.2355086e-01  -9.1127119e-01  -3.1217866e-01   7.6828599e-02   5.6287233e-01   3.7962676e-01  -4.0891750e-01  -9.4958565e-01  -1.2766151e-01   1.6537745e-01  -7.3095572e-01   3.0607591e-01   3.8490402e-01  -1.8949405e-01  -2.5237576e-01  -4.3769542e-01   1.7275157e-01   3.3604044e-01  -8.4511390e-01   7.4265266e-01   5.8950961e-01   9.8795230e-01   6.2422377e-01  -9.6436051e-01   9.3029040e-01  -6.5709850e-01   1.7053533e-01  -6.7601802e-01  -6.5241529e-01  -4.7498843e-01   4.1014551e-01  -3.5074085e-01  -7.6419953e-01  -8.9157168e-01   4.5116416e-01   1.6555077e-01  -3.9287961e-01   2.8844519e-02   1.1443123e-01  -2.9411327e-01   4.3885740e-01   7.3904598e-01   6.1242039e-01  -4.1344486e-01   6.8783932e-01   8.2576247e-01  -7.4210348e-01  -2.4389834e-01   9.8353411e-01   3.9908822e-01   5.1910400e-01  -9.5708063e-01  -4.4722600e-01   7.2134112e-01  -6.4510663e-01  -8.6033944e-01   5.0230804e-01  -7.8784005e-01   8.4292070e-01   9.0116445e-01  -3.1866193e-01  -8.1129905e-02   1.1243526e-01  -4.1402786e-01  -7.7623115e-01   1.0788273e-01   9.7435090e-01  -1.3704584e-01   9.4731201e-01  -7.6006962e-01  -7.4886078e-01   3.8550134e-01   5.4595867e-01   1.5160949e-01   4.7329007e-01   9.9434065e-01   2.1150975e-01   5.6407055e-02  -9.1367646e-01  -8.8317283e-01  -5.0105018e-01   1.6516590e-01  -5.9517584e-01   2.6414202e-01  -7.3361852e-01  -7.5844964e-01  -6.8580894e-01  -3.9372190e-01   2.3602110e-01  -8.2908246e-01  -8.7497959e-01   4.6443208e-02   7.3143862e-01   5.2261118e-01   1.9250265e-01   2.2593805e-02   1.1737697e-01  -9.1503149e-02   3.5362800e-01  -9.9345175e-02   4.0185593e-01  -9.8015480e-01   5.1749337e-01  -6.0432972e-01  -1.3565083e-01  -3.4823503e-01   7.9173027e-01   5.4002485e-01   4.9089658e-01  -7.5078116e-01  -5.8900511e-01   3.5901392e-01  -9.9215795e-01  -6.6788738e-01   7.9104354e-02   3.6068401e-01   4.6931239e-01   9.1381062e-01   1.2513649e-01   6.8731399e-01  -2.2553148e-01   5.1606525e-01   7.2890827e-01  -3.1643905e-01  -1.3950332e-01   1.2940091e-01   9.7596850e-01   4.6869166e-01   9.7553957e-01   7.3588538e-01   1.4432928e-01   9.7060272e-01  -1.2940900e-01  -4.1764025e-01   8.3811784e-01  -5.2512847e-01  -1.5590486e-01  -3.8086324e-01  -1.5453405e-01   6.2358006e-01   7.3812536e-01  -1.4555993e-01   4.4622650e-01  -8.2263775e-01   1.3372528e-01  -5.6261567e-01  -3.5749382e-01   4.6035972e-01  -7.3641148e-01  -5.7809925e-01   4.5086551e-01  -1.8793673e-02   4.9270922e-01  -7.6911690e-01   9.4804330e-01   1.9108126e-01   7.5692210e-02  -6.5094435e-01   8.6753865e-01   6.2103063e-01   7.1237884e-01   4.9691000e-01   7.1827306e-01  -8.3446433e-01   2.0559044e-01   4.6031926e-01  -2.6549481e-01  -3.3902733e-01  -1.2516407e-01  -8.1502307e-01  -7.1571181e-01  -5.8287734e-01  -3.6878853e-01   8.3688629e-01   7.9839074e-01   7.6740373e-01  -1.3719325e-01   7.6049910e-01  -5.7697017e-01  -4.4217220e-02  -2.2320756e-01   4.7501788e-01  -6.6543760e-01   7.0312554e-01   4.2651247e-01   1.1737488e-01   6.9215944e-01   9.2188604e-01   5.1455906e-01   7.2596540e-01  -4.1839353e-01  -3.1866509e-01  -1.0745450e-01  -5.6082244e-01   9.5974942e-01   9.3546113e-01  -6.2982647e-01   5.6029997e-03   7.9207687e-01  -6.0402012e-01  -8.1794073e-01  -2.5466925e-03   5.5232348e-01  -2.4099663e-01  -4.0244759e-01  -8.1686159e-01   6.1617347e-01  -2.9735768e-01   2.3928341e-01  -1.9815889e-01   2.2633427e-03  -2.8587898e-01   7.5963133e-01   9.7716501e-01  -6.3280834e-01  -1.6553240e-01  -6.3490196e-01   3.6351324e-02   7.7554925e-01   4.9441734e-01   3.3831960e-01  -5.1941219e-01  -6.6357721e-01   9.8078533e-01   4.4821167e-01  -7.7777889e-01   1.7123885e-01   1.3193229e-01  -9.3493461e-01   1.2737290e-01   1.2258994e-01   4.6930898e-01   1.6540381e-01  -6.3953635e-01  -9.7927337e-01   4.9360977e-01  -8.4055164e-01  -2.7432893e-01  -4.9318649e-01   2.0709412e-01   7.5070809e-01  -1.7698164e-01  -8.3098804e-01   2.7798672e-01   3.3298112e-01   1.3759059e-03   2.8531637e-01   2.5657822e-01  -6.5377438e-01   6.5019727e-01   4.6220961e-01  -3.2418302e-01   4.0091648e-01  -5.5467969e-01  -7.1782153e-01   1.4195497e-01  -3.4127160e-02  -6.2551442e-01   9.8751243e-01   7.4543725e-01  -9.2315109e-02   7.1655492e-01   1.0046788e-01  -6.1049262e-01   6.9320803e-01   2.7408688e-01  -6.9386042e-01  -7.8730461e-01  -5.2330944e-01  -5.5435169e-01   1.2252566e-01   4.7395086e-01   8.3640287e-02   1.8813693e-01   2.3420619e-02  -1.8721318e-01   7.0676714e-02  -4.5844839e-01  -3.8461837e-01   9.1511688e-01  -5.2518404e-03  -7.1863226e-01  -6.6507679e-01   6.9874272e-01   4.9715504e-02   9.1155259e-01  -8.7958650e-02  -2.0035579e-01   8.4149953e-01  -3.6508929e-01  -1.3295229e-01  -3.4881385e-02   2.9715099e-01  -6.6665043e-01   7.8227425e-01  -8.7111765e-01   3.9276272e-01  -3.6007813e-01  -9.3112076e-02  -7.6468236e-01   6.9985267e-01  -8.3938772e-01  -9.2382887e-01   2.0722379e-01   5.1155099e-01  -3.4757182e-01  -9.3613756e-01   9.2334157e-02  -2.4827865e-01   4.6873930e-01  -9.2745254e-01   3.9790860e-01   1.5304633e-01   1.1840123e-01  -9.4837941e-01   2.2435479e-02   2.8646798e-01  -8.5926223e-01  -3.6251236e-01  -3.8693273e-01  -6.8128512e-02  -6.7373206e-01  -8.0648998e-01   3.6413903e-01   4.3138298e-01   2.4201973e-01   2.5670227e-01   2.2115951e-01   4.3457035e-01  -7.1937095e-01   4.9938652e-01   8.2168145e-01  -6.2618847e-02  -8.9507021e-01   8.6104725e-01   1.2692475e-01  -8.9421000e-01  -7.6116947e-01  -8.9430897e-01  -3.8294795e-01   9.5436616e-01   3.2638252e-01  -5.1355011e-02   9.2475712e-01  -2.8412647e-01  -3.7201095e-01   2.3372078e-01  -8.8476018e-02  -4.6457663e-01  -5.5537309e-01   6.9450122e-01   3.0636268e-02  -7.7502424e-01  -6.0495138e-02   7.3352150e-01   5.2495787e-01   9.0509606e-01  -6.9593309e-01  -3.4165677e-01   6.5912268e-01   4.9478157e-01   6.5157431e-01  -6.7376683e-01  -3.6100630e-01  -4.2541941e-01  -4.9198158e-01  -5.4321117e-01  -1.5243797e-01  -6.5090097e-01  -9.7289661e-01   4.3345602e-02   3.9320176e-01   7.7235456e-01  -6.7522049e-01  -3.8060605e-01   3.6005928e-02   8.0709718e-01   1.3963481e-01  -5.2788485e-01   6.0500460e-01   6.3990873e-01  -7.1962101e-01   7.8889010e-01  -4.0058156e-01  -6.1405738e-01  -3.6713037e-01  -1.1417255e-01  -4.1197270e-01  -6.8991898e-01   4.2316819e-01   6.7919342e-01  -1.6620080e-01   8.7759346e-01  -8.9744190e-02   5.6015365e-01  -5.0770644e-01  -2.5151139e-01  -2.2490087e-01  -1.0482788e-01   9.4530084e-01  -3.0509494e-01   9.7910736e-01  -9.2361975e-01   3.2306670e-01  -3.7007165e-01  -8.2543865e-01  -1.8601730e-01  -1.9156696e-01   5.8854786e-01  -2.2106737e-01  -9.0433791e-01  -3.1227632e-01   6.2053738e-01  -5.8402453e-01  -6.7709988e-01   6.8128463e-01   5.5203896e-02   4.2483824e-01   3.5831855e-01  -4.9701336e-02  -6.1642856e-01  -9.9413472e-01   8.6978468e-01   3.2766750e-01   6.3476896e-01  -4.0618946e-01  -8.5513316e-01   6.3638775e-01   4.8427231e-01  -1.5984554e-01   2.6381196e-01  -5.3921126e-01   3.9232901e-01  -4.6155604e-01   1.7369489e-01   8.8979607e-01  -4.9782103e-02  -8.9181857e-02  -2.6244975e-01   6.3800114e-01   1.8666217e-01  -1.7684022e-02  -7.0113548e-01  -1.2827412e-01   8.0874897e-01  -3.1552679e-01   9.5432261e-01  -2.9646137e-01   9.2529898e-01   8.8135241e-01   4.7838564e-01  -3.4602230e-01  -9.1972385e-01   1.6520658e-01   7.2075958e-01  -2.3392381e-02  -9.1886357e-01   4.4875575e-01  -5.9358812e-01  -5.5439592e-01   3.3470756e-01   1.6812236e-01   4.1936008e-01  -8.8552867e-02  -4.7620405e-01  -6.8917624e-01  -4.1533803e-01   5.1826108e-02  -7.1717915e-01   3.4783063e-01   7.6457772e-01  -7.9432700e-01   1.6437335e-01  -3.1057569e-01  -9.9579830e-01   7.8074103e-01   2.3523984e-01  -7.1471738e-01  -2.5050051e-01   4.8297541e-01  -4.0340913e-02   5.4463797e-01  -7.1795608e-02  -3.5810427e-01  -4.7938506e-01  -5.1399077e-01   8.8396796e-01  -4.1938500e-01  -6.3522251e-01  -6.4722578e-01   3.0412299e-02   5.1533737e-01  -5.8596591e-01   1.8750321e-01  -2.8443476e-01   4.8829431e-01  -7.2592303e-01  -8.1761176e-01   4.0837239e-01   7.4304323e-01   5.8103677e-01  -1.5611176e-01   4.3897078e-01  -4.9358310e-01  -3.2709996e-02   6.7046363e-01   4.7242459e-01  -2.4748416e-01  -7.9873238e-02  -4.8359729e-02  -7.3299207e-02  -9.6340941e-02  -8.9229078e-02   5.2184463e-01   5.7457615e-01  -8.7100102e-01  -7.7247257e-01  -8.8147897e-01  -3.5727085e-01  -9.3204827e-01  -6.2730968e-01   9.4430343e-01  -4.9815146e-01  -8.5583823e-01  -2.5008853e-01  -8.7545539e-01   4.9525502e-01   5.1183409e-01   3.2363052e-01   5.7798865e-01  -9.1113815e-01   2.6919921e-01  -6.5695350e-01  -9.0564471e-01  -6.4019612e-01  -7.5006210e-01   6.3935223e-01   8.3994894e-01  -5.1838664e-01  -2.7720983e-01  -1.4276557e-01   1.8588168e-01  -1.4845967e-01   6.4846386e-02  -6.1579089e-01   2.2381080e-01  -1.9847171e-01  -9.4972623e-01   6.5970608e-01  -2.9140313e-01   3.1074240e-02   5.0680222e-01  -8.1100137e-01   5.6359055e-01   5.3686602e-01  -9.7126933e-01   8.3141546e-01  -3.8905981e-01   1.9460127e-01   6.6098448e-01   4.8047818e-01   8.7629312e-01  -1.6824237e-01  -2.2007877e-01  -3.3865642e-01   8.4554912e-01   7.7870092e-01   7.0510256e-02
  -3.1213210e-01   7.9953923e-01   4.8212028e-01  -3.3023666e-01  -4.9595454e-02  -9.8684361e-01   7.1922099e-01   7.6407136e-01  -2.3081150e-01  -8.6754843e-01   5.0904350e-02   7.4272798e-01   1.3225401e-01   1.3260137e-01  -6.3445852e-01   6.9466102e-01  -1.5450822e-01  -4.9544533e-02  -2.7146145e-02   6.3443264e-01  -6.7207339e-02   3.1140258e-01   8.6125408e-01  -7.1003689e-02   4.3932228e-01  -5.3195288e-01   6.2726147e-01  -1.4405915e-04   5.4857444e-02   3.9206684e-01  -6.6203488e-01  -8.4523517e-02   3.9289631e-02   1.5842807e-01  -5.7775163e-01  -9.3832209e-01   2.6555972e-03   8.0120949e-01  -9.0715089e-01  -6.1946800e-01   1.5327730e-01  -8.5582594e-02  -8.5789277e-01   6.9443635e-01  -6.9203169e-01   4.3588865e-01   7.8935070e-01  -1.0866313e-01   3.3660617e-01  -1.0480805e-01   4.4144302e-01   9.5131927e-01  -8.3681413e-01  -7.2793605e-01  -1.3457065e-01   4.9616238e-01   9.0774487e-02   3.8148763e-01  -4.3105493e-01  -4.2837709e-01   7.2553599e-01  -4.2832657e-01  -3.7724888e-01   5.0808154e-01  -4.0182211e-01  -7.4555638e-01  -7.8114247e-01  -1.2158911e-01   8.5478533e-01  -6.2732260e-01   1.9017247e-01   2.8893458e-01  -4.9070680e-01  -7.1121071e-01   9.6645013e-01   8.9750876e-01  -6.0791000e-01   1.6543641e-02   1.7038608e-01  -8.8524381e-02  -2.2525277e-01   4.1587607e-01  -8.7135908e-01   9.1346701e-01  -9.3007916e-01   5.7837576e-01  -6.6916380e-01  -2.4330398e-01  -5.2383606e-02  -2.0675363e-01  -2.9505851e-01   3.1169702e-01  -7.6787000e-01  -6.4412120e-02   8.1309027e-02  -3.3717358e-01  -5.4647427e-01   3.4399836e-01   4.9467896e-01  -9.0279323e-01  -3.4359199e-01  -8.4085910e-01   2.0984276e-01  -3.5596668e-01  -2.9192519e-01   4.7516772e-01  -6.7573741e-01  -4.0929840e-01   3.8657041e-01   8.8720969e-01   9.8884282e-01   8.5468874e-01  -9.2871789e-01  -2.6310128e-01   1.7504526e-01   2.6902996e-01  -3.7991321e-01   3.2132582e-02   5.5219654e-01  -4.4832290e-02  -1.5488052e-02   5.6974173e-01   4.6408926e-01   5.0585227e-01  -8.7717201e-01   5.7570645e-01  -7.8052251e-01   4.2786296e-01   5.4822506e-01  -5.3972391e-01  -2.8134744e-01   3.6071295e-01  -4.9124117e-01   1.4550418e-01   2.8985162e-01  -4.2122050e-01  -4.5725880e-01   6.9551094e-02  -1.3589630e-01   9.7018382e-01  -1.7298660e-01  -1.1308889e-01  -1.5276264e-01  -4.7406465e-01  -4.5406470e-01   6.3790732e-01   1.8419181e-01   6.6076981e-01  -6.3160654e-01   1.8069485e-01  -7.3062082e-01   1.2734840e-01   9.5364497e-02   1.1752761e-01   1.9587364e-02   3.6881759e-01  -8.0933198e-01   4.2413286e-01   2.0066635e-01   8.0976238e-01  -5.0891073e-02  -2.9383048e-01  -6.0521576e-01  -8.3790021e-01   3.6884522e-01   2.4874505e-01  -1.2305750e-01   6.6536440e-01   4.5561471e-01  -2.6832329e-01  -9.1488326e-01  -2.7598802e-01   7.7283081e-01   1.3464781e-01   5.8931086e-01  -4.6633562e-01   9.5437096e-01   4.9338895e-02  -2.0595014e-01  -8.6661522e-01  -4.4251860e-01   4.6156649e-01   2.9160514e-02   4.8658815e-01   2.9820389e-01   5.7291614e-01   1.6242816e-01   3.4218303e-01   9.6099102e-01  -1.0579667e-01   9.0965447e-01   3.6993795e-01  -8.3240043e-01  -4.4941944e-01  -2.3841208e-01  -4.9309252e-01  -5.0926761e-01   8.9802084e-01  -8.1370846e-01  -7.4247907e-01   4.0561186e-01   9.4738865e-01   2.7806964e-01   6.8929044e-01   7.8800615e-01  -3.3521877e-01   7.1243570e-01   7.3753056e-01   8.1610702e-01   9.3533795e-01   4.1642944e-01   4.7808478e-01  -2.1413621e-01  -3.7224375e-01   2.7434345e-01  -9.0366680e-03   2.6223726e-01  -6.7046157e-01   8.3015266e-01  -1.1260936e-01  -5.7930911e-01  -2.9203761e-01  -9.9641004e-01  -5.4088887e-01   4.6109504e-01  -2.6348648e-01  -9.3880969e-03   9.7487723e-01  -2.7246299e-01   4.7917982e-01  -7.0245045e-01   4.7093895e-02  -4.1108589e-01  -3.6707747e-01  -1.5034480e-01  -5.8261587e-02  -6.9013649e-01   4.3389679e-01  -9.2791553e-01   6.1783828e-01  -8.4480579e-01   5.9307770e-01  -1.2877808e-02   8.0743405e-01  -8.0322522e-01   5.0659142e-01   1.1031076e-02   3.0526425e-01   2.7273437e-01   4.0197067e-01   2.8423585e-01   4.4785859e-01   4.7127030e-01   1.2352638e-01   5.5079525e-01  -9.7183421e-01   9.0215148e-01  -4.3851072e-02  -9.7898234e-01  -5.3346167e-01   6.6550286e-01  -5.3721464e-01  -3.8242386e-01  -4.2594720e-01  -7.9796106e-01  -8.5634882e-01   4.8911115e-01  -7.6208273e-01  -5.3554578e-02  -8.1074079e-01  -8.2211094e-01  -1.3809091e-01  -2.5466908e-02  -7.6303775e-01   5.0965565e-01  -4.2677745e-01  -6.5446594e-01  -9.8896244e-01  -2.5824041e-01  -8.1136156e-01  -7.0516704e-02  -2.7789508e-01  -5.2025461e-01  -9.9177186e-01  -8.0063442e-01  -7.6458134e-01  -2.7114024e-01  -1.7217820e-01  -5.9796659e-01  -3.3616997e-01  -8.7969658e-01   2.3987503e-01  -5.1579969e-01  -8.7190363e-01  -3.3359080e-01   3.0067460e-01  -4.4132056e-01  -1.2311133e-01  -7.8733020e-01   5.5584606e-02  -7.3486617e-01  -5.4920249e-01  -6.9036507e-01  -9.4710877e-01  -1.2905468e-01  -6.4316296e-01  -5.9359334e-01  -7.8722408e-01  -3.1650151e-01   9.3019821e-01  -2.8351377e-01  -2.3776043e-01   2.7515551e-01  -4.0456007e-02   8.7607092e-02  -6.4174923e-02  -6.2979340e-01   6.2259453e-01  -1.9148340e-01   1.1070273e-01   6.1997338e-01  -1.9639866e-01  -6.6205152e-01   3.7069227e-01   4.7627284e-01   7.9463510e-01   2.9641427e-01  -7.6199687e-01  -5.9721837e-01  -7.2948356e-01  -1.7627790e-01   5.9525109e-01  -6.3550517e-01   9.9465901e-01  -9.5732095e-02  -3.0020745e-01   4.0928544e-01  -9.5347606e-01   6.4313736e-01  -8.5868356e-01  -2.8872654e-01  -2.3581048e-01  -6.0455038e-01  -6.8128338e-01  -2.0235581e-01  -3.6802643e-01  -9.4002893e-03   3.2942136e-01  -8.8961339e-01   2.7817181e-01  -2.5750057e-01  -6.6779305e-01   6.0207705e-01  -4.6563840e-01   9.4876336e-01  -2.8889081e-01   6.9235004e-01   6.5452022e-02  -5.9417903e-01   9.9682447e-01   8.8761333e-01  -6.7813081e-01  -1.5768019e-01   8.6939087e-01   3.1357436e-01   4.2102209e-01   2.8681042e-01  -9.6363911e-01  -4.4444806e-01   8.4697043e-01   5.1098787e-01   3.7731603e-01  -6.5613865e-01  -6.5175422e-01   4.4841753e-01  -2.6404789e-01  -9.9979955e-01   2.5867903e-01  -5.9377962e-01  -9.6929063e-01  -4.2708256e-01   8.8974244e-01   3.0162039e-01  -3.2386859e-01  -2.8730842e-01   3.8923795e-01   4.4830269e-02   7.9272484e-01  -4.3176959e-01  -7.3934792e-01   7.5879114e-02  -2.8324930e-01   8.8945165e-01  -6.8975832e-01   7.4466142e-01  -3.8809858e-01  -9.9924963e-01  -2.6706630e-01  -4.8286043e-01   2.6003872e-01  -5.0507849e-01  -6.3032731e-01   6.7431616e-01   9.8689045e-01   2.8093089e-01  -4.9360432e-01   3.6022355e-01   8.4928831e-01  -5.3028463e-01   9.6152706e-01   4.0765654e-01  -1.0117720e-01  -1.1910093e-01   9.4566114e-01   4.0489555e-01   8.5143178e-01  -3.5783106e-01   7.5159248e-01   1.3665622e-01   5.1161055e-01   6.5346073e-01   5.4531474e-01   3.6445948e-01  -9.1755380e-02  -9.8193083e-01  -5.0757466e-01  -6.5671532e-01  -8.1820018e-01   6.0833138e-01  -4.4007249e-01  -3.8514736e-01   2.6254056e-01  -7.7262481e-01   2.8322635e-01  -9.0487207e-01  -7.3102652e-01  -7.0085671e-01   4.7205697e-01   5.2274241e-01  -4.0397129e-01  -4.5129691e-01   1.4480953e-01   5.2055656e-01   7.3165230e-01  -7.7277258e-01   6.2434466e-01   1.3871048e-01   1.9392985e-01   3.8734723e-01   6.6449031e-01  -4.7347305e-01   2.3365541e-01  -1.0635659e-02   9.6756148e-01  -1.0373841e-01  -5.0881168e-01  -5.3161179e-01  -3.6923407e-01  -5.7096126e-01  -8.8789088e-01  -4.5864358e-01  -5.8749528e-01   7.3594381e-01   6.2545437e-01  -8.6403916e-01   8.6804883e-01  -6.6433900e-01  -8.2518669e-03  -2.1948406e-01  -9.4420546e-01   5.1244625e-01  -4.5491869e-02  -5.9765235e-01   1.0571796e-01   9.3695360e-01   9.2837771e-01   8.8792837e-01   1.5778007e-01  -8.2510222e-01  -9.1087740e-01   7.9141910e-01   5.5819678e-01   3.9748952e-01  -7.7610134e-01  -5.2365269e-01  -1.9173326e-02  -7.2911072e-01  -5.0305841e-01  -5.1351815e-01   7.4311743e-01  -8.2867667e-01  -3.6690182e-01  -2.1777217e-01   2.1499244e-01  -4.0687168e-01  -6.1916923e-01   4.9194989e-01  -1.6545137e-01   1.3648215e-01  -7.8396751e-02   3.7734515e-01   6.8213625e-01   7.9518240e-02  -2.9224735e-01   6.7540871e-01  -4.3098984e-03   9.1341891e-01   7.3063346e-01   4.6815266e-01  -2.0846767e-01   9.2820297e-01   2.3874711e-01  -2.3470440e-01  -2.2287669e-01  -3.7784998e-01  -1.8027898e-02  -7.9478777e-01  -3.3680182e-02   6.9095879e-01   4.1192235e-02  -4.5690657e-01  -4.7236523e-01   3.5641470e-01   8.8858468e-01  -4.0737187e-01  -9.7523016e-01   1.1920567e-01  -5.3602493e-01   7.1516609e-01   7.1668866e-01  -9.3418923e-02   2.2941078e-01   4.9870839e-01  -8.8539216e-01   8.6591704e-01  -1.1020645e-01  -2.3790620e-01  -2.0787486e-01   7.6277218e-01   9.3461559e-02   4.5954379e-01  -3.1506083e-01  -3.4253889e-01   6.6175459e-01   3.6702114e-01   5.6824592e-01   4.6005005e-01  -6.7051585e-01   7.0492255e-01  -2.1612799e-02  -8.1518511e-01  -6.4178492e-02  -6.6757833e-02  -6.4079795e-02   8.7915178e-01   1.7558430e-01   2.8602615e-01  -9.4570932e-01  -6.9384326e-01   5.8168761e-01  -8.5359207e-01  -9.0959642e-02  -3.1759892e-02   5.2963042e-01  -7.3939930e-01   7.9262398e-01   8.4686699e-01   1.6811258e-01  -2.9672813e-01  -8.1083164e-01   8.2395243e-01   2.2159657e-01   7.6421736e-01   2.1255264e-01  -3.6840888e-01  -8.7917458e-01  -5.1294563e-01  -6.3008841e-01  -8.6942148e-01  -9.7511435e-01   2.2350903e-02   2.1550830e-01   6.3328896e-01   5.3521136e-01   2.1442705e-01  -6.0426961e-02  -9.6268840e-02   6.2795932e-01  -8.1314677e-01   2.4233015e-01  -5.0854202e-01  -1.1312775e-01   5.0883906e-01   8.4043047e-01  -5.8995412e-01  -4.7618013e-01   8.5015401e-01  -6.7316766e-01  -9.9815863e-01  -4.4919436e-01  -6.2008662e-01   9.6678282e-01  -5.9545030e-01   5.5104844e-01   3.1653617e-01  -7.7269147e-02  -8.3170402e-01  -8.0026524e-01   7.3512252e-01  -1.7438581e-01   2.1046268e-01   6.5316061e-01  -9.4693741e-01  -1.7165948e-03  -8.5324817e-01  -7.1361315e-01   4.2813711e-01  -4.6957948e-01   9.8737700e-01  -8.1826646e-01   5.6198261e-01  -3.5644029e-01   8.4259666e-01   5.0139687e-01  -3.9972616e-02   7.4741952e-01   4.2927453e-01   9.4047724e-01   3.3388133e-01   8.2461821e-01  -8.9318923e-01  -5.5789055e-01   6.2168112e-01  -1.5096222e-01  -6.1875100e-02  -3.6212755e-01   3.6359608e-01   7.3976243e-01  -7.3444193e-01  -3.4246629e-01  -2.3071175e-01  -2.4229247e-01  -5.5318653e-01  -6.6469987e-01  -2.8792481e-02  -5.7908585e-02  -3.2720330e-01   7.3132809e-01   8.9319404e-01   9.5525730e-01  -8.5745914e-01  -3.1534748e-01   1.7673970e-01   4.2741341e-01   5.8280976e-02  -5.3900231e-01  -1.8553389e-01   7.5721578e-01  -3.2567682e-01  -9.3605453e-01   6.4715813e-01  -8.1308788e-01  -6.3327840e-01   2.6357296e-01   1.1090792e-02   4.6626737e-01   9.3103609e-01  -7.7030914e-01  -6.1653774e-01  -5.3182363e-01  -8.3380452e-01   5.5351176e-01   7.8660384e-01   7.9201347e-01   9.3760152e-01   2.8592588e-02  -4.4392170e-01   9.1409711e-01   8.5971537e-01  -2.2149257e-01   8.9388960e-01  -7.4719596e-01   6.3195671e-01  -8.7322346e-01  -7.1813471e-01  -9.6672269e-01  -9.3261956e-01   3.4355932e-02  -3.7464601e-01   1.0926416e-01  -8.8092285e-01  -8.3225748e-01  -3.2859767e-01  -9.1873797e-01   4.0134049e-01   7.6987613e-01  -5.6137713e-01  -3.6194280e-02  -7.7802343e-01  -7.4304582e-01   2.1720437e-03  -9.2947853e-02   5.0194147e-01   1.4336559e-01   8.5851015e-01  -5.9103383e-01   5.8636457e-01  -5.9401183e-01   6.8711445e-01   3.6545493e-01  -3.3721389e-01   5.8761152e-01  -5.1365098e-01  -4.4680148e-01  -2.0431733e-01   9.9481887e-01  -3.1631487e-01   7.6826278e-01   5.9575290e-01  -3.1487328e-01  -5.3545130e-01   7.8023217e-01  -9.1414963e-01  -1.4054844e-01  -9.5199471e-01   8.5790968e-01  -1.9559119e-01  -8.0609575e-01  -1.5552059e-01   1.5036953e-01   3.6499719e-01  -7.9359440e-01   5.5218666e-01   8.2568384e-02  -9.2608329e-01  -4.0794895e-01  -1.1486739e-01  -9.7805593e-01   9.9448368e-01  -4.7784405e-01  -6.8256990e-01   1.3539196e-01  -4.0806743e-01  -1.2593745e-01   3.7670117e-01   5.5849506e-01  -4.7749570e-01   7.0358432e-01   8.4026161e-01  -9.4362542e-01   4.3076473e-01  -7.2694561e-02   8.0629879e-01   7.4492752e-01  -9.6795873e-01   3.4820704e-01   2.7073598e-01  -4.0559969e-01   8.2051937e-02  -8.9486497e-01   5.9486241e-01   7.2315443e-01  -6.3636596e-01  -2.5576023e-01  -9.2796900e-01   2.9622997e-01  -8.6299765e-01   5.4531083e-02  -7.0945559e-01   8.7405441e-01   6.4145975e-01   3.3377246e-01  -4.5576592e-01   8.9687930e-01  -9.2467362e-01   5.5855385e-01  -5.6496628e-01   3.4922633e-01  -4.9880340e-01  -4.9428598e-01   2.7156649e-01   1.2809600e-01   2.8106555e-01  -5.0024883e-01  -1.1817556e-01   2.0583229e-01  -6.1491785e-01   8.5610005e-01  -3.0945104e-01   9.0993357e-01  -8.4603896e-01   4.8650366e-01  -5.9434139e-01   4.3818050e-01  -7.0528369e-01   3.7709761e-01  -2.0139856e-01  -4.0956863e-01   7.5278733e-01   7.0426639e-02   7.7002496e-01   4.8389431e-01   7.0706545e-01  -5.2305717e-01  -1.5413270e-01  -8.3296459e-01  -4.0009585e-01  -7.1720635e-01  -9.5155569e-02  -9.6275135e-01   8.3834353e-01   8.0110577e-01  -4.9805147e-01  -7.2700003e-01  -3.2547579e-01  -7.6706729e-01  -2.6073701e-01  -7.9917625e-01   8.5623182e-01   4.5003938e-01   4.1319477e-01   7.1282186e-02  -9.2115587e-01   5.8781619e-03  -2.8685119e-01   6.3533792e-01   5.2344355e-01   7.4052570e-01   8.8832053e-01  -1.1258010e-01   1.1153070e-01  -3.9163733e-01   2.5214224e-01  -7.5570923e-01   4.4388032e-02  -1.4110412e-01   2.0672359e-01   8.4081264e-01  -1.2944675e-01   5.3780070e-01  -1.6165043e-01  -3.9311683e-01  -1.0872776e-02  -9.9648514e-02   1.4004791e-01   2.9735274e-01  -5.3066352e-02   5.0359773e-01   5.2145778e-01   4.6484359e-01  -3.1318030e-01   2.2918515e-01   7.7897547e-01   4.4658715e-01  -4.9015471e-01  -9.7408066e-01  -1.4010275e-01  -1.1559157e-01  -9.7109318e-01  -4.8549751e-01   3.2753321e-01  -7.0201676e-01  -6.8669124e-02   9.0639294e-01  -9.1258642e-01   8.1110978e-01   2.8200827e-01   9.4704327e-02   2.7302539e-01  -2.6599005e-01  -4.8040887e-01   9.6222124e-01  -9.3582044e-01   6.3075019e-01  -2.2370590e-03  -3.6641543e-02  -8.7907059e-01   4.7917964e-01  -2.4857608e-01   6.3731250e-01   2.1391071e-01   6.4252912e-01  -2.5240125e-02   8.6173116e-01  -9.8273031e-01   8.9992461e-02  -6.5158424e-01   4.2558606e-01   5.0044660e-02   2.5516834e-01   6.7220181e-01  -3.6550743e-01   7.6075191e-01  -5.0557090e-01  -8.4135616e-01  -8.5095675e-01   6.6119175e-01  -5.7658011e-01   9.6718041e-01  -9.8456821e-01   4.3409219e-01  -9.9479082e-01  -9.9666581e-01  -3.1789511e-02   6.9891540e-01  -8.4864699e-02  -2.1865792e-01   8.5225463e-01   5.8603410e-01   6.7414631e-01   3.0270629e-01  -8.5761211e-01   4.7391387e-01   7.2351343e-01  -1.4415321e-01  -9.5989956e-02  -5.1246781e-01   4.2147127e-01  -6.7564505e-01  -2.0443372e-01  -6.0234454e-01  -9.4678427e-01  -5.6991215e-01  -4.9029590e-01   3.9817397e-01   5.5916024e-01   4.0788435e-01  -2.8495211e-01  -1.5761931e-01  -1.1592574e-01  -1.7596295e-01  -1.6402524e-01   7.9001707e-01   8.7360254e-01   8.4278463e-01  -4.2180359e-01   8.5907644e-01  -8.0992009e-01  -4.4899994e-01  -7.1542466e-01   5.8313486e-01  -8.6921638e-01   1.5487532e-01  -9.0252867e-01   9.7547578e-01  -2.9957978e-01   8.9380947e-01   9.2276364e-01   2.7503096e-01  -1.4428415e-01   2.3809668e-01   1.4839237e-01   7.9739614e-01   9.7138780e-01   1.0008114e-01   9.4111446e-01  -2.4348936e-01  -8.8955448e-01  -2.1528144e-01   4.5794292e-01  -2.5988676e-01   1.1847481e-01  -3.7471130e-01   9.6738290e-01  -7.3276587e-01  -4.9809175e-01  -5.1015266e-01   5.6916179e-01  -1.9127241e-01   5.3242387e-01  -8.4190330e-01  -3.6385509e-01  -5.4921362e-01   1.3216023e-01   5.4075006e-01   7.4659201e-02   6.8933003e-01  -8.3576107e-01   9.5013824e-01  -9.8690843e-01   7.9644333e-01   2.0868833e-01  -6.2650459e-01   8.5616620e-01   2.4288149e-01   6.3875684e-01  -8.1306776e-01   8.3759931e-01   1.4067271e-01  -9.9409490e-01  -5.1347686e-01   7.4403966e-01  -4.7618862e-01   3.8006265e-01  -8.5073938e-01   4.2338204e-01   9.1344539e-01   9.8837512e-01  -1.0733494e-02   6.0527540e-01
  -4.4246538e-02   6.5858771e-01   3.7719644e-01  -1.9930568e-01   9.0749617e-01  -7.9743645e-01   1.0830059e-01   4.0943904e-01   2.4086330e-01  -5.7168407e-01   4.0986195e-01   6.4381967e-01   6.2964579e-01   8.1963483e-01   7.0655126e-01   7.3846372e-01   4.8600185e-02  -7.2849012e-01  -4.9604271e-01   6.5851309e-01  -2.5395892e-02  -3.8350518e-02  -2.0524382e-01   7.0052119e-01   9.3641330e-01   7.0878974e-01  -1.3035303e-01  -4.5959343e-02   8.2594991e-01  -4.5817340e-01  -4.4995285e-01   5.0420120e-01   9.2392430e-01   5.3108753e-01   8.8727652e-01  -7.4745901e-01   5.4460153e-01   7.1039518e-01   7.3078072e-01   3.4725051e-01   6.7686783e-01   4.6638513e-01   8.7240591e-01  -5.7397429e-01   1.6347800e-02   9.9546445e-01   8.1286948e-01   4.5322762e-02  -6.4354000e-01   2.1976505e-01   8.9368604e-01   3.6423899e-01  -6.1905111e-01   4.3477197e-01  -4.7468255e-01   4.6020333e-01  -9.7229914e-01   4.0858496e-01   5.1709925e-01  -4.4100239e-01  -6.0106419e-01   7.0337561e-01  -5.9566044e-01  -8.7954722e-01  -7.6614198e-01  -7.7011391e-01  -4.7649817e-03  -6.2037590e-01  -4.3001675e-01  -7.8282532e-01  -2.9347730e-01   8.0066823e-01  -7.0036897e-01   2.0103776e-01   5.4492559e-01  -3.0722423e-02  -1.1473520e-01   1.6753124e-01  -3.3059792e-01  -7.3519297e-01   4.6663567e-01  -1.1140078e-01  -8.6883750e-01  -3.7206545e-01  -9.4064027e-01  -5.3828452e-01  -1.0113805e-01  -4.1386201e-01  -1.8975578e-01  -4.0907071e-01   9.4763636e-01  -8.3670154e-01  -9.3127872e-01  -1.3674704e-01   1.9342886e-01   8.2416679e-01   1.1051001e-01   7.3777578e-01  -3.4040846e-01  -3.7546717e-01  -8.5742292e-01   3.3773917e-01   1.5805111e-01   3.1734226e-01   7.1442013e-01  -2.5527296e-01   1.6973759e-01   6.4296391e-01  -5.7186060e-01  -1.9382485e-01  -9.6814820e-01  -2.9304358e-01  -1.5397581e-01   4.4767091e-01   5.2174173e-01  -5.7799059e-01   1.3299714e-01  -4.3281258e-01   9.3712388e-01  -3.7178837e-01  -1.9972998e-01   2.9116451e-01   7.6833899e-01  -7.2247706e-01  -9.7932086e-02   4.9334842e-01  -2.7693964e-01  -7.2401644e-01   9.2579925e-01   6.3953183e-01   5.9058596e-01   4.0562198e-01  -6.7497781e-01  -1.2384989e-01   7.7849566e-02   2.3917833e-01  -8.9565176e-01  -5.9152305e-01  -2.2158130e-01   2.1656370e-01  -4.4048792e-01  -2.5089563e-02  -2.2992265e-01   9.0403460e-01   5.9939610e-01   1.5603948e-01  -9.4974448e-01  -4.9934353e-01   9.8798203e-01  -1.5503997e-01  -7.4407221e-01  -3.9688094e-01  -5.2549586e-01  -7.6955267e-01   4.0442542e-01  -2.5837064e-01  -4.0474184e-01   5.6713699e-01  -6.1798225e-01  -7.8366976e-01   4.2375965e-02  -2.1556916e-01   1.2175261e-01   5.0910514e-01   3.0857855e-01   8.5272213e-01  -1.0861133e-01   8.3553112e-01  -3.8545733e-01   5.5285919e-01  -9.1642051e-01   9.3680798e-01   7.2469647e-01   4.1480800e-01  -5.9026607e-01  -7.5941087e-01  -3.7072133e-01   6.4537835e-01   1.0322280e-01   8.2710939e-01   6.1196195e-01   5.7173241e-01   4.0811381e-01   8.8838939e-02  -2.8371720e-01  -3.9390666e-01   7.4972376e-01   1.6940475e-01  -1.4222800e-01   5.7200023e-01  -7.9654193e-01   8.7486953e-01   6.6939311e-02   9.9089194e-01   9.3965669e-01   3.5851576e-02  -1.3751162e-01   6.4474946e-01   9.6684130e-01  -1.7136725e-01   1.2199991e-01   4.1319773e-01   5.4672748e-01   2.0333498e-02  -1.3899280e-01   8.1483348e-01   8.4735345e-01  -3.6327298e-01  -7.0919158e-01   2.7558163e-02   2.8446579e-01  -2.3583677e-02  -5.1329823e-01  -3.7933381e-01  -8.8205357e-01   4.6907712e-01  -7.6368109e-01  -3.7145810e-01  -8.9350801e-02  -3.2171890e-01  -8.4767758e-01  -4.8449604e-01   6.9191480e-01  -5.6484282e-01  -1.2389610e-01   8.5847763e-02   7.5730554e-01  -9.4122917e-01  -4.6915678e-01  -3.7523325e-01  -5.3803698e-01  -5.8174482e-01   2.5119070e-01   6.0364219e-01  -9.4113695e-01   9.7331233e-01  -4.7418717e-01   1.9420455e-01   3.1423213e-01  -8.7247970e-01   6.8519340e-01   4.3997225e-01  -1.7320484e-01   2.7532468e-01  -4.9189968e-01  -3.8616139e-01   8.6459275e-01   6.1534174e-01  -5.1537218e-01  -4.9281875e-02  -7.4067444e-01  -8.4248518e-01   2.1760617e-01  -4.3212393e-01   1.3005080e-01   2.7743934e-01   1.3834244e-01   8.8845224e-01  -3.9399736e-01   5.7021043e-01   1.0412085e-01   8.6372036e-02  -4.9183838e-01   4.6654805e-01   1.0017016e-02   5.5221506e-01  -9.8964436e-01   5.7371403e-01   3.4263706e-01   8.1734089e-01   2.4391543e-01  -1.7014758e-01  -1.1637530e-01   6.7193776e-01  -6.3089389e-01   5.0285170e-01   2.4998244e-01  -8.2155366e-01   4.9032575e-02   6.8448664e-01  -4.7482885e-01  -8.4181720e-01  -7.3603393e-01  -1.2807129e-01  -5.5761056e-01  -9.0163422e-01   9.7132934e-01  -8.4285410e-01   6.0113989e-01  -9.2638007e-02   5.2956521e-01   7.0751937e-01   6.1915143e-01  -4.5712283e-01  -1.5362041e-01  -7.9227709e-01   4.8539241e-01   5.3798640e-01   4.9650724e-01  -1.4868254e-01  -6.6391976e-01  -9.1572149e-01  -4.5551536e-01  -2.6662842e-02  -9.7783856e-02  -7.6975026e-03   2.3218320e-01  -1.9446674e-01   8.7728435e-01   4.2668791e-01   6.8151619e-01   7.7468834e-01   5.1892896e-01   5.4337979e-01  -6.9992700e-01  -5.6557487e-01  -8.8898605e-01   4.8179319e-01   4.0460902e-01  -2.4242287e-01  -4.3868632e-01   2.3162303e-02   2.6878979e-01  -2.4005591e-01   9.2995105e-01   3.2180718e-01  -8.2759407e-02   5.8936337e-01   8.5317956e-01  -1.1771896e-01   2.9238946e-01  -6.9598343e-01   4.4916493e-01  -4.9450628e-01   8.8027281e-02  -7.0390585e-01  -8.2237055e-01  -4.2047881e-01   1.6832620e-01  -6.8375646e-01  -4.5225715e-01  -7.0862354e-01   4.3656316e-01  -6.2410475e-01  -6.5516060e-02   7.2691830e-01   9.5018033e-02  -4.7258567e-01  -7.0429242e-01  -6.4254923e-01  -3.0912898e-01  -4.0872678e-01   5.8267351e-02  -6.0081444e-01   3.2247663e-01  -3.4629889e-01  -2.5679113e-02  -7.6593436e-01  -2.4494459e-01   1.5544886e-03   6.8708227e-01   7.0298173e-01   7.7207773e-01  -9.3192409e-01  -3.6944860e-01  -9.6634575e-01   4.7651837e-01  -5.1234249e-01   7.1320151e-01   4.7324726e-01  -8.3131623e-01   7.2053181e-01   5.5635391e-01  -5.2413907e-01   9.6734902e-01   1.6547307e-01   4.2937934e-01   4.7002556e-01   9.8043977e-02   9.9967320e-01  -1.8592233e-01   6.2774130e-01   6.0600665e-01   9.1511293e-01   2.2040442e-01   4.4974256e-01  -8.9808388e-01   4.2502584e-01   4.1229498e-01   9.9353450e-01   7.4888172e-01   2.3950624e-01   5.6075269e-01  -2.4525448e-01  -5.4204031e-01  -4.0462794e-01  -5.1749708e-01  -9.6210130e-01   3.4992107e-02   5.1326269e-01   6.2609288e-01   7.4586923e-02  -3.2461445e-01  -6.6793832e-01   8.0956031e-01   1.1208798e-02   8.5331969e-01   2.3701259e-01   5.7816102e-01  -6.4030961e-01   9.1509343e-01  -8.0543366e-01  -2.8547548e-01   2.7652588e-01  -2.6071294e-01   9.8285598e-01  -1.7399020e-01   6.5592533e-01  -8.3569202e-01   5.3119825e-01  -5.5751039e-01  -3.9274822e-01  -7.8942367e-01   7.8826825e-01  -4.9315663e-01   5.2632715e-01  -9.3239475e-01   1.9462245e-01   1.3904967e-01  -9.4907873e-01  -9.7275989e-01  -7.1887139e-01  -2.2630793e-01  -4.4487067e-01  -3.1465430e-01   3.6646570e-01  -7.2594720e-01  -8.7832162e-01   1.5728736e-01   7.7126243e-01   6.2698107e-01  -6.9897032e-01  -8.3792031e-01   4.4117201e-01   7.3536812e-01   6.3598552e-01   4.3026328e-01  -1.5062729e-01  -5.8587262e-01  -4.4318801e-01  -4.3485377e-01   7.2407099e-02   1.5483554e-01  -4.4769635e-01  -1.0518058e-01   9.1843957e-01  -7.7197583e-01   4.3627272e-01  -3.8056860e-01   8.4225409e-01  -1.5113207e-01   7.9602865e-01   9.8638014e-01  -7.2785788e-02  -6.7731885e-01   1.5760990e-01   2.5109567e-01   6.7059536e-01  -7.9669279e-01  -3.2289295e-01  -9.1273020e-02  -5.3655747e-02   1.9027725e-01  -6.7233721e-01  -2.6456634e-01  -3.8689075e-01  -9.4789253e-02  -6.5283515e-01  -6.8161157e-02   3.3085133e-01  -1.2722240e-01   3.6664952e-01  -3.5864197e-01   5.7171592e-01   6.0309024e-01   6.7321924e-01   8.9430206e-01  -7.8817945e-01   5.4439897e-02   9.2923980e-01   1.7685752e-01   6.4952185e-01  -7.3377320e-01   6.1760379e-02  -7.7020125e-01   5.1684710e-01   7.4381683e-01   9.9687730e-01   1.5673404e-01  -8.4120485e-01  -8.3472564e-01   9.3501794e-01  -7.8423897e-01  -5.3097749e-01   2.3574484e-01  -8.0382654e-01   4.2504579e-01   8.1943792e-01   7.9251672e-01   6.4271684e-01   9.9715801e-01   3.2008781e-02  -6.7910521e-01   2.3961520e-03   5.7158658e-01  -9.2324141e-01   2.4927834e-01  -4.6064098e-02  -9.0409426e-01   6.8704994e-02  -1.2277681e-01  -7.6644700e-01  -8.6167840e-01  -6.1019129e-01   3.4953630e-01   2.5018503e-01   3.5048285e-01  -5.5220517e-01  -1.0999975e-01   3.6092591e-03  -2.5562733e-01  -2.4059884e-01   1.3694443e-01   6.2339637e-02   9.8203831e-01  -3.0320207e-01  -7.5193455e-01   2.4860283e-01  -7.2860568e-01  -7.6170203e-01  -3.4658594e-01   5.5458403e-01  -5.2885183e-01  -9.2569520e-01   5.8882157e-01   2.9839665e-01   7.8365280e-01  -1.8193679e-01   4.4703773e-01  -4.4800496e-01  -9.3134838e-01   9.0092572e-01   3.5862057e-01  -6.0474191e-01  -8.5729626e-01  -1.6391933e-01  -2.5619846e-02  -7.7155217e-01   5.9601521e-01   9.0857751e-01  -3.8492670e-01   4.3894858e-01  -3.5733078e-02  -6.2861059e-01   1.4081498e-01   3.3908047e-01   9.9735725e-01   2.7560748e-01  -7.6845054e-01  -9.0066870e-01  -6.8286298e-01   9.2041176e-02   4.7171599e-01  -5.6731886e-01  -4.2571721e-01  -3.2985368e-01  -4.3004307e-01   4.2203067e-01  -7.7188208e-01   4.1712937e-01  -3.7687419e-01  -4.1706477e-01  -5.6084748e-01  -1.8823948e-01  -7.2623346e-01   8.4221281e-01   2.1198369e-01  -7.6897159e-01   5.5601606e-01  -4.0021284e-01   6.1402255e-01   8.5102985e-01  -4.7971537e-01  -4.4397145e-01  -6.4672257e-01   7.6999349e-02  -5.3326488e-01   7.1639554e-01   1.3216767e-01  -2.5542065e-01  -8.9499463e-01   3.3866557e-01   8.2041747e-01  -4.9066038e-02  -1.2878222e-02   4.7096355e-01  -4.5602091e-01  -2.8025539e-01  -6.0753165e-01  -7.2561138e-01   7.4830394e-01   6.8421000e-01   8.7708381e-01  -1.7443314e-02   2.4053000e-01  -9.7871280e-01   7.9535284e-01  -2.3678472e-01  -6.5941181e-01  -6.0891558e-01  -8.3361674e-01   7.4237634e-01   5.2028190e-01   9.0807070e-01   8.9994494e-01  -1.6740398e-01  -9.5358929e-01   1.0287442e-01   9.1383816e-01  -5.0456723e-01   7.3089960e-01   1.3665697e-01  -8.2451836e-01   9.4202372e-01  -7.6938679e-01  -9.7369785e-01   1.5385568e-01   6.7033542e-01  -5.3908719e-01   6.6423584e-01   8.3585714e-01   7.4518838e-01   4.2173113e-02  -9.3863022e-01   4.4943019e-01   8.3201817e-01  -9.7211838e-01  -6.9832794e-01  -7.3181657e-01   5.3061112e-01   3.1505866e-01   9.2497232e-01  -8.4223733e-01   4.5517851e-01   5.7395235e-01   1.0406871e-01   1.3640691e-02   3.4321248e-01   5.6902246e-01   1.0067587e-01  -2.7175736e-02   9.7257219e-01  -3.9930557e-01  -7.2041414e-01   4.0082058e-01   5.9246203e-01   5.2530923e-01   1.4097265e-01   8.6271234e-01   8.0966574e-01   8.2437458e-01   4.6459256e-01   8.8469545e-02  -5.0593496e-01  -9.2785756e-01   4.5725398e-01  -9.1194483e-01  -1.3713721e-01  -8.2454616e-01   4.9676397e-01   2.7039514e-03  -3.7519007e-01   3.1586788e-01   4.7635923e-01   3.6264337e-01   5.5182887e-01   6.2018326e-01  -1.2295313e-01   9.1626006e-01  -5.5317910e-01  -3.3810959e-02   8.6557484e-01   1.0117166e-01  -4.2285609e-02  -1.2514249e-01   8.4281804e-01  -3.6098111e-02  -3.8111915e-01   3.8524559e-02  -1.8531427e-01  -4.2515578e-01  -9.5422836e-02   4.8586328e-01  -2.9775789e-01  -1.5833330e-01  -9.4186968e-01  -6.7038065e-01   7.0366274e-01   5.7677656e-01  -4.6963167e-01   4.2125466e-01   5.9510436e-02  -7.3513108e-01  -9.2276461e-01  -6.1603156e-01   2.1232593e-01   1.0879512e-01   7.9551963e-01   8.7469081e-01   3.5568018e-01   7.4391427e-01  -8.5650215e-01  -9.0195941e-01   2.2064359e-01   1.2310960e-01   1.1633089e-01  -5.0245995e-01   5.0511578e-01  -8.5251212e-01   2.3186115e-01   5.5332685e-01   2.4071659e-01  -6.8494373e-02   4.7423547e-01  -9.8038909e-01   9.8440147e-01  -8.3542541e-01   3.2436818e-01   7.5346189e-02  -7.9476757e-01  -7.7748448e-04   5.8945923e-01   2.5365562e-01  -4.7783514e-01  -1.5244899e-01  -5.6962009e-01  -1.7587020e-02  -6.2326148e-01  -9.6219970e-01  -2.6841230e-01   3.4995522e-01  -4.8699677e-01  -5.6281474e-01  -9.9864231e-01  -9.2041041e-01  -7.4526476e-01  -5.3777317e-02   8.5314082e-02  -2.8144370e-01   8.4758936e-01  -4.1739026e-02  -8.3915227e-01   7.0074794e-01   7.0832456e-01  -9.1257435e-01  -1.1624207e-01   6.2818182e-01  -5.0018771e-01  -8.0762383e-01  -3.7696026e-01  -6.9571359e-01  -9.3882825e-01  -4.1883454e-01   7.1780508e-01  -5.7535665e-01  -9.7204472e-01  -2.1538378e-01   6.2689216e-01   8.5012959e-01   9.4890745e-01   2.6843762e-02  -5.6307745e-03   1.5320023e-01   7.9422269e-01  -3.1471108e-01  -5.5294973e-01  -5.6810390e-01   6.6032107e-01   5.1408437e-01  -4.3806944e-01   1.8122037e-01  -5.4319204e-01  -6.9766780e-01  -7.4656115e-01  -4.8283808e-01   7.5256445e-01   7.3973777e-01  -1.1407670e-01  -9.3579477e-01   1.6907975e-02  -4.7401338e-02   7.6158853e-01   1.8381997e-01   2.9603812e-01   8.1752139e-01   4.5532061e-01  -2.3106574e-01  -1.9716395e-01  -7.5077453e-01   2.2920470e-01  -1.8002526e-01   8.8824459e-02   2.1132674e-01  -2.7328952e-01   1.8641130e-01  -3.5757855e-01  -2.7062232e-01  -5.8518769e-01   9.7818891e-01  -1.9591655e-01  -2.4482071e-01  -4.0754108e-01   9.4334457e-01   9.3765591e-01  -1.2835248e-02   7.0634621e-01   2.4230077e-01   9.7985651e-01  -6.6104846e-02   1.2938720e-01  -6.0764524e-01  -4.9101951e-01  -3.3839040e-01  -6.5877091e-01   9.9982276e-02  -5.5741342e-01  -1.5175822e-01   1.5517343e-01  -3.7405234e-01   1.3380221e-01  -8.8671727e-02   5.9116865e-01  -1.0484603e-01   9.5645371e-01   3.2724665e-01   4.5241729e-01   6.7366052e-01  -6.9269535e-02   9.1880913e-01   4.7294019e-01   9.7557519e-01  -1.6381525e-01  -1.9992336e-01   8.6177857e-01   7.6212764e-01  -5.4986803e-01   8.1762865e-01   3.9678083e-01  -6.5003272e-02   3.0096842e-01   4.6219406e-01  -8.4410422e-03  -9.2235772e-01   7.5696760e-01   4.9332884e-01   8.5258210e-01   5.1675849e-01  -8.0289281e-01  -6.7380009e-01  -4.1644365e-01   8.4701780e-01   9.2489063e-01   1.5950941e-01   1.9874640e-01  -8.4463132e-01   4.9447736e-01   4.2500456e-01   3.7703579e-01  -2.7749984e-01   1.9545871e-01  -1.8386170e-01  -1.1210149e-01   7.9010293e-01  -7.1179340e-01  -3.3335070e-01   5.9944509e-01  -6.3598562e-02  -9.4421644e-01  -4.8964510e-01  -1.9954976e-01  -3.5527028e-01  -4.6045839e-02  -6.5816880e-01  -7.9101228e-01   6.3847289e-01   1.8451389e-01   2.1633560e-01  -4.2729162e-01  -6.0943132e-01  -3.8071530e-01   2.5963879e-01   2.3063731e-01   5.6137603e-01   2.7608835e-02  -6.8882402e-01   4.6552007e-01   8.0772652e-01   2.7056452e-01   2.9491882e-02  -7.1728092e-01  -7.5186543e-01   4.5928440e-01   9.2742718e-01   7.4935981e-01   7.3980434e-03  -5.2924649e-01  -1.8031094e-01  -4.9805010e-01   6.7121483e-01   5.7671263e-01   3.7140845e-01   8.8438151e-01  -1.8225043e-01   4.9278188e-01  -9.2790505e-04   6.8806370e-01  -5.1356247e-01   7.9126308e-01   6.8535557e-01   3.3878914e-01  -6.8641856e-01  -4.8444478e-01  -3.6484324e-01  -4.2074005e-01   6.0514471e-01   7.2305703e-02  -7.0462743e-01  -2.5135695e-01   2.2476092e-01  -6.1202848e-01   3.6131313e-02  -2.5800191e-02   9.4925571e-01  -6.4103669e-01  -7.1286446e-01  -3.4063126e-01  -3.8255008e-01   5.8440489e-01  -8.8716105e-01  -6.7214672e-01   5.5135403e-01   1.2111708e-01  -1.0733885e-01  -3.1006960e-01   6.5255683e-01  -9.8780184e-02   9.1560183e-01   2.4302329e-01   8.9135981e-01   7.3571958e-01  -8.9876411e-02  -8.2772721e-01   5.6994356e-01   8.5154623e-01  -7.3293183e-02  -6.8014367e-01  -3.3448373e-01  -5.7542386e-01  -2.0227844e-01  -4.5071380e-01  -4.4217788e-01   1.4370984e-01  -7.1264961e-01   7.4951748e-01   3.9259930e-01  -3.3288160e-01  -9.6001436e-01  -8.5662544e-01   2.0309455e-01  -2.1656856e-02  -9.7424365e-01   6.2703498e-01   3.0767761e-01   1.6883871e-01   4.9455678e-01  -7.8561059e-02   5.4803484e-01  -8.0591463e-01   9.4186265e-01  -5.1787757e-01  -6.3983567e-01  -2.2864726e-01   9.8031180e-01  -5.3601419e-01   4.6342685e-01  -5.7480768e-01   3.2780802e-01  -1.7000590e-01  -9.6644612e-01   4.3272118e-01
  -8.9521887e-01   9.2407408e-01  -8.0386167e-01   6.8595187e-01  -9.1594978e-01  -2.9267068e-01  -4.2810271e-01  -1.0498097e-01   8.6616513e-01   5.9190819e-01  -7.6617825e-01   6.7054889e-01   8.6568559e-01   8.3604111e-01  -8.3971387e-01   2.7067914e-01  -3.8624149e-01  -1.6239095e-01  -2.2338063e-03   6.0465270e-01  -7.2622220e-01  -4.6311069e-01  -5.4589952e-01   5.3478907e-01   5.1835273e-01  -6.8373494e-01  -3.4723772e-01  -3.7413109e-01   9.3573822e-01  -9.3436970e-01   7.1124830e-01   5.1487323e-01   1.9181729e-01  -6.6597287e-01  -1.6542578e-01   9.6464285e-01  -6.5771216e-01   7.3508442e-01   7.7362213e-02   1.4841559e-01   3.0397417e-01  -3.4112339e-01  -2.7674741e-01   2.4570437e-01  -4.0225612e-01  -7.1294539e-01   6.5652770e-01  -6.6199391e-01   4.3867631e-01  -3.5162567e-01   6.9881307e-01  -8.5962810e-01  -3.7642496e-01  -7.4521585e-01   4.5847698e-01  -3.4503676e-01   1.4356828e-01  -1.0253992e-01   9.7383744e-01  -3.8252337e-01   6.2842761e-01  -4.1658356e-01   9.6113531e-01   5.9672023e-01   4.2274531e-01   2.6759166e-01   1.2871296e-01   4.4710436e-01   7.5710789e-01  -8.2978350e-01  -9.3082398e-01   4.1003461e-01   2.7363503e-02  -4.1873841e-01   9.7968702e-01  -7.0578618e-01   9.4767203e-02   3.2174381e-01   2.9618408e-01  -7.0931069e-01   1.1405738e-01   3.6014906e-01   6.2398267e-01   4.5247496e-01   7.3728999e-01  -9.6475320e-01  -6.5662789e-01   4.0655588e-01   7.8192849e-01   8.8601549e-01  -7.1360968e-01  -5.6348707e-01  -9.1214890e-02  -9.7053133e-01  -9.5221731e-01  -7.3108432e-01  -5.3690478e-02   8.8810192e-01   8.2164782e-01  -3.1316480e-01   8.9759975e-01   1.6628164e-02   8.5445293e-01  -4.7153578e-01  -5.5711045e-01  -2.1662950e-02  -8.4505688e-01  -4.7423349e-03  -5.2122186e-01   4.5091085e-01  -3.9328007e-01   7.9674349e-01   8.2842704e-01  -5.7357616e-01  -3.7916772e-01  -1.3307802e-01   1.7526720e-01   3.7691824e-01   6.2400406e-01  -5.2247210e-01   2.8464866e-01  -2.7754898e-01   2.6132167e-01   5.6583193e-01  -6.5370426e-01  -3.9504591e-01   9.0229312e-02   6.6349520e-01  -1.8197181e-01  -5.7234530e-01  -1.6232871e-01   7.9857749e-01   1.3715932e-01  -7.3534386e-01   5.9984022e-01  -5.6716099e-01   4.5178053e-01   8.3823163e-01  -4.1209069e-01  -9.7061513e-01  -7.2964704e-01  -4.6872912e-01  -4.9994629e-01   1.6951977e-01   3.5331277e-01   7.6002169e-01  -1.0048387e-01  -5.3956266e-01   9.1028124e-02  -7.2144246e-01  -6.4094068e-02   1.7990169e-01   1.8726021e-01   3.5133206e-01  -6.5962539e-02   9.6678716e-01   2.6439773e-01  -1.8675884e-01  -7.7901037e-01  -9.6676893e-01   5.5482293e-01  -1.6667423e-01   7.3266700e-01   6.0056872e-01  -5.3054435e-01   9.0554566e-01  -8.1470214e-01  -9.7270248e-01  -5.2206853e-01  -8.6766416e-01  -7.0921740e-01  -2.2890007e-01   7.2106514e-01  -5.4367809e-01  -3.9067932e-01  -8.9687716e-02   9.3841042e-01  -7.1609768e-01  -8.6348431e-01   1.1027434e-01  -5.1768093e-01  -7.3763952e-01   7.2701239e-01  -6.4017562e-01  -6.5021684e-01  -4.5747024e-02   9.7149922e-01   8.9345230e-01  -5.9701136e-01  -7.6796714e-02   1.4919154e-01   9.2547511e-01   2.8997085e-02  -6.7330448e-01   8.0466212e-02  -9.4675461e-01  -1.9970765e-01  -7.5764521e-01  -5.7431457e-01  -6.4767574e-01   8.8950806e-02  -6.4819937e-01  -4.1649511e-01  -1.7610406e-01   8.8307073e-02  -3.6348109e-01  -6.8349884e-01   7.2955831e-01   4.6944759e-01   8.1430643e-01  -6.6368653e-01   1.4200012e-01   4.6135900e-01   6.8788143e-01   9.6155091e-01   7.5951925e-01   9.8561472e-03   9.1905764e-01  -1.1143416e-01   6.0334388e-01  -3.8546188e-01   9.3223615e-01  -7.3066087e-01  -3.6722845e-01  -1.8453694e-01  -2.3908336e-01  -8.8349613e-01   9.3602184e-01   8.7136092e-01   4.5284880e-01  -6.5685519e-02   7.2966233e-01  -9.0516369e-01   8.9247597e-01  -9.2280504e-01  -7.1133715e-01   5.9265450e-01  -3.0349540e-01  -5.8819738e-01   1.3023038e-01  -5.3447833e-02   2.2360791e-01   1.1016743e-01  -4.2804649e-01  -4.7352770e-01  -8.0702285e-01   2.0156937e-01   3.3938850e-01  -8.9567448e-01  -2.6196915e-01  -3.2253406e-01   3.2934154e-01  -5.1985110e-01   8.0424661e-02  -4.3792065e-01   7.3088731e-01   6.6343445e-01   9.2802124e-01  -2.2806710e-01   1.8777336e-01  -1.8959408e-01  -6.8822336e-01  -5.2377420e-01   5.7327688e-01  -9.8561776e-01  -1.4093780e-01  -8.1587384e-01   9.9090449e-01  -5.3740311e-01  -5.7061662e-01   6.0755439e-01   5.7456200e-01  -2.5761796e-01   4.3088960e-01   1.7356766e-01   4.2377214e-01  -8.3896715e-01  -3.8872926e-01  -7.8269940e-01   9.2135591e-01  -8.8564970e-01  -5.9266071e-01   2.0846782e-01  -6.2888053e-02   4.9066618e-01  -7.1762712e-01   9.2676557e-01   6.7240419e-01   4.9118782e-02  -1.7641352e-02   1.8191312e-01   4.9373195e-01   4.8651438e-01  -2.8668667e-01  -6.6630420e-01   2.8017650e-01  -7.1970219e-01  -9.1878673e-01  -2.5754517e-02   7.3588347e-01   7.5163813e-01   2.7409968e-01  -1.6914919e-01  -2.9662313e-01  -7.5656322e-03   5.4913077e-01   7.9356670e-01   6.5663743e-01  -2.4157045e-01   5.0211431e-01  -2.5273044e-01   1.7453328e-01  -4.0289162e-01   7.0796423e-01   6.7467896e-01   7.3458307e-01  -9.2719598e-01   5.6261152e-01  -6.6681219e-01   8.7535449e-01  -1.4240094e-01   5.0165060e-01  -4.2659209e-01   4.8346823e-01   7.4715235e-01  -8.9999101e-02   2.6408866e-01   3.6982740e-01  -4.3592917e-01   8.7896110e-02  -3.1893068e-01   6.1108800e-01  -6.8681025e-01   7.7773118e-01   9.3831918e-01  -5.4020696e-01  -7.7148153e-01   5.9844974e-01   7.4983118e-01  -4.7652355e-01   7.4586094e-02  -5.5841366e-01  -4.6386667e-01  -1.5141373e-01   8.3974917e-01  -2.6499702e-01   7.3154098e-01  -2.7295697e-02   8.9698076e-01  -6.2335208e-01  -1.1390792e-01  -6.5507344e-01   4.0730581e-01  -6.8795042e-01  -3.9919837e-01  -4.4894803e-01  -5.4865382e-01   8.6182322e-01  -5.7920450e-01   2.3237442e-02  -3.5371322e-02   6.0249731e-02  -9.2692204e-01   3.4471813e-01   9.6768859e-01  -6.4932820e-01  -8.8027064e-01  -3.1052372e-01   9.5760792e-01   9.9107767e-01   8.2903539e-01  -4.0849808e-01   6.6000687e-01  -8.4560960e-01   6.6118059e-01   6.5098212e-01  -2.9258546e-01  -5.9847670e-01   6.3930315e-01   9.7683831e-01   2.8151523e-01   1.8915181e-01   1.2443722e-01  -5.2228171e-01  -5.1226791e-01   4.7577526e-01   1.1904661e-01   8.5571239e-01   1.8407619e-01  -6.1306978e-01   4.1887049e-01  -6.4475877e-01  -9.3666416e-01  -3.8793007e-01   4.4619776e-01  -8.4668470e-01  -6.3931021e-01   3.8310853e-01  -1.5267067e-01  -2.0076971e-01   6.9309950e-01  -8.6282648e-01   1.7299350e-01  -8.8195443e-01  -5.5714456e-01  -3.6296170e-01   9.8481739e-01  -7.1437621e-02  -1.0684850e-01  -5.2900766e-02   7.1948775e-01  -4.0765125e-01  -6.9561155e-01  -6.4197034e-01   8.3576866e-01  -9.3810079e-01  -5.2804195e-01   1.7261353e-01  -8.3180819e-01  -2.8281400e-01  -1.8080618e-01   4.3442004e-02   2.4024274e-01   3.5080600e-01  -6.6466780e-01  -9.6187645e-02  -1.7746830e-01  -7.8015054e-01  -5.9661993e-01   7.9674637e-01  -4.4720925e-01  -7.4653638e-01   8.0256912e-01  -3.8535965e-02   3.9812317e-01   7.4416722e-01  -3.8215538e-01  -6.7218153e-01  -3.3726564e-01   9.3328063e-01   8.5044061e-01  -9.8682261e-03  -9.0042181e-01   6.2748737e-01   7.3554775e-01   3.9147208e-01  -7.6488672e-01   1.1120713e-01   3.8019926e-01  -9.4332507e-01  -7.9500553e-01   8.5276511e-01   4.3494063e-01   9.3486980e-01   5.0576112e-02  -8.8413258e-01   3.9423886e-01  -3.8709646e-01   9.1983059e-01  -8.7359796e-01   3.1076424e-02   3.4184061e-01   5.9767444e-02  -1.2541317e-01   1.1890844e-03  -5.7594230e-01  -6.3542920e-01   9.4598405e-02  -5.0582458e-01  -1.3387425e-03   3.5625052e-01   6.1725650e-02   2.9056627e-01  -2.5743875e-01  -2.8848616e-01  -1.0433320e-01   2.0410265e-01  -4.6706837e-01   7.6495998e-01   8.1395082e-01  -8.8262443e-01  -5.4890914e-01   6.9442799e-01  -2.9660009e-01   6.6795275e-01  -8.6505572e-01  -6.1649367e-01   3.0141257e-01   3.9603380e-01  -1.8137098e-01   6.4857901e-01   2.8711824e-01  -9.5396914e-01   7.0658437e-01  -5.7143182e-01  -1.0973109e-01   5.1984610e-04   4.2545187e-01   4.2339834e-01  -8.7730362e-01   6.5795353e-01  -5.3295814e-01   3.3527291e-01   8.7819380e-01   3.5155158e-01  -3.5973701e-01   9.0090072e-01  -9.1896042e-01  -8.6916504e-01   4.0551581e-01  -6.3689026e-01   2.7101747e-01   3.9678637e-01   6.3006246e-01  -6.0387589e-01   6.5892574e-01   4.4197924e-01  -9.4576925e-02   8.3412679e-01  -1.7001098e-01   1.3569752e-01  -2.3192496e-01  -1.8907475e-01   8.2127609e-03  -4.5295772e-01  -2.3057448e-01  -9.6136981e-01  -3.4679724e-01  -3.5281012e-01   2.2255117e-01   7.5206555e-01  -1.9199124e-01  -4.4909262e-01   3.3999172e-01   7.1739615e-01  -1.0772500e-01  -7.3499480e-01  -2.3459791e-02  -6.5939720e-01  -6.0460892e-01  -1.4232196e-01   4.7549812e-01  -8.5683024e-01   8.8841818e-01   8.8526931e-02   6.2245975e-01  -5.7518333e-01   1.8093124e-01  -5.8638175e-01  -7.8148299e-01  -5.8736154e-01  -9.3825448e-01   8.9240814e-01  -5.1250648e-01   5.2764542e-01   4.4064768e-01  -2.1963080e-01  -4.0491435e-01  -8.2222339e-01  -3.1682447e-01   9.8594990e-01   6.7392392e-01   1.4493117e-01   7.1988905e-02  -2.2433647e-01   6.4754854e-01   7.7797958e-01  -7.5509105e-01  -8.2002859e-01   8.4328175e-01   5.2813814e-01   3.8099479e-01   9.4341190e-01  -2.5932765e-01   7.1554031e-01   5.6993924e-01  -7.4343912e-01  -2.0118032e-01   2.1079180e-01   4.0515117e-01  -1.8748299e-02   9.1385457e-02  -5.6302386e-01   4.8878893e-02   6.5885176e-01  -6.1009324e-01   3.7819882e-01   9.6636180e-01  -3.8650860e-02  -8.4066281e-02  -8.9341090e-01  -1.6546306e-01  -6.7810671e-01  -8.8213538e-01   9.8482006e-01  -2.4153304e-01   8.7598110e-01  -3.1876326e-01   5.5687463e-01  -3.2278557e-01  -2.1619833e-01  -4.1040636e-01  -4.6864510e-01   2.5855192e-01   2.2997377e-01   7.9714329e-01   3.8346582e-01   6.0639660e-01   7.3847286e-01   1.1941117e-01  -8.5740921e-01   3.3844195e-01   7.2201414e-01  -2.6216951e-01   8.3427618e-01   2.0100279e-01   5.9844260e-01  -5.8205459e-01   6.8053155e-01   2.1925891e-01  -2.4046425e-01  -6.1385955e-01  -1.3179264e-01   7.0937939e-01   5.7219456e-01  -6.3627842e-01  -4.6512151e-01  -9.0774695e-01  -3.6398041e-01   7.9408147e-01   3.6570814e-01   8.4077894e-01  -8.2312572e-01  -1.5747658e-01  -7.8147797e-02   7.2371227e-01  -7.2493837e-01  -3.2442710e-01   4.1045482e-01  -6.1867186e-01   7.7204515e-01   4.2623211e-02  -4.0940403e-01  -2.2489156e-01   5.6291652e-01   6.3444395e-01  -5.4787547e-01   7.8422340e-01   4.4250407e-01  -9.6338566e-01   6.3577534e-01  -5.7223211e-01   9.8133624e-01  -2.4708303e-01   7.4552718e-01  -3.1380901e-01  -6.0463061e-01   8.0101198e-01  -1.1193997e-01  -5.6646026e-01   8.8119495e-01   8.3211760e-01   5.6734793e-01  -2.0811746e-01   1.6212862e-02  -3.9534979e-01  -8.8264260e-01  -4.7848149e-01  -1.0466837e-01  -2.7152336e-01  -7.5681242e-01  -9.7967197e-01  -3.1741345e-01  -6.1714463e-01  -6.9860726e-01  -5.9464143e-01  -1.3885145e-01   4.0341341e-01   8.5317092e-01   1.4977349e-01  -6.6702271e-01  -5.4218615e-01   3.1321612e-01  -7.2914913e-01   7.1023159e-01  -3.7668579e-01  -4.0484770e-01   2.5831957e-01   3.0392554e-01   9.8147391e-01   5.8666793e-01  -9.3676560e-01   6.3426285e-01  -1.6420245e-01   5.5138512e-02   1.0586595e-03  -7.4937545e-01   6.5190463e-01  -2.0170248e-01   2.1915486e-01   2.3438913e-01   6.9873845e-02   6.6886633e-01   2.8268274e-01  -8.0895029e-01   4.8255081e-01  -9.9528851e-01  -4.2082973e-02  -4.8732064e-01   5.1891192e-01   9.7841341e-01   7.9755374e-01   6.4546205e-01  -8.8762699e-01  -7.5553974e-01  -4.6367212e-01   5.5751694e-01   3.7135003e-01  -6.3396986e-01  -1.0733377e-01  -5.8091016e-01  -6.0699050e-01   9.3508576e-01   1.7564912e-02  -8.0125564e-01  -8.7956478e-01   4.6118575e-01   8.4111223e-01  -4.2821084e-02   7.1901076e-01   8.6098362e-01   6.2286826e-01  -4.0495392e-01  -5.5522624e-01  -2.3785276e-01   4.4577170e-01   5.7586057e-01  -8.2532382e-01  -7.2871851e-02   2.9807353e-01   3.1677233e-01  -9.3713557e-01  -2.5798569e-01  -7.3868012e-02  -8.1047473e-01   5.3712304e-01   2.0395068e-01   4.4244007e-01   7.8457467e-01  -4.3258623e-01  -9.5747729e-01  -1.1245461e-01   7.4882364e-01  -8.9272229e-01  -1.5125983e-02  -1.7661051e-01   6.7318522e-01  -8.0330628e-01   7.8477156e-02   5.2599332e-01  -8.9618948e-01  -6.3916420e-01   4.5792991e-02   6.3293028e-01  -3.7400912e-01   4.4055821e-02   5.8668409e-01   7.9476834e-01   6.9194689e-01   9.6260670e-01  -7.4051957e-01  -6.2448399e-01  -5.7527682e-01   9.4473416e-01   6.8730726e-01  -8.6421594e-01  -9.9018229e-01  -1.5558168e-01  -6.3879978e-01  -2.4222818e-01   3.9672681e-01   3.3096024e-01  -5.6034781e-02   8.8351958e-01  -1.1926998e-01  -1.6521701e-01   9.0765040e-01  -3.0265669e-01  -2.4723526e-01  -8.5144266e-01   1.4843727e-02   4.8814416e-01  -5.5040928e-01   9.5632658e-01   1.4820617e-01   7.9915290e-01  -2.3656646e-01  -2.9647829e-01  -7.8429034e-01   1.2321938e-01   3.8325402e-01  -1.2829459e-01  -2.1798960e-02  -8.8765713e-01  -3.9457705e-01   2.4929469e-01   2.1064840e-01  -3.0597363e-01  -3.4519186e-01  -1.5094330e-01  -7.8474817e-01  -2.1544058e-01  -3.9244072e-02   6.3730615e-01  -1.0280558e-01   5.6803196e-01   5.9724525e-01   4.1557767e-01  -9.0443729e-01   5.1201359e-01   9.2779926e-01  -9.6884117e-01  -2.2745691e-01   3.7657283e-01   3.6518599e-01  -5.2812033e-02   5.1638666e-01   6.6215760e-01  -4.0047119e-01   2.4301376e-01   2.7182332e-01  -6.6970095e-01  -9.2856957e-01   6.6834798e-01   6.7729592e-01   5.4137307e-01  -2.5721990e-02   6.9274744e-01  -1.9307066e-01   9.1086935e-01   2.4874013e-01   5.4273281e-01  -7.7792336e-02   8.4678438e-02   4.6091810e-01   5.4245267e-01   1.9990659e-01   1.9752339e-01   2.3128198e-01  -8.2258201e-01  -4.4642464e-01   4.9848231e-01   9.4189850e-01  -4.0295933e-01  -7.7938249e-01   1.0201329e-01  -6.9992714e-01  -3.7997441e-02   3.3882960e-02  -4.7838087e-01  -2.6054555e-01  -8.4828111e-01   6.1783778e-01  -3.1534556e-01  -6.5519378e-01  -3.0259674e-01  -2.2477449e-01  -8.9604254e-01  -1.3711903e-01  -4.4626617e-01   1.7078949e-01  -1.1821829e-01   2.2691474e-02   2.3888569e-01  -7.7455668e-01  -5.7578654e-01   7.2898086e-02  -3.5204738e-02   4.5748997e-01   3.8158686e-01  -7.5133598e-01  -5.0094156e-01   4.0301950e-01   4.8262622e-01   1.8077714e-01   2.5302643e-01   1.2463109e-01   1.2258164e-01   5.4482898e-01   3.5825161e-01  -2.2925020e-02  -2.9074173e-01  -9.0795185e-01   5.5889038e-01   3.9716035e-01   6.5814006e-01  -3.0373856e-01   8.1528509e-01  -3.2020228e-01   4.4486375e-01  -7.2099605e-01  -6.3679288e-01   4.0750400e-01  -3.6691081e-01   6.2951165e-01   4.1999156e-01  -1.2425149e-02   8.3078131e-02   5.1280628e-01  -5.2790712e-01   6.8393966e-01  -2.5133377e-01   5.5775031e-01   8.1229718e-01   1.3475463e-01  -5.3956123e-01  -3.6369262e-01  -9.3134619e-01  -8.0046652e-01   8.9944730e-01  -8.8147130e-01   5.1760520e-01   4.6618949e-01   9.8732460e-01  -5.4082848e-01   6.2958003e-02   1.9497137e-01  -4.9045077e-01  -2.7938368e-01   1.8178430e-01   2.6640984e-01   3.9074110e-01  -5.2848670e-01   9.2024130e-01  -3.3199186e-01  -4.6571228e-01   2.5710172e-01  -8.2843148e-01   9.6472289e-01   1.2439880e-01  -9.8136798e-01   5.4200249e-01  -5.6982534e-01   1.9994116e-01   2.2495395e-01   9.3121414e-01  -6.3400571e-01   8.6422517e-01   7.7652189e-01   3.6286234e-01   3.7482572e-01  -8.5899905e-01  -6.7382094e-01   6.3577043e-01  -1.1653081e-01   8.8903538e-01  -6.0045006e-01   8.8448479e-01   8.1172834e-01   1.3410181e-01  -1.2935338e-01   1.2293836e-01   8.6480848e-01  -9.1098101e-01   1.1577800e-01  -4.9128018e-01  -1.2858067e-01  -3.5045166e-01  -1.5724974e-02   8.0467325e-01  -4.7934841e-01   3.0693249e-01  -2.4751730e-02   5.6396341e-01   7.8843763e-02   6.4585978e-01   8.8425443e-02   8.8728951e-01  -9.8125431e-01  -7.7858216e-01  -6.6953419e-01   5.2357651e-02   8.3452183e-01   2.4972363e-01   9.0007513e-01   3.3906954e-01   6.9513197e-01   7.6370065e-01   5.2655193e-01   3.7420365e-01  -5.1509491e-01  -8.8717567e-01  -2.5805893e-01  -9.4416156e-01  -3.8378276e-01   1.6294974e-01  -3.6490348e-01  -7.6015704e-01   5.4386805e-01   2.7359260e-01
   9.9280137e-01  -9.8191951e-01  -1.0430169e-01   3.5647099e-01   5.4300612e-01   2.7203392e-01  -2.4110400e-01   7.4618194e-01  -8.0317973e-01  -3.2173369e-01   2.6051992e-01   5.5681033e-01   1.7324402e-02  -3.9956834e-01   8.9307425e-01  -3.6737215e-01   2.4012119e-02  -5.6557732e-01   7.1508720e-01   6.3501683e-01   3.4474788e-01   9.0186859e-01   9.3262470e-02  -6.1525350e-01   5.8215622e-02   7.1680996e-01   3.6995682e-01   5.5354690e-01  -2.1276230e-01  -2.3080376e-01   9.9888517e-02  -1.8330333e-01  -3.2246223e-01  -9.3575060e-01   7.9376453e-01   8.4759845e-01   6.8346969e-01  -1.4108990e-01   4.0579198e-01   8.8100468e-01  -5.7738558e-01   5.8737506e-01   3.1669438e-01   8.8918151e-01  -8.7540066e-01   1.7929768e-01   8.2770377e-01   6.2074038e-01  -1.4280353e-01   8.2902040e-01   5.8539720e-01  -2.0667141e-01  -5.1472584e-01  -5.0785930e-01   6.8050894e-01   2.1269896e-01   1.8710767e-01  -2.5606820e-01   9.9062387e-01   8.3481210e-01   1.4768376e-01   3.3740583e-01   3.8433436e-02  -4.1317189e-01   6.8561245e-01  -2.7307490e-01   2.5089155e-01   4.9514023e-01   7.8084417e-01   9.7151182e-01   9.9830055e-01  -8.1542169e-01  -5.3681630e-01   4.3394386e-01   4.6646030e-01  -7.6730011e-02  -7.7656085e-01   7.0643916e-01   3.5152313e-02   4.3747522e-03   7.4695218e-01   6.4255028e-01   6.2739952e-02   8.7600008e-01  -9.4292918e-01  -6.6615082e-01  -9.0526471e-01   6.2984562e-02   9.8915774e-01  -9.2545871e-01  -1.9049658e-01   1.1047116e-01  -5.3855716e-01  -1.1779272e-01  -4.2115417e-01  -8.1452300e-02   3.2479170e-01   5.7089657e-01  -6.1641289e-01   5.2546540e-01  -4.8085187e-01   4.9474891e-01   5.9516804e-01   5.0689397e-01   8.9788330e-01  -6.1318622e-01   7.5264481e-01  -6.6791365e-02   6.6395756e-01  -4.5666366e-01   6.5612529e-01  -2.3498664e-01  -6.9989026e-01  -6.1140793e-01   7.8317337e-01  -3.1896742e-01  -3.3437404e-01   7.4483071e-01   4.6488761e-03   9.6942475e-01   4.1918612e-01  -6.2252280e-01  -9.4183679e-01   1.6604096e-01   6.5002111e-01   8.0095748e-01   8.3691698e-01   4.3856810e-01   4.4230140e-02   8.9152965e-01   2.1085499e-01   5.2406614e-01   8.0849708e-01   9.6858707e-01  -6.1107609e-01   7.5448543e-01  -4.7584758e-02   6.4002198e-01  -1.3586280e-02   9.3723692e-02  -3.3225456e-01   6.7777162e-01  -4.9612581e-01   7.2920061e-01  -6.1024914e-01  -5.7458908e-01   4.5809118e-01   2.3146281e-01  -4.2261654e-01  -5.4305642e-01  -3.5834581e-01   4.6235254e-01   4.2149031e-01  -9.8409212e-01   2.8369254e-01  -1.3442630e-01   7.6989086e-02   1.0025379e-01  -3.1982270e-01  -7.1516834e-01  -6.4319971e-01  -6.6691461e-01   9.6109303e-01   3.7161374e-01   7.5710554e-01  -1.2981224e-01  -4.4288524e-01  -8.5706623e-01   1.7782675e-01   1.1884597e-01  -4.0955677e-01  -9.2892568e-01   7.8581458e-01   4.9500189e-01  -2.9559790e-01   6.4923066e-02  -2.6531525e-01   2.4248813e-01   6.7447192e-02   4.9664857e-01  -3.2848667e-01   7.8887457e-01  -6.1728795e-01   9.7622750e-01  -3.3908467e-01  -1.0330723e-01   8.7668540e-01   2.1842968e-01  -1.6865573e-01  -6.0855733e-01   3.0187135e-01  -5.7380014e-01  -3.2052193e-01   6.5078392e-01  -5.7579546e-02   2.4443331e-01   6.4502565e-01  -9.3398136e-01  -6.8029057e-01  -2.4099849e-01  -6.8682360e-01  -1.0973082e-01   7.6621148e-01   1.9114852e-01  -1.5289497e-01   2.1367536e-02   9.6122543e-01   9.9677402e-01   1.2247501e-01   2.5559136e-01   7.3011374e-02  -3.5044602e-01  -4.2388856e-01   2.6885664e-01   8.3227903e-01  -1.4821212e-01   4.2909479e-01  -3.9660921e-01  -9.9550716e-01  -4.5079640e-01   3.4033823e-01   9.6769133e-01   7.8127581e-02   7.5703293e-01  -7.1062404e-01  -6.3230423e-01   5.6047734e-01   9.5157882e-01  -3.5305373e-01   4.0217720e-01  -8.8392043e-01  -1.0958359e-02   5.4558498e-01  -3.9803919e-01   8.1623530e-01  -3.8817824e-01   8.0617163e-01   7.8548793e-01  -5.9821050e-01   7.4487557e-01  -6.6806607e-01   9.9581133e-01  -2.6464180e-02  -1.9108188e-01  -6.7020440e-01   2.4602306e-01   3.7126146e-01   4.2916043e-01   6.9314918e-01  -9.5364720e-01   7.9285935e-01   9.6282334e-01  -6.8318515e-01  -7.3811562e-03  -6.9174412e-02   2.9165796e-01  -9.2425261e-01   7.6744435e-01  -8.4859270e-01   1.9716240e-01  -2.4518754e-01  -6.4615307e-01  -9.7810785e-01  -6.0204547e-01   1.8713945e-01  -5.4552262e-01   4.7026956e-01  -5.9603110e-01   7.7200810e-01   6.5629474e-01  -8.9227761e-01  -8.1466033e-01   5.8513823e-01   4.8679962e-01   8.6818291e-01  -1.9120433e-01   1.4871990e-01  -9.9207377e-02   4.7897429e-01  -3.7786732e-01  -9.5288270e-01   7.2342878e-01  -6.7999215e-02   9.7912039e-01  -2.4530098e-01   8.3990801e-01   3.5778689e-01   1.7292265e-03   8.8161978e-01   4.7790084e-01  -6.0680977e-01   9.8171114e-01   7.4964671e-01   3.9044698e-01   7.4314283e-01   5.6672153e-02   6.2331234e-01  -9.0454078e-01   8.8498455e-01   3.1270116e-01  -3.6149192e-01   4.5618618e-01   4.5202373e-01  -4.7617075e-02   4.6454394e-01   9.9604187e-01   4.3054446e-01   4.5954030e-01   9.2475196e-01   7.3500027e-01  -5.3877434e-01  -5.9806034e-01  -4.6797028e-01   4.8440435e-01  -2.6894495e-01  -2.8967931e-01  -6.6021837e-01  -9.6866200e-01  -4.5456878e-01  -8.6368237e-01  -9.4851679e-01   2.0994713e-01  -8.3869034e-02   3.1695530e-01  -7.5816304e-01  -9.0544814e-01  -9.3559102e-01   9.6199375e-01  -9.0528654e-01   2.9692460e-01   2.5277044e-01   7.3832355e-01   5.0575430e-01  -4.2563519e-01   5.6512797e-01   5.2742364e-01   6.6569601e-01   7.1380801e-01  -8.2248610e-01   8.4544113e-01   8.4515452e-01   9.9469354e-01  -2.2558575e-01  -9.1360822e-01   2.1004711e-01   3.7950905e-01   4.0870039e-01  -9.1868252e-01   3.5386256e-01   9.7274621e-01   7.0087404e-01   6.1501051e-01  -1.8758365e-01  -1.6704564e-01   8.3135099e-01  -2.2421088e-01  -4.9450066e-01   9.8551783e-01   1.3907046e-01   7.8425481e-01  -4.4582024e-01   3.8360949e-02   7.8527490e-01  -5.7098331e-01  -9.9441702e-01  -7.5601102e-01  -2.6371358e-01   2.5769303e-01   9.2183841e-01  -7.9370555e-01   1.8038636e-02  -9.0210450e-01   1.5067917e-01   6.6734969e-01  -2.6831798e-01  -6.1598138e-01   6.4897158e-01   2.6276512e-01  -5.3247498e-01   6.9316112e-03  -5.8720754e-01   2.0245314e-01  -7.4257299e-01  -7.8508138e-01   7.4929257e-02  -9.1565807e-02  -1.7134915e-01   3.5367149e-01  -8.4122744e-01  -2.2284666e-01  -1.3303206e-01  -8.1163706e-02   9.4903409e-01  -6.2307418e-01   5.7034047e-01   8.8524133e-01  -4.9430387e-01  -5.3712763e-01   9.3218613e-01   1.7737770e-01  -7.9146024e-01   6.4040694e-01   1.0246273e-01  -7.7258216e-01   9.4012726e-01   9.3164972e-02   9.5856991e-01  -2.2936861e-01  -2.5407339e-01   5.2806419e-01   5.1379624e-01   1.0310449e-02   2.5136972e-01  -3.2823338e-01   8.0447548e-01  -2.7470883e-01  -6.0295722e-01  -5.8463463e-01  -6.7457230e-01  -3.7679508e-01  -6.2288730e-01  -8.5412548e-01   3.2034587e-01  -9.1030223e-02  -4.0960269e-01  -8.7440218e-01  -4.2378847e-01  -3.2498690e-01  -4.9873940e-01   1.8505453e-01  -8.0387060e-01   1.2963728e-01   7.7189289e-01  -1.0758164e-01  -4.7606021e-02   7.8000672e-01   9.8074644e-01   6.1812374e-01  -4.3554285e-01   7.9662232e-01  -9.3795345e-03   8.9592281e-01  -2.3251648e-01  -8.8266086e-01   5.3066218e-01   7.0494483e-01   2.6549839e-01  -4.0472655e-01   7.5143513e-01   4.3289472e-01  -2.3264212e-01   1.9751496e-01   5.1145276e-01  -9.6489864e-01  -6.6336114e-03   5.9028302e-01   4.4945984e-01   8.7752813e-01   9.1742827e-01   7.6875478e-01   5.0636049e-01   5.3827943e-01   5.9675245e-01  -4.2509667e-01  -3.3341166e-01  -1.3509330e-01   3.5281630e-01  -8.0070283e-01   9.6922382e-01  -3.8848750e-02  -1.1187326e-01  -7.6969340e-01   9.1564578e-01   2.2435042e-02  -6.7751084e-01  -4.7773098e-01  -4.0380629e-01  -9.6360448e-01  -3.0330427e-01   3.3581637e-01  -7.5547635e-01   9.6142778e-02  -6.5945958e-01  -2.7881462e-01   4.1972233e-01   9.2936718e-01   2.3088052e-01  -2.0835932e-01   2.0872404e-01  -4.5104357e-01  -7.5717652e-01  -5.4623825e-01   6.1432040e-01  -7.2703185e-01  -5.9641594e-02   5.4825822e-01   3.9114561e-01   7.1630578e-01   9.1772881e-01   5.1890328e-02  -4.7910025e-02  -7.9195746e-01  -5.5619169e-01   5.6127486e-01  -7.9987775e-02   4.8774798e-01   8.2792806e-01  -8.9639009e-01   8.0616895e-01  -1.6212938e-01  -8.4098215e-01  -7.5101676e-01  -7.1972543e-01   3.0815765e-01  -6.0563071e-01  -7.5776789e-01   2.1026033e-01   6.1623052e-01   8.5461633e-01  -3.7356770e-01   3.1184125e-01  -7.1050736e-01  -6.0689024e-01  -9.8921034e-03  -5.2263377e-01   6.2472454e-01   2.7108714e-01   9.8717570e-01  -6.3986803e-01   7.1049782e-02  -4.5105306e-01   3.6222850e-01   6.2533525e-01  -2.8970313e-01   9.4934705e-02   1.0708264e-01   9.8346912e-01   1.5021929e-01  -5.8735063e-01   3.7198392e-01   6.4806565e-01  -5.8081139e-01   6.3842348e-02   5.4547106e-01  -5.8533262e-01  -3.2332763e-01  -2.5723650e-01   7.7045504e-02  -2.6995755e-01  -2.3924742e-02  -8.7260061e-01  -7.7718682e-01   8.7478945e-01  -6.1704049e-01   3.4508375e-01   1.0851663e-01   9.2216734e-01   7.4380328e-01   2.1210887e-01   1.9320397e-01   1.3327683e-01   6.8669322e-01  -2.5460868e-01   4.6483203e-01   3.3509314e-01  -5.1158898e-01  -4.4897082e-01  -3.0200967e-01  -9.9629846e-01   1.5442746e-01  -6.0747119e-02  -8.6481898e-01   4.3386065e-01   8.0376279e-01   9.4117477e-01   1.2350580e-01   2.8475923e-01   9.1076944e-01   2.4082725e-01   4.1701717e-01  -5.5607193e-01  -2.1435610e-01   6.8903612e-01   8.6358830e-01   6.7075639e-01  -7.3677884e-01  -3.5642112e-01  -5.3754723e-01   1.5676904e-01  -1.7624691e-01   6.2559413e-01   6.5030839e-01  -3.0824689e-01  -8.3656895e-01  -6.3575165e-02  -6.9774894e-01  -3.7033602e-01  -3.3145835e-01  -6.0312015e-01   2.1062420e-01  -9.4774789e-01   7.0715884e-01   2.6285880e-02   9.8725610e-03  -4.6993848e-01  -1.1698968e-01   7.5215909e-01   2.5109408e-02   4.4402198e-02  -8.4810722e-01  -6.5810506e-01  -7.3274289e-01  -3.2557174e-01  -9.0176329e-01   9.9093936e-02   6.0146394e-01   6.2854758e-01  -8.0030756e-01   5.8206296e-01   1.9107253e-01  -8.2197440e-01   1.3271581e-01   5.4514237e-01   5.9416186e-01   7.2646645e-01   9.0231351e-01  -6.7674410e-01  -4.9555289e-01  -8.4304775e-01  -3.9770464e-01   8.3991762e-01   4.6170688e-01   5.7150799e-01   5.0044606e-01   7.9997692e-01  -4.9001944e-01  -4.7321766e-01  -3.5526912e-01   7.8304929e-01  -7.8331741e-02   6.1426959e-01   9.1300580e-01   3.9590788e-01   9.1598778e-01   5.7347339e-01   2.1376124e-01  -1.4439692e-01  -2.2748803e-01  -1.6769195e-01   5.2308145e-01  -7.0021668e-01   1.0684201e-01  -3.5343300e-01   7.6759106e-01   2.4507773e-01   7.1853796e-02   2.4899085e-01  -7.1751993e-01   1.7526006e-01  -9.0350618e-01  -1.2269631e-01  -7.3099627e-01  -9.0227301e-01   2.9522820e-01  -2.4669628e-01  -4.2110133e-01   9.5023837e-01  -4.5072560e-01   1.8469348e-01   9.8101639e-01   6.7311123e-01  -4.6987129e-01   3.1495749e-01  -9.4528661e-01   6.0338415e-01   8.9465783e-02  -9.2494920e-01  -9.8032957e-01   7.1378828e-01  -6.1994316e-01   3.0857552e-01   9.1694824e-01  -9.9741858e-02  -8.5849393e-01  -1.9108710e-01  -1.1605526e-01   1.7674288e-01   8.5985548e-01   9.2652750e-01   9.7665246e-01   8.0673121e-01  -1.1740385e-01   7.8142093e-02  -6.0705180e-02   6.3675134e-01   5.8494275e-01   1.0745035e-03  -5.4255392e-01   8.8646980e-01   1.5909117e-02   9.7653234e-01  -2.3826318e-02   4.5328245e-02   3.6034956e-03   5.0596317e-01  -8.1807203e-01   2.7920708e-01  -8.7900619e-01  -4.2630354e-01  -9.1157230e-01   5.6968155e-01  -7.9780936e-01   2.0582341e-01   7.2903562e-01   2.6683845e-01  -1.2567962e-01  -4.6919391e-01   1.0659762e-01   7.0539071e-01   1.1241777e-01  -3.1615375e-01  -5.5631925e-02  -1.2187069e-01   6.7134177e-01  -7.5400935e-01  -6.0809150e-01  -6.8889959e-01   8.6715310e-01  -4.5029962e-01   9.8374430e-01  -2.1657706e-01  -6.4317865e-01  -6.1687249e-01  -4.6315110e-02   9.5823784e-01   6.6872040e-01   9.7046593e-01   4.1186573e-01   7.8156009e-02   1.9883460e-01   3.9114437e-01   4.3276408e-01  -1.6500663e-01  -7.8403521e-01   1.8638099e-01  -5.1102839e-01  -1.1411516e-01   4.5304754e-03   4.8031160e-01   9.3377304e-01  -2.5360462e-01  -4.7723112e-01  -1.7245525e-01  -7.0787307e-01   7.7046711e-01  -7.9083726e-01   4.7636954e-01  -9.8607809e-02   4.9379092e-01   8.8671789e-01   2.1385827e-01  -8.9773734e-01  -3.0477462e-01   6.4941725e-02  -1.4666592e-01   3.3432969e-01   8.7845485e-01  -1.2746845e-01  -8.8062171e-01   9.3794523e-01  -5.8217650e-01   2.4297359e-01  -8.1777893e-01   7.7809055e-01   9.3968395e-01  -7.8605574e-01  -8.0870386e-02  -6.6450652e-01  -4.5871936e-01  -7.0443655e-01  -5.6304377e-01   2.9456084e-01  -9.0340621e-01   4.8533186e-01   7.1675960e-01   6.2395073e-01  -1.4084209e-01  -3.2289561e-01   5.8294012e-01  -5.1285496e-01   7.0054512e-01   9.7351464e-01  -6.0663741e-01   3.6869950e-01  -8.5411656e-01  -3.3534236e-01   4.7227674e-01  -2.3616472e-01  -7.9518113e-01   5.3304754e-01   2.7993303e-01   5.2669699e-02   5.0059142e-01  -7.2179248e-02   8.8251280e-01   7.4084845e-01   5.0784656e-01  -1.5233634e-01   2.0239392e-01  -5.8493260e-01   6.4330250e-01   1.9548312e-01  -3.4982853e-01  -6.3744141e-01   1.7782249e-01  -2.0921726e-01  -3.1280293e-01  -4.4469215e-01  -2.6396521e-01   1.9912685e-01  -4.2508856e-01  -5.6943250e-01   4.7962442e-01  -9.1947205e-01   9.8667222e-01   3.3642798e-01   2.8479102e-01   2.5403129e-01   7.3829666e-01   6.6212749e-01  -3.6994974e-01  -4.8979715e-01   8.6840769e-01  -2.7968256e-01   6.6602947e-01   1.8408053e-01   2.4341730e-01  -7.6420011e-01  -2.5746995e-02   1.0708357e-01  -4.3929798e-01  -4.5589504e-01  -9.8752371e-01  -8.6602538e-02   2.3618617e-01  -7.2218241e-01   3.4563254e-01  -5.1921161e-01  -4.1213253e-02  -9.3691290e-01   4.4199617e-01   8.4341934e-02   4.1155447e-02   7.7437007e-01  -9.2091655e-01  -8.2694574e-01  -8.2929444e-01  -2.7979212e-01   6.3888794e-01  -3.7962909e-01   7.7023965e-01   7.3453753e-01   9.8784793e-01   7.7862054e-01   4.4333826e-02  -2.7073467e-01   7.0106090e-01  -8.7712221e-03  -9.3033427e-01  -5.0374813e-01   9.7475217e-02  -2.6423090e-01  -7.1856680e-01  -1.6075879e-01  -6.3909354e-01   5.7571446e-01  -4.5214893e-01  -8.6460244e-01   3.5694996e-01   5.7910716e-01   4.8646119e-01  -4.2458909e-01  -1.0021306e-01   4.0200002e-01   3.4279911e-01   7.2686746e-01   5.0050617e-01   8.9367205e-01   9.2622156e-01  -4.1290417e-02  -3.4214618e-01  -9.7957752e-01  -5.4731657e-01  -6.1356912e-01   6.3601831e-01   4.4954562e-01   9.5346111e-01  -8.2299028e-01  -5.2452008e-02  -2.0617406e-01   1.4234798e-01  -6.8884679e-01   3.8064924e-01   9.3390236e-01  -6.8851637e-01  -7.4074222e-01   3.2097814e-01  -7.0087919e-01  -6.8644763e-02  -8.8571830e-01   8.3006632e-01  -5.5382041e-01  -1.6969318e-01   4.4484539e-01   7.9709567e-01  -7.5124027e-01  -8.5063990e-01   7.8301770e-01   3.1603479e-02   8.0006700e-02   5.0584526e-01   8.0943212e-01   7.3290590e-01  -6.2213687e-02  -4.9022904e-01  -2.5981331e-01   2.3881130e-01  -3.8281479e-01  -5.1655756e-01   3.9197213e-01   4.3539458e-01  -2.1599971e-01   6.8827969e-01   2.1263441e-01   6.3172964e-01  -6.7549985e-01  -3.5906035e-01  -1.2141394e-01  -3.9496386e-01  -7.6485959e-02   6.7285131e-01  -8.4959603e-01  -5.4492703e-01   4.0926023e-01   9.4691232e-01   6.8027278e-01   3.7393373e-01  -3.3010313e-01  -2.0624042e-01   3.9756726e-01  -2.5264221e-01   8.0476530e-01  -2.7782209e-01   1.5901293e-01  -6.6453994e-01  -5.3331731e-01  -5.3819877e-01   9.9932711e-01  -8.2274948e-01   8.2778601e-01   3.7312429e-01  -7.7918057e-01  -3.7797147e-01  -6.3698147e-01  -7.5249089e-02  -8.1117150e-01  -3.0602632e-01   1.0460533e-01  -5.2195287e-01  -9.1021872e-01  -6.7029251e-01  -2.1493741e-01  -6.6630534e-01  -4.6269697e-01  -3.5541282e-01  -2.6544500e-01   2.6683330e-01  -2.7893017e-01   5.9329874e-01  -7.2359604e-01  -1.0721397e-01  -2.7288447e-01   3.1090039e-01  -1.7334962e-01   2.2081731e-02  -2.9931506e-01   5.0731887e-01   8.3812822e-01   2.8199071e-01  -4.3270312e-01   8.6936227e-01   9.2814161e-02  -6.9713216e-01   9.1423164e-01   9.1512947e-02  -4.0226094e-01  -8.8838063e-01   5.7469493e-02  -7.4774201e-02  -3.9174292e-01
