  -9.6900192e-01  -7.4921802e-01   2.4816675e-01  -9.4260349e-01  -2.9523862e-01   1.3031424e-01   5.6227689e-01  -6.6098864e-01   3.1190599e-01  -2.7747516e-01   2.4000682e-01  -1.4913100e-01  -8.8740868e-01  -7.4999066e-01   9.6536373e-01  -3.6714241e-04  -6.7942973e-01   8.1463931e-01   1.6354276e-01   7.0526902e-01   7.2394088e-01   7.2459292e-01   5.5485415e-01  -6.7393909e-01   4.5988192e-01   9.2897486e-01   3.4097643e-01  -8.1984500e-01  -1.1291788e-01   4.3002572e-01   2.4237297e-01  -4.3071394e-01   7.6672992e-01  -4.2176538e-01  -3.1141786e-01  -9.1014806e-03   7.3772042e-01  -8.1420403e-01  -3.4732086e-01  -2.9196353e-01  -1.1000018e-01  -6.8783362e-01   1.7776828e-01  -6.3861752e-02   8.2762883e-01  -7.6991765e-01  -9.6474397e-01   5.8826363e-01  -5.4062077e-01   8.2669466e-01   3.2878114e-01  -2.4692099e-01   2.5608985e-01   6.2851413e-01   1.5316681e-01   1.3613446e-01  -5.0601465e-01   1.5230749e-01  -2.3737419e-01   6.0623518e-01  -3.5412320e-01   6.3909584e-01  -2.4090208e-01  -2.4951806e-01   5.8870120e-01   3.5503951e-01  -5.8958606e-01  -2.7931906e-01   5.6745690e-01  -4.3386549e-02   7.5254020e-01   1.5765423e-01  -3.8568006e-01  -4.3265623e-01   4.3984895e-01  -7.0104975e-01  -7.7841724e-02  -8.3342203e-01  -7.7508078e-01  -5.9141619e-01   5.6556796e-02  -6.8281653e-01   4.1822721e-01  -2.0166489e-01   4.0940834e-01   3.3721101e-01  -3.9690152e-02   7.4493538e-01   4.6734052e-01   1.9380085e-01  -1.6504863e-01  -6.8282188e-01   5.3088222e-01   6.7207094e-01  -9.6424151e-01  -8.8474290e-01   8.9701384e-01  -1.6631737e-01  -7.2352024e-03   7.7157257e-01  -6.7165350e-01   9.3463582e-01   3.9454931e-01  -2.4749680e-01  -9.7115585e-01  -7.8214741e-01  -4.1594745e-01  -9.5822179e-01   7.7161012e-01  -6.2516828e-01  -1.1812356e-01   5.0482289e-01   6.8580486e-01  -9.1418496e-02  -4.4418808e-01   7.2424999e-01   7.5033946e-02   3.6411199e-01   1.6409593e-01   1.4942615e-01   8.5106262e-01  -3.8985769e-01  -9.6909725e-01  -7.3818826e-01  -6.9051016e-01  -1.3237608e-01  -1.7915187e-01   2.5339724e-01  -1.5491126e-02  -1.7085164e-01   3.0604676e-01   9.2038250e-01  -2.0145365e-01  -4.7911653e-01  -9.9916992e-01   7.6395654e-01  -5.5086050e-01   4.2468667e-01  -4.4091393e-01   7.6260455e-02   3.0733557e-01   1.9851314e-01  -1.3523403e-01   8.1934956e-03   1.5550882e-01   2.0655028e-01   4.0024794e-01   3.9612740e-01  -6.3107115e-01   3.7360070e-01  -7.6273784e-01   3.0002251e-01   1.0963682e-01  -2.2492016e-01  -7.9470592e-01   9.1356231e-01  -1.8901502e-01   6.1829891e-01  -4.8787704e-01  -3.2456962e-02   4.2405786e-01   8.7200901e-01   2.4618421e-01  -3.7211410e-01  -9.2028333e-01  -1.6591760e-01   5.5154123e-01  -6.3581525e-02  -7.4101357e-01   3.5759202e-01  -7.3580468e-01   6.0915960e-01   6.2219605e-01  -3.2935449e-01  -7.5784138e-01  -9.3281929e-01  -4.9892895e-01   7.4101059e-01   6.1155021e-01   6.1256520e-03   4.1332768e-01   3.7460177e-01  -2.8958666e-01  -3.4814944e-01  -8.3331016e-01  -9.3818393e-01  -1.5459314e-01   5.6019985e-02   8.7513267e-01  -9.2463750e-01   2.4536753e-03  -2.0170495e-01   8.0149081e-01  -5.4101513e-01   9.5452386e-02   9.6940508e-01   1.2949438e-01   3.2348986e-01   2.4431984e-01  -7.6243420e-01  -1.3232131e-01   5.3727497e-01  -9.7011758e-02  -3.6667696e-01  -4.4960867e-01  -2.0705940e-01   4.4224736e-01  -2.6277891e-01  -5.2384079e-01  -9.2641907e-01   2.7582924e-01  -9.2994549e-01   8.3183361e-01  -2.0364409e-01  -6.5193837e-03  -3.8608308e-01   6.2888501e-01  -5.4602483e-01  -7.3658372e-01  -2.8105818e-01  -2.0845513e-01  -9.0506858e-01   3.9057631e-02   3.5542756e-01   5.9897777e-01   4.3897465e-01   9.6888671e-01   5.9029255e-02  -7.9519274e-01   4.6667768e-02   5.0706341e-01  -3.3719501e-01   6.6331138e-01  -2.0955347e-01  -1.8294381e-01   8.8889333e-01   5.1371276e-01  -3.3010214e-01  -9.2583903e-01   7.8695697e-02  -6.6962867e-01  -1.0812018e-01  -5.8867972e-01   5.6704949e-01   8.5601212e-01   6.2815744e-01   4.6013156e-01   5.8917244e-01   9.0297095e-01  -6.6383948e-01   3.2749107e-02   2.2472674e-01   9.4980609e-01   3.0829593e-01   7.0967400e-01   8.8919891e-01  -9.0554790e-01   1.9230111e-01  -2.4136952e-02  -6.9641819e-01   1.1268510e-01  -5.9041463e-01   8.5125341e-01   6.7770301e-01  -9.7340554e-01  -1.6862706e-01  -1.3916881e-01   8.3655281e-03   1.5718464e-01   7.4045893e-02   5.3472052e-01   2.2418287e-01   2.0857764e-01  -6.8343395e-01   7.8683555e-01   4.8940891e-01  -8.6993686e-01   1.5726520e-01  -1.5684883e-02  -6.0627862e-01   2.7176293e-01   3.2511585e-01  -3.8932121e-01   4.9871518e-01   7.8205394e-01   5.7750830e-01   1.4353445e-01   8.5640975e-01  -7.1582787e-01   1.8049753e-01  -3.6623246e-01   2.8034556e-01  -3.3622419e-01   3.7122947e-01   4.3845854e-01  -8.4177717e-01  -5.9953959e-01   3.8629645e-02   7.4223492e-01   2.8424814e-01   3.5572571e-01  -2.3559341e-01  -6.0223723e-01  -4.6242157e-01  -2.4120490e-01  -6.9620405e-01   4.0484008e-01  -2.3569723e-01  -2.2136893e-01   7.2220595e-01   9.2371185e-01   4.4100345e-01  -1.4290922e-01   7.6950516e-01   6.6646604e-01  -9.4366662e-01   1.5021395e-01  -9.5273803e-01  -8.6370414e-01   4.0578237e-01  -6.2439094e-01   8.0339293e-02   5.3152460e-01  -8.9125858e-01  -1.2526356e-01  -9.1241898e-01   9.7616873e-01  -7.9904940e-01  -2.0951436e-01  -9.2155649e-01   9.5328429e-01   8.2635934e-01  -7.1299851e-01   4.7192082e-01   8.5562366e-01   7.2860292e-01  -8.9506694e-01   5.3271525e-01   3.3493428e-01   3.4528709e-01  -9.9578399e-01  -3.3825384e-01  -2.7607107e-01   5.7576869e-01   6.7423640e-01  -5.3400102e-01   5.9655709e-02  -8.9281307e-01   9.5639967e-02   2.8369368e-01   5.0588929e-01   4.0024109e-01  -1.6272227e-01   5.8851220e-01   3.5714558e-01  -7.5150036e-01  -3.1171119e-02   8.0014360e-01  -1.7585911e-04  -1.1967586e-01  -8.3126135e-01  -9.7217902e-01   6.6433095e-02  -1.0967960e-01  -8.1403394e-01  -4.8213007e-02   1.7578405e-01  -1.1022659e-01   2.7334641e-01   7.0738213e-01   4.8245807e-02   7.9207031e-01  -1.5622706e-01   8.7630610e-01   9.0197924e-01  -6.9552052e-01   6.4709051e-01  -4.0251323e-02   8.5314301e-01  -5.9089059e-01   7.3200073e-01  -6.3174915e-01   8.3475497e-01   4.6038098e-01  -4.4569609e-01   1.5464438e-01  -9.1918236e-01   8.8372974e-01  -7.5674797e-02   1.1870697e-01  -1.2904650e-01  -9.7578461e-01   2.3860893e-01  -3.3917686e-01  -5.9277823e-01  -9.2785411e-01   7.6062334e-01   1.0984787e-01  -6.2027101e-02  -1.9437001e-01   3.1894812e-01   1.6853542e-01   5.9604962e-01   2.0694265e-02  -5.4619013e-01  -5.5619606e-01  -6.9454059e-01  -4.3495623e-01   5.9770377e-01   9.2299868e-01   7.1032010e-01  -4.6566338e-01  -9.4402501e-01  -8.5801470e-01   8.3317122e-01   3.2378357e-01   3.8191919e-01   2.3146329e-01   4.4836636e-01  -8.7836595e-01  -5.5786694e-02  -9.4790873e-01   3.4620883e-01   6.6782064e-01  -2.8911189e-01  -8.9561961e-01  -2.6320777e-01   1.3004468e-01   5.7512109e-01  -6.6814323e-01  -3.4075767e-01  -4.9285874e-01   7.7221143e-01   9.8407399e-01   5.1571560e-01   5.7727646e-01  -8.8615277e-01  -1.9713684e-01   1.0518442e-02   9.1088314e-01  -4.4294889e-01  -6.8019631e-02  -7.3302553e-01   9.5052255e-01  -8.7202114e-01   6.6980263e-01   7.9616582e-01  -6.9423731e-01  -5.8763893e-01   9.5743764e-01  -9.5732120e-01   9.3677443e-01   8.2551574e-01  -1.0813824e-01   8.6314727e-01   5.8155213e-01   2.6854284e-01  -8.5884298e-01  -6.9728259e-01   2.8256651e-01   8.4548377e-01  -6.2992338e-01   8.3234335e-01  -3.2951967e-01  -3.1852751e-01   5.1837843e-01  -2.7317249e-01   4.3033787e-01  -4.9402931e-01   1.5290955e-01  -1.2341668e-01   5.5911235e-01  -8.1796064e-01  -4.6363282e-01   5.4999232e-01   9.2029771e-01   3.3346346e-01  -2.8028378e-01   3.2925869e-01  -3.0692158e-01  -7.0568715e-01  -7.3200763e-01   1.5511831e-01   2.1635401e-01   5.2743999e-01  -7.9691637e-02   5.8898274e-01   1.7513428e-02  -9.4282408e-01   6.6167025e-01   8.6245470e-01   9.5849805e-01   2.0036290e-01   6.8774036e-01  -2.0171182e-01  -7.4071852e-01  -5.6268375e-01   2.8930249e-01   7.9150382e-01   5.2962488e-01   5.9877468e-01  -6.7741714e-01  -3.6510842e-02   1.8355647e-01   5.5221723e-01  -7.4458983e-01  -3.3634161e-03  -7.4977346e-01  -6.0010984e-01   6.0495490e-01   9.9364373e-01   1.1743365e-01  -7.6817993e-02   9.5580883e-01   7.5140831e-01  -9.9349239e-01   4.2929239e-01   5.3740204e-01   5.2682302e-01  -2.3785299e-01   8.4156045e-01  -8.3710230e-01   8.8704207e-02   9.0795230e-01  -1.7729932e-01  -5.6540229e-01  -7.8572636e-01   5.7457357e-01  -1.5559076e-01  -9.0506333e-01   8.2382339e-01  -4.2976038e-01   1.1015114e-01   9.8988992e-01  -1.2306570e-01   1.7153678e-01   5.3796213e-01  -6.3993431e-01  -2.0307115e-01  -9.0104838e-01  -9.0511552e-01  -9.7257107e-01  -7.7815163e-01  -5.9837940e-01  -2.3538285e-02   9.8093946e-01  -2.7430850e-01   2.9017477e-01  -5.6334477e-02  -3.7568072e-01  -9.3001632e-01  -5.3730091e-01   5.5627248e-01  -8.5570082e-01   1.7922810e-01  -8.1584675e-01  -2.6737501e-01  -2.0670169e-01   1.6752183e-01   8.7049214e-01  -6.2485119e-01  -6.0240671e-01  -8.8252397e-01  -1.8793160e-01   1.8377412e-01   8.4038930e-01   5.9579607e-01  -7.7946596e-01  -5.5767649e-01   2.3135567e-01  -4.4631058e-01  -8.2961931e-01  -7.9241774e-01  -8.0325218e-02  -6.0018310e-02   3.0152962e-01   8.1823836e-01  -7.2419841e-01   8.5154805e-01   5.9382955e-01  -7.9167666e-01  -9.4480635e-01  -8.6783760e-01   8.1444166e-01   7.9683267e-01   6.5632982e-01   4.4049347e-02   7.0464196e-02  -6.9521542e-01  -9.7715337e-01  -2.4813958e-01   5.7941612e-01  -3.8453871e-01   9.7611921e-01  -5.0619344e-01   7.1306185e-01   5.0328349e-01  -4.7131393e-01  -1.2837101e-01   6.6595210e-01  -1.3774894e-01   6.7216997e-01  -8.3249970e-01  -4.0394363e-02   2.0356374e-01  -6.6032062e-01   9.9574041e-01   8.3754599e-01  -3.3203891e-01  -9.3968247e-02   7.9913853e-01   1.8541187e-01  -8.8586534e-01  -4.9889719e-01  -5.1051554e-01   7.2161573e-01   7.6653103e-01   4.8913991e-01  -4.1742941e-01  -7.6776663e-01   7.4771288e-01  -3.8976051e-01   6.2128203e-01   4.3544868e-01  -3.2484243e-01   2.1482816e-01  -1.4920782e-02  -6.1622896e-01  -7.0630803e-01  -5.3676574e-01  -2.0061182e-01   7.5762131e-01   8.0779253e-01  -2.7359194e-02   5.1472254e-01   6.3097730e-01  -4.7118370e-01   6.7287309e-01   2.3750316e-01   3.6375280e-01   6.0601760e-01  -6.0047712e-01  -2.1368223e-01   2.7310841e-01   6.3746443e-01  -9.0774514e-01   6.7678946e-01   1.4574741e-01  -6.3753158e-01  -9.0914211e-01   6.7346169e-02   9.3713562e-01  -5.1129154e-01  -3.2135132e-01  -5.0109280e-01   9.7407785e-01   5.8796852e-01  -2.6118242e-01  -7.8419328e-01  -3.8028828e-01   9.2554413e-01   8.1939342e-01  -1.2836865e-01  -1.4639501e-01   5.8673004e-01   3.3487268e-01   9.8891712e-01   7.8862957e-01  -5.2910827e-01  -8.2294556e-01   5.1305554e-01   2.7647471e-01   7.0552010e-01   3.9464878e-01  -6.8023656e-01  -2.4379580e-01   8.1223908e-01  -5.7181231e-01   4.3970765e-01   6.5270972e-02  -3.5957069e-01   5.9655899e-01  -4.2705313e-01  -7.8094549e-01  -1.6526502e-01   6.3713585e-01  -8.6271658e-01  -9.2029501e-01  -5.2293494e-01  -4.5749715e-02  -5.8982118e-01  -2.9943458e-01   4.7290070e-01   1.3631223e-01  -4.4320170e-01  -2.4698132e-01  -8.4326042e-01  -7.3000129e-01  -4.5420774e-01   7.1428785e-01  -9.9491591e-03   9.4162754e-01   3.6101071e-01   2.5760759e-01  -7.6598504e-01   6.1657045e-02   8.3536286e-01   2.3508929e-01  -4.9254979e-01   8.4142711e-01  -4.4516180e-01  -5.4222105e-01  -3.4798081e-02   6.5481944e-01   5.0769073e-01  -1.5316696e-01   4.0660177e-02  -6.5752016e-01   6.9836954e-01  -5.5165349e-01   7.0543708e-01  -3.3311896e-01   2.4018676e-01   7.8494807e-01   5.3480864e-01  -2.1333861e-01  -5.2739997e-01  -2.4710343e-01   5.9907684e-01  -8.7167337e-01  -5.2087415e-01   2.5947927e-01   8.8416376e-01  -9.0849668e-01   1.8688226e-01  -6.0028643e-01  -7.0529275e-01  -6.6319826e-02  -5.2405663e-01   8.4476286e-01   4.0282498e-01   7.3974896e-01  -5.2293131e-01   2.0248869e-01  -8.2765761e-01   5.5420759e-01   4.5774168e-01   4.4164142e-01  -2.6325099e-01   9.2562105e-01   4.3629010e-01  -1.2461249e-01  -4.8388612e-01   8.8514934e-01  -1.2998364e-01  -6.0419572e-01  -8.2986889e-01   8.5071637e-01  -9.3041364e-01  -6.2101786e-01   9.5696447e-01  -2.0356520e-01  -1.6853515e-01  -5.8872703e-01   7.1480490e-01  -1.4966003e-01   5.9840292e-01  -3.7759655e-01   2.7856775e-01  -8.5380119e-01   3.7394231e-01   4.5898743e-01   7.5200206e-01   2.0916305e-01  -9.8163302e-01  -6.5764357e-01   5.4289328e-01  -5.3840565e-01   4.6122547e-01  -9.6256768e-01   5.9541825e-01  -9.0153095e-02  -2.0255988e-01  -1.8690827e-01  -6.4769377e-01   1.4032608e-01   6.7820670e-01   3.3849475e-02   2.6769496e-01   2.8347537e-02   2.6346402e-01   1.6013219e-02  -6.3439697e-01  -2.0572637e-01   8.6076946e-01   4.2794971e-01  -7.0601203e-01   4.5758524e-01  -2.2702375e-01   7.3824694e-01  -7.0271457e-01  -1.3191625e-01   3.1889266e-01   6.0881028e-01  -9.2992965e-01  -3.7067289e-01  -6.9603750e-01   5.0865835e-01  -1.9276293e-01   8.5770415e-01  -3.2441539e-01  -7.4892061e-01   3.5832608e-01  -9.4042302e-01  -5.8431270e-01  -1.9364230e-01  -6.0117679e-01   4.8258856e-01  -1.1306263e-01  -4.0729284e-01   5.9790713e-01   2.6513756e-01  -4.5876272e-01   9.6636619e-01   3.2850003e-01  -8.6776476e-01  -5.9515538e-01   4.4947466e-01  -8.2646600e-01   4.3466833e-01   6.4490725e-01   2.2532916e-01  -6.9902847e-01  -7.6353200e-02   8.1871807e-01   6.0729037e-01   2.5023278e-01   8.1590442e-01   1.6139823e-01   7.2066014e-01  -6.6245388e-01  -6.1677737e-01  -5.7366273e-01  -5.5079155e-01   8.0797422e-01  -2.3092439e-02  -2.4736585e-01   4.3508693e-01   4.6910590e-01  -5.3210097e-01   9.5871023e-01   8.4526303e-01   8.1822114e-01   5.0605574e-01  -3.9473846e-01   5.5183371e-01  -2.5025088e-01   5.7053229e-01  -2.7928878e-01  -8.5197339e-01  -7.3464635e-01   8.9341736e-01  -4.0955555e-01   5.2063928e-01   2.0745970e-01   3.1938844e-02   3.7600979e-01  -7.1250843e-01  -5.2834361e-03  -5.9696768e-01  -6.1155136e-01   4.3513439e-01  -1.3826485e-01  -5.3838807e-01   8.3318906e-01   3.7528046e-01  -4.3349534e-01  -7.6307962e-01  -4.9734842e-01  -4.5915812e-01  -3.2204198e-01   2.3808130e-01  -1.4868254e-01   9.0823343e-01  -6.7050965e-01   7.3515427e-02  -3.1415019e-01  -3.0193015e-01  -9.3186440e-01  -2.4726431e-01  -3.6895477e-01   8.8073425e-01  -2.3804818e-01  -5.6287930e-01   8.3040796e-01  -7.2714759e-01   6.2205026e-01  -9.2341090e-01  -5.4558331e-01  -5.6593395e-01   6.6781435e-01  -9.9525855e-01  -7.7956926e-01   5.5509512e-02  -8.3082006e-01   4.8345744e-01  -1.2053913e-01  -1.9374205e-01  -9.4397896e-01   7.1738772e-01  -5.4766368e-01  -4.3420327e-02  -9.4685225e-02  -9.2547319e-01   4.7190494e-01  -2.1286496e-01   3.4624892e-01   3.1332555e-02  -8.4819173e-01   1.8660184e-01  -2.1311664e-01   6.0360762e-01  -6.0920465e-01   2.0331930e-01   8.4090600e-01   2.7964457e-01  -5.6247822e-01   2.3008016e-02  -2.8177125e-01  -5.2783900e-01  -8.0577335e-01  -7.8449618e-01  -2.3230389e-01   9.3418113e-01  -4.7001788e-01  -8.6060932e-02  -4.6004796e-01   9.5116709e-01  -5.0496268e-02   6.5116722e-01  -4.2161621e-01   9.7400522e-01   9.9627468e-01   9.5169109e-02   4.4262892e-01   1.2267267e-02  -2.7384207e-02  -3.9510936e-01   7.8318383e-01   1.0928753e-01   6.6965909e-01  -6.3505012e-01  -1.3270609e-01   7.5585366e-01   3.5196372e-01   3.4630061e-01  -8.9131460e-01   1.2784453e-01   6.5451822e-01  -1.0157908e-01  -8.8430857e-01   4.1588069e-01  -1.2226858e-01   3.4970349e-02  -7.9453910e-01   4.1459156e-01  -7.2891687e-01  -3.5184557e-01  -8.5300678e-01  -7.5613291e-01  -4.1352933e-01   2.6236483e-01   6.3246563e-01   6.3697294e-01  -7.2752777e-01  -8.7516370e-01  -9.7307793e-01  -7.7386466e-01  -7.0406009e-01  -1.1407093e-01  -1.1333669e-01   8.1083228e-01  -4.2053330e-01  -5.9809117e-01   7.0390478e-01  -8.0966078e-01   4.4832822e-01   7.2747148e-01   5.0780252e-01  -1.0796394e-01  -1.1582147e-01   6.1986236e-01  -8.7715466e-01   4.2413024e-01  -6.5319054e-02  -3.8479725e-01  -4.1017494e-02  -1.3430701e-01   3.2288075e-01  -5.9976225e-01
  -5.1968211e-01  -4.4956208e-01   3.7867847e-01  -5.0134616e-01   1.6747532e-01  -8.5195802e-01   8.0941130e-01  -9.9596919e-01   8.2551850e-01   1.2145891e-01   5.1067446e-01   6.1075478e-01  -4.4497496e-02   9.7247936e-01  -5.8663238e-01   5.8175029e-01   1.3885098e-01   7.1362597e-01   1.0671436e-01  -6.3650685e-02  -3.5472060e-01   3.6904450e-02   5.7363573e-01  -1.3659842e-01   5.0612957e-01  -7.6077275e-01   8.5070496e-01   3.7464641e-01  -5.3998626e-01  -8.4469921e-01   1.8994386e-01  -1.3861725e-02   4.3887446e-01   8.9965169e-01   3.9606872e-01   1.2280315e-01  -4.0308655e-01   2.1158957e-01  -9.5476946e-01  -3.3773644e-01  -5.3153448e-01   3.5150678e-01  -5.9073933e-01  -8.2257917e-01  -7.5546667e-01   4.2485612e-01   7.9360732e-01  -3.6414622e-01  -9.3744162e-01  -5.8568188e-01   1.0111053e-01   1.8158582e-01   7.4616233e-01   9.8286286e-02   4.2977756e-01   2.1758622e-01   3.2815244e-01  -4.7795377e-02   2.3123000e-01   4.3987084e-01  -3.4864276e-01   8.2711074e-01   5.5015241e-01   6.8769533e-01  -8.5763970e-01  -1.1431179e-01  -7.8355182e-01  -3.2510535e-01  -9.4670850e-01  -5.4482544e-01   9.4574634e-01  -8.7241611e-01  -7.9942585e-01  -1.2537085e-01   5.9677375e-01  -8.0494173e-01  -2.2942105e-01  -8.3673108e-01   8.1018971e-01  -2.5267420e-02   2.2597573e-01  -3.8555415e-01   6.0219811e-01   6.6086231e-02   6.7848999e-01  -7.6162356e-01   4.2468127e-01   5.9479585e-01  -5.7619735e-01   8.8246380e-01   4.7020238e-01  -6.7618952e-01   4.6578307e-01   4.2108692e-02  -8.1263744e-01   7.9474569e-01  -5.1733956e-01   3.2136548e-01  -2.4583414e-01   8.5707526e-01   3.8173340e-01   8.8181971e-01  -9.2508971e-01   6.9176430e-01   3.4747375e-01   2.0569728e-01  -6.2807087e-02   3.5872734e-01  -6.3548310e-01  -3.8543907e-01  -7.8399745e-01  -5.3432707e-01  -8.4876604e-01   2.1901303e-02   7.2314819e-01   8.1652858e-01  -2.7217323e-01   5.0207791e-01   3.7246954e-01   8.0963929e-01  -1.0955142e-01   6.8150047e-01  -9.0469650e-01  -3.0501730e-01  -9.4577500e-02  -4.4381063e-01   5.6846768e-02   5.2651614e-01   4.0240574e-01  -3.4738308e-01   5.3477180e-01   3.7173135e-01   8.3923307e-01  -1.0865001e-02   1.0817018e-01   5.1467275e-01  -7.8430026e-01   7.0367328e-01  -3.5896445e-01   3.2240761e-01  -6.8120421e-02  -1.7609699e-01  -7.3430214e-01   2.2844056e-01  -1.6060214e-01   3.4080042e-02   2.6803304e-01   3.5489556e-01  -7.9910455e-01  -9.0318531e-01  -2.0422647e-01   8.6880273e-02   4.4049246e-03   6.4579742e-01  -1.8801278e-01  -3.6496047e-01   9.6157935e-02  -2.8436101e-02  -7.8752673e-01  -6.9509106e-01  -9.3668718e-01  -9.5830217e-01   8.6283866e-01   6.6152290e-02  -7.2892534e-01  -8.8889228e-01  -2.3106265e-01  -8.6767540e-01   7.3332247e-01   2.5804648e-01  -2.7836080e-01  -6.4828706e-01   3.5819121e-01   5.1894365e-01   6.2032792e-02  -9.6317787e-01   9.5133212e-01   6.9089506e-02   8.3927107e-01  -1.1351904e-01  -5.0606986e-01   4.0503030e-01  -1.2067404e-01   3.2644144e-01   1.0219597e-01  -4.6232283e-01   8.4668253e-01   2.7290899e-01  -9.3836211e-01   2.0042334e-01  -3.6948338e-01  -1.7404551e-01  -5.0563114e-01  -6.2358603e-01  -8.1226168e-01   6.4574113e-01  -2.3950537e-01   8.5808944e-01  -5.7674265e-01  -3.0392694e-01  -4.8193369e-01  -2.9061714e-01  -9.4321425e-01   6.8327727e-01  -4.6991734e-01   2.9694058e-01   9.1597248e-01  -7.5805523e-01   1.1046522e-01   4.6588999e-01   9.6725999e-01  -5.9913601e-01  -1.5040374e-01  -3.9023421e-01  -2.4925751e-01  -5.0884969e-01   4.1631465e-01  -6.4685333e-01   5.0289589e-02   5.3590387e-01  -7.0575012e-01   7.5177204e-01  -8.6993291e-01   4.0690626e-01   7.8785789e-01   9.6554902e-01  -3.1188627e-01  -1.3945087e-01  -9.8010653e-01   7.9262660e-01  -6.8678949e-01  -3.3753868e-01  -7.5601423e-01   6.0181061e-01  -4.9176821e-01  -8.4725473e-01   5.3238097e-01  -9.8773758e-01   5.6212396e-01   2.6185057e-01  -9.5613652e-01   1.4865240e-01   9.7073759e-01   7.0025860e-01   2.6126086e-01   9.1841909e-01  -7.5650567e-02  -1.6110157e-01  -3.3271150e-01   8.8886947e-01  -9.7507731e-01  -1.3186997e-01  -3.6419146e-01  -5.4124849e-01   3.5173641e-01  -8.6992699e-01   1.9493714e-01  -6.4630558e-01   4.6360201e-01   1.8327274e-01  -8.2659536e-01  -4.3082251e-01  -3.0325901e-02  -8.8549493e-01  -5.5736302e-01   1.1699575e-01  -1.6716072e-01  -4.2402470e-01  -3.6892286e-01   7.8254976e-01   7.7951050e-01  -2.0547724e-01  -7.7587767e-01  -7.1904377e-01  -5.6672879e-01  -4.5922030e-01   2.1663232e-01  -1.7362751e-01  -8.0489893e-01  -9.3489744e-01  -1.5938887e-01   5.9079979e-01   3.5880847e-01   2.8191659e-02   6.3207948e-01  -3.0394736e-01   7.4479998e-01   9.7263921e-01   8.5000564e-01   2.6755641e-01   4.2290237e-01  -2.7746432e-01   6.7732957e-01  -6.2563538e-02   7.0957193e-01   7.9200719e-01  -1.3771792e-01   4.4570645e-01   6.3987642e-01   9.6986407e-01   1.6654684e-01   8.9524826e-01   7.1896731e-01   8.3005729e-02  -2.2904121e-02   6.7740645e-01  -2.2666293e-01   7.7499104e-02  -1.1598613e-01  -8.5071724e-01   8.7379518e-01  -9.4099849e-01  -6.4473110e-01  -9.1569155e-01   9.0495356e-01   1.7507945e-01  -4.4938388e-01  -1.0784341e-01   5.0089743e-01  -2.9241776e-01   6.7775429e-01   1.3738322e-01  -6.4836024e-01  -4.9340241e-01  -5.7731335e-01   7.6831430e-01   5.5953501e-01  -8.4623914e-01  -5.9146987e-01  -1.5692401e-01  -9.4533563e-01  -2.9932756e-01   8.9850189e-01   1.8202822e-01   1.0198994e-01   7.5478088e-01  -4.3754301e-01  -1.7460706e-01   6.1829149e-01   4.3857863e-01   1.5896970e-01   9.7864739e-01   8.9980357e-01  -8.5260521e-01   2.7809851e-02  -4.3494812e-01  -3.5803483e-01   5.1045124e-01   7.2583864e-01   8.2644535e-01   1.1114233e-01   9.2237402e-01   1.6701792e-01   5.6838067e-02  -7.9765429e-01  -5.2565438e-02   2.9093872e-01   4.9448804e-01  -5.5434083e-01   6.0414531e-01  -2.2497823e-01   2.6681687e-01   6.5759559e-01  -6.2818072e-01  -8.3167879e-01   9.4744431e-01  -6.4280090e-01  -7.2112920e-01   8.6475168e-01   8.9896649e-01  -6.1428501e-01   5.4617826e-01   9.2172066e-01   5.6565359e-01  -9.5646756e-01  -1.3111931e-02   7.4661813e-01   3.5083802e-01  -7.9102078e-01  -2.7536257e-01  -4.3036849e-01  -6.7621131e-02  -8.3831573e-01   9.7009199e-01  -9.0237642e-01   9.9064823e-01   9.2885092e-01   4.1411427e-01   1.1580016e-01  -6.0581221e-01   7.0549661e-01   7.8327367e-01   8.2992215e-01   1.0100129e-01  -4.2041954e-01   5.5037312e-01   6.7697189e-01  -5.6360239e-01  -9.3933986e-01  -2.4464305e-01   2.4489516e-01   5.1626013e-01   9.9280595e-01   1.2938214e-01   2.2358706e-01  -7.2875832e-01   9.9994302e-01  -3.6267605e-02  -5.7342788e-02   5.1672709e-01  -2.3251717e-01   5.6075433e-01  -3.5205039e-01   4.7933380e-01  -7.4279998e-01  -1.6031665e-01   4.7065897e-01   9.9735323e-01   6.0114644e-01   6.6265440e-01   7.2299889e-01  -1.3352187e-01   9.3253257e-01  -9.9936649e-01  -1.7168491e-01  -5.9904303e-01  -3.4376031e-01  -4.9585797e-01  -2.9846145e-01  -4.0619642e-01   3.5479066e-01   1.3191315e-01   2.8163732e-01  -2.5189197e-02  -1.9749373e-01   3.7969913e-01   7.8613667e-01  -6.5504958e-02   6.0351219e-01  -7.2000762e-01   8.6244508e-01   1.1460013e-01   9.4878101e-01  -5.3905808e-01  -6.3099416e-02  -3.7949410e-01   8.7441482e-01  -6.4566654e-01   4.9584544e-01   3.1777256e-01  -4.3755338e-01  -1.8958550e-01  -7.3380937e-01   1.7285843e-01  -6.4091583e-01   8.7463411e-01   9.2444098e-01   8.5359778e-01  -8.7505941e-01   7.2093231e-01   9.6048657e-01   4.2726718e-01   7.8095345e-03   3.4754953e-01  -7.0418161e-01  -2.1363283e-01  -6.6941958e-01  -9.9799251e-01  -5.0976951e-01   4.5496810e-01   2.4351698e-01  -2.8037213e-01   3.5688518e-01  -6.3863155e-01   5.9837645e-01  -5.0292507e-01  -8.6625429e-01  -3.2581496e-03  -6.9827740e-01  -3.2386981e-01   6.7241834e-01   2.4748333e-01  -4.8074870e-01  -6.6451506e-01  -6.3836968e-01  -7.4423268e-01  -7.2870512e-01  -7.7227605e-01  -2.7677519e-01   7.2043149e-01   3.2515054e-01   9.9077041e-01   3.7164241e-01  -2.2686850e-01   3.0330547e-01   8.9398637e-01  -1.4610720e-01   2.3538289e-01   6.6844324e-02   1.4164474e-01   8.5650278e-01   8.8549534e-01  -8.9335035e-01  -7.7109402e-02   1.8707924e-01   3.8202480e-01   3.3566036e-01  -1.5586958e-01   7.5049024e-01  -1.9587776e-03  -1.4364094e-01   3.7561640e-01   9.8502870e-01  -1.8959219e-01  -5.9627034e-01   5.5098288e-01   2.8967447e-01  -1.3593445e-01  -4.9556392e-01  -6.6715665e-01   7.0135111e-01  -6.6477191e-01  -2.0775191e-01  -5.3953629e-01   1.8109915e-02  -2.1934366e-01   7.0548909e-01   1.5513220e-01   5.3341603e-01  -7.3170531e-01  -7.5566707e-02  -8.1436675e-01   2.8622132e-01  -5.6014041e-02   5.2326325e-01  -9.1329876e-02  -6.4037080e-01  -5.1901574e-01  -6.1898390e-01   2.3991136e-01   4.9944605e-01  -9.2281537e-02   3.8114816e-01   6.2116537e-01  -1.9965526e-02  -3.9682492e-01   7.6407259e-01   4.7396034e-01   4.4104913e-01  -8.6091754e-01   7.3989338e-01   4.7787496e-01  -1.8469596e-01   2.6745910e-01  -3.8409482e-01  -3.1954141e-01   3.4989419e-01   8.1623859e-01   3.6940192e-01   3.7729148e-02  -6.2326903e-01   9.6997080e-01   5.4985826e-01   8.1018161e-01   9.0750432e-01   5.8321348e-01   3.4997539e-01  -1.9244275e-01   7.1036089e-01  -3.1356548e-01  -1.3682624e-01  -7.4479076e-01  -1.7387238e-02   3.2697049e-01   5.7149230e-01  -3.7130715e-01  -7.9228475e-01  -3.6200013e-01  -5.9475604e-02  -1.3262912e-01   9.6217444e-01  -4.0037585e-01  -5.4311369e-02  -3.0218401e-01   6.4331834e-01  -8.1254296e-01  -8.5719762e-01   1.9609214e-01   7.6585886e-01   8.4602338e-01  -5.5700002e-01  -1.0030801e-01  -5.1358260e-01  -4.6111208e-01   3.7470379e-01  -9.8933793e-01   7.6267484e-01  -3.7443863e-01   8.2777323e-01  -9.4169599e-01   2.2008351e-01  -9.0137178e-01  -8.6093179e-01  -1.7572628e-01  -7.7311467e-01  -8.4280673e-01  -9.2543056e-01   6.4890161e-01  -8.5143697e-02   2.1289836e-02   5.5873951e-01   3.1454461e-01   4.5031868e-01  -4.7162911e-01   7.0705585e-01  -6.3428460e-01   2.6777758e-02   7.8596291e-01   3.0556167e-01  -3.3038270e-01   8.9168840e-01  -7.5687831e-02   5.7243330e-01  -8.1162160e-01   1.5415704e-01   7.7245370e-01   4.5375632e-02  -5.1513902e-01  -4.2244275e-01  -5.8117854e-01  -5.1618623e-01   7.8420806e-01  -5.6641955e-01  -3.9273436e-01   7.8800698e-01   7.1566315e-02   9.5200005e-01   3.7821097e-01   6.3657641e-01   1.8667056e-01  -7.5082512e-01   2.4914019e-01   8.2552957e-01   9.5836592e-01  -2.5415346e-01   2.0117966e-04  -1.6274982e-01   8.8685361e-01   6.2152153e-01   1.4333860e-02   7.2976751e-01   3.6910558e-01   3.7130359e-01   6.4661247e-01   3.0173179e-01  -3.1764959e-01  -2.2645835e-01   4.4649505e-01   9.5281081e-01  -6.7866032e-01  -5.1867678e-01   6.6752046e-01   4.1263547e-01   9.8644261e-01   2.6534771e-01   7.5161236e-01  -5.6320665e-01   4.8952457e-01  -9.5161622e-01  -5.8280177e-03   5.8393118e-01   7.5390592e-01   9.1679124e-01  -5.6807120e-01   7.4199118e-01  -9.7485638e-01  -8.3438477e-02   4.7390968e-01   5.9511180e-02   9.3165517e-01   5.2987598e-01  -5.7596817e-01   2.6792915e-01  -4.9290230e-01   3.5736413e-01  -4.1596749e-01  -7.5162916e-01   9.9357501e-01  -7.8621873e-01  -8.3081747e-01  -6.7850150e-01   9.2342713e-01   2.4521197e-01  -6.3612161e-01  -3.2927349e-01   7.0356193e-01   8.8372333e-01  -2.0326086e-01  -1.5103732e-01   4.0712263e-01   3.3341493e-01  -8.5403367e-01   5.7072310e-01  -2.1747694e-02  -4.0462979e-01  -7.9408287e-01   9.1559178e-01   3.8941901e-01  -1.6669173e-01   1.6413368e-02  -5.8419667e-01   3.3522976e-01  -7.3481229e-01  -8.3835981e-01  -2.1792210e-01  -6.9960050e-01   3.1783543e-01  -3.3007555e-01  -4.8679957e-01  -6.2480812e-01   9.3131290e-01  -1.7654918e-02   1.0639416e-01  -5.3738966e-01  -7.5037698e-02   1.9277325e-01   9.5573356e-02  -6.8546166e-01   6.3483869e-01   2.9854329e-01   1.9571149e-01  -6.8499712e-01   4.3351379e-01   3.7351270e-02  -2.2018964e-01  -8.4469698e-01   1.8956906e-01   1.1056679e-01   4.7046311e-01  -4.7356028e-01   7.4262648e-01   1.2714828e-01  -8.3905322e-01   5.1465920e-01  -2.0493067e-01   1.3033446e-01   9.1174898e-01  -5.7802005e-01   7.6580620e-02   7.4984373e-01  -1.6539816e-01   3.2972088e-01  -7.5458799e-01   4.4439652e-01   2.0082409e-01  -7.8153019e-01   9.4977048e-01  -6.1045834e-01  -7.0208160e-01  -1.2775531e-02   7.2595771e-01  -4.7603307e-01  -4.2796244e-02   6.2417005e-01  -7.2005979e-01   4.5505168e-01   1.6724880e-01  -8.4937565e-01   3.2445893e-02  -2.4467736e-01  -4.0773613e-01   1.2273384e-01  -7.1001389e-02   1.7051925e-01  -1.6120646e-02   3.1705696e-01   3.6526671e-01  -8.6436816e-01  -9.6813133e-01  -2.7187636e-02  -9.6120754e-02   9.7406588e-01  -6.6111650e-01  -8.9090898e-02   4.2558189e-01   4.5246558e-01   4.2807720e-01   9.3399528e-01  -9.3804018e-02   9.3545751e-01   4.5681154e-01   4.8653513e-01   4.8551770e-01  -9.6678239e-01   3.3873699e-01  -6.9150947e-01   4.1181882e-01   6.7438339e-01  -6.5906053e-01  -7.3936590e-02   4.6164984e-01   4.6690786e-01   6.3906523e-01  -3.1039895e-03   8.2664082e-01  -4.5922878e-01   7.4095959e-01  -6.2540693e-01   9.2695991e-01  -2.1978110e-01  -3.1271335e-01  -6.3452132e-01  -1.8484643e-01   6.6899506e-01  -3.5635270e-01  -8.5491417e-02  -2.9377192e-01  -1.3984840e-01  -1.7894303e-01   3.7739894e-01  -2.2388346e-01   1.9005164e-01  -3.6252106e-01   2.2485986e-01  -9.9378718e-01   4.5569082e-01  -6.0305847e-01   9.2332299e-01  -1.8128463e-01  -5.3472663e-01   6.8001924e-01  -4.4393455e-01  -4.2584286e-01  -5.2708051e-01  -8.3534640e-01  -9.4331634e-01   4.0042519e-01  -3.7761617e-01   1.1749678e-01   3.0913050e-01  -3.0520134e-01  -5.3471306e-01  -5.5198962e-01  -6.4073889e-01   9.7489210e-02  -1.3267400e-01  -1.9667105e-01  -5.2315778e-01  -6.0292540e-01   1.7890475e-01   7.3229136e-01   2.0452004e-03   6.0640831e-01   1.7109599e-01  -3.6884628e-01   5.5450997e-01   9.8825123e-02   7.4122174e-01  -7.8134936e-01   8.1777873e-01  -6.7246145e-01  -5.9832724e-01  -8.4126370e-02   3.2428751e-01  -3.6104379e-01  -7.1712997e-01   4.8120175e-01  -5.1360427e-01  -1.9378035e-01   5.1629708e-01   9.6957345e-01   1.9510559e-01  -6.8411489e-01  -7.3477403e-01  -1.9511785e-02   3.3028050e-01  -2.2162067e-01   2.5200869e-01   4.1852427e-01   9.5198619e-01  -9.7697909e-01   8.8761072e-01  -5.6446906e-01  -1.5442121e-01  -9.3437754e-01  -4.3896668e-01  -2.2994719e-01   6.5251312e-01   5.7434683e-01  -5.5503881e-01   1.8087955e-01   3.3562661e-01   4.9222170e-02   8.0189625e-01  -5.7873610e-02   6.7036274e-01   1.9122558e-02   9.7659718e-01   5.4384501e-01   7.1528828e-01  -6.0638876e-01  -5.8629246e-01   6.3242556e-01   3.2624517e-01   3.0847941e-01   5.5783275e-01   3.8691061e-01   1.9949963e-01  -3.3774096e-01   9.8249508e-01   8.3064809e-01  -1.8998168e-01   9.3805358e-02  -9.9529918e-01  -6.4681212e-02   6.2360944e-02  -9.5800455e-01   3.1100777e-01  -4.6653155e-02  -6.0782884e-01  -5.7258598e-01  -4.6483072e-01  -1.5987604e-01   4.1549536e-01   6.9704740e-01  -8.3276443e-02  -6.3577055e-01  -4.5298389e-01   2.6553360e-01   1.8148650e-01   2.3175157e-01   9.7929366e-01   5.6445341e-01   5.2473338e-01   7.9711306e-01  -8.6674169e-01   7.9697154e-01   8.9232525e-01  -1.5355402e-01   4.8080928e-01  -1.9119876e-01  -5.2369258e-01   9.6217057e-01  -5.4073943e-01   1.5270324e-01   8.5433881e-01  -5.6932556e-01  -4.7497570e-01  -3.8503528e-01   8.1588233e-01  -4.7960337e-01  -7.0146495e-01   8.5966812e-01   6.4497546e-01  -2.5376836e-01  -6.3950865e-01   9.5022946e-01   1.2410054e-01   5.3584264e-01  -7.2751383e-01   3.5874410e-01  -6.1301474e-03  -1.4302500e-01   8.2422302e-01  -2.6223213e-01   3.0865913e-01  -1.6475031e-01   3.3896443e-01   4.9639548e-01  -5.9163561e-01   4.2102251e-01   4.7832554e-02  -9.8504095e-01   9.7122661e-01  -5.6518676e-01  -3.0010745e-01  -4.1254043e-01  -1.8467899e-02  -8.2405789e-01  -3.5660270e-01   2.3912854e-01  -1.2600578e-01  -5.8759003e-01   7.5394235e-01   5.1520527e-01   8.7568717e-01  -5.0092899e-01   7.5230957e-01  -6.9044667e-01   3.8646186e-01  -6.0829039e-02   4.2309038e-01  -5.1768224e-02   3.3214159e-01  -8.9540832e-02   8.3092246e-01   8.8420993e-01  -7.8407897e-01   3.0958375e-01   2.9351064e-01
   1.4493407e-01   8.6556268e-01  -5.6644618e-01   8.3572783e-01   2.2021559e-01   3.5354930e-01   5.1824308e-01   1.4852049e-01   9.5444081e-01   9.7581363e-01   5.5630495e-01  -7.0882084e-01  -9.9020123e-02   4.6495107e-01  -6.4336579e-01  -3.5435923e-02   9.1804920e-01   4.4543390e-01   6.4987361e-02  -8.6804346e-01  -1.1595188e-01  -7.3626388e-01   1.2601290e-01  -8.2998219e-01  -6.8083215e-01   2.7579606e-01   6.0487385e-01   7.5668864e-01  -5.3490502e-01  -6.9466862e-01   7.3466304e-01  -5.7440522e-01  -6.6875752e-01   8.4187534e-01   2.2780273e-01  -3.0280787e-02  -4.7736790e-01   2.2596404e-03   7.3711404e-01  -4.1482767e-01   7.0063559e-01   9.4514719e-01   1.3557183e-01  -6.7578084e-01   1.3188650e-01  -3.0553376e-01  -7.4806298e-01  -1.3832391e-01   4.2611243e-01   8.5174095e-01   7.1548845e-01   2.1258548e-01  -4.8404664e-01   6.9660022e-01  -5.2889482e-02   2.5098725e-01  -4.5860429e-01  -5.7959622e-01  -6.2680525e-02  -5.6819771e-01   9.6940996e-01   8.0256225e-01  -6.9493345e-01  -5.4722358e-01  -5.5500194e-01   4.7394296e-01   5.5051298e-02  -3.4908359e-01   5.5454923e-01  -6.9006334e-01   9.5742153e-01   6.5757178e-01   7.4061421e-01  -1.0268402e-01  -1.6185478e-01   3.8955383e-01   4.4204339e-01   7.3607013e-01   2.6156218e-01   2.0788236e-01   4.5176693e-01  -9.1809088e-01  -9.3789324e-01  -3.8870348e-01  -1.2735561e-01  -4.1171191e-01  -2.4975412e-01   9.7052670e-01   6.9765997e-01  -6.7591257e-01   4.4647772e-01  -5.1948843e-01  -5.7923639e-01  -9.5155376e-02  -4.4627557e-01   5.2483935e-01   8.0403207e-01  -4.2031447e-01   5.0228573e-01  -7.8896292e-01   9.3882320e-01   9.0557919e-01   3.3470490e-01  -4.7678956e-01  -2.6307913e-01   1.4217168e-01   2.6363032e-01   7.3075605e-01  -5.2876604e-01  -5.6428819e-01  -2.4620009e-01   4.4121633e-01  -2.0181719e-02  -6.6960213e-01   6.2062024e-01   3.6049086e-01   8.8330529e-01   6.7700934e-01  -4.0377191e-02  -5.8646231e-01  -5.4460421e-01  -3.0721664e-01  -7.5671280e-01   1.8202254e-01  -8.7909994e-01   5.5258479e-01  -3.0399854e-02  -3.0865073e-01   2.0310483e-01   8.0873221e-02   5.4226960e-01  -7.8461423e-01   2.2023081e-01   5.1491243e-01  -1.2415886e-01   3.8592649e-02  -1.9664174e-01  -1.2352449e-02  -8.0414028e-01  -6.4447183e-01  -3.7816792e-01   3.4817021e-01   2.6861135e-01  -9.4772617e-01   3.3784262e-01   7.7554617e-01   4.9187252e-01  -2.9425620e-01   5.1260833e-01   1.1577772e-01   4.8460863e-01  -7.7761524e-01  -1.4598528e-01   5.1079901e-02  -1.4385245e-01   1.7953982e-01  -3.7422433e-01   1.4475813e-01  -9.9359178e-01   3.4160930e-01  -8.3533900e-01   7.4583732e-01  -1.8134140e-01  -2.4910563e-03  -6.8938891e-01  -8.4378353e-01  -9.8693363e-01   7.6284288e-01  -4.4457574e-01   9.3198560e-02  -8.1208569e-01  -3.1643554e-01  -7.9076838e-02  -2.4112166e-01  -6.0137322e-01   8.0920910e-02  -7.8865739e-01   6.7190572e-01  -1.4400196e-01  -9.7110565e-01   3.3377657e-03  -8.8690850e-01  -5.2881213e-01  -1.3230334e-01  -9.7899908e-01   6.0942363e-01  -9.2973646e-01  -7.3198638e-01  -5.5264437e-01   7.4683246e-01   6.9873271e-01   4.4166759e-01  -4.8345484e-01  -8.7361753e-01   7.5936290e-01   6.3255909e-01  -1.4486980e-01  -4.6228047e-01  -5.5452909e-01   8.5899799e-01   7.7825745e-01  -1.8487418e-01   2.8115045e-01  -7.4129035e-02  -7.0665861e-01   5.7075494e-01   8.1418193e-01  -3.6260706e-01  -9.2252588e-01  -8.1367019e-01  -7.5396898e-01  -9.5549125e-01   8.2831820e-01  -8.7654692e-01   4.9172313e-02  -1.6280199e-01  -6.6114322e-01   4.0426928e-01   4.4954283e-01  -4.1604319e-01  -8.3869143e-01  -3.0221451e-01  -8.4175267e-01  -2.5495978e-01  -1.7348642e-02  -2.9217609e-02   1.7515265e-01  -2.2922992e-01  -5.5363494e-01  -4.0309653e-01   3.8173207e-01   1.1630082e-01   2.0727895e-01   2.6895877e-01   4.0013195e-01   3.9801422e-01  -2.7225042e-02   7.3481161e-01  -2.7809920e-01   6.9952397e-01  -9.2696937e-01   4.3105086e-01  -8.1986603e-02   9.4017515e-01  -6.6352070e-01  -3.7124935e-01  -6.0596248e-01  -7.5106868e-01   6.4878157e-01  -8.5289997e-01  -5.9763021e-02  -6.5109708e-01  -9.1619856e-01   1.8805045e-01  -1.1182086e-01   7.9288555e-01   7.3625599e-01   4.9461419e-01  -2.4363885e-01  -8.9870760e-01   2.3476110e-01  -1.6476795e-01   5.5638837e-01   9.4752264e-01  -2.5193058e-02   4.8580129e-01  -1.5019235e-01   5.9758694e-01   3.3877380e-01  -8.2988998e-01   1.6842728e-01  -4.9525996e-01   5.2269303e-01   1.5869227e-01  -9.6833629e-01  -9.1198717e-01   2.9813483e-01  -8.4941630e-01  -3.3395273e-01  -8.7633653e-01   6.6888554e-01   2.2887094e-01   9.6020890e-01   7.6766878e-01  -4.0796283e-01   5.3691177e-01  -4.4723419e-01  -7.6195192e-01  -1.8339492e-01  -1.2726996e-01  -7.9711391e-01   9.0775698e-01  -4.7261079e-01  -8.0817757e-01  -9.8370800e-01   1.0302117e-01  -8.9638216e-02   8.5384475e-01   1.6588090e-01  -3.5736540e-01  -9.5868387e-01   8.6808425e-01  -9.9725978e-01  -3.0531520e-01  -5.5982818e-02  -7.5235512e-01  -3.1268586e-01   6.5439713e-01  -3.5834381e-01  -7.5320931e-01   2.5937493e-01   5.5715371e-01   6.1576701e-01   3.5750997e-01  -1.5137913e-01   2.7877167e-01  -5.5466475e-02  -4.4813854e-01   3.4705782e-01   4.0213987e-01   6.5380468e-01  -7.2567401e-01  -9.4550553e-01  -4.9325030e-01  -8.7537132e-01   1.5605639e-01   9.4539727e-02   5.8518175e-01  -1.8868326e-01   6.3645517e-02   3.3520646e-01  -9.4961854e-02   8.3580708e-01  -1.7172851e-01  -7.4149349e-01  -6.3225765e-02   5.8611058e-01   6.7442415e-01  -3.9485070e-01   4.6004501e-01  -6.3758535e-01   5.9884138e-01   7.8433935e-01  -5.0125126e-01   4.8730156e-01  -6.5846809e-01   2.4973250e-01  -1.6236948e-01   6.3605494e-01  -5.6852951e-01  -1.7924231e-01  -5.4829626e-01  -1.1486868e-01  -1.6473901e-01   7.7661382e-01  -8.9503660e-01  -8.4520148e-01   7.0965033e-01   3.2501257e-02  -3.1379310e-01  -7.9723815e-01  -9.3257524e-01  -3.1892419e-01  -2.3225581e-01  -3.8784465e-01   3.8330179e-01  -3.8959850e-02   7.6415482e-01   6.5160870e-01   3.4488825e-01  -1.1183163e-01  -1.3008393e-01  -1.9482769e-01   5.2503951e-01   2.3160854e-01   3.0512724e-01  -1.7911976e-01   9.0401730e-01  -4.5437826e-01  -5.5273200e-01   7.9589420e-02  -1.3567553e-01  -2.0728545e-01   1.2791024e-01  -5.7760410e-01  -5.5497508e-01  -6.4060991e-01   3.5040546e-02   2.3611117e-02  -2.2340088e-01  -2.8328955e-01   7.0413168e-01   4.4021664e-01   4.2048740e-01   6.8445447e-01   3.2004590e-02  -3.5608291e-01  -8.4111952e-01  -6.8710231e-01  -4.1523206e-02   8.8146820e-01   1.6663064e-01  -5.1572393e-01   4.5497354e-01   7.2692981e-01   2.8921702e-01  -1.3109809e-01   8.0703116e-01  -7.7825390e-01   2.3312553e-01   7.8731143e-01  -1.1386194e-01   5.4715204e-01  -7.7356146e-01   1.0790010e-01  -6.6881480e-01  -3.9288616e-01   6.4884674e-01  -1.7912052e-01  -5.7709449e-01  -5.0002305e-01  -7.9304813e-01   6.2339480e-01   4.1987217e-01   2.5290931e-01   6.8261051e-01  -6.7091375e-01   6.3840110e-01  -1.3526974e-02  -5.3397538e-01   2.9587982e-01   9.8595460e-01   2.9233508e-01   9.6313881e-01  -1.5705661e-02   7.6218066e-01  -5.7270069e-01   4.4955765e-02   3.1586256e-01   3.4829580e-01  -4.3807678e-01  -5.8465031e-01  -6.3366990e-01  -1.4739888e-01   3.0516264e-01  -8.8326956e-01  -7.2364247e-02  -9.1917719e-01  -8.1926892e-01  -7.3940559e-01   8.5868980e-01  -8.6596648e-01  -5.4552335e-01  -3.5817495e-01  -5.9242890e-02   4.0408137e-01   2.0937991e-01   3.6623445e-01  -5.6598844e-01   6.1410211e-01   1.2215739e-01   1.7120810e-01   6.4189059e-01  -1.0465117e-01  -5.0722434e-01   6.1143205e-01   4.2410580e-01   4.1102758e-01  -8.9707669e-01   1.5689015e-01   3.1458681e-01  -9.5725043e-01   7.2993291e-02   8.0214622e-01   1.8944611e-01  -9.6596141e-01  -8.4813846e-01   2.7698348e-01  -7.9378526e-01   7.0710209e-01   3.0488279e-01   1.5026841e-01   5.6695091e-01   7.3679045e-01  -8.1407613e-01   5.3707677e-01   5.0358957e-02  -1.9351736e-01   5.3633170e-01  -8.3487535e-01   9.0581087e-01   2.2775198e-01  -6.0690585e-01  -9.3656724e-01  -7.2647745e-01   7.2083711e-01   6.6415561e-01   2.6857366e-01   9.8084822e-01  -5.0912570e-01   4.6969218e-01   1.4183204e-01  -4.5330988e-01  -7.9532828e-01  -6.0611030e-01  -8.4176060e-01   2.3421450e-01  -2.1955193e-01   2.0737982e-02  -3.1938335e-01  -7.3883018e-01  -8.0520242e-01  -1.8668790e-01  -9.2485330e-01   6.2289984e-01  -3.6372277e-01   9.8980687e-01   1.6454045e-01   3.3698134e-01  -4.5713361e-01   5.4111785e-01  -8.0098134e-01   7.8849207e-01  -9.0385919e-01  -4.0288648e-02  -4.0439188e-01  -7.8895171e-01  -2.3902601e-01   4.1660216e-01   3.4891527e-01   9.2392866e-01  -3.3627588e-01  -6.3523964e-01  -9.0766700e-02  -2.7826662e-01  -3.9424315e-01  -2.2950055e-01   3.3783546e-01  -5.7155052e-01   9.8610056e-01  -8.1528522e-02  -3.3202725e-01  -2.3299871e-01  -4.2971228e-01  -9.3993921e-01   6.3030123e-01  -1.8127412e-01   9.0293338e-01  -5.9225932e-02   2.0024115e-01   8.1614552e-02  -3.7739378e-01   3.2789008e-01   9.9012122e-01   5.1269862e-01   4.5111648e-01  -5.5139880e-01  -4.3642651e-01   7.7781373e-01  -5.0124698e-01  -6.4360788e-02  -8.8766623e-01   4.4899507e-01   3.1887961e-01   1.4230602e-01   5.5552288e-01  -7.7941841e-01  -5.6536824e-01  -1.9515029e-01  -2.7241868e-01  -9.0412686e-01   6.2033691e-02   4.7957939e-01  -7.3354466e-01   3.1937907e-01  -5.2238874e-01  -1.6597814e-01   7.2240496e-02   1.7736310e-02   7.4486036e-01   6.7770026e-01   2.0021376e-01   2.0741474e-01  -6.3979270e-01  -3.4190244e-01  -8.8085250e-01  -5.3791255e-01  -4.0504922e-01  -7.5749413e-01   3.7546269e-01  -4.2957569e-03   4.8418427e-03   1.1666410e-01   9.6054027e-01  -8.3830725e-01  -2.5861789e-01  -1.6378947e-01   8.9007550e-01  -3.4105374e-01   5.8271243e-01  -2.1636642e-01  -1.1811043e-01  -7.1363920e-02   9.4820155e-01  -3.7451883e-01  -5.2112424e-01   9.0196273e-01  -6.5018784e-02  -4.8842323e-01  -4.4368766e-01  -4.7159237e-01   6.8053821e-01   9.8607564e-01  -7.5633052e-01   8.3054091e-02   5.0607047e-01  -9.1667022e-01  -5.3453683e-01   3.8457183e-01  -3.5010942e-01  -9.3261631e-01   6.1101528e-01  -6.6915546e-01  -4.8043904e-01   2.2442798e-01   4.3565011e-01  -3.1302321e-01  -1.8251342e-01  -6.2445823e-01   4.6441094e-01  -3.6957138e-01   9.2004676e-01   4.7147178e-01   1.5314990e-01   5.3102380e-01   2.6139620e-01  -1.5361971e-01   2.2852404e-01   6.4129619e-01  -1.6024589e-01   5.9454467e-01   9.1973054e-01   7.9158537e-01  -1.4025349e-01   5.3237197e-01   9.5799083e-01  -7.2601868e-01   5.9527247e-01   6.2663186e-01   8.1019844e-01   9.9350898e-01   7.3946954e-01  -9.5556000e-01   3.6633540e-01  -1.0697123e-01   8.2889451e-01   5.3426391e-01  -2.2707414e-01   3.7635310e-01   6.3644876e-01   9.1003591e-01   6.3825349e-01   8.7051515e-01   3.6512968e-01   9.2562212e-01   5.2727198e-01   6.1790843e-01  -6.7381500e-01   4.5097578e-01  -2.4847265e-01   4.1429014e-01  -6.3640025e-01   9.8570505e-01   8.5083502e-01   3.5694341e-01   5.9566146e-01  -2.1234530e-01   6.8844363e-01   4.7645074e-01   9.5763977e-01   5.3364574e-01   9.4314736e-02  -3.5508298e-01  -6.8432406e-02  -1.2342724e-01   2.4030569e-02   9.8378026e-02  -5.5039004e-01   7.1252961e-01  -6.7602550e-01  -1.8046826e-01  -2.9309731e-01  -3.8739117e-01  -3.1094908e-01   3.8857402e-01  -5.5483018e-01  -9.5841791e-02   2.8616684e-01   6.1616527e-02   3.5578280e-02  -2.0326710e-01   1.4526216e-01  -6.4285927e-01   8.4237389e-01   8.5625840e-01  -4.2096855e-01   6.7295420e-03  -7.9453431e-02  -1.3059025e-03   3.4700886e-01   2.4238372e-01   4.2503047e-01   7.0763315e-01  -5.7056920e-01   4.3470356e-01  -3.2362579e-02  -1.1303654e-01   9.9936588e-01  -3.3005225e-02   4.6466088e-01  -2.2482474e-01   4.5414523e-01   9.3115336e-01  -9.9664477e-01  -8.6563105e-01   4.6645346e-01  -7.3099546e-02  -3.3926466e-01   5.6818815e-01  -1.8570058e-01  -8.2217395e-01   2.9815250e-01   7.2534557e-01   1.5448942e-01  -8.0328196e-01   9.0319623e-01   2.4534941e-01   2.1473979e-01  -2.9273127e-01   5.5677552e-01   7.5112545e-01  -9.4408748e-01   2.8734727e-02  -4.3315874e-01   8.9983556e-02   9.5895774e-01  -2.2413990e-02  -2.1264372e-01  -9.0897028e-01   3.3475820e-01   2.3197565e-01   2.7362333e-02   9.8089263e-02   1.4115737e-01  -3.2178101e-01   3.7400138e-03   8.1382419e-01   1.7854893e-01   9.7817952e-01   6.3731158e-01  -7.8101022e-01  -2.3321198e-01  -3.0532368e-01   7.5926906e-01  -2.7044744e-01   1.3901727e-01   1.2866524e-01   5.9996927e-01   7.3359412e-01  -8.4717522e-01   1.6559673e-02   5.4504017e-01  -4.7271362e-01  -2.2100366e-01  -2.7315759e-01  -9.3355837e-01   6.9859448e-01  -4.1046636e-01   5.9256216e-02  -4.2283769e-01   8.1937247e-01  -5.7559787e-01  -9.6653909e-01   6.3583395e-01  -6.3175849e-01   9.8263421e-01  -7.4495617e-01  -6.2764202e-01   5.3641938e-01   7.2825116e-01  -2.9395636e-02  -3.1800040e-01  -2.9658199e-01  -8.1539316e-01   5.5871824e-01   9.5339224e-01   9.0194916e-01   4.1332105e-01  -6.2233845e-03   6.2554102e-01   6.8275717e-01   7.8404738e-01   9.5854568e-01   6.0201652e-01   9.2140329e-01  -9.3409700e-01   8.7625440e-02   3.6799863e-01  -4.6883529e-01   2.6322912e-01  -7.0396047e-01   1.9095399e-01   7.8093742e-01   3.1084132e-02  -7.4508814e-01  -5.3621360e-01  -6.2488640e-01  -4.5720168e-01  -7.8025679e-01   5.2045510e-01  -2.3464443e-01  -3.7807544e-02   1.8882517e-01   9.8449428e-01  -4.1783655e-01   9.6583155e-01  -8.5400156e-01  -4.2360500e-01   4.3850998e-01  -1.9451444e-01  -5.0121670e-01  -8.1010678e-02  -7.5193528e-01  -7.6689134e-02  -1.0995725e-01   8.8381440e-02  -1.1160384e-01   5.7965924e-01   5.3637119e-01   4.1274791e-01  -5.0797264e-01   5.8975944e-01   9.8740680e-01   9.6150428e-01   3.7205275e-01  -1.2248193e-01   8.5829459e-01   3.9759781e-02   3.2114055e-01  -5.9391106e-01   4.6467928e-01  -5.4894689e-02   2.1578824e-01  -8.4964964e-01  -4.8287762e-01   4.6902211e-01  -3.5743301e-01   4.0244371e-01   4.9432632e-01   9.2358917e-01  -9.2984462e-01   4.2492863e-01   1.4169964e-01   7.4745579e-01   4.3848369e-01   6.5890828e-01   5.2266238e-01  -5.4783793e-01   9.0734101e-01  -8.9288636e-01   1.9581383e-01   1.1334388e-01   6.8955355e-01   1.1158167e-01  -5.1365585e-01  -8.5817869e-01   1.0925163e-02  -4.7921773e-01   7.7046565e-01  -1.8935546e-02   5.6381368e-01   4.8782108e-01   4.4545326e-01  -8.9703765e-01  -4.4440876e-01  -1.0875004e-01   4.7478256e-01   7.1456855e-01  -8.9477989e-01   9.6893195e-01   1.0778326e-01   8.6396962e-01   9.6365204e-01  -9.7767508e-01   3.7543401e-01   6.7865887e-01  -8.7226545e-02   3.0075044e-01   3.2990342e-01   9.6676818e-01   8.1710177e-01   3.4449627e-01   9.5113034e-02  -1.0309814e-01  -3.4589787e-01  -4.0778837e-01   7.2878024e-01  -6.4043019e-01  -5.7158306e-01  -1.0835848e-01  -9.6409531e-01  -3.7200776e-01  -2.4057040e-01  -7.7538321e-01   8.8209421e-01  -4.6540341e-01   1.3268165e-01   2.7672565e-01   8.7500335e-01  -8.5737592e-01   6.0882678e-01   9.6637443e-01   4.1493643e-01   3.7026991e-01  -8.2163579e-02  -2.9370455e-01   2.6250142e-01  -2.8717166e-01   4.2377636e-01   6.9076986e-01  -2.6070282e-01  -3.0101884e-01   3.2607913e-02   7.5080018e-01   3.9450976e-01   8.7784115e-01  -4.3206104e-02  -9.5863733e-02  -9.9124267e-01  -3.0231570e-01   7.2331029e-01   2.6958513e-01  -2.6112274e-01  -4.7728111e-01  -8.4726219e-01   5.7798346e-01   2.5756766e-01  -4.6459826e-01   8.3043867e-01   2.8040374e-01   5.9414659e-01   1.4148965e-01   6.4924595e-01  -1.7468809e-01  -5.4670117e-01  -4.9252429e-01   4.6507734e-01   7.4701122e-01   6.6590032e-02   3.4777402e-01   1.7584838e-01  -2.3930431e-01   9.5201685e-01   8.7830260e-01  -9.8950042e-01   7.0945687e-01   5.4850602e-01   1.6960819e-01   7.8415222e-01  -2.7815406e-01  -5.2927466e-01  -9.9556784e-01   2.2221803e-01  -7.4752039e-02   6.3538952e-01   4.4298726e-01  -3.8872136e-01   7.2714409e-01  -1.4122165e-01  -5.3894027e-01  -1.5168064e-02   1.5278497e-01  -5.6051905e-01   9.8313586e-01   9.7766953e-01  -8.6077509e-01  -4.8306888e-01   9.6233491e-01   7.7084803e-02   5.1851462e-01  -6.7039511e-01  -5.9041630e-02  -9.2924763e-01   2.1523188e-01   6.5010738e-01  -1.9579852e-01  -2.6264762e-01   3.2731346e-01  -8.5276525e-01   3.7733265e-01
  -5.0274055e-01   2.1064864e-01  -8.7375181e-01  -6.9813052e-02   6.0575829e-02   2.8690276e-01   4.2233035e-01  -7.9817125e-02  -1.2351358e-02   5.7388570e-01   6.0081112e-01   2.1754751e-01   9.1625515e-01  -2.9937698e-01  -5.0700753e-01   8.6970384e-01  -9.2830418e-01   3.8257804e-01   4.3440207e-02   7.9562409e-01  -4.8109076e-01   5.9857337e-01   8.1284640e-01   9.2121693e-01  -7.9075801e-01  -6.4328016e-01   5.0001474e-02  -3.3773651e-01   4.5230983e-01  -4.4185724e-01  -3.8759680e-01  -3.5466616e-01   8.1815508e-01   1.0318383e-01  -3.1630694e-01   1.0733118e-01   6.6967751e-01   1.1537900e-02   5.9162099e-01   8.7969581e-01   2.1285406e-01   8.0496559e-01   7.3551682e-01  -3.0329262e-01  -3.9866667e-01  -5.9931129e-01  -1.2208476e-01  -6.6635180e-02   1.2710081e-02   2.0703574e-02   1.7953675e-01  -8.6688916e-02   4.3271816e-01   5.8965631e-01   9.4386976e-01  -4.3526663e-01   5.3686018e-01   2.0569699e-02   4.8460281e-01  -2.6380569e-01   8.0061418e-01   8.9055793e-01   2.2506793e-01   9.1772070e-01  -3.0724566e-01  -5.9379360e-01   5.7591078e-01   5.2746945e-01   4.0601652e-01  -6.3953530e-01   8.5284180e-01   9.9297552e-01  -3.4952878e-01  -8.8134636e-01   4.7074975e-01   7.4459149e-01   2.9957702e-01  -1.6318641e-01  -4.0094969e-01  -2.8619339e-01   4.1101143e-01   6.8151095e-01  -2.5199342e-01  -4.0408051e-02  -5.3821419e-02  -8.2003375e-02   2.1255835e-01   7.3217406e-01   5.2086914e-01  -7.0541274e-01  -2.7200627e-01   2.4226685e-01  -6.2755505e-01   4.7820714e-01  -8.9141698e-01  -3.9822973e-01  -9.3144261e-01   7.2677601e-01   1.9826080e-01  -6.3843743e-01   2.2752927e-01  -1.6858315e-01   5.5859499e-01  -8.4029839e-01  -4.5529010e-01  -1.8637861e-01  -5.2968968e-01  -2.9011078e-01  -2.4750009e-01   2.5410294e-02  -7.0254739e-01   6.5188009e-01   7.5088132e-01  -2.5069788e-01  -8.6743447e-01  -6.3263750e-01  -5.3003971e-02   9.6092680e-01   6.1131518e-01  -6.1524520e-01  -3.9691861e-01   8.5734756e-01  -5.6621670e-01   6.3819282e-01   8.9010458e-01   3.2571023e-01  -5.8908487e-01  -7.0971037e-01   5.0027395e-01  -1.9359828e-02  -7.6217227e-01   1.1583085e-01   7.7331439e-01  -7.7830466e-01  -5.7866277e-01   7.4097920e-01  -9.2933904e-01   8.5669848e-01   4.9131406e-01   4.3887544e-01   5.9175113e-01  -1.6685924e-01  -1.3192926e-01   1.5753242e-01  -7.8715450e-01  -5.7516512e-01  -5.9768628e-01   5.8868062e-01  -8.4789448e-01  -7.4673025e-01  -8.6177787e-01   6.1313468e-02   1.2762312e-01   2.4754461e-01  -9.7235246e-01  -2.6698079e-01   1.2024331e-02  -7.8610060e-01  -3.6419918e-01  -9.6676841e-01  -4.5086108e-01  -1.1755224e-01   8.1708997e-02   4.1699187e-01   1.5630107e-01   4.2194370e-01  -9.1905600e-01   4.1609827e-01   9.6057264e-01  -4.8319264e-01  -8.4680187e-01  -4.4389613e-01  -1.1665861e-01   3.0232572e-01   5.5523456e-01   5.8716441e-01  -2.2669151e-01   1.5482603e-01  -4.9163043e-01  -6.8383374e-01   1.0701124e-01   5.9370774e-01   5.7699600e-02  -3.0463595e-01   7.6404094e-01  -1.9672000e-01   2.0942526e-01  -5.4661147e-01   4.3451089e-01   7.8984843e-01  -5.0985044e-01   5.3375641e-01   3.4297032e-01   2.3085222e-01  -6.7583021e-01  -9.6916334e-01  -4.2462149e-01  -6.6243833e-01  -9.5767610e-01   2.4624949e-01  -3.1381515e-01  -4.1684531e-02   4.0117578e-01  -1.4078777e-01  -2.8680739e-01  -8.0545265e-01  -9.7677327e-01  -8.3292715e-01   5.8652231e-01   6.3939205e-01   3.3831463e-01  -6.8414265e-01  -4.6853333e-02   8.5852423e-02  -1.8052954e-01  -4.7868222e-01   7.1019705e-01  -4.6983506e-01   9.8276409e-02  -8.9434279e-01  -7.5494958e-01   7.2746447e-01   6.3259319e-01  -6.2945643e-02   1.2535173e-01   9.8851613e-01   2.8175376e-01   8.6678690e-01   1.4009801e-01   1.2893937e-01   3.7132137e-01   6.6064946e-01  -6.4513960e-01  -6.9534881e-01   6.2806979e-01  -4.5820325e-01   6.4012839e-02   2.3166619e-01  -4.1608060e-01  -9.2556996e-01  -2.6985528e-01   9.1329596e-01   8.1716703e-01  -3.5159122e-02  -3.0035389e-01  -6.9598070e-01  -9.3205141e-01  -7.2461490e-01  -6.6759988e-01  -3.1603135e-01   9.6428959e-01   4.9988252e-01   2.7995530e-01   1.9000356e-01  -8.6946973e-01  -2.1268764e-01   4.8149622e-01  -7.9233679e-01  -6.9023240e-01  -2.0779366e-01   9.2987399e-01  -6.4593406e-01   6.8133433e-01  -4.7195651e-01  -1.5393639e-01   7.9330575e-01   1.2356375e-01  -1.3625009e-02  -1.2914566e-01  -4.8625419e-01  -3.4905010e-01   8.9066488e-01   2.8434978e-01   4.0104583e-01   6.8825672e-01   2.9319514e-01  -1.1346407e-01  -2.1505822e-01  -1.5706906e-01  -4.6686832e-01   5.5174046e-01   7.4959412e-01  -3.2792257e-01  -1.1745379e-01  -5.4367763e-01   4.0513647e-01  -4.7559708e-01  -1.9644548e-02   6.2463815e-01  -3.4272631e-01  -2.4224475e-01   2.5189084e-01   2.4328157e-01  -9.9146162e-01  -2.6584293e-01   5.8493114e-01  -2.6094961e-01  -2.0620330e-01  -8.6377424e-01   1.3307787e-01  -4.6287313e-02  -5.7975892e-01  -7.2479991e-01  -7.8260291e-01  -6.1589321e-02  -8.2354151e-01   7.0747516e-01   5.0335795e-01  -3.5107655e-01   2.1958274e-01  -5.5526113e-01   8.4661761e-01  -2.6094203e-01  -9.7742533e-02  -7.7194033e-01   4.3590660e-01   3.6422414e-01   5.1873671e-01  -3.5221843e-01  -5.0066181e-01  -1.7594318e-01   5.3900160e-01  -2.1411267e-01   7.3420559e-01  -1.1721263e-01   8.0016285e-01  -5.3388468e-01  -7.1849754e-01   7.2280023e-01   9.2862106e-01  -8.4648133e-01  -3.2559294e-01   3.9065347e-03   4.2751188e-01  -1.6427734e-01   5.8791908e-01  -1.9126050e-02  -3.8510158e-01  -3.6651103e-01  -1.5991165e-03   5.5504899e-01   1.8556118e-01   1.8460777e-01   1.9607983e-01  -6.8093648e-01  -3.8833646e-01   9.0430401e-01   1.5883550e-01  -6.4988379e-01   2.2634779e-01  -1.3966396e-01   1.6150766e-03   5.3703712e-01  -8.7367400e-01   7.9076063e-01   2.3676367e-01   3.9248333e-01   2.1988298e-02   5.7672461e-01   4.7701634e-01   7.5854112e-01   5.9063415e-01  -6.6555323e-01  -2.0681369e-01  -8.2763273e-02  -5.9553883e-01  -5.8661506e-01  -4.3194986e-01  -8.9137993e-01  -7.5118014e-02  -4.5647381e-01  -3.3873997e-01   9.3114620e-01  -4.1260167e-01  -2.5927760e-01  -7.6187199e-01   1.4268043e-01   9.6171556e-01   7.9759929e-02   4.0007693e-01   6.4527977e-01   9.0886667e-01  -5.3570613e-02   8.4885897e-01   5.6078849e-01   8.9357013e-02   8.6928783e-01  -4.6122222e-01   2.8633848e-01   9.7469170e-01  -9.9873502e-01   1.6738966e-01   2.0445631e-01  -4.8069206e-01   3.1386424e-02  -1.1903983e-01   4.9836923e-01   3.1942245e-01  -5.2900971e-01  -6.5810466e-01  -2.9286254e-01   9.9238573e-02   3.4270014e-01   8.4126319e-01  -6.4799511e-01  -7.8224100e-01   5.3266836e-01  -3.7199059e-01   9.0680312e-01  -2.3585065e-01   3.5166249e-01   3.2094818e-01  -9.3569228e-02  -7.9700759e-01   3.9575125e-01  -3.6125759e-01  -1.2765633e-01   2.1859079e-01   5.4812474e-01   7.6820123e-01   5.8811444e-02   9.1908896e-01  -7.0721986e-01  -5.0305179e-01  -7.9577045e-01  -1.2189974e-01  -1.9590131e-01   7.7654146e-01  -6.6142354e-01   5.9156176e-01   7.3142109e-01  -5.9991880e-01  -7.7952605e-01  -3.7258446e-01  -9.8669000e-02  -6.0645932e-01   4.1173244e-01   8.9736148e-01   7.3873293e-01   4.2850391e-01   1.5170639e-01  -4.0621666e-01  -2.0954677e-01   2.0675048e-01  -7.5277283e-01  -6.3752055e-01   6.3909480e-01  -8.1820384e-01  -3.2143237e-02   7.7283985e-01  -1.2269265e-01   1.3202376e-01  -2.3758898e-01  -1.9720687e-01  -9.1074619e-01  -4.2049311e-04  -1.1733503e-01  -7.6095949e-01   1.8744596e-01   8.0593217e-01   9.3257688e-02  -3.2710298e-01   1.5271840e-01  -7.5003764e-01  -4.0775600e-01   1.4178671e-01  -9.7688771e-01   3.1477725e-01   3.0964865e-01   1.7579434e-01  -6.1995229e-01  -4.4901774e-01   5.9538414e-01   9.9090026e-01  -8.0876603e-01  -8.0265836e-01  -6.4947064e-01   8.0817035e-01  -7.6301919e-01   3.6096212e-01  -9.6010800e-01   9.8356668e-01   7.9474655e-01   8.6136642e-01   9.1550753e-01  -5.6732429e-01   7.8555651e-01  -2.3541136e-01  -4.6258434e-01   2.5235821e-01  -4.8032365e-01   4.4585851e-01   5.6314543e-01  -5.9856623e-02   8.2930763e-02   1.0081675e-01   7.2222106e-01   7.0304040e-01  -6.8440774e-01   2.7156977e-01   2.6760155e-01   6.8246401e-01  -3.0684481e-01   1.2705212e-01  -7.6046652e-01  -6.4453742e-01   3.8304693e-01   7.7298073e-01   6.9177079e-02   6.5612779e-01   9.8848965e-01   1.2074875e-01   7.3863381e-01  -9.4840026e-01   1.6288845e-01   5.9870332e-01  -6.8205071e-01  -7.2113477e-01  -7.5231474e-01  -2.4023196e-01   1.7448664e-01   8.4571242e-01   3.4136966e-01   7.8144593e-01   2.5206406e-01  -6.3650396e-02   1.9858318e-01  -6.5238629e-01   1.2702183e-01   2.7935116e-01   1.9656500e-01  -1.4270138e-01   8.6746495e-01  -8.9592994e-01  -6.6631820e-01  -7.2477805e-01   3.4487177e-01  -7.9521469e-01   8.9648443e-01  -1.9724983e-01  -6.1068845e-01  -9.8950666e-01   3.5297789e-01   9.1045368e-01  -1.7547633e-01  -3.1390289e-01   8.5056775e-01   1.0351019e-01   2.7374882e-01   2.8185813e-01   2.3731142e-01   5.2306687e-01  -4.9888859e-01   7.1938618e-01  -7.7963377e-01   6.4708840e-01   8.6255629e-01  -7.9246495e-01  -2.0257986e-01   4.8883321e-01   7.8766551e-01   5.1114560e-01  -4.0145230e-01   5.9873311e-01   6.0720865e-01   6.0705625e-01  -5.9608226e-01  -8.1778197e-01   3.6161937e-01  -2.9345282e-01   2.4507675e-01  -7.6543732e-01  -1.1767002e-01  -2.2061672e-03  -3.9680911e-01   3.1224926e-01  -1.4756375e-01  -2.2298593e-01   4.6764558e-01  -8.3136815e-01  -3.6009034e-01   6.0185895e-01  -2.1400975e-01  -4.0472325e-01   6.2140230e-01  -7.1621540e-01  -2.7658567e-01   9.0122970e-01  -8.3704379e-01   1.6764865e-01   6.4508306e-01   8.5426519e-01   7.8462644e-01   3.1648923e-01   1.8523825e-01  -8.6165132e-02  -2.4258371e-01  -2.7699831e-01  -8.5611671e-01  -1.1112920e-01   5.2249615e-01  -7.8845795e-01  -9.9453084e-01   1.2472352e-01   6.3087209e-01  -3.0248910e-01  -9.2527626e-01  -5.3572094e-01   4.4696906e-02   8.6370516e-01   2.3656938e-01  -1.7341312e-01  -1.5284555e-01  -8.0181900e-01  -1.9822392e-01   4.1698244e-01   6.1500360e-01  -7.6480841e-01   9.1298075e-01  -5.8152701e-01  -2.5433286e-01  -3.4170979e-01   2.2831972e-01   5.5283379e-01   1.4678536e-01  -7.7770618e-01   1.8577024e-02  -1.5547136e-01   5.4799101e-01  -7.3413509e-01   7.5886896e-02  -2.1039455e-02  -4.5430758e-01  -2.1778237e-01   6.2975386e-01   3.7861721e-01  -5.0341759e-01   2.3493927e-01  -9.7214376e-01  -1.1683001e-01  -8.4437222e-02   6.0078975e-01  -4.5565967e-01   9.1242699e-01  -9.4411163e-01  -3.1321609e-01  -3.6251354e-01  -1.8827521e-01  -6.8098529e-01  -8.9322705e-01  -9.4392422e-01  -9.8315106e-01   3.0247401e-01   9.0970333e-01  -7.3615221e-01  -7.2520385e-01  -2.0306258e-01   9.7098354e-01  -6.1268421e-01  -8.9497284e-01  -2.5353963e-01  -5.6286635e-04   3.4130161e-01  -8.1460298e-01   3.1721524e-01  -3.3076937e-01   9.0011232e-01   6.9705472e-01   2.5738120e-01   6.2564569e-01  -6.3726293e-01  -2.4715810e-01  -2.6857151e-01  -1.6663173e-01  -1.9266944e-01   8.4613672e-01  -7.8244634e-01   8.1822267e-01  -7.3032737e-01  -6.7852333e-01  -8.8845554e-01   8.9414652e-01   2.2986582e-01   2.1639333e-02  -6.7878320e-01   5.8580297e-01   3.3402107e-01   5.1415986e-01   2.4116485e-01   8.8267371e-01  -9.9070865e-01  -1.4060442e-02   1.9618777e-01  -3.2614803e-01   6.8748997e-01  -5.9123762e-01   5.8415514e-01   4.2526705e-01   6.1106812e-01   2.1514724e-01   5.8399362e-01   3.1539963e-01  -5.0871521e-01  -3.2206302e-01   3.9598727e-01  -2.3958217e-02   3.7079926e-01  -8.9770604e-01   9.9578602e-01   5.5847326e-01  -6.3997610e-01  -7.5857389e-01  -9.3707293e-01   7.4164102e-01  -2.8417912e-01   6.4066834e-01   5.5174552e-01  -4.5584908e-01  -5.8453061e-01  -5.7443657e-01   1.0842424e-01   2.0866766e-01  -2.0346575e-01   9.1478313e-01   1.0333309e-01   6.7585377e-01   7.8249238e-01   7.0612914e-01   6.4572667e-01   3.7260404e-01  -7.5949717e-01  -5.7525806e-01  -8.7303388e-01  -9.1014399e-02  -6.5706643e-01  -1.6116235e-01   1.9827601e-01  -4.9931417e-01   7.8723641e-01  -5.8622029e-01   4.8472630e-01  -1.2507402e-01   2.3990667e-01   2.0782234e-01   8.9206730e-01  -2.5633745e-01   8.7106894e-01   5.7219074e-01   2.0299323e-01  -2.4762971e-01   2.9080925e-01  -4.9700241e-01  -5.3347280e-01   3.5335851e-01  -7.4998075e-01   8.0634838e-01   9.8032353e-01  -8.5133518e-02  -7.6898753e-01  -2.6468228e-01   2.3332283e-01  -3.5960296e-02  -7.1134555e-01  -4.8576573e-01   9.6139811e-01   4.3574170e-01   3.5630239e-01  -4.4780646e-01  -7.7605980e-01  -6.0395937e-01  -8.8433623e-01   9.3650046e-01  -1.5522770e-01  -9.5562930e-01  -4.5115853e-01   1.4875240e-01  -1.3768072e-01   4.2581003e-02   5.0820751e-01   3.6010035e-01  -1.4056007e-01   7.5197148e-01  -9.0104418e-01   6.2492866e-01   8.9343905e-01  -2.0788254e-02  -6.8049038e-01  -1.3466389e-02  -4.7866324e-01  -2.4261905e-01   4.2520209e-02  -6.1446177e-01   8.7804534e-02  -9.3810723e-01  -3.0237519e-01   1.6305289e-01  -3.8274476e-01  -3.3396553e-01   6.1796752e-01  -4.7613155e-01   9.3616597e-01   3.2332255e-01   2.1965439e-01  -5.8553865e-01   3.1857587e-01  -4.4410509e-02   3.4046518e-01  -6.9294612e-01  -6.7739742e-01   7.3956847e-01  -6.7308802e-01  -8.2759051e-01  -4.0225793e-01   2.8761637e-01  -4.4896390e-01   4.0657273e-01   2.0836563e-01   8.3700900e-01   3.0379344e-01  -5.7941537e-01  -5.8089305e-01   6.7450975e-01   1.3737731e-02   7.0705880e-01   5.8355625e-01  -1.5531815e-01   4.6143109e-01  -2.7382003e-01  -3.9147642e-01   2.9561698e-01   8.9211360e-01   3.4454497e-01  -9.2455272e-02  -5.2423515e-01   2.9445646e-01   2.5761865e-01  -4.2565243e-01  -4.6696095e-01   1.7836692e-01  -4.8150201e-01  -7.5887506e-01   2.0277703e-01  -5.3164218e-01   6.8085796e-02  -5.8019926e-02  -6.8055619e-01   4.3928782e-01   2.7730389e-01  -2.3699551e-01  -2.2723541e-01   7.1789434e-01   5.3850956e-01  -1.1278057e-01   1.6896150e-01   6.3593678e-01   9.8671761e-01   5.3453191e-01   3.1180288e-01   5.8603370e-01  -8.5979563e-01  -3.2655457e-01  -5.3313021e-01   7.1126132e-01   8.7119324e-01  -1.6040372e-01  -3.1396230e-01  -1.7313533e-01   8.2925282e-01   9.5462775e-01   4.5966899e-01  -3.5567760e-01  -7.1455271e-01  -7.6177702e-01   4.2764925e-01   7.8009587e-01  -8.5385458e-01  -6.1206011e-01   7.1700657e-01  -1.7302112e-01   2.7041002e-02   4.5318466e-01  -7.2038366e-01   6.6139292e-01   5.4703336e-01  -8.6350850e-01   1.2568766e-01  -5.1525184e-01   5.8729269e-03  -6.8945704e-01   4.4768526e-01  -2.4490782e-02   9.9712473e-01  -6.2175007e-01   7.5116762e-01  -3.0901886e-01  -3.9064502e-01  -8.0433985e-02  -8.9585350e-01  -3.6128202e-01  -9.7022797e-01  -2.8778430e-01   1.6944939e-01   5.1888799e-01  -7.0223067e-01   1.8582327e-01  -6.6665266e-01   6.5412114e-01   3.0319164e-01   6.3092651e-01  -4.3553897e-01   5.5949657e-01   6.1507084e-01  -9.6249270e-01  -2.6338776e-01  -7.4981686e-01   4.2386211e-01   7.9514687e-01  -3.5915516e-01  -6.8939272e-01  -6.7739480e-01  -4.7962122e-01   5.6737677e-02   4.1178534e-01  -2.5802982e-01  -5.6945660e-02  -2.3466878e-01  -9.5297080e-01   5.3867473e-01   9.8864144e-01  -9.6063092e-01  -6.9652713e-01  -4.7477251e-01   8.9194196e-01  -5.7406665e-01  -6.6488003e-01   1.9532194e-01   4.3756140e-01  -4.8827555e-01  -6.8608098e-01  -1.1841108e-01   1.3540078e-01  -3.6058565e-01   8.6711430e-01  -5.6136585e-01   1.8057025e-01  -9.0416012e-01  -1.7052149e-01  -5.8766321e-01   8.0522630e-01   6.1371271e-01   3.0599122e-01   6.7319389e-01  -9.8164411e-01   8.2218518e-01   4.9232970e-02   7.3254744e-01  -8.4878494e-01  -3.4705876e-01   6.9307319e-01   6.4127801e-01  -6.0937318e-01   5.3386972e-01  -9.3531577e-01   2.5465901e-01  -6.9048351e-02  -2.4596688e-01   4.8524286e-01  -4.4689511e-02  -6.1578182e-01   4.0076007e-01   1.3015991e-01   1.0898546e-01   2.6524172e-01  -1.3837270e-01  -4.1161461e-01   8.6692557e-01   9.7087540e-01   8.6856876e-01  -2.0757570e-01  -5.5148268e-01  -9.1760359e-02   4.0499609e-01  -7.7321724e-01   6.3265434e-01   4.2109167e-01   7.0985746e-02  -3.8738973e-01  -7.0534793e-01   2.3200413e-01  -5.3038473e-01  -1.7889346e-01  -7.8167543e-01   8.7111181e-01  -3.8964524e-01   9.2733364e-01  -5.1494908e-01  -6.1629001e-01  -9.8821782e-01  -5.1374483e-01   4.2915724e-01
   7.9559868e-01   2.8442784e-02  -1.1034424e-01  -7.0576201e-01   8.2676439e-01   2.7966113e-01  -4.7032611e-01  -3.3957760e-01   3.7724379e-02   2.9204255e-01  -9.7522395e-01   1.4921107e-01   2.0625974e-01   9.5746566e-01  -5.6936975e-01   3.9377647e-01  -2.9356499e-01   4.1715587e-01   9.6507681e-02  -9.1417330e-01   6.9374846e-01   9.2835375e-01  -5.8699552e-01   7.8596034e-01   7.3337450e-01   7.9205838e-01  -8.5286730e-01   4.8630536e-01   5.3523190e-01  -4.0119401e-01  -1.9122652e-01   3.8046456e-01   4.9235042e-01   5.3382490e-01  -7.3406443e-01   9.7069867e-01  -2.8978229e-02   4.4671325e-01   6.8985591e-01   1.2740405e-01  -1.1424407e-01   5.2355247e-01  -2.8603222e-01  -8.2196091e-01  -3.8181714e-01   6.2382954e-01  -6.7841664e-01  -7.0717171e-01   4.1341656e-01   6.1498234e-01  -8.7882283e-01   8.1193438e-01  -8.9925607e-01   4.7873526e-01   4.4045613e-01   6.8100035e-01   8.5714256e-01   7.8350381e-01  -5.5488556e-01   3.3805161e-01   9.2655289e-02   9.3547805e-01   2.6539210e-01   5.3536928e-01  -3.9079214e-01   5.0276272e-01   3.1123253e-01  -5.0318598e-01  -9.9927768e-01   4.3990148e-01  -6.7547171e-02   6.6210751e-01  -5.6481175e-01  -9.5332385e-01  -6.3603624e-01   2.4348358e-01   2.0321587e-01  -7.2917908e-01  -2.4230661e-01   4.5803634e-02   1.1713409e-01   9.9607597e-01  -9.4036206e-01   8.3035414e-01  -4.3725774e-01  -9.6266844e-01   6.1759369e-01  -3.7141647e-01  -4.0401881e-01   3.1362471e-01   4.2505057e-02  -1.2149863e-01   8.6228901e-01  -4.1536692e-01   7.0431050e-01   5.9497112e-01  -8.6310470e-01  -5.8225432e-01  -5.3363872e-01  -2.9122680e-01  -5.6783246e-01  -1.2079176e-02  -3.2896934e-01   4.1459613e-01   4.0235082e-01  -2.0303752e-03   5.8147778e-01   4.3674157e-01  -7.7955239e-01   1.7767282e-01   3.7198266e-01   2.2627555e-01   6.1713674e-03  -2.7488058e-01   5.6453652e-02  -3.2549556e-01   2.2236336e-03  -5.9038958e-01  -8.2669711e-01  -4.5068680e-01  -6.4633153e-01  -9.3507046e-01  -9.6441632e-01  -8.1252457e-01  -8.6405666e-01   2.2937381e-01   6.4131843e-01   4.2607084e-01   9.8026135e-01  -9.2882312e-01   3.9852799e-01  -8.5086272e-01  -9.9681210e-01   2.2539000e-01  -5.9400225e-01  -2.7856808e-01  -7.8589151e-01  -5.8128179e-03  -5.5422056e-01  -9.9834344e-01  -5.1706103e-01   4.4630731e-01  -2.7570551e-01  -4.0033876e-01   7.0319436e-01   8.8339750e-01   1.1520299e-01   6.7511995e-01  -4.7111604e-01  -3.7853665e-01  -3.1377505e-01  -9.4817814e-01  -1.2222303e-01  -4.7597208e-01   7.4380862e-01  -5.4198024e-02   6.9056646e-01   2.9070082e-01   1.8354674e-01   8.6230498e-01  -2.3180429e-01   1.3887198e-01   7.7457307e-02   6.0383549e-01   3.8590663e-01  -3.6731512e-01   1.2848003e-01  -9.0187734e-01  -4.2522043e-01  -2.6992082e-01   6.7577835e-01   1.4219210e-01  -2.9677855e-01  -8.2737199e-01   4.4010394e-01   4.2258816e-02   8.5369004e-01  -6.2849854e-01   1.3603061e-01  -1.5651739e-02   8.5510574e-01  -2.1010677e-01  -6.7767595e-01  -8.7088815e-01   7.4037047e-01   9.4969956e-01  -2.4370525e-02  -6.3800237e-01   3.9442536e-01  -8.3121251e-01  -6.3907056e-01   5.9421850e-01   1.7024674e-02   5.7815115e-01   6.5291241e-01  -1.2299249e-01  -7.4706503e-01   4.2276708e-01  -1.2852870e-01   9.6466396e-01   2.7669284e-01  -9.5060975e-01   9.1817290e-01   9.5363903e-01  -3.8502146e-01   8.4076220e-02   9.9552614e-01   5.6783817e-01   4.3795421e-01   2.9733773e-01   1.4969148e-01   5.3871334e-01  -3.1901674e-01  -8.8402772e-01   3.9505874e-01  -3.1366885e-01   2.9729297e-01   8.4607401e-01  -7.5451692e-01   4.0290860e-01   7.2916833e-01  -4.1593016e-01   8.2257532e-01   5.3545540e-01  -3.0792382e-01  -4.9712426e-01   4.6371420e-01  -4.5361308e-01   8.1828866e-01  -3.5418746e-01  -7.2696215e-01   4.3230918e-01  -8.3520455e-01   5.8141650e-01  -1.0809020e-01  -5.5356991e-01   6.1476531e-01  -4.4229422e-02   7.7833154e-01  -5.9517338e-01  -4.0529598e-01   6.5295153e-01  -2.2541220e-01  -7.6605109e-01   8.8346125e-01   9.3144420e-02  -8.8645247e-01  -9.0234198e-01  -3.3165685e-02   9.1475611e-01  -9.5331589e-01   1.3648265e-01   9.7442654e-01   2.1985692e-01  -2.2765325e-01  -5.2431637e-01  -7.4741031e-01  -2.1762362e-01   8.1282954e-01   7.6360527e-01  -9.6453024e-01   5.3659952e-01  -8.2666268e-01   8.9457882e-01  -3.1310545e-01  -4.9525772e-01  -5.5688530e-01  -9.4954934e-01   5.6296657e-01   5.9831237e-01  -1.6386799e-01   7.9687250e-01  -1.0550781e-01   8.5678127e-01  -8.1058072e-01  -1.8021909e-01  -6.3602403e-01  -5.6357165e-01   5.5115182e-01   5.6566724e-01  -9.4843345e-01  -1.3673623e-01   7.6698912e-01  -1.5638733e-01  -9.7414003e-01  -1.9268213e-01  -1.0062481e-01  -2.1165372e-01   8.1868157e-01  -9.2814375e-01   1.5988230e-01   1.2472026e-01   7.4994921e-01  -9.1916625e-01  -5.5551308e-01   8.3407673e-02   5.7693470e-01  -3.2994395e-01  -7.6476213e-01  -7.0570378e-01  -3.9007746e-01   8.2067647e-01  -3.6991544e-01  -5.2963552e-01  -2.0845679e-03   4.6930407e-01  -3.1778683e-01   8.7873534e-01  -4.6289814e-01  -3.2479921e-01   3.9865413e-01   6.2953681e-01  -3.6164655e-01  -8.8144037e-01  -2.3630993e-02   7.5660361e-01  -6.8753904e-01  -4.6917215e-01  -1.2436223e-01   6.9238534e-01  -4.1895342e-01  -8.3596514e-01   6.7963595e-01  -6.0865891e-01   8.8248946e-01  -6.2092480e-01  -7.7766588e-01   7.2580133e-01   3.4078569e-01  -5.7073501e-01  -3.9740086e-01   6.8074502e-01  -4.4510621e-02   8.4112044e-02  -4.9831368e-01  -9.9609922e-01   3.0964894e-01   2.1694049e-01   2.1467816e-01  -2.4207451e-01   7.7034909e-01  -6.0290579e-01   9.0194630e-01   9.6844565e-01  -2.6453218e-01  -8.7034722e-01   2.8553388e-01  -8.3960400e-01   1.0191072e-01   5.5041829e-01   9.2729364e-02  -8.1933601e-01   2.1455523e-01  -6.3486828e-01  -9.9372822e-01   7.8076292e-01  -4.8196994e-01   9.9120963e-01  -5.1853140e-01   4.6455429e-01  -5.5692326e-01   2.2924308e-01   1.7225557e-02   6.9772626e-01  -4.7062118e-01  -8.1848261e-01   6.1851887e-03  -8.2716852e-01   2.6467004e-01   5.7147637e-02  -9.4409992e-01   9.4319276e-01  -8.6014638e-01  -7.1840845e-01   6.8740422e-01  -8.4792912e-01   2.7318720e-01  -1.2939274e-01  -1.4932363e-01   7.5532323e-01   6.9378685e-01   9.7869354e-01  -3.7799722e-02  -5.8889208e-01   2.5578813e-01  -2.4819520e-01   2.8608431e-01  -2.6454834e-01   8.6445975e-01   2.3758014e-01  -9.6721489e-01   4.3522949e-01   4.6253566e-01  -2.6254937e-01  -8.8171847e-01  -7.2232391e-01  -3.1862427e-01  -7.8686978e-01  -3.6898489e-01   3.5640170e-01   1.4417504e-01  -9.3246042e-01   3.8123738e-01  -7.9230206e-01  -6.5134108e-01   1.5598025e-01  -3.9445663e-01  -5.4056649e-02  -2.1322710e-01  -3.4494138e-03   3.9155031e-01   2.0875822e-01   2.0203181e-01  -4.1082397e-02   8.2291696e-02  -7.7760635e-01   8.0081324e-01  -8.3134268e-01   1.9716896e-01  -2.8606234e-01  -4.7146080e-01   7.0484011e-01   4.4528324e-02  -4.9415344e-01   6.7458309e-01   2.9465599e-01  -7.9925805e-01   9.6404979e-01   8.8506667e-01   2.1243477e-01  -8.3704463e-01   6.6036338e-01   8.9543111e-02   2.9589277e-01  -3.3841980e-02   9.8654222e-01   2.9955047e-01   1.8576363e-01  -5.0596611e-02  -2.6340480e-01   6.6906477e-01   4.0461399e-01  -9.8776271e-01  -6.3652596e-01   7.2440889e-01   8.2800249e-02  -5.0634700e-01   9.3290097e-01   1.1019342e-01   3.2794144e-02   8.3849355e-01   8.7686311e-01   8.6765221e-01  -5.4916861e-01   4.7490144e-02  -3.8224342e-01   8.9541361e-01  -8.5613018e-02   7.7727425e-01  -2.0649896e-01  -2.3647901e-01  -8.2248841e-01  -7.6405224e-01   7.1177892e-01  -8.6381657e-01   7.9494061e-01  -1.1406200e-01   7.5761304e-01   2.9403506e-01  -2.2038577e-01  -6.0725445e-01   7.6103022e-02   4.4543360e-01   7.2733428e-01   7.0606210e-01  -2.4330830e-01   5.2267785e-01  -3.0140888e-01   3.3142805e-01   6.9692465e-01   7.0533013e-01  -1.7283871e-01   7.5592247e-01   4.0136453e-01  -9.6285547e-01   1.4808641e-01   8.9944498e-01   5.0215059e-01   7.5389887e-01   9.0385265e-01  -7.3033185e-01  -8.5658301e-01   6.4544288e-01   1.9931712e-01  -7.2707958e-01   1.8508639e-01  -6.8415054e-01  -4.3658939e-01   3.1598790e-01   9.0156717e-02  -7.8760883e-01  -3.2842626e-02  -8.3103971e-01  -3.9336585e-01   9.1244626e-02   9.9752326e-01  -9.9016301e-01   6.5813972e-01  -2.9910878e-01   7.4552233e-01   4.6677192e-01   4.4583353e-01   6.4646204e-01   4.0287136e-01   6.8462411e-03   7.8655294e-01   1.9305422e-01  -6.6509447e-01  -9.4815941e-01   2.4619333e-01  -5.9856328e-01  -1.6148506e-01   7.6561992e-01   1.2549406e-01   7.3853114e-01   1.7991316e-01   3.5244419e-01  -6.4213425e-01   1.0196204e-01   8.9419529e-01   4.9295261e-01   5.4624388e-01   3.3774621e-01   5.7311146e-02  -2.7466021e-02   8.8793219e-01   8.0016868e-01   6.4825602e-01  -9.0340938e-02  -3.3946152e-01  -4.8654854e-01  -3.9628822e-01   9.6477741e-01  -4.9423725e-01  -8.3974943e-02  -2.1567476e-01   9.3921361e-01  -9.1619414e-01   5.6588152e-01   1.3348592e-01  -6.2617345e-01   6.9774418e-01   9.4919684e-01   6.9784051e-01   4.7768682e-01  -7.3121960e-01  -2.0248072e-02  -8.9187231e-03   2.6292311e-01  -2.1427450e-01   5.1806827e-01   3.7128850e-02  -7.2703717e-01  -6.5642157e-02  -9.7865287e-01   6.6558807e-01  -2.3883541e-01  -5.8803079e-01  -7.1508858e-01  -2.7674262e-01   5.5838315e-01  -2.2413469e-01   6.6726107e-01   2.5856876e-01   8.2837685e-01   7.6295228e-01   5.8087042e-01  -1.9876793e-01   2.5819693e-02   1.5331576e-01  -1.7842203e-01   6.6110854e-01  -2.9185083e-01   9.7079914e-01   7.1101553e-01  -9.0985726e-01  -8.0792310e-01   9.8262127e-01   8.1709302e-01  -7.4063947e-01  -4.2692994e-01  -1.1650187e-01  -4.1806586e-01  -7.4097505e-01  -6.3327256e-01   6.3804306e-01  -8.6605139e-01   4.9824313e-02  -7.4037634e-02  -3.7645536e-01   1.1089384e-01  -4.2438203e-02   8.1804090e-01  -6.8174843e-01   6.3130833e-01   9.3911569e-01   5.2602142e-01  -3.0272798e-01  -1.0597298e-01   3.0486700e-01   8.9783015e-01  -7.4606891e-01  -6.7412081e-01  -2.5735919e-01  -2.9608167e-01  -5.9327933e-01  -7.9450630e-01   6.9164599e-01  -7.1721763e-01   1.6054133e-01   4.2258597e-01   4.2130730e-01   4.9301501e-01   6.8814302e-02   7.8098184e-01   3.1803282e-01   5.4604810e-01   9.1211482e-01  -2.3795998e-01  -4.4995997e-01   3.5878545e-01  -4.4084755e-01   6.5402816e-02   7.4923089e-01   2.7566248e-01   5.6395398e-01   4.5172980e-02   2.8451994e-01  -4.8324657e-01  -7.5292644e-01  -6.0629308e-01   7.5036576e-01   3.3609262e-01  -4.8824847e-01   8.3244980e-01   2.9586024e-01   4.5928155e-01  -1.5789593e-01  -5.1523009e-01   6.0860527e-01  -2.9595880e-01  -9.1506881e-01   9.5079597e-01  -4.8520677e-01  -5.1587583e-01   4.6309320e-01   7.3042594e-01  -7.1628802e-01  -7.2270139e-01  -6.2945090e-01   3.5419414e-01   7.2164047e-01  -1.7830861e-01  -4.3957653e-01   1.5366596e-01  -1.1796460e-01   9.3863203e-01  -7.9038245e-01  -4.2082997e-01  -4.2897070e-01  -5.4861392e-01   8.0603961e-01  -2.2658428e-01  -5.9712868e-01  -7.9511181e-01  -4.2497317e-01  -2.2582546e-02  -4.4448255e-01  -7.6638222e-02   3.3851827e-01  -7.2323433e-01  -1.4521879e-01  -4.5973652e-02   8.3103846e-01  -7.5993263e-01  -6.3718018e-01  -8.3285431e-01  -8.1636882e-01  -9.5082213e-01  -9.0313911e-01   4.5064450e-01  -3.8863831e-01  -6.8789201e-01  -2.8674252e-01  -4.0531884e-02   4.6611119e-01  -4.4429398e-01   2.2435966e-01   6.9775245e-01  -6.1524074e-01   4.4128245e-01   3.2955700e-01   4.4968588e-01  -3.0953469e-01   8.2254306e-01   9.3488505e-01   9.1139550e-01   6.6733241e-01   3.1561958e-01   5.6555280e-01  -3.5083708e-01   9.2987642e-01  -6.1944907e-01   9.4142270e-01   1.3315933e-01   6.4496995e-02  -6.1264905e-01   8.6112257e-01  -8.0397795e-01  -3.1397643e-01   6.3105390e-01  -9.7341370e-01  -6.2161054e-01  -9.4679288e-01  -7.2657929e-01  -3.8179608e-02  -7.5194035e-01   2.0676340e-02  -8.3532291e-01   5.7661860e-01   5.4873101e-01   3.0535101e-01   4.0751740e-01   5.6103562e-01  -8.1682029e-01  -2.3248407e-01  -1.7146939e-01   1.1350482e-02   6.4933937e-02   1.7199102e-01   1.8572293e-01   9.7787971e-01   8.2618352e-01  -9.9240831e-01  -6.2573893e-01   7.3356630e-01  -5.0035577e-01   1.1218226e-01  -4.4234627e-02  -7.7070017e-01  -9.2105154e-01   4.2194081e-01  -8.9267363e-01  -8.2557835e-01   6.2428826e-01  -6.1206274e-01   8.6191670e-02   3.5739695e-02   4.1264610e-01  -5.9805370e-01   7.4109931e-02  -7.1416475e-01  -9.3192967e-01   2.8625208e-01   4.2095157e-01  -1.8214982e-01  -9.1048497e-01   3.0722801e-01  -9.5652290e-01  -3.1883792e-01  -5.9182858e-01   7.9246728e-02   7.8341894e-01   9.2038522e-01   2.9076867e-01   2.0901635e-01  -5.1139551e-01  -7.7707388e-01  -4.8827257e-01  -1.9489945e-01   7.7555742e-01   8.0297551e-01   6.6805054e-01  -9.5171264e-01   2.3088227e-01  -3.7019557e-02  -4.3022850e-01  -9.5343467e-01   8.8573256e-01  -8.7376035e-01   1.9170658e-01  -9.9719430e-02  -3.9353949e-01  -9.4214249e-01  -1.7638413e-01  -4.6899632e-01   9.7071917e-01  -3.0190832e-01   2.4938472e-01   8.4996586e-01  -7.1726861e-01  -9.2203728e-01  -8.3166707e-01   4.5376463e-01   5.3509561e-01   6.3651752e-01  -2.5260120e-01  -7.2481595e-01   7.1254398e-01   5.7770872e-01   7.6926009e-01  -5.2586740e-01  -4.9783162e-01  -4.5920908e-01  -4.6165181e-01   9.6550165e-01   6.0216145e-01  -3.6243294e-01  -2.9657266e-01  -4.3958865e-02   2.1183502e-01  -4.6512304e-01  -5.6212465e-01   2.7107002e-01  -8.8497924e-03   8.1134011e-01   2.6168384e-01   6.3312130e-01   7.8918054e-01   1.3094532e-01   5.7021862e-01  -5.0396668e-01   2.8395602e-01  -6.7913736e-01  -7.5425116e-01   7.2078484e-01  -1.0824225e-01   2.2617201e-01  -5.9591327e-02  -1.3537403e-01   9.9500046e-01  -2.0153210e-01  -3.2543599e-01  -9.0375188e-01  -6.4048112e-02  -9.1748063e-01  -5.6208548e-01   6.3285391e-01  -8.1586538e-02   6.2548753e-01  -2.2566453e-01  -3.8708210e-01   5.3109349e-02   8.2917661e-01   6.6676861e-01  -4.7775387e-01  -9.7846191e-01  -3.2611594e-01   5.5590306e-01   3.6336076e-02   6.2464717e-01  -7.7105863e-01  -4.2313140e-01   7.1859999e-01  -6.7226820e-02   7.3860466e-01  -7.0015403e-01   1.8466030e-01  -5.1284706e-01  -8.8220853e-01   7.3391857e-01   7.4271899e-01   5.1834385e-01  -1.4191470e-01  -2.8059110e-01  -4.8881724e-01  -8.6907759e-01  -8.3694011e-01   1.4802800e-02  -3.2035695e-01  -9.6321225e-01   9.8661425e-02  -7.8672519e-01  -8.1564899e-01  -2.3581499e-01   3.6057728e-01  -1.8089270e-01  -7.2094122e-01  -6.0075366e-01   1.7912616e-01   6.5535356e-01   8.1630947e-02  -6.5635811e-01  -9.2237134e-01  -1.9007638e-01   7.1314142e-02   3.2535215e-01  -2.4959931e-01  -3.7567444e-01   2.0507827e-01   4.9569077e-02   9.8339059e-01   5.1307224e-02  -6.3404735e-02  -3.2738916e-01  -5.3919204e-01  -1.9921577e-01  -3.4995467e-01   1.1792773e-01  -4.2051881e-01  -8.2126850e-01  -8.4907085e-01   1.0983508e-02  -8.9654517e-01   4.5207684e-01  -7.9534643e-01  -3.7375807e-01   4.3399763e-01  -3.1650560e-01   2.6147236e-02  -6.2294983e-01   3.8601158e-01  -1.7624236e-01   8.3296134e-01  -1.1422664e-01   9.3498498e-01   6.7551547e-01  -1.6714339e-01   9.3330698e-01  -6.5220551e-01  -5.8245560e-01   9.2266836e-02  -2.8396081e-01  -5.0962929e-01   6.4817820e-01  -3.6798996e-01   2.3527863e-01   9.5552205e-01   9.4364527e-01   3.2630294e-01  -1.4148302e-01  -6.7907998e-01  -9.8197298e-01  -8.7200223e-01   2.2465537e-01  -1.3975987e-01  -6.2118678e-02  -8.5233123e-01  -5.7831237e-01   1.0769630e-01   8.2694827e-01   9.4192629e-01  -5.0315147e-01  -5.9196463e-01  -4.5831705e-01  -8.3191933e-01   6.2090922e-01   7.5167116e-01  -4.3556135e-01   5.3123774e-01  -1.7129727e-01   6.3837347e-01   6.6898456e-02  -1.4326451e-01  -5.4341942e-02   5.9350237e-01   2.9983564e-01   4.6999604e-01   1.0748146e-01  -1.3843950e-01  -8.4708003e-01   3.4689471e-01   6.5864479e-01  -3.9894262e-01  -8.7989796e-01   9.6526192e-01   5.0520380e-01   4.8624844e-01   4.9869058e-01   8.8607202e-01  -5.5223647e-01  -3.1815912e-01  -4.4085445e-01   7.5430647e-01  -8.1925979e-01   3.1851888e-01   7.3545075e-01   6.0786717e-01  -4.0416797e-01  -1.2452424e-01   9.8225219e-01   2.1027448e-01  -1.3175613e-01  -9.4263624e-02  -3.9874649e-01  -6.5476279e-01  -6.8664975e-01   9.3932238e-01  -4.6075543e-01   4.3522146e-01
  -3.2870707e-01   2.7896434e-01  -7.0508437e-01  -1.1974696e-02  -2.4533307e-02   3.5803276e-02  -1.6326867e-01  -1.0988033e-01  -2.2784728e-01   7.1319080e-01  -3.5547223e-01  -3.4947779e-01  -2.6138257e-01  -2.0541154e-01   3.7815348e-01  -7.2469579e-01   7.7614517e-01  -6.3056436e-01   7.6143582e-01   1.8009151e-01  -6.0001070e-01  -9.5535767e-01  -6.5161324e-01  -5.8604521e-02  -1.4455526e-01  -8.7590739e-01   9.8886220e-01  -2.4904157e-01  -9.4956467e-02  -8.9486549e-01   3.6137341e-01  -8.1370281e-01   6.8728720e-01   3.9624355e-01  -4.7910610e-03   2.0087926e-01   6.6177346e-01  -8.9232852e-01  -2.3010091e-01   9.9352426e-01  -3.5464207e-01   8.3330753e-01   5.1952521e-01   2.3033940e-01   5.6987124e-01   2.8993721e-02  -6.1881235e-02  -9.4792565e-01  -3.7061737e-01  -7.0520366e-01   1.1239839e-01  -4.6838786e-01   2.4845473e-01   6.1724662e-01  -2.1160990e-01  -1.4010218e-01   7.2735435e-01  -3.6425339e-01  -2.4217143e-01  -6.2556255e-01   9.7146074e-02   6.1333241e-01   5.2461839e-01  -4.3341127e-01  -7.4347133e-01  -6.2722844e-01  -2.7312752e-01  -4.7935641e-01  -6.7394165e-01   9.7648054e-01  -6.5284522e-01  -5.7049431e-01  -6.4390282e-01   3.7428983e-01  -6.5244669e-01  -3.6081901e-02  -5.6275995e-01   4.4661256e-01   7.6795758e-01   1.1500788e-01   3.4122613e-01  -5.1900241e-01  -6.0122263e-01   1.4748301e-01   8.0588821e-01   7.6790574e-01  -6.1840039e-01   7.4063584e-01   8.1674451e-01   4.0197108e-01   1.1571031e-01  -8.3987166e-01   8.4940288e-01   1.6546544e-01  -3.9741104e-01   5.3069656e-01  -8.3343743e-01  -1.3966958e-01  -9.4509547e-02   6.9471375e-01   8.5551653e-01   9.1654550e-01   8.3611081e-01  -1.1396917e-01   7.3059390e-01  -8.6548547e-02  -4.9973234e-01   1.0879891e-01   7.3811980e-01   6.6522040e-01  -3.5094938e-01  -9.1286471e-01  -7.2091144e-01   5.9830731e-01  -5.4837869e-01   3.0775593e-01   2.3127732e-01  -9.4955309e-02  -6.1529404e-01  -2.4681758e-01   2.7554102e-01   5.6559007e-01  -3.4593831e-01   6.4240643e-01  -4.8527987e-01   4.8842040e-01  -9.8114439e-02  -4.2610459e-02  -3.1548479e-01   5.3927428e-02   1.1515111e-01   6.2562290e-01   9.8757282e-01   4.8941004e-01   4.5584941e-01   4.7571376e-01   2.7709681e-02  -3.5814662e-01   8.5720948e-01   9.3921208e-01   7.5680169e-01  -5.6563383e-01   4.9364461e-01   8.6844667e-01   2.3629693e-01  -3.7657938e-01  -7.5386857e-01   5.1224143e-01  -3.3235166e-01  -1.5891598e-01  -4.0467371e-01  -5.6056466e-01  -1.1351989e-01  -9.9556707e-01  -4.7662536e-02  -7.5080658e-01   1.9264153e-01  -5.4411524e-01   7.6780765e-01  -1.7644937e-01  -1.7300673e-01   4.5695087e-01   5.0070592e-01  -3.8943729e-01   3.1820870e-01   2.8223594e-02  -1.9524521e-01   3.2169782e-01   5.0610082e-01   7.5679456e-01  -2.5119621e-01   6.4722953e-01  -9.9403529e-01   9.3190054e-01   7.4013990e-02  -7.3364902e-01  -1.2078321e-01   6.4686730e-01   5.1099802e-01  -3.7866599e-01  -5.2562239e-01  -8.3508262e-01   3.0909267e-02   2.6540713e-01   9.6792168e-01   7.4713398e-01  -1.3343150e-01  -9.0516571e-01  -8.9668023e-01  -4.9219169e-01   2.9367405e-01  -4.2962585e-01   2.8322643e-01   8.4966073e-01  -2.7105170e-01  -2.4656876e-01   8.7459370e-01  -7.0637232e-01   7.4161695e-01   3.3547211e-01  -9.0978181e-01   7.1451323e-01   1.4718707e-01  -2.4042487e-01  -7.0833373e-01  -8.3442530e-01  -6.4815273e-01  -8.3980603e-01  -7.4437152e-01   4.8305591e-01  -8.2425465e-01  -2.4268703e-01  -1.7101424e-01  -5.9937177e-01   7.3207448e-01  -9.3989406e-01   4.7285222e-01   3.9537412e-01  -9.9203420e-01   1.7094296e-01   4.7538123e-01   9.4980668e-01   6.1255729e-01   2.9519993e-01   8.0878041e-01  -7.3315425e-01   8.3753231e-01  -6.9271058e-01   3.5705675e-01   6.2160631e-01  -6.9894100e-01   1.5213138e-01  -8.8078443e-01  -3.9810002e-01  -7.8362365e-01   7.6586265e-02   8.4502011e-02   1.3863431e-01   9.5539314e-01  -3.9122229e-01   8.6994040e-01   7.1950417e-02   1.8751000e-01  -9.4562673e-01   2.5652398e-01   9.8776867e-01   8.1319581e-01  -2.6564093e-01  -2.6636242e-01   9.7588162e-01  -2.1578807e-01   7.1345973e-01   4.6202556e-01  -2.1991751e-01  -5.3285542e-01   2.4248790e-01  -7.4605089e-01   3.2193328e-01  -5.4991917e-01   4.2618376e-01  -1.4160237e-02  -1.7772188e-01  -4.1167140e-01   8.3605306e-01  -8.5040518e-01  -6.4669843e-01   9.9314740e-01  -8.5637554e-01   5.7450705e-01   4.1266868e-01   7.4331054e-01   6.7251713e-01  -4.4522180e-01  -8.0832968e-01   5.7130660e-01  -8.7854637e-01  -6.4870747e-01  -9.4696983e-01   1.7088740e-01  -1.1622251e-02   8.4365621e-01  -6.0031137e-01  -2.5337707e-01  -7.0266443e-01  -1.8152721e-01  -5.7342406e-01   6.4862185e-01   9.6846315e-01   7.6308990e-02  -3.3342713e-01   7.1477131e-01   3.1208158e-01  -6.8893163e-01  -8.5877657e-01   8.8321179e-01   1.1453586e-01  -9.9778340e-01  -6.9166182e-01  -1.7865850e-01  -8.3303158e-01  -2.6172115e-01   9.1263798e-01   7.2426207e-01   6.7281232e-01  -2.7249674e-01  -3.0366630e-01   9.8808318e-01  -8.6807349e-02  -1.7119322e-01   7.2904914e-01   9.4883654e-01   3.5585463e-01   8.1454306e-01   7.3744347e-01  -2.1943824e-01   5.3598511e-01  -5.2115096e-01  -3.6989663e-02   9.9159064e-01   2.4443354e-01  -5.6990103e-02  -7.4096415e-01  -8.0118997e-01   2.4455910e-01  -1.1481778e-01  -1.7070257e-01  -6.6673480e-01  -7.8479936e-01  -5.7959001e-01   8.3103541e-01   4.4096161e-01  -4.1298978e-01  -9.5972784e-01   9.4785967e-01  -3.4175246e-01   6.5515426e-01   3.2252565e-01   1.8110819e-01   1.2564284e-01  -1.3962143e-01   2.6613355e-02   5.2345152e-01  -4.4293089e-01   3.4624040e-01  -6.8745870e-01   1.6048544e-01   4.8567278e-01  -7.3689576e-01   9.2968744e-01  -7.8535353e-01  -2.2454493e-01   5.7373954e-01   4.2725682e-01   4.1038688e-02   1.1731684e-01  -5.1856781e-01   1.2019033e-01  -8.7109738e-02  -1.9546298e-01   4.8861767e-01   8.9040138e-01  -5.0294738e-01   5.9037272e-01  -2.1498163e-01   4.5180731e-01   8.1036750e-01   6.0056342e-01   4.9167345e-01   1.2145897e-02   5.2222877e-01   4.8430515e-02  -5.8370081e-01  -4.2865965e-01  -4.2309410e-01   3.1939622e-01   3.2892883e-01  -2.0287309e-02   6.5662547e-01  -8.1074126e-01  -9.2164495e-01  -3.9505247e-03   3.3010731e-01  -3.0099681e-01  -6.5934037e-01   4.0640088e-01  -7.6342564e-01  -6.2627957e-01   2.3710440e-01   5.9857590e-01  -9.6915210e-02   4.5039284e-01   1.0383052e-01   5.3230733e-01  -9.1799872e-01   5.8897102e-01   8.3041578e-01   5.4537921e-01   8.4669576e-02   5.7370273e-01  -9.2190053e-01   3.6770720e-01  -3.1516257e-01   7.6400825e-01   9.8713129e-01  -2.9500434e-01   6.8068923e-01  -9.6944605e-01  -4.3020484e-01   1.8514651e-01  -7.9466449e-02   2.6697998e-01  -7.0294998e-01  -3.5903691e-01   4.1438392e-01   5.0295575e-01   8.0602494e-01   4.8178677e-01  -5.2645500e-01   5.8796067e-01   6.3112095e-01   3.7526561e-01  -6.2829897e-01   4.8729152e-01  -1.2355731e-01   4.8745818e-01   5.7994947e-01  -8.0380032e-01   7.9894703e-02   3.3648122e-01   8.7016638e-01  -3.2872239e-01  -9.7605719e-01  -4.7151527e-01   7.1571072e-01   2.1280835e-01  -1.9279279e-01   6.9360784e-01  -6.9645534e-01   2.0904415e-01  -3.1653758e-01  -5.0604547e-01  -6.7082651e-01   9.1533600e-01   1.5831882e-01  -3.9181530e-01   3.2270608e-01  -8.2146916e-02  -5.5340466e-01   6.9571304e-01   1.8179783e-01  -3.9585006e-01   4.1350804e-01   9.1716921e-01   4.6614726e-01   2.2426663e-01   5.4287472e-01  -6.2800351e-01  -2.1163161e-01   4.5346008e-01  -4.0158254e-01   8.8483303e-01  -6.6548329e-01  -1.6735638e-01  -1.4143803e-01   9.7120521e-01  -8.1871689e-01   5.4264189e-01   6.4868392e-01  -8.7095801e-01   6.6311011e-01   8.9331743e-01   8.8975051e-01   5.9202733e-01   2.1800545e-01   9.8998458e-01   9.1777427e-01   5.7281498e-01   7.8699823e-01   7.7493013e-01  -7.8915523e-01  -2.5166933e-01   9.6547026e-01   9.6133385e-01  -3.7506776e-01  -6.0508294e-01  -9.7648220e-01   2.4378044e-01  -5.8406735e-01   3.1681858e-01  -8.4435943e-02  -4.8987806e-01  -7.9740857e-01   5.9844638e-01  -2.3112263e-01  -7.7392660e-02  -9.6436769e-01   5.6186007e-01  -8.1089429e-01   8.6601264e-01  -5.2795244e-01   8.5080209e-01   2.1821535e-02  -7.1793992e-01   7.8962061e-01   2.7008918e-01   2.0208380e-01  -2.9010943e-01  -6.1217266e-01   1.3003388e-01   5.6255388e-01  -3.7973676e-01  -8.8247710e-01  -5.2345097e-01   6.4721892e-01  -5.7405396e-01   8.9912776e-01   6.9256137e-01  -1.9513830e-01   9.1364607e-01  -6.5797935e-01  -7.1964176e-01   5.0268942e-01  -4.5985276e-02   1.5718671e-01  -3.3103186e-01  -6.5045413e-01  -7.3624839e-01  -9.4837049e-01  -4.9854599e-02   1.1514074e-01  -3.7978717e-01  -9.4607118e-03   5.3248391e-01   7.6539593e-01   2.4487211e-01   2.4558065e-01  -6.9805072e-01  -7.8144610e-01  -3.5393112e-01  -6.1616384e-01  -5.4275673e-01  -4.2645834e-01   1.4564071e-02   4.5394160e-02  -1.0928791e-01  -6.0504781e-01   3.7554806e-01   4.8066423e-01  -5.1492250e-01  -3.8886024e-01  -2.0833827e-01   3.7505833e-01  -7.6009973e-01  -1.2674566e-02   9.3254646e-01   8.7680517e-01   2.9404258e-01  -1.1186133e-01   7.9661751e-01  -7.5769174e-01   4.9367399e-01  -5.6881116e-01  -4.7158043e-01   8.7268880e-01   9.0634678e-01  -6.3213523e-01   4.7096739e-01   1.0004499e-01  -5.6927600e-01   7.8504555e-01  -4.8750498e-01   2.3622869e-02   6.1656318e-01   4.0748261e-01   6.0390680e-01   8.6413341e-01   5.2843937e-02   8.9003511e-01   4.9479363e-01   6.6183390e-01  -9.0515326e-01   3.4946445e-01  -1.0032375e-01  -7.6244302e-01  -1.1143534e-01  -4.3780655e-01  -7.5010824e-01   5.6998991e-01  -4.8896966e-01   3.4829819e-01  -9.1408413e-01  -5.0295439e-01  -8.1461039e-01   5.4132189e-01  -8.7798528e-02   5.9292086e-01  -1.0557531e-01   1.0384308e-01   7.6109028e-01   5.9445088e-01  -4.6279521e-01  -1.4952089e-01   2.2590493e-01  -3.5213716e-01   1.3313616e-01  -3.4157149e-01  -2.2416288e-01  -8.3678602e-01  -1.2847409e-02  -1.9937020e-01  -2.0456728e-01  -2.0884441e-01  -3.3095980e-01  -5.3841810e-01   8.0911463e-02   3.6705693e-01  -3.4871532e-01  -3.8965741e-01   5.1425616e-01   6.0714655e-01   9.2492659e-01  -5.7239665e-01  -9.4702888e-01  -5.4811951e-01  -2.9075740e-01  -9.9452198e-02   7.8095846e-01  -6.4739371e-01  -5.2357550e-01  -6.8777562e-01   3.8225883e-01   6.4562686e-01   8.1488337e-01   6.4137392e-01   1.4457240e-01   9.0378578e-01  -7.7059660e-02   6.1709729e-01  -6.6654158e-01  -1.6637079e-01  -7.5802516e-02  -3.4801568e-01  -6.2446526e-01  -1.7818762e-01   6.4565149e-01  -8.4953751e-01   7.1111031e-01   1.4675387e-01   6.1539975e-01  -9.7967026e-01  -3.3019725e-01  -7.7273175e-01  -2.4745300e-01  -6.1585123e-01  -1.1962853e-01  -8.8660724e-01   4.4136359e-01   3.5662988e-01  -2.9498605e-01   6.3705526e-01   8.3057914e-01   9.5413816e-01   9.0832149e-01   7.7671075e-01   9.7432949e-01   3.6788465e-01  -7.0641764e-01   1.2103093e-03   7.0027216e-01   1.4270979e-01   9.2875321e-01   2.5870991e-01  -2.4273150e-01   5.3977237e-01  -1.8592083e-01   7.6684522e-01  -9.8964216e-01   9.9060291e-01   7.6205468e-01  -8.4939947e-01  -8.4465529e-01   1.0931130e-01   2.4925632e-01  -8.5605459e-01   4.7931817e-01  -2.5874381e-01   5.6993430e-01   4.3628644e-01  -7.4723199e-01   8.2782524e-01   8.4273225e-01   5.7706092e-01  -8.2074369e-01   1.0989173e-01  -7.2091181e-01   5.2991472e-01   5.6332429e-01   7.3128658e-01  -5.7111716e-01   5.5411299e-01   9.7815707e-01   8.3948413e-01   3.8915516e-01  -7.5886477e-01   3.6097631e-01   3.6408184e-01   6.3113215e-01  -6.4553722e-01  -7.6551441e-01   6.5699764e-01   7.1398083e-01  -3.2628338e-03  -6.4771216e-01   5.9627942e-01   9.2100453e-01  -7.8228919e-01  -1.7822887e-01   4.2056170e-01  -4.7556032e-01  -4.9552674e-01  -2.7519632e-01   2.9640591e-01  -7.9439787e-01   5.3112941e-01   4.2580180e-01   8.7677420e-02  -5.8843438e-01  -4.8089979e-01   6.9575199e-01  -6.8984820e-01   6.5731086e-01   8.2095132e-01   5.7094064e-01  -4.3069918e-01   9.7455439e-01  -8.3662288e-01  -5.2959913e-01   6.1919258e-01   8.2535769e-03   3.8668373e-02   1.3989160e-01   6.4052507e-01  -9.6412236e-01   5.1257443e-01   9.1522102e-01  -6.6765795e-01  -1.2196522e-01  -8.2796245e-01  -2.5089026e-01  -8.9436455e-01  -6.1568407e-01   8.1449922e-01  -3.2634783e-01   5.0881984e-01   1.6884387e-01  -1.7207310e-01  -2.7734514e-01   9.4099566e-01  -6.5637488e-01   8.7346660e-01  -5.2658669e-01  -6.2339772e-01  -8.1227206e-01   7.3306711e-01  -7.1478922e-01   2.6542218e-02   5.4056897e-01   1.7005327e-01  -3.9909318e-01  -6.4068411e-01   3.1350620e-02   9.7455816e-01   1.6086531e-01  -2.3503336e-01  -2.7479323e-01   5.4479424e-01   5.8127550e-01   6.5548776e-01   1.2860171e-01  -7.9792640e-02   9.3124421e-01  -6.2009991e-01   1.4007828e-01   6.9811485e-01  -5.7753053e-02  -4.2697010e-01  -3.6572554e-01  -6.3393667e-01   8.9872742e-01   5.5333510e-01  -1.4690555e-02   1.9638776e-01   5.9624417e-01  -2.8153945e-01   3.1262327e-01  -9.1728274e-01  -5.9369718e-01  -9.3434573e-01   9.6368007e-02  -3.6811666e-02   8.5655725e-01   5.2868039e-01   7.3048881e-01   5.2790256e-01  -5.1009219e-01  -2.2042590e-01   8.3680800e-01  -5.8219230e-01   5.7968149e-01  -9.3316776e-01  -4.1767401e-01  -3.6734656e-01  -5.8460310e-01   2.3192601e-01   5.5490652e-01   3.4952888e-01   8.3599997e-01   8.3389124e-01  -2.9307915e-01   9.4531719e-01  -8.3964405e-01   4.0625365e-01   8.3864466e-01  -2.1637437e-01   4.8864831e-01  -9.8706689e-01  -6.2207615e-01  -8.0637022e-01   9.0965797e-01  -6.5487859e-01   9.6452127e-01  -5.7931745e-01  -6.4268654e-01   2.1107937e-02   7.0318099e-01   8.5800195e-01  -2.8981882e-01   4.1284692e-01  -5.5227295e-01  -4.4031529e-01   6.8065392e-01  -2.8273050e-01   6.1342798e-01   9.3197507e-01  -8.6683167e-01   6.8937831e-01   5.9496103e-01   9.9082061e-01   7.7368982e-01  -6.1875640e-01  -4.8288837e-02  -7.9169080e-01   6.5229680e-01  -2.6257877e-01  -1.7006420e-01  -3.0259448e-01   7.3665756e-01  -5.6498213e-01   6.2720621e-01  -2.0779695e-02  -3.0404442e-01  -7.1972372e-01   8.5884139e-01   9.6417527e-01  -6.1449276e-01   6.8415128e-01   9.0842863e-01  -1.9289079e-01   6.8734427e-01  -7.1195925e-01  -6.5522873e-01  -4.8353340e-01  -2.1258963e-01   6.8677732e-01   2.1782078e-02  -2.0199394e-01   5.3162649e-01   8.5620798e-01  -2.3090268e-01   8.0409748e-02  -9.1316646e-01   1.9616420e-01  -1.7655205e-01  -7.1099115e-01  -5.6194805e-01  -4.0201498e-01   9.5129710e-01  -1.4066408e-01   7.6904665e-01  -5.2566522e-01  -4.0852528e-01  -7.3370574e-01  -5.8234134e-01   3.7831946e-01  -9.7244561e-01  -2.5985882e-01   5.6339270e-01   7.2728356e-01  -1.3289511e-01   1.0061391e-01  -6.0078220e-01   5.6267816e-01  -1.1648189e-01  -4.1717901e-01  -6.6755063e-01   3.3387120e-02  -4.7618493e-01   9.6119435e-01  -7.0739306e-01  -7.1401638e-01  -8.0956428e-01  -5.8659160e-01   6.6543065e-01  -5.5538572e-01  -7.8042394e-01   1.5410253e-01  -2.1013180e-01   2.6890257e-01  -3.5163245e-01  -6.2943246e-01  -4.5742992e-01   2.0423188e-01  -7.8928007e-02   2.7886211e-01  -2.0785833e-01   6.0794291e-01  -3.8331133e-01   1.2540398e-02  -2.0509034e-01   3.3813140e-01  -8.1520494e-02  -7.3880192e-01  -7.6097417e-01  -4.7994845e-01   1.3695871e-01  -9.3995816e-01   1.2575828e-01   9.4128318e-01   9.2048477e-02   6.6572215e-01   9.7709917e-01   1.7374530e-01   3.8049682e-01   2.5350459e-01   3.5921085e-01   9.6162362e-01  -6.4420224e-01   2.2344823e-01   7.4782543e-01  -2.0268527e-03  -6.3179420e-01   9.5924885e-01   7.3970750e-01   9.5066594e-01   4.3466777e-01  -4.4890070e-01   3.0157871e-01  -4.5908160e-01   2.6317866e-01   8.0256634e-01  -1.9645045e-01   6.1406456e-01  -1.0438934e-01   2.0263070e-01  -4.2964715e-02  -4.0986454e-01  -9.7141592e-01   7.0311051e-01  -7.5626231e-02  -2.0964467e-01  -8.5184493e-01   6.4313480e-01  -4.0522778e-01  -6.5068634e-01  -5.2021591e-01   1.1586895e-01   5.5862760e-01   4.4179369e-01  -5.3126952e-01  -8.3509399e-01   4.0407602e-01  -1.3580127e-01   6.0339911e-01   2.8390709e-01   5.4014925e-01   1.0497010e-01   5.5601661e-01  -4.3991243e-01   6.0939701e-01  -2.3379080e-01   7.8629256e-01  -8.2415258e-02   5.3579502e-01  -8.8321630e-01  -8.9776832e-01   4.7539314e-01  -6.7862973e-01   2.5694876e-01   9.6102330e-01   6.6790206e-01
  -3.8464078e-01   6.8688080e-01  -1.7798823e-01  -7.9964552e-01   6.2401439e-01   8.1280056e-01  -7.5510096e-01   3.3735966e-01   5.7026169e-01   3.6435407e-01   6.8656067e-01  -5.4906624e-01   6.2722278e-01   5.0613664e-02  -5.6298926e-01  -9.9310137e-02  -3.0154137e-01   7.3468601e-01  -3.2243821e-01  -6.7385252e-01  -4.9444855e-01   6.6251024e-02  -2.8391263e-01  -8.8631153e-02  -3.9577939e-01  -9.5476970e-01   3.7408436e-01   7.2416840e-01   9.2314725e-01   6.0515477e-01   7.7168385e-01   4.0034044e-01   2.5611035e-01  -2.4951094e-01  -7.3488094e-01   6.4984416e-01  -2.2064923e-01   5.4486012e-01   7.4639704e-01  -8.8478562e-01  -1.8182930e-01  -1.4693399e-01  -4.4354661e-01   3.5531678e-01  -2.5003715e-01   1.4777971e-01  -6.3548464e-01   9.9730878e-01  -4.6532933e-01   9.9600558e-01   8.7338349e-01   5.8118302e-01  -3.6166430e-01   6.9313967e-01   9.1243648e-02   4.8364493e-02   2.9686792e-02  -9.7845436e-01   4.5258631e-02  -8.5620767e-02  -1.7962547e-02  -9.6164531e-01   5.5430429e-01   7.9482735e-01  -9.2141115e-01  -9.6182264e-01  -9.3601065e-01  -7.0309936e-01  -3.9625687e-01  -8.7345037e-02   1.0303705e-01  -9.3975607e-02   7.9605969e-01   8.4695181e-01  -8.9312374e-01   2.5952209e-01   8.6048040e-01   9.2539587e-01   1.4895311e-01   8.0078257e-01   9.0577651e-01  -1.9009527e-01   1.1094688e-01   9.1342405e-01  -6.1227049e-01  -9.3310492e-01  -9.8039114e-01  -4.8600560e-01   9.9027389e-01   6.2833526e-01   9.6727499e-01   1.9588147e-01  -5.7639946e-02   7.0982294e-01   1.5584643e-01  -1.1300775e-02   2.1446853e-01   5.4999534e-01  -8.0327048e-01   6.7987109e-01  -4.8427591e-01   8.4624374e-01   2.1223560e-02   3.6507565e-01   4.5199854e-01  -2.7097801e-02   4.0527519e-01  -7.5399166e-01   7.9649860e-01  -9.7413719e-01   4.5156342e-01  -9.8241826e-01   1.6289139e-01  -7.1813599e-01  -8.2462249e-01  -5.2980917e-01  -1.1130586e-01   7.5268135e-01  -7.9392669e-01   4.4189022e-01   5.8713482e-01  -4.8927990e-01   1.0794089e-01   8.0978875e-01  -1.6946286e-01  -8.2131737e-02   2.7939481e-01  -4.7873561e-01   8.3394814e-01   4.3465858e-01  -2.6251719e-01  -8.0594493e-01  -1.5438238e-01  -2.5080734e-01  -8.7829051e-01  -8.7680180e-01  -8.2724948e-01   4.4226668e-02   6.0501621e-01   9.0444924e-01   3.4521662e-01   5.5082648e-01   1.5478441e-01   6.1238050e-01  -3.3563041e-01   2.7734527e-01   1.6569856e-01  -5.2091689e-03  -2.1759368e-01   1.5148979e-01  -1.6671059e-01   2.6556446e-01  -8.6191175e-01  -1.5270132e-02   4.2470701e-01  -9.7304150e-01   5.5941584e-01  -8.3163272e-01   3.1885004e-01  -8.0182430e-01  -3.3289433e-01   1.0495136e-01   6.8156088e-01   7.7066348e-01  -6.5129273e-01  -7.5014508e-01   6.8783152e-02   7.0882462e-01  -5.7330438e-01   1.0994120e-01  -5.7997262e-01  -9.8931271e-01  -8.3246143e-02  -9.7898393e-01  -7.5785076e-02  -4.2416894e-01  -6.0070705e-01  -3.9029423e-01   4.9800056e-01  -8.9639781e-01  -8.3676718e-01   6.0279592e-01  -8.5583506e-01  -6.8515819e-01  -4.2020891e-01  -8.6910639e-01  -4.7185031e-01   8.8800235e-01   2.1617470e-01   6.8788324e-01  -4.6978382e-02   8.1971263e-01  -2.5219767e-01   3.6499505e-01   5.0423951e-01  -1.8495717e-01  -6.5103512e-01  -1.5086547e-01   4.9785158e-01  -7.1312968e-01   8.1713548e-01  -5.3179655e-01  -7.3018443e-01   7.2219074e-01  -9.1121319e-01  -3.6069686e-01   5.2025687e-01  -3.0277833e-01  -5.4531866e-01  -1.8097641e-01   9.1292581e-01   4.8522020e-01   1.0287343e-01   3.9478596e-01  -5.6174329e-01   7.9848832e-01   5.4554187e-01  -3.9530850e-02  -6.1562300e-02  -6.3064264e-01   5.0633584e-01  -6.5139252e-01  -2.1914475e-01   9.9575727e-01  -5.3133028e-01   4.7574366e-01   6.9225040e-01  -5.0318656e-01  -6.6175612e-03  -1.3277441e-01  -6.0529603e-01  -5.2123203e-01   9.5557304e-01  -3.1037443e-01   8.7357877e-01  -6.5486610e-01   3.7766958e-01  -6.7646246e-01   9.5934052e-01  -7.6274324e-02  -4.8482675e-01   9.1539814e-01  -4.2754294e-01   6.9881708e-01  -5.1962911e-01  -2.4359675e-01   3.2249533e-01   3.1501037e-01   6.2217308e-01   6.6790797e-01  -2.0125849e-01  -5.3118379e-01   4.8317267e-01  -8.5639716e-01  -7.4991303e-02   5.2635743e-01   5.6288157e-01  -5.1177062e-01   1.6508362e-01  -9.1171532e-01  -2.1807597e-01   9.1794366e-01   1.5612127e-01  -2.6793893e-01  -7.1868690e-01  -6.0816530e-01  -1.0517088e-01   6.8377505e-01   9.4368044e-01  -8.6328343e-01  -8.6843013e-01  -4.2700317e-01   4.2535560e-01   7.6418678e-01   3.7324872e-01  -8.2464048e-02  -4.9814477e-02  -7.3500394e-02  -8.3894252e-01   3.0331063e-01  -3.9514875e-01   8.4248478e-01   9.3883270e-02   1.9657298e-01  -4.8810920e-01  -1.9059189e-01  -2.7715545e-01   5.9039175e-01   5.4441937e-01  -8.3089742e-01  -9.9160017e-02   7.2771996e-01   4.3411502e-01  -7.2405004e-01   6.6153088e-01   6.8120748e-02   1.1309815e-01  -4.8780629e-01   8.5172979e-01  -2.9724717e-02   3.7048470e-01   3.4952669e-01  -8.4830875e-01  -5.5793471e-01   7.1906106e-01   4.4274318e-01   6.0057678e-01   5.0198634e-02  -5.3703146e-01   6.4874577e-01  -7.3305607e-01  -3.7521697e-01  -4.6485023e-02  -8.0636929e-01  -4.7551795e-01   9.9987283e-02   8.3479320e-01  -9.3665137e-01  -1.6890899e-01   6.2590681e-01  -9.3607864e-01  -3.5031466e-01  -7.3705086e-01   8.3621236e-01  -8.4476838e-01   7.3035636e-01   2.7183754e-01  -7.7507612e-01  -7.2692992e-01  -7.9674635e-02   3.1324224e-01  -6.0369485e-01  -9.1016679e-01   9.2798915e-01  -3.6556109e-01   1.9523694e-01   1.6878146e-01   3.1370587e-01   3.8778608e-01   2.6686490e-03   7.2111141e-01   8.9663577e-01   6.2725197e-01  -5.2958916e-01   7.8143671e-01  -2.8653810e-01  -8.6780787e-01  -7.7689192e-02   5.0719945e-01   6.4500145e-01   4.5892727e-01  -1.0525055e-01  -1.1468300e-01   9.8497809e-01   4.0751389e-01   9.9301367e-01  -6.2900433e-01  -2.4210497e-01  -7.0784155e-01   7.0342217e-02   9.1729727e-01  -1.2289437e-01  -8.4723142e-01  -2.8883650e-01   9.0057794e-01   5.3725316e-02   5.6816837e-01  -1.4412755e-01  -4.2526533e-01  -3.7726167e-01   3.7758596e-01  -1.7876021e-01  -7.3121753e-01  -2.9948093e-01  -4.4024932e-01  -2.0716348e-01  -3.4283081e-01   7.8742373e-01   4.0932303e-02  -4.6707685e-01   1.3016049e-02   6.7061422e-01   5.4031231e-01  -8.3071160e-02  -6.7981290e-01   9.3231046e-01   3.7344476e-01  -5.3719372e-01  -7.5373261e-01  -9.6376488e-01   5.4264776e-01   8.7320668e-01  -9.0229155e-01  -6.3731066e-02  -3.2367995e-01   4.5302069e-01  -3.2837666e-01  -3.7760863e-01  -9.1672474e-01   3.0380209e-01  -4.8463092e-01   8.4269631e-02  -2.4690727e-01   8.5192284e-01  -1.6947460e-01  -6.5564427e-01   5.8045758e-01   8.7484178e-01  -9.3128680e-01  -3.7713342e-01   3.9387479e-01   7.2871313e-01   5.3599927e-01   9.3392383e-01  -2.7350869e-01   5.9617346e-01  -2.2809651e-01  -3.1771715e-02  -1.0577778e-01   6.5141044e-01   7.2104094e-01   4.2860969e-01   9.6191193e-01  -8.3216576e-02   1.9793738e-01   7.2641990e-02   4.6947837e-01  -8.8639346e-01  -7.4961771e-01   1.2991569e-01  -9.2644445e-02   1.8094509e-01   1.8435405e-01  -1.0278900e-01   9.7573329e-01  -7.6411496e-01   4.3343104e-01   2.8218625e-01  -4.5722043e-02   4.6724313e-01   4.3455318e-01   8.7110164e-01   7.0654685e-02   2.9825484e-01  -9.6066388e-01  -3.2122305e-01   5.3799509e-01  -6.9909380e-02  -7.8271208e-01   2.0209126e-01   7.3424134e-01  -6.2520141e-01  -3.4098244e-01   8.3159368e-02  -7.7776568e-01   1.5104712e-01  -3.0121720e-01   1.3999452e-01  -8.7197647e-01   9.8734789e-01  -1.6879765e-01   3.1464501e-01  -4.2253419e-01  -1.2330754e-01  -6.4509999e-01   1.0184651e-01  -6.4293856e-01   3.9605324e-01   1.6316598e-01  -8.4970133e-02  -3.8799507e-01   4.0529625e-01   7.5015135e-01  -4.9332205e-01   3.6782528e-01   3.1803206e-01  -5.5189359e-01   7.8279745e-01   6.8047192e-01   8.7475764e-01  -3.9747260e-01  -2.3872483e-01   1.0150203e-01   3.7626607e-01   7.5527009e-01  -1.1821644e-01  -8.8530480e-01   5.2788345e-01  -8.5589206e-01  -6.2136313e-01  -8.1514095e-02   6.1192288e-01  -7.4804998e-01  -1.0660770e-01   7.9856960e-01   6.1427008e-01   9.3080720e-01   8.6707178e-01   1.3767145e-01  -7.6912460e-01   5.0179250e-01  -9.7110796e-01   7.5279926e-01   6.5956430e-02   4.7810952e-01   5.7740006e-01   8.5565583e-01  -3.2154350e-01  -3.0786301e-01  -4.5639572e-02   7.0427718e-01   5.5753814e-01  -5.1381789e-01  -5.1384473e-01   4.7865884e-01  -9.5461637e-01  -8.7497294e-01   3.5674915e-01  -1.9351337e-01  -7.9708383e-01  -4.0835033e-01   1.9593038e-01   8.2713506e-01  -1.5690791e-01  -6.2034597e-02   3.1059848e-01  -3.0893397e-01   4.0951724e-01   8.7998047e-01   5.6654328e-01   9.1559969e-01  -6.0589366e-01   7.3457796e-01  -3.4401050e-01   7.8893189e-01  -1.6205635e-02  -2.4576688e-02  -5.7075151e-01   9.4928664e-01  -1.3551720e-01   7.6960775e-01  -3.3256049e-01  -1.0421081e-01   8.7977710e-01   5.4843939e-01   3.6076608e-01  -5.1563621e-01   9.1364935e-01  -7.6960917e-01  -7.5815371e-01   6.4044561e-01  -3.6747160e-01   1.8334037e-01   1.9044398e-01  -4.0300641e-01   2.2027450e-01  -1.9787819e-01  -4.8676473e-01   9.7811012e-01   8.8224266e-01   1.7984436e-01   7.4599086e-01   5.0108892e-01  -3.5801725e-01   2.5464020e-01  -2.4121768e-01  -5.7788930e-01   5.2258668e-01  -7.4418536e-01  -1.7875393e-01  -7.3177760e-01   9.9717344e-01   2.2415177e-01   1.7724684e-01  -6.6598953e-01   9.3736846e-01   1.8654459e-01   2.5549222e-01   5.7459780e-01   9.5555611e-01  -1.6325935e-01  -4.9084989e-01  -1.1325419e-01  -8.7132149e-01   1.7212955e-01   1.5149775e-01  -4.1398892e-03   4.3201505e-01   7.5129517e-01  -9.3629759e-01   2.9754196e-01   4.0264456e-01   3.9153590e-01   6.7749183e-01  -6.5016807e-01   3.7371917e-01   3.9817185e-01  -9.6456474e-01  -4.6319316e-01  -9.0996663e-01  -5.9655858e-01  -1.3286017e-01   9.3782510e-01  -7.2545816e-01  -7.3886995e-01  -5.0960551e-01   2.9808513e-01  -5.2275983e-01   5.5779441e-01  -4.0044753e-01  -6.4077803e-02   3.7411268e-02   5.7422316e-01   1.4644637e-01   9.1961074e-01   8.8073550e-01   1.5909879e-01  -7.2186888e-01  -8.0297783e-01  -4.7794369e-01   8.2106766e-01   6.0192684e-01   7.4683542e-01  -5.9496281e-02   3.6630411e-01   7.6058218e-01   3.8696869e-01   8.7588198e-01   8.2757332e-01  -9.5254443e-01  -3.1027451e-01   4.2808722e-01   9.6812329e-01   5.3484629e-01  -4.0663712e-01   6.0714049e-01   4.0487645e-01  -8.4654712e-01  -2.4471233e-01  -1.6656990e-01   1.1081814e-01   9.8954285e-01  -9.6522704e-01  -6.6882516e-01   6.4134788e-01   5.8114492e-01   9.4158851e-01  -7.7803678e-01   8.0920969e-01   1.5606760e-01  -7.5602363e-01  -9.5631126e-01  -3.8001086e-01   7.9070612e-01   2.7281904e-02   6.4996087e-01  -6.0572132e-01  -1.6676005e-01   3.6166958e-03   2.0229804e-01  -8.3325229e-01  -6.6027223e-02   8.8289457e-01  -1.9454813e-01  -5.4948873e-01   6.7308146e-01  -5.7784585e-01  -5.4580209e-01  -3.2732302e-01  -9.1994256e-03   7.7569797e-02   1.4004032e-01   1.1348601e-01  -9.1533179e-01  -5.5000385e-01  -6.7335802e-01  -5.1193136e-01   4.1905955e-01   4.5045366e-01  -3.4994983e-02   2.3062947e-01   2.1777244e-01  -4.8755688e-01   9.6572409e-03  -5.9668392e-01  -7.7702051e-01  -9.8552417e-02   6.0437421e-01   9.4266277e-01   3.2082673e-01   1.1976236e-01  -2.5525860e-01  -9.5297782e-02   8.3801199e-01  -2.5661955e-01  -1.4404506e-01   9.1535833e-02   6.3705063e-01  -7.0458686e-01   5.4188848e-01   5.8738034e-01  -8.8629605e-01  -4.6588098e-01  -2.9605199e-01   7.2254763e-01   8.0900691e-01  -9.1438080e-01   4.1900197e-01   9.3158812e-01   1.8018986e-01   6.0366126e-01   2.2736901e-01   3.5272864e-01  -8.1445267e-01   4.3641455e-02  -1.5050794e-01   6.7667281e-01  -4.3323957e-01  -1.7969619e-01   1.9408860e-01   6.2691078e-01   3.9521484e-01  -6.4965943e-02   7.2612842e-01  -4.5176062e-01  -7.8062478e-01  -3.1023338e-01  -9.2312334e-01  -4.4678185e-01   3.8726941e-01   2.7369173e-01  -6.5975969e-01  -1.3858106e-01  -9.0377235e-01  -9.5660054e-01  -4.5483488e-01   2.1692960e-01   6.0817964e-01   1.1608419e-01  -3.8989308e-01  -6.5894110e-01   4.3227943e-01  -9.1143391e-01   4.2394494e-01  -3.7360970e-01   9.1670883e-01  -9.9448377e-01  -8.1240004e-01   8.7886519e-01  -9.2823164e-02  -6.7660603e-01  -5.3627047e-01   6.6880921e-01  -4.1462606e-01  -3.2665400e-01  -3.0117940e-01  -5.3040461e-02  -2.2983001e-01  -6.7743512e-01  -7.1951708e-01   9.1804529e-01   6.2937382e-01   9.1227207e-01  -1.0327821e-01  -9.1778324e-01  -9.2434087e-01   2.4939773e-01   6.5258222e-01   2.1554186e-01  -2.3378639e-01  -1.0527403e-01   8.2550756e-01   5.4886311e-02   1.6786821e-01  -5.4634260e-01  -6.0592100e-01  -7.9107823e-01   4.2584346e-01  -2.2708378e-01   1.7263668e-01  -5.9384157e-01   6.0909777e-02  -9.5761676e-01   5.2027730e-01   2.5326560e-01   4.2633621e-01  -5.4953389e-02  -4.4948424e-01  -4.1628358e-01  -4.2213670e-01   9.0759036e-01  -6.0652896e-01   1.1517358e-01  -8.4985860e-02  -8.4060482e-01  -6.9268317e-01   6.3721262e-01   7.7491995e-01   5.7876673e-01   3.1426716e-01  -5.5964792e-01   7.4835225e-01   6.0328806e-01  -1.6844761e-01  -8.6558576e-01  -8.4558702e-01  -7.2971959e-02  -9.0594629e-02   3.5633572e-01  -6.4231004e-01   6.9857502e-02   8.1383003e-01  -5.7539859e-01  -2.0378784e-01   4.0037267e-01  -5.7430488e-01  -3.5204103e-01   9.7243081e-01  -8.2867502e-01   4.1844356e-01  -3.4261138e-01   5.2092183e-01   2.2829325e-01   7.0869313e-01  -2.9647652e-01   3.2459302e-01  -7.3604017e-01  -3.9894818e-01  -3.7583042e-01  -6.8848839e-01  -5.4631834e-02  -4.2101385e-01   2.5377209e-01   3.3775145e-01   3.6117527e-01  -8.3866391e-01  -7.3201183e-01   2.2496977e-01  -6.0276768e-01  -2.7369797e-01   7.3779320e-01  -6.1857987e-01  -3.1545082e-01   9.4065275e-01  -4.3729358e-01   5.6190644e-01   5.3578233e-01  -6.1065623e-01   1.7367862e-01  -2.8304043e-04   4.8863067e-01  -2.4189850e-01   5.7323159e-01  -6.3992985e-01   6.1193493e-01   7.0776953e-01  -7.3113832e-01   6.7718466e-01   4.2841078e-01   3.2840315e-01   2.5232112e-01  -7.5712150e-01   5.2874959e-01   1.0927257e-01  -1.2313154e-01   9.0385290e-01   3.8247006e-01   1.2832882e-01   1.0341230e-01  -2.7434498e-01  -3.7767037e-01  -8.1549724e-01   8.2391761e-01  -8.6670945e-01  -4.4107479e-01   5.9807084e-01  -7.6422339e-01  -9.1816478e-01  -5.4451396e-01   1.7058931e-01  -9.9751441e-01   4.6672662e-01  -5.3582358e-01   5.6883737e-01   8.2581946e-01   2.4727923e-01  -6.2446509e-01   8.2542254e-01   3.9331895e-01   5.3780410e-01  -9.4821023e-02  -9.0722948e-01   6.5392475e-01   3.5226886e-01  -6.6802315e-01   8.9100263e-01   2.7252411e-01  -6.0959153e-01   5.8396779e-02  -6.0237737e-01   8.6951419e-01  -3.0461454e-01   3.6307830e-01   1.3117874e-01  -3.5326156e-02  -6.1774769e-01   1.5459825e-01  -2.3649468e-01   8.1117552e-01   8.3308931e-01   2.6867647e-01  -2.5825382e-01  -9.1039253e-01  -3.7100872e-01   3.7764643e-01   9.1549152e-01  -9.0456597e-01  -7.6506723e-01   6.3939692e-01   1.5923621e-01  -5.0098006e-01   7.2294295e-02  -6.7166884e-01   9.9475008e-03   6.4957357e-01   8.8438364e-01   5.2327474e-01  -1.5893653e-01  -7.3399571e-01   7.0845088e-01  -2.5120363e-01   8.4956210e-01   1.3148375e-01  -3.2476672e-01  -5.8263217e-01  -8.1429177e-01  -1.7323624e-01   4.6152988e-01   1.7294753e-01   2.6479845e-01   5.7314604e-01  -3.7275735e-02  -1.1272142e-02  -3.6040163e-01   8.8980663e-01  -9.9136198e-01   7.2546957e-02  -2.5765770e-01   1.2302439e-01   5.8468577e-01   3.3375404e-01   6.2373796e-01   4.4205796e-01  -6.2152561e-01   1.4601251e-01   6.6190233e-02  -9.5460873e-01  -1.1646518e-01  -1.5978663e-01  -2.6701069e-01  -3.3204563e-01  -1.8161605e-01   7.1950968e-01  -2.1641715e-01  -7.0237552e-01   6.9704982e-01  -4.8951889e-01  -4.7896377e-01   3.4391467e-01   3.2816181e-01   1.5183503e-01  -1.4822294e-01   6.0355338e-01   1.1130193e-01   9.5632233e-01  -4.6129784e-01   6.7154792e-01  -4.6058976e-01   9.7593113e-01   3.3587119e-01  -9.1787142e-01   9.9027729e-01  -3.7458103e-01  -8.4474249e-01  -8.6395505e-01   1.2250874e-02   5.6457652e-01  -5.5917388e-01  -9.5812209e-01  -7.7554293e-01  -7.8131074e-01   5.0426138e-02  -6.6443969e-01  -5.9819070e-02   2.4093743e-01  -1.1301085e-01   6.8845103e-01   5.1826797e-01  -1.1710389e-01  -4.7153135e-01
