   5.0419086e-01  -6.4222988e-01   8.2729108e-01  -1.6758959e-01   7.4667696e-01  -1.3981023e-01   2.9201323e-02  -4.3399098e-01   5.8514820e-01   8.2796295e-03  -3.4404689e-01  -8.0567170e-01   6.4134599e-01   2.8172714e-01  -9.2446388e-01  -1.3664324e-01   4.0997049e-01   9.7791661e-01   4.3358585e-01   1.6060858e-01  -6.6267913e-01   1.5074542e-01  -4.9895304e-02   5.3345146e-01  -2.7880150e-01   7.4640870e-01   4.2762029e-01  -7.6193350e-01   4.9909963e-01  -9.6501784e-01   3.7961934e-01   7.3129028e-01   2.4145910e-01  -4.0139758e-01   1.9226610e-01   7.3531778e-01   2.3546724e-01  -2.9254179e-01   8.4558732e-01   7.4914902e-01   6.0815574e-01  -8.3887188e-01  -4.0917169e-01  -1.3985268e-01   2.5563217e-02   7.5894214e-01  -6.0088468e-01   3.0444777e-01   1.9377536e-01  -2.8136554e-01   2.4738985e-01   1.6890540e-02   9.3884397e-01  -5.1716405e-01  -5.4953149e-04   9.0653850e-01  -4.0045827e-01  -7.6118428e-01   3.8027224e-01  -6.2178335e-01   2.1937109e-01  -1.7216702e-01   8.4926177e-01  -6.2649213e-01  -4.9589969e-01   3.8125827e-01  -9.9306503e-01  -8.5485031e-01  -4.4910937e-01   7.4156098e-01  -1.8909920e-01   9.1954308e-01  -7.3718542e-01  -3.0353346e-01  -1.0249517e-01   7.8099256e-01  -2.7522202e-01   7.8638170e-01  -1.5961057e-01   8.3516830e-01  -5.4306107e-01  -9.3049867e-02  -4.2230423e-01  -6.8723483e-01  -8.7024645e-01  -2.0606472e-01   7.5605838e-01  -6.6234882e-01  -8.8886956e-01   9.6300349e-01  -6.0356257e-01   9.6493184e-02   9.0578616e-01  -1.9641404e-01   5.9775603e-01  -2.5434387e-01  -9.8224240e-01   6.0988220e-01  -2.6327945e-01   2.7539981e-01   6.8183417e-01   8.0937508e-01   7.4912949e-01   1.6274525e-01   7.8237962e-01   1.9468602e-01   6.4899966e-01   1.7194760e-01  -9.6135769e-01   5.7653513e-02   4.3998230e-02  -8.1031204e-01   3.9529954e-01   5.7372848e-01  -8.1505835e-01  -5.4841824e-01  -9.8705424e-01   6.6456573e-01  -3.8421576e-01   9.6384638e-01   4.2580614e-01  -4.7703974e-01   5.8609169e-01   2.5547977e-01  -3.6315615e-01  -2.3001425e-02   2.3765864e-01   2.6591105e-01  -8.2876852e-01  -5.9585101e-01  -8.9755540e-01   5.5997109e-01   2.5957016e-01   7.2716715e-01   7.6823207e-01  -1.0249674e-01  -8.4523511e-01  -3.4519010e-01   6.1085936e-01  -7.3819707e-01  -8.0132675e-01   9.9486250e-01  -8.3083342e-01   2.3503388e-02   8.9245243e-01   8.7501237e-01  -8.9804568e-01   6.5604743e-01  -8.9112627e-01   2.0325957e-02  -8.8556271e-02   6.5083332e-01   1.2577464e-01  -8.9524510e-01   2.5179789e-01   4.6151933e-01  -5.0055419e-01   1.2606877e-01  -5.4981149e-01   9.0296956e-01  -4.6730936e-01   8.2249922e-01   1.5918171e-02  -5.8977660e-01   9.7649833e-01   3.0483070e-01   3.6684781e-01  -2.4043686e-01  -4.7111325e-01  -2.3805627e-01   5.9545974e-01  -6.1948973e-02   4.2307106e-01   7.3152746e-01  -9.5180353e-01   8.4815445e-01  -5.0320172e-01   3.6997225e-01   9.2164603e-01   7.8794003e-01  -3.1095551e-01   3.8603180e-01   5.5735450e-01   1.9364939e-01  -6.5078221e-01   1.2550424e-01  -2.6781128e-02  -1.1569068e-02   2.3826224e-01  -9.9109245e-01  -2.1234826e-01  -4.7016623e-01  -1.5142514e-01   9.9368987e-01   4.9108077e-01   2.0389306e-01   5.6224203e-01   4.6737448e-02  -7.9207026e-01   7.7421222e-01   6.2113854e-01  -4.1171698e-01   8.8554444e-01  -9.4635771e-01  -9.5293799e-02  -1.8144349e-01  -7.5934134e-01   2.0946218e-01   7.9952783e-01  -6.4240893e-01   7.9613799e-02  -2.8897721e-01  -1.9193117e-01  -4.4156739e-01  -9.5259285e-01  -6.9608544e-01   7.8128330e-01   2.4654497e-01   6.9107743e-01   2.9971786e-02   5.7221256e-01  -5.9422128e-01   3.9817145e-02  -7.8958141e-01   7.1589067e-01  -4.5392075e-01   3.1105848e-01  -7.7683722e-01  -8.9300414e-02   8.2140290e-01   1.8717912e-01  -3.2219417e-01   1.3510055e-01  -5.8295725e-01   3.3662844e-01  -9.0254212e-02  -2.2935855e-01  -2.9386912e-01   2.9152959e-01   7.7489847e-01  -1.1506855e-01   2.9186608e-01  -6.8162546e-02  -7.3255661e-01  -4.4001375e-01   8.3279268e-01   4.0487912e-01  -8.0927124e-01  -5.0532048e-01  -4.3945619e-01   8.4356658e-01  -6.4775407e-01  -9.2009691e-01  -9.5765240e-01  -2.9524445e-01  -3.9090382e-01  -2.6835057e-01  -8.0063803e-01   2.7127345e-01   6.0256572e-01  -5.5392423e-04   9.8443027e-01   1.2395654e-01   2.7323005e-01   3.4510737e-01  -9.7896435e-01   4.4187813e-01  -8.5775321e-01   3.4170071e-01  -5.4560173e-01   9.1614737e-01   1.6517838e-01  -4.5378138e-01  -6.2079342e-01   7.1531005e-01   8.0660271e-01   8.9017277e-01   7.7413912e-01   3.3143542e-01   2.9689807e-01  -6.5103851e-01  -6.7708389e-01  -7.1669913e-01   8.3981294e-01  -7.6590692e-01   2.3337310e-01   4.1670188e-02  -9.8511334e-01  -7.4066866e-01   3.6569511e-01  -6.1466230e-01   6.6275633e-02   4.0886487e-01  -6.9939479e-01  -4.0981984e-01  -2.9283035e-01   2.4864035e-02  -2.8303731e-01  -5.8598717e-01  -1.3340439e-01   5.2682815e-01  -3.3046211e-01  -7.1706428e-01   5.0091211e-02  -8.0009424e-01  -5.1243860e-01  -7.9841028e-01  -5.4230777e-01   1.7523866e-01  -3.9319112e-01   6.5006400e-02  -9.2248173e-01   3.4827384e-01  -6.8109974e-01   8.8194894e-01  -6.0999939e-01  -7.4979575e-01   8.3035190e-01   3.9018683e-02   1.6698055e-01  -5.7309663e-01   1.5954396e-01   4.1245025e-01   1.5343261e-01   9.1688633e-01   3.3821686e-01  -6.2615256e-01   1.5120146e-01  -5.2922282e-01  -7.9796696e-01  -5.0885658e-01  -4.9356875e-01  -3.4804057e-01   3.3876001e-01   7.5988655e-01   3.8445279e-01   4.0373415e-01  -9.2039769e-01  -8.1537959e-01  -7.7086386e-01  -4.3951620e-02  -6.9388568e-02  -9.8822514e-02  -2.6899401e-01  -4.2825922e-01  -7.4358844e-01  -7.9927362e-01  -6.4001294e-01  -5.7053222e-01  -6.8147477e-01   7.1186673e-02   4.8056840e-01  -4.9207350e-01  -1.8041668e-01   8.6486283e-01   1.7045056e-01  -3.6641640e-02   8.9810020e-01   7.4150596e-02   7.8854693e-01   5.8343206e-01   1.8179301e-01   4.1271594e-01   6.1653051e-01  -5.6624650e-01   9.0490681e-01   8.2600399e-01  -4.1204402e-01  -9.6024810e-01  -7.1697898e-01  -4.2457430e-01   4.0222021e-01   7.0861044e-01  -7.4211097e-01  -2.0439500e-02  -4.0184914e-01  -1.9477307e-01   3.6351404e-01  -8.2678855e-01  -8.5828422e-01   3.5319240e-01  -2.6054719e-01  -8.8929469e-01  -8.8358819e-01  -5.0731146e-01   9.2407464e-01  -4.2413113e-01   3.5062658e-01   1.1010463e-01  -8.5604128e-01   8.3982115e-01   8.2411890e-01   7.5468653e-01   4.1087763e-02  -1.5867528e-01  -3.2473400e-01   4.6838472e-01  -5.9421258e-01   7.6561736e-01   7.1618455e-01  -2.8110254e-01   7.2506950e-01   3.4614346e-01   6.1513518e-01  -6.5440121e-01  -9.4136281e-01  -3.4939544e-01  -2.1159832e-01  -1.5745643e-01   3.5867844e-01  -9.0857475e-01  -8.5411163e-01  -4.9545251e-01  -6.6037341e-01   2.4427576e-01  -4.2034643e-01  -7.5241948e-01   2.2335291e-01  -9.6541659e-01   8.9286006e-01  -5.1807367e-01   8.5619275e-01  -8.4686418e-01   2.3204618e-01  -9.3252803e-02   3.7404664e-01   5.3297618e-01   4.7616610e-01  -3.4108996e-01  -9.2125107e-01  -5.2116441e-01   8.6640043e-01  -5.0293541e-01  -1.2110281e-01  -6.7403881e-01  -6.3792938e-01   3.7664520e-01   5.3368429e-01   1.1080578e-01  -1.9394556e-01   4.9083889e-02   7.3934208e-01   4.3576499e-01   9.0452025e-01  -1.8936372e-01   5.3550421e-01  -9.0493711e-01   2.2371782e-01  -8.7850787e-01   2.2707667e-01   3.1400331e-01   1.0895211e-01   2.5190135e-01   7.0654710e-01   8.8508929e-01  -1.7342663e-01   1.2328688e-01   9.3224497e-01   6.8971603e-01  -8.5204235e-01   5.3094089e-01   9.0869474e-01   2.7689555e-01  -4.5369442e-01   5.7460723e-01  -1.9961168e-01   3.6308464e-01   6.8692741e-01  -8.9730225e-02  -8.7622594e-01  -4.7591793e-01  -3.8573950e-01  -5.2996495e-01  -3.2424196e-01  -9.7207274e-01  -1.4519314e-01   7.6989972e-01  -3.7970627e-01   7.8251451e-01   3.7321354e-01  -8.6452313e-01   9.6857646e-01  -5.5897657e-01   1.7049421e-01   9.4111822e-01   4.2104944e-01  -1.2075620e-01  -3.1805984e-01  -7.5562440e-01   1.3549527e-02   2.8789289e-01   9.1509735e-01   7.6225010e-02  -5.4376414e-01   1.5521742e-01  -2.2911333e-01   3.1797494e-01   1.2721731e-01   6.2043512e-01  -1.7196522e-01  -2.1459684e-02   1.3664660e-01  -9.0393974e-01  -9.1369376e-01   9.6210317e-01   3.5378031e-01  -9.2945825e-01   6.7249997e-01   2.8013210e-01  -3.4233663e-01  -9.7150644e-02   8.4094428e-01   9.9937563e-01  -6.5458940e-01   5.3894581e-01   9.5180030e-01   2.5415134e-01   4.1625837e-01  -1.2438889e-01  -2.2529793e-01   2.2530880e-01   6.1862086e-01   3.7080991e-02   8.9254368e-01  -3.5291871e-01   9.8355442e-01   3.1006194e-01  -7.9655140e-01  -4.7015173e-01   1.0966689e-02  -8.1093895e-01  -8.2796461e-01   6.3401447e-01   8.7109780e-02   4.4830390e-01  -3.4727477e-01  -3.6196518e-01  -5.9909408e-01  -7.5936221e-01   8.2699965e-01  -9.7804753e-01   9.3364502e-01  -8.3334531e-01  -3.3272462e-01  -6.7281409e-01   5.6789659e-01   3.4552764e-01   8.5754120e-01  -7.7102375e-01  -9.6688423e-01  -8.7178585e-01   8.3555052e-01   6.6027226e-01  -4.9154522e-01  -7.0492305e-01   9.6218795e-01   5.1658048e-02  -8.8430688e-01  -7.7747308e-01  -8.3159498e-01   1.1827226e-01  -1.2396723e-01  -2.0038147e-01  -2.4543972e-01  -2.5295903e-01  -7.3174296e-01   1.2005486e-01  -3.0582396e-01   8.4113180e-01   8.3164910e-02   8.3589477e-01  -6.6348358e-01  -7.0898385e-01  -7.9191408e-01   3.0761833e-01   6.1687459e-01  -8.7016526e-01   3.2201455e-03   7.9560714e-01   2.8458250e-02  -5.4007805e-02  -8.1665371e-02   1.3665295e-01  -6.9733985e-01  -1.5703895e-01  -8.8765016e-02  -3.1246663e-01  -9.6526743e-01   7.7051953e-01  -7.4748394e-01  -4.1731963e-01  -4.6400316e-01   3.0363726e-01  -1.9826354e-01  -5.6523269e-02  -2.8351131e-01  -8.7184427e-01  -1.3778598e-01   3.5978795e-01   4.7347119e-02   9.0612229e-01   1.1080650e-01  -1.6752062e-01  -1.1957024e-01  -6.7166074e-02   7.7295542e-01  -2.8374633e-01  -4.4986637e-01   8.6834217e-01  -3.3672355e-01   2.0062509e-01   5.4431130e-01   1.0273787e-01  -2.6828308e-01  -8.1714674e-01   7.3150862e-01  -1.0317810e-01  -4.0158868e-01   4.6109802e-01  -8.7021607e-01   3.0922826e-01   8.9537209e-01  -9.4325530e-01  -3.7735798e-01   2.0968353e-01  -9.5690260e-01   3.8295463e-01   7.1108850e-01  -7.1267350e-01   8.0558328e-01   4.2999412e-02   8.0276899e-01  -1.3386651e-01   1.0048331e-01  -1.2378179e-01  -2.6209908e-01  -5.6336226e-01   6.3106413e-01  -1.1274802e-01   3.7141404e-02   8.6740933e-01  -4.2303755e-01   2.8523617e-01  -8.1253549e-02  -6.0323073e-01   1.2336080e-01   6.2718671e-01   7.5841211e-01   6.9960329e-02  -4.8915178e-01  -6.6803212e-01   1.1282771e-01   6.0187748e-01  -4.5270766e-01   3.9097989e-01  -6.6651272e-01  -1.2700023e-01   9.9938527e-01  -2.1330484e-01  -1.1200740e-01   1.0086771e-01   8.9726183e-01   8.9867081e-01   6.8153890e-01   4.6210056e-02   5.8411917e-01  -6.2023835e-01   8.7105571e-01   7.3232299e-01  -7.4362040e-02   1.3362219e-01   1.3694481e-01   7.6939496e-02   7.0056767e-01  -4.1662142e-01  -9.0712930e-02   9.9447300e-01  -4.4566790e-01  -2.3761485e-01   5.6847030e-01   9.2490526e-01   1.3040874e-01   8.0490253e-01   9.6333382e-01  -6.7709604e-01   3.3466331e-01   6.7987043e-01   4.1574613e-02   7.5420574e-01  -1.5617709e-01   2.7769946e-01  -1.8762222e-01   8.4292255e-01   8.5120706e-02   4.7185760e-01  -5.9129126e-01  -2.0971702e-01   3.7711902e-01   8.3064558e-01  -1.8162563e-01  -5.7705769e-01   5.2576564e-01   2.2908059e-01   2.0142357e-01   7.5033591e-01  -9.2820164e-01  -1.1997358e-01   6.2760931e-01  -9.0009776e-01  -5.2434972e-01  -2.5994301e-01  -5.9751785e-01  -8.4605016e-01   7.7409149e-01   9.0928222e-01  -6.6406852e-01  -3.2573914e-01   2.7240764e-02  -9.0147774e-01   7.8672079e-01   3.3639926e-01  -3.0555880e-01   2.9446557e-01   3.7695724e-01  -9.0221688e-01  -7.8963927e-01  -6.5253593e-01   6.8487506e-01  -4.8728475e-02   5.8828917e-01   7.7100080e-01   7.8989331e-01  -8.3145856e-01   7.1599955e-01   8.3416905e-01  -6.9323980e-01  -1.6602590e-01  -4.0095211e-01  -4.4530672e-01  -4.7587093e-01  -2.0407878e-01  -9.7379820e-01   1.6875725e-01   2.0045257e-01  -2.8639172e-01  -7.5672808e-01   1.3856153e-01  -1.0312563e-01   4.8710378e-01  -5.6587747e-01   3.6615898e-01  -4.3249076e-01  -9.9093960e-01  -7.5361433e-01   2.0607428e-01  -5.2354041e-01  -1.3516852e-01  -2.5740892e-01   5.7828348e-01   3.0594344e-01  -7.1617341e-01  -9.7702467e-01   7.1328072e-01  -5.4240139e-01   8.5921924e-01  -2.3551999e-01  -1.0049549e-01   2.0060132e-02  -4.3327800e-01   7.6234319e-01   2.9530098e-01   5.3005209e-01  -7.6914656e-02   6.5990169e-01  -8.6624497e-01   5.3792554e-01  -3.9321875e-01  -4.2534981e-01  -4.4532231e-01   5.3978724e-03  -4.1679193e-01  -9.6100742e-01   9.1803892e-01   9.1177765e-01  -5.8845612e-01  -9.1551520e-01  -6.8437070e-01  -5.7109614e-01   2.0437198e-01   2.6211530e-01   4.1725218e-01   5.8992075e-02   9.6452650e-01  -8.6876451e-01   2.6436554e-01   8.3102270e-01  -8.1137918e-01  -8.0673304e-01  -5.4862496e-01   7.8119623e-01   7.7685303e-01  -5.3805713e-01   2.1991552e-01  -1.3726459e-01  -6.6199616e-01   2.6646244e-01   7.4763298e-01  -2.3480781e-01   9.8525016e-01  -9.1048657e-01   6.9972439e-01   4.3150342e-01   2.0730080e-02  -7.8055862e-01  -6.6961782e-01  -3.1223735e-01  -9.0449874e-01   1.0876527e-01  -4.5836401e-01  -4.7369881e-01   8.1679194e-01  -4.1863665e-01   7.5755358e-01   5.7306718e-01  -8.7498636e-01  -2.8033128e-01   8.7891560e-01  -4.5103804e-01   4.2093640e-01   8.4678428e-01   1.8616253e-01  -4.1291913e-01   7.9231510e-01   8.3141036e-01  -2.6692333e-01   7.8421559e-01   8.1056901e-01  -5.2859892e-04  -2.2582418e-01  -3.4228806e-01  -6.5519569e-01  -8.1929021e-01  -6.0776833e-01  -1.3216125e-01   8.7770080e-01   9.7986507e-01   2.2465640e-01   7.5267561e-02  -4.3643811e-01   2.5458952e-01   8.6618665e-01  -8.9139164e-01   5.5165818e-01   3.2115824e-01  -9.9553378e-01  -7.9111649e-01  -7.7648632e-01   6.6170264e-01  -5.2830654e-01   2.5192523e-01   4.2036361e-01  -9.4759247e-01   1.9829831e-01  -9.3149158e-01   1.0787335e-01  -1.0595895e-01   1.1157721e-01  -3.1977011e-01   6.8456738e-01   4.9923091e-01   4.7274643e-01  -4.2375282e-01   5.1534702e-01  -5.3019183e-01  -1.8182314e-01   9.3935018e-01  -2.2717044e-01   3.2318948e-01  -1.0921694e-01  -4.1752298e-01  -1.3817985e-01   5.7546753e-01   7.6546478e-01  -6.2965357e-01  -8.3062660e-01   7.3083416e-01   3.2265012e-01   9.6556724e-02  -8.3989494e-01   8.1873977e-01   6.3562419e-01   8.7852736e-01  -1.6056143e-01  -9.9678678e-01  -2.9825313e-01  -2.5599479e-02   6.0988105e-01   7.3288093e-01  -2.3944139e-01   3.5937990e-01   7.7276884e-01   2.6804694e-01  -6.7860691e-01   1.3511941e-01   1.2997295e-01   8.5604482e-01   5.1667088e-01  -5.0633799e-01  -1.7335899e-01  -1.6258387e-01   1.7378888e-01   7.6031185e-01  -8.4606067e-01  -1.8315910e-01  -3.0554153e-01   9.2278094e-01  -5.2560561e-01   6.4455152e-01  -8.7942329e-01   7.5067999e-01  -2.8277290e-01  -5.9341567e-01   1.4844821e-01  -7.7380549e-01   1.2606599e-01  -6.9458932e-01   7.6462077e-01  -9.8127491e-01  -6.4226797e-01   7.3318315e-01  -1.2354381e-01   1.6701064e-01  -1.0719181e-01   8.9490516e-01  -1.3371541e-01  -6.0422928e-01  -8.1535501e-01  -3.4712822e-01   8.4883321e-01  -7.8130087e-01  -7.1056578e-01  -6.6620578e-01   7.9314533e-01  -1.7725761e-01  -6.4509695e-01  -5.5399896e-02  -8.6250014e-01  -9.7059150e-01  -3.7073195e-01  -1.5922871e-01   2.9504465e-01  -6.1120082e-01  -7.0808927e-01  -5.9798230e-01   6.8828751e-01   3.3041236e-01   1.3201951e-01   3.0011343e-01  -4.7841747e-01  -3.5319668e-01  -3.3166170e-02  -8.9308048e-01   3.7531449e-01   9.5730848e-02  -7.7852470e-01  -4.4562747e-02  -3.8358207e-01   6.0712235e-01  -4.1244998e-01  -8.2530286e-01   1.4184190e-01   8.2426009e-01  -2.9340416e-02   3.6374211e-01  -5.4079779e-03  -7.3810089e-01  -9.9692476e-01  -2.8895432e-01   1.1172626e-01  -4.8071614e-01   3.5822570e-01   2.7700906e-01  -1.9564333e-01   7.0283031e-01   7.3949239e-01   3.0314155e-01   5.9042326e-02  -4.6167082e-01   2.0200624e-01  -3.7896278e-01  -5.6804468e-01   4.9978906e-01  -9.6674554e-01  -8.1319082e-01   5.0706232e-01   9.9642487e-01   7.8151130e-01  -3.5460361e-01   4.4458725e-01   3.3627010e-01
