   9.1121254e-01  -3.2291544e-01  -8.0899312e-02   8.5394967e-01  -9.2700262e-01  -9.6941639e-01  -2.1898533e-01  -7.1788038e-01   8.6525602e-01   4.5489778e-01   5.0796211e-01   1.7494147e-01  -3.8611662e-01  -7.2448143e-01   7.1648700e-01   6.4671129e-01  -1.2376188e-01  -7.6474340e-01  -4.1532446e-01   6.8172978e-01   2.9502486e-02   6.1937319e-01  -6.7729939e-01  -6.9788285e-01   4.7498867e-01   7.6678753e-01   9.3965687e-01  -5.1206728e-01  -1.8442733e-02  -5.0798365e-01   5.2402248e-01  -2.4490877e-01   4.7640303e-01  -2.8455609e-01   4.2121507e-01   1.7696502e-01   4.7199620e-02  -1.6107707e-01   6.3914091e-01   1.1854168e-01  -4.7375367e-01  -4.6458924e-01  -1.5411497e-01  -4.5634770e-01  -1.0979113e-01   2.0948687e-01   6.2763266e-02  -2.4840236e-01  -2.9812202e-01   8.4008711e-01   7.1109707e-01   6.1929573e-01   8.8954741e-01  -3.0912828e-01  -6.7920019e-01  -3.1359065e-01   9.7660158e-01   8.7210441e-01   3.3294873e-01  -2.7353793e-01  -6.2396107e-01   1.7066374e-01   1.0506410e-01   6.6433386e-01  -3.9118623e-02   6.2084836e-01  -7.7909069e-01  -6.4963460e-01   1.8822848e-01  -3.6089251e-02   5.4490116e-02  -6.9471934e-01  -6.2996102e-01   4.7859459e-01   5.1650455e-01   4.6157830e-01  -4.3465291e-01   8.5244871e-02   3.6759452e-01   5.4500449e-01  -4.5362452e-01  -6.8613595e-01  -4.2790919e-01  -8.8205305e-01   9.9507285e-02   3.9965986e-01  -6.5386486e-01  -4.6303153e-01  -1.2166836e-02  -2.4492736e-01  -3.1804543e-01  -4.7745683e-01   9.9625307e-01  -8.9936539e-02  -4.0638017e-01  -5.8510012e-01   5.7202740e-02   3.4112006e-01   3.9758339e-01   4.4068076e-01   3.4574814e-02  -3.8778543e-01   8.4885402e-01   5.1367537e-01  -9.2365645e-02   2.9315913e-01  -6.1969495e-01  -7.3119260e-01  -6.0405730e-01   2.7808953e-01  -5.8680607e-01  -4.9902005e-01  -4.7413213e-01   4.8497011e-01  -9.0149907e-02   4.5340410e-01   8.8359243e-01  -4.0155221e-01   5.9635991e-01   8.2734932e-01  -9.9940978e-01  -1.7043213e-01  -2.6418941e-01  -4.7770524e-01  -2.7622252e-01   8.4821754e-01  -7.2138732e-01   2.1319926e-01   5.9934967e-01   5.5692170e-01   5.9556659e-01  -5.8060071e-04   5.7578867e-01   8.2872373e-01  -6.6853785e-01  -5.3168516e-01   1.3290425e-01   9.3974730e-01   7.6717031e-01   2.3536333e-01  -1.4400156e-02  -7.8421445e-01   8.8408121e-01   5.6041681e-01   7.5091550e-01  -1.7539476e-01   4.7863027e-02   2.8976787e-01  -8.7131709e-01   8.8282303e-02  -9.8726601e-02  -8.7476429e-01  -7.0770976e-01  -6.0831778e-01  -9.4261137e-01   7.2003468e-01   8.6947393e-01   2.7703194e-02  -5.0538533e-01   2.0113571e-01  -5.6204454e-02   9.0829153e-01  -7.1570945e-01  -6.2827090e-01  -2.0713019e-01   4.0414409e-03   3.8411172e-02   6.9594055e-01   9.2235938e-01  -3.9679169e-01  -6.5607653e-01  -9.0571049e-01   9.2437860e-01   5.3324707e-01  -2.1117452e-01  -3.6954798e-02  -9.0591618e-01   3.4141500e-01  -8.2981312e-01   1.0753572e-01   1.1809631e-01   9.6750535e-01  -8.1066288e-01  -2.0272612e-01   2.0886093e-01  -7.3248187e-01   3.1687030e-01   5.7440619e-01  -7.3664767e-01   1.4394915e-01   1.2075051e-01   6.3399380e-01  -3.8524042e-01   2.6850154e-01   3.2405422e-02  -3.2637061e-01  -5.3843091e-01  -4.5042938e-01   2.6811876e-01   8.1444153e-01   2.0612204e-02   3.2288924e-01   8.8074729e-01   6.9709336e-01  -7.8417886e-01   9.4215798e-01  -2.6581736e-01   1.9061258e-01  -8.8291088e-02   8.5909324e-01  -9.8793747e-01  -1.7547804e-01   7.9044977e-01   3.3347647e-01  -9.7994224e-01  -4.2927035e-01   1.2881971e-01   3.9276631e-01  -1.5116908e-01  -5.8098123e-01   9.1899155e-01   6.2291805e-01  -6.8534911e-01   6.8920011e-01   3.2950726e-01   8.7814313e-01  -8.0945615e-01   7.8740264e-01   5.6888656e-01   5.0266875e-01   9.3358650e-01  -5.9178480e-01  -8.8672114e-01  -2.7179046e-01   4.2814095e-02   6.7728341e-01  -8.3067088e-01   8.9541070e-03   6.3516077e-01  -7.5911934e-01   8.6237294e-02   4.2674339e-01  -8.7747744e-01   4.1898793e-01  -2.9124748e-01   5.3207649e-01   3.1532065e-01   4.9597211e-01  -8.3837405e-01  -8.0589394e-01   6.3875543e-01  -5.1931620e-01   8.3939633e-01   8.4500977e-01  -7.2162463e-01  -4.6748453e-01   3.8758211e-01   3.8984684e-01   5.8704284e-01   5.1043440e-01   2.0036549e-01  -4.4761027e-01   7.0224786e-01   5.3691277e-01   2.8424016e-01  -1.5078438e-01   5.5115293e-01  -3.3260340e-01  -2.6306653e-01   3.4621803e-01   2.5353984e-01  -2.2616746e-01   1.8768853e-01   2.8649877e-01   5.3326375e-01  -8.9482673e-01  -2.6311773e-01  -3.3201689e-01   7.5399420e-01  -3.2376579e-01   9.9175386e-01  -6.2870178e-01   7.6663707e-01  -4.5562131e-01   8.8554940e-01  -1.7096660e-01  -3.2079937e-01  -6.0416346e-01   4.6940521e-01  -8.4596068e-01   5.2581458e-01  -5.4180589e-01  -4.2333124e-01   8.6714900e-01   3.6769513e-01  -9.0184599e-01   1.9911173e-01  -5.7937503e-01   2.7316326e-01  -5.8501192e-01   4.1705894e-01   5.5374207e-01  -2.1666183e-01  -2.2494628e-01  -4.3069650e-01  -3.8449540e-01   8.5084738e-01   6.5215798e-01  -5.1116946e-01   8.4921488e-01   7.3810229e-01   2.1617017e-01   1.8454799e-01   6.0157658e-01  -1.9240650e-01   2.6722911e-01   1.9462667e-01   1.0681235e-03  -7.1229561e-01   8.7273218e-01  -9.6240448e-01  -8.2814952e-01  -7.0239795e-01   3.0203259e-01  -2.3883797e-01  -1.2819879e-01   3.4909085e-01  -4.8567509e-01  -1.7687035e-01   8.0219686e-01   5.0524253e-01  -7.1713476e-01  -8.9548857e-01  -5.5861204e-01   2.3324606e-01   9.2657334e-01  -4.4044642e-01  -9.2425330e-01   4.1056193e-01  -9.0801179e-01  -1.0685301e-01  -4.0281902e-01  -4.4708408e-01   4.6050788e-01  -7.9944629e-01   7.8619145e-02   5.2006698e-01   5.3309076e-01  -7.8623556e-01  -4.7887089e-01  -8.6246351e-01  -4.7727543e-01   5.0020305e-01  -8.4148817e-01   2.5501369e-01  -9.3487600e-01  -8.9655574e-01  -4.8488032e-01   8.7388416e-01  -9.9048681e-01  -9.6488693e-01  -9.5032628e-01   1.5788601e-01  -2.2388785e-01  -8.3869012e-01  -6.1312274e-02   6.9994573e-01  -2.7061747e-02   1.7788057e-01   8.0251246e-01  -1.0410391e-01   5.6209230e-01  -3.3883079e-01  -6.3435221e-01   9.5221089e-01  -3.2926260e-01  -3.3274130e-02   4.0883783e-01   3.9584131e-01  -8.4230414e-01  -2.1788257e-01  -9.1016110e-01   7.7718830e-01  -7.9145137e-01   7.2662569e-01  -8.9547993e-01   8.0728146e-01  -9.4465799e-01  -6.0879601e-01   5.8957598e-01  -2.0445435e-01  -8.5014866e-01  -8.8053269e-01  -4.5513903e-01  -9.2919269e-01   8.5214813e-01   2.5942547e-01  -4.3309355e-01   2.4577724e-01  -8.8945037e-01   2.9226803e-01   3.1061795e-01  -8.9155061e-01   2.1098258e-01  -9.1812904e-01   8.1548965e-01   6.0114724e-01  -8.5153907e-01   3.3593038e-01   2.3585903e-01   4.0103605e-01   1.7008566e-01  -9.7090532e-02   8.1865130e-01   3.0361923e-01  -5.2796557e-01   8.6835178e-01  -6.7947452e-01  -1.4671751e-01   3.8371068e-01  -9.7544070e-01  -2.5772382e-01  -1.2357253e-02  -8.9993153e-01  -8.8480322e-01   2.6491591e-01   8.0759705e-01  -8.3402773e-01   6.9946249e-01  -9.5055829e-01  -9.8565892e-01  -2.8270683e-02  -5.9081281e-01   3.4931272e-01   5.5277930e-01   8.4867746e-01  -9.4364274e-01   2.0175837e-01   8.7449469e-01  -7.9619965e-01  -3.1741816e-01  -4.4680458e-01   9.8369176e-01  -7.2556984e-01  -2.5395215e-01  -3.2586342e-01   1.9674445e-01   6.2213798e-01  -1.6298616e-01   6.9222374e-01   5.9506901e-01   4.5596551e-01  -7.6110827e-01   1.2796439e-01   8.6608114e-01  -4.5599049e-02   7.8481714e-01   8.4604311e-01  -6.6493309e-01   8.3547013e-01  -1.5726747e-01   9.3275464e-01  -5.8899398e-01   4.8613354e-01   1.1559081e-01   4.7929091e-01   7.7747705e-01  -6.4952247e-01  -2.2452146e-01   9.1910181e-01   5.6743942e-01  -8.2369390e-01  -1.2023969e-01   5.7501799e-01  -9.9971797e-01   8.6028823e-02  -5.7263010e-02   4.5946215e-01   8.3926761e-02   1.4153965e-01   3.3449672e-01   7.0644322e-01  -8.3672937e-01  -8.9119738e-01  -3.1009801e-01  -6.8171969e-01  -6.5140149e-01  -5.5288209e-01   9.9715967e-01   8.5243224e-01   5.2527330e-01   9.3225553e-01   5.7454735e-02   6.9811554e-01  -2.6913562e-01  -1.2704654e-01  -2.9827721e-01  -4.7253961e-01   3.7135943e-02   1.1307469e-01  -6.2150520e-01   1.2277733e-01  -4.4403037e-01  -7.1299619e-01  -8.5173981e-01   3.0509423e-01   4.2341453e-01   9.0275666e-01   5.8423734e-01  -2.7258369e-01   6.0706205e-01   7.7292109e-01  -2.8531794e-02  -1.0609305e-01  -6.9672330e-01   6.8855546e-01  -8.8438499e-01  -6.5365352e-01  -6.8945166e-01   3.8259875e-01  -6.5835201e-01   8.6712051e-01  -9.2889204e-02   3.9924560e-01  -4.5527477e-01  -1.3707937e-01  -9.1569913e-01   2.8364265e-01  -8.2549117e-01  -9.0480059e-01  -8.4385006e-01   2.0603956e-01  -6.2952655e-01  -3.4803796e-01  -2.2922940e-01   7.5756733e-01   3.0066014e-01   4.2213489e-01  -6.5407312e-01  -8.9645045e-01   2.4773964e-01  -7.0212688e-01   2.4128463e-01  -2.1172609e-01   9.4078248e-01   7.7603423e-01  -9.9364204e-01   8.7244916e-01   2.3543201e-02  -3.5504865e-01  -2.7094117e-02  -7.0207409e-01   6.9608884e-02  -8.9266281e-01   2.6186264e-01   9.0705954e-01   9.0044339e-01   1.9787087e-01   9.1036564e-01   4.6899382e-01  -7.9167891e-01   6.2240782e-01   3.3580409e-01   3.3099667e-01   6.5480929e-02  -8.2192985e-01  -2.0427605e-01  -8.5385692e-01   5.6780247e-01   1.2437359e-01  -4.5762086e-01  -8.2199044e-01  -6.3156236e-01  -1.6039076e-01  -7.0973230e-01   9.7334773e-01  -8.4929661e-01  -1.8939856e-01  -2.3237181e-01  -6.8179899e-01  -8.2468352e-01   9.0717396e-01   2.7499942e-01  -3.1624456e-01   3.3226709e-01   8.8289666e-01   2.9287565e-01  -9.9750380e-01  -4.3082740e-01  -7.1481502e-01   7.1427264e-01   2.5481582e-02  -4.0269110e-01  -6.1340153e-01  -7.1849622e-01   7.5449765e-01  -7.4806037e-01  -6.7444051e-01  -9.5464963e-01  -5.6467019e-01   3.7979843e-01  -3.4528499e-01  -1.8227113e-01   8.9975461e-01   4.1536570e-01  -7.9678798e-01  -1.1695136e-03   3.6115068e-01  -4.7634758e-01  -1.9005364e-03  -7.2375539e-01  -2.6675819e-01   6.9341960e-01  -7.1035416e-01   7.5381134e-01   8.1193901e-01   6.1013142e-02  -6.8219352e-01  -3.8308293e-01   2.1397167e-01   1.6410987e-01  -6.8657625e-01   2.8989375e-01  -2.1460397e-01   8.9574198e-01  -7.2613575e-02  -9.7258924e-01  -5.5380048e-01   6.3184514e-01  -2.4861310e-01   3.1920479e-01  -7.2688755e-01  -5.4894748e-01   7.0298956e-01  -1.4194930e-01   6.5139580e-01   6.9954409e-01  -5.2898680e-01   7.9136072e-01   7.1067376e-01   6.6456302e-01   9.0995151e-01  -1.6205012e-01  -2.2172135e-01  -6.4903674e-01  -2.4242646e-02  -7.1250520e-01  -4.7900222e-01   3.8195366e-01   7.1068881e-02  -2.8556646e-04  -9.1007550e-01   3.9728751e-01   6.0589925e-01  -4.3558741e-01  -1.0926899e-01  -9.8955887e-01   7.4473930e-01   9.8743969e-01  -8.9092826e-01   4.6197353e-01   4.9947104e-02  -8.8851800e-01  -3.6057328e-01  -4.8006854e-01   9.6351919e-01  -6.0140575e-01  -9.6750535e-01   8.0480642e-01   9.1360951e-01  -4.7702495e-01  -1.9405695e-01  -3.8260229e-01   9.1558751e-01   3.0343451e-01   4.0728117e-01   8.1097779e-01  -9.2090803e-01  -5.3518167e-01   5.9377877e-01  -2.3645750e-01   7.3440985e-01   1.2236816e-01  -2.0176510e-01   3.9616133e-01   4.5445160e-01   4.6270270e-01   8.9409931e-01  -3.9382836e-01  -4.7679333e-01   5.9579170e-01   1.8251951e-01   6.4633886e-01  -6.6623456e-01   9.7799051e-01   7.9841900e-01  -8.9415278e-01   7.0220009e-01  -1.8166967e-01   8.0062140e-01   8.0575954e-01   1.7572379e-01   6.3866512e-01   9.3252853e-01  -7.1665391e-01  -2.8629118e-02  -4.0616680e-01  -5.5205528e-01   8.0299333e-01   2.1397074e-01   7.9158201e-01  -9.6363974e-01   2.6461040e-01  -3.2901172e-01   8.4154133e-01  -8.4720611e-01   1.8868509e-01   9.2942085e-01  -1.5080936e-01   7.1222380e-01  -4.8957574e-01  -8.1979026e-02   8.4701809e-01  -4.4881584e-01  -2.8753517e-02  -2.7238021e-01  -3.2805254e-01   1.1295093e-01   8.4791224e-01  -6.8116837e-01   6.1714740e-01  -5.5979219e-02  -1.2877721e-01   9.6873488e-01  -4.3901325e-01  -7.5168411e-01  -2.2040911e-02   9.8146208e-01  -4.2046636e-01   4.9147949e-01  -6.5661971e-01  -4.4153004e-01   2.3621935e-01  -7.7883417e-01   9.7674950e-01  -2.4076828e-01  -2.3776586e-01   6.2175309e-01  -9.0503048e-01  -2.7777088e-01   4.3697414e-02   7.6057222e-01   3.2096997e-01  -4.0099553e-01   9.3712739e-01   9.7465238e-01   2.4604008e-01   2.5851842e-02  -8.7026944e-01   8.5472120e-01  -1.4192798e-01   6.3334899e-01   3.2371448e-01   3.5911134e-01   2.5315505e-01   3.4959025e-01  -8.6052044e-01   5.7564671e-01  -3.1239995e-01  -7.2199771e-01   9.1263098e-01  -9.3184060e-02   6.7660260e-01  -7.5409890e-01  -9.2049980e-02   7.3375282e-01  -1.3744440e-01  -3.5389633e-01  -8.4435586e-01   6.6529163e-01   3.6893146e-01   9.8092158e-01   7.2185343e-01  -9.7780259e-01  -1.1823745e-01  -4.3607017e-01   6.2825250e-01  -8.4543191e-01   2.4058660e-01   8.9963030e-01   8.7705839e-01   6.8277908e-01   5.5124781e-01   2.1580566e-01   1.6202792e-01   7.6190324e-01   3.6261372e-01   9.1070133e-01   9.5911985e-01   1.4905399e-01   5.9671734e-01  -4.3069302e-01  -8.1533271e-01   7.7344137e-01   4.6796392e-01  -1.6024883e-01   9.2358930e-01  -6.7689517e-02  -7.5031572e-01   4.0869045e-01  -9.1041425e-01  -7.2361987e-01   3.6685014e-01   8.1452468e-01  -6.1461683e-01  -7.3486638e-01  -4.1499601e-01  -7.6169969e-01  -4.5792248e-01  -2.0131127e-01   9.7965867e-02   3.3021805e-01   7.3994681e-01   7.3539533e-01  -4.4307883e-01   4.0414117e-01  -6.2689498e-01  -2.7690748e-01   9.2564867e-01  -7.0720050e-01   8.2009155e-01   1.5219200e-01   5.3236748e-01  -9.4566506e-02  -8.4910069e-01   7.0625799e-04  -4.7913053e-02   1.1843256e-01   1.6919136e-01  -6.7729851e-01   5.1485398e-01  -2.8471578e-02   3.6133741e-01  -4.3345457e-01  -8.4126186e-01   7.9481788e-01  -7.7134320e-01  -4.8737254e-02   5.4253640e-01   4.4739539e-01  -7.1011416e-01  -2.4692529e-01   5.5270976e-01  -6.2575346e-02  -6.9643876e-01  -6.8092988e-01  -4.1901246e-01   8.6028427e-01  -6.7961105e-01  -5.8784675e-01   4.4394013e-01  -3.1814758e-01   9.8208326e-01  -3.2845648e-01   5.5220787e-01   5.5970584e-01  -9.1401992e-01   6.8133437e-01  -8.0361299e-01   5.3539343e-01  -9.7158298e-01   3.0442701e-01   5.4962584e-01  -3.7704281e-01  -8.3973678e-01  -4.6096357e-01  -7.3478190e-01   2.7407479e-01  -1.8328362e-01   7.1055958e-02  -6.5552295e-01  -1.0238934e-01   5.2181810e-01   3.4153113e-02   4.5008622e-01  -9.1651617e-01  -2.2616871e-01  -3.3860957e-01  -8.5771695e-01   8.4214560e-01  -9.4944190e-01   4.3290829e-01   6.1928307e-01   7.8177564e-01  -6.8949247e-01   5.8677315e-01  -8.6116058e-01  -4.3418907e-01   6.6633843e-01   5.5623790e-01   7.5565049e-01   8.0185111e-01  -2.0560942e-01   6.1533179e-01  -6.5286885e-01   9.3729755e-01  -6.0102706e-01   8.7105149e-01   2.1561735e-01   2.5554930e-01   2.1296218e-01  -6.6513798e-01   5.3279470e-01  -2.5132423e-01   6.4884979e-01  -4.6658248e-01  -7.1564195e-01  -9.4665620e-02   9.4476521e-01   2.8296347e-01   6.6577682e-01  -9.2307560e-01  -9.3843144e-01   2.6077551e-01  -2.4946463e-02  -7.1497812e-01   5.2377778e-01  -7.2339836e-01  -7.7413761e-01   7.7271185e-01  -4.2474062e-01   6.4808291e-01  -8.5492720e-01  -2.5445783e-01   6.6212386e-01   4.1439671e-02  -7.7894351e-01   1.0156704e-02  -1.8065411e-01   8.0447040e-01   8.6894554e-01  -4.7797845e-01  -6.7485802e-02   5.4157944e-01  -3.0642994e-01   5.5227949e-01  -5.7603186e-01   9.4216344e-01   3.4700169e-01  -1.8052558e-02   3.5108342e-01   6.4041746e-01   1.1780933e-04   4.6385970e-01  -5.5532137e-01  -9.8902077e-02   9.9510139e-03   7.8135326e-01   8.5383497e-01   3.5083139e-01   2.8223483e-01   4.8955821e-01   5.2918945e-01  -4.0554241e-01   4.8578152e-01  -8.0823296e-01  -3.5058533e-01   3.5423159e-01  -2.9183460e-01  -4.3383069e-02   9.2046718e-01  -5.6951352e-01  -6.7289590e-01   2.5656778e-01  -9.7316397e-01   5.2799123e-01   2.7876064e-01  -7.0784655e-01   2.6536091e-01  -2.8030331e-01   4.2173198e-01   1.7792892e-01  -5.8789441e-01   5.6638493e-01  -8.9368109e-02   3.7334006e-01  -6.6923943e-01  -1.8474584e-01  -3.6227079e-01  -2.7325009e-01   5.8038592e-01  -6.3121996e-01  -6.3555565e-01   1.6442099e-01  -3.2333267e-01  -7.3178022e-01   7.2453440e-01  -8.0933900e-02   8.6149946e-01  -5.5596403e-01
