   9.6842839e-01   9.4681090e-01  -2.0380151e-01  -7.4077806e-02  -2.5482807e-01  -1.3561439e-01  -7.8656219e-01  -3.7404613e-01   4.1720029e-02  -8.1161817e-01   3.0592350e-01   5.8743199e-01   9.4778536e-01  -1.8413395e-01   2.2638302e-01  -9.8221186e-01   3.4244718e-01   3.4250793e-01   8.3590461e-01   3.4745608e-01  -3.4025733e-01  -5.6911682e-01  -2.1563534e-01  -8.8967730e-01  -6.1511527e-01  -9.1292279e-01  -4.1161187e-01  -5.8124183e-01  -1.6652631e-03   9.7230200e-01   8.4592600e-01  -2.3471321e-01   3.1950277e-01   4.6846992e-01  -6.8568051e-01   1.3754289e-01   1.8886571e-02  -3.3612528e-01  -9.9518035e-03   9.0436989e-01  -4.8611886e-01   4.9586811e-01  -9.8144984e-01  -9.2664741e-01   8.5210213e-01  -5.9793777e-01  -5.4814367e-01  -8.4675320e-01   2.7465541e-02   3.4369585e-01  -7.3938458e-01   3.3318769e-02  -9.9467019e-01  -5.2908715e-01   6.9754074e-01   2.6047835e-01   1.0163895e-01  -1.9723710e-02  -3.3595182e-01  -7.7000926e-01   6.9865257e-01  -4.1717180e-01   9.3585547e-02   9.5701502e-02   3.7528514e-01   8.2301601e-01   8.3718921e-01   7.8850190e-01  -1.3276830e-01   9.2629449e-01  -6.4887051e-01   7.8051004e-01   4.4142816e-01   8.0055955e-01  -6.8651554e-01   2.7908945e-01   4.4127740e-01  -3.4876782e-01  -5.6569989e-02   3.7910964e-01   8.8882334e-02   4.3109369e-01   1.7000429e-01  -7.8765651e-01   9.9823364e-03  -7.3723740e-01  -8.0916396e-01  -8.4999717e-01   7.3703826e-01  -7.4366936e-01  -5.1599196e-01  -3.8960169e-01   6.7028063e-01  -4.7478710e-02   4.9660385e-01  -4.1684768e-01   7.3032467e-03  -8.7419523e-01   2.0673397e-01   3.2278254e-01  -2.5933999e-01  -1.8070324e-01  -8.6952245e-01   2.9471620e-01  -7.7319306e-01  -2.2442569e-01  -3.1990753e-01   4.8773607e-01  -4.1258658e-01   7.5492803e-01  -6.2730964e-01   5.2516569e-01  -4.9863394e-01  -6.1795302e-01   4.7912502e-01   7.1443019e-01  -2.3402172e-01   7.3727925e-01  -7.0335691e-01   7.7225622e-02   4.2712105e-03  -7.3505711e-01   5.5221060e-01   9.5025206e-01  -5.7704564e-02  -6.1102376e-01   4.7227938e-01   3.9520837e-01  -6.3744598e-01  -3.7113858e-01  -1.9715635e-01   5.0562078e-01   1.3125119e-01   9.5667148e-01   7.3630088e-02  -6.5634666e-01  -3.9503473e-01  -1.2581311e-01  -9.2985937e-01   9.3547235e-01  -3.9631124e-02  -9.4178401e-01   7.7295662e-01   8.3522824e-02   6.7134323e-01  -3.9356082e-01   2.0981860e-01  -9.4796997e-01   5.8532939e-01  -6.6897464e-01  -6.5038174e-01  -4.0333463e-01   7.6420738e-01  -6.1233967e-01   5.5093681e-01  -7.1181027e-01   5.1230590e-01   5.6941269e-01   5.6673294e-01  -2.7975223e-01  -3.4144059e-01  -1.0117634e-01  -6.8094181e-01  -3.4613978e-01  -8.6927975e-01   7.5131329e-01   6.9592848e-01  -1.2967493e-01  -6.6204174e-01  -9.4388906e-01  -1.6358600e-01   6.0653981e-01   7.0306608e-01  -2.3928067e-01   9.1844642e-01   7.6582900e-01  -6.2109087e-01  -3.9685794e-01  -1.5486275e-01   9.7681592e-01   7.8582735e-01   1.0997372e-01  -5.3516958e-01  -9.6643311e-01  -3.9220252e-01   8.2219202e-01   2.4536656e-01  -4.4864807e-01  -8.4876729e-01  -9.0224019e-01  -8.9280172e-01  -2.5210094e-01   2.8768667e-01  -9.7062637e-01   5.3543849e-01   2.0414600e-01   6.1581029e-01  -7.2790687e-01   7.9558873e-01  -5.4940524e-01  -9.4962130e-01   4.7221059e-01  -4.2473861e-01  -4.1181652e-01   2.5379177e-01   6.2227358e-01   7.3157498e-01  -8.7067002e-01   4.5187385e-01  -1.2688763e-01  -6.7263258e-01   6.1535636e-01  -1.1419196e-01  -2.7043666e-01  -1.2410150e-01   6.8686947e-01   8.2963002e-01   9.7320086e-01   9.9756968e-01  -9.8096796e-01   3.5710837e-01   5.2621338e-01   1.0170828e-01  -9.9088937e-01  -5.6193633e-01  -9.0225615e-01   7.8515186e-01  -9.5664245e-01  -9.4285364e-01   7.8285410e-01   2.1739307e-01   9.7837567e-01  -6.5752207e-01  -5.8869377e-01   6.4110562e-01  -8.1007895e-01  -9.2458665e-01  -9.0889437e-01  -4.7874769e-01   1.7970753e-01  -7.7405838e-01  -3.9093246e-01  -6.1220191e-01  -6.5021828e-02  -5.8711319e-01  -9.5491378e-01  -4.7959247e-01  -5.0025925e-01   5.9390850e-02   3.1195890e-02   4.8943755e-01  -4.7425027e-01  -8.1810714e-01  -5.6675711e-02  -8.2309292e-01  -6.7390506e-01  -1.5640904e-01  -2.3079673e-01   7.8618072e-01   6.4398746e-02   4.0678287e-01  -3.9998402e-01  -4.0112178e-02   8.4006518e-01   4.4551329e-01   3.9567279e-01   9.5476738e-01   9.9058952e-01   7.5600412e-01  -4.2572518e-01  -8.7122028e-01   5.4059236e-01  -7.8427309e-01  -9.3349828e-01  -8.8559214e-01  -3.3781534e-01  -8.6843053e-01   1.7216491e-01   3.9281186e-01  -9.6472094e-01   8.5489243e-01  -4.9176541e-01   8.4704302e-01   6.3934599e-01  -4.8918870e-01  -3.4710096e-01  -1.5667740e-01  -2.4731687e-01  -1.9655104e-01  -5.8606685e-01   7.5898977e-01  -5.6750898e-01  -6.6902639e-01  -6.9473232e-01   9.4544286e-01  -3.4441306e-01  -2.2878561e-01  -9.8490763e-01  -3.4949943e-01   8.3222970e-01   5.5113713e-01  -5.4160662e-01  -6.8718449e-01  -5.5391916e-01  -3.5611389e-01   6.3239465e-01  -2.9010106e-01  -7.7628790e-01   9.4159968e-02   3.1828057e-02   5.1623728e-01  -1.1361396e-01  -1.0390375e-01   7.5500341e-01   5.0223823e-01   7.2855520e-01  -5.5880977e-01   5.1027478e-01  -3.0806266e-01   9.1142069e-01   3.8260909e-02  -6.9021065e-01  -8.4931826e-01  -6.2249498e-01  -8.5961629e-01  -6.6566145e-01  -3.5100956e-02  -3.5423968e-01  -4.7088360e-01  -4.2622808e-01   4.2078682e-01  -4.3420742e-01   4.6982412e-01   5.9811643e-01   9.5641894e-01  -3.9711756e-01   1.3882584e-01  -8.2260381e-01  -9.9778742e-01   3.3011381e-01   8.4640370e-02  -3.5177876e-02  -3.3588202e-02   6.2713067e-01  -1.6055709e-02  -6.1393926e-01  -9.3726590e-01   6.8714032e-01  -1.8339428e-01  -9.5616933e-01  -3.2115550e-01   7.2088370e-01   8.1873742e-02   9.0041959e-01   3.2036998e-01  -4.4642859e-01   5.6655034e-01   3.0915691e-01   3.1447816e-01   7.7922608e-02  -6.5402420e-01   9.4206510e-01  -7.5573374e-03  -6.2872167e-01   2.5413482e-01  -2.3838821e-01  -7.1870896e-02  -6.9176773e-02  -4.1306811e-01   5.5939698e-01   3.5668368e-01  -7.7522962e-01   1.3229499e-01   9.4677501e-02   9.5867021e-01   2.0946709e-01  -3.3226866e-01  -8.2292855e-01   5.4272061e-01  -5.8305428e-01  -3.4597352e-02   9.0422130e-01   9.7857296e-01  -9.0263166e-01   5.3968331e-01  -3.5310184e-01  -5.4711137e-01  -5.5642308e-01  -2.7013397e-01  -8.4137492e-01  -9.0623722e-01  -3.0736709e-01  -4.7047046e-01  -4.4086070e-01  -4.3951273e-01   2.9749874e-01   4.4919852e-01  -1.1291857e-01   6.4447391e-01  -4.2827339e-01   7.0584203e-01   5.9185439e-01  -6.9837227e-01  -8.1151818e-01  -7.0365268e-02  -5.1415818e-01   9.1677142e-01  -2.3539200e-01  -2.9216415e-01   6.2323406e-01   3.8261050e-01   1.2088792e-01   2.4288218e-01   5.4759892e-01   1.3384931e-02   9.5652958e-02  -6.2361451e-01   8.4016183e-01   7.5049100e-01   1.4198903e-01  -2.6620502e-01   9.4895458e-01  -2.0364696e-01   6.8293662e-01   7.7559752e-01   2.8015437e-01  -7.6252808e-01  -9.2048496e-01   2.3057669e-01  -8.9034172e-01  -5.3931446e-01  -9.8745146e-01   5.6812310e-02  -3.0318863e-01   2.9339191e-01  -8.8707453e-01   3.5638352e-02  -4.9897331e-01   9.7910718e-01  -2.7546298e-01   4.8470832e-01  -9.9872367e-01  -8.3405129e-01  -1.2922876e-01  -5.1594196e-01  -7.3545402e-02  -5.7094544e-01  -4.3749879e-01   1.8459714e-01   8.4373408e-01  -3.7709234e-01  -3.7820723e-01   8.1174875e-01  -9.2678777e-01  -8.6661088e-01   5.5858739e-02   4.7498734e-01   4.0115105e-01   5.2459512e-01  -5.3457294e-01  -1.6587349e-01  -4.6847667e-02   3.2500507e-01   1.3631170e-01   5.8506515e-01  -5.2718294e-01   9.9674320e-02   1.0462501e-01   4.2005811e-01   5.2737358e-01   2.7546373e-03   3.3087348e-01  -6.3204202e-01  -5.2672069e-01  -1.1233131e-01   1.9784015e-01  -6.3958598e-01   7.0789426e-01   2.4333632e-01   5.5515716e-01  -2.9504214e-01   8.3046192e-01  -3.9854764e-01   5.4159166e-01   9.7570411e-01  -5.7431457e-01   7.7694327e-01   7.5132718e-02   8.3614085e-01   7.7514518e-02  -2.8764220e-01   9.5282690e-02  -7.9447075e-01  -2.1607361e-01   8.0789313e-01  -2.6390892e-01  -9.9920977e-01   7.4561254e-01   2.2440390e-01   8.3994455e-01   7.5462112e-01   7.2422847e-01  -5.8831333e-01  -7.2108004e-01  -7.6060651e-01   6.9468002e-01  -8.3690828e-01   5.6656475e-01  -7.2178310e-01   4.4821963e-01  -5.3339533e-02   2.7351213e-01   9.3733812e-01   7.7288339e-01   5.8249481e-01  -1.7200621e-01  -3.8790533e-01   7.4862429e-01  -3.7873046e-01  -7.0425529e-01   5.5129068e-02  -4.9470031e-01   7.5082652e-01   5.8912920e-01  -4.9143104e-01  -3.6522302e-01   2.9890425e-01  -1.6518997e-01  -2.6624824e-01  -6.2722651e-01  -4.8180313e-01  -9.0648949e-01   6.4830695e-01  -3.3396125e-01  -1.8507311e-01   6.5982786e-01  -6.9726205e-01  -8.3142435e-01   7.6157915e-01  -3.2645613e-01  -4.2998471e-01   8.3078969e-03   3.9740967e-01   6.8902977e-01   2.3726063e-01  -1.2177488e-01   1.7916349e-01  -7.3147409e-01  -6.6271072e-01   6.6453304e-01   5.9578801e-01   9.2345074e-01   1.0050841e-01   3.4452354e-01   4.1346114e-01  -7.9405060e-01  -8.5601219e-01   7.2988173e-02   6.8432000e-01   9.0894506e-01  -9.2491998e-01  -2.5410599e-01   8.2885174e-01  -4.7888478e-01  -6.9845827e-01   4.4692277e-01  -6.5688335e-01   5.7445629e-01   3.7095061e-01   6.1745337e-01  -9.0196430e-01  -9.4234700e-02   8.4505360e-01  -9.8007420e-01   6.6366521e-01  -2.6101787e-01   5.4840239e-01  -5.2613552e-01   6.5568466e-01   9.2239257e-01   8.7260174e-01   7.8509112e-01  -5.3190476e-01  -3.8543214e-01  -1.6931861e-02   3.6116090e-01   1.1897784e-01   6.6932452e-01  -1.3482185e-01   8.2834121e-01   9.3819141e-02   9.0384573e-02   8.3086390e-01  -8.3643767e-02   1.0824112e-01   4.9004997e-01  -5.1873591e-01   6.2833724e-01   9.0480877e-01   1.9263032e-01  -9.9324942e-01   3.2650042e-01   6.5762728e-01   9.3809150e-01  -1.2931001e-01   3.1517191e-01   3.4434904e-01  -9.1464563e-05   9.1533254e-01   4.3005330e-01  -8.9818610e-02   5.4038998e-01  -9.4803297e-01  -9.9470343e-01   5.7229551e-02   9.5482582e-01   3.9793182e-01   6.8881029e-01   8.5642185e-01   4.8681623e-01   5.3236486e-01   2.8007601e-01  -8.5955171e-01  -8.9036095e-01  -1.9461116e-01   9.7516361e-01   8.2787663e-01  -5.5767483e-01   4.4503553e-01  -9.3213366e-01  -1.7465372e-01   3.2729100e-02   7.5392278e-01  -3.7491991e-01  -2.0422001e-01  -6.5861418e-02  -2.7519025e-02  -2.2875820e-01   2.9731057e-02   3.2251299e-01   9.0438633e-01  -2.9796286e-01   1.3961248e-01   1.0889009e-01  -2.3587594e-01  -7.7666672e-01   6.7992802e-01   9.6969486e-01   2.3996122e-01  -2.4012905e-01  -6.8411573e-01   9.2071600e-01  -9.3846453e-01   6.0734565e-03   1.1698503e-01  -9.2304341e-01   4.1356823e-01  -9.1068103e-01  -9.7374321e-01  -9.3262033e-01  -2.3494929e-01   7.9661378e-01  -6.2562336e-01  -8.9166657e-01   5.1924115e-01   3.9695047e-01  -5.3047043e-01  -1.6153763e-01   7.8999613e-01  -8.0691264e-01  -8.7827990e-01   3.9265823e-01  -8.5628266e-01  -9.6689026e-02   4.5317389e-01   3.8010690e-01  -9.7659679e-01  -3.5499697e-01   2.0339210e-01   6.2604600e-01  -2.6554210e-01  -2.0268775e-02   5.0395033e-01   8.2135193e-02   6.6287692e-01  -2.7667991e-02  -4.6729349e-01   9.8911520e-01   1.0720028e-01  -9.5327117e-01  -2.1566938e-01  -4.5989755e-01  -6.3613492e-01  -5.1202537e-01   3.0021592e-01   3.0272861e-01   3.0561232e-01   4.1525500e-01  -3.5700559e-02  -8.5970233e-01  -1.3781358e-01   2.0759036e-01  -6.2410694e-01  -4.8051319e-01   5.9872481e-01   5.9671329e-01  -8.9953349e-01   3.3954610e-01  -1.4759993e-01   1.2622190e-01   4.7010738e-01  -3.9634137e-01  -9.0536968e-01   3.7800952e-01  -3.4554654e-01   3.5073967e-01  -1.7680357e-01   5.3727339e-01   6.4305163e-01   9.5216012e-01  -9.1683495e-01   6.9970916e-01  -8.6347860e-01   5.6026226e-01   7.6561104e-01   9.9873363e-01  -1.8598287e-01   5.1341075e-01  -8.1466983e-01   3.2327422e-01  -5.9229359e-01   3.6276408e-01   4.5405143e-01  -2.9550242e-01   6.5219320e-01   6.0653777e-01  -9.4383994e-01   2.3126192e-01   4.9983190e-01   2.6605348e-02  -8.3970219e-01   2.4405512e-01  -3.4523613e-01   6.4959122e-01  -4.6488472e-01  -7.3069837e-01   2.4673086e-01  -7.5362281e-01  -6.6009987e-01   6.0703715e-01  -6.9906617e-01  -3.0600504e-01  -5.2967945e-01  -1.9758035e-01   9.2289684e-01  -7.9770952e-01  -3.5178125e-01   4.6698993e-01   1.8337132e-01   2.1029192e-01  -9.6629133e-01   1.1624883e-01   3.4280186e-02   3.1486302e-01  -5.9256114e-02  -3.8877532e-01   3.4840581e-02  -8.8187602e-01   1.0673671e-01  -7.0510106e-01   9.7845599e-01  -8.6126727e-01  -2.8706611e-01  -2.3055478e-01  -4.7950253e-01   7.2737157e-01   7.1483366e-02  -5.6234292e-01   5.1286231e-01   4.5580717e-01  -1.1009819e-01  -7.3026854e-01  -4.9688470e-01   2.2067771e-01  -1.9765682e-01   4.2711418e-01  -4.8564858e-01   4.3303140e-01  -8.8353838e-01   3.8983435e-01  -7.0393244e-01  -9.8121721e-01  -6.9226031e-01   6.9021534e-01   5.7176461e-01  -9.6732400e-01  -4.4218945e-01   6.8298081e-01  -2.7180506e-01  -5.8586046e-01   3.2315519e-01   3.3670784e-01   6.5383210e-01  -8.5905951e-02   3.3618359e-01   6.1051209e-01  -3.3240656e-01   2.6760498e-01   7.9142627e-01  -6.3536544e-01   8.7672282e-01  -3.4758720e-01   5.1413037e-01  -7.9333820e-01  -8.1511342e-01  -4.1073552e-01   6.8063272e-01   9.6498215e-01  -9.3392007e-01   5.0139920e-01  -8.1686116e-01  -3.5565003e-01  -6.5594298e-01   3.3486469e-01   7.7006003e-01  -6.1667247e-01  -5.7751976e-01  -1.0926661e-03  -6.8706330e-01   7.4309940e-01  -8.7185721e-01   6.4743748e-01  -5.2998537e-01   8.1755699e-01   6.0153560e-01   9.8757985e-01  -1.1714861e-01  -3.5673055e-02   8.0794160e-01   3.1213888e-01   2.1106775e-01  -5.4028369e-01   1.6994084e-01   6.5691432e-01   5.2623310e-01   9.5272269e-01  -4.2603837e-02   4.3239676e-01   3.0166311e-01  -6.0413026e-01   9.3759087e-01   2.1698559e-01  -4.6886676e-01   5.9665720e-02   6.4421511e-01  -8.6256279e-01   9.6965968e-01   7.2368608e-01  -7.1227171e-01  -3.0375248e-01  -4.8611415e-01  -1.0448558e-02  -7.3749900e-01  -7.5717442e-01   6.9552724e-01   2.3557127e-01  -1.4591300e-01  -1.4796925e-01  -4.8217668e-01  -4.8187770e-01   7.5780172e-01  -9.7644753e-01  -4.1154767e-01  -9.4450548e-01   4.5179863e-01  -4.2781108e-01  -7.9453919e-01  -9.1179356e-01   3.5622568e-02  -1.9163415e-01  -8.4871925e-01   5.1258587e-01  -4.1211056e-01   8.3246888e-01   5.6135485e-01  -5.7186702e-01  -2.1039013e-01   7.4823121e-03  -1.7593089e-01  -2.8522633e-01   6.8330632e-01   1.8677716e-01  -9.6562176e-01   3.8021976e-01   4.7719759e-01  -3.5352112e-01  -2.0102383e-01  -9.8430116e-01  -8.4564306e-01   1.3619435e-03   8.4885663e-01  -6.3989939e-01   8.8198137e-01   4.1511879e-01  -9.6540017e-01   3.8686057e-01   9.0430513e-01  -5.3986410e-01   4.3705651e-01  -9.0683881e-01   3.3170696e-01   3.2907082e-01  -5.6231444e-01  -8.7041416e-01   6.8433014e-01  -5.5551098e-01   2.3904528e-01   9.7294231e-01   6.9428199e-01  -5.5324059e-01   5.9035380e-01  -2.2522491e-02  -7.9887150e-01  -9.9712094e-01  -3.9629900e-01   1.6642239e-02  -1.8394237e-01  -9.0955463e-01   7.2335875e-01   6.9854006e-01   5.0973768e-01  -8.8453265e-01  -4.1732398e-02   8.9583510e-01   6.8387556e-02   8.3213102e-01   8.7860027e-01  -5.2037034e-01   6.9337480e-01   4.9250061e-01  -3.3590443e-01   2.7055401e-01   6.9619002e-01   9.3480870e-01  -3.6250466e-01   4.7240178e-01   8.0769291e-01  -6.7469302e-01  -2.3278507e-01  -2.8460903e-01   6.1933074e-01  -6.6491276e-01   9.6848422e-01  -4.0606793e-01   6.1066688e-01  -6.4943048e-01  -9.6094100e-01   5.1813227e-01   9.0001231e-01   5.3353151e-01  -1.7140639e-01   3.7656398e-01  -3.1621626e-01  -4.1624682e-02  -8.5558736e-01  -2.1147863e-02   5.1214320e-01  -4.7671138e-01  -7.9551519e-01   1.9001280e-01  -6.5056023e-01   8.2871232e-01   5.4293250e-01  -9.1933913e-01  -8.9536660e-01  -8.9355077e-01  -5.7566377e-01   8.0254096e-01  -8.5699892e-01   7.7076662e-01  -2.4477457e-01  -9.4764070e-01   7.8497373e-01   9.5396536e-01   9.2110149e-01   4.0836132e-01   4.4627483e-01  -6.7781677e-01  -6.1691077e-01   6.1428429e-02  -5.1672835e-01  -1.2558886e-01  -3.4471718e-01   5.2765434e-02  -4.2586754e-01  -6.8947683e-01  -8.6081298e-01   9.8752577e-01  -6.9488239e-01  -3.6245038e-01
