   7.4179444e-01  -8.9572466e-02  -2.9427294e-01  -6.1135115e-01  -4.5195040e-01   5.8067546e-01   3.1497415e-01  -8.1523914e-01  -1.5219913e-01   5.2118033e-01  -9.4318421e-01   5.4545662e-01   4.5118458e-01  -3.7888553e-01   2.9154169e-01   4.0758184e-01   4.1005499e-01   5.4507337e-01   6.4138954e-01  -7.3329435e-01   7.0321987e-01   8.0417417e-02  -5.0822426e-01  -2.9638741e-01   1.4099829e-01  -9.9638586e-01  -5.5812941e-01   8.7080908e-01  -6.9496911e-01   1.5373822e-01   1.4478391e-01   2.1306520e-01  -3.3986310e-01   4.4453080e-01  -7.3211886e-01  -3.0463608e-01   3.1431800e-01   1.7390696e-01  -5.4690339e-01  -1.7962141e-02  -6.9301579e-02   6.7265767e-01   9.9103716e-01  -9.0900082e-01  -7.3800583e-01  -6.2173027e-01  -7.9349288e-01   3.0443022e-02  -3.5627656e-02  -1.6130270e-02  -4.5840268e-01  -2.7924542e-01   1.7232964e-01   9.1149664e-01  -7.6981590e-01   9.6749406e-01  -2.2118141e-01   6.7563310e-01  -5.3296573e-01   7.7097692e-01   4.2869768e-01   3.6816738e-01   3.1281631e-01  -6.6902953e-01  -4.0393004e-01  -2.6349678e-01  -4.9981693e-01   3.6860672e-01  -8.3142405e-01  -7.1394881e-01  -7.2987226e-01  -4.8740675e-02   1.8537792e-01  -8.4906475e-01   4.8794758e-01   7.7395854e-01  -6.1674007e-01   1.9680000e-01   1.7390541e-01  -8.6076612e-02   6.3354404e-01   9.1245911e-01  -9.1378908e-01   2.6504294e-02   1.2250493e-01   3.4301137e-01  -3.5546348e-01   7.8835312e-01   7.1875589e-01   1.8097964e-02   2.1208955e-01   4.9797365e-01  -4.7571234e-01  -2.4294535e-01   7.7443270e-01  -3.8529599e-01  -5.5160889e-01   1.5606023e-01   5.3330997e-01  -7.5839010e-02   8.0656452e-01   7.9131907e-01  -4.5137576e-01   3.9435214e-01  -6.4707378e-01   4.9765046e-01  -8.7057989e-02  -4.1616705e-01  -7.2210329e-01  -1.6472083e-01   4.0080782e-01  -6.4190969e-01  -7.3742299e-01   7.4336293e-01  -9.0441035e-01  -2.4372739e-01  -1.6956325e-01  -5.0522226e-01  -8.3199966e-01  -3.8011569e-01  -4.2656532e-01   3.0912033e-01   4.4640627e-01   7.6611480e-01   5.7206053e-01  -1.5936104e-01   9.4917325e-01  -9.1190349e-01   1.2880212e-01  -5.4971585e-01   9.1371997e-01   5.5469606e-01  -8.5993332e-01   3.2063824e-01  -2.8102989e-02  -3.5936142e-01   3.2738835e-01  -3.2459796e-01   3.4481794e-01  -3.3673636e-01  -7.6613843e-01   9.4700501e-01  -2.7510616e-01   7.5022392e-01  -5.0055082e-02  -9.4982843e-01   3.8524276e-01   4.3800217e-01   9.2314143e-01  -7.7325673e-01  -2.0698209e-01  -6.3956459e-01   9.6799595e-01  -4.4650622e-01  -4.2786041e-01  -3.7569435e-01  -6.8155286e-01  -4.7208323e-01   1.0729143e-01   2.7674108e-01  -6.0775415e-01  -3.0054104e-01   8.2985763e-01  -3.3584271e-01  -8.8321242e-01   2.7650480e-01  -8.1159032e-01   6.9812549e-02  -9.1047634e-01  -2.4992766e-01   2.2294389e-01   7.8439577e-01  -3.6540107e-01   5.4916370e-01   7.0977115e-01   1.5418917e-01  -5.4801317e-01   2.2211518e-01  -7.1253494e-01  -2.6895959e-01   9.6112450e-01   5.7350171e-01  -7.1352830e-01   7.5499762e-01   8.2383476e-01   1.3223382e-01  -8.6113862e-01  -2.4296972e-01  -6.9913062e-01  -8.3187459e-01   6.3244864e-01  -8.6567533e-01   3.7142752e-01   9.2857340e-01  -1.0072287e-01   1.1235898e-01  -5.1274528e-01  -4.2014188e-01  -7.3623457e-01  -1.8291688e-01  -5.5493186e-01   2.4713398e-01  -3.7650340e-01  -8.5772860e-01   1.8095749e-01   9.5535452e-01  -4.3938164e-01   7.2132864e-01  -4.6808661e-01   9.8981962e-01  -8.8514953e-01   3.5857332e-01  -8.5713531e-01  -4.3144381e-01   4.1293558e-01   3.8539739e-01  -8.4202534e-01   9.3985751e-01  -7.0559573e-01   3.7551562e-01   7.6456627e-02   9.2898172e-01   2.5137599e-01   2.2081008e-01  -4.9788750e-01   1.4590851e-01  -6.3442379e-01  -9.7006742e-04  -9.8763185e-01  -1.5815770e-01  -1.0754669e-01   9.9217919e-01  -4.4241607e-01   6.4526613e-01  -9.4280706e-01  -3.1928862e-01  -4.5293287e-01  -5.7289667e-01  -5.5622053e-01  -8.0837360e-01  -9.9724900e-01  -3.3535301e-01  -5.7137430e-01   4.9728288e-01   4.8987264e-01  -8.6982725e-01   2.5367369e-01  -9.1476204e-02   4.0258902e-01  -9.5245926e-01   7.1966896e-01  -8.9433782e-01  -3.6647641e-01  -5.9830462e-01  -7.8007768e-01  -2.9884877e-01   8.5034007e-01  -3.1531380e-01  -6.9043707e-03   8.0244394e-01   6.7713254e-01  -6.1703212e-01   2.2746012e-01  -1.5519951e-01   6.9560268e-01  -8.9380967e-02   7.8134438e-01  -8.7348562e-01  -3.0950570e-03  -6.4458835e-01   9.1008000e-01   9.3312987e-01  -2.5640191e-01  -3.9466461e-01  -6.2933922e-02   1.8318561e-01  -6.3626545e-01   9.7632757e-01   9.6811165e-02  -9.2476398e-01  -7.0424529e-01  -7.6149576e-01   9.0590882e-01  -7.6670027e-02  -5.0339472e-01   2.7725605e-01   5.6468403e-01   2.9061273e-02  -3.4240343e-01  -9.6451454e-01  -2.7162158e-01   7.5913879e-01  -8.3609943e-01  -5.7498197e-01  -7.2539567e-01  -4.6031127e-01   9.7061661e-01   1.6057050e-01  -8.6311758e-01   4.1671403e-01   5.6822410e-02  -8.4858030e-01  -7.3170773e-01   2.0035747e-01  -3.6503614e-01  -4.1429051e-01  -1.2574945e-02  -8.4703300e-01   2.3860405e-01   2.2435221e-01   8.1409103e-01  -1.7936094e-01  -7.5649280e-01   2.7702579e-01   5.7739162e-01  -4.3232925e-01  -7.8961278e-01   9.9269898e-01   2.0590325e-01  -9.4535837e-01   4.5643223e-01  -2.2042108e-01  -4.6679735e-01   7.6924934e-01   9.8331402e-02   2.2940504e-01  -2.8500918e-01   1.9138235e-01  -1.2471834e-01   4.7416722e-01   4.4380017e-01  -3.5768911e-01   6.0834758e-01   6.1253575e-01  -5.5413574e-01  -3.4480399e-01   5.4154326e-01  -9.1293829e-01  -7.1536054e-01   2.3907365e-01   5.8499054e-01   4.6000887e-01   4.6691673e-01   2.6399187e-01  -5.6406808e-02  -2.2603867e-01  -6.3934145e-01  -4.6145990e-02  -3.3056605e-01  -2.6573570e-01  -3.8392142e-01  -5.8751230e-01   8.0190734e-02  -6.0972364e-01   4.3032319e-01  -4.2201238e-01   9.3785850e-01   1.1680493e-02  -1.7027165e-01   1.7435601e-01   7.7279372e-01  -6.5241147e-01  -5.6061909e-02  -2.8715275e-01  -9.2813682e-01  -7.0078378e-01   9.7308015e-01   4.2517131e-02   7.7726491e-01   1.9410717e-01   4.3898415e-01   6.4382230e-01  -7.9953447e-01  -7.6810068e-01  -1.8104454e-02  -1.5797021e-01   8.0755917e-01  -8.2531636e-02   3.9461631e-01  -2.7480707e-02   7.2030007e-01  -4.8327821e-03  -7.5998014e-01  -3.7727846e-03  -3.1235061e-01  -3.2730208e-01   3.7449106e-01  -2.3239630e-01   1.5244095e-01  -1.9431464e-02   3.7440396e-01   4.2116201e-01  -3.7536297e-01   9.2055849e-01  -2.4497217e-01  -1.9560586e-01  -1.5954559e-01  -5.2075098e-01   2.5423192e-01  -4.8989582e-01  -8.2628191e-02  -1.6368282e-01  -8.9346002e-01  -6.6371398e-01  -4.3117810e-01   7.6838346e-01   7.9836667e-01   7.7805486e-02  -6.1820007e-01  -8.3177888e-03  -8.6748328e-01  -8.6282240e-01  -7.4602537e-01   7.4052804e-02  -5.4328757e-01  -5.3848569e-01   9.1544848e-01   9.5880332e-01  -2.3722976e-01   8.3405407e-01  -9.9534758e-01  -6.2600429e-01   8.8532411e-01  -3.0753865e-01   9.7368991e-01  -7.3562836e-01  -3.8890638e-01   7.3525570e-01  -6.7560221e-01   1.5808280e-01   4.3755257e-01  -9.3424547e-02   6.2025436e-01  -6.7903256e-02   1.2232330e-01   4.1446133e-01  -7.7856365e-01  -1.1826956e-01   9.4464335e-01  -6.5328238e-01  -8.7224762e-01   2.9985124e-01   8.8206583e-01   2.2815165e-01   6.5597283e-01  -8.9383923e-01  -1.2321231e-01  -7.2246311e-01  -9.1752643e-01   6.2482450e-01   3.0968418e-02   9.5338766e-01  -2.2038012e-01  -9.2170150e-01   5.1796524e-01  -3.3879052e-01  -5.7715494e-01  -4.0718368e-01   2.0604565e-01  -4.3905259e-01   6.7363983e-01  -2.4179748e-02  -8.2565533e-01   3.0402124e-01  -9.7936773e-01   4.1740692e-01  -6.0636802e-01   6.0142984e-03   1.6039329e-01   9.1900155e-01   4.6838248e-01  -5.1083616e-01  -6.7319983e-01   2.8172880e-01   2.3984161e-02   3.9425910e-01   1.5059703e-01  -9.7749020e-01  -2.5336989e-01   2.2825297e-01   3.4355797e-01  -4.9456317e-01   8.9940610e-01   6.6238115e-01  -3.0090427e-01   8.3978062e-01   8.3944733e-01   9.7751411e-01   4.7058662e-01   3.3842675e-01  -6.1248057e-01  -4.0962056e-01   4.1262213e-01   9.2790177e-01   6.7297633e-01   1.5917363e-02  -4.4034990e-01   1.9468794e-01   8.5103035e-01   2.3550391e-01   9.2887017e-01  -8.0954574e-01  -4.1447421e-01  -9.1284797e-01   9.2681421e-01   6.4805580e-02   4.6710922e-01   6.7984058e-01   1.0194431e-01   8.4001344e-01  -8.7199107e-01  -9.9708834e-03  -8.4512354e-01   3.8363250e-02  -8.1675804e-01   7.1528584e-01  -2.5711703e-01   9.0439543e-01   6.6052456e-01  -8.9226749e-02   6.8534114e-01  -6.8491533e-01   2.2550748e-01   5.1156551e-01  -3.1636695e-01  -9.3939698e-01  -1.2126420e-01  -9.5462719e-01  -3.5890229e-02   6.5238988e-01   4.9149808e-01  -1.8170897e-01   4.8953754e-01  -1.7340380e-01  -3.1747964e-02   5.6451059e-01  -8.9775762e-01  -6.5575809e-01   3.1325776e-01  -2.6741855e-01   1.4009519e-01   4.6335159e-01   2.6379359e-01   4.7442107e-01  -3.4099244e-01   9.8809806e-01  -3.4799982e-01   1.4972899e-01   6.3979502e-01  -6.2864772e-01  -1.3752619e-01  -4.1087650e-01  -9.4321451e-01  -5.6126617e-01   4.4439630e-01  -3.1254330e-01   5.0477470e-01  -3.8923798e-01   6.4596224e-01  -5.9596214e-01   4.5294376e-01  -8.0101899e-01  -7.3092109e-01  -6.3681884e-01  -9.0373525e-01   9.7723369e-01   9.8699463e-01   1.5850962e-01   5.4124114e-01   2.2461065e-01   1.1270064e-01  -4.6776376e-01  -7.3748567e-03   7.4906691e-01  -4.9913029e-01   2.4864385e-01   7.1940606e-01   3.2220914e-01   1.9335137e-01   7.4637354e-01  -4.8143611e-01   6.5995892e-01   5.1828576e-02   2.3940431e-01   8.2970288e-02   6.2857037e-01   7.7406415e-01   9.8670176e-01  -7.0447189e-02  -4.7566755e-01   4.5375314e-01  -9.4446101e-01   3.2501835e-01  -4.0779809e-01  -1.8678607e-01  -4.1344940e-01  -4.0098316e-01  -7.7444649e-01  -7.4563962e-01  -9.4084347e-01   6.8190604e-01  -1.6978035e-01   8.1263132e-01   5.4477247e-01  -4.2686886e-01  -6.8843512e-01  -9.2624758e-01  -1.4003876e-01   9.0691967e-01  -1.1588652e-01  -1.0508706e-01  -4.1443378e-02  -7.0536092e-01   4.6831650e-01  -7.8402431e-01  -6.0953244e-01  -6.0531337e-01  -5.4666581e-01   1.7873776e-01  -3.7059087e-01  -7.7183779e-01   8.7680039e-01   1.7727834e-01   4.9806408e-01  -3.2692698e-02  -1.5106414e-01  -5.5344507e-01  -9.3159812e-01   4.1409878e-01  -1.5358935e-01   8.4525584e-01   4.8332307e-01  -3.5667941e-01  -9.4774739e-01  -1.8357074e-01  -8.6355404e-02  -3.5088320e-02  -3.0217466e-01   9.7823748e-01   5.4243005e-01   1.5154773e-01  -7.3126391e-01  -4.7184899e-01  -8.7584137e-01   3.0648991e-01  -3.1813800e-01   6.8549787e-01   2.0827383e-01  -6.1034464e-01  -7.6872076e-03  -7.8789821e-02   8.1840831e-01   9.3807211e-01  -9.8963208e-01  -9.1764705e-01  -3.3494878e-01   1.9766467e-01   2.1368350e-01  -8.8338661e-01   4.1011114e-01  -9.3509879e-01  -6.1361588e-01  -2.9038825e-01   2.9516477e-01  -6.6545650e-01   8.8749479e-01  -1.1337665e-01   3.5014808e-01   7.5767506e-02   1.9808884e-01   3.6606692e-02   7.7513290e-01   6.9079763e-01   9.8256152e-01   6.3302734e-01   7.0784397e-01  -1.7656199e-01   8.0288468e-01   9.5266105e-03  -4.1519256e-01   1.3948630e-01  -9.8503521e-01  -1.2245990e-01   7.3394583e-01   3.8647731e-01   5.3315001e-01  -1.4104826e-01  -7.6541467e-02  -6.8782683e-02  -7.9308841e-01  -5.2629066e-01   3.9327029e-01   9.7074489e-01  -4.1259665e-01  -2.9518234e-01   1.8151022e-02  -7.6344801e-01   5.9268786e-02  -9.5526754e-01  -1.2147214e-01   3.7829449e-01   6.1174012e-01   6.6851125e-02  -2.5705523e-01  -8.9380119e-01   5.4363468e-01   5.2125093e-01  -3.6872433e-02  -5.5477583e-01   6.8789282e-01  -1.2502683e-01  -8.6866040e-01  -5.7742815e-01  -4.3344225e-01  -3.9694500e-01   6.6836647e-01   5.3219318e-01   6.4909040e-01  -7.8083242e-01  -1.8231169e-01   5.3077292e-01  -3.7950993e-01  -6.1952567e-02  -2.4743773e-01   2.5524438e-01   3.9452151e-01   8.5075314e-01  -1.6579194e-01   5.5425065e-02  -2.4165327e-01  -1.9611616e-01  -6.1945555e-01  -7.7157092e-02  -3.1798743e-01   1.9318883e-01  -9.6034118e-01  -6.3106061e-02   2.7550354e-01  -3.0880298e-01  -6.0692513e-01  -3.4233084e-01   6.2941482e-01   3.8878447e-01  -1.4744142e-01  -6.5637849e-01   4.6486468e-01   2.3131738e-01  -7.5018555e-02   8.6102461e-01  -4.2046959e-01  -7.0505863e-01   8.5163594e-03  -5.5581250e-02  -3.0378373e-01  -6.9207673e-01   2.2494232e-01   6.8152713e-01  -9.9785559e-01  -3.7225606e-01   8.8421570e-01   6.2728792e-01   3.3030465e-01  -8.5474215e-01  -3.2858050e-01   8.0243908e-01   8.8197777e-01  -8.8665717e-01   8.9493424e-02   3.4750874e-01   3.6684193e-03   7.6085559e-01  -7.4645283e-01  -7.5464890e-01  -8.7518174e-01   2.6385128e-02  -6.8600426e-02   5.6615949e-01  -4.5418295e-01   8.6625418e-01   1.4890898e-01  -6.4154681e-01   5.4818331e-01  -3.7231959e-01   4.2864372e-01   9.0319110e-01  -7.1792423e-01   9.0733593e-02   8.3577931e-01  -4.3002545e-01   8.3652404e-01   7.0199101e-01   5.7325756e-03   2.3233972e-01   9.6222239e-01  -7.7745560e-01   9.8299094e-01   3.4504967e-01  -2.0742909e-02   2.1352421e-01   8.3499164e-01  -1.3571472e-01  -9.5502034e-02   7.3853025e-01  -3.8983458e-01   6.6405224e-01  -6.0053360e-01  -4.8691363e-01   9.9609224e-01  -1.9526049e-01  -4.7725408e-01  -9.0072824e-01  -5.6412406e-01  -1.7503596e-01   7.4334407e-01   2.9736538e-01   9.4210098e-02  -6.5652839e-02  -7.4516643e-01   8.0678769e-01   2.1853111e-01   7.6004604e-01   4.5204277e-01  -8.4842862e-01  -5.5788023e-01   6.2617435e-01   8.6805450e-02  -6.8628721e-01   3.2609725e-01  -5.6820872e-01   9.2593447e-01  -4.9725295e-01   8.8497601e-01   4.3900412e-01   6.8274146e-01  -5.2136903e-02  -3.6940944e-01   8.9183098e-02   5.3891495e-01   8.7091333e-01  -9.4624841e-01   7.1164577e-01  -5.7185822e-01  -5.8707689e-01  -9.9712850e-01   9.9009307e-01   9.0613142e-01  -5.9632029e-01   2.8155796e-01  -9.4386643e-01  -1.2464648e-01  -7.5246032e-02  -7.6703766e-01  -7.1489647e-01   8.1513068e-01  -1.9149903e-01  -4.9508096e-02  -8.1673425e-01   4.7445051e-02  -1.0203387e-01   1.7176067e-01  -2.1898342e-01  -3.6866160e-01   3.9407095e-01  -8.2829220e-01   2.4916509e-01   1.2295078e-01  -3.4857710e-01   6.4596264e-01   9.1428329e-01   1.1886090e-02   4.0596038e-01  -3.7855902e-01   6.2250254e-01  -4.3524488e-01   1.2026443e-01  -4.7231534e-01  -7.1122639e-01  -7.3259237e-01  -9.9784040e-01   1.9547136e-01   1.3580227e-01   3.8701729e-01   3.0794551e-01   4.1747173e-01   3.3920806e-01  -9.1359037e-01   9.0701122e-01  -4.4042866e-01   3.8648759e-01  -5.5670131e-02  -3.0927533e-01   3.7587644e-01  -7.0900916e-01  -5.6288753e-01   2.9963275e-01   2.8407175e-01   2.8000339e-01   8.3573696e-01   9.8258495e-01  -8.1607338e-01  -2.6823433e-01  -3.7266660e-01  -8.7993140e-01  -9.3977293e-01   1.9007158e-01  -5.2472787e-01  -8.6361046e-01  -8.0058346e-01   1.8820830e-01  -2.1506384e-02  -3.1262013e-01   5.7041293e-01   4.7794475e-01   5.8391263e-01   3.7601591e-01   1.4635415e-01  -3.1395788e-01   4.5275755e-01  -5.1302808e-01   5.7049111e-01   1.2515635e-01  -9.1938547e-01  -1.2458326e-01  -9.0071307e-01   5.7174783e-01  -4.3281559e-01   4.2741096e-01  -7.4166045e-03   2.1188404e-01   9.2569093e-01   2.5687416e-01  -6.9323574e-01   1.6174762e-02   4.6761964e-01  -7.9514308e-02   3.8036570e-01   1.1810761e-01   2.2817001e-01  -7.3569745e-01   5.6098604e-01   3.3045056e-01   6.3286585e-01   2.2321963e-01  -3.0519216e-01  -6.0126904e-01   6.2964251e-01  -9.7257508e-01  -2.7861363e-01   7.3412694e-01  -8.1050414e-01  -3.3711671e-01  -6.4367722e-01   2.1151209e-01  -5.0994289e-01   2.8935300e-02  -3.9761700e-01  -9.5343581e-02  -6.7379757e-01  -2.3445770e-01   5.4344833e-01  -7.8588383e-01   7.6077808e-01  -6.3469122e-01   4.6052766e-01  -6.1381060e-01  -9.5299020e-02  -1.9426321e-01  -2.9112726e-01  -4.2406108e-01  -5.4337153e-01   6.0546435e-01   1.3072838e-01   2.7540029e-01   3.0076489e-01   7.4116484e-01   1.3008653e-01   2.5738664e-01   1.8339236e-01  -4.1459591e-01  -9.8726326e-01  -4.1204731e-01   5.6289384e-01  -3.4247644e-01  -3.5504825e-01   2.9768688e-01   1.7829491e-01  -5.1227416e-02   1.9072863e-02   4.2461365e-01   6.6469277e-02   2.3840827e-01  -3.2788455e-01  -3.5560337e-01  -2.0021965e-01  -5.3648105e-01   6.6256917e-01  -8.5785306e-01  -9.4192084e-01   2.7119170e-01   6.3587830e-01
  -4.2331935e-01   6.9386289e-01  -8.4596258e-01  -9.9446151e-01   3.6131933e-01   8.8453797e-02  -8.7876992e-01  -4.2884516e-01   3.9383042e-01   5.5025352e-01  -3.6803509e-01  -7.2310155e-01   7.8366042e-01   4.0909307e-01  -7.3658145e-01  -6.6881621e-01  -4.8415017e-01   1.3109083e-01   7.2136819e-01  -9.7161557e-01  -6.4964462e-01  -4.9525635e-01  -9.4983683e-01   9.9794539e-01   9.6451676e-01   5.8994431e-01   3.3659738e-01  -2.0421833e-01  -3.6247638e-01  -3.2610038e-01  -8.7851240e-01   6.0918663e-01  -2.2142566e-01   3.8322381e-01   9.2269966e-01   8.4748457e-01   8.2132974e-01  -4.9594888e-01  -3.7401478e-01   2.2466324e-01   1.9910305e-01  -4.8497278e-01  -5.1461759e-01   4.1752809e-01  -9.4152068e-02   2.0101806e-02   6.5759125e-01   7.0775482e-02  -9.6685602e-01  -9.4118129e-01  -9.9058593e-01  -5.3149073e-01  -1.4722102e-01   7.2066597e-01  -4.9957867e-01   9.2043538e-01   6.7526669e-01   2.2833441e-02  -6.0285890e-01  -9.0759663e-01  -4.4895651e-01  -3.8335465e-02  -4.0707600e-01   6.6988104e-01  -1.8928579e-02   5.0251628e-01  -9.2663886e-01  -8.9951835e-01  -8.5474236e-01  -5.3159096e-01  -1.2326533e-01   3.7751070e-01   4.0895734e-01  -9.2644299e-02  -3.2219305e-01  -4.8541527e-01   4.5023668e-01   2.0545987e-01  -5.8441793e-01  -8.5764975e-02  -9.1843928e-01   1.1110386e-02  -5.4265130e-01   2.7105683e-01  -4.6922626e-01   8.3336716e-01   1.9432781e-01  -2.0775846e-01   1.0386039e-01   9.7219913e-01  -1.9484887e-01   7.7056768e-01  -1.3799403e-01   5.4801053e-01   3.8705581e-01  -4.1555876e-02  -3.7161185e-01   7.0866615e-01   4.0930684e-01   4.9098424e-01  -1.5064411e-01   1.0252162e-01   2.3912389e-01   4.2306789e-01   8.1738364e-01   8.8850086e-01  -3.1537451e-01  -7.8773489e-01  -8.4644472e-01   2.1718649e-01  -2.2330481e-03  -5.2006366e-01  -3.6302760e-01   3.0879475e-02   4.0013581e-01   3.4597315e-01  -1.7656253e-01  -5.0021334e-01  -5.9869385e-01  -3.8310962e-01  -2.4868046e-01  -6.8586272e-01  -7.7499297e-01   7.1892547e-01  -3.2014787e-02   2.9663494e-01  -9.9551534e-01  -1.1410409e-01  -5.3282488e-02  -8.9623928e-01   1.2882810e-01  -5.1337492e-01  -6.0305244e-01  -2.8702252e-01   9.3792284e-01  -2.0403857e-01   4.4011736e-01   4.2328539e-01  -6.1642627e-01   1.5674024e-01  -9.2755598e-02   8.2129835e-01  -9.9277581e-01  -3.9790199e-01   6.0384786e-01   3.4343381e-01   7.0132084e-01   2.7191674e-01  -9.6113366e-01  -5.6444803e-01  -5.3694594e-01  -9.2029324e-01  -1.6774022e-01   7.7946790e-01   5.7006270e-01   7.0365090e-01  -9.7290155e-01  -5.2113322e-01  -5.7581207e-01   7.7289613e-01   1.4703514e-01  -9.0250607e-01  -5.8241607e-01  -1.3245309e-01  -5.9139592e-01   5.0959114e-01   1.4000807e-01  -7.2832030e-01  -6.2655826e-01   5.4647675e-01  -1.9158580e-01   5.7742137e-01   9.8704120e-01  -6.3706579e-01  -5.2141406e-02  -1.8156542e-01   4.4912810e-01   6.7341656e-01   9.0452917e-02  -5.9693478e-01  -5.3238485e-02  -6.4595746e-01   6.7230883e-01   1.6967705e-01   5.6605258e-01   4.9507614e-01  -2.0431890e-01   7.6696688e-02  -7.9103819e-01   3.8558797e-01  -2.3262342e-01   2.3285435e-01  -1.2927520e-01   3.5587705e-01   9.2492888e-01   3.1691806e-01  -6.3456867e-01   5.3759622e-01   4.9465678e-01  -7.3091934e-01   8.3173382e-01   6.3027904e-01  -3.9878525e-01  -8.2553842e-01   1.7369319e-01   7.8896292e-01   9.8150633e-01  -3.1176231e-02  -8.6799374e-01  -3.3393683e-01   6.6074875e-01  -1.8707900e-01  -9.6520347e-01   8.2508644e-01   5.0905928e-01  -4.5719749e-01   7.8004917e-01   4.8748163e-02   6.1136734e-01  -2.2300869e-01   1.8619070e-01  -8.3792410e-01   2.6272758e-02  -1.8466662e-01  -8.1811578e-01   4.9079064e-01  -3.0319742e-01  -4.7141510e-02  -9.1570847e-02  -6.3448028e-01  -7.1778270e-01   9.8743894e-02  -8.3737859e-01  -4.6817070e-01  -7.0560200e-01   3.0710434e-01   5.9923871e-01   7.6386993e-01   3.4949173e-01   2.0852687e-01  -3.7604648e-02  -3.8465282e-01   8.6720188e-01   5.4443994e-01  -3.4354875e-01   4.3305127e-02   8.7091190e-01  -3.8359091e-01  -3.3444503e-01  -1.8884899e-02   6.8444832e-02   1.3719019e-01  -7.0330824e-01   9.7209954e-01   1.2777726e-01  -5.5919492e-01   5.1140405e-01   6.8108895e-02  -5.1855016e-01  -7.9955957e-01   7.1453717e-01  -4.7423362e-01  -1.3670588e-01   6.8750734e-01   2.9799816e-01   8.3053275e-01  -2.4583374e-01  -3.1619453e-01   6.3050502e-01   2.4678716e-01  -3.1326888e-01   7.3736376e-01   9.1980002e-01   3.6688498e-01  -6.2870039e-01  -5.5791555e-01   7.9488326e-01   3.7205084e-01  -5.5810685e-01  -2.7855434e-01   3.3143221e-01   9.2550556e-01  -9.4202946e-01  -5.6633282e-01   3.9463767e-01   3.8241845e-01  -9.0670270e-01  -6.2888441e-01  -3.8788162e-01   7.6137930e-01  -4.3781916e-01  -1.7308528e-01  -8.4154121e-01   3.4284594e-01  -1.6604723e-01   3.6431081e-01   1.3358918e-01   3.8401288e-01   3.6214910e-02  -4.2766323e-01  -9.2907517e-01   9.2055068e-01  -7.0796497e-01   3.8777131e-01   8.9679964e-01   1.5233646e-01   1.6097933e-01  -8.1071744e-01  -9.1592381e-01  -2.9053718e-01  -7.7674331e-01  -5.0633887e-01  -8.2085582e-01  -2.4822254e-01   6.3761608e-01  -1.4288563e-01  -2.8338048e-01  -8.6418162e-01   3.5666310e-02   2.2475889e-01  -8.6755270e-01   6.2849374e-01   7.5837781e-01  -1.6863584e-01   3.9461782e-01  -2.0260881e-01   4.6029540e-01   9.6127794e-01  -9.3514798e-01   5.4387272e-01   2.3350062e-02  -9.7427540e-01  -1.8323694e-02  -3.8564237e-01   4.4818828e-01  -6.1697176e-01   9.7302548e-01  -9.9475911e-01  -8.0195674e-01  -3.7105496e-01  -3.4589354e-01  -9.0971575e-01   8.1442954e-01   5.7248617e-01   3.0617105e-01  -6.9364753e-01  -5.3852059e-01   8.0012094e-01   7.2638322e-01  -1.2402943e-01   1.0699782e-01  -6.8987252e-01  -9.9136245e-01   8.3388061e-01   2.6894049e-01  -1.1578430e-01  -9.4534239e-01  -4.7401223e-01   6.8529078e-01  -7.0033089e-01   6.7116477e-01  -9.8816757e-01  -7.5071224e-01   1.2818342e-01   3.4250649e-01   7.3218383e-01   5.0901126e-01   5.2633589e-02  -6.8643522e-01   7.5770793e-02   8.2150158e-01  -6.6127876e-01   2.3455360e-01   1.0550107e-01   5.2577569e-01   7.9780612e-01  -7.0310137e-01  -3.9046170e-01   5.2201895e-01  -6.7753477e-01   8.3804450e-02  -8.8836355e-01  -6.8232428e-01  -6.2715828e-01  -6.3222370e-01  -7.9112044e-01   9.2915511e-01   1.1481518e-01  -7.0506974e-01   7.1142974e-01  -7.4227507e-01   2.7299234e-01  -2.4310219e-03   3.1894407e-01  -8.4043940e-01   7.8869268e-03  -2.1647931e-01  -3.7826634e-01  -9.2720947e-01  -5.6776576e-01   2.6495682e-01   2.9682672e-01  -1.6820322e-01  -9.4579134e-01   2.2436872e-01   8.3705738e-01  -7.7106190e-01  -6.5654999e-02  -2.4929689e-01  -5.9506362e-01  -6.9052086e-01   4.1257413e-01   2.2833850e-01   1.4362486e-01   3.7528913e-02   5.3104079e-01  -9.3875688e-01  -9.8958341e-01   1.0438855e-01   1.6031217e-01   4.3392663e-01   1.3415891e-01  -1.4452756e-01  -1.1669665e-01   4.3983944e-01  -9.5517424e-01  -9.0154622e-01  -4.9490871e-01  -1.7411303e-01   3.1746321e-01   5.0411738e-01  -3.2018943e-01   5.1865218e-01   9.5768309e-01  -7.2439854e-01  -3.5355208e-01   7.1146395e-01  -6.5559687e-01  -8.9340410e-01   9.9560721e-01  -6.9962455e-01   1.0334838e-01   4.4706717e-01   5.9998357e-01   7.5886508e-01   3.2084102e-02  -1.2642927e-01   6.9552181e-02   9.7315510e-01   9.3009976e-01  -6.6435991e-01  -9.4404516e-01   5.1301396e-01   1.3629564e-01  -8.2243202e-01  -3.3259963e-01  -2.4464156e-01  -8.7279944e-01   2.6348804e-01   6.4633302e-01   7.6382983e-01   1.6952055e-02   5.2734601e-01  -1.9953919e-01  -6.3829156e-01   2.0276644e-01   8.2563380e-01  -5.5609495e-02  -6.8235470e-01   1.4670259e-02   9.5648385e-02   5.2160134e-01   7.3893766e-01   4.8695666e-02   5.0919116e-01  -3.1646345e-01   4.6988238e-01  -8.1868092e-01  -5.4273005e-01  -5.5938931e-01  -8.4663724e-01  -7.5884578e-01   2.6822138e-01   3.0291430e-01   6.9351855e-01   7.0525914e-01   5.9181459e-01   9.1870073e-01  -7.5482203e-01   7.5889981e-02   3.2264098e-01  -1.9828348e-01  -9.2718878e-01   3.3196867e-01  -2.8609415e-01  -1.2123808e-01   5.5700156e-01  -4.2220623e-01  -3.7005942e-01   7.1776945e-01   3.7832661e-01   5.7345548e-02  -1.5270064e-01   9.3838697e-01   5.9873966e-01   2.1603311e-01  -6.4995674e-01  -2.0544595e-01   4.8802649e-01   3.9560745e-01   9.5969736e-01   5.5927905e-01   7.3045393e-01  -3.6258581e-01  -3.8591125e-02  -1.0172450e-02  -6.9682333e-01   2.2620433e-01   1.2010213e-01  -1.7735970e-01  -9.1313552e-01  -3.2153002e-01   8.0097817e-01  -7.9690926e-01  -2.3828363e-01  -7.5583645e-01  -9.7358713e-01  -1.2766170e-01  -7.4992012e-01  -5.0528439e-02  -9.5931476e-01  -9.9167291e-01  -4.6132863e-01   6.9806822e-01   3.1038665e-01  -7.8043022e-01   8.0282866e-01  -5.9291890e-01  -8.8765246e-01  -8.2678006e-01  -2.8030903e-02  -5.2373571e-01   5.4402317e-01   7.3823752e-01   5.3258970e-01  -1.6479134e-01  -8.7602922e-01  -3.9362756e-01  -7.1982370e-01  -6.2076007e-01  -2.0136249e-01   1.9744505e-01  -6.0541103e-01   9.7330387e-01  -8.8196212e-01   3.0242028e-01   3.5902526e-01  -1.2017773e-01  -5.3323918e-01   3.2158656e-01   1.4381750e-01   1.4006562e-01   9.4870644e-01   2.7862463e-01  -2.6886021e-01   9.5454170e-01  -6.5847135e-01  -4.0590939e-01  -7.1735634e-01   8.9666446e-01   2.3848367e-02  -7.0272995e-01   3.3626994e-01   1.7741672e-01  -1.8005096e-01   7.7584604e-01   3.2225513e-01   2.3352331e-02  -2.2336475e-01  -7.4034368e-01  -2.5814839e-01  -9.2767583e-01  -4.2835197e-01  -1.0828933e-01   5.7015763e-01  -7.7932979e-01   9.6670644e-01  -6.6808383e-01  -1.3792546e-01  -4.4425572e-01  -7.1338417e-01   9.8838931e-02   8.8659440e-01   7.8794771e-01  -4.0214026e-01   7.8410313e-01  -4.9351262e-01   7.3453401e-02   5.5071843e-02   6.0959642e-01   9.0555320e-01  -2.3429672e-01  -9.9593726e-01  -1.8168386e-01  -1.3454971e-01   4.1752064e-02   3.8414634e-02  -7.6851217e-02   2.8347812e-01  -3.5280751e-01  -6.7899001e-01   2.6215833e-01   6.9762429e-01  -3.7469376e-01   6.7426058e-01   5.0899168e-01   4.3754457e-01  -4.6635033e-01  -9.2160278e-01   4.8840340e-01  -8.9435546e-01   1.1560756e-01   3.1978229e-01   1.3673623e-01   4.6998920e-01   5.9672213e-01  -7.2513495e-02  -4.3061017e-02  -2.5203672e-01  -1.9110744e-01  -6.4392087e-01   4.8629086e-01  -8.7185299e-01  -5.7037939e-01   3.9167608e-01   4.3823736e-01   8.1898358e-01  -4.4840743e-01  -6.6680602e-01   5.5081286e-01  -3.7722111e-01   2.4520542e-01  -1.1364462e-01  -5.1958787e-01   4.0071520e-01   7.6669662e-01  -9.4326380e-02   9.8073071e-01   5.8831300e-01   9.2439282e-01   5.0595508e-01  -4.8937937e-01  -7.7916183e-01  -2.3837769e-01   7.0995298e-01  -7.1254044e-01   4.9197411e-01  -4.2317370e-01  -1.3739140e-02   5.9760037e-01   7.0944340e-02   4.0267457e-01   9.4288761e-01  -8.7681548e-02   5.5405999e-01  -3.8111349e-02  -6.2065531e-01   3.2186317e-01   2.0790679e-01   8.0265202e-01  -3.8337652e-01   3.0800455e-01  -6.8223303e-01  -7.7671602e-01  -5.1762094e-01  -6.6412917e-01   8.9390876e-01  -3.4995926e-01   9.0006344e-01   7.3898661e-01  -6.2081505e-01   2.4180509e-01  -8.0743501e-02  -1.6998373e-02  -6.7381478e-01   7.0660220e-02  -6.7519016e-01  -1.0410909e-01   3.7093821e-02   1.0262631e-01  -6.6303902e-01   8.3042419e-01  -4.4764612e-01   8.5126196e-01  -9.4501980e-01  -3.7504612e-01   8.6534371e-01   3.4548809e-01   5.0764094e-01  -1.3804386e-01   8.7884186e-01  -4.4443482e-01   1.9528403e-01  -5.8316294e-01   1.9534505e-01  -3.2390829e-01   3.2810715e-01  -7.8900279e-01  -3.7459848e-01   6.3238561e-01   2.9391248e-01  -5.0913064e-01  -2.8253788e-01   3.0225798e-01   9.0686780e-01   2.6112412e-01  -4.3458419e-01   9.0470734e-01   5.0964096e-01  -1.7621254e-01   8.9162438e-01   8.8398599e-01  -1.4897140e-01  -9.1331134e-01   3.1112972e-01  -3.4959227e-01   7.7518891e-01   2.7809846e-01  -9.0020072e-01   5.0836100e-01   4.5100930e-01  -1.5512258e-01   1.5322813e-02  -4.4175265e-01   5.0271466e-01   9.8406579e-01   8.3991021e-01  -7.0875036e-01   5.0942855e-01  -6.4725359e-01   6.4061148e-01  -6.8690013e-01   1.1896193e-01   8.8433760e-01   3.1348994e-02   7.5544840e-01  -6.1845270e-01   3.5438963e-01  -9.0359842e-01  -6.8756026e-01   6.8098001e-01   5.4171575e-01   8.9086751e-01  -7.3145094e-01  -7.4430724e-01   1.9422944e-02  -4.5669513e-01   5.1530534e-01  -9.4006592e-01   4.4137052e-01  -1.0271516e-01   1.4737965e-01  -8.0945213e-01  -1.0216586e-01  -1.3768527e-01   3.2377000e-01  -6.6925290e-01   6.6068624e-01  -3.5213417e-01  -4.1422118e-01   3.8179602e-02  -8.1286994e-02   6.6750793e-01  -7.0400460e-01  -3.3467696e-02   7.5122685e-01   5.5008307e-01  -8.6300732e-01  -5.6553497e-01   3.3019306e-02   2.5564283e-02  -7.5526451e-02   5.9874637e-01   3.3377275e-01   4.1349988e-01  -3.5805491e-01  -8.3705760e-01   3.0500146e-02  -8.0225221e-02   8.8990444e-02   6.8695564e-02   8.2681623e-01  -9.4810897e-01  -7.7611008e-01  -8.1096490e-01  -9.8092008e-01  -6.8294335e-01   3.3749838e-01   4.5103230e-01  -5.5538307e-01   5.4568220e-01   3.7536568e-01   2.9196547e-01   8.0608111e-01   5.0026982e-01   5.7008555e-01   4.8945657e-01   4.3884473e-01   3.6832866e-02  -5.1739547e-01   3.3050958e-02   3.7131622e-01  -9.4411315e-02   3.4833375e-01  -1.7993237e-01   9.8950471e-01  -8.6244039e-01   8.6455738e-01  -9.1015696e-01   7.7201234e-01  -2.8597710e-01  -2.5188402e-01  -2.8241983e-01  -7.1538859e-01  -9.2940318e-02   6.5739113e-01  -8.5261711e-01   9.7806554e-01   5.9902579e-01   7.1700705e-01   2.1225403e-01  -1.2457301e-01   9.5640106e-01  -8.9677525e-01   5.4855855e-01   2.8135018e-01   1.9494733e-01   8.7951760e-01   7.5286212e-01  -3.9651285e-01   9.5441745e-01  -1.8152598e-01   8.5874027e-01  -8.1052562e-01  -7.5274848e-02  -6.8255785e-01   2.7724473e-01  -9.7031017e-03   8.6269390e-01   4.0534090e-01   7.1302744e-01   1.3794261e-01  -5.3378550e-01  -6.9390700e-01  -7.9267694e-01  -9.1808231e-02   6.5426588e-01   7.1525224e-01  -3.9844034e-01  -4.0085863e-01   2.3006454e-02   6.0242871e-01   8.0269117e-01   9.4838570e-01   5.8006688e-02  -5.6783938e-01  -7.1521931e-01  -3.9401142e-01   6.8027230e-01  -9.5344261e-01   6.1077362e-01  -1.4669069e-01  -1.6449620e-02  -5.4486139e-01  -5.1044622e-01   5.4552171e-02   8.9038457e-01   3.2235833e-01   2.3634122e-01  -9.8151014e-01   2.5277041e-01  -6.7886750e-02  -5.3477854e-01   8.1075326e-01  -6.4000962e-01   6.7713391e-01  -6.0777172e-01   3.2329849e-01  -3.7034534e-01   4.2109505e-01   6.7019188e-02  -9.8924701e-01   3.1399084e-01  -2.6795566e-01   3.8337052e-01   5.3757793e-01   2.9520223e-01  -3.8704638e-02  -4.0802858e-01  -2.1443908e-01  -3.9290423e-01  -3.6261625e-01   5.8764787e-01  -5.9323491e-01  -7.6842869e-01  -6.3523382e-01  -8.0707857e-01  -6.7785204e-01  -8.5690511e-02   7.7643409e-01  -5.8364056e-01   6.6146930e-01  -4.9397082e-02  -9.8385742e-02   9.5966117e-01  -9.8807295e-02  -6.8429385e-01   1.8326133e-01   6.1155012e-01  -3.6279704e-02  -1.3315118e-01  -2.7176517e-01   9.5252493e-01  -1.1445268e-01   4.7615104e-01   1.9736741e-01   1.5247961e-01   2.1277157e-01  -3.2021595e-01   5.0754194e-01   1.3304180e-02  -6.2123438e-01  -9.0768115e-02  -7.9660128e-01  -7.9162557e-01  -1.9361187e-01   4.8254300e-01   2.7189916e-01   3.6170790e-01   1.9686134e-01   3.6961205e-01  -8.1532566e-01  -1.1806787e-01  -3.4692622e-01  -4.7670496e-02  -8.0695919e-01   8.2070960e-01   8.9088174e-01   6.6660198e-01  -1.8583649e-01  -9.1846077e-01  -3.6474517e-01   9.4817763e-01  -7.2756315e-01  -1.2017562e-01   3.4957411e-01  -7.0683168e-03   3.5294131e-01  -3.9182271e-01   6.1735571e-01   2.2765502e-01   8.4752573e-01  -5.7506927e-01   3.1378674e-01   5.0814976e-01   3.1663333e-01   6.9351887e-01  -1.7562347e-01  -6.5740207e-01  -8.7921384e-01   1.9528791e-01  -5.9904318e-01   5.2387029e-01  -4.7675295e-01   5.1711336e-01   2.2455417e-01   6.4759588e-01   5.3251642e-02  -1.2604237e-01   9.8779863e-01  -7.1467703e-01  -4.1209970e-01   4.5126429e-03  -2.5440391e-02  -6.5076332e-01   2.0306667e-01  -7.9524702e-01   4.5509014e-01   5.4870754e-01   6.8437460e-01   5.7862396e-02   9.1424910e-01  -9.8403227e-01  -9.1310208e-01   2.2675132e-01  -8.3892281e-01   8.1161588e-01   8.0250936e-01  -4.5115270e-01  -2.5626357e-02
   2.1876877e-02  -3.4202346e-01  -9.3706538e-01  -5.0079413e-02  -4.6839905e-01  -1.5337413e-01  -9.1694557e-01  -9.6676470e-02  -1.8604903e-01   6.7831250e-01  -6.3856284e-02  -9.2705716e-01   2.9534534e-01   8.6273710e-01  -5.7064662e-01  -3.8071366e-01  -9.1160299e-02   6.5276394e-01   9.7924119e-02   6.8261130e-01   5.1965774e-01  -8.0555406e-01  -2.7726074e-01   6.4298553e-01   7.5762585e-01  -5.5817017e-01  -1.7621170e-01  -3.6226206e-02   9.2071856e-01   7.0320403e-01  -8.5473766e-01  -9.5994510e-01  -8.1534733e-02  -2.5913115e-01  -8.3628203e-01  -9.4531082e-01  -4.6549373e-02  -9.0532687e-01  -4.7745333e-01  -5.2223195e-01   1.9078220e-01   5.1884737e-01   3.2875035e-01   7.6012743e-01  -9.6574367e-01   3.1117092e-01  -5.1510818e-01   8.8739262e-01   5.7766342e-01  -4.3760638e-01  -4.6419210e-01  -3.7939304e-01  -9.0771966e-01   5.0951795e-01   4.6177755e-01  -9.7146608e-01   9.3653266e-01   8.2481773e-01   1.4686645e-01   2.7545434e-01   1.7419092e-03   4.3269514e-01   6.5047997e-01  -6.5478322e-01   5.2803278e-01   9.6816583e-01  -6.9982795e-01  -8.5344052e-01  -5.0185684e-01   5.6561889e-01   1.6215058e-01   9.7018135e-01   5.8310192e-02  -3.9404178e-01  -1.3403680e-01  -4.7803486e-02  -1.1357700e-01   3.8123968e-01   8.9472760e-01   5.0432540e-01   8.8885144e-01   3.3057455e-01  -7.6605128e-01  -8.6899919e-01  -8.3951702e-01  -8.5887574e-01   4.6116927e-02  -6.8112920e-01  -2.4056667e-01  -5.2547508e-03   1.0711434e-01  -2.3736615e-01   7.8909837e-01   8.1333033e-02  -1.3847047e-01  -1.0440923e-01   8.5554516e-01  -7.8054377e-01   5.4906076e-01   9.2075417e-01  -2.7053555e-01  -7.1161247e-01   8.9742620e-01   7.9444174e-01   7.4454376e-01  -1.4290276e-01  -2.1926227e-01  -7.8295776e-01  -5.4850720e-01   8.7621932e-02  -9.8444440e-01   8.2657531e-02  -5.3378171e-01  -1.8512996e-01   3.1400935e-01   3.2628819e-01  -8.8311201e-01   3.1597511e-01   4.4984220e-01   5.3138383e-01  -5.8458457e-01  -6.2778656e-01   8.7246755e-02   5.6369757e-02   5.7001525e-01  -8.9836481e-01   8.3297181e-01  -9.3506819e-01   2.7384922e-01   3.3550702e-01  -5.7054672e-01  -2.5739517e-01   5.7458426e-01  -3.7797983e-01  -2.5923123e-01  -4.9241652e-01   5.7813770e-01  -1.9461220e-01   3.8038356e-01   3.2564496e-01   6.5288016e-01  -8.8734982e-01   5.4465398e-01  -4.1166116e-01  -1.5406519e-01  -2.8523038e-01  -7.9582276e-01   2.8925312e-02  -1.8429542e-01   9.6845400e-01   4.1330327e-01   1.3628942e-01   7.6806150e-01  -8.0274609e-01  -4.6432169e-01   4.2676055e-01   7.2375523e-01   9.0881665e-01  -3.8336895e-01  -3.2112793e-01  -8.7900543e-01  -1.9018569e-01  -7.8842519e-01   9.3281185e-01  -2.9501243e-01  -9.4771186e-01  -4.4762257e-01   8.3899109e-01   3.8148000e-01   4.0723872e-01   8.1583075e-01   1.2291847e-01  -4.0603539e-01  -3.4891372e-01  -3.1133667e-01  -2.2890682e-01  -8.9994444e-01  -9.5014466e-01   8.7597363e-01   7.0641959e-01   6.2171671e-03  -9.0703487e-02  -2.2325297e-01  -1.5519914e-01   6.0005343e-01   6.4383182e-01   9.5063430e-01   2.3222746e-01   9.0740104e-01  -5.3032625e-01  -8.6482221e-01  -2.7735251e-02   6.9780501e-01   1.7288365e-01  -8.4337003e-01  -6.4546133e-01   6.7062293e-02   9.6409480e-01   6.3016923e-01  -8.4292235e-01  -7.9695092e-01   3.5637724e-01  -3.5368382e-01   1.2941819e-01  -4.7763475e-02  -8.2927509e-01  -4.4963359e-01  -8.7867562e-01   1.6033837e-01   1.8524849e-01   2.3376890e-01  -7.9167557e-01  -1.5228771e-01   7.9325763e-01  -7.5012106e-01   2.7932971e-01   9.8338980e-02   1.4814829e-01  -5.4415326e-01   5.5860144e-01  -8.8397826e-01  -5.6314241e-01   4.1485166e-02   7.7810340e-01  -7.9838621e-01   6.4148408e-01   8.7378482e-01  -1.5317096e-01  -1.3780070e-02   1.8929496e-01  -2.0932196e-01   5.9190800e-01   9.9215382e-01  -4.2756436e-01  -3.5346062e-01   9.7761044e-01  -3.9715350e-01  -6.1721938e-01   4.3394059e-01  -9.2153582e-01  -9.7800324e-01  -3.8781837e-01  -9.6311221e-01   4.9220182e-01  -3.3621673e-01   2.2967199e-01  -2.6453546e-01  -9.6300363e-01  -8.7723207e-02   4.5275852e-01   3.9918374e-01  -7.9137707e-01   7.0169382e-01   6.0489762e-01   8.0453694e-01   4.9114791e-01  -2.9084013e-01   5.1403766e-01   5.5262831e-01   3.7754251e-01  -9.7364129e-02   9.6887952e-01  -2.8926754e-01   5.5597442e-01   4.9538616e-01   2.1105951e-02   2.4490973e-01  -3.0596304e-01   2.6080259e-01  -4.3955685e-01  -1.2810558e-01  -6.9547377e-01  -9.7884216e-02  -2.9383247e-01   3.1489386e-02  -2.1018555e-01   2.7547513e-01  -6.0916225e-01  -9.9947072e-01  -1.2950830e-01   4.9372028e-01   5.7486011e-01   4.3680366e-01   3.0514602e-01  -4.9447582e-01   5.3562792e-01  -7.6194025e-01   6.8780599e-01  -7.2400075e-01  -6.4591030e-02   6.0184642e-01  -2.0082832e-01  -4.0500672e-01  -3.5297859e-01  -6.5939554e-01  -7.9099737e-04  -3.6371482e-01   2.6503859e-01  -4.3570071e-01   3.1867528e-01  -5.6451169e-01  -3.2573284e-01   1.0778817e-01   3.9768227e-02  -6.7948141e-01  -4.4003863e-01  -4.7558912e-03   8.1579482e-01   2.9900761e-01   8.8522405e-01   6.5552606e-01  -7.3962641e-02  -5.1405539e-01   7.6940719e-01  -4.3644085e-01   6.1432200e-01   8.6051846e-01   9.0297470e-01  -1.4303857e-01  -4.2883733e-01  -2.5412826e-01  -6.6633752e-01   7.7805106e-01  -2.2000046e-02  -1.2521018e-01   8.7029595e-01   6.1313256e-01  -5.8123514e-01  -8.7169531e-01   3.6388758e-01   3.8196660e-01   4.3916589e-01  -1.6788440e-01  -2.2926900e-01  -4.3957555e-01   3.7246542e-02  -1.6864239e-01  -2.3621847e-01   3.9738591e-01   2.5154468e-01   5.8446220e-01  -8.7492260e-02   9.0232874e-01  -1.4480215e-02  -7.4166811e-01  -3.7523850e-01  -3.4296225e-01   5.4149666e-01   1.7253938e-01  -5.2692588e-01   9.9601120e-01   8.2877440e-01   7.1834451e-01   1.3022724e-01  -6.1863351e-01  -6.9076524e-01   8.4460719e-01  -9.7737079e-01  -7.0771029e-01   8.9948416e-01   1.7358646e-01   4.9806202e-01  -7.1319758e-01  -9.4603678e-01   9.9577084e-01   5.7339625e-01  -4.4710744e-01  -4.0219094e-01  -5.1834044e-01  -9.7901104e-01   6.2659241e-01   6.1312050e-01   5.8784532e-01  -2.3597762e-01  -3.3198256e-01   1.8574886e-01  -3.8396275e-01  -7.7644550e-01  -5.9994129e-01   6.7605090e-01  -2.9906237e-01   7.2348003e-01   8.4990468e-01  -6.6945708e-01  -7.3731823e-01  -7.1507591e-01   9.4649880e-01  -5.9506542e-01   6.3320792e-01   8.8236660e-01   8.4348590e-02   2.9171512e-01   8.2286082e-01   4.3847849e-01  -8.9741571e-01  -8.8768175e-01   6.6889591e-01  -1.2282664e-01  -6.0591226e-01  -8.6136344e-01  -4.0322457e-01   1.1987577e-01   6.5083175e-01   7.0411242e-01  -5.4849410e-01  -6.9959290e-01   3.1976075e-01  -6.0582284e-01  -8.3517437e-01  -2.4729251e-02  -1.5082850e-01   8.5321875e-01   8.5922281e-01   9.4936908e-01   1.0856937e-01   4.1786785e-01  -9.4726845e-01   4.1739705e-01   9.9397908e-01  -4.3262879e-01  -6.0413021e-01   4.4876122e-01  -2.1510070e-01  -9.9078948e-01  -8.2713380e-01  -8.1430944e-01   3.2236828e-01  -3.5233125e-01   6.4177600e-01   9.1615787e-01   1.4807722e-01   8.8077639e-01  -3.7193971e-01   4.3772342e-01   5.4015402e-01  -7.5537761e-01  -8.9458258e-01  -3.5395402e-01   2.9150245e-01   6.6793447e-01  -9.9466372e-01  -9.1962019e-01   8.2873965e-02   2.8950760e-01  -2.3039266e-01   8.9218485e-01   4.0845085e-01  -7.8665003e-01   7.9727005e-01   4.3562249e-01   8.8539813e-01  -1.7201832e-02  -1.1726511e-01   1.4802623e-01  -5.1900843e-01   7.8718995e-01  -7.2332717e-01   7.0713942e-01   9.9632978e-01   6.1784704e-01   2.7717269e-01   2.0152169e-01  -6.3205485e-01  -9.4576433e-01  -2.4239439e-01  -8.5887677e-01  -4.9259141e-01   3.0854086e-01   4.3058551e-01  -5.3183325e-01  -2.0081012e-01   2.4754336e-01   4.5327431e-01   1.8809675e-01   6.7686851e-02  -1.0291511e-01  -8.5286456e-01   5.2503238e-01   6.6708512e-01   6.9264338e-01  -3.0955235e-01  -7.0019461e-01  -5.3858681e-01   7.6785625e-01  -2.4667816e-01   1.8955284e-01  -7.9583309e-01  -7.9132377e-02  -7.9241964e-02   6.8625198e-01   9.0702767e-01   4.3790136e-01   9.0364236e-02   6.1747214e-01  -6.3417758e-01  -6.8420751e-01   9.1899868e-01  -8.0623462e-01  -7.9006843e-01  -4.2289111e-01  -3.2380447e-01  -5.3188130e-01   4.9614049e-01  -8.9696641e-02  -3.0940533e-01  -3.0677848e-01  -4.6693323e-01  -1.7817268e-01  -3.8806256e-01   7.8978992e-02   3.7517958e-01  -1.1617004e-01   7.5438919e-01  -6.3745997e-01  -2.9389420e-01  -1.9401794e-01   6.0843685e-01   8.4494634e-01   6.6564961e-01   2.0173848e-01  -6.0869694e-01   1.3017233e-01  -4.3031408e-01  -7.5287369e-01  -6.9526428e-01   4.2546370e-01   4.0087918e-01  -3.2136467e-01  -7.1603373e-01  -6.6055940e-01  -7.4793017e-01   7.5771159e-01   6.7180180e-01   8.2498590e-01  -4.6973706e-02  -4.2582255e-01  -3.7189902e-02  -6.5913327e-01  -4.0800985e-01  -4.1985557e-01   8.8353816e-01  -2.4616412e-01  -9.9763820e-01   2.3622886e-01  -3.8419595e-01  -7.4663755e-01   9.2822625e-01  -4.7689871e-01  -3.8457419e-01   3.3693578e-01   4.4929211e-01  -7.9119841e-01   2.5993983e-01   6.0322215e-01  -6.5735791e-02   3.3821803e-01  -9.8103088e-01   3.6986904e-01  -8.0418860e-01   2.1592938e-02  -3.2023614e-02  -8.1917782e-02   2.9883854e-01  -1.0120994e-01  -5.8382586e-01   4.7339155e-01  -1.1818032e-03  -9.8636323e-01   6.3849223e-01   7.6510976e-01  -5.1743088e-01  -2.5430612e-01   1.2976679e-01   2.4984229e-01  -2.6583398e-01   7.2370876e-01   3.1835850e-01  -4.7221731e-01   8.3165430e-01   2.2124338e-01   4.0628715e-01   5.7712899e-01   7.9537503e-02   6.3817228e-01   6.5899552e-01  -9.2255555e-01   4.6239703e-01   7.9119927e-01   1.4754840e-01  -3.9013961e-01   7.9795178e-01  -8.2011220e-01   2.7124244e-01   3.9154052e-02   5.5980997e-01  -4.7009009e-01   1.2664539e-01   2.7041325e-02   8.3475968e-01  -5.7979177e-01  -5.6019109e-01  -1.2866269e-01  -3.0993776e-01  -9.0029256e-01  -3.8208559e-01  -5.1410976e-01  -6.3814702e-01  -3.7885317e-02  -3.3809334e-01  -8.6009050e-01   7.4906091e-01   3.7940259e-01  -4.2896984e-01   3.4348543e-01   8.4173617e-01   8.9789583e-01   6.5256113e-01   8.9773511e-01  -7.5205229e-01  -6.1391337e-01   9.1393510e-02   4.1530681e-01  -6.3427691e-01   4.5052440e-01  -7.5552094e-01  -5.4883295e-01   1.6531181e-01   3.8689390e-01  -7.0062599e-01  -3.2947570e-01  -2.2016857e-01   9.8417258e-01  -1.8373434e-02   3.9762713e-01   9.4718927e-01  -8.5206240e-01  -9.0759967e-01   4.9175301e-01  -5.4558024e-01  -4.4627624e-01   3.5154617e-01  -7.1326196e-01   4.3232526e-01   2.9878911e-01  -3.4650753e-01  -2.0734917e-01  -7.8794803e-01   2.5355474e-01   6.6525667e-01   1.5294943e-01  -7.5668354e-01  -2.9689108e-01  -7.2838891e-01   2.6540525e-02   2.1151322e-01  -2.8998978e-01  -7.4482900e-01  -7.2827381e-02  -7.0816699e-02   2.7637970e-01   2.7026372e-01  -1.8210704e-02   5.4091506e-01   3.5337730e-01  -7.2321852e-01   7.7160868e-01   8.0438155e-01  -9.2356456e-01   6.2533191e-01  -5.8678863e-01   9.6200070e-02  -1.8413340e-01   1.4794189e-01   9.5305082e-01  -2.2132349e-01   3.6275676e-01   8.3026680e-01  -3.5376571e-01   2.4991604e-01   6.1115756e-01   4.2804599e-01  -4.7853387e-01  -7.0956753e-01   4.6453048e-01  -7.8888096e-01   4.8173378e-01  -9.0931699e-01   8.5561920e-01  -9.0897966e-01  -3.0098176e-02   7.0773921e-01   8.0372604e-01  -3.2551699e-01   6.9275956e-01  -5.8277684e-01   8.5659138e-01  -9.8948511e-01  -5.2683505e-02  -8.1174884e-01  -4.8677426e-01  -2.6210739e-01   7.9537581e-02  -2.8818130e-01   4.3678266e-01  -4.6522268e-01  -5.0853086e-01  -5.7560533e-01   6.3588766e-01   7.8900698e-01  -2.9195454e-01  -1.1817511e-01  -1.3211335e-01  -1.9829227e-01  -3.5315699e-01   6.5783822e-01   4.0245079e-01  -6.7911474e-01  -4.6710708e-01   4.9306962e-01  -7.3931092e-01   5.3629622e-01   1.0257009e-02  -8.4368826e-01  -3.5068885e-01  -9.4124839e-01  -5.4214042e-02  -8.2516387e-01  -7.2795789e-01   9.0168089e-01  -6.8555027e-01   2.7848836e-01   4.3437796e-01   5.4053377e-01   8.4148642e-01  -6.3856336e-01   4.6531393e-01  -3.6166472e-01  -3.6709626e-01   7.0172506e-01   1.9266119e-01   8.9455905e-01   7.4726793e-01  -8.1762687e-01   7.7443289e-01  -5.8291418e-02   2.9665349e-01  -3.1032416e-01  -4.1504334e-02   7.4329227e-01   7.3081364e-01  -9.6877484e-01   2.2839364e-01  -3.4091370e-01  -9.7018735e-01  -5.4683697e-01   4.6395745e-01   1.4459269e-01  -5.5944312e-02  -8.2175035e-01   5.8484676e-01  -1.5115849e-01   8.8848491e-01   8.5445220e-01   2.8023061e-01  -6.1924505e-01   4.5957702e-01  -6.6636406e-01  -5.4665403e-01   2.7949006e-01  -3.8477764e-01   9.3051595e-01   7.8338687e-01   4.6354648e-01   7.6207937e-01   2.0831143e-02  -5.0257665e-01   5.4682063e-01  -3.9318547e-01  -2.7287526e-01   3.5556501e-01  -4.4561662e-01  -3.6646786e-01   8.3364120e-01  -6.2226042e-01  -3.5335810e-01   6.6464187e-01   9.8034559e-01  -5.6863482e-03   6.9930413e-01  -3.3935195e-01  -3.5083364e-01  -8.5164337e-01  -5.9870996e-01  -4.3195015e-02   1.0867897e-02   3.5140871e-01  -9.5003463e-01   4.5054070e-01  -2.9389476e-01  -9.8507072e-01  -5.9094578e-01  -8.7180667e-01   9.6368890e-01   5.6296413e-01   8.5352366e-01   2.1490912e-01   7.6389174e-01  -3.3103639e-02  -7.8260011e-01  -2.5722912e-01   1.2862456e-01  -5.6840938e-01  -8.4920995e-01  -1.3533896e-02   3.7903918e-01   5.6133236e-01  -5.4987643e-02  -9.4665901e-01  -9.2986633e-01  -1.3552982e-01   7.8333957e-01   5.7731146e-01   3.8124896e-01   9.8704339e-01   7.2293985e-01   1.5558328e-01  -9.3819849e-01   1.3466947e-01   6.5739130e-02  -8.4972834e-01   1.2227618e-02  -4.8821405e-01   1.2378016e-01   3.7215075e-01   2.2319264e-01   2.1901360e-01   8.7396978e-01   6.9493856e-01   2.3518452e-01  -2.9872182e-01   1.1734762e-02   5.8456345e-01  -8.0820961e-01   7.4740515e-01   5.1975148e-01   7.5352334e-01   6.9807072e-01   8.7528569e-01  -8.3400124e-01   9.1255170e-01  -4.6385863e-01  -2.8882492e-01  -4.7619210e-01  -6.3583173e-01  -8.4996073e-01  -2.3707365e-01   1.4372323e-01   6.9174491e-01   1.6420189e-01   7.5533669e-01   2.6778322e-01   2.2844858e-01  -4.2929727e-01   6.3982349e-01   7.1638217e-01  -1.9010203e-01   9.4619518e-01  -9.4181755e-01  -3.0530190e-02  -5.4442836e-02  -7.5758620e-01   5.5685752e-01  -8.4628230e-02   1.8555621e-01  -8.3183176e-01  -8.8421275e-01   5.4325322e-01  -5.2201440e-01   5.1838438e-02  -2.4134325e-01   4.3154306e-01  -9.4322075e-02  -3.4832346e-01   1.6308993e-02   5.2882564e-01   5.2457467e-01  -3.9663860e-01   6.9227684e-01   9.7931231e-01   5.6023781e-01   9.3555233e-01  -5.1299871e-02   7.8668244e-01   8.0055053e-01  -5.7440188e-01  -1.2721276e-01   4.4194218e-01   7.8109896e-01   4.1737028e-01  -2.9315029e-01   4.8303197e-01   8.2244113e-01  -8.1778951e-01  -6.9594803e-02  -6.5394285e-02   4.8917457e-01   3.2373833e-01  -9.4773954e-01   3.6511288e-03   9.4222168e-01  -6.7600007e-01  -1.7899886e-01   8.0877919e-01  -9.7961314e-01   2.8867483e-01  -8.2951308e-01  -2.4262714e-01  -8.3608651e-01   3.3787001e-01   4.4071607e-01  -1.6986124e-01   2.5632630e-01   9.6045924e-01   3.5264223e-01  -6.2589218e-01  -1.0872858e-01   1.5339416e-01   2.1371523e-01  -6.3075646e-01   5.1046218e-01   8.9637216e-01  -3.2917410e-01  -7.9745750e-01   3.0867139e-01   8.7298602e-01   5.4851669e-01  -1.0860510e-01  -8.2581887e-01   6.5540132e-01   3.0815493e-03  -1.9839242e-01   3.2549976e-01  -5.6148438e-01   4.6312920e-01   5.8605983e-01   1.0528187e-01   6.7468433e-01   5.9270461e-01  -3.7450159e-01  -8.7618528e-01  -3.3876029e-02  -8.7504804e-01  -7.9911005e-01   3.4969326e-01  -5.6489876e-01  -9.4641960e-01   2.4905636e-01  -2.1735585e-01  -9.5062928e-01   5.4692390e-01   6.9103433e-01   4.4720438e-01   3.7541163e-01  -9.8958802e-01  -5.7496113e-01  -3.8271270e-01   6.2045218e-02   5.0935820e-01   9.1435022e-01  -8.7639317e-01   2.3230741e-01  -8.3404980e-01   4.0172119e-01   7.6458699e-01  -8.0783167e-01  -5.9395757e-01  -3.8107459e-01  -4.0640274e-02   8.6790984e-01   2.0226154e-01  -5.8623799e-01  -3.5031655e-01   3.5279352e-01   7.5729120e-01  -8.1270260e-01   9.1429064e-01   3.0551802e-01   6.9907376e-01   9.0080378e-01  -7.5604103e-01  -7.4161708e-01  -6.2469063e-02  -2.3318835e-01   5.7798352e-01   2.6820227e-01  -7.6395926e-01   6.5430136e-01  -7.2403783e-01  -1.3860613e-01   3.8637737e-01
  -6.2285325e-01   1.5550054e-01  -7.1059955e-01   8.0690155e-01   4.5893615e-01   6.5274763e-01  -9.7826503e-02   6.9205752e-01  -3.9762115e-02  -6.0849283e-01   2.8973231e-01  -3.6687239e-01   9.3121644e-02   5.5389608e-01   7.5137622e-01  -9.4380647e-01  -5.9055610e-01   7.7167139e-01  -8.3014421e-01   9.4189592e-01   1.5693081e-01  -1.4321531e-01   1.8453031e-01   1.3660045e-01  -6.0667186e-03  -4.2984179e-01   7.4166173e-01  -5.4030333e-01   8.9454283e-03   7.1819119e-01  -7.0888161e-01  -7.4498340e-01   3.1526444e-01  -6.2279605e-01   9.1058460e-01   8.3913168e-01   6.7946730e-01  -8.4119793e-01   2.6307248e-01  -6.2033098e-02  -5.6167994e-01  -2.4240908e-01  -2.3957680e-01  -2.1114027e-01  -1.5740919e-01  -2.0628226e-01   1.4262342e-01  -4.6844934e-01  -8.3835549e-02  -5.4160591e-01   2.6928617e-01  -4.5711420e-01  -8.7555510e-01   6.2338778e-01  -6.1048510e-01  -8.2292465e-01   4.0446773e-01  -5.9525493e-01  -4.3026195e-01   9.1519043e-01  -3.3821116e-01   2.7588783e-01  -6.6611399e-01  -9.7170537e-01  -5.5205528e-01  -6.9518274e-01  -6.3789077e-01  -1.0447032e-01  -3.6417884e-01  -7.7873246e-01  -6.3492871e-01  -3.1429317e-01   1.2282516e-01  -9.8751157e-02   5.4223921e-01   5.3428589e-01  -4.8998318e-02   5.6113604e-01  -4.5264177e-01  -6.7679580e-01  -1.0924754e-01   2.9660867e-01   7.5114398e-01  -8.2975172e-01  -5.0152947e-03   8.4008423e-01  -8.1125041e-01  -7.0375609e-01  -5.8736277e-01   7.1147348e-01  -9.4223790e-01   1.7973516e-01  -2.9365233e-01   4.1322329e-01   9.8483818e-01  -9.2410380e-01   3.4163502e-01   5.4709681e-01   3.4348001e-01   4.8304879e-01   6.6626632e-01   6.1319144e-01  -6.9715070e-01  -5.6559513e-01  -6.9192857e-01  -5.7256665e-01   2.4592318e-01  -6.9405132e-01  -7.6475647e-01   4.4962458e-02   9.7913542e-01  -9.7657535e-01   2.1287293e-01   3.3667854e-01   4.2874975e-02   2.6988430e-02  -7.7904529e-01  -5.0997235e-02   3.2795576e-01  -7.3993068e-01  -8.8301671e-01   2.6382088e-01   1.1596274e-01   5.0041227e-01   9.3290079e-01   8.4242177e-01   2.9273078e-01   8.9655325e-01   5.2811175e-01   5.0895194e-01  -2.3201675e-01  -9.3218738e-02  -9.1094586e-01  -9.7162652e-01   1.3818597e-01   7.2742788e-01  -9.8211056e-03   2.5155618e-02   1.7099820e-01   4.4449634e-01   3.3666364e-01  -6.2293391e-01  -6.3850542e-01   5.2951160e-01  -9.6460905e-01   4.1551411e-01   7.4189310e-01  -1.6907799e-01   7.5676905e-01  -2.5054167e-01   8.4890187e-01   3.0336526e-01  -9.1697598e-01  -7.3233633e-02   9.9817783e-01  -1.0137797e-01  -7.1693585e-01  -7.2247956e-01   9.2262455e-01  -6.2307404e-01  -8.5227954e-01  -4.3779882e-01  -5.4735655e-01   4.3647244e-01   4.2406774e-01   5.5475758e-02   5.3573293e-01   9.6687381e-01   4.2027164e-01  -9.6065740e-01   9.5855975e-01  -3.1782449e-01   9.0856600e-01  -1.0761975e-01  -9.8787234e-01   4.2193074e-01   9.6026961e-02   2.5374545e-01  -3.9470514e-01   1.9348967e-01  -2.1810610e-01   6.2940982e-01  -6.6693701e-01  -1.6749319e-01   6.8966954e-01   7.0227398e-01   7.5139910e-02   7.0299607e-01  -7.1237043e-01  -8.1665485e-02   6.2952636e-02  -7.3356595e-01  -3.8149262e-01  -7.1379530e-01   4.8721731e-01  -2.8916457e-01  -1.5487872e-02   3.2625038e-01  -5.4897038e-02   8.5767507e-01  -1.0270442e-01  -5.7643185e-01  -1.9557290e-01   7.4358400e-01   3.0473666e-01  -5.5822840e-01   1.7599307e-01   6.3364106e-02  -2.6234242e-01  -2.6400782e-01  -5.5603066e-01  -6.9742650e-01  -5.0606030e-01   1.6192534e-01  -7.6111679e-01   2.3498633e-01  -8.1912950e-01   8.1000605e-01  -7.7133208e-01  -8.1833509e-01   1.5142751e-01   9.7359313e-01  -9.0904055e-01   7.4979117e-03  -2.3390991e-01   3.9631710e-01  -5.4182287e-01  -7.4926842e-01  -9.4279549e-01  -3.9795057e-01  -6.8588147e-01   8.7139852e-01   8.0893907e-01   8.4992502e-01  -7.7667733e-01  -9.7320062e-01   4.0734561e-01   9.9632044e-01  -3.4238242e-01  -8.8252036e-01   5.9080727e-01   5.7239301e-01   1.9214985e-01  -3.6300739e-01  -9.6335111e-01  -4.9659105e-01  -6.3841581e-01   5.1967800e-01  -6.4588320e-01   1.9439403e-01  -9.6284836e-01   8.6116632e-01  -9.2546152e-01  -3.4624468e-01   3.3372463e-01   7.5720630e-01  -4.3720589e-01  -8.9987273e-01  -7.9686135e-01   2.0813969e-01  -7.4025522e-01  -2.7047979e-01   7.1997904e-01  -1.0527169e-01   8.2867363e-01  -1.3608269e-01   9.4735826e-01  -9.0990122e-01   8.8131430e-02   1.5501028e-02   9.6988061e-01   5.4299317e-01  -2.4549524e-01   4.8292071e-02   4.9140780e-01   8.4089047e-02   9.7402865e-02   2.7532698e-01  -7.2006488e-01   9.9135385e-01  -3.8489874e-01  -3.0952452e-01   5.4147650e-01   7.6893887e-01  -8.7871637e-01  -5.6313037e-01  -6.9778863e-01   9.1966833e-01   7.3867155e-03  -6.8361726e-01  -4.0487457e-01   8.7022812e-01  -2.0774703e-01   2.1759313e-02   4.9854065e-01   3.9408780e-02   1.5081162e-01  -1.3381925e-01  -2.2127542e-01   8.9307382e-01   8.5002206e-03  -4.6254020e-01   8.9782020e-01   2.7004727e-01   2.9904255e-01  -1.2280005e-01   3.7417951e-01   7.3885127e-01  -7.3561480e-01  -2.9076787e-01   1.4245074e-01   5.3460853e-02  -2.0843884e-01  -6.1165665e-01   4.8251995e-01  -6.0131680e-01   6.3869425e-01  -6.6175754e-01   4.3807353e-02   5.9419883e-02  -3.3902771e-01  -6.2075372e-01  -5.7601040e-01   5.2229455e-01  -2.5706173e-01   7.4445004e-01  -4.8521671e-01   3.3626569e-01  -6.0143336e-01   3.5455200e-01  -2.7617965e-01  -1.8784183e-01  -9.8554401e-01  -1.3422391e-02  -5.7076650e-01   4.6203690e-01   3.6121225e-01  -7.1104855e-01   8.7647031e-01   9.4023441e-02  -2.4209504e-01  -8.1612316e-01   9.2373622e-01   8.1301798e-01  -2.0041210e-01   3.5828779e-01  -6.1395813e-02   2.8244063e-01   7.3253013e-01   4.8960631e-01  -7.8242501e-01   5.6436901e-01   4.9800920e-02  -8.2298597e-02   5.5303562e-01   9.3463046e-01  -2.1651960e-01   7.2227990e-01   1.1257693e-01  -9.9586261e-01  -9.6074782e-01  -4.8122371e-01  -3.8450390e-01   2.6478404e-01  -7.3198706e-01  -2.8215448e-01  -7.2238673e-01   9.0211971e-01   2.3827206e-01   7.3335883e-01  -8.7654304e-01   3.0797445e-01   3.3893990e-01   2.1495480e-01   9.5138513e-01   8.6756095e-01  -3.5152548e-01  -6.5848479e-01  -3.4250695e-01  -5.7142717e-01   3.7993388e-01  -4.2571002e-01  -5.8844867e-01  -6.5072043e-01  -5.6099929e-03   6.0794650e-01  -3.5713608e-01   2.3571647e-01  -7.2231211e-01   9.1632496e-01   9.7180735e-02   7.4766440e-01   8.2803404e-01   9.4521047e-01   7.0329757e-01   3.2333285e-01  -1.7627813e-02   4.0277723e-01  -3.1928383e-01   1.9696968e-01   1.3826794e-01   4.0395241e-01   8.9665427e-02   9.0031349e-01  -7.3187946e-01  -3.5357475e-01   1.9303631e-01   3.0292274e-02  -8.7985336e-01  -6.5873964e-01  -5.0955830e-01   8.9720149e-01   1.0335016e-01  -3.7186159e-01  -9.0265794e-01   8.8408572e-02  -6.6843780e-01   3.3271125e-01   6.8902338e-01   1.7362081e-01  -6.9506527e-01   6.2433511e-01  -8.4929679e-02  -3.6479826e-01   7.9019720e-01  -3.9777420e-01  -9.7193939e-01   4.4609394e-01  -8.8368939e-01  -8.0219798e-01  -4.1825795e-01  -4.4431486e-01  -7.0645510e-01   4.1441393e-02  -8.2793979e-02   2.5049215e-01   3.5442996e-02  -8.4597806e-01  -3.3534487e-01   8.4885149e-02   3.5296132e-01  -4.3499742e-01  -3.7642042e-02   4.8826268e-01   2.2792483e-01   5.7737412e-01  -1.5234800e-01   6.2211569e-01   2.3387361e-01   2.8389341e-01   6.8628375e-01  -6.4079429e-01  -5.8185467e-01   9.6186518e-02  -2.3879384e-01  -9.8267309e-02  -5.6752607e-01   5.4282271e-01   9.1111875e-01   8.3328879e-01  -1.4867450e-01   1.1645926e-01   9.6087309e-01   6.3071104e-01   6.8086169e-01   3.7475980e-01   2.9868454e-02   5.1031021e-01   2.4622034e-01   7.8648195e-01   9.9441044e-01  -9.3135845e-02  -1.4663007e-01   1.8211275e-01   3.3099124e-01  -9.2806356e-01  -4.5083072e-01  -9.4541765e-01  -2.8989615e-02  -3.2204574e-01   2.4838375e-01  -2.4200200e-01   3.8266731e-01   6.6642453e-01   9.6539914e-01   2.0866030e-01  -5.1945883e-01  -5.5217449e-01   2.2099092e-01   4.5325773e-01  -4.6559550e-01  -7.6258706e-01   5.3780925e-01   6.2001721e-01   1.6051580e-02   5.0635878e-01  -5.2090343e-01  -5.9975283e-01  -4.3381409e-01  -7.0572880e-01   1.0198812e-01   6.5465205e-01   2.8924175e-01   9.7076263e-01  -7.6853557e-01   6.6943626e-01   4.1446756e-01   4.2653471e-01   2.1486796e-01  -2.1872286e-01   7.9523170e-01  -6.0939985e-01   4.9232555e-01   7.1157082e-01  -7.7077564e-01   9.9688734e-01  -5.4119536e-01  -7.1025545e-01   2.1136753e-03   8.6856134e-01  -9.5323166e-01  -6.6011396e-01  -8.3600562e-01   3.0617198e-01   6.1338468e-01   4.4803482e-01   4.6709940e-01  -3.8749982e-01   1.6872636e-01  -5.2756673e-01   9.6194877e-02  -8.0962462e-01  -3.7877529e-01   1.8754499e-01   4.2992758e-01  -6.8853238e-01   7.6285415e-01  -5.1797963e-01  -2.7281373e-01  -5.7072039e-01  -7.0496632e-01  -4.2862306e-01   9.5639843e-01  -4.1913213e-01  -3.8716719e-02  -2.2257198e-01   5.0642537e-01  -3.4283407e-01  -6.0923156e-01   1.4505728e-01  -7.9942447e-01  -5.7438800e-01   6.1062340e-01  -5.5305700e-01   3.8388845e-01  -3.4470170e-01  -8.4088737e-01   9.2506458e-01  -5.8158525e-01  -1.7510078e-01  -2.2002567e-01   2.7329215e-01   2.9024055e-01  -5.6682040e-01  -9.2027796e-01   4.9354224e-01   6.3308054e-01   4.5865624e-01   5.7267851e-01  -7.8967897e-01  -9.4908275e-01   6.2842403e-01  -2.4909679e-02   1.2754877e-01  -1.4739186e-01   7.9169411e-01   9.6221129e-01  -8.8151371e-01   5.1219595e-01  -3.3293032e-01  -6.6540578e-01   6.9153128e-01  -4.7530621e-01  -9.5848625e-01   4.5980034e-01   4.0053969e-01  -5.0212550e-01   3.0871887e-02  -5.6717123e-01  -1.3004348e-01  -2.9405579e-01   2.2024160e-01  -1.2118059e-01   4.4328272e-01  -3.8700664e-01   9.6019097e-01  -3.5131365e-01   3.8103272e-01  -4.1718533e-01   8.6863001e-01  -7.1196038e-01  -3.0795361e-01   6.9205809e-01   7.4729129e-02   3.6154090e-01  -8.8680323e-01   9.8257726e-01  -1.6904915e-01  -3.2300254e-01  -4.4746258e-01  -5.7778674e-01   8.7282130e-01   9.7671101e-01   1.3356133e-01  -4.4683035e-01   8.3542982e-01   8.1827048e-01  -2.5900342e-01   1.5325758e-01  -1.7380475e-01   3.5185341e-02   4.1739215e-01   9.4633421e-01  -7.7665422e-01   5.3726734e-01  -5.8196554e-01  -1.9634288e-01  -1.1488939e-01   8.6214382e-01   3.0728924e-01   6.1905718e-01  -2.3456125e-01  -4.5813081e-01  -2.1024858e-03  -6.0352593e-01  -8.5809244e-01  -1.7996542e-01   6.0140845e-01  -3.3298209e-01  -2.9439139e-01   9.6244433e-01   1.9466900e-01   1.6756914e-01  -8.1469318e-01  -7.0845239e-02  -4.2831585e-01  -7.8888732e-01  -9.2781850e-01  -3.7336263e-01   1.1023483e-01   1.3181031e-01   6.5043744e-01   7.8938465e-01   5.5186870e-01  -7.8632289e-01  -6.1611008e-01   9.3000753e-01   3.0027495e-01   2.7083387e-01   8.4534229e-01   2.5559080e-01   3.2278282e-01   6.9874857e-01  -6.8156404e-01  -8.5712775e-01  -4.1605595e-01   5.7389402e-01   2.9638089e-01  -2.0116964e-01  -3.5450361e-01   6.8990272e-01  -1.6389788e-02   2.1645066e-01   3.7838442e-01   4.5409943e-01   8.6439407e-02   3.5663439e-01   2.7067917e-01   1.1326734e-01   6.5388625e-01   5.8980755e-01   8.1403072e-01   2.9219749e-01   6.7440080e-01  -7.3332782e-01   9.8128187e-01   3.8912048e-01   3.0493592e-01  -4.9688809e-01   4.6855991e-01   2.3005043e-01   8.0953379e-01   9.2756728e-01   7.7643216e-01   8.8704349e-01  -7.2540966e-01  -2.0889464e-01  -2.0831433e-01   6.3363305e-01   3.3632813e-01   1.5647705e-01  -3.3157043e-02   8.4434731e-01  -3.8664730e-01  -5.8421195e-02  -5.6300294e-01   6.0954885e-01  -8.4198969e-01   4.5087711e-01  -6.1885154e-01   3.6878258e-01   8.3363129e-02   3.7334058e-01  -1.1634686e-01   9.1950463e-01  -5.1443413e-01   5.3820946e-01  -8.6061222e-01   9.1291667e-01   5.0984153e-01   6.6923693e-01   9.9890079e-01  -4.3040578e-02   3.6994928e-01  -9.5969289e-01  -2.8530722e-01   3.0003118e-01  -3.6965440e-01   8.8276694e-01   7.8777819e-01   6.7299587e-01  -1.0130425e-01  -9.6262974e-01  -3.0204066e-01  -7.9751566e-01  -1.9996123e-01   8.3691301e-01  -4.2099044e-01   9.8437283e-01  -9.2184745e-02   2.7330067e-01  -2.7174662e-01   5.0200166e-01  -2.6252114e-01  -8.0766442e-01  -6.0233706e-01   4.0160752e-01  -4.8866337e-01   3.4509191e-01   2.9296967e-01  -2.2339557e-01  -2.1137773e-01   2.6505030e-01   2.4272956e-01  -9.8782854e-01   6.2910034e-01   6.7972400e-01   7.9896843e-02   3.0384389e-01  -1.0346833e-01  -8.3773483e-01   8.4345532e-01   5.7679460e-01   5.7188818e-01  -5.9688105e-01  -5.3869322e-02  -3.4640134e-01  -4.7621228e-01   2.6161581e-01   9.6842737e-02   7.6340779e-01  -1.8960008e-01   9.4209286e-01   8.8677807e-01   8.6293346e-01  -6.2271698e-01   4.6640693e-02   9.4190102e-01   1.4894487e-01   3.5416455e-01  -5.0265328e-01   6.8799695e-01  -1.9896931e-01  -6.5281944e-01  -8.4843897e-01  -9.5932994e-01   9.9153197e-01  -1.8841568e-01  -2.1656385e-01  -4.1461034e-01   5.8078335e-02  -7.9651418e-01   9.4976547e-01  -3.0968964e-01  -4.2044622e-01  -8.4840012e-01   5.0393384e-01  -1.7996591e-01   3.6359369e-01   2.5403842e-02  -1.1140303e-01  -3.9421736e-01   5.3045367e-01   2.2680927e-02   5.1240058e-01   5.1850927e-01  -9.9034565e-01   8.0769884e-01  -6.5981503e-01   8.3375976e-01   2.1142411e-01   3.8066925e-01   1.2513236e-02  -4.1714275e-01   7.1127446e-01  -9.1603061e-01  -1.7325975e-01  -4.4546729e-01   7.1865990e-02   2.9615094e-01   9.4008427e-01   3.0871192e-02  -1.5850603e-01   4.4602493e-01   7.6585544e-01  -4.3362077e-01   3.9133747e-01  -2.5997509e-01   2.9267660e-01  -6.6684946e-01   6.9901549e-02   8.2775429e-01  -3.7107316e-01  -4.8689462e-01   1.5310416e-01  -9.9322628e-01   6.5051581e-01   6.8223584e-02  -4.8888474e-01   4.2537805e-01  -8.2137095e-01  -2.6586497e-02   9.6413508e-01  -1.9821170e-01  -8.1368021e-01   2.6639163e-01   2.2448516e-01   4.0281832e-01   1.9007519e-01   6.7890280e-01   7.8048128e-01  -7.4776682e-01   1.7201335e-01   5.3918406e-01  -8.2506458e-01   9.2102482e-01   9.9405721e-01   7.6908509e-01  -7.4884868e-01  -2.6989330e-01   4.3439677e-01   9.6890379e-01  -9.3713852e-01  -7.9773240e-01   1.2469486e-01  -1.6370059e-01   5.1228151e-01  -6.7309687e-01   6.8347480e-01  -6.8152331e-02  -3.5842032e-03  -9.9628172e-01   9.0933837e-01  -4.9186917e-01   4.4879981e-01  -1.2624020e-01  -6.5619266e-01   5.1196124e-02   1.1914687e-04  -5.9939943e-01   2.8595388e-02  -5.2090278e-01  -5.7966137e-01   9.0654418e-01   4.6494083e-01   9.0457667e-01   8.7800922e-01   4.9548150e-01  -9.0080954e-03  -1.0265718e-01   1.5616651e-01  -8.6653551e-01  -1.4796061e-01   3.0463983e-02   4.0444655e-01   3.2092970e-01   3.8159615e-02   5.9725880e-01  -3.4907533e-01  -4.2715311e-01   5.7638361e-01  -7.8023939e-01   4.6568480e-01  -6.6520423e-02   8.8884704e-01  -7.5901079e-01   8.2567970e-01   8.5569940e-01   4.1936544e-01  -5.7455952e-01  -4.4500576e-01   1.0665792e-01  -7.3847063e-01   3.9216124e-01   4.1087230e-01   7.1908325e-01   4.0497665e-01   2.5165268e-01  -6.5400769e-01   2.7542075e-01   9.9307735e-01   7.3147859e-01  -2.8027472e-01  -7.9608185e-01  -5.2318672e-01   6.6558318e-01   9.6261266e-01   8.5627825e-01  -4.1256454e-01  -8.2718417e-01  -7.1971747e-01   9.7044658e-01   8.9112688e-01   1.4541979e-01  -8.0355300e-01  -2.5099869e-01   8.9847733e-01  -9.0393788e-01   5.8030932e-01   8.1375454e-01  -3.3844453e-01  -9.1630874e-01   1.0889568e-01   2.6299674e-01  -1.7520458e-02  -5.8011819e-01  -7.0697321e-01  -8.5032866e-01   3.3505877e-01  -5.6923462e-01   8.6284801e-01  -2.0270091e-01   3.3242629e-02  -1.2703142e-01   7.0063921e-01   4.6956558e-02   5.7126315e-01  -5.8952208e-01  -6.1867002e-01   8.2371696e-01  -6.5401447e-01  -1.9640965e-01  -7.1602540e-01  -5.0715730e-01   9.3257072e-01   5.5393582e-01   5.2903651e-01  -1.3846105e-01   2.1488748e-01  -7.3245383e-01  -9.5652882e-01   2.0985171e-01   8.9335987e-01  -7.1591075e-01  -5.6691217e-01  -2.1771559e-01   6.6745769e-01  -4.6099423e-01  -4.5055287e-01  -6.9917306e-01  -2.6549785e-01   8.6210043e-01  -2.7539303e-01  -3.7831987e-01  -8.5099551e-01  -2.3881735e-01   8.3581202e-01  -9.2087433e-01   7.3233858e-01   1.4801794e-01  -2.3648618e-01   7.3185622e-01  -2.9314487e-01  -8.1151033e-01   9.0082595e-01  -5.8395384e-01   6.2054307e-01  -6.1288745e-01   7.9384870e-01  -5.2924191e-01
  -3.1258589e-01  -4.8274013e-01   9.0249132e-01   3.1054561e-01  -1.6659461e-01   5.1871272e-01  -2.4842342e-01  -2.4163183e-01   4.5397246e-01  -3.1790443e-01  -6.4291075e-01  -5.9748925e-01  -2.9076493e-02   7.5767715e-01  -6.9954088e-01   5.2157282e-01  -3.6134520e-01   2.6677621e-01  -1.4055856e-01   1.2026988e-01   6.5574445e-03  -7.8332146e-01   8.1147942e-01  -9.6292746e-02   3.3853176e-01  -4.9002218e-01   2.6670355e-01  -4.8096650e-01  -8.6962195e-01   8.8676899e-01   2.0186700e-01   5.3614093e-01  -1.8286713e-01   2.1800235e-02   1.2551411e-01   1.7282753e-01  -4.3862359e-01  -4.5568573e-01  -5.0435125e-01   4.7647896e-01   6.2972687e-01  -2.3935386e-01  -3.7750854e-01   6.2676215e-01  -8.2689656e-01   7.0740972e-01   3.9257077e-01   7.3819797e-01  -5.4560433e-01  -4.3843165e-01  -4.8133624e-01   1.1059502e-01   7.5514091e-01  -2.5073659e-01  -3.7482581e-01  -8.7121011e-01   2.7542935e-01   8.6038244e-01   7.2360573e-01  -7.4246119e-01   3.2738889e-01   6.9067731e-01  -5.8693146e-01  -2.0410691e-01  -2.4149258e-01   4.6002878e-01   4.2601268e-01  -8.6907949e-01  -7.4312231e-01   6.8328448e-01  -1.4919880e-01  -5.5359748e-01   7.3591205e-01   4.5276767e-01  -2.3895945e-01  -5.7325289e-01   9.8563895e-01   6.2144377e-01   9.5032279e-01  -8.4368558e-02  -8.0623446e-01  -7.6697778e-01  -8.7865026e-01  -1.5870556e-01   7.9920073e-01   7.0592766e-01  -3.5236142e-01  -5.7155345e-01   4.2698118e-01   7.3757148e-01   2.5931886e-01   9.8815636e-01   7.0556339e-01  -7.1752682e-01  -4.3070449e-01   4.3499587e-01  -7.9596570e-01  -8.6423818e-01   1.2222135e-01   1.2802229e-01   6.5657008e-01  -4.4237571e-01   8.6674446e-01  -2.0814598e-01   4.6475380e-01  -2.8732180e-01   4.9477901e-01   6.9931718e-01   7.2366599e-01   6.5035129e-01  -3.9937016e-01   3.9149714e-01   9.2385153e-01   5.6828014e-01   1.0519640e-01  -8.5793000e-01  -9.5066668e-02  -8.7193758e-01   4.7878722e-01   4.2487786e-01  -1.3526630e-01   5.0790083e-01  -4.7219676e-01  -5.5504584e-01  -9.0427108e-01  -9.5561374e-01  -1.4631376e-02   3.1674760e-01  -5.9000996e-01   4.5042725e-01  -9.1479007e-01  -9.6228643e-01  -2.7634936e-01   9.6851490e-01   2.4844917e-01   7.9019523e-01  -1.4070031e-01  -3.7707964e-01  -5.7406649e-02   9.1294342e-01   8.2713135e-01   9.3456289e-01  -9.0892020e-01  -7.1420746e-01   5.1704954e-01   2.2155436e-01   1.0695759e-01   2.2895272e-01  -6.4889802e-01  -3.0306791e-01  -3.3869330e-01  -1.4033168e-01   4.0556002e-01  -2.4714126e-01   3.2562246e-01  -9.3941031e-01   7.0106167e-01  -1.4180715e-01   4.4380553e-01   3.7900588e-01   1.9392278e-01   8.0189714e-01   9.8792975e-01   7.3820900e-01   5.7198000e-01   7.1556369e-01   5.1235279e-01   2.7967056e-01  -6.0197641e-01  -1.7112262e-02   7.9373551e-01   6.7996567e-01   2.2320975e-01  -2.3762477e-01  -8.6190869e-02  -8.5913937e-01   2.0773137e-02   6.6823513e-01   2.7741221e-01  -3.0048825e-01   1.7450480e-01   6.9020486e-01   3.3249583e-01   8.6952134e-01   9.5857270e-01   1.2239879e-01   1.2290426e-01  -9.5041329e-01  -2.3995636e-01   7.7670443e-01   3.6517429e-01   9.7120429e-01  -9.2347193e-01   4.5770646e-01   8.5718881e-01  -3.2263124e-01  -3.9566051e-01  -9.2445317e-01  -7.9086424e-02  -6.2483230e-01   5.4292498e-01  -1.4973737e-01  -8.9347176e-02  -2.7796271e-01   5.7547848e-01   2.7497519e-01  -8.9678525e-02  -5.6916300e-01  -3.1699154e-01   9.7565552e-01   1.5748744e-01  -4.2557592e-01  -9.1179176e-02  -1.7894192e-01  -9.4672692e-01   1.2335854e-01  -2.3463774e-01  -2.1372918e-01  -5.3445575e-01   4.7428404e-02  -7.9535612e-01   7.4400128e-01  -8.7886712e-01   4.8699629e-01   2.8906251e-01  -9.5888693e-02   4.1484897e-01   4.6234457e-01   3.0159819e-01   3.6338688e-01   8.7128352e-01  -9.0860765e-01   9.3710299e-01   9.5264983e-01   1.9293022e-01  -4.5219787e-01  -8.9828230e-01  -9.5049653e-01   6.0135706e-01  -6.5697919e-01   8.8085866e-01  -3.8886068e-01   2.1758687e-01   1.1569683e-01  -5.3423181e-01   2.1554532e-02  -2.7542640e-01   2.7541555e-01   7.7963700e-01  -2.7782719e-01   4.1445253e-01  -8.4366656e-01   6.0321452e-01  -6.3795571e-02  -4.3223986e-01   1.6132772e-01  -9.6502658e-01   1.8101507e-01  -7.5522258e-01   8.8566775e-01  -3.7423635e-01  -7.7942772e-01  -9.9407107e-02   2.7684793e-01   2.6141437e-01   5.2379861e-01  -2.3058471e-01  -3.7650558e-02   9.3157054e-01  -7.7630064e-01   2.8873744e-01  -6.6918862e-01  -3.1317018e-01  -7.5080923e-01  -5.1763936e-02   2.4251389e-01   9.6345910e-01   4.3230817e-01   4.2945038e-01  -2.0667364e-02   6.0012444e-01   2.4086280e-01  -8.3959755e-01  -2.8382324e-01  -5.1580375e-01  -4.0894335e-01   1.5798189e-01  -2.2381954e-01  -5.4598420e-02   4.2234360e-01   7.6947340e-01   1.5327033e-01   5.7756080e-01   9.5199041e-01  -9.8278601e-01   5.0369630e-02   9.2866483e-01  -4.3238515e-01  -1.0089301e-01   2.0823858e-01  -4.7965379e-01   7.9142899e-01   9.9834274e-01  -3.8016489e-01  -5.4323951e-03  -5.1863964e-02   5.4193262e-01   9.4388209e-01  -3.7822129e-01  -6.9725052e-01   6.1792153e-01  -7.0933982e-02  -2.1057585e-01  -8.6963854e-01  -8.1314911e-01   8.2407596e-01  -9.5515820e-01   5.7360142e-01   6.4789915e-01   4.2078202e-01  -9.8447570e-01  -3.0541798e-01  -3.2949802e-01  -4.0384350e-01  -2.9065830e-01  -7.2433974e-02  -6.4133222e-01   6.6482416e-01   8.8959106e-01  -3.4722323e-01  -5.8871919e-01  -3.1298647e-01   2.8634616e-01  -9.5520079e-01   6.1489133e-01   4.9262407e-01  -8.1617891e-01  -7.2577527e-01  -7.6150332e-01   4.8653511e-01   7.4169966e-01  -5.6757559e-01  -1.1529372e-01  -4.0948265e-01   3.0300483e-01  -1.7231394e-01  -4.7635134e-01  -9.5075098e-02  -3.7799629e-01   4.7227654e-01   9.0664378e-01  -2.3678893e-02   2.1161136e-01   4.6540719e-01  -6.8515386e-01  -3.0117956e-01  -9.1944730e-01   2.7888762e-01  -5.6908783e-01   8.3788804e-01   6.8775285e-01  -5.9151950e-01  -2.4411227e-01  -4.8462706e-01   6.6924128e-01  -1.9536475e-01   3.3017312e-01  -5.4432610e-01  -3.8994203e-01   4.8358835e-01   4.1216489e-01   7.4498735e-01  -4.2940555e-01   2.4696269e-01   9.3835844e-01  -6.3399244e-01  -3.3238058e-01   8.5448144e-01  -9.9636456e-02   6.0150234e-01   5.3720960e-01   5.9972039e-01   1.3114957e-01  -9.1201386e-01  -1.2118411e-01  -9.0260268e-01  -5.8333836e-01   6.8397707e-01   7.0836003e-01  -3.3970507e-01  -2.2231873e-01   8.7655706e-01  -3.0959231e-01   2.4206311e-01  -3.1987268e-01  -5.5647300e-01  -1.7188307e-01  -3.9745535e-01  -6.2381868e-01   4.7427553e-01  -4.6668127e-01  -7.6727915e-01  -1.2155028e-01  -6.1922452e-01  -3.1160313e-01  -4.4323960e-03   1.4063825e-01   5.3407670e-01  -3.6718153e-02   3.4462526e-01  -7.7127770e-02  -2.8361532e-01   1.8991239e-02   8.3090875e-01  -1.0487081e-01  -4.5054857e-01   9.9846709e-01   6.6998971e-01   9.3274793e-01   6.9487538e-02   7.8262252e-02   7.2961324e-01  -6.0418246e-01  -4.2299327e-01   3.0739149e-01  -5.0621649e-01  -1.7573267e-01  -5.6741044e-01  -8.6052795e-01  -3.8908341e-01  -5.1551113e-01   5.2742305e-01   4.3108641e-01   6.4557905e-01   4.2670947e-01   5.0844317e-01   4.6953134e-02  -7.6698863e-01   7.4544371e-01  -4.6746737e-01  -5.0117386e-01  -9.6374091e-01  -4.7573284e-02   8.3396422e-01   2.3926699e-01  -2.3127016e-01  -3.8535996e-01  -1.8853498e-01  -9.6754741e-01  -1.7324109e-01  -7.7588282e-01   3.7316560e-01  -5.9898574e-01  -9.8154944e-02  -9.9650762e-02  -8.2897366e-01  -6.4497917e-01  -7.8680537e-01   3.0377940e-01   3.3735238e-01   9.4189494e-01   6.5219567e-01  -9.1179026e-01   1.0483625e-01   8.5519529e-01   9.2575611e-02   1.2906418e-01  -9.0659846e-01  -3.4430628e-01   6.8372541e-01   6.6679897e-01   3.1584169e-01   4.7146255e-01  -8.7877576e-01   1.2263824e-01  -4.8532156e-01  -4.2775310e-01  -2.8431105e-01   4.5782502e-01   1.5548306e-01  -5.4165474e-01   5.1926697e-01   7.4106579e-02  -3.4455390e-01   7.4354914e-01   2.1059641e-01  -7.9262592e-01  -4.6194772e-01   1.6888954e-01  -7.7316819e-01   4.7701534e-01   4.5640068e-01   5.5973677e-01   7.7499906e-01   4.1222546e-01  -4.9460201e-01   6.5797278e-01  -3.6392300e-01   7.6835053e-01  -9.1485079e-01   7.0654320e-01  -6.0628904e-01  -4.9486612e-01   7.5619361e-01   8.9415897e-01   2.7644203e-01   2.8039062e-01  -8.7172937e-01  -2.4107568e-01  -1.2466489e-01  -4.7080258e-01   7.3036078e-01   5.4450122e-01   5.6142232e-01  -6.8775389e-01  -2.6616940e-01  -5.2548727e-01   4.7231601e-01   8.3252094e-01  -6.0393661e-02  -9.7047651e-01   7.0946223e-01  -7.6636204e-01  -9.3739350e-01   1.9411174e-01   8.4405006e-01   2.8286399e-01  -1.9468392e-01   7.1636061e-01  -9.8722772e-01   8.1537403e-01  -3.8688769e-01  -6.8457704e-01   6.4579143e-02   9.0713539e-01  -4.5554587e-01   8.5458901e-01   4.9770606e-01  -8.1353972e-01   5.6933214e-01   2.2129165e-01   4.8570497e-01  -8.7391838e-01  -8.3808366e-01   4.1621436e-02   1.7565861e-02  -4.5051831e-01   9.2275616e-01  -5.7037311e-02  -9.1323627e-01  -9.9228316e-01  -1.9534412e-01   7.4942440e-01   6.5513846e-01   8.4806280e-01  -7.1182747e-01   3.4502641e-01   1.3140572e-01  -1.1535919e-01  -1.2581151e-02  -1.1044296e-01  -8.4900690e-01  -8.6659299e-01  -3.1981099e-01   9.5904894e-01  -8.8657801e-01   8.2240870e-02  -7.6450592e-01   4.6426106e-01  -9.5972361e-01   1.7617448e-01   8.5170571e-01   7.9839614e-01  -6.3864146e-01  -9.1358575e-01   8.6114893e-01   1.6190946e-02   9.1340212e-01   6.8119846e-01   2.2482698e-01  -1.2140067e-01   5.9622468e-01  -5.2575691e-01   8.9030655e-01  -3.9165882e-01  -1.7215220e-01   8.4368370e-01   2.8659172e-01  -3.5874116e-01   2.2816555e-01   9.3060217e-01   9.0984278e-01   4.6167912e-01   3.5988334e-02   8.3133901e-01  -7.3301417e-01   3.7834640e-01  -9.8006259e-01   2.8467569e-01  -7.4577238e-01   8.2175495e-01  -5.4711301e-01  -6.3464483e-01   7.0886550e-01   8.5812770e-01  -4.4898299e-01  -7.8379611e-01   2.2219774e-01   5.4556065e-01  -7.2513559e-01  -1.9531537e-01   1.4850561e-01  -6.1646353e-01   7.3542140e-03   2.6579630e-01   1.3044079e-01   6.6322284e-01  -3.7081718e-01   1.4745409e-01   5.5425152e-02   6.7880031e-01  -9.1612246e-01   5.7536993e-01  -3.3200631e-02  -6.5354705e-01   3.9846423e-01   7.8657485e-01  -1.0484169e-01   5.4186282e-02  -5.7494848e-01   6.4731053e-01   9.4998527e-01   3.3566961e-01   4.9898620e-01   5.7731219e-01   8.7259858e-01   7.8614654e-01  -4.3641657e-01  -1.1287838e-01   5.1657065e-01   2.8678697e-01   9.5829569e-01  -6.8490403e-01   2.1064713e-01  -7.8825491e-01  -6.0995377e-01  -4.7959626e-01   3.4869740e-01   6.7763202e-02   7.0521081e-01   5.5431315e-01  -6.6792885e-01   2.7585274e-01  -1.2665273e-01  -3.9197216e-01  -4.5875174e-01  -9.5088988e-01   4.2463120e-01   7.5123237e-01  -3.0817038e-01   4.6261254e-01  -5.4764477e-02  -6.7963989e-02   7.2085500e-01   4.3365349e-01   9.9807731e-02   5.5464203e-01   6.6101132e-01  -2.9152518e-01   5.0004206e-01  -2.9976333e-01  -6.5142752e-01   5.8265107e-01  -3.0077546e-01   4.4018339e-02  -6.6258380e-01   6.8501115e-01   8.0048349e-01   4.1493085e-01  -9.6851788e-01   8.3348138e-01   9.8590254e-01  -8.3161660e-02  -8.8548965e-01   2.8727681e-01  -8.4520475e-01   7.5902848e-01  -4.5160522e-01   9.1724114e-01   8.9759353e-01  -2.2347615e-01  -6.3281496e-01  -9.3990770e-01   6.9274699e-01  -2.8423184e-01  -6.3223832e-01  -7.9106109e-01  -2.0106112e-01  -7.5299516e-02   6.1036333e-01  -6.7737506e-01  -6.5833051e-01   4.6592396e-01  -9.0221131e-01   2.8381237e-01   8.4003391e-01   9.0861391e-02  -1.5326823e-01  -8.1491318e-01   6.3272024e-01   4.0208279e-01  -5.8825416e-01   1.0093908e-01  -6.7528914e-01   2.9943311e-03  -1.7122530e-01  -2.3897627e-01  -2.4192511e-01  -2.7254117e-01   4.1856056e-01   9.9899427e-01  -8.1629319e-01  -2.4464220e-01   2.3813539e-01  -1.1980423e-01   7.8065457e-01  -1.6035017e-01  -4.2596119e-01  -3.7925055e-01  -3.8529206e-01  -2.4197075e-01   1.2351438e-01  -4.1173761e-01   6.8083153e-01  -1.6646946e-01   8.3832160e-01  -6.2482688e-01  -3.7439904e-01  -4.4828202e-01   5.9248472e-01  -7.0612375e-01  -1.9591874e-01   1.7014979e-01   8.8258588e-01   1.2924249e-01   9.7763791e-01   6.0055949e-01   4.8063849e-01  -3.1880868e-01   7.2139145e-01  -8.7231008e-01  -2.9459541e-01   7.6949462e-01  -7.9327337e-01  -7.7696855e-01  -3.8337541e-02  -7.0341092e-01  -5.1809965e-01  -3.0415142e-01  -9.0171298e-01   3.5031329e-01   3.5900216e-01   2.5326891e-01   7.2170906e-01  -4.1535293e-01  -8.4368594e-01  -9.6755290e-01  -9.1691793e-01   2.9517539e-01  -2.4327344e-01   8.0516621e-01  -8.8935634e-01  -2.4052019e-01   1.2929693e-01  -9.5210181e-01   6.7839633e-01  -1.2779742e-03   8.3644691e-01   3.2242251e-01  -9.7578856e-01   2.1387936e-01  -8.0267855e-01   7.0880239e-01  -8.8138855e-01   8.5581795e-01   2.3600568e-01  -5.6523313e-01  -1.2821709e-01   7.2087668e-01  -1.9041764e-01  -4.7972222e-01  -7.7883973e-02  -5.3691088e-01  -7.4001551e-01  -4.5806333e-01   6.8651470e-01  -7.0907670e-01   8.4204717e-01  -6.9163578e-01   1.3026513e-01   4.3628978e-01   5.4757952e-01   6.0424149e-01  -7.4922229e-01   8.9667516e-01  -5.0486759e-01   5.4802820e-01  -5.3470979e-01   2.4249099e-01   6.1441045e-01  -1.7158506e-01  -9.9982622e-01   5.6134883e-01  -9.6844700e-01  -6.8399642e-01   2.6446453e-01   4.6134608e-01  -1.9099246e-01   7.6040309e-01  -9.6508547e-01  -9.6929138e-01  -4.5660820e-01   4.2956483e-01   6.8277644e-01   3.5265686e-01  -4.6165979e-01   1.9940967e-01  -1.6671487e-01   4.8133268e-01   5.3810257e-01   4.9544931e-01  -8.3287791e-01   4.5868942e-01  -9.8480847e-01   6.9319292e-01  -2.4146315e-01   1.8261104e-01  -6.6739203e-01  -9.7044430e-01  -6.7912297e-01   9.7515405e-01   8.9726206e-02  -6.9388492e-01  -7.2052943e-01  -1.1297640e-01   9.6068013e-01  -1.7505841e-01   7.4185343e-01   7.6485658e-01  -8.6431632e-01  -4.9077051e-02  -2.6339827e-01   9.4315425e-01  -6.3707166e-01   1.6378568e-01  -4.1689006e-01   5.1997413e-01  -9.8777069e-01  -1.0571391e-01  -3.8246838e-01  -9.3285111e-01  -4.7954283e-01  -9.6982192e-01   4.7165984e-01  -1.7222106e-01  -1.0462519e-01   5.2950518e-01   4.3592124e-01  -4.4738071e-01   9.4558180e-01  -2.9087915e-02   9.6096624e-01   2.7015614e-03   7.1343116e-02  -1.6159235e-01   2.0610016e-03  -9.3803104e-01   4.8543050e-01  -8.4625789e-01   4.0661136e-01   3.3758426e-01  -7.3614498e-01  -8.8070638e-01   2.9301764e-01  -8.2600429e-01  -7.4550704e-01  -9.2547432e-02  -2.8676918e-01   9.1399261e-01   5.9139534e-01  -8.2122860e-01  -8.2726663e-01   3.1187619e-01  -9.7736548e-01   5.7195049e-01   3.7206514e-01   1.1646825e-01   7.4706579e-01  -3.9008477e-02  -1.7079545e-01   5.9444999e-01  -5.3552068e-01   5.0485958e-02   8.7314936e-01   9.1828116e-01   3.3489300e-01   5.4179463e-01   7.8755341e-01   9.8285708e-01  -3.9369596e-01   4.4831188e-01  -5.9419710e-01  -2.5287626e-01   9.2549212e-01  -5.3347895e-02  -9.6510278e-01  -7.4709383e-01   7.5227373e-01   9.1533738e-01   1.1139602e-02   9.2692629e-01   7.8057981e-01   8.9768374e-01   4.0522306e-01   1.3541528e-01   4.3948284e-01   6.1366460e-02  -7.6199886e-01  -8.7220180e-01  -4.3942303e-01   2.6932749e-01  -4.2832182e-01   1.8006517e-01  -3.8568218e-01   8.1509407e-01   3.2275814e-02  -3.2934311e-01  -5.2377537e-01   6.8669367e-01   8.9509224e-01  -4.7518736e-01  -2.1278532e-01   2.8308322e-02   3.6195412e-01  -3.5381433e-02  -7.1618435e-01   4.8232699e-01   4.5236832e-01  -9.8578016e-01  -9.2915083e-01  -3.3644110e-02   6.9601774e-01   6.6713273e-01   3.7760232e-01  -9.7079995e-01  -4.2174657e-02  -3.9101466e-01  -3.5513992e-01  -9.3398446e-01   3.3886492e-01   3.4404562e-01   1.7197220e-02   3.1071891e-01   1.2870470e-01   1.5117182e-01  -9.9707011e-01  -4.5748384e-01   9.4600617e-01  -4.8631943e-01  -3.7423411e-01  -5.0180208e-01  -2.1762003e-03  -5.7510146e-01  -3.1495389e-01   1.1023700e-01   6.7050508e-01  -3.2575849e-01  -6.3896691e-01   3.4411310e-01   4.0921335e-01  -6.8694733e-01  -7.0617534e-01  -6.2881947e-01   6.4667173e-01  -9.8582022e-01  -5.6892625e-01   1.9236207e-01  -8.8523820e-01  -3.5785603e-01   3.1299321e-01   3.7171769e-01  -8.8347418e-01  -4.1894224e-01   7.2022583e-01   2.0143132e-01   9.2826088e-02  -3.6778794e-01   4.0073829e-01  -4.6867014e-02   7.5751396e-01
  -3.9829954e-01   9.3029489e-01  -6.7943997e-01   9.7328172e-01  -5.0791551e-01  -9.9668638e-01   7.9688932e-01   3.8275071e-01   5.4435660e-01   1.5000076e-01  -9.1324557e-01  -3.9084903e-01   5.2659507e-01  -6.3991248e-01   8.9662606e-01  -7.7292330e-01  -5.4676991e-01  -1.4404350e-01  -7.0239536e-01  -6.1490149e-01  -9.1729957e-01   4.8628164e-01   3.2479959e-01  -8.3363640e-01   5.8767144e-01  -5.6095335e-01   3.0127400e-01   3.4661941e-01   5.5064076e-01  -8.8117049e-01  -6.8140860e-01   3.9542524e-02   2.3955195e-01   4.2737653e-01   1.1719190e-01   7.2349773e-01   6.7466604e-01   4.1244553e-01  -1.7867806e-01  -9.2404861e-01   5.0258904e-01  -4.1634238e-01  -1.0590363e-01  -7.0766077e-01  -7.4834703e-01   6.9344180e-01  -3.6887704e-01  -1.0210522e-01  -8.1027931e-01  -3.3215751e-01   7.1084300e-01  -5.1714369e-01   2.5110078e-01   9.6094907e-01   2.2450995e-01  -6.7469457e-01  -7.5135419e-01   1.4447591e-01  -8.9278754e-02  -2.5548473e-01   9.3983512e-01   2.2414340e-01  -8.1950142e-01  -8.1835792e-01   2.9174537e-01  -8.9494684e-01  -2.1189146e-01   7.6713142e-02  -5.1104865e-01   4.9472282e-03  -2.6854773e-01  -7.2011740e-01   7.3761929e-01   9.9508565e-01   4.3144124e-02  -9.1814243e-01   5.5415011e-02   4.6643461e-01  -4.4749407e-01  -4.1468434e-02  -7.9565450e-01  -5.6194414e-01   4.1643145e-01  -4.8496395e-01   3.9409096e-01  -3.8178936e-01  -6.3169678e-01  -4.4777911e-01  -4.1495912e-01   4.4474706e-02  -5.2437270e-01  -3.3294919e-01   4.2192011e-01  -4.5895060e-01  -1.4137403e-01   3.1694219e-01   8.5418666e-01   6.8791883e-01  -3.7582786e-01  -9.8973964e-02  -7.1609889e-01   5.3108995e-01  -2.3627556e-01   2.8428508e-01   9.0319281e-01  -9.1061653e-01   1.4601230e-01   7.0232867e-01  -6.9181852e-01   3.7134413e-02   9.7926869e-01   4.8355876e-01  -3.8541760e-01  -1.8219216e-01  -7.0123180e-01   7.5388823e-01   3.7719924e-01   5.2254385e-01  -1.4926161e-01   8.4645109e-01  -4.5596124e-01  -2.7377019e-01   7.5038908e-01   6.3835485e-01  -9.8865893e-01  -5.1505654e-02  -4.4090801e-01   5.0756599e-01  -8.7787745e-01   8.5776130e-01   7.0893910e-01   1.3010610e-01  -9.0464341e-01   5.4911227e-01   8.5411462e-01  -2.6789290e-02  -1.5933633e-01   1.6066326e-01  -6.6230667e-01   8.8900275e-01  -3.6797351e-01   8.4667926e-01  -5.2776327e-01  -5.6397199e-01  -5.9663792e-01  -5.2781632e-01   6.5392729e-01  -1.7914269e-01  -4.4955552e-02  -4.9753840e-01   9.0856732e-01  -5.2363485e-01   7.7936721e-01   4.7326689e-01   7.8504296e-01  -6.0285457e-01  -8.3037304e-03  -2.8195050e-01  -1.2974833e-01   5.3458048e-02  -6.1404523e-01  -7.4755105e-01   4.5799040e-01  -5.8348363e-02  -4.5132891e-01  -6.3763022e-01  -9.2274286e-02  -9.3191733e-01   5.5858655e-01  -5.4203651e-01   2.1178807e-01   5.4534974e-02  -6.0338135e-01   3.1382482e-01  -6.8394700e-01   4.2673069e-01  -4.2688769e-01  -2.6220831e-01   1.7478338e-01   9.4462650e-01   5.3270956e-01  -3.1037012e-01  -9.1614273e-02   8.0734631e-01   8.3251625e-01  -1.5579939e-01  -8.9956107e-01  -9.2519972e-01   3.3368930e-02  -9.6761276e-01  -9.6060141e-02   9.8255021e-01   8.7839056e-01  -7.9858439e-01  -8.8781534e-01  -7.7248395e-03  -3.6365804e-01   5.4220184e-01  -7.4919498e-01   1.4860695e-01   6.6504984e-01   2.4017402e-01  -2.1970570e-01   2.3977719e-01  -8.7777559e-01   8.9531270e-01   8.0499439e-01  -8.9429181e-01  -5.2009727e-01   6.5401608e-01  -4.1550789e-01  -4.8715382e-01   6.4125441e-01   7.9916849e-01   9.0821314e-01  -4.8652068e-01  -5.0694580e-01   4.1174901e-01   4.5814043e-01   5.5157201e-01   6.4038160e-01   8.5000531e-02   8.3332352e-01  -6.1965217e-01  -6.3623086e-01  -6.8942624e-01  -7.7095771e-01  -2.6836465e-01   6.2994179e-01   1.3450767e-01   1.2249810e-01  -5.8616189e-01   9.8703832e-01   4.3509553e-01   2.3551237e-01   6.4121796e-01   2.0600098e-01   1.5274891e-01   2.3101546e-01   9.0172337e-01   1.9881087e-02   4.9325641e-01  -7.0755100e-01   9.9206261e-01   2.3168141e-01  -7.8036388e-02   7.5310233e-01   5.3243248e-01  -5.9773014e-01  -8.7166016e-01  -6.7176544e-01   3.4598410e-01  -9.9890777e-01  -1.5132301e-01  -1.3466863e-01   6.9194898e-01   9.0647865e-01   5.9268404e-01   7.6497418e-01  -1.9435995e-01   3.8633503e-01  -2.4505303e-01  -5.4232194e-01  -8.1585791e-01  -3.9640650e-01  -7.0604845e-01  -4.8592178e-01   7.6880741e-01   8.3261038e-01   2.5247360e-01  -1.1337187e-01  -7.8915006e-01   1.5213217e-01  -4.3622357e-01   4.5402067e-01   3.8361743e-01  -6.3246941e-01  -1.2838766e-01   7.6362194e-01  -8.5874340e-01  -9.8323006e-01   4.2758632e-01  -3.8511832e-01  -6.7945294e-01  -6.4570045e-01   1.3616136e-01   6.5276830e-01   3.5752556e-01   5.6213127e-01  -5.4577112e-01  -7.6113083e-01  -1.2205073e-01   3.7860496e-01   5.6541581e-01  -1.6430198e-01  -7.0039876e-01   6.8326193e-01  -8.3274755e-01  -2.7095151e-01   4.5222907e-01  -2.8375677e-01   1.3486203e-01   6.3868983e-01  -8.4470873e-01  -2.8980801e-01   1.9471663e-01  -4.1534084e-02  -7.5322900e-01  -8.3961502e-01  -3.1727064e-01  -3.4351675e-01   8.1129095e-01   9.6335913e-01   9.4014684e-01  -1.2010610e-01  -6.8085058e-01  -9.7919952e-01   2.6766558e-01  -5.1737481e-02  -1.7025416e-01  -4.5489745e-01  -6.7988833e-01   9.9982618e-01   6.8560053e-01   2.3701519e-01  -2.1616590e-01  -8.9941537e-01   2.8759557e-01  -3.3396406e-01  -8.2635329e-01   4.1072016e-01   5.0780353e-02   4.4699708e-03   2.9407246e-02  -4.2206170e-01   8.0049416e-01   1.1150944e-01  -2.6988039e-01   5.1850944e-02  -5.8263169e-02   8.6727647e-01  -8.7317825e-01  -9.4175367e-01  -2.5330929e-01  -7.8029361e-01   4.1946921e-02  -9.2634567e-02   1.2627127e-01  -9.4836486e-01   4.7078387e-01  -6.4018615e-01   3.4225419e-01  -5.7879345e-01   4.8426675e-01  -4.8768771e-01   5.1338560e-01  -8.9414345e-01  -2.5007846e-01   7.2966163e-01   1.2486895e-02  -6.4382126e-01   7.9041975e-01  -5.2198213e-01   8.2573948e-01   8.4309806e-01   6.0497484e-01   8.3891384e-01   1.2525084e-01  -4.2136934e-02   4.5465538e-01  -9.6650460e-01   3.5253491e-02   8.5460609e-02   6.6400608e-01   7.4987981e-01  -3.8703460e-01   7.3930729e-01  -7.3688810e-02   4.1235601e-02  -5.7285206e-01  -1.4826519e-01   4.8782969e-01   2.8073229e-01  -1.1961470e-01  -5.0687384e-01  -4.2172434e-01   5.2422195e-01  -1.1571080e-02   7.0529022e-01   3.4978821e-01  -9.3751803e-01  -4.6121567e-01   4.0271479e-01   4.0193329e-01  -2.1943709e-01  -5.1413980e-01   3.7603354e-01  -8.3221796e-01  -1.9312332e-01   2.5166501e-01  -9.9406416e-01  -6.4271420e-01   2.7500748e-01   6.1813864e-01  -5.4792780e-01   3.5396702e-01  -4.0904022e-01   6.6640637e-01  -9.8311290e-01   2.2197406e-01   3.0691179e-01   5.5981756e-01  -9.9480358e-01  -8.2812496e-01  -8.3601687e-01  -3.5219718e-01  -1.1757445e-01   7.9300236e-01  -2.7655789e-01   5.4364891e-01   3.3133263e-01  -3.3899556e-01   7.8717113e-01  -8.8135169e-01  -2.5515872e-01  -9.7184460e-01   8.8201723e-01   6.2526850e-01  -7.6567299e-01  -9.5377816e-01   8.2045751e-01   1.7550427e-01   8.0824750e-01  -5.3433933e-02  -7.1720959e-01  -3.8585375e-01  -8.4350317e-01  -5.4305371e-01   5.7289129e-02  -6.4651534e-01  -6.2386536e-01  -3.1103019e-01   3.3674457e-01  -6.2757617e-01  -7.7815799e-01  -1.9323293e-02  -2.3325337e-01  -8.2397394e-01  -8.8525437e-01   4.9626366e-01   1.8566162e-02   8.3615346e-01   2.5026655e-02   5.4566667e-01  -7.8578374e-02  -2.8679276e-01   7.7135829e-01  -5.5495445e-01   1.1556629e-01  -4.0340140e-01   1.7007328e-01  -7.7663625e-01   2.1896897e-01  -2.5961690e-01   8.2156233e-02   2.3418073e-01   4.1039572e-01  -8.0434396e-01  -2.6927858e-01   5.3426307e-01  -5.9618675e-01   9.3433600e-01  -3.1315693e-01  -1.4624033e-01  -7.3311787e-01   8.5125464e-01   8.1767025e-01  -3.4734214e-01   8.5699080e-01  -6.3983893e-01   8.8357376e-01  -1.4394442e-01  -5.2784203e-01   6.0254688e-01  -2.5089216e-01  -1.4214752e-01   8.4649057e-01  -2.6618202e-01  -2.1246716e-01   6.6811466e-01   4.5669035e-01   5.2945924e-01  -6.6665557e-01   6.4464371e-01   6.4088247e-01   6.9843758e-01  -2.6694423e-01  -4.2670824e-01   1.5089801e-01   5.6835659e-01  -4.7431881e-01   9.9884811e-02   2.4831364e-01   6.7248825e-01   6.1931016e-01   6.8051684e-01  -6.4734351e-01  -2.8969624e-02   9.3286020e-02   3.8793359e-01   1.9126696e-02   4.4936350e-01   8.9736190e-01   3.0751225e-01  -9.0639948e-01  -1.3213138e-01   2.0709131e-01   8.1252701e-01   5.2891682e-02  -9.9287281e-01   9.3819220e-01   6.1389419e-01   6.4301829e-01   1.8507938e-01   3.8858969e-02  -6.5203881e-01   8.0817141e-02  -4.9861565e-01  -7.5620976e-01  -1.1514378e-01  -9.2390770e-01   6.7289016e-01   7.7958940e-01  -3.5220358e-01  -8.4849205e-01   6.7659005e-01  -2.5611081e-01  -5.7976319e-01  -2.6602442e-01   4.9841914e-01  -7.3211630e-01  -2.6699962e-01  -5.2168165e-01   1.6264011e-01   4.8719561e-01   5.5360596e-01  -2.2454524e-01   4.3219780e-01  -1.9463820e-01  -9.2562550e-01   4.8811177e-01  -5.3906714e-01   2.3194297e-01  -1.3840656e-02   9.2430141e-01  -5.6445560e-01   4.8183973e-01   1.3660971e-01  -8.4353223e-01   6.1347865e-01   3.3861505e-01  -9.0763239e-01   2.0230417e-01  -9.4640980e-01  -9.5219874e-01  -9.7085650e-01   3.2035021e-03  -4.6089815e-01   7.9389549e-01   9.6843844e-01   6.7108041e-01   3.0900649e-01  -1.5876183e-02   2.4992562e-01  -9.4411778e-01   2.4475032e-01   7.6618484e-01  -1.8067849e-01   4.2404737e-01  -3.1957936e-01   4.9181923e-01   3.3024048e-01  -9.8588799e-01   6.3602670e-01   9.9977870e-02   1.5621521e-01   4.9432364e-01  -4.0457643e-01  -6.4547433e-01   5.2053422e-01  -9.0316994e-01  -3.2449257e-02   5.4047130e-01  -7.5072023e-01  -5.7165544e-01  -2.4098141e-01   6.8975982e-01   4.3675877e-01   9.0911790e-01  -1.3559455e-01   9.0098687e-02  -5.0694763e-02   3.3920319e-01  -6.6496461e-01  -9.8032342e-01   7.6711470e-01   9.2515615e-01   6.5810524e-01  -1.5538394e-02   8.5014108e-01   1.5727388e-01  -6.6167494e-01  -8.6633207e-01   3.1524235e-01   8.5297550e-02  -8.7191191e-01  -6.0135375e-02   9.2440994e-01   4.7522999e-02   1.5241277e-01  -3.5195776e-01   5.5584609e-01  -7.8352648e-01  -2.6561119e-01   7.9090693e-01   2.0222847e-01   3.1836680e-02   1.4821472e-01   4.9908851e-01   7.3729045e-01   9.1159004e-01  -1.1578312e-01   8.8257163e-01  -8.3949132e-02  -6.0823608e-02  -7.2198162e-01   6.5053183e-01   9.0434737e-01  -5.2439024e-01  -6.1328111e-01   9.5804515e-01   4.7204190e-01   7.0069105e-01  -8.7230246e-01  -8.9524033e-01   9.4018275e-01   1.6871754e-01   8.5880343e-01   1.6303067e-01   1.9545152e-01  -7.0689721e-01  -4.1893014e-02  -5.5003979e-01   8.9999929e-01   2.6076137e-01   4.4698872e-01  -1.6007586e-01  -4.3020837e-01  -9.2986891e-01   5.4752179e-01  -3.8469409e-01   8.2122371e-01   5.2955492e-01   7.4025498e-01  -3.1530393e-01   1.8375621e-01  -3.1658722e-01  -1.8224593e-01  -6.7443581e-01  -8.5600627e-01  -4.6882346e-01   6.8208897e-01  -8.4135440e-01  -4.4746994e-01  -6.6494761e-01  -6.3241782e-02  -2.9533947e-01   4.1639130e-01  -6.3304857e-01   8.4083801e-01  -8.7623470e-01  -1.8307710e-01  -9.1153812e-01  -3.8583175e-01  -6.4053559e-01  -6.1180265e-01  -9.4207158e-01   3.4380707e-01  -8.9135789e-01   8.6824436e-01   7.8852999e-01  -9.0180150e-01  -4.0590641e-01   3.5423791e-01  -6.1931242e-01   2.4490869e-01   2.9586668e-01  -7.1425523e-01  -3.6463772e-01   8.1578608e-01  -8.4388792e-01   1.8547352e-01  -9.2106454e-01  -3.8135719e-02   8.6706091e-01  -6.5676079e-01  -6.0947734e-02  -9.7640098e-01   6.3273372e-01   4.8510147e-03  -2.0988497e-01  -4.1001801e-01  -8.2050444e-01  -9.5725058e-01  -8.7614265e-01  -2.8083162e-01  -3.5688436e-01  -1.3390882e-01   1.8806095e-01  -3.1494996e-01  -9.7583944e-01   4.4088944e-01   3.2646762e-01  -9.8590086e-01   6.6432496e-01  -6.2676987e-01  -4.4427597e-01   9.8786977e-01   9.4350766e-01  -2.2500407e-01   1.5557003e-01   5.3622360e-01  -8.3307392e-01   4.7365243e-01   3.0844862e-01   5.6720920e-01   8.1855393e-01   1.3476187e-01   7.3561804e-01  -6.6112608e-01  -8.2140416e-01   7.1273625e-01  -4.2836977e-02  -4.9610992e-01  -5.9420739e-01  -3.3552230e-01  -7.2142362e-01   4.1190559e-02   8.4878630e-01  -1.4966117e-01   7.0075910e-01  -4.3837987e-02  -3.5820896e-01   1.1032285e-01   3.8342402e-01   2.9555734e-01   9.6221651e-01   4.9431783e-02   8.4019034e-01  -1.0682773e-01  -4.6242751e-01  -6.5760695e-01  -1.5217978e-01  -1.2184625e-01  -7.0050538e-01   9.2704553e-01   5.9597052e-01   1.9667493e-01   1.5064246e-03   1.1214634e-02   9.1699729e-01   4.0576995e-01  -4.8115060e-01   9.0193170e-01  -1.5444236e-01  -5.2116127e-01  -4.4508725e-01   6.5372177e-01   3.7264550e-01   2.4750740e-01   7.4468619e-01   7.7826236e-01   5.4097456e-01  -2.5835175e-01  -2.5955992e-02  -9.6235725e-01  -3.1048623e-01   4.3698743e-01  -5.5972826e-01   3.1610551e-01  -1.8080931e-01   6.6621971e-01  -9.0420671e-01   6.5882690e-01   8.6515711e-01   1.5673915e-02   6.6485140e-01   3.4204243e-01   9.4889907e-02   2.6915838e-01  -8.1426673e-01  -6.9012758e-01   8.3371437e-01  -4.0838248e-01  -1.9422941e-02  -5.5097008e-01   7.1463992e-01  -5.2368928e-01  -7.0566709e-01   4.8214229e-03   7.3850435e-01   7.5165801e-01   6.6731577e-01   8.0604141e-01   8.2693245e-01  -4.7909969e-01  -5.1233826e-01   9.6295091e-01  -3.7819507e-02  -7.2990840e-01  -1.1305775e-01   4.2188536e-01  -1.8614349e-01   2.4454700e-01   6.0395255e-01  -5.5836951e-01  -5.7975687e-01  -5.7527216e-01   6.5870753e-01  -4.2188617e-01   1.7890723e-01   1.6046122e-02   4.9849488e-01  -1.9094927e-01  -6.9742381e-01   2.0567635e-01   2.6175508e-01   4.0881969e-01  -2.3261999e-01  -3.8450354e-01  -5.9663012e-01   1.3494474e-01  -2.8620996e-01  -7.2487034e-01  -2.6711115e-01   7.5492792e-01  -3.0445774e-01   1.4114946e-01  -3.6206689e-02  -4.6659060e-01  -8.5217699e-01  -8.2095021e-01   4.9232607e-02   9.3540868e-01   2.1874724e-01  -8.7634379e-01   8.6427016e-01   4.9321541e-01   5.2947522e-01  -1.6167573e-01  -3.3647608e-01   5.8337925e-01   4.6115067e-01   6.5712862e-01   2.8630943e-02   1.4403515e-01  -1.0681982e-01  -1.2821183e-01   3.0435637e-01  -1.8850907e-01  -5.0524425e-01  -7.4258515e-01   5.3506611e-01  -3.2326628e-01   7.1776983e-02   4.0685417e-01  -3.5658218e-01   7.1727326e-01   4.9034487e-01  -1.4788983e-01  -9.2431581e-01  -6.2029033e-01   8.2622464e-02   2.7079740e-03   2.8586167e-01   8.9156339e-01   6.3276352e-01  -6.2323928e-01  -7.7037307e-01  -9.9750578e-01  -4.7782024e-01  -1.1801883e-01   4.8752980e-01   8.1014109e-01   7.9707103e-01   9.0126212e-01   2.4998055e-01   4.2249876e-01  -6.5822646e-01   9.8154781e-01  -3.2829153e-01  -4.5554082e-01  -2.8915420e-01  -6.8631807e-01  -2.1314827e-01   9.6914914e-01   9.0029759e-01   3.5186065e-01   7.6932432e-01   2.2771257e-01   4.1655063e-01  -6.9776367e-01   8.7786098e-01  -4.3156048e-01   7.6283459e-01  -9.5668729e-01   4.9571872e-01   5.6718056e-01   5.8195409e-01  -1.5102214e-01   6.0123988e-01   3.1355095e-01  -5.9551390e-01  -4.9429037e-01   9.7265839e-01   6.0268621e-01   8.7101920e-01  -2.4401286e-01   7.7539915e-01  -6.4003233e-01  -7.7811803e-01  -7.7853635e-01  -8.4565373e-01  -9.9449933e-01   1.1778518e-01  -2.8536525e-01   3.5755177e-01   1.8810635e-01  -6.7896253e-01   8.3347936e-02  -2.4519572e-01   9.3390833e-01  -3.7872649e-01  -8.6627285e-01  -5.3769430e-01  -1.1766258e-02  -6.5606758e-01  -3.8172244e-01  -1.6998755e-01   4.0830276e-01   5.8456032e-01  -1.8965063e-01   7.3594706e-01   2.0834799e-01  -3.1563232e-01   4.0835966e-01  -5.7699343e-02   4.2254527e-01   5.6137288e-01   2.6419105e-01   5.6616721e-01   2.7773905e-01  -7.2566857e-01   4.2865527e-01   3.5787674e-01  -3.8475681e-01  -1.2101928e-01   4.1405407e-01  -6.1015689e-02   8.6452888e-01  -9.3783300e-01  -1.4320880e-01  -8.1021155e-01   2.4864405e-01   5.2130908e-01   1.9629177e-01   9.4322454e-01   2.8938701e-01  -8.7475485e-01  -5.8991374e-01  -3.9236928e-02  -6.6058861e-01  -3.0760984e-01   6.9487081e-01   7.8961454e-02   2.1953905e-01  -8.5522852e-01  -1.1754669e-01   9.1069024e-01  -3.1944278e-01  -8.1412747e-01  -1.7800533e-01  -3.8613990e-01  -1.1142091e-01  -2.7182833e-01   5.4500621e-01   6.7813596e-01   4.7028053e-01   6.5673343e-01   5.4451070e-01
   3.2361733e-02  -7.4403682e-01   4.1949072e-01  -3.9614475e-01  -5.9780643e-01  -9.5977588e-01  -4.8214879e-02  -5.4048769e-01   1.8709190e-01  -3.6127892e-01   5.3112856e-02  -4.1608360e-01   7.0534557e-01  -8.7776881e-01  -7.6177419e-01  -1.8894231e-01  -2.8661160e-01  -2.7361588e-02  -1.4027894e-01  -3.5164612e-01   8.5170417e-01   3.2715118e-01  -5.3114705e-01   6.5398665e-01   7.1714863e-01   8.2640509e-01  -1.8111672e-02   2.2858615e-01   8.5259528e-02   3.1538775e-01  -4.6922679e-01   1.6210958e-01  -4.1780209e-01  -3.9337521e-01  -4.9627774e-01  -9.7514818e-01   5.4246037e-01   1.3910519e-01   6.4764557e-01  -4.3110142e-01   2.1313907e-01   2.3309496e-01  -3.4147133e-01   9.6532094e-01  -8.4636536e-01   4.4738034e-01  -6.2947549e-01   2.0825138e-01  -9.6871613e-01   2.7018875e-01   9.8172865e-01  -6.4321740e-01  -2.0989303e-01   3.8302358e-02   2.1851733e-01  -5.1347489e-01  -2.5061701e-01  -1.6870168e-01  -5.3378857e-01   2.2131787e-01  -3.3081317e-01  -6.3247361e-01  -6.1078231e-01   6.0882466e-01   3.0951851e-01  -1.2455488e-01  -5.7665731e-01   2.3809698e-01  -8.9329211e-01  -1.1206490e-01  -8.1262147e-01   8.7031909e-01  -6.3638242e-01   2.0477607e-01  -7.7840044e-01  -3.5851775e-02   9.3618154e-02  -1.6111163e-01  -7.8112979e-01   1.4616421e-01   6.0930539e-01   1.3847052e-01   9.7335845e-01  -1.4270345e-01   4.2074017e-01  -4.6064895e-01  -5.5592961e-01   5.1478221e-01   8.1200705e-01  -5.6123105e-01   7.1067921e-01   9.5897593e-01  -8.6210780e-02  -3.5134672e-01   1.0529749e-01  -9.3502703e-01   3.0257524e-01  -9.1404224e-01   3.9922444e-01  -6.6447355e-01   2.9785356e-02   3.6413559e-01  -6.8665420e-02   4.3621548e-01   6.5292803e-01  -5.9833234e-01  -3.6499772e-01  -6.4197613e-01   1.9288007e-01   5.1757877e-01  -2.2887950e-01   6.7754606e-01  -9.9705428e-01   5.7194876e-01   6.4460210e-01  -5.3508550e-01  -9.7481088e-01   1.3220264e-01  -2.4271244e-01   8.6536219e-02  -5.2882503e-01   5.4641119e-01  -3.8329333e-01  -4.1826023e-01  -1.9138424e-01   4.3530847e-01   8.7457816e-01  -9.1576979e-01  -3.1721533e-01  -1.3970142e-01  -4.2347569e-01   4.0355529e-01   5.0297378e-01   3.9364931e-02  -4.1276341e-01   9.5192171e-01  -5.5399364e-01   7.4626072e-03   9.5017674e-01  -5.8638847e-02   4.2628752e-01  -1.1306325e-01   4.5571615e-01   7.9648161e-01  -3.2288976e-01   8.0406493e-01   4.4086505e-01   5.5884350e-01   3.3120057e-01  -2.9541333e-01   2.0629922e-01  -8.8895462e-01  -3.7272349e-01   1.8448630e-01  -8.7230912e-01   2.6311943e-02   5.0137851e-01  -1.9587825e-01  -2.4503348e-01  -4.6719847e-01   2.4380884e-02   9.7811178e-01   9.8499731e-01  -7.9162357e-01  -9.2912489e-01   9.2952465e-01   9.6750199e-01  -4.2574936e-01   3.8963779e-01  -5.6961805e-01  -8.4969543e-01  -7.4942593e-01  -4.4177975e-01  -1.2242336e-01   7.7120240e-01  -8.7674441e-01  -2.9913325e-01  -7.5684636e-01  -9.0046103e-01   4.3520004e-01  -8.1753982e-02  -2.9573135e-01   3.7032911e-01   7.5181128e-02  -2.0561683e-01   3.7341253e-01  -2.2418027e-01   9.0688714e-01   5.3526878e-01  -6.8520946e-01   1.9915520e-01   3.5959986e-01   8.6092872e-01  -2.3839880e-01  -6.3823894e-01   8.2954445e-01   6.7974370e-02   1.6784386e-01  -6.4727052e-02   6.1855764e-01   2.3755080e-01   4.2571401e-01  -3.3712299e-01   5.8987571e-02  -9.8283189e-01   7.9867956e-01  -9.7379281e-01  -1.1100859e-01  -7.2005530e-01   1.2031276e-01   8.9549527e-01   8.4205704e-03   2.2766217e-01   4.4748724e-01   4.0901079e-01  -6.4618741e-01  -3.7257499e-01  -9.4713886e-01   9.4240471e-01   4.1331038e-01  -8.2372445e-01   8.4818007e-02   9.5340322e-01   1.2822632e-01   9.9576356e-01   9.7151825e-01  -1.4268284e-01   6.5594770e-01  -9.1565473e-01   1.6476024e-01  -5.0450283e-01   1.6701858e-01   5.2694827e-01  -3.4708442e-01   4.1442962e-01   6.4973076e-01  -1.8920999e-01  -2.4227095e-01   5.6764243e-01   1.2681469e-01   6.6081451e-01   4.3201208e-01   5.8365304e-01   3.5865570e-01  -1.9334124e-01   8.2569935e-02  -8.4450263e-01   8.2196825e-01  -8.0997105e-01   3.3253538e-01  -5.3273552e-01   7.0019318e-01   5.3959435e-01  -1.8916512e-01  -6.0087120e-01  -8.3408779e-01  -2.8844787e-01   8.5403898e-01   6.4014949e-01  -1.4306539e-01  -5.2151579e-01   6.5447157e-01  -7.9620002e-01   7.4999873e-01  -1.3344343e-01  -2.6322473e-01  -4.3895284e-01   4.8225642e-01  -9.0850978e-01   2.1224598e-01  -4.6382614e-02  -6.6372391e-01   6.6971281e-01   2.4219716e-01  -2.0175709e-01   3.3417592e-02  -8.4803038e-01  -2.1650613e-02  -1.5420393e-01  -2.8012266e-02   8.5382466e-01  -9.2034244e-01   6.7001039e-01  -3.0046548e-02   7.2121843e-01   9.5633746e-02   9.1975795e-01  -9.3328753e-01   5.3317137e-01   8.7685552e-01  -3.8879767e-02   6.9586704e-02  -4.1798358e-01  -3.5888232e-01  -5.3656558e-03  -7.3875533e-01  -1.5965686e-01  -4.2079607e-01  -2.8643810e-01   7.9551825e-01  -4.5273289e-01  -9.7103975e-01   6.6714013e-01  -7.5288089e-01  -5.5426988e-01   8.9724263e-01   2.0856317e-01  -4.5643862e-01  -1.6589125e-01   7.0700996e-01  -3.9519396e-02   7.3915195e-01  -1.2311747e-01  -5.4920833e-01  -8.3421744e-01   3.7270834e-01  -5.2801269e-01   5.6031533e-01  -8.4955584e-02  -7.1458752e-01  -6.6878539e-01  -2.7313127e-01  -3.0877434e-01   5.2386502e-01   8.9247090e-01   2.4327739e-01  -5.1696975e-01   4.6431909e-01  -3.9797761e-01   8.4611335e-01  -1.8533275e-01   4.2020809e-01   7.5045924e-01   7.7669431e-01   3.1885609e-01  -3.7473952e-01  -9.6042695e-01   3.5841733e-01  -5.5872772e-01  -1.1910442e-01   3.1904102e-01  -6.4477546e-01  -4.4339073e-01   1.2702100e-01  -6.5100949e-01   3.9445521e-02  -4.8365335e-01   1.2370831e-02  -3.0171903e-01  -4.6301732e-01  -3.1138762e-01  -7.1523357e-01  -9.6918737e-02  -4.2188905e-01   2.0417147e-01   5.5038081e-01  -8.3885118e-01   9.2134043e-01  -6.3780139e-01   7.5005882e-01  -9.3334751e-02  -7.3329169e-01  -1.5763000e-01  -2.6747586e-01  -4.0799742e-01   5.5464130e-02   1.9654998e-01  -3.3447598e-02   6.4629862e-01   2.6931683e-01   8.5638561e-02  -2.6576930e-01  -3.1697992e-01   6.8835088e-01  -8.1129715e-01   6.0552183e-01   7.9438308e-01  -7.7750300e-01  -1.5464185e-01  -2.9154977e-01   7.5858860e-01   8.3831915e-01  -3.6636379e-01   3.0311249e-01  -2.3709552e-01   6.9915652e-01  -8.0451280e-01   3.4732661e-01   7.7199681e-01   5.5521156e-01  -2.9240733e-01  -1.2176359e-01  -5.1557994e-01  -6.9157879e-01   8.7251504e-01   3.0821353e-01   3.5239718e-01  -3.1627692e-01   8.9700673e-01   8.0360955e-01   1.9801260e-01  -6.3862544e-01   2.2189054e-01  -4.3665163e-01  -2.0542439e-01   8.0104974e-01   6.6491192e-01   4.6488684e-01  -8.4298305e-01   5.3083910e-01  -8.9643117e-01  -9.2340965e-01  -3.6986031e-01  -5.0228251e-01  -5.1253120e-01  -9.2869509e-01  -9.6138302e-01   8.3766398e-01  -6.0612762e-01  -3.5172348e-01  -2.1940120e-01   8.4181699e-01   2.6765860e-01   5.3295199e-01  -1.2286184e-01   1.7946384e-01   8.5212333e-01  -4.3957690e-01  -2.6328474e-01  -9.7986136e-01  -5.4378952e-01   4.8959646e-01  -7.5993353e-02   1.8357590e-01   4.1497643e-01  -4.5628464e-01  -9.8321963e-01  -8.6842645e-01   4.1877501e-01   9.8353702e-01  -4.2484336e-01  -5.5804353e-01   1.2894609e-01   8.4437273e-01  -8.9777453e-01  -6.3909915e-01   7.4617372e-01  -4.9194548e-01  -9.7826675e-01  -6.5619399e-01  -3.9708602e-01   6.0721749e-01   4.7905602e-01   7.9222924e-02  -4.7112859e-01  -5.1825939e-01   4.7585427e-02  -5.7055560e-01   6.1666446e-01  -4.4028247e-02   7.3129693e-01  -8.4710961e-01   2.1565131e-01   7.0998216e-03   9.9602417e-01   7.1669770e-01  -6.9295916e-02   2.7050613e-01   5.9291072e-01   7.4302432e-01   5.3340800e-01   1.0841540e-01  -5.5091438e-02  -1.0227025e-01   9.3614624e-01  -9.5999443e-01   7.5833435e-01   2.0494705e-01   5.0638713e-01   9.8199502e-01   5.4544136e-01   2.0049744e-01  -4.3226538e-01   6.5442726e-01  -9.7167141e-01   8.1211936e-01  -4.1295451e-01  -9.1720037e-01  -8.7198763e-01  -1.0031263e-01  -6.4008603e-01   9.5464959e-01  -9.8531600e-01   8.8436954e-02   1.5502880e-02  -9.7327251e-01  -3.8781233e-01   2.7769410e-01   2.9353638e-01   1.8215945e-01  -5.9299457e-01   5.2714882e-02   9.7028723e-01   6.6849791e-01   7.1874300e-01  -4.8723017e-01   2.5188377e-01  -2.8847060e-01  -1.2033821e-01  -5.5862093e-01   3.5955710e-01   1.4214127e-01  -2.7725007e-02  -7.0382697e-01   3.0274353e-01  -5.8205787e-01  -3.3426079e-01  -8.0931625e-01   2.0641021e-01   9.9137705e-01  -6.0349633e-01  -6.1912721e-01  -2.4264027e-01  -5.4721545e-01  -4.9716791e-01  -7.5682651e-01  -3.6221855e-01   9.4132736e-01  -6.2941385e-01   1.8372624e-01   6.7336693e-01  -1.7997249e-01  -1.5349594e-01   4.4410783e-01  -7.0204122e-01  -5.8443053e-01   2.6775116e-01   1.7420199e-01  -7.3707803e-01   4.9290552e-03  -8.4439135e-01   4.9607367e-01   8.6641793e-01  -9.3522320e-01   9.0672073e-01   2.5576483e-01   2.1972108e-01  -7.5482647e-01   2.1683956e-01  -9.8525389e-01   9.0617781e-01   8.5975874e-01   7.0561751e-01  -5.3624745e-01   5.7094252e-01   8.7189223e-02  -4.2561910e-01   9.6079331e-01   8.1940185e-01   7.1747613e-01  -2.5715666e-02  -3.5105726e-01   5.5402551e-01   2.3863292e-01   7.6077604e-01   5.0451237e-01  -7.6458067e-01   9.8341307e-01   9.1146659e-01  -8.6550745e-01  -7.2059761e-01  -7.2744658e-01  -2.2598562e-02   2.5714240e-01   1.9022530e-01  -9.6818115e-02  -6.8049754e-01  -2.3217603e-01  -4.7752073e-01  -5.9429415e-01   3.2579330e-01  -6.7150262e-01   9.5685451e-01   8.0948146e-01   8.9076511e-01  -4.2389793e-01  -9.9304476e-01  -8.2073838e-02  -5.8180871e-01  -8.8375404e-01   4.0007635e-01  -3.3778834e-01  -3.0956646e-01   8.8130674e-01   8.8607868e-01  -9.3353576e-01  -8.6671051e-02   1.8237602e-01   7.9286724e-01   3.6778757e-01   7.5429050e-01  -8.2325243e-02  -5.0928548e-01   4.1135606e-01   3.2328972e-02  -4.2276593e-02   3.7606907e-02  -7.6334504e-01   7.7740743e-01   5.2886172e-01   8.6266157e-01  -9.6683505e-02  -4.2903108e-01   9.2852570e-01   5.5918509e-01  -4.7599429e-01   9.5568571e-02  -6.3223505e-01   8.5723573e-01   7.4183242e-02  -7.0820020e-01  -8.3893323e-01   4.6619159e-02   1.4441534e-01  -3.5684424e-01   7.4468652e-01  -5.8566677e-01   4.4026001e-01   2.5747037e-01   1.1610449e-01  -5.0359635e-01  -9.3163441e-01  -2.9301356e-01  -3.7367162e-01  -7.5454863e-01   6.7687505e-01  -4.3705096e-01  -8.5769539e-01   1.7451675e-01   6.7490880e-01  -2.2216479e-01   4.5722511e-01  -4.5696509e-01  -1.8136892e-01  -2.6387475e-01   4.7122075e-01   7.9031476e-01  -6.4316606e-01   3.1513641e-01  -7.3631011e-01  -6.4303816e-01   6.5649967e-01   8.1731721e-01  -7.6226042e-01  -8.8256514e-01   5.5098335e-01   1.2788981e-01  -7.3129475e-01   1.0536938e-01  -1.8738192e-01   2.2299015e-01   4.0777322e-01  -8.1144815e-01  -1.3298506e-01   4.5309388e-01   6.7214482e-01   2.6686210e-01   4.8787403e-01   8.1488427e-01   8.9389759e-01   1.8173101e-01  -8.8189682e-01   3.7933858e-01   5.3856552e-01   1.0987249e-01   5.2410403e-01  -1.3472688e-01  -3.2368168e-01   4.2978004e-01  -9.7380446e-01  -1.8390051e-01   1.8445770e-01   5.0290585e-02  -9.6574070e-01   6.7275881e-01  -1.1212046e-01  -7.9845874e-01   7.2834934e-02  -6.9224901e-01  -7.0641505e-01  -2.1798799e-01  -5.6658045e-01   8.7101946e-01   1.4945565e-01  -7.8210255e-02  -5.1415288e-01  -8.0731090e-01  -8.2740097e-01  -3.5411357e-01   7.0227366e-01  -7.8983967e-01   8.5198653e-01   7.6313436e-01  -9.7493887e-01   5.1283212e-01  -5.6640702e-01  -9.6543518e-02   8.1582992e-02  -8.7681704e-01   6.0794921e-01  -7.6219001e-01  -6.8034908e-01   7.8412799e-01  -3.0130440e-02   8.7866273e-02  -7.8646361e-01  -4.2725489e-01  -2.8368623e-01   5.2262169e-01   9.3220903e-01   5.6031975e-01  -7.0304016e-02  -2.1095887e-01   8.9655536e-01  -8.5823780e-01  -2.7824903e-01   8.6301712e-01   1.2563422e-01   8.0713573e-01   8.8079793e-01  -7.5751084e-01   1.7273619e-01  -1.0494177e-01   4.5019701e-01   2.9407520e-01  -8.5645784e-01  -6.0159377e-01  -5.1319167e-01   6.2569303e-01   3.1600918e-01   3.9565542e-01   5.5554019e-01   7.2187016e-01  -4.0315089e-01  -7.0347373e-01   3.1013598e-01  -2.2490666e-01  -8.3667921e-01  -5.4997341e-01  -2.0695076e-01   3.7252995e-01   2.8808680e-01  -8.5569715e-01   4.4211559e-01  -1.6414753e-01  -4.1882277e-01  -9.6074419e-01  -3.7269745e-01   4.5190430e-01  -9.6435406e-01  -3.6061057e-02  -9.1576490e-01   4.1509772e-02  -9.7525052e-01   4.0309721e-01   3.7400839e-01  -7.4431551e-02  -7.8478046e-01  -3.4560356e-01   9.8443908e-01   2.7433879e-01   8.5956913e-01   8.5296035e-01  -4.2324989e-01   7.4108050e-01   3.9532860e-01  -9.2221544e-01   5.5881264e-01   8.1647323e-01  -9.6041670e-01  -6.9386543e-02  -5.8639788e-01  -9.5308744e-01   5.7813064e-01   7.5567096e-01  -1.6351432e-01  -7.0262488e-01   2.7957259e-02  -5.2263962e-01   4.8873982e-02   4.8625371e-02   2.5003589e-01  -8.5300880e-01   3.4069615e-01   3.4680388e-01   5.0478162e-01   2.5634553e-01   9.5673382e-01  -5.4221292e-01   2.5315405e-01   4.5235548e-01  -2.9527480e-01  -4.6229826e-01  -5.0116627e-01   4.5962086e-01   6.9545895e-01  -2.0568419e-02  -8.8962606e-01  -7.4700181e-02   8.8542829e-01  -4.4714913e-01   3.8763879e-01   3.2539948e-01   1.5045141e-02  -6.4832689e-01  -4.4398992e-01  -5.9435925e-01   2.9568428e-01  -2.0156648e-01  -9.6216427e-01  -2.8465197e-01  -4.1496784e-02  -9.4516536e-01  -4.3111820e-01   2.1592458e-01  -2.2840643e-01  -1.5956612e-01  -6.8506070e-01  -5.8728241e-01   5.2524733e-01   2.7570225e-01  -5.9033612e-01  -5.5110807e-01   6.1664661e-02   2.1824001e-01  -9.3525460e-01   8.6236640e-02  -1.5016947e-01  -3.4172260e-01   7.3548043e-01   7.7128173e-01  -1.9777417e-01  -2.3969172e-02   7.4393474e-01  -1.9980907e-01   8.8673186e-01  -3.0503015e-01   5.6660764e-01   3.6778435e-01  -6.7966609e-01   1.7792500e-01   3.8293090e-02   6.4810700e-01   8.9892374e-01   6.0757129e-01   8.4163547e-01   1.3148943e-01   4.7347836e-01   5.0670835e-01   2.9923982e-01  -5.9934199e-01   9.2418799e-01  -6.3916806e-01  -6.0691108e-01  -6.5214177e-01   7.6751361e-01   2.0831531e-01   5.6416081e-01   2.1152519e-01   2.9953995e-01   2.7597625e-01  -7.5145325e-02   5.4841221e-01   5.0736423e-01   2.8195700e-01  -3.1319640e-01   3.1046062e-01   8.5031305e-01  -4.3866469e-01  -7.6196582e-01   4.9299142e-01  -1.3166698e-01  -6.8238843e-01  -5.0404319e-01  -3.7899531e-01  -6.7494920e-01   9.1835772e-01   4.5171004e-01  -7.3931944e-01  -3.8644612e-01   7.5326670e-01   9.8801409e-01  -4.1821548e-01  -5.6634109e-01   3.5519160e-01   1.7936803e-01   1.1045816e-01  -6.8389278e-01  -9.4040391e-01   9.4753303e-01   4.9196477e-01   8.9627952e-02  -9.3910016e-01  -2.7396293e-01  -9.4512880e-01   4.6519004e-01   4.7218809e-01   5.4432986e-01  -1.0089932e-02   8.2549410e-01  -1.2103636e-01   6.6540624e-01   8.4974655e-01  -1.2889015e-01  -1.3359446e-01   6.6760622e-01   9.3077800e-01  -5.9146503e-01   5.7756662e-01  -8.5668121e-01  -4.8064389e-02  -7.7769678e-01   1.6463915e-01   8.8152795e-01  -8.9630637e-01  -1.1905933e-02  -8.6347273e-01  -1.8270887e-01  -1.6767351e-01  -7.9729704e-01   9.8290732e-01   2.8223196e-01  -5.1630160e-02   9.1481647e-01   3.3878883e-01   3.7743579e-01   3.3812562e-01  -8.9171801e-01  -2.9097789e-01   6.6554593e-01  -4.9619133e-01   8.4902798e-01  -7.2819244e-01  -9.4222096e-02   6.6781392e-01   8.5575366e-01   7.5168468e-02   1.9893934e-01   8.1067655e-01  -3.3130821e-01   1.3261944e-01  -2.8709181e-01   1.2958992e-01  -2.1913684e-02  -1.6081157e-01  -4.2328926e-02  -9.6361520e-01  -7.6079255e-01   3.9415286e-01  -7.5346507e-01   9.5855548e-01   9.7757499e-01  -4.8045839e-01   2.5670133e-01  -8.8528263e-01   6.3058933e-01   8.5139004e-01  -1.6257352e-01  -3.8119918e-01  -3.4058232e-02   2.8198483e-02  -1.1661740e-01   1.1226834e-01   9.4057886e-01   5.0588275e-01   8.4339325e-01  -7.9874085e-01   6.6899613e-01   2.6813348e-01   8.8697996e-01   6.6737898e-01  -2.5635459e-01   3.6142219e-01  -2.2087301e-01  -7.2559063e-01  -7.2714733e-01   9.7426435e-01   7.3081127e-01  -5.4827954e-01   5.4935077e-01  -3.3873973e-01   8.8567191e-01   2.7674348e-01   3.4885286e-01  -3.5621499e-01  -7.4223540e-01  -6.7829450e-01   2.0879334e-01  -3.5340833e-01  -3.3919884e-01
