   3.1142633e-01   8.2162615e-01   6.4823666e-01   2.3521432e-01  -6.0263636e-01  -7.3678977e-01  -4.5921042e-01   3.8978609e-01   3.2452588e-01  -7.2669421e-02   4.1385056e-01   8.1135741e-01   4.2433940e-01   7.7641864e-01  -2.2871026e-01   8.3673399e-01  -2.0384149e-01   3.5073952e-01   4.2578698e-02   1.8136501e-02   9.3211888e-01  -6.6535174e-01   1.6849897e-01  -5.8488048e-01   1.8491175e-01  -9.4561769e-01   5.6127867e-01  -6.7233475e-01  -7.6235283e-01   1.5960494e-01  -3.6351365e-01  -4.7838637e-02  -7.4600227e-01  -8.8942413e-01   1.7946567e-01  -3.1626294e-01   1.8461350e-01   4.2121523e-01   6.3399223e-01  -7.0580032e-01  -9.3330251e-01  -9.3726193e-01   2.0872190e-01  -4.6439043e-02  -5.2975241e-02  -9.9687528e-01  -1.2389366e-01  -1.2243982e-01   4.4686893e-01  -4.2264015e-01   6.7269342e-01   5.5058115e-01  -7.7880903e-01   2.3193447e-01   5.2537421e-02  -3.0537014e-01   7.0133087e-01  -7.5913465e-01  -7.6827991e-01   6.7442979e-01   8.3233047e-02  -2.9207564e-01  -8.3772880e-02  -2.0873562e-01   5.9636424e-01   7.7192534e-01  -4.6675896e-01   1.0200541e-01   2.9236375e-01  -5.2678600e-01   6.3337580e-01  -6.5976045e-02   8.9239115e-02   4.5732634e-01   4.1217006e-01   7.3719620e-01   3.2588003e-01   5.0819041e-01  -9.1937475e-01  -2.3517782e-01   1.8717996e-01   8.7320574e-01  -6.9291902e-01  -2.0370845e-01   7.0156343e-01   8.6502923e-01   8.6673007e-01   6.1194272e-01  -7.7426585e-01   2.7652546e-01  -8.7062477e-02  -7.8587856e-01   8.2288863e-01   7.6779657e-02  -6.2018387e-01  -1.2319526e-01  -8.5982235e-01   1.4247806e-01  -3.3505697e-01   6.4741946e-01   6.6584266e-01  -7.7798235e-01  -8.3523403e-01   4.6685349e-01  -4.4696684e-01  -4.1728632e-01   2.7095148e-02  -7.0389801e-01  -5.7638187e-01   5.9214126e-01  -2.8002285e-01  -8.5494529e-01  -6.3395072e-02   4.6014760e-02   5.7700831e-01  -3.5988742e-01   5.3625317e-01  -9.6253028e-01  -6.1832089e-01   3.6346451e-01  -6.3452345e-01   1.5964548e-01   4.9865020e-03   3.9552742e-01  -7.7580952e-02  -4.8479483e-01   1.0834100e-01   3.3621223e-02   7.6944519e-01   4.1097643e-01   9.8284537e-02   6.3607403e-01   6.2505169e-01   3.8628634e-01   6.7508902e-01  -2.0135642e-01   9.3626437e-01  -8.2399968e-01   6.3668657e-01  -3.0948241e-01   6.2750502e-02   4.9885832e-04   4.6506467e-01  -3.1181150e-01   6.3330718e-02   5.1410302e-01   5.4998743e-01   1.6648939e-01  -8.7783562e-01  -1.1504262e-01  -5.6995303e-01  -5.6499763e-01   5.2290165e-01  -4.3554129e-01   4.3245940e-02  -6.2160724e-01   4.8404622e-01   3.0026263e-01  -7.1678581e-01   7.5662394e-01  -1.0494423e-01   5.7181774e-01  -2.1721740e-01   3.7874386e-01  -5.4075442e-01  -3.1852411e-01  -8.3687803e-01   7.1358438e-01   1.8712628e-01   1.7087261e-01  -3.6427556e-01  -9.6213838e-01  -3.6825345e-01  -6.8869103e-01  -2.4430344e-01   6.0216278e-01   5.6350341e-01  -6.0023568e-01   5.5784278e-01  -7.0319426e-01  -9.6415361e-01   6.6402088e-01   8.5028703e-01   6.2966043e-01  -9.3912678e-01  -3.5037270e-01   3.8676934e-01  -2.9890815e-01   6.4777871e-02  -4.6448700e-01  -7.3758249e-01  -4.8235469e-01  -1.2477274e-01   7.8840178e-01  -1.1746221e-01   9.8346713e-01  -7.1276768e-01   7.7887028e-01  -3.0739089e-01  -3.5389636e-01   6.3378414e-01  -5.4121213e-01  -5.0580779e-01   6.6133624e-01  -2.2476835e-01   7.2948214e-01   4.2313678e-01   2.4934187e-01  -7.6008547e-02   5.3649862e-01   6.9402833e-01   4.4210227e-02   5.1815993e-01   1.7225553e-01  -3.4833424e-01  -7.5407861e-01  -9.5486032e-01   8.4763424e-02   3.0143342e-01   6.9167600e-01  -5.4425426e-02   5.0537734e-01   9.2654499e-01  -4.6762900e-01   7.3652415e-01  -1.0306824e-01  -7.0435536e-01   9.9534875e-01   7.4278631e-01   9.4405926e-01   6.0978656e-01   2.9127878e-01  -7.3525709e-01  -4.9933338e-01   3.0800630e-01  -7.0251636e-01   1.0290234e-01  -9.7396563e-01   7.7986828e-01  -2.7094933e-01  -2.3496889e-01  -3.5602723e-01  -9.3776637e-01   5.0596793e-01   7.9679847e-01   6.9863053e-01  -1.7895226e-01  -7.4668716e-01   4.3123843e-01  -1.4405771e-01   2.6161755e-01  -5.9398628e-01   3.6304808e-01  -6.6542334e-01  -2.9448287e-01   4.2846740e-01  -9.8871801e-02  -1.6098323e-01   9.5215372e-01  -2.7819637e-01   2.5546770e-01  -9.8732060e-02  -2.3698018e-01   2.2303872e-01  -3.5884590e-01   1.0592793e-01  -7.7756240e-01  -9.2408684e-01  -4.5550007e-01   8.3418429e-01  -6.2988672e-01  -3.3016896e-01   9.7898077e-01   2.7433871e-01   4.9215078e-01   7.2496752e-01   9.1004320e-01  -5.8736576e-01  -8.3035028e-01   1.4789328e-01   1.9753059e-01   7.6551787e-01  -5.0172541e-01   1.4263974e-01  -5.7236233e-01   9.8079465e-01  -6.5545548e-01  -9.8896337e-01   1.8803816e-01  -6.1580003e-01  -2.7688545e-01  -1.9725948e-02  -2.8134350e-01   8.2596947e-01   1.1317414e-01  -9.0498613e-01   6.4253080e-01  -1.6465975e-01   6.0172679e-01  -9.0800208e-01   1.0677927e-01  -1.0844251e-03   6.7742199e-01  -8.7938192e-02   8.7503152e-01  -8.4843538e-01   2.4009195e-01  -2.7737402e-01  -6.5323153e-01  -6.0751285e-01  -3.3244799e-01  -3.2562071e-01  -4.2758317e-01   2.9078047e-01   6.0655728e-01   9.4089465e-01  -2.0287562e-01  -2.1853782e-01   2.5094373e-01  -2.5441717e-01  -6.3826069e-01   5.2460030e-02  -7.9084615e-01  -8.2986937e-01   7.6380793e-01   4.4986483e-01  -3.2399383e-01   7.0441402e-01  -8.7701367e-01   4.9301223e-02  -4.1871086e-01  -3.9669561e-01   2.3673528e-01   8.4113199e-01   4.0729429e-01   4.4464593e-03   6.8959191e-01  -7.0055817e-01   2.6458958e-01   7.7372229e-01  -8.4393715e-01  -5.1858202e-02   6.2149439e-01  -3.3269814e-01  -7.8952267e-02   9.9195732e-01   1.9354289e-01  -2.5631884e-01  -4.7741242e-01  -2.9987231e-01   9.0865951e-01   3.8414552e-01  -3.9936500e-01   9.5142475e-01   7.0371937e-01  -5.0835393e-01   8.0610223e-01   9.8637445e-02  -7.6754990e-01   7.1088593e-01   1.1195922e-01   4.1447740e-01   9.1169243e-01  -5.5915979e-01   2.2845016e-01  -2.0666382e-01  -3.4284000e-01  -9.0621470e-01  -6.5098350e-01  -6.1367454e-01  -4.6287569e-01  -3.6184597e-01   6.8980382e-01  -4.9428774e-01   7.5025363e-01  -1.6275664e-01   4.2367449e-01  -1.8260960e-01   4.4704266e-01   1.3958475e-01  -7.1947837e-01  -5.6196251e-01  -3.4999151e-01   8.9797271e-01   5.1746525e-01   1.5434171e-01   8.2846706e-01  -6.0194848e-01   7.7064985e-02  -3.0577069e-02  -4.4874278e-01   4.3581422e-01   9.7065812e-01   3.0870530e-01  -6.1683160e-01   6.2078744e-01   6.4559238e-01  -3.9279711e-01  -3.5382350e-01  -1.3248817e-01  -6.5714432e-01  -3.5184924e-01   9.9404379e-01   9.8918939e-01   6.0185621e-02   9.5541484e-01   3.5854341e-01  -3.4768542e-02   5.5566333e-01  -2.7296931e-02   4.1532056e-01  -7.2053952e-01   6.6860611e-02   3.8739194e-01  -4.5309064e-01  -7.0434174e-01  -8.7445344e-01  -9.2970565e-02   7.9502266e-01  -3.2112594e-01   8.6136598e-01   7.3042123e-01   4.1078004e-01   4.4996859e-02   1.1792547e-01  -9.9288663e-02  -3.7102599e-01   1.4509832e-01   4.5182841e-01   4.4631484e-01   1.5703140e-01   2.1838411e-01  -6.1023754e-01   5.5975336e-01   8.0349418e-01   5.6705911e-01  -9.1183295e-01  -5.2076606e-01   3.9879102e-02  -9.1944827e-01   1.0426902e-01  -6.4409904e-01  -2.6032301e-01   1.7668573e-01   7.5641871e-01   1.2034172e-01   2.6257824e-01   2.6063829e-01   5.7809982e-01  -7.1185174e-01  -4.0164191e-01   4.5978696e-01  -6.5418571e-01   1.4720525e-01   6.9595755e-01  -3.6372059e-01  -4.1757096e-01   5.8524021e-01   5.7317703e-01  -8.2663145e-01  -1.6721790e-01   1.2145728e-01  -2.8245174e-01  -6.8004765e-01   7.2210840e-01  -8.2633110e-01   3.1024481e-01   3.2144439e-01   9.8099456e-01  -1.1916193e-01   5.4905340e-01   6.0750486e-01   9.2844545e-01   2.2607261e-01  -1.2223728e-01  -1.0956990e-01  -1.3016361e-01   7.4006353e-02  -5.0757961e-01   4.0506421e-02  -2.2691882e-01  -8.6334481e-01  -1.3348575e-01  -7.9211073e-01   2.5467045e-01  -9.5032345e-01   3.0259381e-01  -4.4619109e-01  -1.8154258e-01   4.2785960e-01   1.5605809e-01   5.4203861e-01  -4.2044191e-01   4.2315875e-01   5.9841072e-01  -1.0494661e-01  -4.2030749e-01  -8.8670037e-01  -1.2162041e-01   9.4510374e-01  -7.3991195e-01  -8.6833866e-01  -2.1128462e-01  -3.2405467e-01   4.9195778e-03   1.5343876e-01  -4.4963226e-01   1.6716413e-01   2.6749644e-01  -7.7135874e-01  -1.1489638e-01  -4.2730802e-01   9.4469453e-01   5.7300805e-01  -2.3704746e-01  -8.5809350e-02   5.1743684e-01  -7.2352847e-01   3.5403967e-01   6.3654796e-01  -3.3793985e-01   5.7032709e-01  -8.8411288e-01  -1.9461437e-01   4.4670237e-01  -1.1023508e-01  -1.4737192e-01  -4.0697475e-01  -9.1558889e-01   5.5888478e-01   4.5159153e-01   9.8736522e-01   1.9485409e-01   6.6772837e-01  -2.0226369e-01   3.8878020e-01   1.8690161e-01  -3.5351675e-01   7.8006000e-01  -3.1073232e-01   6.8568004e-01  -5.7833485e-01   5.0858875e-01  -6.5676692e-01  -2.3515036e-01   6.8483566e-02   9.2004025e-01   7.6969290e-02   3.1162556e-01  -4.9478572e-01  -9.8276426e-01  -1.2751435e-01  -1.3909360e-01  -8.3994104e-01  -9.1370197e-01  -5.0184873e-01  -2.8523566e-01   8.4706322e-01  -6.8096008e-01   8.8885207e-01  -4.8358139e-01   9.1265116e-01   1.5715624e-01   1.5325124e-01   8.0176532e-01   3.9424522e-01  -8.3712318e-02   4.7952328e-01   6.6265195e-02  -3.1676711e-01   3.3446303e-01   8.9515273e-01   7.7614842e-02   9.6821728e-01  -2.0136111e-01   4.6839991e-01   5.8271808e-03  -5.5103321e-01   2.9476853e-02  -8.8321296e-01  -1.8627528e-01   7.6391751e-01   7.5715839e-01  -8.1913755e-01   3.5902413e-01  -6.6733764e-01   4.3943426e-01   2.4096911e-02   1.1441378e-01   8.3891104e-01  -7.0946577e-01  -9.5209313e-02  -1.3499073e-01  -5.9755941e-01  -3.1327737e-01  -3.4416266e-01   7.3487219e-01  -5.0218191e-01   1.9387436e-01   2.5281243e-01  -8.0285939e-01   9.7464410e-01   8.0521468e-01   6.0202925e-01  -2.6211213e-01  -7.6997381e-01   7.1804039e-03   9.6277825e-01   4.6413662e-01  -6.7713134e-03  -2.0440086e-01   6.8820278e-01  -8.2679971e-01   3.9288080e-01  -5.6082640e-01  -2.7578013e-01   3.5449824e-01  -8.2642808e-01   6.7416350e-01   6.2625304e-02   2.2210367e-01   3.3469285e-01  -5.7430724e-01  -1.1574176e-01   1.9595115e-01  -5.7702530e-02  -9.3331077e-01   5.1457423e-01  -7.6219334e-01  -1.6912267e-01  -6.2276118e-01  -7.3722180e-01  -7.3074222e-01  -6.5216766e-01   1.6804755e-02  -3.3007508e-01  -9.1634399e-01  -8.0673195e-01   8.2307360e-01  -5.9874773e-01  -6.7949756e-01   1.3363553e-01   6.2790732e-02   6.0127434e-01  -7.5355445e-01   2.8521505e-01   1.2627745e-01  -1.7826655e-01   2.8578151e-01  -9.0668535e-01  -9.5130562e-01   4.2181961e-02   8.9443768e-01   2.1237374e-01  -3.8224458e-01   7.2190956e-02  -3.4996255e-01  -3.8012838e-01   8.8915705e-03  -7.6234216e-01  -4.2294251e-01   3.2432873e-01   7.3365189e-01   8.5870188e-01  -3.5765813e-01  -1.5644039e-01   6.5187663e-01  -7.2660894e-01  -9.9832171e-01   8.1037241e-01   8.9963317e-01   4.1916668e-02   4.5573614e-01   8.7437049e-01   8.4468382e-02  -3.6321321e-01   1.8753796e-01   8.6499177e-01   2.5071361e-01  -1.4890578e-02   5.7145127e-01  -6.6894585e-01  -1.2779271e-02  -8.7573422e-02  -7.9893131e-01   2.4637375e-01  -2.6846766e-01   6.0989925e-01  -3.8590641e-01   4.3197423e-01   1.8047645e-01  -1.0545787e-01   2.9802466e-02  -3.4585828e-01  -2.1687275e-01  -7.3287335e-01  -2.1758620e-01  -8.4747893e-01   5.4238564e-01   2.6744456e-01  -6.7589941e-01  -7.0694725e-01   4.2080983e-01  -7.8018933e-01   8.7267284e-01  -9.5662225e-01  -9.7556193e-01   3.4656159e-01   5.0689927e-01   9.1398285e-01   9.6945946e-01  -8.7374358e-01  -6.1544575e-01   9.9989234e-01   3.2770502e-01   6.7409574e-01   9.4117317e-02  -4.4275626e-01   5.5507126e-01   6.1860865e-01   5.8987424e-01  -8.9625622e-01  -6.9406211e-01   3.7231563e-01   4.2864216e-02  -6.1628141e-01   7.9083683e-01  -5.2112858e-01  -2.5645354e-01  -6.1459572e-01  -9.0737411e-01   7.9639686e-02   6.8866470e-01   8.8979730e-01   3.6883123e-01   9.4027816e-01  -6.9911041e-01  -9.8895930e-01   6.2953367e-01   2.1999475e-01  -7.2009959e-01   7.2338816e-01  -1.9859950e-01  -9.4428562e-01  -7.8800832e-01  -2.4784668e-01   1.4134414e-01  -9.0471917e-01   4.4487024e-01  -1.4009116e-01   9.1638680e-01  -3.8936263e-02  -2.7479784e-01  -3.1060251e-01   2.9983839e-01  -5.7581470e-01  -9.1281311e-01   2.9902119e-01   3.5125024e-01  -3.3958856e-01   4.7134261e-01   9.4690067e-01   9.4223864e-01   6.8931628e-01  -1.4403795e-01  -1.4695726e-01  -7.1062726e-01   7.1794693e-01  -6.2095797e-01  -8.1486608e-01   9.4747651e-01  -2.6926512e-01  -3.1274364e-01  -9.4412053e-01   8.2249476e-01   8.2729337e-02  -7.0653028e-01  -7.1630759e-01  -2.4734880e-03   7.8196912e-01  -8.7666046e-01  -2.3200802e-01  -5.0396676e-01  -3.7867254e-01  -2.8783524e-01  -6.3098757e-01   3.9666517e-01  -8.5704854e-01   6.4919379e-01   6.8575674e-01  -9.6889481e-01  -2.5297657e-01  -6.7211789e-01  -7.0476304e-01  -5.9321028e-01   7.4442490e-01   6.0253520e-01   4.8368405e-01   7.7051093e-01   4.2361649e-01   2.3468963e-01   1.0394426e-01   7.5908357e-01   6.2530327e-01  -6.0727568e-01   1.5668855e-01   4.0691755e-01   6.6417726e-01  -9.3305533e-01  -9.4029796e-01  -4.1269163e-01   7.8986496e-01   5.4482134e-01   9.0100370e-01   2.3307409e-01   2.4064981e-02  -2.1098907e-01   2.4545620e-01  -7.2579008e-01  -5.1199196e-01   5.5406674e-01   2.7818522e-01   4.8374810e-01  -7.6769890e-01  -6.2741474e-01  -6.9808568e-02  -5.7399461e-01   4.0786808e-01   8.8506627e-01  -9.7324050e-01   9.0497451e-01   3.0990899e-01   2.4095794e-01   9.2434962e-01   5.5165474e-01  -2.9488031e-01  -6.9580610e-02   2.4563800e-01   1.2778772e-02  -5.0042290e-01  -8.4039120e-01  -3.2852454e-01   7.9239300e-01  -6.0215163e-01  -3.1665378e-01   1.9518479e-01  -3.1212435e-01  -4.6657401e-01  -8.1906876e-01  -8.4214004e-01   5.7557174e-02  -6.4297209e-01   6.5210649e-01  -4.5113686e-01   5.1730840e-01   2.2915738e-01   1.5470881e-01   4.4754260e-01   1.3441003e-01  -5.6758939e-01   3.3665991e-01   8.0872862e-01  -2.4002266e-01  -3.8129724e-01   6.4838347e-01   7.3172559e-01  -3.2364006e-01   8.2264114e-01   9.2966100e-01   1.3888358e-01   3.7867489e-01  -6.4064035e-02  -3.6117656e-01  -9.2098926e-01  -2.4747357e-01  -3.6255527e-01   5.8103334e-01  -8.5048867e-01  -1.3014133e-01   7.8241713e-01  -2.5551280e-01   9.7536649e-02   8.1828949e-01   1.0113874e-01  -5.3193697e-01  -3.2936815e-03   9.4015951e-01  -3.7059204e-01  -9.5763555e-01  -6.1395949e-01  -2.2101434e-01   2.9273915e-01   3.0309543e-01  -1.1086853e-01  -8.5776717e-01   9.8641690e-01   7.2349254e-01  -9.6188079e-01  -9.5312277e-01  -5.4609416e-01  -2.4361914e-01  -7.8284218e-01   3.7833298e-01  -6.1660884e-02  -4.7754489e-01  -8.9084274e-01   1.4210440e-01   5.3060023e-01  -1.2596132e-01  -9.8709105e-01   2.1078898e-01   4.3935134e-01  -5.6433538e-01  -6.3726862e-01  -5.0848932e-01  -3.5057152e-01  -6.2358924e-01   9.8364485e-03  -3.2964467e-01  -9.7257596e-01   5.1814265e-01  -9.9478281e-01  -5.0350906e-01   4.2712489e-02   5.4458582e-01   4.7022228e-01   6.2962116e-01   8.9221446e-01  -6.6133159e-01  -1.0068116e-02  -1.7278414e-01   1.4443859e-01  -6.4876926e-01  -7.3584688e-01   7.4053123e-01   6.1294449e-01  -4.8261600e-01  -2.6709956e-01  -2.9811923e-01   2.9130177e-01  -5.2555156e-01  -9.2569243e-01   4.9399358e-01   7.4454128e-01   8.7774619e-01  -4.3652163e-02   7.6138034e-01   5.6658332e-01   9.4186173e-01   8.0055284e-01  -3.4402534e-01   5.8655718e-01  -6.8752701e-01   6.0570048e-01  -3.7141623e-01   9.8902876e-02  -3.8824242e-01  -9.9119044e-01  -3.7238116e-01  -8.3838615e-01  -2.1916341e-01  -8.5127450e-01   1.4651421e-01   8.2796124e-01  -7.0653793e-02   6.3571322e-01  -1.5235009e-01  -4.4623587e-01  -6.1080262e-01  -9.6352900e-01   4.0853689e-01  -7.8508884e-01  -9.8439004e-01  -1.5496791e-01   3.7280134e-01   7.3990334e-01  -3.9288152e-01   8.9532402e-01   7.5141290e-01  -4.3199017e-01  -9.1019187e-01   9.7263354e-01   1.1973938e-01  -7.6177340e-01  -3.1165018e-01   2.9061760e-02   1.4472712e-01   1.5273025e-01  -7.8152778e-01   9.8471607e-01   9.8053745e-01  -9.3677862e-01   6.7959344e-01  -7.4537928e-01  -5.2475843e-01  -9.4667051e-01  -6.0638183e-01   2.3894968e-01   8.4960322e-01  -1.0719513e-01
   4.6219971e-01  -8.9949231e-01   9.1202678e-01  -5.2215889e-01   8.6466337e-01  -6.7234841e-01  -8.4980188e-01  -5.4233934e-02  -3.8703266e-01   3.9361383e-01   9.2420438e-01   6.2610959e-01  -5.9504254e-01  -1.5358366e-01   1.3317355e-02   6.9516003e-01  -5.7148931e-01  -6.9195733e-01   8.2395765e-01  -8.9262132e-01   1.0839782e-01  -2.3076703e-02   8.0182100e-01  -1.3417925e-01   4.0207802e-01  -1.4994635e-02  -1.9264095e-01   3.0388146e-01  -6.5120439e-02   8.5931951e-01   7.8738894e-01   2.0529666e-01   2.2793317e-01   8.1090192e-01   9.2759497e-02  -6.6667668e-01  -6.5235603e-01  -2.2009858e-01   1.3015949e-01   1.3850555e-01  -7.2142619e-01   2.6288461e-01  -3.5630658e-01  -1.0566231e-01  -8.7469072e-01  -6.9792514e-01  -7.3070356e-01   7.1171007e-01  -2.8987064e-01  -2.1546695e-01  -7.8241775e-01   4.2828651e-01   2.1780381e-01  -2.8319415e-01  -5.5222259e-01  -4.8267552e-01   6.9249328e-01  -8.7887065e-01   5.4304652e-01   3.8222501e-01   3.4894209e-01  -8.2501314e-01  -6.8146761e-01   3.0261266e-01   1.4807632e-01  -3.5892477e-01  -1.2331972e-01  -4.7099493e-02  -9.7369780e-04   8.4006230e-01   3.3621775e-02  -9.5815237e-01   1.0080757e-02   3.2618559e-01  -8.5233494e-01   3.9397128e-01   2.3306150e-02  -8.7306959e-01   2.6248720e-01   7.4911150e-01  -7.2256683e-01  -3.7432659e-01   8.5755428e-01  -5.5856812e-01   2.5510328e-01  -2.2649562e-01  -7.5666247e-01   5.5409983e-01   6.9376081e-01  -9.9994620e-01  -6.5667940e-01   5.2815886e-01   4.1348047e-01  -4.6435319e-01   2.7430865e-01   2.1044127e-01   3.9169869e-01  -6.6178645e-01   6.2947618e-01  -3.9710174e-01  -2.0306165e-01   9.6388616e-01  -8.3924360e-01  -5.1227962e-01   5.5734386e-01  -9.2159428e-01  -1.1494078e-01  -9.1182838e-01   4.2173280e-01   1.9390664e-01  -2.8704021e-01  -6.5683557e-01   4.8367387e-01   3.2065574e-01  -2.8640472e-01  -2.6147891e-01   6.7667210e-01  -8.5954333e-01   5.4200572e-02   6.6527109e-01   4.4389032e-01  -1.6509863e-01  -6.2349362e-02   2.4359772e-01  -7.4291143e-01   7.5844168e-01   3.2005209e-02   8.4405359e-01  -5.4714096e-01  -4.6140879e-02  -4.0953526e-01  -1.1727180e-01   4.6134064e-01  -8.8591589e-01  -3.8742533e-01  -2.7866978e-03  -4.8197878e-01  -4.4395777e-01  -6.3725954e-01  -7.8023501e-01  -5.0445737e-01   1.4950439e-01   6.8471516e-01  -9.3182610e-01  -8.0407569e-01   3.5337007e-01  -8.2739804e-01   8.0354020e-01  -6.3572385e-01  -3.9027428e-01   3.9317670e-02  -2.9105127e-01  -8.6850728e-01   1.6990751e-01  -8.8154945e-01   7.9116857e-02  -5.9560800e-01   5.9500839e-01  -9.1287237e-01  -4.9844398e-01  -2.9256583e-01  -8.7592219e-01   6.8151040e-01  -2.2006813e-01   5.5716685e-01   5.7577524e-01  -3.1480420e-01   6.4419366e-01   6.1821916e-01  -1.1957811e-01   3.2444222e-01   3.8732628e-01   7.9725251e-01   7.7059087e-01   4.0474070e-01   2.9405721e-01   5.8172115e-01  -3.9610717e-01   9.2621331e-01   2.4116553e-02   6.2769618e-01   4.3658251e-01   9.6400659e-01  -1.3317590e-01   9.9728169e-01   2.1697677e-01  -3.6427560e-01  -1.8970526e-01  -9.2939946e-01  -8.5174707e-01  -2.7344609e-01   3.5810141e-01  -2.1996645e-01  -5.4803949e-01   7.1523192e-01  -5.5843932e-01  -4.8948632e-02  -9.0224988e-02   2.5496043e-01  -8.0013388e-01   4.2944112e-01  -3.1622571e-01   1.9044645e-01   2.5669355e-02  -9.0534883e-01  -3.5550579e-01  -8.5793164e-01  -3.5795261e-02   1.3122149e-01  -2.9241089e-01  -5.3081006e-01  -2.7248719e-01   9.0809566e-01   6.5056099e-01  -9.9695546e-01   8.3392671e-01  -2.0562849e-01   5.2274870e-01   1.5422219e-01  -9.5944051e-01   8.6434180e-01  -3.8930000e-01   9.1611387e-01   8.4677318e-02  -6.6964464e-02  -9.8174139e-02  -6.3394448e-01  -9.9825957e-01   6.0893713e-01  -6.8366106e-01   2.9934599e-01   8.3489108e-01   1.0440616e-02   2.0946785e-01  -8.3601950e-01   3.5921282e-01   9.2498425e-01   2.2896002e-01  -9.5587852e-01  -9.6948838e-01  -3.3465126e-01   3.5454149e-01  -2.9750888e-01  -5.5850134e-01   2.3382677e-01   3.8345812e-01  -6.6481452e-02   7.6707483e-01  -8.2281418e-01   1.1060132e-01   1.3898367e-01   3.3582462e-02  -4.0076423e-01  -7.7351744e-01  -8.0510077e-01   1.9330574e-01   1.6444952e-01   9.6559951e-01  -4.4186190e-01   8.0732946e-01   2.0732421e-01   3.6398299e-01   2.3338681e-01  -3.2805333e-03   6.6311652e-01   6.1145718e-02  -4.8065252e-02  -3.9905170e-01   1.1220251e-01   2.3588747e-01   6.8627478e-01  -9.3423870e-01  -1.7622526e-02   2.0624869e-01  -6.2505334e-01   1.4288131e-01   9.2705574e-01  -1.4721221e-01   1.4333265e-01   1.0388561e-01  -7.1205070e-02  -4.2467973e-01   6.9207410e-01  -9.4460533e-01  -6.9052166e-02  -9.2049150e-01  -4.6734601e-01  -7.5148056e-01   6.1453739e-01  -6.6073877e-01   3.8337405e-01   7.9299134e-01   9.4059587e-01   2.1751726e-01  -7.2525307e-01  -9.5721258e-01  -3.3525407e-01  -9.8212391e-01   9.7315889e-01  -6.2895363e-01   6.2091686e-01  -8.2709145e-01  -8.1536136e-01  -6.2988847e-01   6.2256332e-01  -1.3378301e-01   1.5470233e-01  -6.4968938e-01   5.9077495e-01   9.5782783e-01   2.0154269e-01   7.3934100e-01  -4.4706911e-01   5.6089085e-01  -3.4216098e-02   7.4409415e-01   5.2252417e-01  -2.7544700e-01   4.8313312e-01   2.7673378e-01   3.0345853e-01   3.6174299e-01  -8.2653629e-01   9.4221493e-01  -7.4905943e-01   7.3244093e-01   8.4414546e-01   4.8551366e-01  -9.1013615e-02  -2.1557606e-01  -3.5767454e-01  -5.8759784e-01   9.5387694e-01  -8.0101625e-02  -5.4101175e-01   5.4873083e-01   6.4592140e-01   7.6334985e-01   7.6698029e-01   2.8179131e-01   3.1656351e-01   1.6940017e-01  -7.1541881e-01   7.0608658e-01  -8.6179540e-01   5.0778661e-01  -7.6634407e-01  -5.3739820e-01   5.7645054e-01   5.6745870e-01   3.8097580e-01  -2.5256142e-01  -5.0835943e-01  -6.8139905e-01   3.3905220e-01   8.8351642e-01   4.7778840e-01   9.7678213e-01   1.8427302e-01  -8.9415270e-02  -1.4735756e-01  -3.2062250e-01   7.0210590e-01   5.4760108e-01  -8.2103675e-01  -3.1682793e-01  -5.8866138e-01   8.3172287e-01  -6.7287059e-01  -5.9746475e-01   1.9948962e-01   1.7418273e-01   2.2674360e-01   5.4273915e-02   1.5700285e-01   8.1544515e-01   9.0234382e-02   8.9972206e-02   8.6141216e-01  -2.8902742e-01  -5.7583070e-01  -6.9002952e-01   3.6380141e-01   4.6407107e-01  -2.4076550e-03   6.6674737e-02  -1.9515528e-01   9.3887437e-01  -3.3020028e-01   1.0059068e-01   7.9614957e-02   5.7767700e-01  -4.7959176e-01   3.1525777e-01  -2.9489470e-02  -1.2937315e-02   7.8203385e-01   4.9317310e-01   8.5335572e-01   5.9386350e-01  -3.2327142e-01  -1.5228579e-01   3.4444449e-01  -8.4393918e-01   2.3568162e-01   2.9790768e-01   2.4808213e-01  -4.2902651e-01   1.8977409e-01   4.4756087e-01  -7.5269812e-01   9.6364994e-01  -8.6505650e-01   8.0286671e-01  -5.7536224e-01   7.8853501e-01  -5.9696089e-01   5.0225029e-02  -5.3615182e-01  -9.3353322e-01   6.1793483e-01  -3.6076577e-01  -6.5516513e-01   8.7395650e-01  -3.3599081e-01   8.1548624e-01  -8.6539129e-01   8.2638006e-01  -1.7267065e-01  -9.3395128e-01  -6.3546604e-01   6.1024827e-01  -7.2317409e-01  -7.7955241e-01   7.2708197e-01  -5.5169023e-01   3.6833552e-01  -8.4337725e-01   6.6109974e-01   3.7687011e-02  -4.3332350e-01   4.6484945e-01   4.4227410e-01   7.1755819e-01   9.7314784e-01  -3.1696069e-01   2.1608416e-01  -7.1064497e-01  -1.1824056e-01   4.9084101e-01   1.9023523e-01   7.1061315e-01  -1.9264771e-01  -8.7080681e-01  -2.1329906e-01   6.8901807e-01   9.0966149e-01  -8.6550518e-01  -5.7463355e-01  -6.4633859e-01   2.5207849e-01  -8.5144655e-01   9.2750358e-01  -6.4021998e-01  -9.1631316e-01  -2.2019465e-01   2.8564764e-01   9.8330492e-01   2.6636826e-01  -4.7045522e-01  -3.9057718e-01   7.3581133e-02   9.1589655e-01  -1.6240796e-01  -2.6142671e-01   2.8259271e-01  -9.9741470e-01  -2.8717458e-01   2.8955720e-02  -2.3078588e-01   5.6094199e-01  -4.7077046e-01   6.2348885e-01   7.4840846e-01  -7.4425097e-01  -4.9679554e-01   4.8900333e-01  -6.4669814e-01  -5.9839881e-01  -3.5385477e-01  -7.5106038e-01  -4.3831499e-01  -9.4149938e-01  -1.0862165e-01  -3.9349092e-01   1.7535351e-01   3.7574743e-03  -8.8505693e-01  -1.3405982e-01  -3.2314633e-01   3.5277913e-03   1.4816591e-02  -1.7719495e-01  -8.2606853e-02   3.3492263e-01  -5.6075749e-01   7.5815228e-01  -3.3440427e-01   5.8299014e-01   1.4172856e-01  -9.6257556e-02   4.4972669e-01   4.2443793e-01   4.6746954e-01  -7.1359175e-03  -7.9377169e-01  -1.3587213e-01   6.9917803e-01  -1.2533882e-01  -1.6236246e-01  -4.7811032e-01   7.7158912e-01  -3.7839681e-01   9.1829089e-01  -5.8367900e-01  -3.6291992e-01  -2.9523659e-01  -8.2591734e-01  -5.1400736e-01  -5.0059419e-02   5.5305394e-01   3.0751593e-01  -4.8021093e-02   8.0543286e-01  -9.7949299e-01   3.0524346e-01   5.9073313e-02  -5.8027149e-01   5.8718179e-01   3.4334955e-04   2.6557238e-01   7.1408683e-01  -2.6925409e-01   8.9768960e-01   9.7777867e-01  -1.4910703e-01  -2.9285496e-01  -4.6427050e-01   5.4364006e-01  -2.9566402e-01  -6.2114701e-01  -8.8081253e-02  -3.8994678e-01  -3.3448255e-01  -5.2486396e-01   4.2836396e-01  -8.5699764e-01  -2.6969863e-02   2.1968300e-01   3.5031215e-01   5.9684544e-01  -7.4663976e-01  -2.1494971e-01   8.4927912e-01   6.4986605e-01  -5.7822875e-01   1.0002552e-01   6.0309151e-01  -4.0701558e-02   7.7223714e-01   4.4999082e-01   8.7488308e-01   1.3035039e-01   8.4308020e-01  -1.7315871e-01  -6.4615123e-01  -8.5579739e-02  -5.7757091e-01  -4.7011769e-01  -4.7376642e-01   7.8583447e-01   2.7523783e-02  -4.8414492e-01   4.6921696e-01   6.0668691e-01   4.2845660e-02  -4.7287460e-01   9.3163636e-01  -4.9527040e-01   9.8081171e-01  -9.6114092e-01  -4.0635545e-01  -1.9207942e-01   8.9857825e-02  -6.1110402e-01  -6.0924550e-01   6.9138008e-01   9.6446222e-01   7.2640450e-01  -6.9481352e-01   7.1576603e-02   6.9229769e-01  -5.7323650e-01   8.4091201e-01  -9.9280898e-01  -6.9528119e-01  -8.0937709e-01  -6.9168929e-01  -6.6878680e-01   9.7193145e-01  -9.2077941e-01   6.1340698e-01  -3.1524475e-01   7.9036343e-01   2.1472779e-01  -8.6480464e-01  -1.6242288e-01  -1.7449748e-01   4.2705407e-01  -6.9968445e-01  -8.4729491e-01  -6.5300479e-02   4.7422985e-02   9.2528170e-01   9.0261926e-01  -9.4088389e-01   1.2478972e-01  -1.8142365e-01  -4.2322166e-01  -4.0130656e-01   3.2933650e-01   4.0451159e-01  -8.4100363e-01  -8.4314365e-01   2.9820170e-01  -7.6208230e-01  -5.6397555e-01  -5.5046904e-02  -5.8353153e-01   1.8629553e-01   9.6574764e-01  -9.3281693e-01   4.4760502e-02   3.2000550e-02  -7.6135299e-01   6.0002134e-01  -6.3404969e-01   2.2184257e-01   7.5123888e-01   1.1152715e-01  -4.2695108e-01   9.7633254e-01  -3.5281124e-01  -9.7372105e-02   5.2765344e-01   7.5957221e-01   4.5132504e-01   6.0710266e-01   6.1389077e-01   6.6533381e-01  -6.7644337e-01  -6.7492829e-01   1.6404841e-01   5.8177908e-01   4.4090547e-02   3.4353798e-01  -3.2966862e-01   9.5191444e-01  -1.0259663e-01   5.1833679e-01  -2.7311321e-01  -4.1541353e-01  -3.3700424e-01   6.7071807e-01  -2.0557928e-01   8.9653418e-01   6.4174776e-01   7.5951604e-01   4.6168119e-01   3.0491920e-01   9.4410448e-01   8.3783635e-01   4.5914740e-01  -9.4538587e-01  -9.7188428e-01   3.2847777e-01  -8.0092683e-01   7.2142694e-01  -2.8601566e-01   1.9493089e-01   9.6500064e-01   5.1846309e-01  -9.0076821e-02   7.6595438e-01  -5.6608689e-01  -7.3011401e-01  -8.0490909e-01   8.0040408e-01  -8.3584229e-01  -6.5458366e-01   5.9042783e-01  -7.0246592e-01   3.3289201e-01  -3.8900424e-01  -4.8076742e-01   6.8646533e-01   4.9850794e-01   5.4505331e-02  -8.9372454e-01  -4.4985216e-01   8.3635236e-01   8.7120634e-01  -5.1039565e-01  -4.3123001e-01   7.2026440e-01   1.7269837e-01   8.4764882e-01   7.3927774e-01  -9.0401158e-01   5.6265416e-01   6.1280181e-01  -2.2752895e-01  -7.3441548e-01  -7.0273089e-02   9.1003830e-02  -3.0233640e-01  -4.7977493e-01  -4.6528205e-01  -7.7697907e-01  -9.9678713e-01   6.9567830e-01   6.7022938e-02   6.6947492e-01   4.2689507e-01   4.9260160e-01  -5.6947298e-01  -1.5185757e-01   1.6560100e-01   6.9865574e-01   5.3660815e-01   5.7317109e-01  -5.4722142e-01  -7.3058062e-01   4.1330337e-01   1.0255438e-01   9.0116335e-01  -4.9982058e-01  -1.0526487e-01   8.8040995e-01   1.1900869e-01  -6.0275021e-01  -2.9177760e-01   2.6275728e-01   6.4131301e-01  -6.3271820e-01   4.5932937e-01   8.9067592e-01   2.6327863e-01   8.0062106e-01  -3.9638854e-01   3.4767238e-02   8.2640083e-01  -5.0178015e-01  -7.3243815e-01   7.9436128e-01  -1.7579211e-01  -9.8394045e-01  -1.7809021e-01   5.7664928e-02   2.1375165e-01   1.8361427e-01   8.9411936e-01  -3.8336723e-01   6.4170453e-01   9.4325685e-01  -8.3139056e-01   5.1457624e-01   4.9572227e-01  -4.2042901e-01   9.7800421e-01  -7.7077639e-01   5.4258402e-01  -2.8102507e-01   7.9460108e-01  -6.4756206e-01   6.6337434e-01  -1.1204919e-01   4.0685879e-01   5.5217941e-02  -8.2859929e-01  -3.6408417e-01  -6.5795831e-01   7.8180116e-01  -6.6092055e-02  -9.5919704e-01   8.6150925e-01  -4.7580479e-01   6.5864306e-02  -5.2296005e-01   2.9012829e-01  -9.5655178e-01   2.8605243e-01   7.8889904e-01  -4.6920536e-01  -5.8670123e-01   6.7025166e-01   6.5763866e-01   9.9014228e-01   3.6470245e-01  -6.7032184e-01  -5.4271429e-01  -2.9717267e-01  -8.4454542e-01  -5.2412474e-01   1.8240319e-01  -8.1363506e-02   3.4627254e-01   8.0357009e-01  -3.5908355e-02   3.1542157e-01  -8.1126267e-01  -6.1665194e-01   4.0048426e-01  -5.5631615e-01  -6.5977050e-01   9.1135558e-01  -3.1678919e-02   7.2247840e-01   2.6082433e-01  -4.1364202e-01   8.5006447e-02   4.7892060e-01  -2.2907449e-01   2.7042075e-01  -6.9316746e-01   3.1620667e-01  -5.3358164e-01   4.8616419e-02  -8.5885976e-01   4.7868971e-01  -3.6906668e-01   8.8153626e-01   4.2678759e-02   7.8251581e-01   4.9293539e-01   6.3264993e-01  -9.9748824e-01  -2.3424233e-01  -8.6639325e-02   9.9557004e-01  -2.1199448e-01   3.6077335e-01   6.8695248e-01   5.2731904e-01   1.9841303e-01   5.2546718e-01  -7.4517647e-01  -6.1122350e-01   4.6885198e-01   3.0664012e-01  -9.2836573e-01  -3.6110529e-01  -5.1661688e-01   8.3281371e-01  -1.2640320e-01  -9.4149601e-01  -4.9350183e-01   4.5904186e-01   9.4502323e-01   6.5703130e-01  -6.6068057e-01   5.4460716e-01  -2.0760317e-02  -7.7254802e-01   6.2010268e-01   3.9906151e-01  -5.9035169e-01   5.5988628e-01  -8.2665449e-01  -3.0575899e-01   9.2644968e-01   6.8196012e-01  -1.6209840e-01   7.4246872e-02  -9.1032232e-01  -1.0116032e-01  -3.1276512e-01   3.4985893e-01   1.8702173e-01  -2.3416797e-01  -6.1416514e-02  -9.9022605e-03   7.5756452e-01   2.7527276e-01  -3.8746595e-01  -7.8564652e-01  -5.5701598e-01   3.5031039e-03  -3.3475109e-01   9.8645193e-01  -6.1863874e-01   6.0408488e-01   5.6474388e-01   8.1431307e-01   4.1932540e-01   7.6697534e-01   1.3651493e-01   1.2178259e-01  -6.3742345e-01   7.6675717e-01  -8.3403443e-01  -6.6951894e-01  -8.4309926e-01  -4.2567161e-01  -6.5436288e-01  -4.1604277e-01  -8.0855669e-01  -5.6126390e-01   9.6630797e-01   5.2318187e-01  -7.7478331e-02  -8.3176033e-01   5.1313958e-01   6.7392408e-01   9.6488655e-01   4.0979686e-01   6.5295473e-01   2.1495479e-01   7.3050222e-01   5.5026347e-01   6.4063781e-01  -1.5555550e-01  -6.3587637e-01  -6.3383819e-01  -8.6244328e-01   6.3446591e-01  -7.7899706e-01   3.9800060e-02  -1.2740509e-01  -8.5339490e-01  -8.6176462e-01   1.7727811e-01  -3.8138060e-01   6.7897295e-02   4.2996815e-01  -3.3685054e-01  -6.4321901e-01   2.4147483e-01   8.1051685e-02  -7.0159180e-01  -3.4984734e-01   3.3710615e-01   7.8990474e-01   5.0749010e-01   3.4134164e-01   7.5563463e-01   8.4704100e-02   8.4222096e-01   2.2663263e-01  -8.8534410e-01   3.4028050e-01   2.8281322e-01  -3.9881083e-01   5.4916860e-01  -9.7624495e-01   1.9420070e-01  -3.7015989e-01  -6.8832908e-01  -7.6395396e-01   1.4347168e-01   2.6009605e-01  -1.8038756e-01   5.0304810e-01  -8.1909996e-01  -8.6175717e-01  -3.7186110e-02  -8.5635024e-02   3.6777125e-01   6.7445573e-01   6.3419911e-01   3.4117120e-01  -9.8370544e-01   9.9073081e-01   1.7260089e-01   6.1435761e-01  -4.6296875e-01  -4.8925479e-01   6.8803513e-01   4.7720255e-01  -7.6297409e-01  -6.9665379e-01   4.0595619e-01   2.5065826e-01  -7.0073690e-01  -2.7933007e-01  -9.1245007e-01   5.6995481e-01  -3.1471830e-01   2.4802429e-01  -3.4911611e-01
  -3.4288870e-01  -6.3464712e-01   1.1961552e-03   7.9740619e-01  -6.8971254e-01  -6.1686894e-01  -2.5341132e-01  -7.4413594e-01   7.5227090e-01  -5.0036430e-01  -6.4281769e-01   7.4373539e-01   2.3074543e-01   3.6506927e-01   1.7545530e-01   3.7368868e-01   7.4031212e-01  -7.4497928e-01  -8.1721098e-01  -6.6180006e-01  -8.0889290e-01  -8.2756867e-01   2.9192953e-01   6.3462287e-01  -7.3858879e-01  -1.0866985e-01   4.9906930e-01   2.1984904e-01   4.1512778e-01   5.6399770e-01   1.8150461e-01  -2.3116464e-02  -4.1800198e-01   6.9826319e-01   3.4024266e-01  -1.4411356e-02   2.3833104e-01  -8.7588682e-01  -2.5816184e-01   2.3447070e-01   1.3319877e-01   9.4925604e-01  -9.1190550e-01   1.5589173e-01  -4.9465214e-01  -7.6389655e-01  -9.9119084e-01   8.9707641e-01   1.9271102e-01  -5.2356837e-01   2.0983177e-01  -7.7086135e-01  -1.2498013e-01   8.5139066e-01  -2.8117662e-01  -6.6225645e-01   4.2659152e-01  -6.9568564e-01  -1.5447751e-02   8.4968112e-02   5.1846021e-01  -3.1882147e-01   7.9578131e-01  -4.8828552e-01  -5.6846448e-01  -7.2699292e-01   2.4459089e-02  -8.8841687e-01   5.9228010e-02  -7.2938126e-01   6.9790021e-01  -1.7439859e-01  -6.1182386e-01   8.5012222e-01   1.4999065e-01   1.1157632e-01  -5.9805202e-01  -7.5066572e-01   3.6199220e-01  -4.3552965e-01  -2.2688516e-01  -1.2575713e-02   2.2532690e-01   7.9465284e-01   1.9520885e-01   4.4214446e-01   1.0912971e-01  -4.9757034e-01  -7.7767484e-01   9.6773147e-01  -4.9193569e-01   6.5114687e-01  -2.2765763e-01   2.6777657e-01  -7.4886471e-01  -6.8099429e-01  -7.8209343e-01  -4.0708842e-01  -5.8263881e-01   5.2837179e-01   7.2201073e-01  -3.2318550e-01   1.2071629e-02   2.5225952e-01  -8.9510079e-01  -9.3275092e-01  -8.4693508e-01   6.1365082e-01   5.1134244e-01  -6.7227947e-01   5.1493612e-01   5.9624025e-01  -3.2511935e-01   6.5853296e-01  -9.0858646e-01  -9.6060929e-01  -3.2066481e-01   8.5780370e-01  -5.5563663e-01  -6.2094876e-01   8.8198740e-01  -9.4980171e-02   2.2511835e-01  -6.5897448e-02  -1.2456843e-01   7.6157710e-02  -4.2705413e-01  -2.5151734e-01  -8.3518836e-02  -5.0219494e-01   9.1744880e-01   5.5297179e-02  -2.1064747e-01  -4.8569149e-01  -9.8487960e-01  -9.7537675e-01  -5.2287601e-01   8.9472460e-01   4.6802399e-02  -7.1898746e-02  -8.9669194e-01   1.0034594e-01   8.1006900e-01  -6.2168114e-01  -8.9666347e-01  -1.0202027e-01   2.7537792e-01  -3.7341611e-01  -3.8033918e-01  -6.5353977e-01   6.8360475e-01   9.8486360e-02   4.4607119e-01   8.4421531e-01  -5.2725354e-01   5.1001593e-01  -5.8914698e-01   8.1990399e-01  -1.5626693e-01   6.1841839e-02   5.0363240e-01  -6.1816154e-02  -9.5876566e-01  -2.4901011e-02  -5.1066884e-01  -2.6252423e-01   9.5263244e-01  -9.4531770e-01  -6.7414253e-02  -3.5182795e-01  -6.9982304e-01   9.5429023e-01   9.6050341e-01   2.3373911e-01  -5.9218066e-01  -3.5859468e-01   4.2339726e-01  -6.7072256e-01   6.5482304e-03  -3.2802461e-01   2.2770809e-01  -1.3618690e-01  -9.9360273e-02   4.5558971e-01  -4.5936110e-01  -9.7061226e-02   3.9866774e-01   9.9403899e-01  -8.9140944e-01  -9.2378295e-01  -2.5953980e-01  -1.2870947e-01  -6.5744792e-01  -9.5909464e-01  -8.0187880e-01  -3.0190913e-01  -7.8028859e-01  -2.7646779e-01  -6.0596937e-01   4.8639266e-01   2.5677747e-01  -2.0008571e-01  -7.7357223e-01   3.6804501e-02   3.5100921e-01  -9.1284851e-01  -7.8686339e-01   8.3179968e-01  -2.0095159e-01  -1.0399704e-01   6.1758141e-01  -3.0270202e-01  -3.8259270e-01  -8.9672091e-01  -5.0382949e-01  -9.6989865e-01   5.6035706e-01  -5.0480811e-01  -5.6255420e-01  -6.5712864e-01   8.9192001e-02   6.8808794e-01   7.7268176e-01   5.1321656e-01   3.2291777e-01   2.2491228e-01  -6.9528387e-01  -3.6291636e-03  -5.5053361e-01   5.5839885e-01  -9.0475885e-01   3.2185179e-02   7.2846339e-01   2.3601823e-01   3.0246340e-01   7.0292068e-01   8.0919427e-01   4.8125800e-01   7.3194552e-01   7.8860527e-01  -6.8190687e-01   8.3735605e-02   5.3175995e-01   7.1371865e-01   5.9656400e-02   1.2071310e-01   5.7368734e-01   2.8814967e-01   2.5034269e-01   9.4363437e-01  -8.2666636e-01   4.1410943e-01   6.9378162e-01   5.7599955e-02  -9.7823420e-01   1.7712739e-01   8.5883806e-01   2.1230163e-01  -3.7875949e-01  -1.0253800e-01   7.2612865e-01   9.8866810e-01   2.8262132e-01  -6.5197876e-01  -3.8905387e-01  -2.0211965e-01  -5.2333063e-01   4.5248648e-01   7.3486256e-01   2.0326572e-01   1.0438402e-01   9.8300867e-02  -3.9602820e-01  -4.2063062e-01  -9.5732903e-01   3.0829497e-01   4.1591465e-01   2.0367959e-01   5.4490084e-01   7.9792773e-01  -8.0167512e-02   2.7595390e-01  -3.7326135e-01  -1.0058493e-01   3.6220760e-01   4.7773050e-01   8.3382267e-01  -4.5096874e-01   3.7517413e-01   5.5445373e-01  -3.5678724e-01   1.3970504e-01  -1.5334351e-02  -2.2959444e-01  -9.7199658e-01  -5.0784751e-01  -3.3308310e-01   7.2230164e-01   3.0656290e-01  -9.8087771e-01   4.3177457e-01   7.6013749e-01   8.8180670e-01  -5.0992597e-01   7.2331034e-01   4.0798511e-01  -6.6911906e-01  -6.7988585e-01   8.0782686e-02  -4.0516185e-01   9.0050129e-01  -6.9087020e-01  -1.1089254e-01  -7.8326818e-01  -3.6024658e-01   1.3588117e-01   7.8109601e-01  -6.6674977e-02   6.4801186e-01   4.1333225e-02   5.5647876e-01  -6.3354726e-01   9.5471124e-01  -4.9368944e-01   3.5895325e-01  -9.6942770e-01  -5.0327686e-01   8.2651729e-01   1.4613872e-01   1.0125897e-01   2.7429785e-01  -7.4822861e-02  -3.6062081e-01  -8.5677144e-01   8.0708678e-01  -8.7055827e-01   5.4890647e-01   2.5555817e-01   5.7842031e-02   9.1209260e-01   3.4494097e-01   4.0404035e-01   3.1757028e-01   7.7541392e-01  -7.8614668e-01  -2.9519670e-01  -7.8033860e-01  -5.7873247e-01   4.4635428e-01   3.3199760e-01   4.6383206e-01   2.4470778e-01  -2.2600489e-01  -4.3556835e-01   2.8908826e-01   6.7636563e-01  -4.8762290e-01  -5.2598219e-01   6.2932899e-02   8.9284415e-01   7.2862957e-01   3.9278772e-01  -4.6803685e-01   9.9669394e-01  -7.1825166e-01  -4.7908962e-01   3.5336004e-01  -3.6474651e-01   3.0505244e-01  -5.0300617e-01  -6.4272783e-01   7.3892656e-01   4.8299203e-01  -7.3679087e-01  -7.3956910e-01   3.6372632e-02  -4.9069578e-01   1.0763901e-02   9.6620122e-01   5.8788444e-01   4.3178469e-01  -2.0113454e-01  -6.1410945e-01   9.8387583e-01   1.2322712e-01  -8.0856500e-01   9.9148376e-02   7.6140760e-02   9.1832957e-01   4.2881091e-01  -9.7772652e-01  -7.9818439e-01   6.0134569e-01  -7.4339539e-01  -7.0382101e-01  -5.9138432e-01  -3.6812181e-01  -9.7346258e-01  -6.4543842e-01   7.5962998e-01   4.5324758e-01   1.3037786e-01   8.9506856e-01   2.8327746e-01   3.3337238e-01   5.2338477e-01   5.6068510e-01  -3.1853243e-01   3.3642929e-01  -4.2123450e-01   6.3953072e-01  -1.3043628e-01   8.1748175e-01   4.0707969e-02  -8.3586973e-01  -5.0286755e-01  -2.4058501e-01   5.8807846e-01   8.9383230e-01  -9.2184248e-01   5.1669281e-01   6.0449750e-01   5.8424368e-01  -6.6026355e-01  -5.2583774e-01   3.9115053e-01   3.7645520e-01   3.3246053e-01  -9.4452193e-02  -5.5072560e-01  -5.0938741e-01   4.9599669e-01   2.7452820e-01   6.4297958e-01  -4.6361006e-01   5.1595374e-01  -2.4126681e-01   6.9020914e-01  -8.3935371e-02   7.5637558e-01   3.7065728e-01   8.5667372e-01   8.3216291e-01   4.3439857e-01   2.7795583e-01  -5.9835739e-01  -8.9059944e-01   8.0541529e-01  -6.0389939e-01  -9.4592064e-01   4.0179087e-01  -8.7908053e-01   6.2177211e-01   2.1647104e-01   1.2491560e-01   7.5558683e-01   8.6015851e-01   3.8902294e-01   3.7360123e-01   5.7165895e-01   5.5377550e-01   8.9130716e-01  -1.0340235e-01  -4.5007905e-01  -7.8527544e-01   9.2086771e-01  -5.4628699e-01   5.4609192e-01  -9.5777301e-01   6.8788904e-01  -5.9328024e-01  -8.1440180e-01   3.8469460e-01  -8.6143701e-01  -7.0605028e-01   4.9406663e-01   3.5857927e-01  -7.8583948e-01   5.8848816e-01  -3.7435901e-01  -6.8407995e-01  -5.3338688e-01  -5.9668187e-01  -4.0898241e-01   6.4884883e-01   3.2692627e-01   4.1405845e-01  -5.5108123e-01  -8.3560186e-01  -8.4165970e-01   7.5165219e-01   2.5460449e-01   2.6062800e-01  -8.9020454e-01   4.4769285e-01  -9.2263556e-01   9.9571031e-01  -7.9007511e-01   7.7126879e-01   2.9628138e-01  -6.3954278e-02  -2.6489077e-01  -8.0244157e-01   2.7325683e-01   1.4523082e-01   7.0516859e-01   7.4024955e-01  -2.8421750e-01   1.7967923e-01   7.9730280e-01   3.8473798e-01   7.1353778e-01  -7.1522766e-01   9.4620491e-01   4.4917313e-01   9.1173627e-01  -9.1478051e-01  -4.2721298e-02  -9.7762537e-02   5.8793586e-01  -8.9131645e-01   5.1352545e-01  -3.3581915e-02   4.6782723e-02  -3.6931816e-01   4.8901406e-02  -5.9768537e-01   2.4221909e-01  -7.8889495e-01   8.3002526e-01   2.5488063e-01  -1.5911508e-01   1.7165229e-01   6.4930819e-01  -4.2354298e-01  -5.2303395e-01  -6.0516972e-01   8.6723114e-01   5.6833681e-02  -3.4081862e-01   2.3404591e-01  -8.1224688e-01   3.0003481e-01  -3.0884662e-01  -6.2844447e-01  -5.2123061e-01   4.0283041e-01   2.2416231e-01  -3.2473636e-01  -1.0723027e-01  -3.2496576e-01  -8.8263989e-02  -1.2549043e-01   5.6158301e-01  -8.0062944e-01  -8.2968244e-01   8.2772930e-02  -2.2807553e-01  -4.5598569e-01  -9.8439397e-01  -9.6852478e-02  -8.4602129e-01  -6.2907502e-01  -3.9916389e-01   7.3255122e-01   3.8958932e-01   4.7248056e-01   7.7003385e-02  -1.4663470e-01  -8.5929928e-01  -7.0566849e-01   9.1027588e-01   4.9702097e-01   2.0466687e-01   8.1556664e-01   6.0987515e-01  -8.8480649e-01   2.4634522e-01   2.4313273e-01   2.7416539e-01  -3.2096042e-01  -2.0366808e-02   3.5823072e-01  -5.8722587e-01  -8.5788192e-01   2.2746029e-01   9.1271295e-02  -2.0049449e-02   6.4104469e-01  -2.5750674e-01  -1.1519940e-02   5.9664362e-01   4.1099026e-01  -7.5477612e-01   7.7710841e-01   6.7345492e-01   8.4257212e-01  -9.9990751e-01   8.0476913e-01  -7.8290930e-01  -1.5438152e-01   5.4844815e-01  -3.4799570e-01  -9.0860947e-02   7.1194918e-01  -2.4453615e-01   1.6567373e-01   7.9225562e-01  -6.4060605e-01   7.6011438e-01   3.4870183e-01  -4.6301881e-01  -4.9390608e-01   3.5672410e-01  -6.9757963e-01   6.5168045e-01   5.7840682e-01  -9.6083881e-01  -5.8553428e-01   6.3266626e-01   8.2297690e-01  -4.7677594e-01  -3.0262984e-01   9.5766338e-01  -1.5176753e-02  -8.1196389e-01  -4.6153664e-01  -4.5107593e-01   5.8836588e-01  -4.1767606e-01  -7.8294383e-01  -2.1722497e-01  -1.9799817e-01  -6.5327871e-01   1.2182674e-01   2.8290385e-01  -4.5703468e-01   7.6546721e-01  -5.0107734e-01  -3.2184907e-01  -7.5492958e-01  -5.2338518e-01   5.6218679e-01  -3.2996764e-01   9.5984474e-01   2.1341813e-01   4.5340678e-01  -9.8003656e-01   9.9593277e-01   7.5109805e-01   9.0278697e-01  -2.3858519e-01   1.4857689e-01  -8.8826262e-01   6.8086157e-01  -2.0012737e-01  -9.8819165e-01   9.4568048e-01   3.3904980e-01   5.2669116e-02   9.0214948e-01  -5.8465684e-01  -5.2589324e-01  -5.1521657e-02  -7.3748588e-01   7.5381237e-01   9.9563697e-01  -8.4296706e-01  -9.6939273e-01  -7.4420089e-01  -4.0157413e-01   2.1866334e-01   1.3989563e-01  -1.5453022e-01   1.8659747e-01   4.7980809e-01   4.0710807e-01  -2.8694922e-01  -1.6729272e-01   3.5819785e-01   8.2044920e-01  -4.8444522e-01  -1.4770002e-01  -3.2624414e-01   4.9980109e-01  -9.0486046e-02   1.1261129e-01  -3.1843976e-01   4.0215604e-01  -4.5223925e-02   1.3572264e-01  -6.8961052e-01   6.9221107e-01  -9.5007500e-01   7.0295841e-01   4.1984330e-01  -4.8892699e-01  -8.2889890e-01  -8.4682346e-01   6.2235135e-01  -5.1515334e-01  -5.8923369e-01   6.5900905e-01  -3.7353063e-01   6.2748222e-01  -8.6735418e-02  -5.0331342e-01   9.6317616e-02   3.0104931e-01   6.6289786e-01   8.0152372e-02   6.3991682e-01  -3.6774621e-01   2.5591885e-01   3.8993592e-01   4.4037702e-01   6.9254013e-01   7.5166770e-01   4.5014940e-01   6.4949756e-01   9.4849322e-01   9.3855806e-01  -6.4152238e-01   6.9703605e-01  -7.4931790e-03   3.5846505e-01   4.7026766e-01  -5.9429989e-01   7.1700378e-01  -5.7942049e-01  -6.2252600e-01  -7.6331997e-02   4.3167159e-01  -3.3698656e-02  -8.0894406e-02   6.0092769e-01   1.4845583e-01   4.0328469e-01   9.0010292e-01  -3.1923192e-01   6.5499103e-01  -3.4246752e-01  -9.9564704e-01   7.0254082e-02   3.0954418e-01   9.3203547e-01  -1.3149402e-01   8.2612428e-01  -3.2301137e-01   2.1036072e-01   5.4868511e-01  -5.1781194e-03   5.2806447e-01   6.9121424e-01  -1.4849100e-01  -5.0143424e-01  -3.8037678e-01  -3.4207707e-01  -6.5225213e-01  -3.9675538e-01  -2.5711676e-01  -9.0502092e-01  -5.3767470e-01  -3.9052271e-02  -2.6701944e-01  -4.2366513e-01   7.0550905e-01   2.4001286e-01  -5.4388906e-01   5.3794844e-01   5.0515497e-01   8.5041265e-01  -5.1124751e-01   6.0910435e-01   4.8581201e-01   3.8323381e-01   2.1908473e-01  -5.0533444e-01  -9.3573863e-01   7.9432999e-01  -3.8486207e-01  -5.6895794e-01   6.3635803e-01   2.2981787e-01   4.9785336e-01   8.1597118e-01   2.9342871e-01   3.4833185e-02  -2.5076640e-01  -3.3101691e-01   7.7557653e-01  -8.5962881e-01  -1.4759370e-01  -5.0276706e-01   7.4744969e-01  -3.3112751e-01  -3.9805410e-01  -7.2249663e-01   5.2985470e-01   6.7313894e-01  -6.6633853e-03  -9.1375222e-01  -7.0607083e-01   3.8831537e-01  -4.3483185e-03  -6.6078536e-01   2.8271996e-01   3.0429156e-02   7.8904047e-01  -4.8558087e-01   8.3385574e-01   5.6366313e-01  -3.3136345e-01   4.7696563e-01  -5.9684099e-02   2.7486083e-01  -5.6780033e-01   9.7325727e-01   7.8792881e-01   6.0764935e-01   4.3326521e-01   8.5445812e-01  -1.8571570e-01   2.6049335e-02  -6.5555401e-01  -3.4446968e-01   3.4027456e-02  -7.4308521e-01   5.5485548e-01   5.2503443e-01   8.4817783e-01   5.4408939e-01   6.6149814e-01  -1.8661713e-01  -4.6680544e-01   1.1915969e-01   2.1586679e-01  -5.0664281e-01   3.8370367e-01  -9.9752590e-01  -5.7231463e-01   8.3827945e-01   1.6014876e-01  -1.8879765e-01  -7.5791027e-01  -5.2951526e-01  -9.9436922e-02   8.0543904e-01   4.7678489e-01   9.1422247e-01  -4.7424598e-03   5.5457854e-01   6.8712897e-02  -2.5660489e-01   5.9323333e-01   7.1973452e-01  -9.6173988e-01  -4.6625974e-01  -2.3317828e-01  -5.0491141e-01   9.5457942e-01   1.6497875e-01  -9.2142348e-01  -7.9018745e-01  -5.7901028e-01   6.1024672e-01   8.6709382e-01  -3.7346067e-01   6.5109127e-01  -2.3008474e-01  -8.6376830e-01   6.2720922e-03   4.2414534e-02   3.7616550e-01   6.6658788e-01   9.7656717e-01   5.2886778e-01  -4.5568052e-02  -5.4511020e-01   8.1136168e-01   2.6155351e-01  -7.4588023e-01   2.1960241e-01   9.3500938e-01   3.6596578e-01  -7.4753735e-01  -7.8228409e-01   6.5602345e-01   4.6778028e-01   5.7984449e-01   2.2161045e-01  -3.6850008e-01   8.0208308e-01   2.4206936e-02   2.7175638e-01   6.6833042e-01  -8.3789464e-01   3.3522882e-02   8.1845512e-01  -1.8232951e-01   6.7838627e-01  -7.7586700e-01  -1.1002497e-01   6.1589703e-01   7.4486058e-01  -7.0391798e-01   4.3332693e-01  -5.5095728e-01   6.0156674e-01   3.1231822e-01  -2.3718101e-01  -9.2914373e-01  -1.7722245e-01   9.7999203e-01  -4.2314966e-02  -6.7582193e-01   2.4173234e-01   2.6961199e-01  -9.7000620e-01   8.7610981e-01  -7.6995612e-01   9.5105597e-01   9.9101923e-01  -1.5352260e-01   5.6463437e-01  -6.5665866e-01   3.7556778e-01   2.0720606e-01  -4.9620922e-01   5.0812289e-02   3.3069179e-01   3.3297253e-01  -6.0472232e-01   9.3326996e-01   2.0548841e-01   6.4865374e-01  -5.8235093e-01   1.0030632e-01   4.5984851e-01   6.3787639e-01   3.4923866e-01   7.3803325e-01   9.6368721e-01   9.6176265e-01  -2.7300534e-01   5.0013983e-01  -3.4653253e-01   2.1818785e-01   9.0739651e-01   6.7018657e-01   1.1923029e-01  -3.5681777e-02  -2.3386954e-01  -9.0572522e-01  -1.6749326e-01  -4.8169920e-01   3.0548230e-01   5.6984133e-01   7.9873091e-01   3.7777477e-01  -2.6739739e-01  -7.5433875e-01   1.4227873e-01  -2.7806628e-01   2.0823501e-01  -8.8972317e-01  -9.3008574e-02   6.4781379e-01  -6.4046567e-01   5.6361525e-01  -8.5858444e-01  -7.7789756e-01   9.2567764e-03  -7.9510794e-01   7.2413685e-01   2.8440520e-01  -6.5972528e-02   5.3928360e-01   5.2141016e-02   8.4221850e-01  -4.0923278e-02  -4.3728857e-01  -5.8477836e-01  -2.5747196e-01   1.6891509e-01  -2.1603424e-01  -2.7877533e-01   9.1589574e-01  -3.1849682e-01   2.2187979e-01  -2.9644349e-01   1.4913993e-01   6.6799776e-01  -6.9622746e-01   3.3387029e-01   8.7604082e-01   8.7491354e-01  -4.4510193e-02  -5.7149703e-01   2.0585214e-01
  -2.0151568e-01  -4.0903972e-01  -7.2746974e-01  -5.1765626e-01   8.5020936e-01   8.1471368e-01  -1.2880181e-01  -4.9938856e-02  -9.2621276e-01  -1.2121393e-01   4.5411158e-01  -2.9594914e-01   9.5544849e-01  -4.9336349e-01  -9.8378038e-01  -2.1538085e-01   1.5621148e-01   2.9966882e-01   1.4196282e-01   7.0790815e-01  -2.6144860e-01   9.3385349e-01   8.2825334e-01   7.8366465e-01   8.5680652e-02   2.3399805e-01   5.9890685e-01  -5.0257465e-01   5.4995758e-02   8.1321246e-01   5.9750127e-01  -2.4696327e-02   9.0287945e-01   2.2314727e-01  -3.1432948e-01  -3.0643686e-01  -4.2820765e-01   7.8117131e-01   9.8696522e-01   2.9083229e-01   2.4805566e-01   6.7100311e-01   6.1058834e-01   3.5274866e-01  -6.8445946e-02  -9.8929194e-01   1.3469658e-01   7.6364937e-01  -4.0951144e-01  -4.9331597e-01  -6.6826879e-01   7.2919653e-01  -2.1787076e-01  -1.1658727e-01  -1.8172816e-01  -5.7923731e-01  -6.4113290e-02  -1.5340183e-01  -8.9082277e-01   1.2503546e-01   4.4811944e-01  -1.1915866e-01  -9.8872761e-01  -8.7149002e-01  -5.7938174e-01   7.4615943e-01   1.3350161e-02  -8.7182913e-01  -1.8772299e-01  -8.5484419e-01   1.1175788e-01  -2.3048342e-01  -5.4295885e-01  -7.9205233e-01  -3.9847117e-01  -6.6762788e-04   5.6316762e-01  -1.7560342e-03  -5.6807796e-01   5.8250678e-01   1.6358210e-01  -9.1247507e-01  -6.8477418e-01   4.2688928e-01  -5.1959014e-01   1.8395522e-01  -3.2918860e-01   2.5872248e-01   7.2596596e-01  -5.7732692e-01   3.2293486e-01   6.4137953e-01   9.0434156e-01   8.1073559e-01  -5.9447301e-01   9.2706323e-01  -6.1536378e-01   2.2759632e-01   7.1757503e-01   7.1310204e-02   2.9750674e-01   3.1019061e-01  -9.7310969e-01  -2.8764140e-01   8.3857474e-01  -5.8613389e-01  -8.7422304e-02   3.7842900e-02  -2.5741330e-01  -7.7806338e-01  -8.5481420e-01  -1.4971030e-01   6.9585578e-01  -5.6643321e-01   9.5681452e-01  -5.8151895e-01   8.3989142e-01  -7.8290590e-01   8.2472116e-02   2.5825684e-01  -1.7627504e-01  -6.9543162e-01   4.6668058e-01   9.4528222e-01  -8.2232310e-01  -3.6759774e-01   3.1996658e-01   8.7070978e-01   3.3823160e-01  -7.0732387e-01  -3.2993034e-01  -9.1403082e-01  -1.9846898e-01   5.1716368e-01   1.4526603e-01   1.0139918e-01  -3.5447818e-01  -3.9578961e-01  -1.9202813e-01   7.1050287e-01   3.4773444e-01  -3.9580449e-01  -7.1274310e-01  -8.8937412e-02  -5.1031091e-01   2.8960276e-01  -4.1996956e-01  -1.2704073e-01   4.1849760e-01   6.3303674e-01  -1.5208495e-01   5.6770668e-01   3.3021294e-01   6.8562984e-01   9.0971110e-01   3.2512770e-01  -1.7148509e-02   7.6763914e-01   3.3072046e-01  -1.0353185e-01  -3.6944545e-01   4.0961746e-01   3.4273585e-01  -9.8917479e-01  -9.5839049e-01  -3.8485061e-01   4.5307192e-01   6.2251422e-01   8.6562132e-01  -3.3137081e-01  -4.0875173e-02  -7.2701015e-01  -9.1825515e-01   7.5072467e-01   9.4444561e-01  -8.2396687e-02  -5.2470328e-02  -8.4152791e-01  -2.8396941e-01  -7.1656711e-01  -5.1798157e-02  -5.9862394e-01   7.7009623e-01   6.2650247e-01   2.3970716e-01   4.6190013e-01   3.1717483e-01   4.9419499e-01  -3.8486508e-02  -1.8715516e-01  -5.0623091e-01   3.4412794e-01  -5.1909037e-01  -5.8646651e-01   5.1251904e-01   9.6702244e-02  -5.4652261e-01   7.9738338e-02  -7.2738713e-02  -6.8506510e-01  -4.9705310e-01  -8.7074009e-01   8.7722771e-01   3.5079608e-01   5.8637771e-01   3.4306718e-01   1.0935405e-02   1.1942509e-01   8.8756879e-01  -9.7001975e-01  -4.9941426e-01   4.3370346e-01  -4.9522761e-01  -3.8921633e-01   5.2122379e-01  -1.5015426e-01   7.5279192e-01   2.1414427e-01   2.1505701e-01  -4.2766282e-01  -7.5179824e-01  -3.3697548e-01  -2.6036675e-01   3.8881430e-01  -5.5772833e-01   6.2121854e-01   1.8267755e-02  -2.4743354e-01   1.8693702e-01  -7.1201125e-01   5.6186758e-01  -7.3891286e-02  -4.8036956e-01  -2.5968324e-01   4.2920572e-01   4.3356737e-01   1.4799507e-01  -7.5326565e-01  -6.5368838e-01  -5.9821262e-01   8.1306410e-01  -3.3258642e-01   3.8659411e-01   6.5791057e-01  -8.4801546e-01   7.7628586e-01  -8.7192783e-02   5.0445232e-01   4.0418478e-01   1.0259879e-01   9.6796540e-01  -5.6148685e-01   2.6835575e-01  -6.4169742e-01  -7.0957720e-01   7.3762885e-01   1.3970293e-01   3.8110063e-01  -2.4152163e-01  -2.7504801e-01   7.8496204e-02  -2.5156041e-01   9.7867030e-01   7.5583134e-01  -5.4585744e-01  -2.5107671e-01  -3.5550272e-02   3.7761628e-01  -8.5093261e-01  -3.2903193e-01   5.9460685e-01  -4.4399205e-01  -4.5799159e-01  -4.7960036e-01  -8.1011529e-01   7.4239977e-01  -1.7284143e-01   2.9974772e-01   1.6139919e-01   2.4024789e-01  -2.9818950e-01   8.5902949e-01  -6.6568800e-01   3.6902534e-01  -7.6983434e-01  -9.7786253e-01  -7.9260021e-02  -7.9529504e-01   3.7490113e-01  -9.7162893e-01   6.6492799e-01   3.3616369e-01   1.3402195e-01  -1.6908499e-01   5.7272574e-01  -2.2987690e-01  -7.1391445e-01  -3.3903383e-01   5.1925424e-01  -9.3453563e-01  -1.4577036e-02   9.9216134e-01   8.4278383e-01  -9.1250786e-01   6.7337472e-01  -8.2969641e-01   2.6567745e-01   5.6463528e-01  -4.2380548e-01   1.4001296e-01  -6.1989628e-01   3.5799715e-01   1.2173127e-01  -8.0777270e-01   7.9360922e-01  -9.5139321e-01   5.3251284e-01  -3.3378180e-01  -7.9103948e-01  -8.9543283e-01  -7.7340642e-01  -4.7527551e-01   1.8620839e-01   8.6534868e-01   5.8339113e-01  -8.5191779e-02  -1.9296268e-01  -1.1131902e-01   4.2369381e-01  -8.2106756e-01  -6.1989140e-01   3.8371100e-01   5.7050820e-01  -9.8578138e-01  -5.3049337e-01   8.2651760e-01   5.7243522e-01  -6.5962594e-02   5.9738413e-01  -3.8543317e-01  -6.7018441e-01  -7.6736631e-01   5.4596938e-01   1.3040173e-01   2.9602869e-01  -5.9874813e-01   5.4745201e-01   3.5697387e-01  -6.5569216e-01  -2.6287372e-01  -8.8451115e-01  -8.2696427e-01  -3.0274794e-01  -8.2412062e-01   9.0248645e-01   5.3115425e-01   5.3727969e-02   1.4275334e-01   4.6758634e-01   9.5287623e-01   8.9472336e-01  -5.1245246e-01   2.8642751e-01  -3.7259938e-02   2.8917198e-01  -9.5792718e-01   1.3324000e-02   9.5362020e-01   7.1056966e-01   8.2861154e-01   5.5925676e-01   4.2535114e-01   3.3524915e-01   9.5480196e-01  -7.4535198e-01   3.1009349e-01   2.6868747e-01   1.3155712e-01  -6.2572289e-01   6.0900194e-01   8.3418356e-01  -3.5048756e-01   9.2089707e-01  -8.8041761e-01   4.8030729e-02   2.8608018e-01  -2.6227706e-01   6.3353873e-01  -1.9951879e-01  -2.5569650e-01   3.0111593e-01   7.4666377e-01   5.8348748e-01   5.9350839e-01  -1.9352919e-01  -5.9943163e-01   1.2579764e-01  -8.3218119e-01   6.7064941e-01  -6.7132356e-01   9.1301283e-01  -4.1357826e-01  -9.5692563e-01   6.8452640e-02  -4.4908779e-01  -2.3420800e-01   8.3299046e-01  -4.0410929e-01   6.6369252e-01  -7.6215219e-01  -1.1776382e-01  -2.8797221e-01   3.0232303e-01   2.0364280e-01   5.8891998e-01   9.9096421e-01   8.5060709e-01   3.7463969e-01  -6.2763164e-01   7.1875889e-01   8.8105587e-01   7.9646428e-01   5.1055055e-01   8.2293869e-01  -5.1668785e-01  -6.6982331e-01  -7.5655351e-01  -6.4355803e-01  -6.4259936e-01   1.3108561e-01  -3.6690785e-01  -3.8778634e-01   4.1214272e-01  -8.0418496e-01   7.9639755e-01  -6.6621279e-01  -2.4729432e-01   5.1560316e-01  -8.4148820e-01  -6.7888132e-01   7.2675110e-01  -8.4305288e-01   5.1675371e-01  -6.9644015e-01   5.5362495e-01   3.3607564e-01  -9.5092595e-01   7.6874648e-01   1.8542395e-01  -9.3686368e-01  -5.6753055e-01   6.2880723e-01   8.4400063e-02   1.6338576e-01   8.4653128e-02   6.7418501e-01  -1.3215278e-01  -6.1448051e-01   9.2135430e-01   1.8189126e-01   9.7066221e-01   9.8940441e-01  -9.0428084e-01  -4.2993960e-01  -7.7007219e-01  -6.3822962e-01  -6.0863760e-01   3.8750762e-01   2.7768186e-01  -9.2457340e-01   8.3559287e-01   2.8416843e-01   6.6958823e-01   3.2258928e-01  -9.9317087e-01   7.5864235e-01  -5.1277797e-01  -4.8119304e-01  -9.0723253e-01  -9.1808132e-01   6.8835157e-01  -5.1260527e-01  -2.6341108e-01   7.1614577e-01   7.6196675e-01   4.5145565e-01   5.3804630e-01  -5.3997474e-01  -7.0617996e-01  -8.5158130e-01  -5.4903908e-01  -5.7236846e-01   9.9338551e-01  -3.3439566e-01   1.4189681e-01   9.4656490e-01   6.4874636e-01  -8.5522084e-01   3.2572173e-01   9.2121371e-01  -2.9267430e-02   7.2142720e-01   2.8762140e-01  -5.6787188e-01  -6.2631500e-01   4.6858646e-01   3.3205025e-01   9.5274194e-01  -8.2682467e-01  -9.5718504e-01  -1.2619583e-01  -2.8504747e-01  -8.0311211e-01  -9.8792242e-01   3.4104443e-01   6.7926875e-01  -9.3807211e-01   7.9035492e-01  -2.9630147e-01  -7.2095852e-01   6.6071222e-01   5.2437230e-01  -1.2229095e-01   2.9926074e-01   1.9541954e-01   5.5558740e-01   3.7022127e-01   8.3345188e-02   7.2138644e-01   9.2540738e-01  -3.8536203e-01  -6.4675216e-01  -8.6433464e-01  -5.4679066e-01  -3.6542720e-01   9.5678891e-01  -7.0266698e-01  -2.3682186e-01  -2.7550405e-03  -7.8990456e-01   1.0689279e-01   7.0052174e-01   8.1096684e-02   3.1459902e-02  -4.7783440e-01  -6.1688620e-01   5.0431265e-01   8.0288889e-01   5.9909689e-01  -9.9841774e-01   1.5240539e-01   6.7602786e-01   5.5906807e-01   6.0822140e-01  -2.4185684e-01  -3.3159168e-01   4.7274322e-01   9.1764174e-01   7.6687012e-01   7.4265499e-01   3.8549886e-01   9.7966900e-01   2.0604763e-01   4.7833386e-01  -5.4526922e-02  -2.5199304e-01   4.9345613e-01   4.1360194e-01  -3.0286740e-01   8.2024423e-01  -7.6037484e-01  -9.4578200e-01  -8.1963292e-01  -7.9143620e-01   4.0400227e-02  -7.0367390e-01   8.8803398e-01  -4.8948069e-01   6.3859976e-01  -6.2888508e-01   2.6868888e-01  -5.0300040e-01   9.9389003e-01   2.8168533e-01   1.2743156e-03  -9.4459485e-01   6.0499826e-01  -8.0783856e-01   8.2759445e-01  -3.4608229e-01   8.8743379e-01  -5.4686846e-01  -5.2434109e-01  -5.8878363e-01   6.8345481e-01   3.7276254e-01  -8.1297724e-01  -7.6099516e-01   9.5788923e-01  -8.1702630e-02  -1.3288411e-01   2.0214870e-01  -7.2400659e-01  -1.8644500e-01   9.3179687e-01   6.1557274e-02   7.5107321e-01   7.6986244e-01  -1.0212908e-01  -2.5545163e-01  -3.3019981e-02  -3.9459526e-01   8.8209997e-01  -4.1439622e-01  -4.5530095e-01  -5.9094709e-01  -5.8998341e-01  -9.2206380e-01  -1.9733606e-01   1.1270686e-01   4.0939342e-01   8.2240813e-01  -2.5360403e-01   5.1846845e-01  -8.6663537e-01   6.1652094e-01  -9.3437886e-01   7.8785757e-01  -6.9012631e-02  -5.0846953e-01   4.4358821e-01   8.9447577e-01  -8.1121883e-01   6.8359195e-01   1.2668151e-01   5.4938243e-01  -7.1161846e-01   4.0472793e-01  -8.7957899e-01  -4.2175761e-01  -2.2581851e-01  -4.1250986e-01   1.9365884e-01   3.2826838e-01  -4.6646910e-01  -8.6812867e-01  -4.2435383e-01   2.4822594e-02   6.9478152e-01   1.7556449e-01   1.6819310e-01  -3.1834647e-01  -9.6710624e-01   7.4323844e-02   1.4272860e-01  -2.7935965e-01  -9.7537858e-01  -9.9633574e-01  -5.0219351e-01   3.8569426e-01  -8.0985881e-01  -2.9873857e-01  -6.3301533e-01   8.7498507e-01  -9.2977147e-01  -7.1678687e-01   8.9618426e-03  -5.1389917e-01  -7.0932587e-02   1.6430780e-01   1.1687434e-01  -3.2373747e-02  -9.8217194e-01   3.7598091e-01   6.4977520e-01   6.6078859e-02  -9.2929456e-01   7.8890603e-01  -7.1150240e-01   1.0655653e-01   5.6632384e-01   4.9870517e-01   8.2334949e-01   1.6896608e-01   2.7360704e-02   8.9434483e-01   6.0122563e-01   3.0707012e-01  -5.2767185e-01   7.7402785e-01  -7.5100574e-01   7.0569165e-01   7.3754988e-01  -9.5138064e-01   6.6769596e-01   6.5954835e-01  -5.1624878e-02  -2.5044643e-01  -6.3566215e-02   2.0357329e-01  -9.2961594e-01   8.5279253e-01  -5.4302230e-01  -5.4133882e-01  -5.4921549e-01  -3.2478115e-01   3.5304561e-01  -7.3429619e-01  -7.0989800e-01   3.7727233e-01  -8.9216851e-01  -1.2119938e-01  -8.8314452e-01   2.0542988e-01   6.3796838e-01  -5.4254043e-01  -8.1823521e-03  -9.2762617e-01  -1.9185826e-01   1.9592518e-02   3.4109204e-01  -6.2789239e-01   8.1161881e-01   2.5633448e-01   5.4360871e-01  -1.2078534e-01   7.2284249e-01  -5.9813650e-01   7.6824867e-01   8.3674028e-01   6.8736794e-01  -7.9874142e-01   7.4125615e-02  -4.8636594e-01   1.1888274e-01  -8.7010464e-01  -2.1184588e-01   8.0078399e-01  -5.5574527e-01   1.7623469e-01   7.4246688e-01  -9.5550284e-01  -4.1765903e-02   2.2830434e-01  -4.2999968e-01   1.2028082e-01  -1.1241870e-02   7.2648722e-01  -8.1650956e-01   6.1418489e-01   1.9736549e-01  -8.8847017e-01   9.0185665e-01  -5.8405551e-01  -7.2477313e-01  -6.2828343e-01  -1.1910233e-01  -8.6971445e-02   5.8574831e-02   7.2359988e-01  -9.6593684e-01   3.7296626e-01   1.2954539e-01   9.2463068e-02   8.1356465e-01  -2.2845012e-01  -4.9397810e-01   5.1820791e-01   3.6236004e-01  -8.1945548e-01   3.1837819e-01   5.3950500e-01  -5.5110135e-01   5.2863189e-01   5.1093706e-01  -7.1878562e-01  -8.9610193e-01   9.8523840e-02   5.9097523e-02  -1.8686566e-02  -9.3676979e-01   6.9335609e-01  -1.7523147e-01  -6.3967005e-02  -8.1893125e-01  -9.6287537e-01  -3.4214183e-01   7.6280407e-04  -5.8978205e-01  -1.4520230e-01   3.9029991e-01   3.1066188e-01   8.3000737e-02  -7.1729108e-01   3.1712313e-01  -7.0420958e-01   4.3678273e-01   3.0783389e-02  -4.8376329e-02  -3.9389374e-01  -5.9382712e-01  -2.5662333e-01   5.6628845e-02   6.1231778e-01   9.6295286e-01   4.4303634e-01   8.4155734e-01   1.8040174e-01  -7.7020180e-01  -6.8575657e-01   9.7959160e-02  -8.8311761e-02  -3.3354187e-02  -7.0001775e-01  -9.1508627e-01   9.1066473e-01   2.0730286e-01  -3.5010372e-01   1.5949205e-01  -3.7708868e-01  -9.4404123e-01  -3.7764653e-01  -6.4100428e-01  -5.9641199e-01   9.5719644e-01   4.5824768e-01   5.3609778e-01   1.4202049e-01   4.3687323e-01  -4.9394095e-01  -7.2643943e-01   5.3247393e-01  -3.5439054e-01   4.3817609e-01   6.3883744e-01   8.2113688e-01   5.0541395e-01   4.8470208e-01   5.8415277e-01  -9.1750926e-01  -1.0747491e-01   1.0546807e-01  -7.0797017e-01  -5.2961969e-01  -7.9049497e-01  -9.5599457e-01  -2.6460336e-01   1.5312210e-01   1.4172625e-01  -9.1909627e-01   8.8339788e-01  -2.5796197e-01   6.2616216e-01   3.8102941e-01  -9.6750453e-01   5.8245942e-01   6.1183181e-01   3.2502184e-01  -4.5354985e-01  -8.4435782e-01   8.9843029e-01  -3.4042715e-01  -1.7175686e-01   8.2652997e-02   4.3588073e-01   7.7940572e-01  -5.8790552e-01  -8.5225731e-03  -9.1275904e-01   6.2933297e-01   3.0107507e-02   4.1521655e-01   5.1295629e-01  -9.1286199e-01  -8.9503384e-01  -6.5218139e-01   3.9538448e-01  -7.2781445e-01   9.3775858e-01  -7.6048986e-01  -8.3010845e-01  -2.9750410e-01   3.1397494e-01  -4.0427130e-02   3.0889083e-01   9.3837464e-01   6.5032919e-01  -1.7035159e-01  -5.1699033e-01  -5.3207381e-01   7.4037418e-02   2.4591283e-01  -8.6185523e-01   1.3919983e-01   4.4962684e-01  -7.5423050e-01  -8.2595999e-01   7.8380909e-01   1.9715434e-01  -4.7971839e-01  -8.5812382e-01   7.3769337e-01   7.6911232e-01  -4.5632113e-01   9.8984984e-01   8.7042710e-01  -6.6522029e-01   4.3761477e-02   8.4397271e-01  -4.8242815e-01  -2.1917596e-01   7.1574542e-01  -4.1850627e-01  -2.0439922e-01   9.6774375e-01  -6.6377069e-01  -8.9544219e-01  -5.0553233e-01   4.1657909e-01   7.7323460e-01  -3.0100221e-01  -3.2115601e-01  -5.9205384e-02   1.0576760e-01   6.0433272e-01  -5.9884283e-01  -6.2280905e-01  -6.1551178e-01   3.5781631e-01   4.4203275e-01  -4.0072357e-01   3.1069484e-01   8.8452264e-01   2.6919169e-01  -7.2006134e-02  -5.8975041e-01  -7.5370194e-02  -7.4334944e-01   6.2216955e-01   8.9560023e-01   2.3588353e-01   4.7837829e-01  -3.9831257e-01  -3.8103452e-01  -7.4976628e-01  -6.6154809e-01   6.3986715e-01  -7.7487061e-01  -8.1303872e-01  -5.4578856e-01   6.8094735e-01  -3.6810024e-01   6.5674870e-01   2.2787452e-01  -4.3698901e-01  -6.1383294e-01  -5.6950359e-01  -5.1696536e-01   7.1307072e-03  -9.3344824e-01   8.0304710e-01  -2.9876313e-01   3.7462768e-01  -7.5269253e-01   7.2331193e-01   4.3743821e-01   6.1270320e-01  -9.4917426e-01   4.2966890e-01   3.2807047e-01   9.7265650e-01  -9.8506367e-01   3.6614282e-01  -6.7114939e-02  -4.5369306e-01  -2.1830322e-01   3.2354141e-01   6.9981501e-01  -6.1057523e-01  -4.6573384e-01  -8.5714356e-01   9.5074241e-01   9.6015719e-02   6.1429626e-01   5.7422963e-01  -4.2065764e-01  -9.2133306e-01   5.6057596e-01  -8.1999703e-01   4.5182444e-01   9.3033173e-01  -5.5094733e-01  -4.9180030e-01   4.6909565e-01   1.2613186e-01  -8.8681278e-01  -7.9248532e-02   5.7528239e-01   8.2456383e-01  -2.6792585e-01
   4.7126262e-01  -6.9475463e-01   7.9745685e-01   8.6931114e-01  -7.3796901e-02  -3.8283445e-01  -4.6100619e-01  -3.8651451e-01  -8.9723637e-01  -2.6111068e-01  -1.4145601e-01   7.6197814e-01   4.0948597e-01   1.7544552e-01  -5.8181874e-01  -7.7758674e-01   5.8497957e-01  -9.6413508e-01   9.8324026e-01  -7.2946699e-01  -4.8840878e-01  -8.4578270e-01  -5.5773604e-01   4.4602509e-02   8.6113737e-01   8.4283987e-01  -9.3704052e-01   6.2337290e-01   1.2061785e-03   7.3777320e-01   5.9185012e-01  -5.7498865e-01   4.8675574e-01  -2.5098750e-01  -6.4642055e-01  -7.5568175e-02   3.8603885e-01  -4.4119906e-01   8.7089967e-01  -9.5334967e-01  -3.0983870e-01  -3.5056489e-01   8.0235307e-01  -5.5312205e-01  -1.5573415e-01   5.1668444e-02  -8.7753944e-03   2.6264371e-02   8.9696714e-01   9.8784861e-01  -4.7759967e-01  -4.3923157e-01  -9.5147860e-01  -5.7478014e-01   9.2824346e-01   8.0332984e-01  -8.3088611e-01  -5.7213124e-02   7.0751618e-01  -7.4028121e-01   2.7523129e-01  -7.5658514e-01  -4.5288706e-01   6.1926787e-01  -3.0768750e-01   9.2594985e-01   6.8697160e-01  -1.3342084e-01   7.8866337e-01  -7.9327331e-01   1.6601574e-01  -8.9759618e-01   5.8547462e-01   5.6725174e-01   7.7352820e-01  -1.1971676e-01  -8.1041763e-01  -2.9380172e-01   9.0340168e-01   7.2803248e-01  -2.9121163e-01   6.5527212e-01  -4.6982548e-01   5.0460827e-01   5.6405157e-01  -2.1691799e-01   1.1764091e-01  -2.1790944e-01   8.6337547e-01   4.7404384e-01   8.8678921e-01  -7.7860102e-01   6.2170170e-01   5.8888884e-01  -1.2648112e-01  -2.9370337e-01  -9.6447613e-01  -8.8143026e-01  -8.1725128e-01  -3.8947088e-01  -1.6997344e-01   9.0885695e-01   1.4028138e-01  -7.0598829e-01  -8.9473485e-01   2.3069110e-03  -2.2430003e-01  -6.1551756e-01   7.9798063e-01  -2.3706013e-02   9.2920624e-04   3.5388283e-01  -3.6552720e-01  -7.2509792e-01   3.3261581e-01   6.5884246e-01  -4.6893763e-02   2.3063190e-01  -1.4729188e-01   2.1139369e-01  -3.8528994e-01  -6.3027132e-01  -5.4169562e-02  -6.1778217e-01   8.4519076e-01   4.7294229e-01   6.0603104e-01  -1.7994573e-01  -5.6294181e-01   8.8669574e-01   5.8256648e-01  -3.3988724e-01  -2.0463083e-01  -7.3453450e-01   9.8536296e-01   9.8776697e-01  -7.7600181e-01   2.1111027e-01  -6.5214364e-02  -7.0610018e-02  -1.6830673e-02   5.5057176e-01  -7.8589085e-01   2.2230559e-02   3.0082456e-02  -9.9320860e-01   6.6693831e-01  -4.1639792e-01   6.6026816e-01  -4.7985781e-01  -5.6232055e-01   6.0109998e-01  -4.9297195e-01  -4.0517698e-01  -7.6381338e-01   8.3157110e-01  -2.7037716e-01  -5.1571936e-01   1.7286450e-01  -7.4385723e-01  -9.7654449e-01   1.1418506e-02   8.2599482e-01   9.6444760e-01   7.8277133e-02   3.4457613e-01  -6.8531218e-01   8.0271615e-01   8.6770805e-01   9.4357975e-01   6.3408279e-01  -4.6729160e-01   2.5734305e-01   4.0758753e-01  -1.2719279e-01   9.1937408e-01  -2.3029923e-01   9.2499372e-01  -4.8383248e-01   8.1960144e-01  -9.5787148e-01  -8.3845078e-01  -2.4116995e-01  -2.0551889e-01  -5.7526149e-01   9.2807579e-02   1.7065059e-01   1.4249131e-01  -9.6365049e-01   2.4906246e-01  -4.3656210e-01   7.8472807e-01  -4.3459586e-01  -2.1346380e-01  -1.9789719e-01  -1.9116187e-01  -3.4151575e-01   7.3617922e-01  -3.5034262e-02   4.1804635e-02   3.7620989e-01  -5.0650607e-01  -8.2803539e-01   6.6002407e-01  -2.1786509e-01  -4.5636354e-01   3.7985703e-01   8.4897285e-01   8.3882631e-01  -5.2056549e-01  -7.6806696e-01   3.3774145e-01  -3.7808124e-02   3.1242855e-01  -7.8037861e-01   9.1187026e-01   5.3901899e-01   2.2627612e-01   1.9532227e-01  -2.8003711e-01  -4.7130353e-01   2.9989686e-01  -8.1886462e-01  -5.5077546e-01   5.2652919e-01   6.2620876e-01  -1.7109531e-01  -3.5360793e-02   8.6346765e-01   2.2178363e-01  -3.7326090e-02  -2.0868182e-01   7.7274265e-01   4.4057654e-01   2.9120615e-01  -7.9495266e-01   6.1392862e-01  -4.3392762e-01  -8.6801590e-02   2.5324715e-01  -4.2548313e-01   6.3075427e-01  -2.0524440e-01  -4.5534802e-01  -4.4343984e-02  -1.5925190e-02  -7.5506761e-01  -1.5732300e-01   8.0861846e-01  -4.0643365e-01  -6.2719313e-02  -8.5215449e-01  -2.0363296e-01   8.5498269e-01   1.1331237e-01  -3.9749091e-01  -4.4500357e-01  -2.1956396e-01  -8.1797272e-02   8.9911163e-01   9.4975614e-01  -4.5598723e-01   6.4243496e-01   7.2161174e-01   3.9921851e-01   8.0345071e-01  -6.6620578e-01   9.2403124e-01  -5.4321240e-01  -2.9041732e-01   5.8312542e-01  -2.5610339e-02   8.4159138e-01  -3.9811080e-01  -2.9913403e-01  -3.1744454e-01  -3.2383726e-01   1.7864481e-01  -1.1428689e-01   7.8579401e-01  -2.1463477e-01  -8.1148732e-02   7.6086960e-01  -8.6575706e-01  -5.0781197e-01   8.3655812e-01   7.2336720e-01   4.7896989e-01   6.0433399e-01  -8.5869647e-01   4.7592539e-01   1.2728660e-01   8.1185151e-01  -1.9079306e-01  -7.5942236e-01   3.9685883e-01  -2.9789705e-01   5.9285190e-01   1.7060352e-01  -5.6846685e-01   7.5755296e-01  -3.7856511e-01   1.6489820e-01  -4.2666501e-01   9.7794246e-01   4.6643487e-01   6.2879188e-02  -4.8323840e-01  -6.0357120e-01   1.1965567e-01  -7.5292580e-01  -6.8291801e-01  -7.5343004e-01  -9.1084838e-01  -7.8638331e-01  -4.6704793e-02  -8.3157930e-01   3.2346887e-01  -6.0535419e-01   9.3916883e-01   6.6036794e-01  -3.2677380e-01  -5.0279485e-01  -3.7805348e-01   5.7063426e-01  -1.2795372e-01  -8.9217401e-01   4.7681636e-01  -9.7073523e-01  -7.5059265e-01  -8.7097198e-01   7.7926161e-01   7.4585755e-02  -8.0246546e-01   6.1646927e-01  -6.8672118e-01  -8.3214247e-01  -5.5885145e-01  -5.0995351e-01  -6.7125777e-01   4.3317927e-01  -1.9324836e-02   9.8582580e-01   2.9020633e-01  -8.0123787e-01   9.6143469e-01   3.2261377e-01  -9.8540185e-01   3.8002840e-01   5.7176728e-01   4.4947222e-01  -4.5854956e-01  -6.4918727e-01  -9.7092884e-01   6.5688643e-01  -4.3932566e-01  -4.7514249e-01   6.4628684e-01   3.9111801e-02  -7.2614538e-01   6.0552037e-01  -3.4905195e-01   4.6607739e-01   5.0651681e-01  -4.8336284e-01  -9.2652732e-01   2.3955691e-01  -7.9230917e-01   1.8040503e-01  -5.3253750e-01  -4.6631963e-01   8.4153458e-01   8.6896510e-01   7.7694884e-01  -5.8630804e-01   8.5055788e-01   7.6854625e-01   1.3660750e-01  -7.4516519e-01  -3.1251530e-01   3.0250700e-01  -5.4806952e-01  -8.7354597e-01  -4.5176244e-01   4.6957524e-01   3.9107659e-01   9.2816633e-01   6.3029483e-02   6.8330087e-01  -6.7396969e-01  -1.3355753e-01  -6.7401263e-01  -2.5478232e-01  -8.1753510e-01  -2.9169256e-02  -2.2537432e-01   9.1903808e-01  -6.2851380e-01   8.1988625e-01  -2.4937371e-01   4.7697002e-01  -4.5515356e-01   9.6576914e-01  -1.9087489e-01  -5.4407026e-01  -7.7353105e-01  -6.5462255e-01   9.0981175e-01   9.9562289e-01  -8.0484480e-01  -6.5706366e-01   5.5968682e-01  -2.3390328e-01  -3.4927081e-01  -5.8497775e-01  -4.1808935e-01  -5.9190321e-02   3.9445060e-02  -1.0815811e-01   9.4812272e-01  -7.6115416e-01   4.9601407e-02  -2.0720257e-01   9.7268134e-01  -3.3469652e-01  -3.7961188e-01  -7.1292963e-01   7.1059113e-01   5.9066078e-01  -2.6151327e-01   9.7212796e-01  -4.4416369e-01  -4.2496373e-01   6.9473434e-01   1.1384850e-01  -9.9192384e-01  -1.5840405e-01   8.5751774e-02   4.3387317e-01  -2.1754074e-01   7.2578384e-01   2.8749337e-01  -3.2945331e-01  -3.2480009e-01  -1.1577880e-01   5.4037844e-02  -8.9046681e-01  -2.3004861e-02   6.6994396e-01  -3.3240688e-01   4.6790962e-01  -1.7677879e-01   2.5538944e-01  -7.3736246e-01   8.8420781e-01  -1.7045627e-02   6.3731887e-01  -6.8387638e-01   2.8340802e-01  -7.0330200e-01   3.2535406e-01  -1.1271876e-01   4.2921211e-01  -1.6764851e-01  -7.7418208e-01   8.4535143e-01  -1.8727677e-01  -2.8331497e-01   5.1583845e-01  -5.5193372e-01  -8.8004227e-01  -9.8879896e-01   8.4734116e-01  -3.8193048e-01  -1.3587504e-01   7.9961318e-01   5.4361790e-01   5.6462668e-01  -2.7402587e-01   8.3158164e-01  -9.6795400e-01  -4.6576720e-01  -4.1676337e-01   6.9137958e-01   6.4523483e-01  -5.6325788e-01  -6.4409986e-01   6.3478961e-01  -1.2116555e-01   6.7778798e-01  -7.8655061e-02   2.0126096e-01   3.9433899e-01  -4.5548060e-01  -8.6917082e-02  -3.0872816e-01   2.6117815e-01   1.9651601e-01  -8.1185079e-01  -2.1642022e-01  -1.5612035e-01  -6.1837966e-01   2.1145274e-01  -2.3360832e-01   7.9211232e-01   4.4625076e-01  -6.3470374e-01   4.8432960e-01  -4.9378147e-01   2.8698614e-01   7.2669523e-02  -6.2029430e-01  -9.2238422e-01   9.6905816e-01  -7.8682196e-01  -3.6228600e-01  -5.1107316e-01  -1.7882845e-01  -8.5165464e-01   9.6420136e-01   4.9104864e-01  -7.8946380e-01  -5.2189305e-01  -2.4670925e-01   2.8071799e-01   1.5974476e-01  -6.8201095e-01  -9.7012899e-01  -3.3673062e-01   8.8844261e-01   2.7969766e-01  -8.9231797e-01   4.1525931e-01   6.5297569e-01   4.2494970e-01   5.7190183e-01   1.8045433e-01  -7.7047088e-01  -6.9595347e-01   2.7982387e-01   2.9044948e-01  -3.9470724e-01   2.2666390e-01  -6.7353716e-01  -3.6342704e-01  -2.7433393e-01   4.1259209e-01  -9.5743694e-01   6.2142768e-01   3.9589512e-02   7.4684910e-01   1.4039547e-01  -1.3129834e-01   5.7011631e-01  -4.5624628e-01  -1.9177435e-01   3.4963515e-01  -6.3391597e-01  -1.0561649e-01   2.8523346e-01  -1.5031233e-01   4.1784937e-01  -7.8339703e-01   8.4927294e-01   8.4441501e-01  -8.5344433e-01  -1.4548229e-01   3.8555438e-01   4.3590522e-01  -5.1209937e-01   2.7698359e-01   4.9248610e-01   6.3306053e-01  -4.6832810e-01  -5.3566778e-01  -7.7922429e-01  -6.0571618e-01   2.9894019e-02   9.1317453e-01   1.2877854e-01  -5.8171236e-02  -2.8371712e-02   5.1083805e-02  -4.3809325e-02  -2.1982535e-01   4.5675928e-02   8.2007171e-01  -9.3781040e-01   8.3259098e-01  -2.0687246e-01   8.0784854e-01   2.2432746e-01  -5.7294912e-01  -1.0937753e-01  -9.1894298e-01  -5.1893254e-01   3.7374878e-01  -7.0063321e-01   2.8591592e-01  -5.6815134e-01  -6.4364202e-02  -8.8935891e-01  -6.1140366e-01   2.1280998e-01  -1.5982943e-01   7.8881046e-01   8.7200182e-01   2.5765576e-01  -5.0600120e-01   6.5570301e-01  -1.5680843e-01  -4.5163114e-01   1.3673104e-01  -9.2679807e-01  -7.6407043e-01   7.6509367e-02  -2.0674878e-02  -4.8694206e-02   2.5502032e-01  -7.0297300e-02   1.4716278e-01  -7.0327666e-01   4.1369096e-01   7.1872869e-01   9.0927542e-02  -4.1723546e-01  -5.9487051e-01  -8.0157475e-01  -1.6686428e-01   1.8650524e-01   6.7712324e-01  -2.2178406e-01   7.5191511e-01  -1.7433277e-01   8.5159446e-02   4.4828754e-01  -3.2214393e-01  -9.1728529e-03  -9.1595662e-01   2.9788803e-01   2.9899760e-02  -3.7964625e-01   2.8683589e-01   3.7251146e-01  -1.2513849e-01   3.7299206e-01  -2.5789734e-01   5.1335232e-01   6.7824980e-01  -7.2918934e-01  -2.0344592e-01  -3.1367318e-01   5.2948559e-02  -4.3337300e-01  -5.7898877e-01   6.5438227e-01  -9.5620464e-02  -1.6774219e-01   5.8478701e-01  -9.2268372e-01   5.2669471e-01   4.2579864e-01   9.4408431e-01   4.1064685e-01   8.5914037e-01   1.9027300e-01  -1.3095500e-01   9.2494149e-01   7.8550068e-02   5.9373856e-01  -4.3112475e-01   2.4924851e-01   2.6064893e-01  -7.1077503e-01   6.8180684e-01   8.7786601e-01  -1.1067853e-01   5.5572232e-01   4.6921050e-02  -5.5104600e-02  -6.5772099e-01   9.1319979e-01  -9.6929772e-01   1.6785239e-01  -5.2454788e-01   2.7053416e-01   1.5853362e-01   4.0200119e-01  -7.8251795e-01   3.0107055e-01   7.9249204e-01  -1.5555332e-01  -3.5124810e-01  -6.7150663e-01   5.1075385e-01  -9.5240703e-01   8.6211985e-01  -4.5615993e-01   4.2788951e-01   6.0217558e-01  -9.6734540e-01  -1.2745755e-01  -2.5640843e-01  -8.4304446e-01  -5.3259045e-01  -9.0689495e-01  -1.2989377e-01  -9.4288934e-01  -8.2781081e-01   4.7307186e-01   9.0775640e-02  -5.1480798e-01   1.4076850e-01  -6.9710478e-01   7.8906568e-01  -4.6851918e-01  -3.3256623e-01   7.2347572e-01   2.2456684e-01  -8.6338121e-01  -5.1178632e-01   9.6178351e-01   4.6209463e-01   7.5724008e-01   1.4646710e-01   7.5310316e-01   2.9283614e-01   2.3847457e-01   8.1865526e-01   3.1191506e-01  -7.2897945e-01  -4.9001567e-01   1.6294762e-01   9.5265715e-01  -2.2655754e-01  -3.4678188e-02   2.3557382e-01  -4.4571338e-01  -7.3601426e-01  -9.3333099e-01   4.9618114e-01   4.7213354e-01   7.4149135e-01  -4.6419878e-01   1.9962785e-01   1.5846977e-01  -6.7603272e-01   2.3854274e-01   5.6888714e-03   7.5299077e-01   2.2357572e-02   9.7240769e-01  -3.1788594e-01   8.4469841e-01  -8.0332147e-01   1.8469020e-01  -7.4613229e-01  -2.9856308e-01  -6.1187301e-01  -9.6898096e-01   6.7405516e-01  -4.9335494e-01  -7.9743295e-01   9.5555876e-01  -6.0716653e-02  -2.5328580e-01  -3.2671102e-01   7.7384904e-01   8.4087112e-02   4.8892049e-01  -9.7418025e-01  -7.7111065e-01   3.4039258e-01  -4.4560095e-01  -4.2618201e-01  -1.7960209e-01  -3.1497136e-01  -5.3428937e-01   5.9142559e-01   1.5205507e-01   2.7233282e-01   8.2274988e-01   5.2651826e-01   8.9747252e-01   2.1204974e-01  -9.5614090e-01   9.7491599e-01  -4.7802857e-01  -4.6947083e-02   5.5826637e-01   9.0346429e-01  -5.0578398e-01  -4.2267494e-01  -2.7532716e-01   1.5301923e-01   5.8692126e-01  -6.7820577e-01   8.0735056e-01  -3.8534661e-01   9.8391502e-02   5.9896527e-01   6.4915386e-01   7.2462967e-01  -9.2079572e-01   7.4927423e-01   2.9576699e-01  -5.5993481e-01   7.9561879e-02  -5.7507905e-01   7.2667400e-01   8.5418390e-01   9.4669607e-02   9.9236494e-01  -5.6130161e-01  -4.6681604e-01   3.8002218e-02  -7.0692963e-01   1.4159187e-01   1.4172901e-01  -7.4006293e-01  -4.8348920e-01  -3.8414128e-01   7.8357427e-01  -6.3670180e-01   2.3880772e-01   6.9533191e-01  -4.4439767e-01  -4.8810535e-01   9.6983024e-01  -3.2074288e-01  -6.9198647e-01  -9.4906620e-01   5.0418775e-01  -6.0265853e-02  -5.5332873e-01   1.0043727e-01  -8.1597222e-01   9.3362151e-01   3.7021890e-01  -3.4925565e-01  -4.1795267e-01  -6.1874931e-02  -8.3775365e-01   6.1318666e-01  -9.6030283e-01   4.6523301e-01   5.5397907e-01   7.7720108e-01  -9.2707422e-02   6.6163829e-01  -8.2810162e-01  -7.2831518e-01  -7.2661107e-01   7.5494869e-01   1.2197853e-01  -5.5712663e-01  -5.3878412e-01  -8.0537666e-01  -3.9570396e-01   5.4750337e-01   3.8548205e-01   6.0594151e-02  -9.9381817e-01   6.6809865e-02   7.7921348e-01  -3.6639674e-01  -5.2080298e-01   7.7292441e-01   4.6478556e-01   4.1823289e-01  -9.5782344e-02   7.9376802e-01   4.6571194e-01  -9.0758179e-01   9.3863193e-01   8.0433139e-01   1.9217007e-02  -8.7200518e-01  -3.5350306e-01   7.1311011e-01   5.0332508e-01  -6.9051952e-02   5.7193762e-01   9.5963783e-01   6.1554097e-01   5.6352850e-01  -4.4794725e-01   9.3515987e-01   1.2015570e-01   8.5597323e-01  -9.5549954e-01   8.7308406e-01   6.7953045e-01  -6.1770888e-01   3.7670704e-01  -8.7062992e-01  -9.9827867e-01   3.1569483e-01  -8.3278433e-01   3.9816800e-01   6.8814944e-01   4.4432562e-01   8.1265645e-01  -3.2766413e-01   7.0807910e-01   1.3153732e-01   5.7788227e-01   6.0663436e-01  -9.0062363e-01   8.4713988e-01   4.8918513e-01   3.2225085e-01   4.3838496e-01   8.9547758e-01  -1.3187307e-01  -7.4463341e-01   7.8528202e-01   2.4288557e-01   3.0131391e-01  -1.0696591e-01   1.5446324e-01   1.3311427e-01   2.4182733e-01  -7.6122140e-01   8.0727283e-01   8.6472392e-01  -9.2581303e-01   6.2089865e-01   6.9803291e-01   7.3016051e-01   2.6383069e-01  -2.3291292e-01  -4.9021726e-01  -8.9513459e-01  -3.6169909e-01  -9.2547096e-01  -5.1104345e-01  -3.9774554e-01  -7.8384784e-01  -2.1117661e-01   6.2745038e-01  -1.8552807e-01  -8.7553588e-01  -6.9344921e-01   4.6087653e-01  -3.4302460e-01  -8.0963121e-01   4.4192339e-01  -8.6144636e-01   2.3300720e-01  -3.0095704e-01  -7.0747920e-01  -1.1805986e-01   7.9710959e-01   2.5518439e-02   9.5581425e-01   5.5201141e-01   5.3589332e-01   3.4589433e-01   2.9376562e-01  -9.0914282e-01   3.8998351e-01  -2.0641813e-01   6.9526448e-01  -1.3344622e-01   9.7263489e-01   3.2204345e-02  -7.9378217e-02   4.0939844e-01   2.2587844e-02  -5.5229195e-02  -8.1131561e-01   1.8371391e-01   9.3702742e-01   9.2488859e-01   4.6739328e-01  -9.2659567e-01   3.5570135e-03  -8.2149471e-01   5.1842346e-02  -4.6361467e-01   3.9040695e-01   4.0508638e-01  -5.8031261e-01  -5.6758762e-01   9.9922833e-01  -5.7021641e-01  -1.3190536e-01  -7.6764526e-01  -3.3982431e-01  -8.6505421e-01   5.1532683e-01   1.2750858e-01  -6.0635541e-01   7.6307943e-01   1.1899876e-01   4.9921517e-01  -7.1696468e-02   6.1786251e-02  -6.4653588e-01
   3.0297770e-01   3.0176029e-01   3.1989568e-01  -9.1937707e-01   2.2136521e-01   9.7221408e-01   5.1692095e-01  -1.4036187e-01  -6.0615071e-01  -3.6948391e-01  -8.4468066e-01   9.9942813e-01  -3.0525101e-01  -8.0608884e-01   6.6527994e-01  -8.5017700e-01  -1.7827448e-01   4.0463188e-01  -3.4679191e-01  -3.9134569e-01   8.7701135e-01   5.0978029e-01   3.1937461e-01   9.3164739e-01  -9.4506019e-01   3.1052448e-01  -2.4163239e-01   6.1417358e-02   7.8096952e-01   6.3931454e-01   7.4990043e-01  -1.0764590e-01   9.7401350e-01   8.9724722e-01  -3.8148726e-01  -3.4256124e-01   1.6748526e-01  -5.5218899e-01  -3.4785453e-01  -8.5711676e-01  -9.2506029e-01   7.1358626e-02   6.0058076e-01   2.2463354e-01   4.4705834e-02  -2.7900002e-01  -5.1787547e-01  -1.8140994e-01  -9.4893181e-01   6.0931879e-01  -2.0298404e-01   6.3799586e-01  -2.1750542e-02   7.5755616e-01  -1.3195328e-01   8.5278820e-01  -4.3312966e-01  -1.6295206e-01  -6.1540922e-01  -2.3709231e-01   2.6908942e-01   7.6120565e-01   5.6186252e-01  -9.4360738e-01   4.4624836e-01   6.9052942e-01   4.4930606e-01   6.0927318e-01   5.9797696e-01   9.8547224e-02   8.9828590e-01  -6.4045521e-01  -5.6925407e-01   6.0879549e-01   6.0892525e-01   7.0272002e-02  -3.2690357e-03  -4.3771811e-01  -9.0985001e-01   5.4524429e-01  -5.7161555e-01   5.6202764e-01  -9.8479617e-01   2.3078506e-01   9.5291556e-01  -6.4205144e-01  -5.8259242e-01  -3.0228823e-01  -7.2774380e-01   6.2547711e-01  -9.4467078e-01   8.8996221e-01  -6.1483783e-02  -5.8773419e-01   3.2696275e-01   3.1915948e-01   2.3902056e-02  -5.2238394e-01  -4.2513185e-01  -9.8253937e-01  -9.0794392e-01  -7.6503094e-01   2.0289610e-01  -6.7295646e-01  -7.1772059e-01   3.5765063e-02   3.9981118e-01  -5.5427623e-01   1.8721767e-01   9.9745188e-01  -8.3351900e-01  -2.1725917e-01  -2.1512135e-01  -3.6460592e-01  -2.4051735e-01   5.9684512e-01  -1.2362975e-01  -3.1985493e-02   4.5668162e-01   6.3845093e-01   3.0947175e-01   2.5059988e-01   1.1577553e-01  -3.7640379e-01  -4.3452095e-01  -3.3602161e-01   2.8554212e-02   7.9437650e-01   1.8292995e-01  -4.9126245e-01   4.6160663e-01  -8.5657674e-01   3.0193841e-01   3.2384541e-01   4.4829022e-01  -2.7679305e-01   3.2014370e-01   5.6587082e-02  -5.0993088e-02   3.0441316e-01  -8.8888463e-01  -7.2953521e-01   9.5925334e-01   9.3197037e-01   1.2470536e-01   2.9921389e-01  -6.6437677e-01   5.2781411e-01  -6.1310509e-01  -9.6039749e-01   9.0880448e-01  -1.2265260e-01   2.9608422e-01  -3.9101377e-01  -5.0899419e-01   3.6101261e-01   9.2884794e-01  -5.9829589e-01  -2.2734010e-01   8.2539185e-01  -7.0225871e-01  -3.3627510e-01   4.0515194e-01   6.3887636e-02  -6.6699747e-01   3.1991944e-01   8.8636521e-01   5.7050115e-01   9.2430432e-01   9.4182044e-01   9.3155014e-01   5.1852907e-01  -6.9401424e-01  -6.9858187e-01   4.1939242e-01  -4.1540171e-01   2.9615392e-01   2.4044981e-01   1.2386631e-01   5.3313850e-01   4.5422694e-01  -4.0131144e-01  -9.6455716e-01  -2.3019824e-01   6.1235523e-01  -6.9738470e-01   1.8678555e-01   5.6464002e-01   6.8324890e-01   7.6261483e-01   3.9657078e-01  -7.7770532e-01   1.5482328e-02  -9.5670660e-01   2.5760547e-01  -1.7554235e-01   7.0937518e-02   7.7134570e-01  -3.7119921e-01  -3.6285692e-01  -5.8862602e-01  -2.6639446e-02  -8.7561994e-01   4.1217443e-01  -6.9560414e-01   8.8972956e-01  -4.4993718e-01  -3.6799616e-01  -7.0749692e-01   2.0544106e-01   1.2871018e-01  -2.7229975e-01   7.7286799e-02  -7.5006713e-01   4.9057857e-01   6.3302346e-02  -1.2984084e-01   1.9554607e-01  -4.0947954e-02  -7.6668338e-01  -9.3226616e-01  -1.5443539e-01  -7.7265676e-01   9.2503135e-03   3.0755625e-02  -1.1963492e-01  -5.6626905e-01  -9.2165551e-01  -7.6557050e-01  -4.9741405e-01   7.2161964e-01  -5.1893219e-01   7.7189627e-01   3.1223185e-01   5.4076916e-01   2.1719406e-01  -9.7891123e-01   1.7663598e-01   2.9831247e-01  -2.1314024e-01  -3.3477297e-01  -3.2299558e-01   2.0958505e-01   5.1580178e-01  -8.8317749e-01  -8.3914639e-01   5.9408696e-01   4.9985123e-01  -7.2848876e-01   3.1892916e-01   6.0655812e-01   1.9438197e-01  -9.1605924e-01   8.6189057e-01   2.3040162e-01  -8.0413840e-01  -1.2510549e-01   1.6959471e-01   3.5594303e-01   4.5513790e-01  -7.3273452e-01  -2.0027898e-01  -6.8021747e-01  -6.8827970e-01   4.3459670e-01   7.0535457e-01  -2.5744767e-01  -6.7951957e-01  -5.2341488e-01   1.4490249e-01   3.0266410e-01   2.6734744e-01  -1.9345268e-01  -8.6633089e-01   1.0989875e-01   9.6089964e-01   3.3387266e-01  -8.4581602e-01   4.8637079e-01   4.3159785e-01   7.8590815e-01  -9.5852074e-01  -8.8231948e-01  -8.7705608e-01  -6.4616621e-01   3.9444015e-01  -5.2441783e-01   7.2055798e-01   6.1208798e-01  -3.8589511e-01   8.2895611e-01   1.1496087e-01  -5.3089950e-01  -5.5670594e-01   6.6065352e-01   5.7525841e-01  -3.4311006e-01  -5.4345250e-01   4.5870431e-01   4.8871018e-01   4.1765183e-01  -5.0980072e-02  -6.0030922e-02  -8.5747381e-01   5.9119955e-01  -3.9720868e-01   5.0119038e-01   8.0879216e-01   2.4047011e-01   3.6135723e-01   1.0600854e-01   1.9829786e-01  -1.9399705e-01   2.8568627e-01   3.6774127e-01  -5.5481403e-01   4.5366481e-01   7.9832043e-01  -2.0469001e-01   9.1339244e-01  -3.3071095e-01  -9.1019524e-01  -2.8937529e-01   7.9908523e-02  -9.2859051e-01  -8.4175815e-01  -1.8773913e-01   9.5551148e-01  -5.3610834e-01   6.2961881e-01  -7.7196871e-01  -1.6270425e-01   7.0885405e-01  -9.2537051e-01   2.6162020e-02  -6.6095458e-02   5.1250697e-01  -9.6797305e-01  -8.2686796e-01  -5.4664826e-01  -8.4063878e-01  -6.6362298e-02  -1.9400450e-01   7.5461382e-01  -6.5613677e-01  -8.0360345e-01   8.7828219e-01   6.3065609e-01   5.6495258e-01  -5.8562132e-01  -9.2156996e-01   2.7674678e-01  -9.9339210e-01  -1.6344172e-01   3.4134700e-01  -3.2043858e-01   5.4501783e-01  -2.0687123e-01  -3.7162519e-03   9.8473495e-01   2.6323034e-01   8.8960035e-01  -4.5127333e-01  -1.2034476e-01  -5.3425629e-01  -2.7809562e-01  -5.1710160e-03  -6.1429643e-01   2.8619906e-01  -7.5038258e-02   3.4134800e-01  -9.9707611e-01   5.5285349e-01  -3.5942351e-01   8.5055578e-01   9.5736691e-01  -8.7945011e-01   5.6049192e-01  -4.5743950e-01  -3.4449639e-01   5.5301626e-01  -1.0743563e-01   4.7475879e-01   3.4576984e-01   5.2811966e-01   8.7772485e-01   6.0749505e-01  -8.4507832e-01   6.7451460e-01   7.3302448e-01   2.0912905e-01  -3.2042919e-04   5.1000982e-01   8.8250460e-01   6.7996201e-01   8.1407411e-01  -5.2535800e-01   9.5729684e-01   9.8326063e-01  -9.5033189e-01  -9.2084289e-01   6.8054914e-02  -4.5252360e-01  -4.3380575e-01  -3.4459001e-01  -2.2891862e-01   4.5033145e-01  -1.0783246e-01   3.5749887e-01  -1.6181686e-01  -2.1877559e-01  -6.5139780e-01   6.1837073e-01   2.3775126e-01   2.6184704e-01  -4.5000296e-01   7.7349913e-01  -3.1067706e-01  -6.0242302e-01   6.8640688e-01   6.8664540e-01   1.3424477e-01   6.2311501e-01   1.7472889e-01   5.5773735e-01  -4.9305178e-01  -2.0151839e-02   7.1445435e-01  -6.7631495e-01  -6.9331407e-01  -1.9496722e-01  -8.2806408e-02  -8.7011066e-01  -5.9900809e-01   2.0585325e-01   7.3616763e-01  -4.9016312e-01   7.4673711e-01  -8.8751811e-01  -7.3961669e-01   7.4675900e-01   8.7006407e-01   6.9040724e-01  -9.9655568e-01   7.6867771e-02   4.4760611e-01   2.0914561e-01  -5.9697661e-01  -3.6107224e-02   4.0662404e-02  -2.4700294e-01  -4.9737034e-01   6.0611465e-01  -5.8895925e-01  -4.7207833e-01   9.5006407e-03  -3.4176664e-01  -4.4225148e-01   8.4726161e-01  -5.0540468e-01   9.1922671e-01  -2.9315779e-01   5.5404423e-01  -5.9921191e-01  -4.2507371e-01  -7.6963754e-01   1.5255052e-01  -3.8662091e-01   5.3969589e-01   2.3302306e-01  -1.8099375e-01  -4.0498456e-01  -3.3196877e-01   4.9958639e-01  -4.0530205e-01   5.1339528e-01   7.2244830e-02  -3.1821297e-01   8.1466718e-01  -3.2760673e-01   8.6840617e-01  -7.5710853e-03  -5.0870643e-01   2.2499380e-02   4.7278989e-01  -5.7976960e-02  -1.9378436e-01   5.7660932e-01  -1.0612656e-01  -1.3094567e-02   2.9025650e-02  -4.1027847e-01   4.1724215e-01  -4.6780952e-01   7.3268275e-01   1.0781864e-03  -5.5324873e-01   4.2379586e-01  -4.6756409e-01  -6.0340231e-02  -6.1375187e-01   2.5597142e-01   4.1841845e-01  -9.9297497e-01   8.5845478e-01  -3.9368456e-01  -2.0369068e-01   7.1209597e-04   6.8331131e-02  -8.2628266e-01  -9.1548462e-01  -3.5907887e-01   6.1742808e-01  -1.8511220e-01  -4.9596243e-01   8.7132458e-01  -3.9290453e-01   1.5271740e-01   5.7626453e-01   1.0155014e-01  -2.9150350e-01   8.9212716e-01  -8.0601405e-01   8.2013954e-01   9.3442018e-01   3.3560655e-01   7.9151611e-01  -7.4916793e-01  -4.9389621e-01  -4.3886190e-01   5.7074459e-01  -8.9613651e-01   5.0505885e-01   7.5488536e-02  -3.1632124e-01  -7.1348404e-02  -3.7662209e-01   4.2219887e-01  -6.8143399e-01   9.6339236e-01   6.7946958e-02  -2.2446972e-01  -8.6031441e-01  -6.8741220e-01  -1.9780790e-01  -4.8201223e-01  -3.2395275e-01  -1.0836522e-01   2.5025140e-01   7.5313688e-03   6.5379252e-01   8.5961645e-01   9.2028813e-01   8.0153597e-01   1.2713969e-01  -8.7845784e-01  -5.9557219e-01  -8.0239748e-01  -6.1653062e-02  -7.0291903e-01  -1.9656078e-01  -4.0654713e-01   9.4760474e-01  -9.2963321e-01   8.2735695e-01   1.1106466e-02   2.7560603e-02   6.7786760e-01   5.7324059e-01   9.9626347e-01  -1.8571965e-01   6.7626475e-01   1.3068616e-01  -9.0690049e-01  -2.0848681e-01   8.8003414e-01  -2.6094912e-01   2.8737272e-02  -9.6011668e-01   5.5927973e-01  -3.7394969e-01   1.7546067e-01  -1.8283439e-01  -6.2198910e-01   9.1638958e-01  -1.9640845e-05   2.8332647e-01   2.3026740e-01   8.5636454e-01   6.9845390e-01   9.2310781e-01   7.9986538e-01  -7.1128661e-01  -5.9692514e-01   2.0962370e-01  -3.7390391e-01  -9.8458129e-01   2.7250729e-01  -3.1774428e-02  -5.9625169e-02  -2.9226222e-02  -2.9540142e-01  -9.6291820e-01  -4.0771058e-01  -8.6925246e-01   6.9632861e-01   2.7146213e-01  -6.8955715e-01  -1.1380694e-01   2.4917195e-01  -8.8952273e-01  -7.7619270e-01  -6.8310771e-01   1.3487752e-01   2.4110664e-01   6.6539006e-02   8.5690153e-01   7.0588964e-02  -7.4332201e-02   8.3709718e-02  -3.1171305e-01   5.2486521e-01   1.0606612e-01  -8.7724326e-01   2.5437372e-01   6.1021554e-01  -8.9002452e-01   3.4846310e-01   8.3829164e-01  -8.6608877e-01   4.0131299e-01   9.8726331e-01  -1.1924398e-01   9.2478340e-01  -5.2400496e-01  -1.4538765e-01  -4.1080979e-01   7.9123611e-02  -4.0965618e-01   1.1050237e-01  -9.9439974e-01   4.4811890e-01  -2.4076999e-01   9.5014113e-01   3.1236508e-01   1.2351882e-01  -5.5211094e-01   9.6598008e-01  -4.8090077e-02   4.0876100e-01  -5.7903856e-01   1.1633057e-01   3.1257395e-01  -1.8426548e-01   6.5059949e-02  -7.3930757e-02   5.7275778e-01  -3.9610804e-01  -4.8765727e-01  -9.9307622e-01   4.6653920e-01  -9.7575545e-01   2.0788715e-01  -9.3590681e-01  -5.5838486e-01   8.4586306e-01  -4.9354094e-01  -4.9914496e-01  -3.6601606e-01  -7.4263377e-01  -3.8224230e-01   3.0378513e-03   8.5923983e-02  -9.7509194e-01   6.1211614e-01   5.6181336e-01   5.7445896e-01   1.6848597e-01  -2.6150740e-01   1.7390445e-01   7.7330111e-01  -2.7966843e-01   3.0302544e-01   5.4234912e-02  -2.5680597e-01   9.3764414e-01  -4.5760288e-01   1.8430502e-01   9.6438338e-01  -3.5440188e-01   6.2444382e-01  -9.4292745e-01  -4.8420520e-01  -9.7027983e-01  -2.2571606e-01  -2.2361834e-01  -8.9590988e-01   1.9114620e-01  -2.4692886e-01   1.6488620e-01   6.9806789e-01   5.3837288e-03   3.4926723e-01  -3.7875168e-01   6.3871265e-01  -7.6186729e-01  -1.8145436e-01  -3.9776232e-01  -7.4006063e-01   5.4005837e-01   5.5813498e-01  -3.5707563e-01   7.4246709e-01  -6.9180473e-01  -9.0048200e-01  -4.9151414e-01  -6.4223664e-01   6.1663050e-01   9.8497410e-01  -1.3816660e-01  -1.2595592e-01  -1.6292051e-01   3.2743946e-01  -4.6231608e-01   9.6069887e-01  -7.7847242e-02  -1.8193077e-01   5.0066497e-01   4.3766271e-01  -8.3043396e-01  -1.5784720e-01  -7.8985023e-01   4.6454057e-01   8.1178022e-01   9.6260364e-02  -2.2699226e-01   3.9312454e-01   5.5153140e-01  -4.4320485e-01  -3.8713721e-02   3.4655563e-02   6.7654442e-02   7.9116518e-01   1.8879652e-01  -9.3258745e-01  -9.8816436e-02   4.0568221e-01   4.5007713e-01  -1.1054667e-01   1.7122544e-01   9.7213135e-01  -7.9458367e-01  -1.8736489e-01  -6.7473246e-01   6.8878308e-01   4.8468165e-01  -2.3917998e-01  -2.2045124e-01  -9.7433523e-01   4.2895537e-02  -9.7702819e-01   6.1717728e-01  -7.6282130e-01   3.1797211e-01   9.7550252e-01   4.7463680e-01  -3.9340962e-01  -1.6496531e-01  -9.3381472e-01   9.6389506e-01  -4.6907995e-01   2.5136445e-01   9.5651519e-02  -9.0861860e-01  -6.3359771e-01  -2.3237951e-01  -9.4682317e-01   1.7987943e-01   5.4710061e-01   5.5298684e-01   8.3512797e-01   6.0808919e-01   8.5924372e-01   1.8836995e-01  -6.5282891e-01  -5.6703511e-01   5.2280242e-01   2.1078855e-01  -7.3558315e-02  -9.6153550e-01   3.5581692e-01  -3.7966560e-01   5.9534922e-03  -4.3752333e-01   7.5643245e-01   7.4542984e-01  -9.3348366e-01   8.1686865e-01   6.4418058e-02   8.0255139e-01  -7.9916217e-01   9.8228647e-01   2.5884165e-01  -9.3040075e-01  -7.9425332e-01  -5.8883441e-01  -2.7176504e-01  -7.3805730e-01  -2.0773259e-01  -1.4678637e-01  -6.3782130e-01  -4.9042330e-01  -9.1953187e-01   9.5813422e-01   9.2473172e-01   1.2722519e-01  -8.7620938e-01  -3.6346413e-01   9.0045648e-01  -2.2432577e-01  -6.2863930e-01   9.1194080e-01  -5.3782123e-01  -2.7372862e-01   5.5775780e-01   2.7267723e-01   4.5760875e-02   7.9658508e-01  -9.9590278e-01   9.1060803e-01   4.5156796e-01  -1.3102364e-01   1.3864775e-01  -3.6496891e-01  -6.1113130e-01  -6.7193931e-01  -2.7671536e-01  -4.7494665e-01   5.2485219e-01  -3.0251912e-01   4.7946627e-01  -3.8740352e-01  -6.2784267e-01   6.9001154e-01  -2.9929941e-01   6.5210268e-01   6.6815771e-01   7.9438735e-01  -6.4816516e-01  -5.7948219e-01   9.2852375e-01  -9.0122998e-01  -7.5487763e-01  -7.1706281e-01  -4.2770956e-01   2.9440102e-01   7.2108143e-01  -7.9330308e-01   9.2341184e-01   2.7939363e-01  -6.7691413e-01   2.1978628e-01   7.0859009e-01   1.4774520e-01   5.5849551e-01   4.8084099e-02  -2.2456707e-01   7.9253105e-01  -6.0637750e-02  -5.3260101e-01   7.4153762e-01  -9.3619033e-01   9.0508738e-01  -2.7971649e-01   3.7415443e-01   3.8063092e-01  -8.7537763e-01   9.6353652e-01  -1.5466045e-02   4.2784424e-01  -9.7217812e-01   2.2634748e-01  -3.7053748e-01  -2.6332191e-01   1.4992208e-01   6.9193782e-01   6.3812545e-01  -9.7664161e-01   7.1210118e-01   1.1162445e-01  -6.3162151e-01   8.7844607e-01  -3.5588033e-01  -3.8629703e-01  -7.9114918e-02  -2.4856236e-02  -8.5372967e-01  -9.1125682e-01  -1.6822470e-01   2.8242776e-01   6.5687548e-01  -2.0774692e-01  -2.6477044e-01   3.3654688e-01  -6.4399205e-01  -2.9393187e-02  -6.3201197e-01   4.8046699e-01   5.7937362e-01  -9.4312324e-02  -1.0070447e-01   9.0649485e-01  -7.8098079e-01   6.9361588e-02   4.9665185e-01  -6.2954791e-01  -6.4487516e-01   7.5189058e-01  -5.2506816e-01   4.1407637e-01   1.0610888e-01   3.3182015e-01  -3.4211074e-01  -4.6259037e-01   7.8048241e-01   2.1865058e-01  -1.2935329e-01   2.5877563e-01   3.7658360e-01   7.9529574e-01  -9.8306043e-01   9.4875691e-01  -6.3706734e-01  -9.2202527e-01  -3.5462489e-01   4.2118591e-01   6.5104698e-02  -8.9289618e-01   9.0485374e-01  -5.5259779e-01   6.9317297e-01  -9.1953164e-02  -2.3568243e-01   3.9405401e-01  -6.3064268e-01   6.2958154e-01   4.1133273e-02  -1.0000417e-01  -8.8335086e-01  -8.8223716e-01  -3.2169124e-01   4.6288136e-01  -7.3827934e-01   2.2214732e-02   6.0805049e-01  -7.2139041e-01  -7.0509895e-02  -3.5987936e-01  -4.6666241e-01   5.0609515e-01  -7.6616060e-01   5.8473124e-01  -7.4345763e-01   7.4053894e-01  -2.0643472e-02   5.0939473e-01   8.8037135e-01  -5.1773950e-01   6.0952957e-01   8.2508668e-01  -1.6145437e-01  -9.2537911e-01  -8.2458221e-02  -1.5628548e-01   2.7580014e-02   3.4209739e-01   4.1456307e-01  -3.8327656e-01  -3.9265107e-01  -2.1937046e-01  -1.2579692e-01   7.7773816e-01  -7.2532856e-01   4.4466859e-01  -7.8076339e-01   4.0852966e-01   4.7232832e-01  -7.0970013e-01  -7.5933991e-02  -6.2209865e-01  -7.5351392e-01   5.0275896e-01   6.2550351e-02   5.0806457e-01   5.8779334e-01  -9.2988895e-01   6.5217512e-01  -8.4065547e-01  -4.0170863e-01   3.5212835e-01
  -9.8112085e-01  -9.3960997e-01   3.7213757e-01  -8.1700387e-01   1.2968417e-01  -3.9729882e-02  -6.9126822e-01   3.4373599e-01   4.7977342e-01   8.8355667e-01   7.6980732e-01  -4.7450901e-01  -4.0969606e-01   8.5561463e-01   7.2420597e-01  -6.8200381e-01  -1.6966253e-01  -2.0393586e-01  -9.6061479e-01  -9.4013558e-01   1.2839280e-01  -1.1279352e-01   2.1566043e-02   4.5567770e-01  -6.9734044e-02   5.6998766e-02  -2.8654711e-02   3.5098914e-01  -6.8785115e-01  -7.6026571e-01  -3.0204271e-01   9.4304017e-01   9.5875998e-01   9.9033837e-01   1.6285081e-01  -4.2834339e-01  -8.6078854e-01   3.7625157e-01   1.4447203e-01   2.6982107e-01  -5.3748655e-01   8.8693323e-01  -2.9441479e-01   7.8290042e-01   8.4144849e-01   9.2726120e-01  -4.7691091e-01  -6.5393028e-01   5.2224063e-01  -1.8912643e-01   1.4208595e-01   7.8281861e-01   4.2487180e-01   2.6508644e-01  -3.7180601e-01   9.9520210e-01  -7.4364809e-01   9.9275629e-01   5.9744211e-01   6.5810639e-01  -1.1544656e-01  -7.4831529e-01  -3.0654101e-01   5.7127543e-01   6.3989672e-01   3.6065164e-01   5.7824352e-01  -4.3003797e-02  -2.0385869e-01  -2.1231776e-01   5.3612830e-01  -7.0410920e-01  -2.1185372e-01  -3.6691938e-01  -8.0064795e-01   7.9156130e-01  -4.8737317e-01   5.4858113e-01  -1.1453811e-01  -3.0313908e-01   8.8935079e-01  -3.0574954e-01   9.3037767e-01   4.8028083e-01  -6.0017967e-01   2.2271571e-01   5.9337796e-01   5.4844696e-02   4.6204589e-01   1.2294155e-01  -6.5054815e-01   2.9133100e-01  -2.7090254e-01   2.0241390e-01  -8.4337294e-01  -9.3956787e-01   2.7656555e-01   6.1828997e-01  -6.1564159e-01  -1.3753325e-01  -1.1286355e-01   7.7794034e-01  -8.0120166e-01   1.7928687e-01  -2.7077988e-01  -6.6727660e-01  -2.7838025e-01  -8.2856076e-01  -9.6816334e-01  -5.8503772e-01  -5.8270728e-01   5.8747192e-02   6.9165630e-01   4.4623009e-01  -6.4202039e-01   8.6854815e-01  -8.1956540e-01   4.7286912e-01   2.9267901e-01   8.8792480e-01  -6.7119196e-01   4.1909588e-01  -5.3142988e-01  -1.3300337e-01  -9.7174925e-01   2.6609758e-01   1.5335448e-03   8.8284359e-01   3.4683832e-01  -2.8291969e-01  -1.0628417e-01  -1.8806301e-01  -3.3876506e-01  -5.3476180e-01  -4.0947419e-01   5.1515305e-01   1.3125789e-02   3.8174127e-01   7.6577684e-01  -6.9378293e-01   6.7749131e-02  -3.7593788e-01  -3.5181422e-01  -3.6329024e-01   7.6936869e-01  -1.3691177e-01  -6.1535329e-01   7.4808509e-01  -8.5457997e-01  -7.6561252e-01  -8.6822951e-01   2.4149587e-01   6.9149067e-01   1.8240050e-01   7.7805465e-01   3.1747032e-01  -8.4736277e-01   6.7435280e-01   4.6449344e-01  -6.6543997e-01   3.0255635e-01   5.5222851e-01  -9.5329648e-01  -2.5601286e-01   3.9410434e-01   6.5936324e-01  -5.1516936e-01  -4.1664384e-01  -6.2619851e-01   7.2996776e-01  -4.5293431e-01  -7.1809116e-01   1.4190697e-01   8.9762428e-01  -7.5892835e-01  -3.2564177e-01  -7.2541038e-01  -3.5840689e-01  -4.7926883e-01   8.1929910e-02   3.7634622e-01  -9.1920025e-01   9.6843701e-01   4.6994470e-01  -2.0891138e-01  -2.7070406e-01  -8.3540031e-01   7.6974229e-01  -5.1201894e-01   9.1924948e-01   8.0853095e-01  -4.2160227e-01   2.7017299e-02   1.5456683e-01   4.7195878e-01  -3.9307930e-01   3.8398341e-01   3.7034737e-01  -3.6890257e-02  -8.5947142e-01  -9.4156859e-01  -8.8972232e-01  -8.8440151e-02  -7.5400245e-01  -6.3321377e-01  -8.8271644e-01   4.7869349e-01  -4.7877827e-01   7.2079689e-01   5.6107424e-01  -1.2462981e-01  -2.5269947e-01   7.0932156e-01   5.3208290e-01  -4.7416233e-01  -1.5262958e-01   1.4092251e-01  -4.2182558e-01   9.3519466e-01   8.2327517e-01   4.9342987e-01   6.8130522e-01   8.9181325e-01   3.5942857e-01  -6.8722769e-01   5.1721900e-01   4.9529258e-01  -7.4079882e-01   6.4636406e-01   3.6110798e-01   6.8624113e-01   5.3518955e-01  -3.8075391e-01  -2.8863714e-01  -7.3092792e-01   2.5143395e-01  -6.2532158e-02  -2.3936953e-01  -9.3880471e-01   4.8340151e-01  -8.3178361e-01  -6.4698362e-01  -7.1768624e-01   7.0456591e-01   7.1038473e-01  -2.1693090e-01  -3.7490811e-01   8.4269658e-01  -9.2530558e-01  -7.8197367e-01  -4.0610837e-01   5.1029138e-01  -1.1003658e-01  -8.7649744e-01   1.7560253e-01  -5.2407320e-02   8.4656764e-02   9.9256790e-01  -7.2740554e-01   3.5265050e-01   4.6268221e-01   2.0909752e-02   8.0385082e-01  -2.0768072e-01   8.3132359e-01  -2.4620433e-01  -8.8900129e-01  -9.0152799e-01   5.8390658e-01   9.0086068e-01  -3.9853808e-01  -5.0439302e-01  -7.5120597e-01  -5.3878435e-01  -6.2372654e-01  -5.5558396e-01   4.7548350e-01   8.8950789e-01   4.2540706e-01  -2.6442245e-01   6.5572329e-01   8.0876918e-01   4.8739172e-01   6.9788584e-01   7.5371126e-01   6.1292825e-01  -8.5055573e-01  -9.4688423e-01  -4.5297554e-01  -4.1320269e-01   9.2829209e-01   2.0832277e-01  -9.0538045e-02   7.1137870e-01  -8.4208059e-01   4.3606987e-01  -4.5446374e-01   9.6484561e-01  -5.9245225e-01   4.9853401e-01   2.2286843e-01  -2.1855112e-01   6.0175129e-01  -6.3602125e-01  -6.7662573e-02  -8.2967953e-01  -2.8754105e-02   5.7102588e-01   4.4064494e-01  -3.7835836e-01   5.4989002e-01   8.5932622e-01  -5.4399374e-01  -7.0818545e-01   6.6451101e-01  -3.1707594e-01  -8.4431835e-01   2.9223422e-01   6.7775777e-01  -4.8072372e-01   6.3797856e-02  -1.2862859e-01   1.4734259e-01  -3.7091914e-01  -9.0666630e-02  -1.4497873e-01  -1.5265067e-01  -6.4177678e-01   9.3549214e-01  -3.0281426e-01   2.7760495e-01  -4.3412381e-01   4.2295785e-01   7.8461330e-01  -4.9569532e-01  -4.1286051e-01   8.1632259e-01   7.9608330e-01  -1.7847393e-01   5.2398649e-02  -1.4971611e-01  -9.8431285e-01  -3.5583331e-01   8.4898370e-01   2.1861760e-01  -7.8273635e-01   9.4997595e-02   3.7849233e-01   9.8486451e-01   4.5827356e-01   1.3991274e-01  -6.0236605e-01   5.8385108e-01   7.3271624e-01  -7.4508021e-02  -3.1202089e-01   4.2330611e-01  -3.1057442e-02  -2.1129755e-01  -5.6612587e-01   1.1433862e-01  -7.0567491e-01  -3.5338486e-01  -4.6589605e-01  -1.1935732e-01  -7.9063452e-01  -2.7392513e-01   7.1076678e-01   4.0624050e-01  -8.9350560e-01  -4.3320096e-01  -6.2470568e-01   1.8442837e-01   7.2645471e-01   3.9711757e-02   9.4553228e-01   4.3180538e-01  -9.2214588e-01   1.8078859e-01   2.1782894e-01   2.8851234e-01   4.1927333e-01   8.7904649e-01  -3.0058375e-01   3.5498860e-01  -4.5761533e-01  -3.4068024e-02  -7.0940348e-01  -2.6773453e-01   1.8262933e-01  -4.1807790e-01  -7.7068258e-01  -7.5777656e-01  -6.7297858e-01  -1.9974889e-01   9.3784210e-01  -5.1064111e-01  -4.7557793e-01  -9.9375900e-01   9.6334739e-01   3.1389105e-01   8.5114295e-01  -3.3626520e-01   4.7117941e-01  -3.9272845e-02  -8.9986696e-01   2.5392201e-01  -3.9009163e-01   9.5907780e-02  -2.4540033e-01   1.7441614e-01   7.1350457e-01  -2.4089520e-01   1.0415510e-01   5.3623750e-01   2.6564621e-01  -7.2473538e-01  -4.9606495e-01   6.6415717e-01  -5.2615932e-01  -9.1856742e-01  -7.9291195e-01  -1.2402813e-01  -4.3426364e-01   8.1295389e-01  -5.2911429e-01   8.1587188e-01   3.7994209e-01  -9.6868357e-01  -7.2981150e-02  -5.7831509e-01   2.2833709e-01  -2.7991804e-01   7.8431120e-01  -6.0546367e-01   6.1916216e-01   8.9875452e-01   8.0103039e-01   1.0194006e-01  -4.2074313e-01   5.3572027e-01  -2.5529457e-02   8.3616840e-01   8.4484333e-01  -8.9545886e-01  -9.0738717e-01   3.5934852e-01  -2.2802555e-01  -3.2079939e-01  -7.0025575e-01   7.1060860e-01  -8.8892346e-02  -1.5751848e-01   3.0501172e-01  -9.8799623e-01   4.1262004e-01   9.0918005e-01  -3.3761663e-01   3.9819980e-01  -6.1965257e-01  -6.2078357e-02  -2.1989800e-01   3.1250395e-01   5.1490144e-01  -9.1285125e-01  -5.4405222e-01  -1.8638794e-01   6.1794153e-01   1.5016189e-01  -4.8267953e-01   3.9253272e-01   7.3002125e-01   2.5576949e-01  -5.4116414e-01   5.3336251e-01   6.3847332e-01  -9.7320043e-01  -9.9125076e-01   4.3919419e-02  -8.4156039e-01  -7.3172950e-01   7.4906572e-01  -7.9255642e-01   9.5332920e-01   4.8964454e-01  -8.9538163e-01  -4.1954116e-01   6.1043748e-01  -3.9638691e-01   9.1611347e-01  -1.3878949e-01  -1.5306309e-01   7.6161946e-01   6.3781192e-01  -2.7478884e-01  -1.0285007e-01  -6.2159397e-01  -7.8936878e-01  -9.8871194e-02  -5.8352908e-01  -5.1679714e-01   5.1544397e-01   3.7840050e-01  -5.3229066e-01   6.4508039e-01  -4.3019813e-01   6.6811783e-01  -3.5081172e-01   4.5535124e-01  -2.6070953e-01   6.9942532e-01  -7.2309402e-01   5.9041887e-01  -5.4646467e-01  -6.1322440e-02  -4.0061845e-01   8.5092494e-01  -6.5623637e-02   4.0509218e-01  -1.1083090e-01   6.0352376e-01   2.8996249e-01  -3.5669763e-02   6.8444870e-01   2.5716153e-01  -7.7987050e-01   5.7730722e-01   7.8879655e-01  -5.6643713e-01  -5.9240995e-01   1.4558640e-01  -6.2870311e-01  -9.1276265e-01   4.2160009e-02  -6.0506870e-01   8.3157822e-01  -7.4728682e-01  -3.7244652e-01   1.5161340e-01  -4.1190529e-01   7.0047151e-01   6.5216930e-01   9.7766787e-01  -1.3693857e-01  -3.5569826e-01   8.2515146e-01  -3.2297169e-01  -8.2194719e-02  -4.5029847e-01   9.7292016e-01   7.5576142e-01  -3.8276082e-01  -2.7135269e-01  -1.2342376e-01  -7.5654865e-01  -2.5506066e-01   9.7642537e-01   7.8264722e-02  -6.5604661e-01  -7.1243161e-01  -4.6990117e-01   6.1354247e-01  -7.9046648e-01  -3.2208389e-01   3.6193737e-01   8.7110956e-01   7.1655321e-01  -5.0914934e-01  -7.6171985e-01  -8.6743729e-01  -5.6870399e-01   4.7578500e-01  -9.8163758e-01  -7.4479006e-01   6.8883762e-01   9.8471354e-01  -6.6558969e-01   8.9579199e-01   4.3509273e-01   6.4983733e-01  -3.6842106e-01   5.6610512e-01  -4.9949267e-01  -9.2555131e-01  -5.7849696e-01  -2.1127446e-01   8.6814341e-02  -7.2555911e-02   8.1240308e-01  -8.3418618e-01  -8.0862746e-02   1.5283227e-01   8.1547692e-02  -7.0378563e-01  -6.7101873e-01   7.8544948e-01   9.4520271e-01   6.1031995e-01  -9.5824481e-01  -6.8499641e-01   8.9469236e-01   6.7940786e-01   6.7396110e-01   2.3060921e-01  -2.3039296e-01  -6.5485814e-01   6.6939423e-01   3.0510358e-01  -3.6698457e-01   2.7887987e-02   2.5790158e-01   5.6201500e-01  -1.0947491e-01  -7.3868378e-01  -2.1598789e-01  -2.1531107e-01  -9.4540503e-01   4.6162595e-01  -2.9956488e-01   4.9320537e-01   7.8770601e-01  -3.2058068e-01   8.6643893e-01   2.8147370e-01   3.8840161e-01  -7.4899582e-01  -3.9649526e-02   4.8884408e-01   4.7287691e-01   9.7039732e-01   8.1144104e-01  -6.0987705e-01   1.5754290e-01   7.8440885e-01  -2.8441149e-02   7.8290930e-01   7.5548010e-01  -1.9954739e-01   6.7508421e-01   1.1985204e-01  -5.5983101e-01  -1.9558290e-01  -4.1737687e-02   3.3511015e-01  -2.5496969e-01   8.3818794e-01   6.1414237e-01   4.8712825e-01  -4.9518889e-01   9.8781443e-01  -9.4949362e-01   5.9107781e-01   4.5946100e-01   9.6001247e-01  -8.3144509e-01  -7.6531611e-01   3.6874873e-01  -2.5424508e-01  -8.8373000e-01  -2.9472800e-01  -1.0321322e-01  -7.7088408e-01   4.5040198e-01  -7.7079076e-01   9.5425697e-01  -1.3646356e-01   3.5311437e-02  -7.6228677e-01   4.2254105e-01  -8.0237971e-01   5.7458303e-01   7.9382888e-01  -1.8294442e-01  -3.6505581e-01  -1.5029749e-02   5.2562599e-01   9.4460791e-01  -1.8788243e-01   3.3148535e-01  -1.2287471e-01  -1.0603882e-01  -8.0284229e-01  -4.9571352e-01  -8.2998802e-01   2.0021728e-01   8.3069767e-01   8.3501368e-01   3.1665934e-02   6.7943319e-01  -3.4341590e-01   3.2502366e-01  -6.6738089e-01   4.0199206e-01   1.6973949e-01   6.0564663e-01   1.2370874e-01  -9.4072313e-01   5.4762774e-01   9.6825252e-01  -4.7921264e-01   3.2578289e-01   2.9555427e-02   2.3858276e-01  -5.8910273e-01   8.9875797e-01  -3.3805855e-01  -7.9308193e-01   3.9768920e-01  -2.7875905e-01   6.2234653e-01  -9.2442881e-01   3.6382229e-01  -4.9265591e-01  -6.2577446e-01  -2.5910557e-02  -5.7003839e-01  -3.1208068e-01   6.2330933e-01   2.6284800e-01   3.0341102e-01  -1.6253570e-01  -9.4680709e-01   8.1037161e-01  -4.2027921e-01   4.5533887e-01   9.6607935e-01   2.2353605e-01  -8.1695030e-01   3.3521500e-01   2.1869053e-01  -7.4289881e-01   3.0694723e-01  -9.2597369e-02  -6.7306524e-01  -7.2102073e-01  -4.7918344e-01   4.0854864e-01  -3.8651813e-01   8.8664242e-01  -6.6350434e-01   8.7114101e-01  -4.5385539e-01  -2.2692061e-01  -9.3599330e-01   7.9808978e-01   8.0148423e-01   6.5441831e-01   3.6114629e-01  -6.2006299e-01  -9.8992352e-01  -2.2078358e-01  -2.7893409e-01   8.7211162e-01   7.9954064e-02   5.7882407e-01   9.3071816e-01  -7.4007593e-01   8.0150422e-01   1.0183670e-01  -1.1029481e-01   8.9336587e-01  -7.5976524e-01  -3.5189523e-01  -8.2982314e-01   8.1049485e-01  -8.6159637e-01   3.8803165e-01  -9.4819144e-02   7.8593551e-01   1.3744023e-01  -6.9449274e-01  -2.5025748e-01   4.8650562e-01  -7.1424538e-01  -9.2583152e-01   6.6511097e-01  -8.1290581e-01   5.7659547e-01   3.3677364e-01   1.2779795e-01  -7.7174763e-01   3.6933954e-03   6.8247943e-01  -2.6540218e-01  -9.0381992e-01  -6.9805461e-01   5.2403515e-01   4.8689322e-01  -9.7711018e-01   9.6696892e-01   1.7652072e-01  -8.3063248e-01  -6.9560058e-01  -6.6385370e-01   3.8039881e-01   1.3618071e-01  -1.3083872e-02   1.6190277e-01   3.1710577e-01  -9.6903939e-01  -2.1762751e-01   2.4238563e-01  -1.5325711e-01   2.8889063e-01  -7.7434510e-01  -4.4827176e-01   8.2583303e-01  -2.6351411e-02  -7.5168433e-01  -7.4561654e-01   2.8551236e-01   3.4521132e-01  -2.1016696e-01  -7.8733277e-01   8.9744091e-01   4.3399272e-01   6.8845573e-02  -9.0433132e-01   5.2627581e-01   5.9153478e-01  -1.1294795e-01   8.1602268e-01   1.1623772e-01  -7.2788761e-01  -5.5991296e-01   8.4069357e-01  -8.8152076e-01  -3.8108671e-01  -1.5413833e-01  -2.7803252e-01  -8.9317609e-01  -2.4316407e-01   2.3804190e-01   7.0544729e-01   1.4309408e-02   1.7415574e-01  -5.7846795e-01  -5.7846880e-01   6.7323394e-01  -8.8716750e-01  -2.7665643e-01  -3.0401702e-01   6.7329420e-01   8.0963908e-01  -4.7744229e-01   6.4047420e-01   6.2824923e-01  -1.7202481e-01  -7.0704825e-01   3.1767649e-01  -2.4372439e-01   1.8952103e-01   8.7693885e-01   8.1610270e-01  -9.8735967e-01   8.3244103e-01  -9.4464621e-01   4.1422150e-01  -7.5713281e-01  -7.2903742e-01  -7.1278307e-01  -9.8316700e-01   7.6569656e-01   4.8780475e-01   3.6285430e-01   8.8466859e-01   8.6882191e-01   5.8141519e-02  -8.9464320e-01   2.9996663e-02  -8.0001688e-01   7.0353843e-01  -7.7941434e-01   2.0899267e-01  -3.2565756e-01   9.0014875e-02  -2.5337009e-02   8.1731516e-01  -8.6416886e-01   3.6578643e-01   5.6713613e-01  -3.9767357e-01  -1.7557180e-01  -9.0344255e-01   5.9466091e-01   7.1271826e-01  -3.3267329e-01  -8.6039980e-01   1.7066267e-01  -2.5771637e-01   2.8353591e-01   1.1893554e-01  -8.4189705e-02  -9.8465429e-01   9.8204207e-01  -3.1940279e-01  -7.7653055e-01   9.7400929e-01  -7.2839797e-01   2.7469733e-02   8.3188277e-02   4.3792596e-01  -9.8852402e-01  -8.5048103e-01  -4.5403405e-03  -7.5157737e-01   5.0571351e-01   7.4451403e-01  -9.6417370e-01   7.0674551e-01   9.2381950e-01  -9.3145589e-02   6.0433652e-01   1.6593782e-01   7.1637454e-01  -6.0875567e-01   3.3142538e-01   5.6981843e-01  -7.3462332e-01   5.3313940e-01  -6.5800049e-01  -3.0373052e-01  -8.9102620e-01   4.1818130e-01   9.4192503e-02   4.0195900e-01  -1.7227401e-01  -9.6670397e-01   4.8424418e-01  -3.1733196e-01   9.5498903e-01   7.3325153e-01   1.7848108e-01   6.7867711e-01  -6.6692213e-01  -3.5032866e-01  -8.7542050e-01   8.0767262e-01  -2.9548706e-01   1.9802098e-01   5.1864028e-01   1.1753803e-01   2.7600154e-01   5.6924646e-01   9.9213260e-01   1.8436127e-01  -6.6059206e-01  -8.9576721e-01  -5.5468080e-01  -3.7700092e-02  -7.1229095e-02  -4.0893132e-01   5.6443112e-01   5.7660315e-01   1.7454513e-01   4.1665079e-01   4.4904759e-01  -9.7294218e-02   4.9867607e-01  -8.4869814e-01  -8.6963503e-01   7.0140787e-01   6.5639686e-02  -9.4090400e-01   8.2220711e-01  -3.6963618e-01   4.8778874e-01   4.7078637e-01   6.2282015e-01  -4.3473431e-01   1.4587850e-01   1.5573832e-01   8.5696160e-01   2.4269234e-01  -3.8187764e-01   5.6158678e-01  -1.0220573e-01  -6.5689263e-01   1.5182902e-01   8.2514792e-01   2.5418673e-01   8.5831260e-01  -5.2702226e-01   8.7859111e-01   2.0300597e-01   2.6668467e-03   7.8072768e-01  -3.2798697e-01  -8.3544941e-01   3.3282539e-01  -5.4780442e-01   7.8358788e-01   3.2080614e-01   2.5181795e-01  -1.2039591e-01   6.7509254e-01   3.0574497e-01  -5.9778724e-01   4.2246094e-01   2.4409396e-01
