   8.0444194e-01  -5.6677745e-01   4.5369268e-01  -6.7281625e-01  -2.7469456e-01   8.9867843e-01  -7.7713326e-01   1.0225217e-01  -8.0845988e-01  -1.2577168e-01   6.0767687e-01   1.5388909e-01   4.8132601e-01   7.3501866e-01  -1.1850505e-01   9.1215314e-01  -8.9790380e-01   8.6893416e-01   7.6700206e-01  -5.8766768e-01   2.7828332e-02  -6.8167793e-01  -4.5728120e-01  -9.0847323e-01  -9.7386971e-01   6.4179285e-01  -5.7122865e-01  -8.3423973e-01  -5.0854359e-01  -2.2051050e-01   9.0482904e-01  -6.9255243e-01  -9.9151253e-01   2.4531669e-01   7.9705611e-01   4.4840960e-01   2.3936948e-01  -7.6263819e-01  -6.6483931e-01  -2.1460679e-01  -4.9076022e-01   4.8751041e-01   9.5373838e-01   7.6354668e-02   5.2319997e-01  -3.9221987e-01   8.4210875e-01  -5.9461949e-01  -7.8964755e-01  -7.1268256e-01  -5.6857042e-01   6.3834340e-01  -8.9594960e-01  -1.4567278e-01   7.0093948e-02  -4.0407259e-01  -3.4683008e-01   9.7883146e-01   4.4574938e-01  -8.4585565e-01  -1.5525633e-01   3.2966749e-01   4.9548046e-01  -7.9795330e-01   7.2616774e-01   8.6215571e-01   7.3898969e-01  -9.3829481e-02   1.0518695e-01   6.3778434e-01  -2.0386381e-01  -7.8547395e-01   3.1669983e-01  -2.2237994e-01  -6.5845626e-01  -5.2017120e-01   5.0780072e-01   8.2613539e-01  -9.9524929e-01  -4.0902588e-02   9.8968213e-02   2.2202025e-01   4.9542094e-01   8.9328297e-01  -4.1213014e-01   2.0741415e-01  -1.0824716e-01  -4.2088489e-01   3.2569773e-01  -8.0485920e-01  -2.6708677e-01   1.4066875e-01  -3.6281129e-01   3.0895106e-01  -6.2281178e-01  -5.3534471e-01  -3.2681024e-01  -7.7308796e-01  -7.6402559e-02  -8.0887439e-01   1.9917892e-01   3.3188416e-01   4.7553644e-01   7.0699656e-01  -9.2785692e-01   3.4327909e-01   9.7069121e-01   6.1572604e-01  -6.7439160e-01   7.3564913e-01  -8.4689627e-01   4.3073588e-01  -6.3887470e-01  -3.5517527e-01   3.0986301e-01   6.6542320e-01  -3.4457180e-02   6.4888993e-01  -7.0922908e-01   9.9975811e-01   2.0708674e-01   2.9749749e-02   9.2969570e-01   3.0665803e-01   5.7293430e-01   1.7345333e-01  -5.9710800e-02   4.7753702e-01   8.3482239e-01  -8.5604763e-01  -9.6141140e-01   7.0157698e-01   1.0846160e-01   9.4006870e-01   3.9320142e-01   6.8293626e-01  -5.1453858e-01  -5.1675229e-03  -3.4907516e-01  -7.8193866e-01  -6.0261791e-01   7.3549440e-01  -3.7623713e-01  -8.4458477e-01  -3.4154825e-01   3.4985201e-01   8.5893959e-01   4.1876808e-01   8.7567596e-01  -4.4693488e-01   1.8105975e-01  -2.8694816e-01  -2.6941238e-01  -9.1529961e-01  -8.3988006e-01   7.3641848e-01  -7.9522463e-01   7.3120099e-01  -3.0217263e-02   7.7270210e-01  -6.4336014e-01  -6.5861979e-01  -3.0322245e-01  -5.4080157e-01  -7.7294812e-01   8.3884148e-01   2.5689393e-01   7.7729264e-01  -5.3134019e-01  -2.7516398e-01  -5.3641636e-01  -8.8041345e-02  -3.7132348e-01   2.1913190e-01   6.1654701e-01   4.2956901e-01   9.4844055e-01   8.7078766e-01   4.3728975e-02  -3.9764791e-01  -3.5821318e-01   7.2941186e-01   4.3653836e-02   2.9880969e-01  -9.9813482e-01   1.4869813e-01  -1.5215511e-01  -5.3731785e-01  -7.8052237e-01  -6.8818286e-01   5.4721558e-01  -1.9641488e-01   4.7926543e-01  -3.8776492e-01  -5.3227284e-01  -8.3430256e-02  -8.4022330e-01   4.4917791e-01  -8.4339276e-01   2.7954637e-01  -6.4560373e-01  -6.2423592e-01  -4.1703267e-02  -1.0604843e-01  -6.2005486e-02  -5.1997565e-01   6.4426398e-01  -3.9873037e-02  -9.7878540e-01  -9.7124835e-01  -9.9520649e-01  -4.1288217e-01  -2.3595920e-01  -7.9582742e-01   7.9096813e-01   2.9964437e-01  -2.1716185e-01   3.3549123e-01  -3.6650745e-01   1.3066919e-01  -5.8779528e-01   5.7116931e-01   7.3654278e-01  -5.9544968e-01   6.1056906e-01  -7.7862712e-01  -9.9222916e-01   3.6174427e-01  -6.5620518e-01   7.1118230e-01  -9.0113198e-01  -6.9390252e-01   5.0790190e-01  -4.7383915e-01  -7.9364436e-02   2.2155761e-01  -4.8256020e-01  -4.3670001e-02  -1.1381948e-01  -1.6019341e-01  -1.2581833e-01   1.8481291e-01   4.6790573e-01   4.2727509e-01  -8.4079517e-01   5.8293194e-01   4.2123339e-01   2.8375751e-01   9.2976099e-01   6.0517484e-01   1.8343453e-02   8.9412523e-01  -5.6079249e-01   6.3049294e-02  -7.2077506e-01  -6.5299210e-01  -9.8462200e-01  -9.6465928e-01   4.2540483e-01  -8.6405384e-01   5.9431579e-01  -6.0039078e-01   2.5066682e-01   5.0658411e-01  -7.9064365e-01   5.7885626e-01  -2.9816956e-01   1.5151147e-01  -3.2489126e-01  -2.4644541e-01  -4.2282924e-01  -2.8205790e-01   2.4150911e-01   4.6479193e-01  -2.4254144e-01   9.5736264e-01  -5.4867141e-01   7.5025623e-01  -1.0011275e-01  -1.8375036e-01  -4.0451735e-01  -5.9990736e-02   1.0155017e-01   9.0850360e-01   7.0752967e-02  -6.3870755e-01   4.6130990e-01  -1.6351810e-01  -7.4086083e-01   7.8221867e-01  -9.0236148e-01   4.2746499e-01  -4.5455296e-01   5.1541493e-01  -6.2749569e-01   2.5849500e-01   5.2464255e-01  -4.1201890e-01  -1.6918558e-01  -8.7003872e-01  -5.7357787e-01  -2.7250664e-01   7.4524829e-01  -4.5202775e-01  -9.4025539e-01  -1.5291533e-01  -9.2580481e-01  -3.0697756e-01  -8.2645360e-01   3.1144076e-01  -9.3746852e-01   1.3337097e-01   8.7099047e-01  -2.8619325e-01  -7.8969805e-01  -3.5838556e-01  -6.7151424e-01   6.7505302e-01  -7.7688856e-01   9.0208756e-01   6.4777629e-01   1.9725678e-01   7.2369983e-01   2.5459636e-01   3.4131701e-01  -4.2303593e-02   5.1133079e-01  -6.7535111e-02   1.0350864e-01   1.9947700e-01   3.3835939e-01   8.8913121e-01   3.3858927e-01  -1.9668927e-01   2.4159788e-01   6.9457979e-02   2.7670506e-01   3.1702233e-01  -5.9143027e-01  -4.9144647e-01  -7.4759332e-01  -5.5287669e-01   9.4048789e-01  -5.9870136e-01  -6.2677314e-01  -7.4020979e-01  -7.9941698e-01  -8.2934347e-01   6.8974873e-01  -9.0967547e-01   2.0503714e-01   4.9353752e-01   3.2532087e-01  -7.8943680e-01   8.5837422e-01  -5.6964726e-01   3.4583248e-01  -6.7200255e-01   4.1139635e-01  -5.2508573e-01  -7.9804192e-01  -7.5901690e-01  -2.9678836e-01  -9.8143309e-01   5.6367633e-01   2.5242425e-01   5.3099520e-01  -1.2353530e-01   5.2544793e-02   6.1356439e-01   1.4121562e-01   1.4250872e-01   9.4806940e-01   8.6706587e-01  -7.8939998e-01  -2.5693661e-01  -2.4114097e-01  -7.0411859e-01  -9.2664887e-01   3.4955076e-01  -6.2950927e-01  -9.4114538e-01   6.4336062e-01   1.3950627e-02   4.2931849e-01   1.5449694e-01  -1.2190325e-01  -1.6286447e-01  -2.1614438e-02   8.5714301e-01  -6.9620259e-01  -5.5200861e-01  -3.3043531e-02  -7.5906821e-01   5.9013676e-01  -4.9730642e-02   1.6430817e-03  -4.6908641e-02   8.7997410e-01  -8.3106160e-01  -6.3875381e-01  -4.4674013e-02   5.4453974e-01  -4.6896694e-01  -2.3353146e-01  -3.8827597e-01   7.2309110e-01  -6.5352563e-01  -2.6122444e-01   9.0337730e-01  -5.6838243e-01  -8.1724668e-01   4.2241965e-02   6.8834194e-01   8.1140961e-01   5.0236160e-01  -6.6764275e-01   9.5542941e-01  -5.6293392e-01   2.8440618e-01  -8.7815257e-01   6.3123165e-01  -4.3206414e-03  -2.0724191e-01  -2.6076310e-01  -5.7977204e-01  -8.5530891e-01   3.5772584e-01  -4.9244834e-01  -2.0820058e-01   6.5212747e-02   4.2609339e-01   3.1560330e-01   1.3662430e-01   8.9831918e-01  -5.8183091e-02   1.4199010e-01  -1.9785397e-01  -1.8521397e-01   5.7479811e-01   1.2200324e-01   5.8013592e-01  -4.5151198e-01   3.0536806e-01   6.7756197e-01  -1.9395620e-01   1.8653384e-01  -5.8197661e-01  -2.3596957e-01   9.6373054e-01   2.5007572e-01   6.8299095e-01   4.5627300e-01  -2.6768141e-01   5.7549965e-01   5.1303259e-01   4.3267415e-01   4.5030911e-01   3.4323568e-01  -4.9495876e-01   1.6551959e-01  -6.7128822e-01   9.2755286e-01   3.0949974e-01  -1.2104673e-01  -1.7330792e-01  -4.7378054e-01   2.2216307e-01   6.4571460e-01   9.9315069e-01   1.6128118e-01   9.6819144e-01  -4.2485757e-01  -9.9262382e-01  -4.3610925e-03   9.4555655e-01   4.9387264e-01   2.7117964e-01   7.3391051e-01  -4.9285930e-01   1.0132603e-01  -2.5029373e-01  -7.9926352e-01  -1.1473519e-02   8.1820540e-01   2.0584487e-01   1.7025659e-02   3.4079069e-01  -3.3558912e-01  -8.7939265e-01   9.2336026e-01   8.9126505e-01   7.4520467e-01   7.2388787e-01  -8.3313914e-01   3.7085672e-01  -6.1336720e-01   7.0844609e-01   7.8564243e-01  -5.8787860e-01   5.8651853e-01   8.2502940e-01  -1.7425624e-01  -7.8708184e-01   1.9103914e-01  -2.4745435e-01   7.7582428e-01  -4.8405059e-01  -8.6274724e-01   2.7013971e-01  -8.3860512e-01   5.1244839e-01   7.4987426e-01   9.0899380e-01  -4.7666464e-01  -3.2800386e-01  -8.1734103e-01   6.3582070e-01  -3.7005891e-01   5.0472168e-02  -9.9625253e-01  -9.1744545e-01   9.2790463e-01   6.1024953e-01   8.5647503e-01   1.3436377e-01  -2.2487818e-01   3.6093481e-01   1.6887513e-01  -4.6410383e-01  -9.4338063e-02   9.4225204e-02  -3.7054885e-01  -3.5555348e-01  -2.0423440e-01  -3.0047634e-01  -6.3442872e-01   1.7146339e-01   6.5347648e-01   4.3790580e-01   8.7155472e-01  -6.3527611e-01  -2.7894839e-02   4.0814567e-01  -3.5338547e-01  -7.2687208e-01  -3.9214957e-01  -3.0148550e-02   3.1242213e-01  -6.5143770e-01   8.4222486e-01   3.8057397e-01   6.9813687e-01  -8.4440609e-01   9.3166482e-01   5.4085815e-01   1.2711271e-01   4.8146442e-01   1.3362936e-01  -8.2303222e-02  -1.2451495e-01  -4.2887422e-01   1.1388071e-01   8.8740712e-01  -2.5128430e-01  -4.0368603e-01  -2.6468503e-01   2.5960012e-01   5.0348326e-01  -4.1805789e-01  -4.5935662e-01  -8.5072737e-04   3.2794441e-01  -8.9677478e-02  -5.8775947e-01  -9.9886323e-01  -3.0943633e-01  -3.4997098e-01  -3.5466039e-01  -7.2002682e-01   8.6843837e-01  -9.1343084e-01   5.2528918e-01   8.1073612e-01   3.0319416e-01  -3.3098154e-01  -3.8312422e-01  -1.9189913e-01   5.6950908e-01   5.2059387e-01   5.6180147e-01  -3.4158000e-02   8.9248199e-01   7.5936421e-01   6.0192125e-01  -9.0241882e-01   8.8076495e-01  -2.3749922e-01  -4.1715646e-01  -6.8652908e-01  -1.0211972e-01  -6.2463384e-01   9.4983338e-02   3.4105467e-01  -4.1478638e-01   8.1848735e-01  -5.1079746e-01   9.9887635e-01   7.5698085e-02  -7.3152318e-01  -5.4016929e-01   9.5742901e-02   6.8157324e-02   7.9649413e-01  -1.2571474e-01  -4.8371359e-01   5.8523191e-02   6.9145306e-01   7.9527256e-01  -8.8797481e-01  -5.2230979e-02   4.4445727e-01   7.1769164e-02  -9.0821465e-01  -9.4847280e-02  -2.4948344e-01  -9.4882064e-01  -1.3609551e-01   4.1721582e-01  -1.1355194e-01   6.8053311e-01  -7.8598255e-01  -3.9086778e-01  -6.4825176e-02  -1.8370892e-01  -1.8883000e-01   3.7187219e-01  -7.3322697e-01  -3.5007640e-01  -5.5373330e-01  -7.2476515e-01   6.3604126e-01  -4.8676073e-01   1.3239249e-01  -7.2542236e-01  -7.8092331e-01   9.4817918e-01  -3.4524321e-02  -4.5947833e-01  -4.2164297e-01   2.8406022e-01  -4.6582642e-01  -7.5388173e-01  -5.5325330e-01   9.4894235e-01  -5.1837953e-01   2.9275464e-01   8.2062735e-01  -8.7145920e-01  -7.1522545e-01  -2.6863264e-02  -7.4994439e-01  -8.1507633e-01  -2.0797279e-01   9.1389413e-01   4.3286919e-01  -1.5460371e-01   9.7510759e-01  -8.6643296e-01   9.0352551e-01   1.2170092e-01  -6.1456793e-01   7.7312456e-01   4.4657152e-01  -5.3236247e-01   6.2624205e-01  -1.3082557e-01  -4.2053671e-02   7.7793203e-02   3.3789587e-01   4.1085672e-01   6.0993915e-01  -7.1846071e-01  -6.0376779e-02   2.2850062e-01  -1.3781135e-01   9.9760370e-01   5.0817491e-01   3.0616101e-01  -8.0940328e-01   1.9614884e-01  -1.9713670e-01  -8.7529926e-01  -4.9870011e-02   2.0438382e-01  -3.9022827e-01  -1.7352137e-02   9.7479080e-01  -8.6972577e-01   5.0037368e-02  -4.3479569e-03   7.4680507e-01   4.7430555e-01  -1.6614608e-01  -8.7099298e-02   4.3428624e-01   3.2433614e-01   8.9165824e-01   1.7716770e-01   6.1457479e-01  -4.4188573e-01   2.8318393e-02   4.6285560e-01   3.0807382e-01  -8.4545964e-01   1.3870321e-01  -8.7886197e-01  -9.8312737e-01   2.4789605e-01  -4.5247714e-01  -3.4119654e-01  -6.3037119e-03  -1.7129585e-01   5.8699727e-01   8.1736809e-01   3.4783718e-01  -2.1745181e-01  -9.7349933e-01  -4.4142617e-01   8.4089359e-01   5.8913468e-01   9.4825929e-01   2.0443582e-01   5.2465172e-01  -3.5675401e-01   7.2245384e-02   9.4549694e-01  -8.3008721e-02  -6.7084696e-01  -5.8625310e-01  -9.2471552e-01  -2.2361381e-01   2.2667944e-01   4.3694377e-01   2.2120659e-01  -8.1237332e-01   1.1694813e-01  -3.0246036e-02   4.6933882e-02  -7.9352843e-01  -4.1950280e-01  -1.8040860e-02   1.5224460e-01   7.1805074e-01  -9.9470019e-01  -2.0436928e-02   8.9174692e-01   8.7668707e-01  -7.8679138e-01   8.6403777e-01  -6.8004263e-01  -5.6492464e-01  -4.3863608e-02   9.6969309e-01  -8.3808022e-01   6.8817351e-01  -9.3163201e-01   4.8762827e-01   6.8176285e-01   7.8627636e-01  -6.1912004e-01  -3.9934979e-01  -9.4338565e-01   8.8818499e-01   3.4102417e-01  -8.8949758e-01   8.0893805e-01   1.2152815e-01  -7.4359132e-01  -3.4066944e-01   8.4734360e-01  -5.1646311e-01  -1.7205594e-01  -4.5251442e-01   7.8556461e-01  -3.0524624e-01  -3.4468774e-01  -3.3359740e-01   8.3420629e-01  -1.3057181e-01  -2.5782056e-01  -4.2956123e-01   6.9690540e-01   1.5578683e-01   5.5295825e-01  -3.5162006e-01  -6.5865512e-01   7.3388495e-01  -3.6325811e-01   6.0213943e-02  -9.0482238e-01  -3.2111686e-01  -3.2597171e-01  -4.6605710e-01  -2.9393021e-01  -5.2356266e-02   9.6143387e-01  -9.3717176e-01  -1.7880764e-01  -4.4508948e-01  -4.2257335e-01  -5.3912331e-01   9.0900249e-01  -8.6522423e-01   9.9357792e-01   4.1534014e-01  -6.8688034e-01   9.4074541e-01  -8.0016684e-01  -9.7987957e-01   5.8863441e-03   9.6034769e-01   1.9358614e-01  -4.5680531e-01  -8.2493896e-01   6.3353666e-01  -7.8604630e-01   9.1594716e-01  -9.8559795e-01  -7.7827896e-01   1.5345540e-01  -2.9933043e-01  -9.2856409e-02  -2.8715095e-01  -7.6120864e-01  -5.1553337e-01  -6.3053390e-01   6.4836456e-01   3.5832836e-01   2.0052100e-01   8.0762523e-01   1.2153518e-01   1.8445473e-01  -9.9007098e-01  -9.7783709e-01  -8.3086389e-01   4.3339283e-01   9.9760442e-01  -4.1757302e-01   5.4938531e-01   5.7654849e-01  -8.3555340e-02  -8.4359656e-02   4.6190216e-01  -7.9976798e-01   3.9375081e-01   3.2430478e-01   8.4654972e-01  -1.1366850e-01  -8.1998806e-02  -8.0483806e-01   6.5582394e-01  -8.1953257e-02   2.8309108e-01   8.6032892e-01  -9.1727573e-01  -9.9357794e-01  -2.6624275e-01  -6.1402127e-01  -6.8091626e-01   3.0285044e-02  -9.8361967e-01  -7.2289411e-01   2.1843659e-01   4.2163822e-01   9.9653019e-01  -7.9743296e-01   7.8657686e-02   1.7987187e-01   1.6575024e-01   1.0856005e-01  -1.7544613e-01  -9.2149195e-01   6.7048772e-01   9.5263856e-01  -6.8303770e-01   4.8269426e-01   1.7144372e-01  -6.0521194e-01  -9.1334952e-02   8.8507339e-02  -8.9447334e-01   5.1234772e-01  -2.9714937e-01   9.4198265e-01  -6.7534336e-01   1.3353506e-01   7.9363936e-01   9.5756139e-01  -4.4217539e-01   3.8015921e-01   6.6285706e-01  -5.9182797e-01  -5.9501991e-01   2.6439054e-01   7.2731307e-01  -6.7298477e-01  -5.0857978e-01  -7.2216306e-01   1.1307223e-02  -1.5831909e-01  -3.1227334e-01  -1.5013768e-01   3.5625107e-01  -5.5361830e-01   3.9744669e-01   1.6075945e-01  -8.1673976e-01  -1.9674191e-01   4.9784353e-01  -1.4970504e-01  -9.1937858e-01  -9.1088976e-01  -7.8741463e-01  -7.5389463e-01  -1.2375617e-01   7.6292935e-01   9.7941931e-01  -6.9733128e-02  -3.6300707e-01  -5.3072068e-01  -8.2147643e-01  -6.1858674e-02   9.0043458e-02   4.4598488e-01  -6.7747048e-01  -6.7152038e-01   8.0720994e-01   7.3961596e-01  -1.5525781e-01   6.0791469e-01  -7.1849656e-01  -1.4410819e-01   4.6016270e-01   3.7524083e-01   5.7374873e-01   5.4987267e-01   4.0432056e-01   9.2571228e-01  -6.4324820e-02  -9.8892788e-01   8.0317521e-01   7.4938673e-01   3.3335850e-01   6.0179759e-01  -3.2387675e-01  -8.9581370e-01   1.0671729e-02   8.6056974e-01   3.2592750e-01   4.3466073e-02   5.9762692e-01  -7.0951852e-01  -2.3814855e-01  -8.0507779e-01   6.8569021e-01   5.4827106e-01   7.8992682e-02   9.0398548e-01  -9.5437397e-01  -5.9172870e-01   8.4537231e-02   3.0866928e-02  -9.2599535e-01   5.4803721e-01  -3.1664706e-01   7.8773376e-01   1.4776773e-01  -2.8995718e-01  -1.6738994e-01   9.8821762e-01  -7.9397514e-02   8.5142887e-01   1.2259573e-01  -4.2350431e-01  -2.7313853e-01   7.7462139e-01   1.7428925e-01  -6.0707558e-01   9.9163791e-01   4.3889031e-01   1.7862058e-01  -3.9267300e-01   8.0348070e-01   5.6393171e-02   4.1303503e-01   7.5081552e-01  -7.0586219e-01  -1.7257757e-01  -1.5529224e-01
