   7.0253682e-01   3.7387355e-01   8.5495700e-01  -8.0286386e-01  -8.5269363e-01   5.8035130e-01  -2.3968183e-01   2.0125226e-02   5.1799357e-01   8.7890867e-01  -1.2619089e-01  -2.9102336e-01  -3.7221872e-01   8.9145305e-01  -8.1590231e-01   3.5622125e-01   4.2407532e-02  -2.4468309e-02   4.8821199e-01   2.3304545e-01  -9.5188418e-01  -7.3339209e-01   5.4862592e-01  -8.7087191e-01   6.2444703e-01  -4.6620014e-01  -2.1439517e-01   3.4588174e-01   3.0539941e-01   6.3360735e-01   9.2575126e-01  -1.1162881e-01  -2.7472267e-01  -1.8407190e-01   9.2686559e-01   3.7107236e-01  -2.5726549e-01  -4.0893659e-01  -6.9682762e-01   1.8692089e-01  -2.5315788e-01  -8.7475844e-01   3.3160312e-01  -6.2612200e-02  -3.1071771e-02   8.8276703e-01   7.2486384e-01   6.6505349e-01   5.5551079e-01  -6.0548274e-01   7.6338420e-01   8.6198081e-01  -2.4388646e-01   9.4304524e-01   9.9503513e-01   9.1342592e-01   4.4665871e-01   1.3193680e-01   7.9374054e-01   4.9031610e-01   4.4235875e-01  -3.2242704e-01   3.5696154e-01  -4.4328982e-01   2.1414370e-01   4.9277888e-01   3.0932301e-01  -3.5699514e-01  -8.5632594e-01  -5.5802197e-01   4.9413899e-01   6.5671154e-01  -2.6846912e-01   9.6174241e-02  -7.8734686e-01   3.8357159e-01   6.3443083e-01  -8.3173202e-01  -4.5958297e-03  -7.7671774e-01  -1.7678314e-01  -8.7555869e-01   6.1219199e-01  -8.2332627e-01   9.5901885e-01   5.3650047e-01   1.7835555e-01  -6.4798421e-01   1.1814283e-02   8.2891714e-01   7.8656351e-01  -2.2726406e-01   7.3153665e-01   5.3929057e-02  -3.6109938e-01   8.8738865e-01   3.9955771e-01  -4.0528596e-01   9.9606256e-01  -8.3689114e-01  -4.3904733e-01   2.6944374e-01   8.5096056e-01   3.1247788e-01   8.8644340e-02  -3.8718734e-01   8.3158643e-01   7.9453567e-01   2.5782727e-01   9.4060953e-01  -8.1087134e-01  -3.4745094e-01  -3.9511945e-01   1.0899532e-01   4.2148256e-01  -3.7815884e-01  -5.0470568e-01  -4.0796746e-01  -1.6711597e-02   7.7258597e-01   1.8834220e-01  -4.3645035e-01  -1.4253472e-03  -2.5995792e-01  -8.5067097e-02   2.8131586e-01   4.0035989e-01  -3.6517971e-01   5.4972538e-01  -9.8478437e-01  -2.8615029e-01   6.0071540e-01  -2.2317402e-01  -6.8080170e-01  -5.5095675e-01  -8.9470413e-01  -5.4745185e-02   8.0132193e-01   3.3807475e-01   3.9159251e-01  -4.8526433e-01   8.5430829e-01   4.1537143e-01   9.6141855e-02  -2.6896351e-01  -6.2598816e-02   2.9360918e-01  -7.1799839e-01  -9.8747508e-01   4.2959194e-02   7.0441481e-01   9.7055306e-01  -4.3325964e-01  -4.4078456e-01  -4.7463901e-01   4.6937811e-01  -9.8951960e-01  -8.4627133e-02  -2.2953806e-01  -2.1776757e-01   3.8018328e-02   5.7168050e-01  -5.9895516e-01  -7.8165965e-01   3.5427334e-01  -5.1366059e-01   4.2774411e-01  -5.3104000e-01   6.1626365e-01  -8.7571338e-01  -3.4796541e-01   2.7289774e-02  -8.7336965e-01  -2.4038125e-01   2.9207313e-01   2.3002806e-01   2.5248471e-01   8.8629924e-01   8.5174870e-01  -8.9294981e-01  -7.2927651e-01  -2.2605113e-01  -9.6720143e-01   3.6785696e-01  -4.9514650e-01  -5.2269643e-01  -2.8391921e-01  -4.5164007e-01   3.1991623e-01   4.1045350e-01   6.5324822e-01   8.1777643e-01   8.9949310e-01  -8.3282357e-01  -7.4079838e-01   5.1408014e-01  -7.7626565e-01   7.8373644e-01  -6.4399148e-01  -2.6885994e-02  -4.1378858e-01   8.7943947e-01  -9.7153327e-02  -5.2592645e-01   6.7201492e-01  -3.8247028e-01  -8.3737912e-01   1.3947228e-01   6.7329216e-03  -2.2805769e-01   1.3996695e-02  -8.6480602e-01  -7.8391138e-01  -1.7406161e-01  -6.5505707e-01  -9.0513739e-01  -1.7464468e-01  -3.2852424e-01   9.5984904e-01  -9.1364076e-01   5.9484464e-01   1.1066016e-02  -2.6607453e-01   9.2689259e-01  -1.5019879e-01   9.5888689e-01   1.3154461e-01  -7.8379318e-01   5.4437776e-01   6.2555443e-02   2.2077526e-01   9.4556861e-01   7.3908204e-01   1.6589201e-01   9.8511604e-01   5.9448269e-02  -6.0015552e-01   7.5469671e-01   7.1129908e-01  -8.6138915e-01   9.5821436e-01  -5.6944733e-01  -5.9777704e-01  -3.8323661e-01   9.1966485e-01  -1.7383332e-01   9.3472148e-01   4.5802984e-01   1.7265341e-01   6.4908585e-01   5.0716278e-01  -6.4778672e-01  -3.8183036e-01  -7.4241781e-01   6.2858822e-01   2.4023959e-01  -8.0738939e-01   9.6446735e-01   6.3223923e-01  -3.8360036e-01  -1.0720968e-01   2.6272147e-01  -7.6016510e-01   4.9192342e-01  -3.0875802e-01  -8.6460248e-01  -1.2589603e-01   8.3809040e-01  -6.5775072e-01   7.4526810e-01  -5.0565519e-02  -8.3696382e-01  -8.9602967e-01  -6.9283923e-01   5.5714395e-01   4.0426193e-01   6.4899554e-01   1.5673828e-01  -4.6999089e-01   9.4407027e-01  -6.3559810e-02  -7.8747073e-01  -3.8588337e-01   6.0195394e-01   2.0108596e-01  -9.2894982e-02   1.6957139e-01  -2.9340258e-01   8.8872108e-01   5.8826452e-01  -8.1217244e-01  -3.5857062e-03   1.4823781e-01   2.2381144e-01   2.8611329e-01   2.4745335e-01  -6.0337403e-02  -1.3192293e-01  -9.9306050e-01   1.9010170e-01   3.5859598e-01   3.8863844e-01  -2.7749868e-01  -3.3929626e-01  -2.6735526e-01  -1.4107133e-01  -9.2933695e-01  -2.8446877e-02  -5.5297332e-01   8.9924622e-01   2.3573943e-01   8.5175130e-01  -7.9211783e-01  -3.3051082e-01  -8.2355851e-02   1.5034787e-01   3.6183560e-01   1.8489316e-01  -7.7835498e-02   7.6586983e-01  -1.7837246e-01  -1.5834179e-01   8.0871887e-01   9.8760925e-01  -3.9000108e-01  -3.3466916e-01   8.1871993e-01   6.6253986e-01   5.9994928e-01   8.3727446e-01  -2.3622819e-01  -5.3748027e-01  -8.2983309e-01   1.3813743e-01   5.4492910e-01  -5.6210238e-01   7.8086496e-01   3.7919527e-01   5.5511050e-01  -1.4446959e-01  -4.9199352e-01  -3.9922502e-01   2.3442324e-01   6.5541273e-01  -3.4899534e-01   3.8003431e-01   4.8103409e-01   8.3653091e-01   7.4319819e-01   5.8081686e-01  -3.6534226e-01  -4.0249050e-01  -2.5397959e-01   5.1850157e-01   5.6136885e-01  -4.3896222e-01   2.2127457e-01  -9.8648565e-01  -4.5152914e-01  -4.7860108e-02   7.2410942e-02   2.8041159e-01   7.0418414e-01  -1.1448651e-01   9.0486209e-01  -3.1259129e-01   5.3145946e-02  -5.1688702e-01  -8.3209506e-01  -5.6727856e-01   4.3563379e-01  -4.8482907e-01   3.9025620e-01  -1.2318616e-01   7.3337063e-01   8.9566849e-01  -4.2803636e-01  -6.0995770e-01   1.3692801e-02  -3.9323796e-01  -5.9604799e-01   3.7233384e-01  -9.4247600e-01  -3.7607520e-02  -3.2807794e-01   7.7521903e-01   1.6281652e-01  -4.3317295e-01  -3.9367512e-01   1.4728301e-01  -1.2660496e-01  -3.6630212e-01   8.4693520e-01  -8.8561416e-01   5.0991967e-01  -2.5162245e-01   7.1610276e-01   2.1201533e-01  -8.4874207e-01  -4.5806584e-02  -8.9544597e-01  -6.7349490e-01   9.5310648e-01   1.2589937e-01  -8.8404449e-01  -8.3268323e-01   2.8867957e-01  -9.8448221e-01  -9.8395938e-01   5.9164073e-01  -9.0263550e-01   2.2489110e-01   8.9166914e-01  -3.1739915e-01  -3.5879924e-01   2.8058180e-01   8.8911450e-01   2.9658135e-01   9.9705286e-01  -3.4843625e-01   3.4246551e-01  -3.6400563e-01   6.4098004e-02   2.0103355e-01  -1.7648291e-01   2.3101765e-01   3.2704032e-01   4.1489872e-01   3.4027869e-01  -5.1106693e-01  -8.8078988e-01   9.4008340e-01  -4.5867303e-01  -1.2401968e-01   1.6485514e-01   2.5828543e-01   4.9080295e-01  -8.4967548e-02   9.5996196e-01  -4.5704872e-01  -6.5042210e-01   1.1685544e-01   3.6618925e-01   1.1085352e-01  -1.5293969e-01  -4.5719638e-01   4.4346267e-01  -9.9330102e-01  -1.6887359e-01  -7.2556735e-01   6.7292288e-01   1.5746302e-01   5.3713050e-01   3.6155056e-01   8.7844849e-01  -9.1143906e-01   9.2833142e-01   7.2445564e-01  -2.7312625e-01   7.3462372e-01   3.7136111e-01   5.8956565e-01   3.3212286e-01   2.0042330e-01  -7.6191387e-01   9.3810404e-01  -6.1945954e-02   2.8129457e-01  -8.3776618e-01  -5.5019817e-01   1.4147712e-01  -2.7600361e-01  -5.9630512e-01   1.9216513e-01   5.5958490e-01   1.1018021e-01  -7.4484374e-01  -7.6845438e-01   1.7191902e-01  -1.2726863e-01  -7.0766342e-01  -3.1831838e-01   8.6077819e-01   8.1196781e-01  -1.6955300e-01   5.0103315e-01   1.2733563e-01   8.3319286e-02   5.9299376e-01  -2.1394020e-01  -4.5528315e-01  -7.2133513e-01  -3.7430917e-01   6.4550760e-01  -2.8416345e-02   3.9097049e-01  -4.5836347e-01  -8.6166191e-01  -9.8234172e-01   3.8170031e-01   8.4055622e-01   8.4879029e-01   5.1924291e-02  -3.5434793e-01  -8.4615132e-01   5.2998349e-01   1.1729255e-01   8.1293713e-01  -3.9187090e-01   9.3718257e-01  -4.2406588e-01  -6.3434072e-01  -2.5862925e-01  -9.7770931e-01  -5.3300838e-01  -9.1753100e-01   7.7292321e-02  -7.6991216e-02  -6.6588294e-01  -2.7037006e-02   4.2501929e-01   9.8618001e-01  -1.6862924e-01  -5.9166834e-01   4.7566973e-04  -5.6183943e-01  -1.3962003e-01  -3.9050243e-01  -7.8431309e-01  -4.6692381e-01  -9.2138914e-01   5.6331314e-01  -8.7359835e-02  -4.7962062e-01  -3.8294555e-01   2.6714684e-01  -7.5383244e-01   5.2583719e-01   4.3907404e-01   9.9865884e-01  -6.4447331e-01   4.1767849e-01  -9.9575134e-01   7.0557965e-01  -1.3056033e-01  -8.8875053e-01   4.3558053e-01  -7.1474302e-01   4.2781875e-01   5.5955338e-02  -4.5040017e-01  -2.5307641e-01   2.8817399e-01   3.6902507e-01   6.2698307e-01  -9.3888840e-01  -6.6523313e-01  -5.0825838e-01  -1.8367502e-01   9.2171562e-02   2.0722817e-01   5.1305659e-01  -6.5503227e-02  -4.1925393e-01   6.5960842e-01   7.8831381e-01  -6.6335125e-01   4.7427654e-02   7.4815804e-02   5.6108021e-01  -2.2804291e-01  -1.1922859e-02  -7.2467433e-01   4.6444708e-01   1.2339742e-01   8.0465138e-01   3.2100771e-01   6.7663621e-01  -7.4190436e-01  -2.9537741e-01  -2.2786193e-01   7.5129998e-01   5.7330844e-01  -2.4592941e-01   5.6680928e-01   4.9747341e-01  -7.8938814e-01   2.1442807e-01  -9.4904158e-01  -4.7481502e-01   2.6372840e-01   9.1616519e-01  -6.6292443e-01  -1.5924058e-01  -4.1697319e-01  -5.6850941e-01   9.9385934e-01  -9.1252998e-01  -9.6638846e-01  -7.9668629e-01   1.7757849e-02  -6.5062462e-01  -1.3052640e-01  -7.9257413e-03   8.6581631e-01  -7.7455903e-01  -3.5259450e-01   7.0392599e-01  -4.7703775e-01   9.6262121e-01  -1.9750702e-01  -3.1320491e-01  -3.7933716e-01   7.7089078e-01   8.8413482e-02  -9.3663798e-01   9.3839586e-03   6.2152209e-01   2.0377860e-01   2.5995925e-01   9.5833540e-01  -3.5990720e-01   6.5837047e-02  -7.1424489e-01  -9.5364499e-01   9.8600820e-01  -3.9254950e-01  -4.8578993e-01  -1.4211193e-01   9.6616329e-01   7.2786524e-01  -9.9758554e-01  -2.9770242e-01  -3.2691558e-01  -3.2462159e-01   4.3594095e-01  -3.0775737e-02  -3.0492263e-01   2.4773678e-01   9.6635757e-01  -8.7657613e-02   8.6812775e-01   2.2414631e-01   5.8254728e-01  -9.0769755e-01  -1.0898295e-01  -1.1991891e-01  -7.7861957e-01   1.8555722e-01  -3.5092774e-01  -7.1415221e-01  -4.7736173e-01  -4.3011278e-01  -1.9939978e-01  -7.9912387e-01  -8.1288034e-01   7.7119143e-01   4.2109910e-01   9.6073245e-02  -3.6521014e-01  -2.4956614e-01   2.7278682e-01  -7.5722996e-01  -6.6724457e-01  -4.9266085e-01   6.3988405e-01  -9.0180572e-01  -7.2959848e-01  -8.6570595e-01   1.8911040e-01  -5.1392937e-01  -1.0587031e-01   6.0310673e-01   3.6404662e-01   6.9227528e-01  -8.3769223e-01   6.7948236e-01   2.6837397e-01  -5.2831840e-01   7.6807273e-01  -6.5311450e-01   6.6939083e-01  -5.7040255e-01  -8.2900605e-01  -8.7532969e-01   2.5226568e-01   2.3047535e-01  -8.8057078e-01  -1.8533843e-01   9.2491673e-01  -1.4536379e-02  -2.4801023e-01   6.7169761e-01   9.7098384e-01  -2.3840619e-02  -8.7399445e-01   2.7445074e-01   7.7884653e-01  -2.4094143e-01  -3.0708098e-01   9.3087408e-01   9.7879516e-01  -4.1810029e-01  -6.9804816e-02   2.6124915e-01  -3.5626849e-02   5.9816152e-01  -5.4445505e-01  -5.6178772e-01  -9.9070361e-01   8.2331497e-01   8.7414413e-01   3.4889745e-01  -7.1612752e-01  -8.6579097e-01  -8.2177155e-01  -2.3080962e-01   9.6228508e-01   2.4433945e-01   7.6681289e-02   8.4229886e-02  -2.8881283e-01  -6.6508407e-01  -1.4033395e-01   1.6951165e-02   7.9836387e-01  -2.9602951e-01  -4.2295821e-01   7.7533351e-02  -9.3513980e-01   8.2138305e-01   7.3393947e-01  -8.5711815e-01   4.1400893e-01  -6.1621597e-01  -3.4039154e-01   2.9388918e-01  -1.0849379e-01   6.1442720e-01  -1.5263042e-01   6.9544097e-01   7.1941611e-01   1.3092734e-01  -1.6276009e-01   8.6221425e-01   9.3801675e-01  -9.8276740e-01   4.7591969e-01   5.0655371e-02   3.0700900e-01  -4.1418324e-01  -3.7839697e-01  -3.7094698e-01   3.7759537e-01  -3.3009800e-01  -3.6527608e-01   2.4011813e-01  -6.0633351e-01  -5.7113627e-01   3.8717064e-01   3.0991707e-01  -9.0222513e-01   1.3606049e-01  -4.4852788e-02  -5.5640020e-01   8.6739825e-01  -2.0491407e-01  -9.8471574e-01  -3.3938901e-01   4.9339989e-01   2.8083972e-01  -6.5717098e-01  -4.7055702e-01   9.1685926e-02   4.6910032e-01   8.2188215e-01  -6.5317697e-02   7.1575846e-02   2.8480391e-01   8.1930243e-01   9.3526474e-01  -5.5956025e-01  -4.9598520e-01  -5.5060296e-02  -2.8264369e-01  -4.9558145e-01  -1.8632256e-01  -7.1814644e-03  -1.4833837e-01   5.5889878e-01  -2.7205604e-01  -8.9375913e-01  -6.3004655e-01   7.3886276e-01   3.4009859e-01  -3.6902766e-01  -4.1394592e-02  -3.2428633e-01   7.7287581e-01   3.7935470e-01  -2.4710244e-01   7.2824792e-01  -3.9428398e-01   9.2749025e-01  -3.1345337e-01   9.4994550e-01   2.5079393e-02  -1.1680787e-02   8.2936166e-01  -1.9289432e-02   2.9108238e-01  -9.8639206e-03  -7.6309564e-01  -8.7812381e-01  -4.4248432e-01  -1.1726503e-01   4.8084841e-01   8.3519715e-01   8.3067739e-01  -1.7157720e-01   5.8993418e-01  -6.2203220e-01   5.0897350e-01  -1.0213870e-01   5.7554143e-01  -9.1971960e-01  -4.3388492e-02  -6.9786152e-01  -1.2920228e-01  -6.0284011e-02  -2.8837351e-01  -7.7746269e-01   9.5635465e-01   6.5595169e-02   2.5457613e-02   7.1511567e-04  -9.4283701e-01  -1.7579519e-01  -8.7105711e-01  -5.1131502e-01  -7.1543861e-01   1.7367235e-01   9.2625760e-02  -7.1823479e-01  -3.5195605e-01  -6.7873300e-01   3.0436726e-01   7.7460125e-01  -4.8957160e-01  -7.3243652e-02   6.5776406e-01   8.4739138e-01   1.9489672e-01  -2.5109442e-02   9.6857492e-01  -7.6225129e-01   1.4320466e-01   2.9888611e-01  -3.7360964e-01  -1.3621833e-01   9.6017364e-03   3.5862109e-01  -2.2183785e-03   4.8952415e-02  -9.2932804e-01   2.8000128e-01  -8.3168250e-01   6.9087752e-01  -8.2253737e-01   4.8154167e-01  -4.8574193e-01  -2.0729258e-02  -7.0568686e-01   8.2964870e-01   6.6665031e-01   8.7840275e-01  -4.6359762e-01  -8.8642664e-01  -9.4492224e-01  -1.0613968e-01  -8.0086075e-01   9.9082570e-01   6.0362760e-01   9.5422207e-02  -5.9612723e-01  -9.3860083e-01  -8.7420295e-01   6.6810261e-01  -6.1297625e-01   4.2762072e-01  -7.0024585e-01  -2.8844187e-01   5.4300717e-01  -9.6042845e-01   2.3441827e-01  -2.1408112e-01  -1.0491215e-01  -4.4010736e-01   4.7023030e-01  -7.7170587e-01   1.0425265e-01  -9.3593384e-01   9.8470819e-01   8.7546579e-01  -6.9940490e-01   7.9864919e-01  -6.5411419e-01  -5.6347874e-01  -5.4075950e-01   8.0856680e-01  -6.0651062e-02  -6.8148468e-01   8.2598838e-01   9.3621388e-01   1.3005667e-02  -3.1739658e-01   9.9072289e-01  -3.8798009e-01  -9.0384061e-02   9.5189671e-01   2.2422008e-01  -8.9871796e-01   5.8474082e-01   8.2818998e-01  -3.0301245e-01   2.6806051e-01  -6.4677492e-01  -8.2868808e-01   6.1520311e-01   9.8978598e-01   9.8302153e-01  -5.8281979e-01  -9.7674712e-01  -9.6066132e-01  -6.0444613e-01  -6.2623624e-01  -5.5337720e-01   8.3006539e-03   5.3970937e-03   8.9982073e-01   3.0240411e-01   7.6918639e-01   2.4001657e-01   6.4066963e-01  -8.2016561e-01   9.0045288e-01  -2.8980492e-01   4.2598431e-02   1.4444670e-01  -8.7587045e-01   5.8455499e-02   6.5060917e-01  -8.8771793e-01  -9.9839114e-01  -8.8041201e-01   4.7001767e-01   6.2674606e-01   5.5930543e-01  -8.3348772e-01   5.8282677e-02   7.8434737e-01  -1.4715154e-01   2.0722148e-01   2.9566599e-01  -1.3640198e-01  -1.8410353e-01   4.5074043e-01   3.0141197e-01   2.3068045e-01  -3.9308944e-01   7.2841731e-01  -5.3360035e-01  -5.0619315e-01   4.7839353e-02   2.1808283e-01   7.0514846e-01  -6.3109206e-01  -3.1074860e-01  -7.3241437e-01  -5.1291224e-01   4.9818888e-01   4.1691497e-01  -9.6188760e-01  -8.7813633e-01   5.7455956e-01  -6.6550699e-01   6.2241250e-01   6.3628605e-02   7.4126643e-01  -6.9879140e-01   5.3732398e-01   7.6039799e-01  -7.8159035e-01   6.8059518e-01  -7.7497495e-01   8.1879953e-01  -6.9411985e-01   9.2662280e-01   4.2984516e-01  -2.6211285e-01
