   9.6861946e-01   3.2734994e-01   3.6340282e-01   1.9491356e-01   5.9111579e-01  -1.0423948e-01   1.3210843e-01   8.2799258e-01  -7.5371142e-01  -3.2587301e-01   7.6712796e-01  -1.6626636e-01   6.4338890e-01  -4.8511034e-01  -5.6703093e-01   9.2190946e-01   9.2433181e-02   3.1836882e-01   7.4823793e-01   5.5977841e-01   4.6314266e-01   5.2619461e-02  -5.3523823e-01  -6.1092334e-01   2.3006189e-01  -5.0838340e-02   4.9649102e-01  -1.4132908e-01  -7.2598622e-01  -4.5331303e-01   6.0872205e-02  -9.8026651e-01  -9.8467987e-02  -1.5596889e-01  -2.9473899e-01  -9.0207564e-01  -5.9301055e-01  -7.7948101e-02  -8.2643813e-01   2.5378584e-01   7.6043637e-02   7.2051688e-01   2.0347467e-01  -9.9222965e-01  -4.2817118e-01  -4.1988516e-01  -4.4960305e-01  -7.2995958e-01   7.8407280e-01   3.5811847e-02  -8.3951712e-01   8.8762290e-01  -8.7681524e-01  -6.3433878e-01   6.9163675e-01  -4.1675479e-01   7.7400670e-01   9.1599261e-01   3.9436255e-01   2.4296941e-01   6.9135375e-01  -1.7712199e-01  -3.6141209e-01  -9.4828376e-01   9.7621985e-01   7.4525141e-01  -6.8509421e-01   5.3332189e-01   5.2493845e-01   1.5206580e-01   2.7055019e-01   6.3173045e-01   4.1387001e-01  -3.2439653e-01  -7.2012659e-01  -7.4383838e-01   3.0169108e-01  -6.9381253e-01  -2.2463089e-01   6.4125628e-01  -3.3482663e-01   4.2481138e-01  -6.8641433e-01  -9.5042187e-01   4.2637150e-01  -4.6388693e-01   3.3195173e-01  -9.0767300e-01  -4.7661853e-01   6.0112872e-01   6.4048888e-01   7.9970579e-01   7.9233588e-01   4.2869740e-01   6.8371867e-01  -6.6137533e-01   6.7179490e-01  -7.2965924e-01   3.4936505e-01   6.0918457e-01   1.4581696e-01  -9.7871827e-02  -3.5192920e-01   6.9883713e-01   7.7749399e-01   9.8694459e-01   6.8191297e-01  -6.7484063e-01  -8.1477882e-01  -8.4022751e-01   8.4804982e-01   6.8926675e-01   4.3112492e-01   6.9822866e-01  -9.4898158e-01  -5.9103006e-01  -7.8281499e-01   6.2227671e-01   2.7613263e-01  -5.4895437e-01   6.2244218e-02  -3.8779351e-01   9.0707924e-01   9.3083932e-01   5.8325833e-01  -1.1577276e-01   4.1748400e-01   7.6368995e-01  -6.0664145e-02   6.2183859e-01  -7.1278136e-01  -7.7933036e-01   1.2937836e-01   8.0845768e-01  -6.6752160e-01  -1.8799604e-01   3.6124873e-01  -8.6857674e-01   3.9219990e-01   8.9517759e-01   9.6837332e-01   1.9093527e-01  -4.2022528e-01  -7.3782660e-01   2.4458928e-01   6.6397422e-01  -9.5176292e-01  -8.0635277e-01   8.5048329e-01   1.7979329e-03  -1.9132444e-01   2.1648621e-01  -7.6255209e-01   2.0287221e-01  -6.7078347e-02   3.5526254e-01   9.2776460e-01  -5.1116123e-01  -4.7724612e-01  -7.5405940e-01   9.2732191e-01   7.0073324e-01  -8.3507858e-01  -7.9080081e-02   3.0740717e-01  -8.6212694e-01   7.6407641e-01  -2.0074018e-01   9.9722468e-01   7.5599456e-01  -4.2142832e-01  -6.9657310e-01   7.0278409e-01   4.0558514e-01  -3.8799062e-01  -7.0080309e-01   5.5246905e-01  -8.4136101e-02   5.9336615e-01  -6.9834816e-01   9.3149328e-01   7.2007318e-01  -3.6354735e-01  -1.9244184e-01   8.0905468e-01  -2.8934134e-01   6.7208631e-01   3.7633197e-01  -3.0568952e-01  -2.9440052e-01  -2.6502160e-02  -2.1281011e-01  -7.8481019e-01   4.3475690e-02  -7.5319388e-01  -4.0882288e-01   9.6800077e-01  -8.7823447e-01  -2.9021131e-02  -8.4214511e-01   5.1818865e-01   1.6732078e-01   6.6281929e-01   3.3638651e-01  -8.3365594e-01   4.8561712e-01   9.6023754e-01  -3.5751936e-01   5.6450546e-02  -3.4136761e-01   8.8146342e-01  -8.1970508e-01  -1.0684193e-01  -9.8893707e-01   8.8030581e-01  -4.8216441e-01  -4.5666877e-01  -3.2700731e-02   4.6126533e-02   7.2696942e-01  -3.0108270e-01  -8.6988642e-01   7.4734040e-01  -9.0640573e-01   1.2271497e-01   9.4046462e-01  -6.1372591e-02   7.9898715e-01   9.6651759e-01   5.4938736e-01  -7.5376060e-01  -3.0080828e-01   7.6754704e-01  -4.6153609e-01   4.8958198e-01   6.2329132e-01   3.8657661e-01   2.4887584e-01  -3.6287178e-01   3.8849420e-02  -4.2463480e-01   5.8037405e-01   7.3430821e-01  -4.5904283e-01   9.1570862e-01  -8.6121413e-01   9.0211856e-01   4.1670024e-02   1.9532272e-01   8.6059093e-01   4.0000258e-01   7.5006457e-01   9.1564581e-01   2.2410407e-01   6.8974516e-01  -3.7887536e-01   8.2470541e-01   8.6040625e-01   9.2703581e-01   9.2936999e-01  -9.9868651e-01   5.0231463e-03   4.6728268e-01  -2.4491857e-01  -6.8996177e-01  -9.1197405e-01  -4.9261346e-01   2.4270302e-01   5.8657007e-01   8.2254675e-01  -1.6492822e-01  -9.7660895e-01   1.6655136e-01   3.1051510e-01  -3.7815323e-01   6.6900972e-01  -1.6976569e-02   9.7952538e-01  -4.6609931e-01   2.4921884e-01   9.7345800e-01   3.7331575e-01   6.7560001e-01  -1.3598678e-01  -9.4930551e-01   7.5982967e-01   3.7959990e-01  -9.8338068e-01   3.4856959e-01   9.9026875e-02  -8.3354204e-01   5.0395660e-01  -5.4947294e-01   7.7977163e-01   3.1334087e-02  -1.5159489e-01   1.0496007e-01   7.6690601e-01   3.3063049e-01  -1.1318001e-01   3.5642246e-01   7.5865611e-01   8.6146411e-01  -4.2623300e-01   9.0624119e-01   2.1514692e-01   4.6808614e-01   6.3401780e-01   8.4090731e-02   4.3698057e-01  -2.2273502e-01  -8.7123553e-01  -9.1496727e-01   1.1007477e-01  -7.3523245e-01  -8.3036239e-02  -9.0541213e-01   5.2167642e-01  -5.0574407e-01   1.5339927e-01   2.3209036e-01  -3.2589956e-01   4.1019456e-01  -3.4042165e-01   6.9916937e-01  -6.0049386e-01  -5.7164227e-01  -5.0785625e-01   4.5168414e-01  -8.8084034e-01   7.2276491e-01  -9.2468047e-01  -6.9604969e-01   5.6468126e-01  -1.5391967e-01   1.4574769e-01  -6.2428739e-01  -2.3576544e-01  -2.4286890e-01  -2.8063263e-01   6.3903400e-01   4.2287800e-01   1.9962338e-01   9.7305723e-01  -1.7942566e-01   1.4448174e-01   5.8265832e-01  -9.5034328e-02  -9.8071299e-01  -7.6407124e-01   6.9337373e-01   6.2347877e-01  -8.4407417e-02  -4.2727249e-02   4.8850630e-01  -4.2534113e-01   8.6767411e-02   9.8041846e-01  -5.0919739e-01   2.8095453e-02  -4.2801976e-01  -6.2470734e-01  -5.1716725e-01  -6.5240397e-02  -3.9170836e-01   7.6536191e-01   7.1245223e-01  -6.6646402e-01   1.4825351e-01  -4.4518558e-01   6.3279505e-01  -6.4789511e-02   3.7195529e-01   6.6518830e-01  -6.1801652e-01  -4.6499648e-02  -7.9819925e-01   8.4065764e-01  -6.8665472e-01  -5.0283842e-01   4.2022500e-01   8.0330519e-01  -1.7434598e-01   1.2114263e-01   3.6571112e-01   2.8927330e-02   2.5398601e-01  -9.4870745e-01  -3.4045144e-01  -6.7014447e-01  -3.2202125e-01   2.1412599e-01  -6.0620539e-01   2.9762518e-01   1.1443270e-02  -4.8931074e-01  -4.3303381e-01   5.2010198e-01  -3.9990514e-02   2.2854104e-01  -4.9803134e-02   9.7209696e-01   4.3974219e-01  -9.4262146e-01  -8.1435722e-01   8.6647646e-01   6.4062559e-01   3.8922912e-01  -6.9962316e-01  -6.7883314e-01  -1.4865923e-01   4.2380314e-01   9.6480649e-01   6.1279755e-01   7.6129908e-01  -4.3357887e-01  -8.4920380e-01  -1.4820171e-01   4.8010733e-01   1.0547027e-02  -3.2809875e-01   1.1310251e-01   3.2032252e-02   3.2577885e-02  -6.5882980e-01   7.6712213e-01   4.7775254e-01  -7.5833107e-01  -4.2785051e-01  -6.5403901e-01  -5.7382696e-02   1.6138828e-02  -8.1247670e-01  -9.4689642e-01  -3.4814473e-01  -1.2059626e-01   6.0333861e-01  -2.6920004e-01  -2.3765472e-01  -7.3428250e-01   9.9481945e-01   1.3577147e-01  -3.6431188e-01  -5.8932849e-01   6.6723769e-01  -5.6405245e-01   4.5973458e-01   4.7536138e-01   6.7486598e-02   7.9780934e-01   6.7838682e-02   9.6158010e-01  -6.4814170e-01   6.6132685e-01   8.7767856e-01   8.5413462e-02   3.2090219e-01   6.9045907e-01  -2.2343101e-01  -7.3764841e-01  -6.5827361e-01   4.8375723e-01  -8.8295928e-01  -8.3171411e-02   9.0715875e-01  -6.7420039e-01  -6.1024102e-01   7.7210756e-01  -3.4388106e-01  -8.6341076e-01   4.2412330e-01  -1.0017178e-01   4.2341519e-01  -3.8554267e-01  -9.5599092e-01  -5.6388637e-01   1.6451966e-01   4.4054341e-01   8.4432059e-02   6.4444127e-01   5.7855402e-01  -5.8303597e-01   8.5855733e-01   2.9265256e-01  -9.9039616e-01  -8.6018255e-01   2.5932666e-01  -2.0111933e-02  -3.8757939e-01  -9.5224489e-02   5.5953320e-01  -9.4744293e-01  -6.7770726e-01  -1.9845570e-01  -3.8262884e-01  -2.4738934e-01  -2.2499226e-01  -8.1449573e-01  -7.9106812e-01   6.7553099e-01   8.6902252e-01  -2.8072014e-01   5.1980447e-01   2.2106784e-01  -3.2308424e-01  -2.7190542e-01   5.5906771e-01  -3.5035466e-01   2.9512450e-01   4.9934972e-02   5.5563589e-01  -2.4826090e-01   3.4366172e-01   3.6854939e-01  -7.0482400e-01  -9.1460739e-01   7.5203737e-01   6.7559549e-01   2.2550752e-01  -1.2812898e-01  -9.8212190e-01  -8.4635893e-01  -3.4200621e-01  -4.9065626e-01  -5.1253101e-01  -1.1566228e-01   6.8888514e-01  -3.1983165e-01   9.6940358e-01  -6.4563547e-01   6.4788633e-01  -4.1493787e-01  -9.3682021e-01   8.7173649e-01  -5.5050980e-01   7.2243567e-01   1.3202878e-01   7.2767807e-01  -9.5127934e-02  -3.1908331e-01   2.6304547e-01  -9.0497812e-02   2.1094287e-01  -4.2068148e-01  -2.3440522e-01   5.0876691e-01   8.0009461e-01   3.2259929e-01   2.3195909e-01   7.2940405e-01  -5.8269924e-01  -4.3431876e-01  -1.7122484e-01  -5.5835842e-01   1.8801165e-01   8.8430097e-01  -3.6079846e-01   3.2075128e-01   8.2565583e-01   3.2645992e-01  -5.1978885e-01   9.5373271e-01  -9.0930609e-01  -1.3533459e-01   9.7598213e-01   5.0727627e-01  -8.5610110e-01   7.2446340e-01  -5.3033541e-01   1.8145101e-01  -8.3241093e-01  -6.2037605e-01   3.5040953e-01  -8.9330543e-01   9.5496206e-01  -6.3062244e-01   9.2364224e-01   5.9948098e-01  -7.1622965e-01   1.6041523e-01  -7.3688716e-02  -8.7168704e-01  -2.9223223e-01   7.7478219e-01   3.2021225e-02   6.2414878e-01   2.8169070e-01   1.5606906e-01   8.1412383e-01   9.3723566e-01   5.2631645e-01  -5.8153664e-01  -9.3154864e-02   7.9008399e-01  -6.2828479e-01  -6.1247811e-01   8.4395337e-01   4.2346788e-01  -2.8095302e-01   6.1059924e-01   1.8160315e-01   5.7852754e-01  -1.5766621e-01  -4.3162371e-01   9.9149034e-01   6.6376522e-01   2.0096963e-01  -6.7661327e-01   6.5696990e-01   7.3831255e-01   8.5123278e-01   6.0374611e-01   3.7995273e-01  -4.2810926e-01   5.2972510e-01   2.2867345e-01  -9.4739693e-01  -7.8313895e-01   5.9434237e-01  -8.5291709e-01  -4.7026831e-01   6.4256028e-01   5.1827139e-01   2.5073314e-01   7.1907192e-01  -1.5842972e-01   2.1810281e-01   5.7544853e-01  -4.2013820e-01   7.8124743e-02  -5.8433305e-01   7.3499516e-01   3.3810908e-01  -7.7587862e-01   5.1815242e-01   3.1777779e-01   4.1995262e-01  -6.1054527e-01   3.4266261e-01  -8.1485696e-01   4.7654465e-01   2.7744091e-01  -4.3710451e-01   8.5120131e-01  -8.3013389e-01   8.5313403e-01  -6.9616396e-01  -9.6925657e-01  -8.6975413e-01  -9.4114312e-01   8.4682223e-01   5.3212303e-01   2.0999585e-01  -6.6961996e-01  -4.3269593e-01   8.7930303e-01   5.0217444e-01  -1.7778834e-01   7.0628529e-02  -9.4923079e-01   7.3783710e-01  -2.2378236e-01  -3.6739902e-01   8.2195898e-01  -4.2595676e-01   5.2255838e-01   8.1574037e-01   7.6337400e-01  -4.1449311e-01  -8.2061083e-01   2.5724904e-01  -4.4353393e-01   5.3319829e-01  -7.4837445e-01  -6.2498164e-01   4.9297945e-01  -2.5437403e-01   5.4711592e-02   8.7994970e-01   7.3762818e-01   2.6773529e-01   2.9944378e-01  -3.1359353e-01   1.8105606e-02  -4.0286576e-01   9.4032571e-01   5.6570682e-01  -3.8838967e-01   5.5590398e-01  -7.3460513e-01   7.6743808e-01  -6.1189856e-01   4.5465677e-02  -3.8828953e-01   1.8687913e-01   7.2614712e-01  -4.8901169e-01  -3.4105836e-01   8.8360573e-01   6.5378443e-01   6.7798440e-01   9.8689190e-01   5.8454586e-01  -9.1130004e-01  -3.9730744e-01  -8.8434607e-01   8.3945435e-01   3.5908111e-01   5.5817952e-01  -7.1582572e-01  -1.4830092e-01   4.6349936e-01   5.0513714e-01   1.7581694e-01   8.2486596e-01  -8.1313763e-01   9.5129614e-01  -5.0397099e-01  -7.2527929e-01  -5.6127210e-01  -2.3087338e-01  -5.4020923e-01  -8.9786971e-01  -5.8721124e-03  -2.4160600e-01   8.7818684e-01   6.2626717e-01  -5.3302340e-01  -3.8518218e-01   3.7851280e-01   8.2099906e-01   4.9967112e-01   6.8894028e-01  -3.8307169e-01  -1.5680938e-01  -1.6919768e-01   9.2857863e-01  -4.5131020e-01   7.4892133e-01   3.2114133e-01  -7.0195236e-02   4.4021273e-01  -6.8765201e-02  -9.7647005e-02  -6.3900888e-01  -8.4442396e-01  -3.5116186e-01   2.2554497e-01   4.6946387e-01  -4.5132743e-01  -8.8654162e-01  -9.7298206e-02   2.0568897e-01   2.6434080e-01   5.0554637e-02   6.7319628e-01   6.8713633e-01  -1.3893491e-01  -6.9353124e-01  -4.8026773e-01  -6.4114523e-02  -9.4641694e-01   1.8855825e-01  -4.1888892e-01  -8.1702680e-01  -4.6529133e-01   7.1967400e-01  -7.5153732e-01  -8.2382936e-01  -5.6659687e-01   9.4953852e-01  -8.3380929e-02  -9.5251925e-01  -2.4549469e-01  -7.9946945e-01   1.3803176e-01  -4.4091803e-01  -7.4127185e-01   3.6976324e-01   8.9141656e-01   2.0090109e-01   3.8567301e-01  -7.1475637e-01   2.8341327e-01   5.4837010e-01   8.3062501e-01  -4.4467884e-01  -5.0068870e-01  -7.9034137e-01   4.3159594e-01   2.8731119e-01   5.8479166e-01   3.6105133e-02   9.2891018e-01   8.5015054e-01  -7.0067205e-01   6.3380897e-01  -1.2012527e-01  -1.8471581e-01   6.5371909e-01   5.5133044e-01   7.8669357e-01   6.4160765e-01  -6.1353657e-01   4.2139619e-02  -9.3249013e-02  -1.6706705e-01  -6.4990369e-01   2.7712943e-01   1.9999246e-01  -4.9553580e-01   7.1151708e-01   8.0590687e-01  -2.1310103e-01   6.4921369e-01  -6.9428382e-02  -5.7464871e-01   7.5240275e-01  -8.2306669e-01   4.0567253e-01   6.9961323e-01  -2.5830335e-01  -9.2355458e-01  -1.3747026e-03  -6.4677725e-02  -7.7409832e-01   4.7857455e-01   2.9403178e-01  -3.5149990e-01  -1.2649095e-01   8.9257280e-01   6.8483735e-01   7.2993230e-01   6.1668125e-01   8.2201065e-01  -6.7129631e-01  -9.8416755e-01   5.1211271e-01   2.8622650e-01   7.8725759e-01   7.7990008e-01   7.9922039e-01   5.3136052e-01  -4.1126732e-01   1.5089246e-01  -2.5289807e-01   2.8989806e-01  -8.7119489e-01  -6.0737386e-01  -2.5244100e-01   6.2204067e-01   7.3768301e-01  -9.9289787e-01   5.6247790e-02  -5.5025437e-01  -3.3770091e-01   5.6483821e-01  -8.3126476e-01  -9.1410617e-01   2.9268523e-01  -8.9225597e-02   7.7549136e-01   6.0082494e-01   2.0527858e-01   3.2568197e-01  -3.5396854e-01  -8.9434153e-01   1.7106264e-01   3.2469409e-01  -8.8861812e-01  -2.6323217e-01   2.3405063e-01   5.7866928e-01  -3.8270466e-02   2.0470876e-01   1.1726035e-01  -4.5049834e-01   1.6290336e-01  -6.5646076e-01  -5.5989862e-01   4.4235033e-01  -3.2157091e-01   3.8920497e-01   4.1859011e-01  -3.4340262e-02   8.6572469e-03  -9.3762129e-01  -8.1637859e-01  -3.0554794e-01  -6.3551923e-01   1.6958873e-01  -2.3128498e-01   7.1801782e-01  -5.2878869e-01   6.4277701e-01  -6.8295795e-01   7.1416511e-01   9.2548995e-01  -9.5724986e-01  -5.0715332e-02   4.0792831e-03   6.8948138e-01  -3.6793628e-01   7.8525269e-01  -7.4486885e-01   7.6142173e-02   8.1179964e-01  -2.9949272e-01   6.0435883e-01   2.4794661e-01  -3.2876551e-01  -3.5001561e-01   5.9366707e-01   1.7790486e-01   3.5338769e-01  -8.7733209e-01  -5.0178580e-01   5.2251062e-01   2.2593245e-01  -6.0859913e-01  -9.6196202e-01   1.7636410e-01  -9.9847662e-01  -7.9245669e-01   6.2830897e-01   5.6228806e-01   9.4410430e-01  -3.1613356e-01  -4.2362139e-01   6.6761716e-01   5.7404520e-01  -1.8407447e-01  -7.4993822e-01  -2.3476874e-01  -4.7333781e-02  -6.0993227e-01   5.1581632e-01  -1.8086774e-01  -7.4024757e-01   3.6341625e-01   1.4118653e-01  -4.9503388e-01   9.5489561e-01   9.8447542e-01  -2.1801057e-01   3.3461200e-02   6.7287315e-01   2.9419173e-02   9.0445940e-01   8.9279697e-01   4.4087472e-01   4.3000718e-01   4.8737713e-01  -1.3858688e-02  -9.3855557e-01   7.6476852e-01  -9.5327003e-01  -4.9439999e-01   1.1247957e-01  -2.6145071e-01  -5.3602582e-01   1.7425475e-01  -2.6724804e-01  -6.3256825e-01   1.6007329e-01  -1.2678421e-01  -5.3730809e-01  -7.5308006e-02  -4.9365020e-01  -5.7878005e-01  -9.4451028e-01   9.7303957e-01  -2.8083794e-01  -7.0506051e-01  -7.3554215e-01  -8.9209954e-01  -6.5313071e-01   5.2335174e-01  -9.3249739e-01  -1.9902984e-01  -2.1003208e-03  -4.4800915e-01  -7.5116486e-01   8.3573466e-01  -8.2289964e-01  -7.2241826e-01  -6.9151799e-01   9.4412276e-01  -3.9767418e-01   6.1414642e-01   4.6352816e-01  -6.4103611e-01   6.2009242e-01  -4.4570918e-01  -8.4794212e-01   2.9013237e-01   8.4989376e-01  -3.2058261e-01  -4.1360536e-01   9.8080543e-01
  -9.3282235e-01   6.8159488e-01   1.9250964e-01   7.0009307e-01  -8.1963865e-01  -9.6461904e-01   4.1393984e-02   7.9113587e-01  -7.6910158e-01  -2.2364235e-02   9.3180671e-01  -3.1228486e-01  -2.0429945e-01   1.5694296e-01  -3.2350064e-01  -6.9340200e-01   7.2924800e-01   3.0134019e-01   8.1561257e-01   4.7518915e-01   1.9430956e-01   4.0879370e-01   8.4905733e-01  -7.5099693e-01  -3.7426352e-02   8.3401500e-01   9.2609319e-01  -5.5942032e-01  -2.4004070e-01  -3.3267411e-01   7.4813114e-01  -2.1506984e-01  -1.9064739e-01  -1.7625181e-01  -5.1223844e-01  -5.3766216e-01   4.4448493e-01  -5.3879551e-01  -8.9891284e-01   7.1137408e-01  -3.7067526e-01   2.0434207e-01  -2.7131801e-01  -7.6239172e-01   5.3136458e-01   1.1168941e-01   3.0094467e-01  -3.9974872e-02  -3.7410000e-01   5.3127002e-01  -6.2699540e-01  -8.5360531e-01  -7.8526533e-01  -4.3948446e-01  -6.9978758e-01  -9.2719266e-01   5.4992812e-01   1.6476656e-01  -6.2004112e-01  -9.9079566e-02   4.5425060e-01   1.0901480e-01  -6.3613879e-02  -7.8129292e-01  -8.5886928e-01  -1.5027958e-01  -5.0669504e-01   8.3533683e-01  -2.1567381e-01   2.6976429e-01   4.5920826e-01  -9.1555812e-01  -1.6999464e-01   2.2798992e-01  -8.7670086e-01  -1.7491764e-02   6.5067532e-01  -4.2735751e-01  -9.5141203e-01   6.4492230e-01   4.9856212e-01  -7.8633813e-01  -5.8913156e-02   3.3071894e-01   3.4270099e-02  -7.1421321e-01   2.8676861e-01   2.3221790e-01   5.8557729e-01   6.4353532e-01  -8.3139970e-01  -7.9463442e-02  -5.5007092e-01  -5.9031592e-01  -1.1231142e-01  -1.9573217e-01   6.8997840e-01   7.6303755e-01  -2.7314372e-01   3.8000687e-01  -9.8016982e-01  -8.0939673e-01   3.6297405e-01  -5.7426109e-01  -4.2067970e-02  -6.9760796e-01  -1.1331030e-01   8.7687622e-01  -6.9626076e-01  -2.7903332e-01  -5.3249819e-01   5.6114665e-01  -6.5612142e-01  -3.7179910e-01  -4.3207756e-01  -7.5778929e-01   5.7752363e-01  -8.4673222e-01   1.7041290e-02   4.6920700e-01   9.7585083e-02   6.5150523e-01  -2.5662260e-01  -6.8313492e-01   4.3433671e-01  -8.6620620e-01  -7.5675798e-01  -5.3311947e-01  -6.4661969e-01   2.5987085e-01   7.4599043e-01   9.4017246e-01  -5.8186941e-02   1.9583855e-01  -3.8309490e-01  -6.9162559e-01  -3.7185197e-01  -6.8599698e-02   8.7291928e-01  -7.2518424e-01  -3.1567108e-01  -5.3517391e-01  -1.6782401e-01  -6.7823642e-01  -4.4311154e-01  -6.8231159e-01   6.0411864e-01  -1.1244787e-01  -4.8512927e-01  -3.5923905e-01  -5.0237423e-01   2.7338075e-01  -5.1806118e-01   6.9847552e-01  -9.9504442e-02   1.3248089e-02   7.9597682e-01   1.5955093e-01   4.9538768e-01   6.8491619e-01  -4.6481532e-01   2.7838735e-01   5.7119636e-01  -6.4974163e-01   4.3987057e-01  -3.1836929e-01   6.7994450e-01  -3.2493441e-01  -5.7276455e-01   3.7425460e-01   4.9838215e-01   1.8216256e-01   7.9593090e-02   2.0800938e-01   2.3392479e-01  -1.4513964e-01  -3.9386804e-02  -5.5827785e-01   6.2596411e-01   1.5732271e-01  -8.3639893e-01  -3.9488139e-02  -6.2291608e-01   8.0302688e-01  -8.4852972e-01  -8.0225393e-01   5.9765093e-01   7.8554188e-01   2.0194822e-01  -6.7745315e-01   7.3020795e-01   6.4490413e-01   6.3143102e-01  -6.1336889e-01   9.9883994e-01   4.8518532e-01   5.6703015e-01   4.5178186e-01   1.2653218e-01   7.5816629e-01   2.3540738e-01   4.0849482e-01   7.8068073e-01  -1.7250357e-02  -1.8631774e-01   7.0571635e-01  -6.0757780e-01   4.8973890e-01  -9.7168035e-01  -3.6924589e-01   1.1679581e-01   1.9019725e-01  -5.3071539e-01  -8.8408205e-01   5.3990448e-01  -9.7560609e-01   1.7585173e-01  -1.6190995e-01  -1.1797317e-01   7.8181897e-02  -6.5795828e-01  -9.9246302e-01  -2.0380722e-01   5.3728827e-01  -9.8438576e-01   6.4807220e-01  -4.8567429e-01  -3.8294786e-01   7.8161105e-01  -1.9116051e-01  -2.3966257e-01  -5.9232746e-01  -6.6089456e-02  -6.0644522e-02   2.8644898e-01  -9.7558925e-01  -7.6385105e-01   9.4964928e-01  -2.7645203e-01   6.2231905e-01   1.9176041e-01  -5.9592323e-01  -6.2859819e-01   9.2159718e-01  -3.2061385e-01  -4.1850901e-01  -7.5025414e-01   7.3271245e-01  -4.1271907e-01  -6.2114406e-01   8.1770223e-01  -4.1330815e-01  -8.1118686e-01   1.3857250e-01  -4.5520777e-01   7.5623816e-01  -6.7806067e-01  -2.0352475e-01  -2.8185102e-01   7.2777271e-01  -1.1885908e-01   9.2091726e-01   5.2390676e-01  -2.9632514e-01  -8.5232228e-01   3.8449911e-01   1.8484784e-01  -9.7725307e-01   3.3463704e-01  -6.7195014e-01  -6.5570692e-01   6.7899762e-01   2.8032215e-01   5.3515936e-01   4.7119040e-01  -8.5695927e-01   9.3741070e-01  -6.4536704e-01  -6.4589709e-01   7.4581465e-01   9.0385405e-01   5.8663577e-01   3.1832215e-01   6.3147213e-01   7.6211825e-01   3.3611115e-01   5.9832239e-01  -3.6887256e-01  -7.2142761e-02   9.8116148e-01  -4.4789725e-02  -9.3012065e-01  -8.9763429e-02   4.3517426e-01   6.2710233e-01  -4.2586610e-01  -9.1084721e-01   5.2102536e-01   9.4075880e-01   2.0695593e-01  -1.7105154e-01  -3.8270795e-01   2.1081742e-01  -7.3226659e-01   3.8036922e-01  -5.6279555e-01  -4.9942265e-01  -8.8771183e-01  -5.6637835e-01  -4.0890831e-01  -8.0769004e-01   7.9386500e-01   3.0402268e-01   4.0733257e-01   1.4303567e-01   6.1551208e-01   1.0547706e-01  -5.6124723e-01   8.1192410e-01   2.7408054e-01   3.9436410e-01  -3.8115115e-02   9.4151872e-01   6.6372359e-01   9.0372049e-01   6.8502934e-01  -2.2730966e-01  -6.2240919e-01  -1.2096197e-01   7.8444134e-01   1.8435445e-01   4.7912817e-01  -6.8694771e-01  -5.3914297e-01   6.8584723e-01   5.4201651e-01  -6.0595975e-01  -3.2803757e-01   9.3784117e-02   7.8811692e-01   1.2086428e-01  -1.7078350e-01   2.0684472e-01  -9.1408566e-01   1.9301733e-01  -3.7066018e-02   2.3646491e-01  -7.5997698e-01   5.0588038e-01  -8.5912010e-01   8.9930929e-02   2.6090281e-01   6.3008045e-01  -6.6221900e-02  -1.2839166e-01   5.2372978e-01  -2.5285606e-01  -8.2167774e-01   6.2320405e-01   4.0076649e-01  -8.8356172e-01  -9.7694314e-01   5.7850891e-01   5.0527320e-01   4.6414537e-01   8.7887825e-01  -2.7031758e-02  -4.9164639e-01   9.9860359e-01  -6.3452400e-01  -5.3892743e-01   7.2947210e-01   8.2828286e-01  -1.8886995e-01  -1.0113094e-01   6.2452754e-01   9.5943432e-01  -6.9231342e-01   3.3365433e-01  -5.1709184e-01  -3.4752225e-01   1.8239288e-01   1.7562268e-01   9.1541261e-01   5.5805743e-01   1.0316312e-01   7.7142612e-02   7.2344310e-01   3.2333849e-01   6.4735261e-01   4.8357574e-01   1.2320570e-01   8.4588341e-01   5.0680338e-01  -7.5336487e-02  -3.5641857e-01   1.0851071e-01   6.3567247e-01  -2.5907167e-01  -2.6875206e-01  -9.9419783e-01  -3.6854592e-01   7.1662277e-01  -6.3482139e-01   1.8139927e-01  -4.4992002e-01   8.8863648e-01   3.8501745e-01  -5.2903593e-02   5.3369825e-01  -5.4633311e-01   8.5852199e-01  -6.2087837e-01  -1.2331887e-01  -2.1696155e-01  -3.3483516e-01  -9.2509656e-01  -7.4767343e-02  -8.6785017e-01   6.2887465e-01  -7.2816496e-01   1.5833869e-01   1.5190508e-01   4.8440023e-01  -7.9039674e-01  -8.2911694e-02  -4.9347273e-02  -7.5085933e-01   7.5094524e-01  -3.4322249e-01   3.3503406e-01  -5.3456916e-01  -7.5465681e-01  -9.2911167e-01  -6.7253998e-01   9.7309275e-01  -6.6197059e-01   2.8348246e-01   9.3588606e-02   3.4459100e-01  -4.5326799e-01   6.4283384e-02   1.2937429e-01   3.6738947e-01  -2.7209069e-01  -7.6077992e-01   6.2098901e-02  -4.5698192e-01  -3.0236550e-01   7.5685677e-01   2.5168946e-01   3.2541804e-01   6.1807961e-01   7.5541239e-01  -9.5894054e-01  -3.7427602e-01  -8.5133763e-01   7.7872280e-01   7.6564482e-01  -9.3117339e-02   3.0200163e-01  -9.3822318e-01   4.5197604e-01   2.5436502e-01   3.9449369e-01  -3.0401433e-01   9.1708360e-01  -7.7727685e-01  -2.2045574e-01   6.7754175e-01  -8.8901997e-01   3.4308896e-02  -5.9050331e-01  -2.7079255e-01  -5.6051061e-02  -2.9571957e-02  -3.0547028e-01  -9.9455063e-01   3.3909730e-01   2.8112364e-01  -7.9883969e-01  -4.3566787e-02   5.6603703e-01  -8.6420964e-01  -6.8395567e-02  -9.7564882e-01   7.8894209e-01   3.9588519e-01   7.4973505e-01   4.6106314e-02   1.7345416e-01  -7.6511186e-02   6.5072906e-01  -2.5555238e-01   3.1853273e-01  -1.0366350e-01  -6.9601385e-01   5.9340450e-02  -3.0008703e-02  -3.5628305e-01   1.5538195e-01   3.9190759e-01  -1.7073631e-01  -4.3766834e-01   7.5598630e-01  -3.7517578e-01  -1.8220879e-01  -1.1039341e-01  -6.0539565e-01   3.3465426e-01   4.8925056e-01   9.4080135e-01  -6.3633399e-01  -6.4804009e-01  -4.9216892e-01  -7.4427082e-01  -2.5689319e-02  -9.3725359e-02  -4.2601825e-01  -4.9782893e-01   6.2571278e-01   2.3814198e-01  -7.9123510e-01  -5.0455748e-01  -3.5836208e-01  -3.7013198e-01  -7.2129401e-01  -3.5632580e-01  -8.3197071e-01  -5.4343527e-01   7.2153505e-01   1.3024125e-01   1.5078485e-01  -2.7857693e-01  -1.6795221e-01  -4.4119193e-01   5.0119450e-01  -4.4400066e-01   7.5757677e-01  -8.6436842e-01   8.0966145e-01   8.8127523e-01   8.9489597e-01  -6.3353496e-01  -7.8365101e-01  -1.0773682e-01  -8.4290791e-01   5.8798480e-01   2.5265305e-01  -9.0331380e-01   9.7055759e-01  -3.7742979e-02   1.2151827e-01  -9.0829287e-01  -5.8830182e-01  -7.9522249e-01  -7.4488148e-01  -8.3967628e-01  -2.5605172e-01   2.9581827e-01   9.7726661e-01  -2.3839176e-01   4.6727396e-01   1.2419172e-01  -9.8013113e-01   6.4659219e-01   2.8070797e-01  -1.7280145e-01   9.5233724e-01  -9.4925333e-01  -6.0437951e-01   9.6642799e-01  -1.3154102e-01   4.4131887e-01  -6.6782352e-01  -7.1825688e-01   4.0949865e-01  -6.3673427e-01  -1.7184966e-01   9.9273340e-01  -6.2412436e-01   3.3275879e-01   5.5621572e-01  -2.5067571e-01   5.2295335e-01   7.8530808e-01   4.1290105e-01   2.3183750e-01   3.1802277e-01   3.6570222e-01   5.8460503e-01  -9.1459933e-01  -9.8982309e-01  -4.3805914e-01  -4.9592683e-01   2.0094893e-02  -2.3732025e-01  -5.5714831e-01   2.8508900e-02  -7.4328503e-01  -4.0758541e-01   2.5663142e-01   6.2655493e-01   9.0043084e-01  -5.9611389e-01   2.6726114e-01  -8.8556259e-03  -7.3511463e-01   3.4458698e-01  -5.2307282e-01   5.1039018e-01   3.7104849e-01   1.9389353e-01  -4.4549374e-01   6.1329876e-01  -2.9483976e-02  -4.6475232e-01   5.4232491e-01  -1.4444350e-01   8.2661860e-01  -7.7556803e-01  -6.8766175e-01  -8.6633918e-01   7.3175201e-01  -5.5456454e-01  -4.5559657e-01  -2.0323412e-01   5.5959283e-01   3.1813212e-01   6.1379575e-01   6.9128782e-01  -1.6994156e-01  -5.0505019e-01   7.5388063e-01   3.8191759e-01  -9.6199128e-01   1.6343861e-01   5.4132138e-01  -3.5697605e-01   1.8268740e-01   9.2608145e-01   5.6230794e-01  -8.2156843e-01   9.5536518e-01   9.1733683e-01   6.9625957e-01  -3.7849630e-03   1.9629692e-01  -4.5551375e-01   7.9018449e-01  -3.6289545e-01  -4.6396663e-01   3.3750468e-02  -9.7413088e-01  -4.3093621e-02   7.1525056e-01  -3.7550725e-01  -8.5226804e-01  -9.8900950e-01   4.3547117e-01   7.3464301e-01  -9.1371311e-01   3.4311409e-01  -7.7942037e-01  -4.0716346e-01   6.4128519e-01   8.6070275e-02   6.1485676e-01   7.9685746e-01  -3.3459384e-01   2.5362605e-01   5.8539703e-03  -6.2731926e-01   4.4003912e-01   6.3117447e-01   3.2110122e-01   9.2383108e-01  -6.0555289e-01  -9.9602563e-01   5.8972499e-01  -7.7071192e-02   1.9060963e-01   2.8526282e-01  -1.7797090e-01   7.0988364e-01  -6.3854738e-01   7.2423535e-01   9.2430283e-01  -6.7354386e-01   5.7012543e-01   2.8128695e-01  -3.0210043e-01   4.1051289e-01  -7.2010352e-01  -6.3533740e-01   2.4093729e-01  -3.9795161e-01   7.7184493e-01  -1.7393058e-01  -1.5578437e-01   2.8706468e-01  -9.2414352e-01   9.9449865e-01   7.9551184e-02  -6.5050106e-01   3.1371299e-01  -8.5896676e-01   4.7858296e-01   3.8633437e-01  -4.6403963e-01  -2.2246232e-01   2.0102641e-01   9.6895781e-01   9.7274129e-01   1.8727963e-01  -9.8984979e-01  -7.1101169e-02   3.8967064e-01  -6.7669267e-01  -7.0263342e-01   6.1168611e-01  -7.1165156e-01   9.3455147e-01   1.2214225e-01   4.0414704e-02  -6.1732193e-02  -3.3945144e-01   6.7549178e-01  -3.0328612e-01   9.2977795e-01   2.6211609e-01   8.1676915e-01   4.9072005e-01  -2.8923855e-01  -4.6670696e-01   3.8458666e-01  -6.0845379e-01  -4.2322531e-02  -5.1836145e-01  -5.8070102e-01   9.3204259e-01   1.5178577e-01  -7.1836493e-01   4.7806502e-01   3.4030051e-01   7.1406791e-01   6.3678743e-02  -9.1502338e-01   9.9629603e-01   6.7032910e-01   7.2359768e-01   6.7192526e-01  -3.4308916e-01   3.3593488e-01   6.9243158e-01  -8.5810106e-01  -5.1359164e-02   9.6956204e-01   1.6684634e-01  -6.4635802e-01   1.2759080e-01   7.2962348e-01  -5.5322960e-01  -8.2995697e-01  -2.7683186e-02  -9.9357442e-01  -4.7984336e-02   1.0007513e-01   5.9729007e-01   9.8188752e-01  -2.9354642e-01   5.2064156e-01   5.5226913e-01  -8.1396941e-01   5.1850053e-01   5.3224242e-01   7.7151272e-01   7.3451769e-01   4.8274338e-02   4.1562506e-01   5.7316281e-02  -7.9498305e-01   8.2891450e-01  -1.2191785e-01  -4.6672390e-01   8.8427523e-01   6.4401826e-01   2.5017260e-01  -1.8751853e-01  -4.3648585e-01   5.1367451e-01  -6.7898820e-01  -1.4391473e-01   2.7076175e-01   7.9959012e-01  -9.5314748e-01  -2.7439374e-01   4.5672208e-01   6.2409320e-01  -2.8408968e-01   3.0667787e-01  -1.6818193e-01   8.4775350e-01   3.5992491e-01  -6.6412888e-02  -5.8597225e-01   4.8475529e-02   2.6767742e-01   6.2940799e-01  -2.5720326e-01  -1.7554947e-01   6.7675791e-01  -2.8165164e-01   7.9027268e-01  -2.6892790e-01  -3.2758129e-01  -9.0007701e-01   1.8635751e-01   3.9449732e-01  -9.0587936e-01   7.8722709e-02  -7.7920646e-01   6.8958948e-01  -3.3391616e-01  -1.3612320e-01   2.6542286e-01  -4.8325403e-01  -9.5834127e-02   7.0333972e-01  -9.8268641e-02   3.5465005e-01   7.9931528e-01   4.8463710e-01   8.2656243e-01  -6.0833048e-01   8.4437004e-01  -7.6783199e-01   6.0632951e-01   3.7524494e-01  -9.6436542e-01  -9.8977506e-01   6.5079849e-01   5.5447385e-02   6.4459928e-01  -6.8700781e-01  -5.8836623e-01  -3.7416049e-01  -3.3742025e-01  -5.4593566e-01   9.3558193e-01   7.7468670e-01  -2.9917489e-01  -2.8641765e-01  -9.8780339e-01   8.6709273e-02   2.7683689e-01   7.9375170e-01   2.2920824e-01  -2.6460455e-01   4.1539539e-01  -5.3568265e-01  -6.9481512e-02   8.2769643e-01  -7.4303251e-01  -1.1601969e-01  -2.4306247e-01   5.3957426e-01  -7.5861000e-01   2.6664194e-01   6.9338030e-01   1.4771757e-01   3.9940183e-01   5.0772827e-01  -3.9231910e-01   3.6159508e-01  -9.1092776e-01   1.9659952e-01   7.7697297e-01  -4.5333414e-01  -9.2439304e-01   4.5792025e-02  -6.6113455e-01  -9.7690021e-01  -9.6060824e-01   7.8383910e-02   3.2984387e-01  -6.4928604e-01   2.6587617e-02  -4.1897777e-01  -7.4696960e-01  -2.7146546e-01   6.2753828e-01   4.7550084e-01  -9.3500575e-01   2.7661599e-02   8.1784747e-02  -1.3771196e-01   1.3109723e-01   7.9126639e-01  -4.9053813e-01   7.8298547e-01   3.5609674e-01   2.9249537e-01   7.7480201e-01  -5.6118985e-01  -4.3840412e-01   6.5544285e-01   6.6116721e-01  -1.5607605e-01  -4.8559357e-01   9.2632099e-02  -1.5368621e-01  -4.2742185e-01  -5.9865662e-01   5.7178944e-01   8.8176891e-01   4.3338218e-01  -1.5265348e-01  -9.9852439e-01  -8.7148089e-01  -2.3100197e-01   2.1890715e-01   6.3930663e-01  -8.7559429e-01  -6.4224903e-01  -3.1656465e-01  -2.0830287e-01  -9.0845720e-01   1.9500786e-01  -1.9564563e-01   2.9544963e-01   7.9582561e-01   8.8687081e-01  -1.3915489e-01  -8.2242101e-01  -8.9932648e-01   1.0950795e-01  -4.9214033e-01   8.1097522e-01   2.5602076e-03  -6.8558742e-01  -6.8737823e-01  -5.2943017e-01   8.5825365e-02  -5.3297784e-01  -5.6842387e-01  -9.0251411e-01  -7.9415594e-01  -1.4122495e-01   7.6596779e-01  -6.9807410e-01   9.1153916e-01  -3.0694886e-01  -7.5057862e-01   4.6920080e-01  -4.1944108e-02   9.9267497e-01   2.6970167e-01  -8.4769173e-01   5.3763801e-01  -1.3516386e-01  -6.2983667e-02   6.3570005e-01  -7.4067690e-01  -5.6991968e-01  -1.5132824e-01  -7.7755478e-01  -9.5118980e-01   4.1723490e-01   4.5508852e-01  -9.7379022e-01  -9.5377188e-01  -3.9317650e-01  -4.8002826e-01   5.2432598e-01   3.4835807e-01  -7.5799481e-01  -5.6519263e-01  -7.6921196e-01   3.5992559e-01   8.7276710e-01   8.5339872e-02  -1.2675910e-01   7.5264402e-01  -4.6507070e-02   3.1039244e-01   8.5007323e-01   7.4988254e-01  -3.3994375e-01   5.7982355e-01  -4.4090418e-01   4.5335007e-01   4.9890962e-01   6.3425117e-01  -6.5159421e-01  -6.2731072e-01  -8.0002125e-01  -7.8299784e-01  -7.3884482e-01   5.0508416e-01
   6.1178586e-01  -5.4990770e-01  -4.9399962e-01   5.0882211e-01  -2.0187371e-01  -9.0224087e-01  -9.7448472e-01   4.9914311e-03  -8.1018020e-01   8.8583665e-01   7.3269367e-01   5.8219244e-01   6.3191814e-01   5.0567450e-01   5.2648015e-02  -1.7822152e-01  -4.1458271e-01   1.4771353e-01   1.7118146e-01   6.3205644e-01   3.4183088e-01  -3.5711978e-01  -8.7369820e-01   1.2244039e-01  -7.4181311e-01  -5.7450097e-01   2.6610525e-01  -7.6589935e-01  -8.4678939e-01   8.3161804e-02   2.0391628e-01  -8.6056269e-01  -3.8115629e-01   2.4714025e-01  -3.3814717e-01  -5.5751829e-01   9.0678979e-01   7.8747342e-01  -3.4210226e-01  -1.0453344e-01   2.8504725e-01   1.9193801e-01   5.2681870e-01  -2.4721012e-01   1.7867556e-01  -2.7096039e-01   6.8536997e-01  -4.5535311e-01   8.2493966e-01  -4.5486626e-01   7.7623170e-01   2.2660977e-01  -5.6618898e-01  -4.6229339e-01  -8.0391795e-01   8.0841158e-01   3.8455456e-01  -1.7110858e-01  -8.6825405e-01  -3.3111101e-01   6.9164891e-01  -3.4053083e-01  -9.6574815e-01   7.1663254e-01   1.2518788e-01   4.8064110e-02   9.3420904e-01   8.1980118e-02  -4.1496103e-01   9.9539899e-02   2.1409113e-01   4.8326038e-01  -8.8212261e-01  -4.4908444e-01   6.0544497e-01   6.1599735e-01   9.2242158e-02   2.2197724e-02   1.2441814e-02  -3.3114612e-01  -7.3082450e-01  -3.4021574e-02  -1.5452278e-01   6.6190558e-01  -8.6094605e-01  -5.0279012e-01  -5.7285085e-01  -5.3605802e-01   5.4935324e-01   6.4872808e-02   9.6783357e-01   6.2029230e-01   6.7489886e-01  -9.1847297e-01  -3.4064718e-01   4.3245314e-01   4.4554097e-01  -2.6749114e-01  -9.4370443e-01   6.7220512e-01  -1.8798748e-01  -4.7514709e-01   8.6708532e-01   8.7201515e-01   4.8468046e-01   5.2247549e-01  -5.1410863e-01  -1.6517551e-01  -9.0109502e-01  -4.7870802e-01   8.4297049e-01   9.4020426e-01  -1.0403506e-01  -2.5103016e-02   7.1586578e-01  -2.6728111e-01  -4.5250815e-01   5.1763065e-01  -2.6580839e-01  -3.8284732e-01   1.5789834e-01   5.2342552e-01   4.6339551e-01  -7.4468486e-02   3.3607787e-01  -1.2540231e-01  -1.8202965e-01  -4.3756042e-01  -8.0744967e-02   1.7124463e-01   6.0037224e-01  -8.4553528e-01  -2.8576754e-01  -6.5785012e-01  -4.6674645e-01   1.1912059e-02  -2.1520527e-01  -4.2392192e-01   5.1651476e-02  -5.3507383e-01  -5.6326318e-01   1.2729738e-01  -2.3086553e-01  -4.9457053e-01  -6.3964961e-01   8.2321048e-01   6.5219173e-01  -4.3832436e-01  -3.0446825e-01   3.5313153e-01   2.2619357e-01   8.1839465e-01   6.6445563e-03  -1.2688475e-01  -5.9923051e-01   7.1030978e-01  -7.8007997e-01  -7.0784413e-01   6.5430532e-02   4.0571317e-01  -8.3313576e-02   7.4491526e-01  -6.9237253e-01   9.8668710e-01  -3.9779021e-01   9.6080897e-01  -1.6000190e-01   8.5604515e-01   5.0913472e-02   8.6816614e-01  -6.7148713e-01   9.5561813e-01   3.5025079e-01  -5.6552553e-01  -6.9683338e-02   1.0586919e-01   2.3295009e-01  -1.9978290e-01  -6.3739952e-01   9.2615248e-01  -9.1807197e-01   3.4611196e-01  -4.8970137e-01  -3.0631202e-01   1.5027996e-01   5.3425418e-01   5.2556394e-01  -8.8051379e-01   8.1412307e-01   9.6478667e-01  -9.6965416e-02  -3.4201929e-01   5.7742326e-01   8.2071761e-01  -7.4906830e-01   2.2104099e-01  -2.8634168e-01  -5.0611641e-01   4.9645959e-02  -3.8446712e-01  -6.8333870e-01   9.7441841e-01   9.6895598e-01  -8.3117756e-01  -4.2277812e-01   4.7637441e-02  -6.4996120e-01  -9.9976218e-01   2.8026680e-01  -8.7187442e-01  -1.2542548e-01  -9.5610985e-01  -1.4987773e-01   1.7404065e-01   4.0859377e-02  -4.7393580e-01  -3.2637759e-01   1.6845436e-02   3.0823707e-01   6.0810996e-01  -1.2509833e-01   1.3517946e-01   7.3780288e-01   8.6409851e-01   5.1441936e-02  -3.6748196e-01   7.2089649e-01  -3.0231885e-01  -3.3383906e-01   4.7789231e-01  -7.6024721e-02  -6.0838125e-01   8.2855972e-03  -1.0377919e-02   9.3958803e-01  -1.4146817e-01   7.7797446e-02   6.9770367e-01  -8.1522096e-01   8.2641775e-01   4.7921159e-01   2.2818762e-01   5.2382095e-01   9.2535095e-01  -5.3869134e-01   8.9393331e-02   8.3196504e-01   2.3334949e-01  -2.7034185e-01  -5.0804853e-01  -1.0011500e-01  -1.2766112e-01  -2.6962569e-01   5.3584105e-01  -6.8114693e-01   6.8404863e-01   6.8860567e-02   1.6002284e-01  -1.1762784e-02   5.6621793e-01  -6.3625555e-01   2.5648107e-01  -1.1149141e-02  -1.2057267e-01   3.4133455e-01  -2.5576632e-01   4.1682932e-01   7.2814942e-01  -1.2199040e-01  -1.4091365e-01  -3.6183093e-01  -1.2977471e-01  -9.7632636e-01  -7.1909962e-01   1.8006159e-01  -4.3719988e-01  -5.2918722e-03   3.3034620e-01  -3.1938878e-01  -5.4817442e-01   1.5893116e-01   3.2186788e-01   2.8080384e-01  -3.9298966e-01  -3.2674419e-01  -5.4378342e-02   2.2971329e-01  -4.8676448e-02   4.2084206e-01  -9.6553109e-01   5.3405298e-01  -7.1841791e-01  -1.8360733e-01  -1.7640607e-01  -6.7841132e-02   4.5119437e-01  -8.2132480e-01   6.1222382e-01  -5.3395821e-01  -5.3065240e-01  -5.4974985e-01  -3.6892045e-01  -1.5864781e-01   6.2618734e-02  -1.5547260e-01  -2.0688524e-01  -7.2039940e-01   9.7781618e-01  -5.8632589e-01   9.8191794e-02   5.3697259e-02  -8.1276757e-01  -9.4183503e-01  -8.5261660e-01  -4.9635410e-01   5.7964031e-01  -6.7316749e-01   9.3545739e-01   3.6062197e-01   8.6788664e-01   3.9470518e-01   3.8254049e-01  -5.4505818e-02   8.5853906e-01  -2.2724141e-01  -8.9051566e-01   7.0609232e-01   7.7696221e-01   2.0085391e-03   9.9301412e-01  -5.1477809e-01  -5.9056825e-01   2.5049161e-01   9.1129226e-01  -6.8753013e-01   9.1740400e-01   2.9887575e-01   3.2797397e-01  -3.0049413e-01   6.6061092e-01   6.1920413e-01   7.9086739e-01   1.8513067e-01  -1.9487123e-01  -4.2006623e-01   1.8090998e-01  -4.3862666e-01  -4.3030501e-01  -3.8441088e-01   8.2974020e-01   2.4440612e-01  -3.9739421e-01  -3.1714146e-01  -3.8898816e-01  -9.3974891e-01  -8.1252385e-01   9.7018313e-01   6.1185154e-01  -5.5647114e-01   9.9396937e-01  -5.4091620e-01   2.0171090e-01   1.9928351e-01  -7.8365112e-01   3.2127616e-01  -4.4347121e-01  -4.9768443e-01   6.9842386e-01   7.8967406e-01   6.9544785e-01  -2.6274894e-02   2.8903909e-01  -2.2972933e-01  -5.7867689e-01   1.8701668e-01  -3.9386885e-01  -3.0095923e-01  -4.2190978e-01   8.9924274e-01  -3.8435780e-01  -4.5732123e-02   5.9901992e-01  -7.6103430e-01  -7.8164830e-01   1.7107469e-01  -9.4305239e-01   3.9000130e-01   2.3788587e-01   5.4506181e-01   8.7436412e-01   3.5709467e-01  -1.1306719e-01  -9.4240137e-01   6.8510144e-01   7.3561261e-01  -1.4235981e-01  -8.1249371e-01  -9.1899284e-01   2.1030112e-01   4.6119236e-01   9.2463921e-01  -1.7545910e-01   8.0718724e-01   3.9136745e-01   5.4044881e-01  -7.1695053e-01   8.2617991e-01  -7.5474728e-01   4.4851720e-01  -2.8780162e-01   9.0021974e-01   2.7497614e-01   5.1264159e-01   1.2243046e-01   5.6159467e-01  -7.4236239e-01  -6.7542422e-01  -9.8340969e-01   4.4944589e-02  -8.2825168e-01   6.0558905e-02   7.1960766e-01  -2.5552734e-01   6.4367531e-01  -2.1922675e-01   6.5681420e-01   2.7574923e-01  -4.7665937e-01   1.6621208e-01  -7.7567989e-01  -1.5777463e-01   2.5624644e-01   1.4648465e-01   5.6200810e-01  -1.0022072e-02   6.6143345e-01  -6.5899842e-01  -7.6878746e-02   6.3871237e-01  -4.1246452e-01  -8.4582540e-01   1.1437041e-01  -7.3848452e-01  -2.2586098e-02   6.5564984e-01   7.2169429e-01  -4.7155066e-01  -2.8288757e-01  -6.2932425e-02   5.2120966e-01   4.8199907e-01  -8.8375789e-01   7.2251938e-01   1.3583437e-01  -4.1408872e-01  -6.6618225e-01  -3.2764952e-01  -4.7264958e-01  -9.1461216e-01  -5.7272170e-01   4.4124991e-01  -1.6849614e-01  -7.3187481e-01  -1.5937639e-01  -7.2604117e-01  -3.7226212e-01   5.9449381e-01  -6.3915410e-01  -9.6023934e-01   1.3734874e-01   5.8895155e-01  -5.3868690e-01  -7.0207369e-01  -2.2659576e-01   3.8819024e-01   1.8802654e-01  -2.0759700e-01   9.5134659e-01   4.1840923e-01  -6.9369386e-01   1.6545104e-01  -1.4241867e-01  -8.8853590e-01   8.5782902e-01  -2.1601290e-02   9.4760799e-02   2.4764266e-01   8.5778446e-01   8.9066087e-01   7.3260221e-01   4.3349700e-01  -6.3634248e-01   3.9046993e-01   1.0772503e-01   2.8107260e-01  -3.2647814e-01  -3.2302594e-01  -9.7643555e-01  -9.8402670e-01  -8.1696088e-01  -7.9482709e-02   6.0961572e-01  -6.9821673e-01  -8.8691602e-01   6.4626049e-03   6.6654857e-01   5.8223454e-01   7.3225129e-01   2.1759007e-01  -2.2986121e-01  -6.3541218e-01  -1.1760571e-02  -2.3624647e-01   1.4065181e-01  -6.4512355e-02   7.8482488e-01  -3.6886063e-01  -2.5869127e-01  -9.3887448e-01  -8.5607063e-01  -6.2089734e-01   9.5906856e-01   8.3462934e-01   2.8373531e-01  -7.0160009e-01   1.3997761e-01   7.1815115e-01  -1.8076234e-01   1.5861848e-01  -2.0396560e-01   4.3361993e-01  -1.1114072e-01   1.4192857e-01  -8.4903836e-01  -4.8221543e-01   5.1644825e-02  -2.8552221e-01  -3.4351938e-01   1.4035459e-01  -2.9946015e-02  -3.2812650e-01   8.0912204e-01   4.1084716e-01   8.2304803e-01  -2.8706080e-01  -1.1619902e-01   9.4450549e-01  -7.6882601e-01   4.3572877e-01   2.6782148e-01   5.2296031e-01   1.9900149e-01  -2.8662667e-01  -7.9842493e-01  -7.6204534e-01  -8.4414568e-02   4.3897684e-02   3.9699879e-01   3.1655693e-01   1.9141194e-01  -5.7488682e-01  -6.3341477e-01   1.2272095e-01  -4.6514172e-01  -1.6305542e-01   8.9658661e-01  -5.0936825e-02  -9.2580094e-01  -6.2912710e-01  -9.7032819e-01  -2.5406890e-01   1.7001976e-01  -1.3292801e-01  -7.6179415e-01   9.4705258e-01  -9.1884669e-01   5.6114205e-01   8.0637714e-01   9.2572756e-01   7.0834862e-01   2.3012292e-01   5.7255110e-01   1.1835826e-01  -6.1683856e-01  -7.7122778e-01   7.5477355e-01  -9.4806604e-01  -1.2154797e-01  -5.5997063e-02   9.8792840e-01  -1.1405281e-02   8.5238665e-01   6.4822312e-01   8.1411155e-01  -4.2459137e-01  -2.7656084e-01   7.2474689e-01   6.6132082e-01   1.7534985e-01   8.2794049e-01  -9.3255218e-01   5.1643255e-01  -6.1341092e-01   3.7402457e-01  -1.1439465e-01   1.9371196e-01  -8.5257689e-01  -6.0855064e-01   1.2299864e-01  -6.6465992e-01  -9.0015436e-01   6.0896988e-01  -4.5173633e-01   3.9521206e-02   7.3543815e-01  -8.7310688e-02   2.7595398e-01  -7.0280319e-02   5.8258882e-01   6.7707693e-01  -4.1298015e-01   4.3453806e-01   5.2056078e-02  -8.5127097e-01   9.6144429e-01  -9.3412489e-01   8.5832729e-01   5.3267757e-01  -3.5732838e-01  -4.5298745e-01   4.1555069e-01   7.5548791e-01  -2.4581047e-01  -5.2451186e-01  -5.4143239e-01  -4.9583986e-01   3.8784588e-01   5.7167804e-01   5.5945494e-02   2.3589040e-02  -2.5118375e-01   8.8956053e-01  -3.6014321e-01  -2.5783001e-01  -4.3671674e-01  -8.0874242e-01  -5.7309819e-01   1.0646061e-01  -9.6825806e-01  -1.5258900e-02  -5.6876262e-01  -5.5794187e-01  -6.7993358e-02  -6.3291561e-01  -2.8862026e-01  -1.6434718e-01   5.7233060e-02   1.7595891e-01  -4.5728244e-01   5.4083582e-01  -6.6026164e-01   6.6696947e-01  -9.3993342e-01  -5.3813276e-01   9.7913147e-01  -6.5951714e-01  -4.5671038e-01  -5.3671526e-02   3.8289021e-01  -7.5899959e-01   5.3986644e-01  -7.4248467e-01  -6.8011099e-01   5.6676378e-01  -8.6151553e-01   4.6668566e-01  -8.0591245e-01  -5.0028511e-01   9.9592516e-01   9.4313438e-02   6.2679388e-01   1.9252381e-01  -3.4348592e-01   6.4179728e-01   7.3575299e-01   7.9208528e-01  -1.5141457e-01  -6.3343026e-01  -3.1920099e-01  -6.3679057e-01   5.6046405e-01   7.3108674e-01   4.3616962e-01   7.6040543e-01  -7.9534241e-01   8.4111688e-01  -7.9789293e-01  -7.0096895e-01   3.1156353e-01  -5.9821892e-01   1.7195892e-01   6.6449853e-01  -2.3835520e-01   1.2581044e-01   1.6090787e-01  -8.4012065e-02   6.7443056e-01  -2.7102642e-01   3.1378274e-01  -3.8313566e-01  -8.2093578e-01  -6.9481997e-01   3.2394889e-01   6.6382467e-01  -8.7208494e-01   1.3720585e-01  -3.7172252e-01   1.9345987e-01   1.7657303e-01  -5.2750009e-01  -4.7871446e-01  -6.4389317e-02  -2.9582807e-02  -8.5899501e-01  -4.3142336e-01  -5.7293914e-01   9.1407163e-01   9.0304640e-01   7.6491227e-01  -6.6759319e-01  -5.3690938e-01  -1.7578346e-01   7.2894717e-01  -1.5027617e-01  -9.9201607e-01   6.9217270e-01  -2.0165380e-01  -7.2558022e-02  -9.9139415e-01  -9.6016648e-01  -7.0948774e-01   9.9147072e-01  -9.1890075e-01   1.0692916e-01  -6.0766589e-01   3.1183889e-01   5.5146951e-01  -3.7834957e-01   2.4914014e-01   9.9285838e-01  -8.1650701e-01  -4.5402342e-04   6.9927335e-01   9.2020883e-01   7.0315970e-01  -1.8395552e-01   9.2866993e-01  -4.9488444e-01  -9.4472837e-01   6.6045121e-01   2.3896648e-01   4.4768043e-01  -4.4303815e-01   1.2586872e-01   5.3319366e-01  -1.6647052e-01   2.0425738e-01  -3.2427046e-01  -6.1415913e-01   6.0892640e-01  -6.9832956e-01   6.9788672e-01  -4.7023809e-01  -6.2875470e-01  -5.8202557e-01  -2.6514088e-01   4.9768245e-01   1.7836572e-01  -7.9788766e-01  -8.3664530e-01   7.7891385e-01  -6.1885311e-01  -4.8413141e-01  -8.7984042e-01  -5.8153864e-01  -4.4597038e-01  -5.4969046e-02   1.1910380e-01   2.2352250e-01  -3.8155146e-01   5.0014258e-01  -8.5915218e-01  -5.6982380e-01   5.2901641e-01   5.4585301e-01   9.7063419e-01   8.9369218e-01  -3.3802193e-01   8.8121266e-01   6.2704397e-01   6.8857002e-01  -8.3149129e-02  -7.3882381e-02  -8.5716640e-02  -6.5399280e-01   9.6333105e-01   7.9559560e-01  -3.0457890e-02   2.7609753e-01   7.3790389e-02   6.2459176e-01   1.6386177e-01   5.7509851e-01  -9.9795537e-01  -9.3738144e-01   3.8447926e-01  -2.1065289e-02   5.0390109e-01   1.0825135e-01   7.3585786e-01  -7.1535453e-05  -3.0670528e-01  -1.3376283e-01   6.7308901e-01  -3.0440704e-01   9.0066050e-01  -1.9988436e-01  -8.5494134e-01  -4.6688635e-01   6.8861055e-03   8.1174332e-03   3.4023125e-01   5.2110399e-01  -9.0685809e-01   4.9498655e-01   6.5893640e-01  -5.7919869e-01  -5.0489936e-01   6.9434107e-03   5.8467620e-01  -2.7322473e-01   9.3732491e-01  -4.1121699e-02   5.8454847e-01   9.6299121e-01   6.2227718e-01  -7.6952323e-01   9.3631288e-01  -1.9709177e-01  -8.9427201e-01  -4.7943459e-01   7.7945700e-01   2.6936461e-01  -3.7815339e-01   5.7361986e-01   1.6273382e-01  -4.2217929e-01   6.0687078e-01  -6.4176263e-01   8.6355784e-01   5.9358666e-01   5.2152653e-01   3.2655826e-01  -2.2244427e-01  -8.0161551e-01  -6.7197200e-01   4.7797608e-01  -4.8513455e-01  -7.8136595e-01   8.0882064e-01   9.5462207e-01  -4.4528433e-02   8.1479191e-01  -2.3376854e-01  -9.7532928e-01  -3.4351971e-01   2.8057526e-01  -2.7064277e-01   7.4812047e-01   7.1833549e-01   3.2078357e-01   1.0644405e-01  -5.0343521e-01  -1.1053340e-01  -1.0892250e-01  -2.5319017e-02   7.4997308e-01   2.5791283e-01   4.1041041e-01  -1.0214702e-02  -5.7498185e-01  -4.9529907e-01  -3.3318978e-01   4.0662745e-01   9.8373896e-01  -5.1350878e-01   5.3764797e-01   9.0989000e-01   4.3039175e-02   5.6622288e-01   6.3254376e-01  -3.7267942e-01  -7.1870587e-01   6.1775431e-01  -9.1202615e-01   8.9851365e-02  -8.4740960e-02   7.8216975e-02   4.9573525e-01  -4.8501268e-01   2.2368303e-01  -5.7513647e-01  -6.2651802e-01  -7.4409850e-01  -5.4351254e-02  -4.6124645e-02   8.0902241e-01   3.7665274e-01   1.0598080e-01  -9.5603800e-01   3.4386407e-01   1.1991751e-01  -4.3279742e-03   6.9283869e-02   8.5115291e-01   7.5385774e-01  -9.0969286e-01  -7.8120151e-02   3.4670357e-01   8.8876620e-01  -7.1654018e-01   6.5123838e-01   3.2748568e-01  -8.2311607e-01  -8.7532637e-01   4.1310176e-01  -1.0304218e-01  -4.7371120e-01  -1.0235940e-01  -7.4497874e-03  -8.1480602e-01  -8.5324115e-01   3.5308756e-01   2.9282114e-01   4.0795955e-01   9.5217388e-01  -3.8640647e-01   4.4152139e-01  -6.8442426e-02   5.6559282e-01   2.5284817e-01   7.2168320e-01  -3.3502440e-01  -6.9075289e-01  -5.5612522e-01  -6.6942858e-01  -3.8249891e-01   2.3650446e-01  -6.4497175e-01   5.2872227e-01   2.5030494e-01   9.8155066e-01  -3.1587511e-01   6.6474895e-01  -6.5224799e-01   9.5336274e-01   7.7977796e-01   9.3977346e-01  -3.2597860e-01  -4.3711487e-01   8.3670734e-02  -9.9515138e-01  -1.2549256e-01   1.7217844e-01  -9.4288833e-01   6.9324190e-02   3.6674770e-01   6.7544023e-01  -3.7343768e-01   8.3604312e-01  -2.0132832e-01   2.3716865e-01  -8.3434775e-01   8.5760441e-01  -7.9010526e-01   7.6771333e-01  -2.5505392e-01  -9.8293091e-01   3.4864331e-01   3.3612721e-01   1.8132061e-01   8.6407006e-01  -1.6879376e-01  -4.1217637e-01   2.1931410e-01  -1.3294817e-02  -3.1337904e-01  -7.0298713e-01  -7.2387710e-01   4.9308278e-01
   8.2134155e-01  -6.8749403e-01  -9.3025473e-01   1.8063195e-01  -4.6000617e-01  -5.5822315e-01  -4.4817850e-01   8.1662479e-01   4.8437099e-01   7.1733377e-01   9.3516802e-01   9.6862462e-01  -8.4169564e-01   9.9070155e-01   2.1447513e-01  -4.3060800e-01   6.3761281e-01   7.3780664e-01  -6.3359668e-01  -2.9284367e-01  -3.2309733e-01  -7.9292278e-01  -8.5037054e-01   7.6475045e-01   7.4383504e-01  -7.2386343e-01   9.1414029e-01   7.9593008e-01  -7.7351143e-01   5.2785841e-01   9.2395219e-01  -3.5069205e-01   5.1035559e-01  -9.1190331e-01  -7.3738097e-01   8.5037858e-01   7.0025879e-01   9.4242773e-01   9.5780680e-01   3.3548658e-01  -6.0753693e-01   5.9249626e-01   1.4053003e-01   4.5587461e-01  -9.4042438e-01   8.8195186e-01   1.1268815e-01   2.3355531e-01   8.2498384e-01   1.4922504e-01   1.8953594e-01   5.9207924e-02  -9.2138414e-01  -1.2969988e-02   7.7404751e-01   9.4196914e-01  -2.0985894e-01  -9.5946303e-01  -9.8386099e-01  -4.3748198e-01  -7.9274947e-01   9.1321948e-01   8.0600372e-01  -9.8722820e-01  -5.5272101e-01   8.8276211e-01  -4.6732580e-02   8.8674778e-01   4.3001274e-02   2.1359505e-01  -5.6939106e-01  -4.4090868e-01   9.4393691e-01   6.5072711e-01  -4.3601829e-02   4.3244649e-01   4.7681515e-01  -8.8192090e-01  -2.0137023e-01  -1.3000372e-01  -3.1589978e-01  -6.2495749e-02   1.8432950e-03  -4.7032130e-01   7.9691832e-01   9.1001670e-01  -8.6214526e-01   5.4187541e-01  -9.2380408e-01   4.0026431e-01  -9.3429018e-01   6.3160877e-01  -7.5202681e-01   4.6789630e-01   4.2450708e-01  -5.5449668e-01  -2.1639460e-03   6.7777397e-01  -5.3496579e-01  -8.0626654e-01   9.7501440e-01  -2.6146672e-01   8.8833221e-01   7.2243741e-01   6.5800963e-01  -7.7902582e-01   1.4036730e-01   2.3820787e-01   2.9169784e-02   5.8570929e-01   9.2850422e-01  -4.2148731e-01  -1.4987704e-01   8.6949073e-01   3.7522258e-01  -9.1608597e-01   6.9951079e-01  -3.3407318e-01   3.4228337e-01  -2.6732024e-01   6.3466892e-01  -5.2765786e-02   9.5512332e-01  -6.0959918e-01  -3.1898530e-02   2.2152300e-01  -6.2078308e-01  -9.4071118e-01   2.0743385e-01  -5.9645681e-01  -3.9787350e-01   9.1316644e-01   8.5525706e-01   4.9666900e-01  -5.6249039e-01  -1.7765617e-01  -3.8457232e-01  -7.3817013e-01   2.8391545e-01  -3.6162071e-01  -4.9898420e-01  -5.4048218e-01   3.4299218e-01   1.6666938e-02   5.8506062e-01  -2.2850069e-01  -3.3505554e-01  -3.0803629e-01   5.0813931e-01  -8.5447465e-01   5.3696453e-01  -9.0381672e-01  -8.3998625e-01   3.7802746e-01   9.4189325e-01   6.6195510e-01  -6.8427712e-01  -7.1369022e-01  -2.9446184e-01   7.4109906e-01   4.3403829e-01  -6.6383875e-01  -1.7021478e-01   1.8814829e-02   3.7545469e-01   5.8841110e-02  -8.8154898e-01   8.6854695e-01  -3.7055806e-01  -3.2110364e-01   6.5396495e-02   8.1347440e-01  -5.9866842e-01   6.8413041e-01   6.6008997e-01   1.5291011e-01  -6.8480420e-01   3.8172574e-01   5.0710336e-01   7.8376936e-01  -2.0382908e-01   6.2955369e-02  -7.8567389e-01   6.9533011e-02   6.4147888e-01   9.0013080e-01   7.8315103e-01  -1.7448794e-01  -1.7686863e-02  -3.4059052e-01  -9.8485948e-01   3.2078588e-01  -4.9015243e-01   8.8222905e-01   3.6582644e-01  -1.5066123e-02  -6.3643393e-01   8.5359491e-01  -6.4269930e-02  -8.7781306e-01  -1.3033035e-01  -2.9954313e-01  -5.0337849e-01  -2.3262111e-01  -7.9826680e-01   4.9974720e-01  -4.1961028e-01  -9.6292089e-01  -1.3975066e-01  -6.7611326e-01  -9.9984861e-01   4.1973605e-01   5.5021746e-01  -5.6111509e-02   4.1250051e-01  -6.5675171e-01  -8.2039336e-01  -4.3768379e-01   8.7545946e-01  -1.6114653e-01   8.7048406e-01   6.4767109e-02   8.5957029e-01  -8.6732390e-01  -7.3460310e-01   5.2466079e-01   9.5754203e-01   7.9419337e-03  -8.1177680e-02  -8.7278464e-01   5.0657063e-01  -7.4711925e-01   4.5107444e-01   3.2438003e-01  -5.9027524e-01   1.3313092e-01   1.5466463e-01  -8.2376119e-01   9.0832524e-01   5.9097988e-01  -4.3953575e-01  -3.1574744e-01  -6.6277500e-01   4.5012052e-01   8.4768677e-01  -4.9281562e-01   3.1823629e-01   6.3738727e-01   4.8439590e-01   1.9630425e-01   2.8238206e-01  -6.9517811e-01  -8.2111763e-01  -6.6174819e-01   5.1661769e-01  -1.6133724e-01   9.3653085e-01  -9.9642657e-01   7.1077926e-02  -8.5961201e-01   8.9114542e-01   5.6886126e-01   8.1309445e-01   8.5136431e-01  -6.7909900e-01  -1.3555690e-01  -7.5525055e-01  -4.2728291e-01  -7.9690876e-01  -3.3801238e-01   1.1632148e-02   1.5318065e-02  -4.1431870e-01  -4.5753132e-01  -7.5151598e-02  -3.0116809e-01  -7.9915082e-01   1.1018203e-01  -1.6798703e-01   9.7465460e-01  -6.2043880e-01  -1.0208708e-01   1.6171979e-01  -7.1102775e-01  -4.6031516e-01  -5.1642352e-01   2.0753114e-01  -9.9202696e-02  -3.0449532e-01  -9.9402963e-01   6.1576193e-01   2.2182152e-01  -8.8599991e-01   9.2942191e-01  -7.2590289e-01   9.2920446e-01  -4.6141762e-02  -7.3247828e-01   4.0733895e-01  -1.3589704e-01  -9.6268781e-01   2.7134864e-01   6.1979667e-01   8.4124058e-01   2.4696525e-01   1.7900354e-01  -4.6408524e-01  -2.6887461e-02  -1.6585661e-01   2.5504955e-01  -5.5707255e-01   4.9424757e-01  -1.5235801e-02   1.1430025e-01  -5.1914180e-01  -6.5498260e-01  -7.6240812e-02  -5.4536486e-01  -5.1390222e-01   5.0334405e-01   2.9739418e-01   6.6435720e-01   8.5869158e-01   8.7672338e-01   9.7208061e-01   1.1809559e-02  -1.6727183e-01  -6.5749030e-01  -5.2973096e-01  -9.7967399e-01  -4.4947039e-01   9.5964555e-01   7.8860387e-01   3.6976342e-01  -8.7970270e-01  -4.9653087e-01   3.2710367e-01   8.3216338e-01  -8.9350331e-01  -2.8830070e-01  -6.4918657e-01   1.3508391e-01  -6.7280011e-01  -4.1728098e-01   9.3260188e-01  -8.7288661e-01   9.2219241e-01   2.9822877e-02   3.9557325e-01   5.1261476e-01  -4.3295834e-01  -2.6962295e-01   4.0759306e-01   8.9914465e-01   8.1899104e-01   5.6644463e-01   1.9686345e-01   8.2948146e-01  -6.3836598e-02   4.8608571e-01  -5.4570177e-01  -7.6995370e-01  -9.7408346e-01   8.6472902e-01   7.9771714e-02   6.8375882e-01   2.8047874e-01  -6.1240625e-02  -2.2741853e-01  -6.1763945e-02  -9.0002596e-01   3.5804379e-01   6.1396162e-01   7.4343013e-01   6.4522463e-01   1.0349976e-02   5.4384654e-01  -8.9074260e-01  -5.1008855e-01   3.7878877e-01   9.2817068e-01   1.3132881e-01   8.3407104e-01   4.9405751e-01  -9.7015721e-01  -8.6482679e-01   5.8794489e-01   2.4911008e-01  -9.9959500e-01  -5.0173864e-01   8.0406609e-01  -3.9172966e-01   4.3061035e-01   4.5724509e-01   3.3621454e-01   6.4931621e-01  -3.3447576e-01  -7.5433769e-01  -1.9123750e-01  -4.9437769e-01  -7.1311574e-01  -9.8185298e-01   5.5685310e-01  -6.1224649e-01  -2.4443350e-01   8.3861242e-01  -5.8035280e-01  -3.4205905e-01  -5.8308543e-01   8.3271017e-01   4.3947785e-01   9.1326464e-01  -9.4608727e-01  -2.5809082e-01   9.5936520e-01   8.8099175e-01  -4.1974047e-01  -2.8517740e-01  -7.8279609e-01  -7.6308222e-01   2.2699153e-01   8.3221690e-01   7.0470200e-01   1.4648282e-01  -1.0476321e-01  -9.8095092e-01  -5.6865309e-01  -5.4184639e-01  -6.9014599e-03   4.7179231e-01  -9.5343809e-02  -5.9825652e-01   2.6916439e-02  -8.5709073e-01   5.5557390e-01  -4.3180237e-01   7.5574466e-01  -3.1517849e-01   3.1067155e-01  -3.7054592e-01  -3.8431489e-01  -6.1017840e-01   1.9916746e-05   3.7069295e-01  -8.8770221e-01  -4.8170244e-01   3.6023364e-01  -1.9791834e-01   5.0750132e-01   4.7442399e-01   8.3033514e-01  -3.1357356e-01   4.6209175e-02  -7.0900641e-01  -7.9325612e-01  -6.2349463e-01   8.2538100e-01  -1.9804305e-01   1.2794341e-01  -1.3961321e-01   7.9743699e-01  -5.6359366e-01  -8.6338132e-01  -3.7655160e-01   3.2628296e-01  -6.4823620e-01  -9.5205149e-01  -4.9723211e-01   9.8211009e-01  -4.5810439e-01  -9.4695002e-01  -6.6095676e-01  -7.6934597e-03  -2.8376762e-01  -1.6106599e-01  -9.1061655e-01  -2.8157779e-01  -2.3963556e-01  -5.0333531e-01   9.2742744e-01   8.1154075e-01  -6.1510768e-02   2.5789746e-01   3.2993720e-01  -9.4187440e-02   2.2377649e-01  -2.1708942e-01  -9.6653740e-01   2.7223767e-01   9.1479023e-01  -2.5822848e-01  -8.5605289e-01   7.2795792e-01   5.1346609e-01  -7.8212234e-01  -1.5225026e-01   1.9737227e-01   4.3957089e-02   3.9205060e-01  -4.9788146e-01   4.9360284e-01   9.9333238e-01   6.4901655e-01   2.0434348e-01  -8.3817714e-01   1.9773695e-01  -6.3321947e-01  -6.7783436e-01   9.2417314e-01  -7.4860507e-01   1.1304736e-01   3.2233242e-01  -6.8761768e-01   2.7622320e-01  -8.2118799e-01  -8.2657851e-01   4.3632905e-01   2.3572520e-01   8.9177022e-01  -7.7771632e-01  -1.8301332e-01   4.9497540e-01   1.4146864e-01   8.5125410e-01   4.8305759e-01   8.9427320e-01  -5.4572916e-01   3.4046172e-01   8.3003053e-01   3.8745483e-01  -4.5616868e-01   4.8299651e-01   2.4500186e-01   4.8587076e-01  -7.1589173e-01   6.0511294e-01   3.0719670e-01   9.0523067e-01  -4.4372404e-01  -2.4841719e-01   2.6975072e-01  -3.4347270e-01   5.4357598e-01  -5.9149119e-01   5.5886634e-01  -5.3856886e-01   4.9546847e-01  -2.2537883e-01  -4.5383510e-01   2.6982764e-01   8.7031630e-02  -6.1762036e-01  -7.8965195e-01  -9.2293510e-01  -1.2382804e-01   3.8266761e-01   6.6147873e-01   5.2950415e-01  -9.5139542e-01   7.1647939e-01  -7.8566782e-01   9.1770394e-01   1.6745096e-02  -9.9083673e-01  -1.3403829e-01  -1.2894552e-01  -9.2352657e-01   5.3741893e-01  -8.9701191e-01  -4.6247112e-01  -7.3322568e-01  -4.4428471e-01   3.1085209e-01  -7.7026024e-04  -8.1303994e-01   4.1693812e-01   4.7302977e-01  -9.1236798e-02   1.1538477e-02   7.7443688e-01  -4.9209909e-03   2.0861726e-01  -2.0621452e-01  -2.9482103e-02  -2.1595562e-01  -2.8370808e-01  -2.7214702e-01  -8.3897503e-01   5.3428318e-01   4.7102766e-01  -3.3584611e-01   1.7813560e-01   9.8872304e-01  -5.4520316e-01   6.6226349e-01  -5.7449683e-01  -9.2619102e-01   1.1711719e-01   5.2259851e-01   7.6290200e-01   9.3715221e-01  -3.0996507e-01   9.8159446e-01  -4.5878299e-01  -3.6587441e-02  -8.7595875e-01  -1.0246779e-01  -9.9089800e-01   2.9187487e-01   1.8930621e-01   6.9923856e-01   5.4485692e-01   8.8371259e-01   8.3352771e-01  -6.2511378e-01  -4.1220378e-01  -1.8914384e-01   7.5172150e-01  -9.1612692e-01  -4.8554093e-01  -1.6653490e-01   3.3278843e-01   2.3600038e-01  -3.5437770e-01  -2.0777754e-01   9.2860572e-01  -3.1737123e-01   8.6026921e-01   4.5360415e-01   8.2302807e-01   6.8420527e-01  -1.6052391e-01   6.9935332e-01  -5.0196941e-01   9.2239371e-01   6.6028053e-01   5.1869293e-01  -9.7278701e-01  -9.5566659e-01   8.5731300e-01  -8.8475044e-01   5.3518084e-01   7.0391203e-01  -5.3808264e-01  -7.1698668e-01  -5.9107985e-01  -9.2561365e-01  -1.5051061e-01  -8.1457926e-01   8.4369755e-01  -7.6640514e-01  -8.2862625e-01  -7.7047399e-01  -3.9427915e-02   1.4149124e-01   8.2433324e-01  -7.7766352e-02   8.2524764e-01  -5.4571686e-01  -4.2709351e-02   3.8999794e-02  -7.0728004e-01  -9.2724489e-01  -3.2048512e-01  -2.1222821e-01   8.7144903e-01   1.5849673e-01   9.7591461e-01  -3.3441226e-02   2.7702408e-01  -2.6900296e-01  -8.9299113e-01   5.0209049e-01  -9.8660673e-01   8.2550487e-01  -3.8228363e-01  -7.1242594e-01  -9.9613455e-01   7.1387682e-02  -6.3365868e-01   9.0931289e-01   6.1559394e-02   8.3678050e-01  -2.4138028e-01   8.3986047e-01   2.9732349e-01   4.0833753e-01  -2.3259792e-02   6.2191517e-01   3.3084597e-01   6.2263808e-01  -2.1524129e-01   7.7935066e-01   7.9910473e-01  -7.7760552e-02   6.8862454e-01  -3.2890638e-01   5.8474634e-01  -3.0270059e-01  -6.3447497e-01  -3.9848290e-01  -5.9089027e-01   8.0597617e-02  -2.5811588e-01   5.7117870e-01  -3.1311903e-01  -7.3700469e-01  -3.4527136e-01  -9.3528993e-01   2.3833219e-01   8.2667561e-01   1.3301223e-01   6.3074163e-01   1.8979754e-01  -2.0638831e-01  -5.6166715e-02  -7.1501906e-01  -1.5698375e-01  -5.3239623e-01  -1.2125070e-01   2.3848582e-01  -9.9836143e-01  -1.4266757e-01  -3.4584107e-01  -5.0769783e-01  -7.7017826e-01   2.0792954e-04   4.3941823e-01   2.2540408e-01  -2.2872308e-01  -5.1201565e-01   9.6397404e-01  -4.1251892e-01   9.6368695e-01   3.7836384e-01  -7.1173776e-01   5.7235068e-01   8.5333217e-01   2.1250431e-01   4.7655206e-01  -3.2282354e-03   4.2815049e-01   2.6060435e-01  -6.4148125e-01   3.3137319e-01   3.8933367e-01   8.4033393e-01   9.8684795e-01   1.4827601e-01   6.7406565e-01  -9.2952166e-01   3.9832124e-01  -9.2727104e-01  -2.7495427e-01  -8.3721289e-01   4.4074603e-01  -1.5447266e-01   9.8442955e-01   2.9192616e-01   6.9091498e-01  -7.5403379e-01  -5.7036337e-01   2.8953639e-01   4.3820567e-01  -8.4393759e-01   9.1147855e-01   3.7783789e-01   9.1851758e-01   6.7997449e-01  -5.3295459e-01  -2.4703802e-01  -6.4937723e-01   6.5080231e-01   1.9386203e-01  -8.9991125e-01   9.3271423e-01   2.7261553e-01   1.8814009e-02  -6.0017010e-01  -8.0656719e-01   9.5887930e-01  -2.9238478e-01  -7.8833449e-01   9.4068433e-01   5.5433800e-01  -7.9337626e-01  -7.4833535e-01  -8.3404770e-02   9.7622344e-01  -9.7962402e-01  -1.3603077e-01  -4.2605180e-02   9.7755222e-01  -6.2313301e-01   8.2620051e-01   8.4507714e-01   1.2003930e-01  -2.7296452e-01   5.0104424e-01  -7.1236322e-01  -9.4393589e-01  -6.6370819e-01  -7.9928421e-01  -8.7328351e-01   2.2847865e-01  -1.7149946e-01   7.8875984e-01   9.1959790e-02  -3.8214435e-01   8.3856992e-01  -3.0043740e-01  -1.2978856e-01   1.5843736e-01  -3.3237306e-02   4.7501289e-01  -4.8831262e-01  -7.6439292e-01   2.0461662e-01   5.8029321e-01   2.8574375e-01   8.6240086e-01  -8.9864727e-01  -5.7902506e-01   3.7980900e-01  -6.5895859e-02   2.4039437e-01  -1.8218524e-02  -1.1019978e-01   4.8563292e-01   1.4953915e-01   7.5957582e-01  -3.2276669e-01  -1.7906462e-01   3.8569815e-01   7.0442192e-01   6.8238084e-01   6.1217383e-01   9.4820041e-01   5.3846073e-03   9.3052583e-03   3.2338254e-01   9.5179717e-01   2.2361599e-01   4.2217438e-01   6.3165444e-01   7.0603959e-01   6.9512947e-01  -9.8211441e-01  -2.8772787e-01   5.1371490e-01  -1.3875377e-01   6.0035609e-01  -2.4380210e-01  -3.4809101e-01  -4.1178847e-02   3.3558457e-01  -4.6456297e-01   7.0537024e-01   9.5207525e-02   8.4122420e-01  -8.3788767e-01   3.4876351e-02   1.4275721e-02  -4.9698903e-01  -4.3323119e-01   2.2944681e-01  -3.0746510e-01  -8.7060995e-02  -7.9706905e-01  -8.4625514e-01  -4.1653771e-01  -3.4131522e-01   3.6977207e-01   8.5118752e-01  -6.5158366e-01   5.8102851e-01  -8.5464370e-01  -4.2418267e-01  -4.0920138e-01  -4.2427564e-01   6.0124167e-01  -7.1571220e-01  -4.1914550e-01   8.1255702e-01  -8.6071811e-01  -2.6498109e-01  -8.6992348e-02   7.2926727e-01  -7.2088089e-01  -1.2502277e-01   9.1591636e-01   9.2412496e-01   7.7722596e-02   3.9253144e-01   4.5718558e-01   8.5500745e-01   7.3989507e-01  -7.3491499e-01  -6.2151144e-01   5.2856642e-01  -1.6902972e-02  -1.0104633e-01   5.3199830e-01  -5.9125320e-01  -3.8495379e-01   3.4694851e-01   8.0085202e-01  -8.7888046e-01   6.2624919e-01  -2.3776508e-01   1.0285290e-01  -1.9197332e-01  -4.8170945e-01  -6.6025073e-02  -8.0763831e-01  -5.3113640e-01  -1.2276541e-01  -1.3112099e-02   2.3393196e-01   2.0511118e-01   6.9871900e-01  -5.8901665e-01  -7.9833282e-01   1.6407642e-01   6.5422810e-01   2.2053482e-02  -3.2230741e-01  -1.3939735e-01  -5.7701240e-02   9.5301996e-01   3.4094445e-01  -9.8824325e-03  -9.3023216e-03  -9.9744162e-01   3.7371009e-01   5.0774049e-01   9.4893658e-01   8.7256031e-01  -3.5072025e-01  -3.6425406e-01   9.6361570e-01   8.6266690e-01   7.4697240e-01   7.1843946e-01  -7.3520407e-01  -9.0595180e-01  -6.2585873e-01   2.9634408e-01  -6.9512396e-01  -4.2126256e-01  -3.5703679e-01  -2.3228409e-01   3.0218384e-01   1.1286496e-01  -5.5439604e-01  -5.3156154e-01  -1.6497715e-01   4.8748473e-01  -7.0732481e-01   5.3786661e-01  -3.0414510e-01   5.3716726e-01  -6.3744300e-01   4.8473121e-01   3.3607065e-01  -7.5581400e-02   1.8204011e-01   5.6699630e-01   8.3803668e-01   8.9204623e-01   9.2846631e-01  -5.1818871e-01   9.7564640e-01   6.5246285e-01   6.2283835e-01  -6.2336094e-01  -2.8914780e-01   3.5125034e-01  -5.6373804e-01   9.2277654e-02   1.3220812e-01   3.4777499e-02   3.8346423e-01   4.4105443e-01  -7.4332758e-01  -9.1814145e-01  -6.6648334e-01  -2.3228288e-01  -9.5191192e-01   9.9103343e-01   3.6471920e-01  -6.0970553e-01  -8.9130283e-02  -9.1703741e-01   6.9448148e-01   9.0541817e-01  -7.7819854e-02   4.2104098e-01  -1.1983212e-01  -3.0879867e-01
  -1.5573382e-01   7.1709076e-01  -7.8446630e-01  -5.2266200e-01   3.3438260e-01   7.1156429e-02  -4.1092800e-01  -7.0700049e-01  -9.0906608e-01   4.1978204e-01  -7.0552466e-02  -6.7093641e-01  -9.6123465e-01  -9.3742015e-01  -9.5229780e-01   1.2274876e-01   6.9300754e-01   3.3165622e-01  -5.5598992e-01  -5.6295980e-01  -5.6599628e-01  -9.0423904e-01  -4.7163751e-01  -1.0621926e-02   1.4930553e-01  -8.0004651e-01  -8.6146093e-01   1.8998558e-02   7.3096042e-01  -4.9168472e-01   4.2975915e-01   2.1166697e-01  -1.2728409e-01  -3.2507586e-01  -8.8241635e-02   7.2399081e-01   9.9104941e-01  -2.1767525e-01  -8.0754928e-01   9.5595976e-01   1.9563874e-01   5.5951050e-01  -4.3869658e-01   4.6830875e-01  -8.8990824e-01  -7.0508383e-02  -6.8916047e-01  -6.5457065e-02  -9.4627789e-01   1.4546447e-01  -8.3044170e-01  -2.2393771e-01  -4.6967072e-01   3.1679111e-02   8.6850329e-01   6.6349257e-01  -3.5127070e-01   3.4567222e-03   9.0819912e-01  -2.6750671e-01   1.0845848e-01  -1.4919866e-01   2.3383755e-01  -2.9639641e-01  -6.3173843e-01  -1.3801202e-01  -2.9312821e-02  -2.0591967e-01   1.4140852e-01  -7.8934139e-01  -5.4681047e-01   9.9830895e-01  -7.6709509e-01  -3.3899319e-01   9.2007429e-01  -5.3308689e-01  -2.9587477e-01   3.0298341e-01   4.7221073e-01   1.7625239e-01  -5.7633555e-01   5.6510991e-01   6.6033083e-01  -2.1819932e-01   5.4132430e-01  -7.9125325e-01   1.1438370e-01   4.2401519e-02  -7.4630183e-01   9.6889553e-01  -5.4590551e-01   8.6054523e-01  -1.1445219e-01   5.1070420e-01   7.0981129e-01   8.1450027e-01  -6.4573233e-01   2.0860594e-01   9.2015632e-01  -2.5841300e-01  -7.5981405e-01   7.9849611e-01   5.6388050e-01   5.2681491e-01  -3.1690961e-01  -6.0624786e-01  -8.3087504e-01  -8.6895234e-01  -5.2571971e-01   8.6814095e-01   7.3745523e-01  -6.8917215e-01   4.4577969e-01  -7.4418152e-01  -3.0324713e-01  -6.3057907e-01  -5.7794868e-01  -3.5785781e-01   1.9018323e-01  -4.0158086e-01   6.0230741e-01  -2.0212290e-01   3.2484074e-01   1.7439177e-01   4.2934773e-01  -2.0875368e-01   9.5984535e-01  -7.1507332e-02  -6.4364586e-01   6.7323123e-01   6.0522906e-01  -8.5346133e-01  -2.3128481e-01  -5.4876264e-02  -5.0098037e-01  -7.5152362e-02   2.0239933e-02   1.7839040e-03   5.1904056e-01   6.5654901e-01  -4.2004723e-01  -6.0299989e-01   4.8812048e-01  -9.0090170e-01   2.7518982e-01  -4.4508149e-01   8.4506695e-01  -7.6672450e-02  -9.2829716e-01   6.8100328e-01   5.1403072e-01   7.7887664e-01  -2.6670187e-01   5.4623727e-01  -1.7851079e-01   9.0433682e-01   7.6781082e-01  -8.1625386e-01  -9.4452280e-01   1.6444088e-01   4.1007782e-01   2.1417326e-01   8.1807330e-01  -2.9415546e-01   3.8372892e-01  -7.4690654e-01   8.7258541e-01   8.3476160e-01   1.0994359e-01  -3.9481741e-01   7.3840409e-01   3.8090533e-01  -3.1381585e-01   7.3955308e-01  -5.7175799e-01   4.4005094e-01   7.9893839e-01  -5.6911627e-01  -5.5388785e-01  -1.3076656e-01  -6.9214095e-01  -6.8288605e-01   8.8067840e-01   3.9651603e-01  -6.8363538e-02  -8.5793505e-01   3.7021274e-01  -1.3081669e-01  -3.8814834e-01   2.7822350e-01  -1.1494393e-01  -8.6936376e-01   7.7000597e-01   6.5535841e-01  -2.5712982e-03  -2.6311251e-01   3.7602227e-01   3.5207841e-01   1.3133531e-01   6.4927528e-01   3.2022177e-01   9.5093081e-01   5.8236360e-02   5.2457240e-01   8.1819352e-01  -6.5435627e-01  -1.7024215e-02  -3.8245144e-01   8.8282629e-01  -3.4944412e-01  -1.7748260e-01  -1.5274171e-01  -8.9977937e-01  -7.0892952e-01  -2.3679110e-01   5.5260768e-03  -8.9245378e-01  -8.0809531e-01  -8.9208613e-01  -7.2291301e-01  -8.9939791e-01  -9.9386150e-01   2.7027856e-01  -4.5006469e-01  -2.7050807e-01  -3.6709775e-01  -5.8544349e-01  -3.2301547e-01   8.3554584e-02   7.8038883e-02  -1.3850070e-01   9.0592362e-01   7.4856768e-01  -2.1169183e-01  -4.4604771e-01   2.6641236e-01  -8.0732024e-01   4.9358006e-01   4.6479430e-01  -7.3407812e-01   9.6403082e-02  -7.2720193e-01  -7.1159304e-01  -7.4466472e-01  -4.2365587e-01   3.0140537e-01   6.4335950e-01  -9.3939962e-01  -6.4727287e-01   1.1031706e-01  -8.1228276e-01  -2.7029919e-01  -2.8411750e-01   8.7274252e-01  -7.5713913e-01  -3.4853457e-01   6.7969995e-01   8.2164489e-01   4.8278156e-01   6.3286284e-01   4.5913131e-01   9.1349542e-01  -1.3763279e-01   2.5148882e-01  -8.5863565e-01  -6.2103701e-01   4.9099250e-01   3.3092526e-01   6.5916098e-01  -2.6520467e-01   1.0811354e-01   3.8027746e-01  -8.6800961e-01  -1.0864705e-01   5.0193236e-01   2.4675608e-01  -2.6150153e-01   8.5785000e-01   2.6746626e-01  -6.7846268e-01   7.1038988e-01   6.2227173e-01  -6.4671832e-01  -5.1915070e-02   9.1151443e-01  -2.6202372e-01  -3.4426925e-01   3.6909893e-01   1.2764328e-01  -3.2917209e-01  -5.2361678e-01   4.4053859e-01   5.0439709e-01   8.8572022e-01   2.2773523e-01  -2.0472910e-01   5.1612097e-01   6.4627832e-01  -7.0376452e-01   1.5583397e-01  -2.2057963e-01  -7.4310752e-01   7.5213617e-01   7.6886376e-02   7.3661220e-01  -7.3003111e-01  -5.3963987e-01   2.8608429e-02   7.5547792e-02   3.1330662e-01  -3.3253838e-02   3.5450850e-01  -2.0003123e-01   2.2585393e-01   1.4507478e-01   4.2471908e-01   9.1743002e-01  -7.2837366e-01   8.2688911e-01  -6.1395699e-01  -4.8741425e-02   9.3356826e-01   7.5680081e-01   3.3465458e-03  -1.8084099e-01   3.0020198e-01   9.3719308e-02  -2.7704682e-01  -6.8983263e-01  -2.8749586e-01   8.9536698e-01   5.8047038e-01   8.1899160e-01  -3.0092610e-02   4.8108420e-01  -6.0172387e-01  -8.0371007e-01   9.9638045e-01  -4.7038050e-01  -8.8632230e-01   3.2261506e-01  -9.9483425e-02  -8.9207217e-01   4.7080853e-01  -3.2946443e-01   7.7621939e-01  -6.7240142e-02  -1.0208498e-01  -7.1869053e-01   3.3073614e-01  -8.3992164e-01  -6.9011619e-01   2.4573085e-01  -7.8699018e-01   8.8481088e-02  -3.5139253e-01  -7.0055930e-01   6.3158919e-01   6.1332195e-01  -4.0257344e-01   2.8426691e-01   6.8820785e-02   5.3752527e-01   2.2164404e-01   4.8058310e-01   7.7199565e-01  -1.9954471e-01   5.3941291e-01   2.9498757e-01   7.6093665e-01  -8.5742050e-01  -2.6468961e-02  -2.0913866e-01   5.3623184e-01  -2.2736389e-02  -9.4242822e-01  -6.3957293e-01  -8.1042380e-01   9.9851034e-01  -9.7304589e-01  -4.9807866e-01  -7.3326453e-01  -6.9350275e-01   1.3416812e-01  -7.3461902e-01   7.9004602e-01  -7.1993621e-01   3.1031694e-02  -5.0454631e-02  -2.8731069e-01  -6.7917857e-01   4.7862224e-01   7.5192086e-01  -5.9118422e-01  -8.1785094e-01  -1.1954455e-01  -8.2334304e-01   2.4909450e-02   3.3621047e-01   5.2303979e-01  -1.0110788e-01  -9.3753626e-01   1.5886181e-01   4.9440739e-01   5.9342148e-01  -1.4364752e-01  -4.3035191e-01  -2.2008363e-01  -1.1172141e-02  -2.0111108e-01   5.0206244e-01  -2.6787370e-01   4.7420418e-01   9.7103202e-01  -3.1475824e-01  -7.9109118e-01   6.9589193e-01  -1.5908488e-01   9.7984173e-02   2.0929995e-01   6.9455745e-01  -5.5210270e-01  -6.2610663e-01   2.9454525e-01   6.4321294e-01   4.8115903e-01  -6.6311233e-01  -9.1208892e-01   6.7563018e-01  -6.6270016e-01  -6.4727091e-01  -9.1165368e-01   7.1165575e-02  -6.0579748e-01  -1.7377561e-02   4.5254489e-01  -7.2586110e-02  -1.7838920e-01   5.7262677e-01  -3.1873095e-02  -2.9801170e-01  -4.8437810e-01   9.8209135e-01   7.4693718e-01  -7.9569127e-01  -9.9374573e-01   4.6983947e-01  -1.4831143e-01   2.5910126e-01  -7.9238955e-02  -1.7362545e-01  -8.5261151e-01  -4.4381769e-01  -1.8358737e-01   2.4163008e-01  -8.7745055e-01  -6.6501302e-01  -1.7484277e-01   6.8916087e-01   6.1023868e-01   9.1741034e-01  -6.8580570e-01   3.4303337e-01  -1.6595530e-01   2.5570753e-01  -2.7533313e-01  -1.1025005e-01  -1.8985810e-01   4.6629621e-02  -8.4427127e-01  -8.2722080e-01  -3.6646540e-01  -8.4727047e-01   4.4910241e-01  -6.9088353e-01  -4.6643753e-01   8.9826586e-01  -9.6667714e-02   8.5965366e-01   9.0210444e-01   3.6574755e-01  -4.4532407e-01  -9.9948595e-01  -7.9722137e-01  -6.3887434e-01  -9.7885126e-01  -3.3586574e-01  -9.0457423e-01   6.5440573e-01   9.5875040e-02   3.4974589e-01  -5.1465816e-01   7.5569123e-02  -5.0551743e-01   1.6570954e-01   7.0835844e-01  -5.7871099e-02  -3.2971318e-01   5.3314922e-01  -6.7697026e-01  -5.9422443e-01  -3.4375781e-01  -7.2487337e-01   3.4709549e-01  -3.5767743e-01   7.5756382e-01   3.4813243e-01   1.0323981e-01  -3.6596381e-01  -2.4687213e-01  -4.7450720e-01  -4.3834562e-01   5.6943938e-01  -8.8983463e-01  -1.5454093e-01  -5.4188769e-01  -4.2044404e-01   9.5977791e-01  -1.5371502e-01  -3.4244238e-01  -7.5023555e-01  -2.9297179e-01  -6.3151798e-02   7.3481193e-01  -1.4497922e-01  -6.1896007e-01   8.1310350e-01   5.8171912e-02   2.2314724e-01  -4.6414188e-01   4.9813805e-01   5.4257843e-02  -4.1739762e-01  -8.5398786e-01  -1.7356561e-01   8.7853735e-01  -8.0532014e-01   2.0000333e-02  -2.7973912e-01   2.7635368e-02   3.0351426e-01  -3.5489985e-01   5.3375735e-01   9.5888207e-01   5.5003639e-01   8.1252648e-01  -1.9581185e-01  -7.7515358e-01  -2.5053230e-01  -8.9207206e-01  -9.4764193e-01   9.8392761e-01   6.2204951e-01  -6.5359221e-01   8.9708562e-01   8.2531098e-01   2.6513510e-02  -1.0325981e-01   8.6039866e-01   2.5219608e-02   7.6912323e-01  -3.8226807e-01  -2.9969063e-01  -6.9380721e-01   7.3671870e-01   5.2170172e-01   7.8936891e-01   8.4846081e-01   1.7477880e-01  -9.3510510e-02  -9.9705318e-01  -3.1080299e-01   3.2678080e-01   2.1560670e-01   5.7071734e-01   7.5246440e-01   4.2642965e-01  -3.1518391e-02  -7.4403114e-02  -2.9521702e-02  -4.9762362e-01   6.8520987e-01   6.2609300e-01  -4.6610829e-01   7.4719361e-01  -5.8966223e-01   8.5343838e-01  -6.1777722e-01   8.6510990e-01  -1.6842963e-01   4.2869699e-01  -7.5036889e-01  -7.6923118e-01   3.8980937e-01   3.2801427e-01   4.4401057e-01  -6.4488226e-01  -1.5637568e-01   4.0108929e-01   8.6717347e-01   8.7214283e-01   8.4724188e-01   8.5830788e-01  -6.0461770e-01  -7.1449388e-01  -4.8777533e-02  -1.6711040e-01  -1.4494887e-01  -8.3799965e-01  -3.5167565e-01   9.4926555e-01  -4.1108680e-01  -9.5323541e-02   3.8737642e-02   4.5372970e-01  -5.0670315e-01   6.6071423e-01   7.2766716e-01  -5.4349149e-01  -8.9615283e-01  -1.4765340e-01  -2.2443814e-01  -4.4175362e-01   9.3365317e-01  -8.9984378e-01  -3.3222565e-01  -3.3508132e-01   5.8372302e-01   4.6637157e-01   4.1444530e-01  -8.6661130e-01  -2.5805623e-01   7.7935199e-02  -3.8106271e-01  -5.3806832e-01   2.8956555e-01   2.9240377e-01  -9.2387598e-01   9.5601418e-01  -7.9930495e-03   2.7803115e-01   3.9259240e-01   8.7512973e-01  -1.7414336e-01   7.4408790e-01   3.6332724e-01  -1.7977452e-01   4.9766614e-01   9.4753401e-01   1.9513831e-01   7.6485804e-01  -3.4938317e-01   5.8419970e-03   9.4972848e-01  -7.4727547e-01  -5.3426663e-01  -1.1652539e-01   7.1104217e-01   2.1787087e-01  -5.3878445e-01   7.9893802e-01  -1.4793187e-01  -4.0683895e-02   3.3361455e-02   3.8622307e-01  -1.1978860e-01   8.8614179e-01  -1.0605262e-01   9.6149397e-01   8.2705066e-01   2.8077804e-01  -9.7277840e-01   1.2208803e-01  -5.4013443e-01  -7.7272109e-01   1.0376573e-01   3.5349692e-01   7.0790842e-01   2.9377974e-02   1.2231359e-01   9.4323909e-01  -8.1777924e-01   5.5959744e-02   2.4904489e-01  -1.0500128e-01  -9.0638641e-01   4.0848676e-01  -9.6402571e-02  -2.4217307e-01   1.2603116e-01   9.9514194e-01  -6.6988038e-01   9.6718393e-01   8.3945535e-01   4.0273240e-01  -6.0102844e-02   6.9608254e-01   2.1085684e-01   1.1307088e-01   9.1445996e-02   6.3219232e-01   8.4993825e-01  -3.5229330e-01  -9.0593733e-01   1.7280665e-01   7.3596094e-01  -8.9507920e-01   7.0991935e-01  -5.0826743e-01   4.3504597e-01  -6.8502584e-01   4.6647714e-01   6.9321690e-01  -7.3463696e-01   7.2616413e-02  -5.4321584e-01  -1.9587096e-01  -2.0654217e-01   4.6480820e-01   4.6057743e-01   3.1229342e-02   2.2635771e-01   5.0243954e-01   2.2228368e-02   8.5911669e-01   8.1458376e-01  -8.5750273e-02   2.6205920e-01   5.1858942e-01   1.5693080e-01   8.6278125e-01   1.8606765e-01  -6.0348411e-01   1.0645842e-01  -6.1514060e-01  -4.1076570e-01  -5.6623062e-01  -2.8407247e-01   6.0757730e-01   4.7730831e-01   3.8221687e-01  -2.5377766e-01   3.7925606e-02   9.8335598e-01  -9.2578252e-01   8.0723725e-01  -4.8538491e-01   4.9383248e-01  -6.0119412e-01   4.8589806e-01  -4.3419738e-01   4.3390915e-01  -1.2436768e-02   9.1760505e-02  -5.6200039e-01  -1.2390703e-01  -2.8211034e-01  -3.2216884e-01   8.4676865e-01  -9.1892066e-01  -6.4422278e-01  -7.0268624e-01  -7.5346561e-01   4.9012215e-01   8.1524988e-01  -4.1310846e-01   5.6018636e-01   9.6043407e-01  -4.5030356e-01  -5.1801050e-01   8.6709150e-01   6.7525697e-01   4.2675787e-01  -9.5678505e-01   9.2131798e-01  -9.5037585e-01   2.5186078e-02   8.1944691e-01   5.5794751e-01   3.5813979e-01  -2.3239427e-02  -2.6235809e-01  -1.5370866e-02  -7.5498739e-02  -4.2206855e-01   1.5851274e-01   7.2015818e-01  -6.7006502e-01   5.2965872e-01   4.9542849e-01   9.9294205e-01   3.5412832e-01   1.1009251e-01  -5.5617478e-02  -5.6031892e-01  -7.5548777e-01   8.8152086e-01  -4.9152702e-01   7.7385487e-01  -1.1338517e-03   1.6540512e-01  -8.2477305e-01  -6.4732996e-01   2.7189258e-01  -7.4250337e-01  -3.5580062e-01   2.3845369e-01   4.4835608e-03  -1.8430195e-02   4.6974050e-01  -4.9116795e-01   6.2350447e-02   7.9445588e-01   9.5178549e-01   4.2370391e-01  -3.9753177e-01  -1.6249942e-01  -4.2242553e-01  -7.7253629e-03  -9.5979870e-02  -5.3743728e-01   4.1735771e-02  -5.2408677e-01  -2.9270624e-01   1.5196729e-01   4.7756200e-01   3.6984696e-01  -5.5808532e-01  -3.1034520e-01   9.2024359e-03  -5.8634562e-01   4.8038248e-01  -8.2854580e-01  -3.0200059e-01  -8.4414292e-02   3.4354516e-01  -1.1019725e-01  -6.9009510e-01   3.1725061e-01  -8.1777723e-02  -2.2418021e-01   5.6225257e-01  -3.9988870e-01  -9.0833085e-01  -2.8031434e-01  -9.8741410e-01  -7.6417683e-01   1.0953087e-01  -2.8955080e-01   7.5511195e-01  -9.9766723e-01  -2.6370635e-01  -2.1803752e-01   8.7007133e-01   4.0135906e-01   7.6236242e-01  -2.6726008e-02   5.4745478e-01   7.6809042e-01   6.8748544e-01  -7.5170691e-01  -4.9440693e-01  -8.3350198e-01  -4.9555813e-01   2.7367073e-01  -3.5232365e-01  -5.2246676e-01  -1.7631482e-01  -1.2774035e-01   5.5875253e-01  -1.0558838e-01  -4.7285079e-01   5.0134177e-01   4.5108180e-01   1.3371163e-02   6.7540681e-01   8.2816538e-01   4.6431558e-01   4.4420519e-01   4.0220638e-01  -4.3456203e-01   9.7236406e-01   8.1260378e-01  -2.5243675e-01   8.5926601e-01  -3.5926380e-01   5.4550820e-01   3.5369335e-01  -2.8820018e-01  -1.3643719e-01  -3.7995031e-01   6.3212052e-02   7.1633755e-01   1.5549854e-01  -8.0177122e-01  -3.1975692e-01   3.8835393e-01   6.2169070e-01  -1.0930367e-01   2.4909217e-01  -2.0883446e-01  -8.5031081e-01  -7.9343471e-01   3.3428777e-01   3.7072771e-01  -1.1255882e-01  -8.5664483e-01  -4.4000198e-01  -4.1902404e-02  -3.2001894e-01  -1.7266986e-01   3.8480700e-01   9.5959831e-01  -6.5735750e-01  -6.6370238e-01  -2.2673685e-01  -2.4910804e-01   6.9680693e-01   6.7312465e-02   3.5011413e-01   1.2781651e-01   8.5657835e-01  -4.3559076e-01   2.4399189e-01   9.8094830e-01  -4.4305688e-01  -4.0468700e-01  -6.4239386e-01   3.4539930e-01   7.9040037e-01  -5.0155842e-01  -6.2360382e-02  -2.2965693e-02   7.4871507e-02  -9.7095747e-01  -8.6622228e-01  -4.4322693e-01   7.9985888e-02   2.9747713e-01   4.2506287e-01   4.5539954e-01   9.6804717e-02  -5.3600077e-01   7.3039212e-01  -7.1087702e-02   4.3918922e-01  -4.1271682e-01  -5.9940295e-01   6.5853089e-01  -4.9670985e-01   3.5585269e-01  -6.6417327e-01   3.9110948e-01  -7.8915026e-01   2.4098504e-01  -1.4363448e-01   9.1403823e-01   1.4423939e-01   8.7795990e-01  -9.5567272e-01   9.5660160e-01   9.4103341e-02  -3.6024090e-01   7.1920989e-02   2.8210495e-01   6.5024939e-01   1.1714685e-01  -2.0336811e-01  -1.0326246e-01  -2.1545722e-01   5.2992865e-01  -2.6527743e-01   4.7162686e-01   9.1592948e-01   7.9911524e-01   6.5325984e-01   3.9090593e-01  -7.3128011e-01   1.0676774e-01   1.3642109e-01  -4.0491895e-01  -4.6706381e-01  -3.5544993e-01  -9.3434003e-01   9.9651721e-01  -6.6259506e-01   7.5880105e-01  -6.3458967e-01   7.9988396e-01   7.1568180e-01  -7.9489212e-01   8.8830376e-01   7.8034311e-01   1.1639639e-01   8.9270728e-01  -1.2382813e-01   4.6041164e-01   1.9952834e-01  -7.3072036e-01   1.3931923e-01
   3.2887906e-01   5.2077710e-01   7.0800833e-01  -3.5496923e-01   4.0313933e-02   5.7214989e-01  -7.4040068e-01  -1.0809946e-01   1.7787964e-01  -7.1617456e-01   1.7024131e-01   6.1287607e-01   7.6850411e-01   9.0624055e-01  -7.6461881e-02  -7.6478425e-01   3.7801059e-01  -3.1848589e-01   5.7186462e-01  -5.8013466e-01  -4.8222259e-01  -1.2727863e-02  -9.2915240e-01  -8.5995616e-02  -3.5495792e-01   3.3293801e-01  -2.5485429e-01  -1.5072225e-02   1.5983907e-01  -7.0222290e-01  -5.7085013e-02   4.0032446e-01  -7.4354612e-01   3.3017098e-01  -9.6980394e-01  -4.5741728e-01  -2.8874951e-01   5.0348879e-01   9.5424386e-02  -2.7160080e-01  -7.0727241e-01  -6.5648136e-01   6.0244322e-01   3.3865365e-02   4.7709106e-01   7.3282165e-01   4.6249466e-01   4.4524038e-01   3.2260869e-02   2.3261600e-01  -8.5698095e-01   6.0182372e-01   5.0088571e-01   3.7912312e-01  -7.4008190e-01  -4.2675854e-01  -7.5464070e-01  -6.0578296e-01  -4.5252912e-01  -1.6476768e-01  -1.6829882e-01   4.8926618e-01  -4.8713513e-02   7.5895158e-01   1.7973937e-01   7.8808321e-01   2.8822797e-01  -9.8306140e-01   5.4857116e-01   3.1411597e-01  -2.7682392e-01   1.1099217e-01  -7.0675330e-02  -5.0632375e-01  -5.4317845e-01   1.3365515e-01   2.7846337e-01  -1.4138790e-01   8.6827170e-01  -2.0640075e-01  -7.6713274e-01   3.3503835e-01  -5.7498906e-01  -1.0216778e-01  -3.8082316e-01  -3.9585800e-01   1.4439898e-01   1.8620882e-01  -4.1219098e-02   2.2335569e-01  -3.2927787e-01  -9.3557302e-01  -3.3255434e-01   7.4011858e-01   3.8280639e-01   8.3079113e-01   2.3148240e-01   3.5742555e-01   5.4786832e-01  -9.1222697e-01  -2.8498938e-01   1.5376501e-02  -8.4757471e-02  -9.9864319e-01  -4.5069626e-01   1.0820572e-01   3.3076625e-01  -9.5819743e-01   9.9118342e-03  -3.3987093e-01   6.1824091e-01  -5.8346130e-01   3.5006619e-01  -8.8240397e-01   4.6820465e-01   8.8207276e-01   2.0547315e-01   1.0675490e-01  -6.3077082e-01  -4.1550427e-01  -8.1379386e-01   6.1097712e-01  -9.6220085e-01  -3.5465638e-01  -4.0535077e-01   2.3410655e-01   1.5926755e-01  -1.7563985e-01  -4.2542217e-01   4.1355593e-01  -2.6537415e-01  -8.9294981e-01  -3.4500965e-01   4.0322299e-01   3.2975613e-01   9.6085613e-01  -1.7861264e-01   5.4849499e-01   4.0048186e-01  -9.6014420e-01   3.1330458e-01   5.7711063e-01   8.5862872e-01   9.7441032e-01   7.3055020e-01   4.7491243e-01  -3.6811777e-01   9.7415892e-01   5.5543903e-01   9.4821210e-01   5.2322371e-01   3.7087311e-01  -1.3234427e-02  -5.0721523e-01  -6.1263059e-01  -5.4248642e-01  -3.1350512e-01   4.9736973e-01  -2.3601550e-01  -4.5951184e-01  -4.8133165e-01  -5.9913497e-01   3.1411059e-02  -9.9754431e-01  -6.1157548e-01   6.6923269e-01   5.6989405e-01  -3.3821538e-01  -2.2223072e-01   8.0417956e-01   3.7059300e-02   6.6676681e-02  -7.0608718e-01   7.0377797e-01   5.2935276e-01  -7.1928533e-01   3.1099111e-01  -4.6488234e-02   2.6038973e-01  -9.7580074e-01  -7.5335420e-01  -1.0657801e-02  -4.7398624e-01   5.8632159e-02  -1.2054145e-01   2.5806095e-01   6.6029539e-01  -1.6402417e-01   4.2201773e-01  -2.8968143e-01  -1.9695315e-01  -7.7227359e-01  -1.7029003e-01  -8.8988031e-01   6.1054620e-01   4.8576943e-02   6.6029021e-01  -2.8539031e-01   9.6454282e-01  -3.2412978e-01  -9.1956761e-01  -4.1103494e-01  -8.7084217e-02   8.7438736e-01   5.4058859e-01  -4.6687854e-01  -2.1699646e-01  -9.1812747e-01   3.6822378e-01   1.1076850e-01   8.6538806e-01   4.6457996e-02   2.2544819e-01   9.0975046e-01  -8.2888807e-01   7.1049044e-01   7.3787486e-01  -3.1613754e-01  -9.7118266e-01   1.6708539e-01  -6.6460333e-01   5.4685882e-01   2.5587563e-01  -1.7216510e-01  -2.8720687e-01  -6.0969152e-01  -1.2102715e-01  -8.9187996e-01   9.5568385e-01   1.0130232e-01   2.9426529e-01   2.9275326e-01   7.3092635e-01   7.1196758e-01   7.9024399e-01   9.7936487e-01   4.4482423e-01  -9.6129824e-01   3.0919059e-01  -5.4249290e-01   3.1899373e-01  -9.8043776e-01   4.7238653e-01   4.2930968e-01  -6.3148132e-01   5.0648486e-01   3.3292056e-01  -8.5449502e-01   7.9724204e-01  -3.3640613e-02   6.8662988e-01   3.8634272e-01   3.4258931e-01   2.6112996e-01  -9.9906164e-02   1.2632831e-01   8.6322267e-01   4.6132246e-01   4.2467882e-01  -6.2936816e-02   4.4168602e-01   9.4687088e-01   8.9148312e-01  -4.9009675e-01   6.0111829e-01  -4.9334455e-01  -9.6116973e-02   4.5090526e-01   6.6951260e-01   5.8308998e-01   8.5852218e-01  -2.9649447e-01  -3.6834588e-01  -2.5149045e-01   9.3452136e-01  -1.3195421e-02  -1.4684382e-01   1.4945590e-01   9.2253869e-01   8.1233768e-01   8.5132075e-01   9.6641751e-01   8.4071488e-01   6.4211990e-01  -8.3025997e-01   6.7870042e-01   5.1757412e-01   1.5097383e-02   3.6568354e-01   4.2884140e-01  -6.4766020e-01   1.8087437e-01  -4.2346847e-01   1.9649513e-01   7.8402916e-01   1.2106562e-01   5.9985181e-01   1.9091640e-02   2.7943832e-02   4.9207349e-02   2.1878015e-01  -6.3296884e-01   8.1397614e-01   8.3880918e-01   7.7515363e-01   2.8140458e-01   5.5530490e-01   4.7339550e-01  -6.5519304e-01  -6.3803873e-01  -9.4160279e-01  -1.9455711e-02  -1.0745389e-01   6.0052951e-01   3.3362609e-01  -6.3004925e-01   1.1642842e-01  -4.2535859e-01   3.4005225e-01  -4.1855796e-01  -2.2920337e-01   4.0815336e-01   2.5066466e-01   8.3420728e-01  -2.4983696e-02   7.2693351e-01  -2.4854525e-01   6.1012263e-01   1.4234993e-03  -9.1161172e-01  -3.5304476e-01  -9.7345610e-03  -7.1362975e-01   8.8165907e-01  -3.7163919e-01   1.4519717e-01  -8.5500294e-01   5.4544608e-01  -4.4211485e-01  -3.6995286e-01   4.6602205e-01  -8.1290609e-01  -2.5283104e-01   2.0608687e-01  -9.4322344e-01   4.6520866e-01   2.8597680e-01  -4.4494136e-01  -1.7738727e-01   8.1679603e-01   5.8971834e-01   4.1594080e-01  -3.6529807e-01   1.9125315e-01  -1.7385146e-01  -7.7572737e-01   3.8840021e-01  -2.7444875e-01   5.4870808e-01  -5.6426505e-01   4.3069869e-01  -8.9596687e-01  -6.2188127e-01   7.9011114e-01   3.8017441e-02   5.1263064e-01  -6.7974072e-01  -9.5154901e-01  -3.6974320e-01  -6.8516488e-01  -5.6828659e-01   6.8217993e-01  -7.1753216e-01   3.2457643e-01  -1.3701987e-01  -2.7785536e-01   7.5129766e-01  -3.5372777e-01  -3.8031223e-01   4.7336864e-01  -9.6940038e-01   1.3891389e-01  -1.0326418e-01  -4.8902767e-01  -8.9035391e-01  -5.8943385e-01   1.9703168e-01  -8.7731147e-01  -2.9485307e-01  -9.3682736e-01   4.3877445e-01   3.0204571e-01   7.0317628e-01   7.9754575e-01  -6.9367588e-01  -2.3806586e-01   6.7179123e-01   9.9443290e-01  -9.0186036e-03   3.5298185e-01  -6.7534705e-01   7.5595598e-01  -6.5259119e-01   3.6902881e-01  -7.8657970e-01  -5.2262116e-01   2.0362811e-01   1.2227642e-01   7.6505138e-01   4.8714116e-01   2.1217078e-01   3.7265047e-01  -2.5420023e-01   9.3685215e-01   7.2497513e-01   6.6493284e-01  -5.1692258e-01   5.2934718e-01  -7.4088461e-01  -3.9711307e-01  -2.4974624e-01   1.7504084e-01  -2.6974096e-01  -7.3592623e-01  -8.8065427e-01   6.9790795e-01  -3.5727954e-03   4.0115848e-01  -5.9091651e-01  -9.3387640e-01   3.5683090e-01   4.1968835e-01  -1.2443096e-01   5.3381679e-01   9.9370310e-01  -7.2800721e-01  -9.8224262e-01   7.8761598e-01  -6.9867402e-01   3.0169706e-02   1.5693776e-01  -3.1833818e-02  -3.7279199e-03  -2.3194068e-01   3.6596776e-01   7.9837985e-01   3.1877613e-01   6.0878659e-01   8.9867322e-02   1.9200932e-01   7.7896080e-01  -5.8428942e-01  -7.3455140e-01   1.1111727e-01   8.8143619e-01   4.0479005e-01  -8.3325307e-01   8.6165944e-01   6.1953623e-01   1.5909973e-01   7.9603081e-01  -5.3053240e-01   8.4368918e-01  -9.3049763e-01  -2.1579077e-03  -8.4171227e-02   1.3368999e-01  -3.1391628e-01  -2.3079363e-01   9.8755046e-01   3.2264287e-01   6.9764395e-01   6.9000516e-01  -9.1931626e-01  -9.2775192e-01   4.8796646e-01   6.4635735e-01  -1.4433660e-01  -9.9133450e-01   1.8902095e-01   6.2199917e-01  -2.9245955e-01   3.4899282e-01   6.0949893e-02  -1.8321427e-01   2.0747511e-01  -5.4076083e-01  -3.1805025e-02   6.7333863e-01   9.1442328e-01  -7.7741981e-01   4.7895765e-01  -8.4225405e-01  -6.6586279e-01   6.2400101e-01  -7.8473417e-01  -1.1540808e-01   8.9896785e-01  -7.1203678e-01   3.4274234e-01  -7.3365189e-01  -9.3263738e-01  -5.4923014e-02  -8.6833979e-01   9.2984350e-01  -2.3364991e-01  -7.7579682e-01   1.7270302e-01  -4.3989225e-01  -8.3835728e-02   9.9440232e-01  -4.2578450e-01   7.0262746e-01   6.5889018e-01   4.4238799e-01  -7.1790353e-01  -1.7227873e-01   8.1861274e-01   2.3417556e-01   8.4699241e-01   4.2496715e-01   7.9224603e-01  -3.4249488e-01  -3.4216262e-02  -7.7507162e-01   5.8577683e-01   9.3141795e-01   9.8557799e-01  -4.2053815e-01  -9.2107388e-01  -2.6118610e-02   1.9131124e-02   5.6826129e-01   9.0592602e-01   2.7744469e-02   9.4195539e-01  -2.5786519e-01   1.3629934e-01  -5.3893767e-01  -2.6996322e-01  -8.9205220e-01   4.7038941e-01   8.1280768e-01   1.0229464e-01  -8.8071126e-01  -7.8582863e-01   9.2805910e-01  -5.2682000e-01  -8.7669059e-01   2.1897254e-01   1.4946384e-01   7.7425224e-01   2.9205206e-01   8.1733620e-02  -9.3872361e-01  -1.3087363e-01  -6.8697601e-01   2.8921654e-02   2.3252905e-01  -1.0705015e-01  -5.4473318e-01  -5.2052652e-01  -6.4714860e-01   8.9379815e-01   9.2550525e-01  -3.5208725e-01   3.7301525e-02   7.2307947e-01   5.5112249e-01  -8.8240359e-01   4.6216102e-01  -8.3855865e-01  -4.5680834e-01  -6.1347321e-01  -1.4862682e-01   8.6720083e-02  -8.2225473e-01  -5.4355445e-01   4.3038845e-01   4.9431943e-01   2.5102351e-01  -2.8611413e-01  -2.3379274e-02   6.0299420e-01  -1.7882939e-01  -7.8761956e-01  -9.4946990e-01  -1.7341647e-01   1.3827681e-01  -4.7906004e-01   5.7634635e-01   7.4952322e-01   9.8478923e-01   3.2274320e-01  -3.7113673e-01  -8.0706754e-01  -4.1304263e-01  -8.1900408e-02  -6.2006182e-01   2.5922685e-01   9.5646032e-01  -1.6967506e-01  -8.0018063e-01  -8.3749029e-01  -1.6216361e-01   2.3865320e-01   2.0391416e-01   8.4093095e-01   9.3712709e-01   4.1550444e-02   1.2741820e-01   9.5819294e-01   9.9589254e-01   3.4227559e-01   3.1590021e-03  -4.0862003e-02  -3.1251983e-01   9.3949801e-01  -3.0390390e-01  -4.2340512e-01   3.7715933e-01  -9.6909520e-01  -2.8984506e-01   8.7616717e-02  -5.8165097e-01  -3.9937837e-01  -7.4025363e-01  -4.8554869e-01   1.3895944e-01   6.6290676e-01   7.1691242e-01   4.1586121e-01   8.6716566e-01   2.8811253e-01  -6.8363621e-02   6.7544190e-01   3.3109121e-01  -3.2317979e-02  -2.1788600e-02   7.6963191e-01   5.0652311e-01  -5.1618207e-01  -4.1390738e-01   1.1638643e-01  -9.5127474e-01   8.4456536e-01   7.7895817e-01  -3.7174754e-01  -2.3667205e-01   5.3268143e-01  -1.7453332e-01   6.2623927e-01  -3.9742724e-03   3.4839427e-01   4.7034635e-02  -1.7203131e-02   3.8385872e-01  -3.8883131e-01   2.5328130e-01  -2.1587277e-01   3.0349928e-02  -9.8607978e-01   8.2390685e-02  -7.6063962e-01   1.4812716e-01  -4.5499211e-01  -6.0751212e-01  -9.3447715e-01  -9.4483920e-02  -8.9206784e-01  -9.9954973e-01   5.6310842e-01  -9.9521830e-01   5.8397452e-01  -5.0127302e-01   2.2437473e-01   8.4489141e-01   4.8775344e-01  -9.1498233e-01  -5.7262425e-01   2.7893106e-01  -9.7195805e-01   7.4887089e-01  -6.3539205e-01  -1.0759554e-01   9.9885758e-01   9.1815285e-01  -6.6860168e-02  -2.0116164e-01  -8.7387479e-01   6.3595020e-01   5.6485796e-01  -8.1673319e-01  -8.1567682e-02  -3.8572155e-01  -8.9490594e-01  -9.2445730e-01  -4.6166527e-01  -8.9358110e-01  -3.3332401e-01  -5.5082037e-02   8.5368145e-01  -9.6183000e-01  -2.9947741e-01  -9.8349611e-01   5.5167707e-01  -6.3014833e-01  -9.9306977e-01  -7.9168646e-01  -6.3929546e-01   5.1604030e-01   5.9162129e-02  -4.8547383e-02  -6.2663636e-01  -2.7657490e-01   1.6730282e-01   5.4668194e-01  -1.2516357e-01   8.3369171e-01  -8.5858546e-01   2.9574935e-01   6.0042650e-01  -1.2732562e-01   9.5065395e-02  -1.6814006e-01  -6.1902797e-01   1.5762171e-01  -1.2219647e-01  -9.1116796e-01  -3.5383566e-01  -5.0643162e-02  -9.9796503e-01  -9.1396421e-01  -6.2808619e-01  -9.5013125e-01   3.3667365e-01  -9.3133672e-01  -2.2373873e-01   2.9578470e-01   8.3374327e-01  -3.4421460e-01   3.0855634e-01  -4.1680824e-01   4.0944292e-01   6.2605617e-01   7.4250267e-01   6.0654912e-01   7.7162452e-01   7.6369056e-02   1.6856507e-01  -5.3547123e-01  -2.4391408e-02   7.3590157e-01  -6.4453616e-01   1.4839307e-01   8.1345904e-01  -6.1468963e-01   3.5297288e-01  -8.4972006e-01  -7.3779419e-01  -9.3632740e-01  -2.9626683e-01   9.4042332e-01   4.7469726e-01  -7.4713856e-01  -6.2977975e-01   2.2442408e-01   9.7731647e-01   8.0456529e-01   1.6715001e-01   8.4098474e-02  -3.5455159e-01  -8.3014695e-01  -2.7754786e-01   8.3775239e-02   2.3930547e-01  -8.5778232e-01   2.7518557e-01   8.2097871e-01   1.1602004e-01   3.5262875e-01  -1.3422140e-01   3.9067416e-01  -1.5444788e-01   7.2039222e-01   9.2863725e-01  -1.5922248e-01   8.6215382e-01  -9.0939344e-01   1.0055534e-01  -6.1382840e-02   2.9618721e-01  -9.2507349e-01   9.4600162e-01  -8.6444119e-01  -6.2890773e-01  -1.6149562e-01   4.3362404e-01   2.6154609e-01  -5.8839084e-01  -9.4303263e-01  -8.3638934e-01   4.4832580e-02  -3.6917976e-01   7.5640273e-01   6.9672872e-01  -7.3616778e-01  -3.4826585e-02   5.2408425e-01  -5.8797870e-01  -4.7339331e-01  -4.5664002e-01  -8.9654582e-01  -8.3992795e-01  -7.6893638e-01   6.2859269e-01   7.4197544e-01  -3.6859332e-01  -7.6626834e-01  -8.5165325e-01  -7.5638170e-01  -7.7511625e-01   8.3235710e-01   4.5153159e-01  -5.7594023e-01  -9.8478207e-02   2.0036314e-01   2.6022005e-01   6.3840711e-01   3.5308841e-01  -9.7512468e-02  -6.0213657e-01  -6.6001300e-01   8.6897267e-01  -5.3489105e-01   4.5548830e-01  -5.9685303e-01   2.5091920e-01  -7.0808575e-01   8.7650412e-01   1.0495096e-01  -5.2287167e-01  -9.6265680e-01  -9.1172480e-01   1.1804637e-01  -8.6256345e-01   7.0599735e-01  -8.6268654e-01  -9.2190469e-01   8.0433126e-01   6.6753915e-01  -4.6669431e-01  -9.8156723e-01   5.0842999e-01   2.1746642e-01  -8.6465841e-01  -2.1649994e-02   2.4430414e-01   2.7901582e-02   6.7915873e-01   6.6094875e-01   1.8899801e-01   1.4747279e-01   2.3183055e-01  -5.0177325e-01   6.5439933e-01  -6.8954410e-01   6.4288472e-01   5.0329275e-01  -9.8588166e-01   7.3055869e-01  -5.7208214e-01  -4.7805192e-01  -6.2408936e-01   3.0568611e-01   7.7486614e-01   3.2463727e-01  -2.7888983e-01   9.5635294e-01   5.9092010e-01   9.4492619e-02  -1.4484065e-02  -2.1022574e-01  -9.0496618e-01   9.3764432e-02  -5.5934165e-01   5.6161738e-01   1.0922460e-01   4.1026337e-01   4.4370216e-01   1.7726316e-01  -9.1453091e-01   6.9105740e-01  -2.1128525e-01   1.2061681e-01  -9.5239097e-01   2.2194664e-02   5.5592220e-02  -9.3859692e-01   1.3241805e-01   4.5429948e-01  -7.2306692e-01  -1.5825099e-01   6.4019425e-01   6.4089442e-01   5.6946299e-01   4.1622241e-01   5.3725584e-01  -8.5375004e-01   1.2574549e-01   2.9187947e-01  -9.1121408e-01   2.8370006e-01   9.8028915e-01   1.1583528e-01  -7.3405571e-01   5.2008685e-01  -3.6205976e-01  -8.3797731e-01  -8.2105722e-01   5.4442569e-01  -4.4177293e-01   2.1236469e-01  -5.3157418e-01  -2.5528675e-01  -2.7741947e-01   5.3071978e-02   3.1301650e-01   1.0371560e-01  -4.9799726e-02   5.7883505e-01   1.5530184e-02   3.0823961e-01  -7.1521006e-01  -4.0712522e-01   8.4474967e-01   7.6320959e-01  -7.2552990e-01  -1.5139384e-01  -6.2010852e-01   2.8356902e-01   6.2704212e-02  -6.7476748e-01  -2.7896325e-01   3.0417243e-01  -1.2589189e-01  -4.7583634e-01   1.8026030e-01   2.9358587e-01  -1.4197964e-01   8.8222911e-01   9.3934028e-01  -2.0031564e-01  -8.9681307e-01   6.3269148e-01   1.3081018e-01  -9.4300278e-01   5.6996905e-01   4.2093634e-01   2.4678220e-01  -4.2529222e-01   3.2882540e-01   6.2608860e-01   5.0724585e-01  -4.6990842e-01  -4.4789992e-01  -4.7755661e-01  -9.9975196e-01  -8.0260852e-01   9.9253179e-01   6.8092805e-01  -8.7078733e-01   5.3548546e-01   7.1966063e-01  -4.2876614e-01  -5.7258801e-01  -5.7242271e-01   8.0471906e-01  -2.6934139e-01   2.3979627e-01   4.1280721e-01  -5.9329965e-01  -7.9196500e-01   5.5781565e-01  -3.2133117e-01  -9.4937694e-01  -4.1517938e-01  -4.5849817e-01   1.4061712e-01   1.4920974e-01   6.1599390e-01  -6.4277069e-01  -5.5466370e-01  -3.0417337e-01   8.5535255e-01  -3.9678892e-01  -1.4837162e-01  -3.7514012e-01  -1.7106362e-01   8.8401291e-02
   7.4560597e-01  -7.6737920e-01   6.8716512e-01  -7.4079140e-01   4.8089173e-01  -6.5028220e-01  -2.2783928e-01  -2.4794435e-01   4.8684772e-01  -6.8752577e-01  -8.0008523e-01  -1.1983794e-01  -4.1074015e-01   5.6659472e-01  -7.5945886e-01   4.8930187e-01  -9.3841414e-01  -1.0924195e-01   5.7457509e-01   1.7600887e-01   8.5113062e-01  -3.5130979e-03   9.8362239e-02  -7.9058985e-02   4.6817983e-01  -3.2170394e-01  -1.0428726e-01  -1.5336060e-01   7.9065023e-01  -6.8861456e-01   4.5356402e-01   9.8455169e-01  -5.0822253e-01   3.5845453e-02   6.1763777e-01  -8.5071202e-01  -5.2562417e-01   7.5556932e-01   4.9150457e-01  -4.3528542e-02  -2.4336231e-01   7.3573826e-01   9.6788234e-01   2.6441396e-01   3.4115144e-01   5.0960809e-02  -9.1942820e-01   4.7931052e-01  -3.5778192e-01  -5.8803065e-01  -1.9439829e-01  -2.4043694e-01   6.5272106e-01  -9.8637255e-02  -7.2603132e-01   2.8976440e-01   3.5416266e-01   6.0986291e-01  -7.3302858e-01  -5.0103119e-01   3.1471525e-01  -7.7118318e-01  -6.7380512e-01   9.2876931e-01  -4.0872622e-01   1.0042524e-01  -7.9765863e-01  -6.5228586e-01  -2.4083790e-01  -4.5006973e-01   6.3597889e-01   5.0096929e-01   5.0001162e-01  -7.0111528e-01   3.0664186e-02  -8.2394787e-01  -2.4192589e-01   6.4645758e-01  -3.4082976e-02  -6.2622103e-01   4.2394912e-01   1.0034309e-01  -5.1630685e-02   4.3271309e-01  -7.6673482e-01   8.4430760e-01   5.9062220e-01   2.4714616e-01  -2.3751650e-01  -9.9651604e-01  -5.3884899e-01  -8.1812630e-01   3.0819052e-01   7.8545208e-01   1.2046253e-01  -9.9970029e-01   1.9795706e-02  -7.1412894e-01   7.1841040e-01  -9.8739645e-01   6.5706617e-01  -6.8216428e-01  -8.1053153e-01  -5.7553220e-01  -5.3110560e-01   6.2165365e-01   8.7960776e-01  -1.5837516e-01   3.1257037e-01   3.8431455e-03  -6.1304831e-02  -6.8929607e-01   5.2170688e-01  -2.2530614e-01   3.9782665e-01  -1.8106909e-01   1.1818522e-01   2.9733048e-01   3.0699931e-01  -8.2665200e-01  -8.5471632e-01  -1.8253068e-01  -9.4855885e-01   5.7736438e-01  -8.6110106e-01  -3.2869670e-01   4.4085382e-01  -2.3611202e-01  -4.9140442e-01  -6.8185414e-04  -5.2416802e-01   5.4142565e-01   4.1158890e-02  -7.4799260e-01   1.5430903e-01  -8.0711402e-01   8.6571413e-01   9.5353870e-02   1.1797532e-01  -1.3488325e-01   5.8590739e-02  -8.3609345e-01  -9.4151836e-01   9.5403789e-01   3.2280349e-01  -6.7136236e-01  -2.7719111e-01  -8.5432525e-01  -1.6114774e-01   7.4379003e-01   5.2249128e-01  -6.4639738e-01   8.1848922e-01  -8.8574197e-01  -3.8642065e-01   6.2688620e-01  -5.5366265e-02   5.0696712e-01   1.9086908e-01   1.5076988e-01   7.2547579e-01  -9.0955315e-01  -1.1641066e-01  -5.9684878e-01  -1.7757623e-01   8.6892132e-01  -4.4058670e-01  -2.9813237e-02   2.6009772e-01  -1.4129125e-02  -3.6585076e-01  -8.5219096e-01  -6.5165735e-01  -1.7343812e-01   2.0293978e-01   7.5791803e-01   3.2670169e-02  -4.9239159e-01   3.8016425e-01   5.4362664e-01   7.4248189e-01   6.6504214e-01  -8.6646750e-01  -5.8083540e-01  -9.7686422e-01   3.2318905e-01   2.2892422e-01   2.8399727e-01  -2.1282418e-01  -3.6236427e-01  -3.9230806e-01  -1.0858602e-01  -5.2397727e-01   1.3801813e-01  -3.6116985e-01   6.8966600e-01  -2.0860400e-02  -3.0238960e-01  -2.3302850e-01   4.2360304e-01   4.4595290e-02   1.4950942e-01  -3.4486093e-01  -1.2573865e-01   3.2974440e-01  -2.9613603e-02  -4.1916713e-01  -9.3729879e-01  -1.9254796e-01  -3.4796780e-01   6.7380124e-01   8.9872872e-02  -3.9099090e-01  -9.2565963e-01  -5.9960380e-02  -9.9102328e-01  -3.6964402e-01  -3.7208033e-01  -2.4508108e-01   4.7413757e-01   2.7481826e-02  -3.9101273e-01   1.9884944e-02  -3.0869675e-01  -5.1177749e-01  -2.8629224e-01   8.3047428e-02   8.1135372e-01  -4.1512180e-01  -6.6143755e-01  -7.8300445e-01   3.5394610e-01   8.8352394e-01  -6.3483688e-01   6.4518119e-01  -8.3840698e-01   3.7019988e-01  -4.6411228e-02   7.7564541e-01  -4.5037752e-01   3.9687874e-01   5.4883120e-02  -6.7928843e-01  -1.9118896e-02  -4.5203301e-01  -4.0084573e-01  -1.5303316e-01  -7.0983112e-01  -2.2571936e-01  -2.3648192e-01   9.2507988e-01   2.7066802e-01  -9.7772038e-01   1.4303944e-01  -5.9765723e-02  -2.7943700e-01   4.4595801e-01  -3.0555446e-01  -5.4788021e-01   1.6984258e-02  -9.8216384e-01   1.7080116e-01  -8.9787057e-01  -2.5093175e-01   5.2607537e-01  -5.8396255e-01  -1.3132314e-01   9.8668953e-01   6.8102278e-01  -1.2984831e-01  -9.6607433e-01   5.9376432e-01   6.7867466e-01   2.1509455e-01   7.5163146e-01   6.1733928e-01  -2.4266106e-01   5.3462543e-01   8.3331389e-01  -3.5650122e-01  -4.5825914e-01  -7.9467511e-01  -7.5833961e-01  -6.5056242e-01   3.7809112e-01  -2.7437255e-01  -3.7079070e-01   1.5753522e-01   9.2927675e-02  -1.1766410e-01  -4.6876452e-01  -9.3071470e-01   3.7633667e-01   5.9046255e-01   3.2465621e-01   6.1610393e-01  -5.6359243e-01   5.9216838e-01  -5.5184335e-01  -4.4753576e-01  -6.9522956e-01   8.9401118e-01   3.8661158e-01   8.1081811e-01  -1.3318801e-01  -6.7625611e-01   3.3828552e-01   6.2965975e-01  -4.8465054e-01   1.1181450e-01   7.2939799e-01  -5.3102954e-01  -4.9407084e-01  -5.7680754e-01  -4.9422152e-01  -1.8324570e-01  -8.1227468e-01  -5.7948743e-01   6.3042972e-01   4.9910102e-01  -1.6302374e-01   6.7746076e-01   8.3941083e-01   7.2749829e-01  -7.2811027e-01   4.4181075e-01  -1.4667445e-01  -1.4824567e-01   5.8309289e-02  -4.0575961e-01   6.3604725e-01   8.3788199e-01  -6.2100414e-02  -5.9996139e-01  -5.0843853e-02   8.6494221e-01  -2.3537350e-01  -9.2682240e-01  -7.5723052e-01   2.0409458e-01  -5.5461280e-01  -9.4375560e-01  -9.2677474e-01   6.4798958e-01   3.9431207e-01   7.1839883e-03  -2.6343215e-02  -2.2925694e-01   7.4088929e-01   8.0932313e-01  -9.2689117e-01   9.4292066e-01   6.9429121e-01  -4.9411357e-01  -3.0239279e-01   3.7075113e-01   8.2215367e-01   3.7004733e-01   8.7184497e-01   1.5974300e-01  -9.4149914e-01   3.9055892e-01   9.4941450e-01   4.7908114e-01  -8.8382578e-01   2.3086559e-01   5.8147906e-01  -8.6239495e-01   8.3707472e-01   6.6588982e-01   4.5274561e-01  -8.4899867e-01   3.2129746e-01  -7.1005431e-01  -2.3479704e-01   2.6917850e-01   6.6260491e-02  -2.4900235e-01   9.9458259e-01  -8.2792495e-01  -7.0838251e-01  -8.6781228e-01  -1.8270550e-01  -3.2074217e-01  -1.7888220e-01   1.6898541e-01   5.7093933e-01  -5.7352903e-01   3.8059674e-01   2.9693453e-01  -2.2299039e-01  -5.8645873e-01   4.0558541e-01  -7.5158454e-01   5.1480211e-01   9.1080878e-01   5.1595084e-01   6.9772211e-01  -8.0165682e-02  -5.7603806e-01   5.1754164e-01   4.7609939e-01  -8.8873094e-01   3.1778540e-01   9.6011708e-01   6.2745849e-01  -5.7614467e-01  -4.0583474e-01   9.6928062e-01  -6.0998856e-01  -7.2951951e-01  -3.1552211e-02   9.6642022e-02  -5.5301059e-01   5.7770742e-01  -3.7084178e-01   3.5252856e-01  -5.1324131e-01   7.1723605e-01  -4.1800200e-01  -8.3074511e-01   7.1999051e-01   6.5420353e-01  -3.6386323e-01   6.8833170e-01  -6.1568567e-02  -7.1473048e-02   3.1864059e-01  -1.7387692e-01   3.1114398e-01   7.6795105e-01  -2.6716226e-01  -6.1006629e-01  -6.3664732e-01   1.7040498e-01  -7.9788310e-01   1.1867077e-01   6.2827801e-01  -4.0238851e-01   4.9674707e-01   5.2493439e-01   3.8085162e-01  -6.8824689e-01   8.4362073e-01   4.6106988e-01   4.8310446e-01  -6.9914334e-01  -5.0135867e-01  -4.1782720e-01  -8.6417870e-01   3.4493880e-01   2.8091738e-01  -2.2985533e-01  -3.9685428e-01  -5.9364841e-01   4.7040213e-01  -5.9319943e-01   3.4014477e-01  -5.2308464e-01  -9.5437628e-01  -8.7952193e-01  -4.2732198e-01   5.1629013e-01   5.7653440e-01   5.5959215e-01   2.9901292e-01  -5.4821859e-02  -6.6084392e-01   9.7398976e-01   7.2724170e-01  -4.6233742e-01   4.9181934e-01   1.2297436e-01   2.2419294e-01  -8.3664112e-01   8.6817606e-02  -6.0965808e-02   2.5110040e-01  -7.3979967e-01   6.6861953e-01  -5.3834224e-02  -5.9771422e-01   9.6615774e-01   3.6495222e-01  -1.6004678e-01   6.4008147e-01   8.3992161e-01  -9.9335594e-01  -3.5929521e-01  -9.9921635e-01  -3.9532054e-01  -5.8512966e-01   7.7951826e-01  -4.8770829e-01   7.9054523e-01   3.0213508e-01  -3.9560629e-01   6.6300829e-02   7.7639550e-01  -9.3217073e-01   1.7068286e-01   2.3737738e-01   7.3441714e-02  -4.3104593e-01   1.7174095e-01   8.2892075e-01   3.6663661e-01   6.3633153e-01   8.2517276e-01   7.1608007e-01  -7.8700494e-01   3.1688538e-01   9.0572286e-01   5.9846523e-01  -1.4226880e-02   8.7072490e-01  -4.8262182e-01   8.3012544e-01  -4.8334711e-01   5.6352128e-01  -6.4432847e-01  -2.5267494e-01   5.5529995e-01  -8.8942084e-02  -7.3287351e-01  -5.1577372e-01   4.8595482e-01  -2.2349255e-01   3.2358790e-01   9.5766603e-01   3.5048252e-01  -3.3436444e-01  -3.3392909e-01  -9.2089471e-01   2.8772630e-01  -2.6838025e-01  -8.8890023e-01  -2.8295049e-02  -1.5201868e-01  -9.2367605e-01  -1.1016923e-01   1.8315587e-01  -9.0361932e-01  -3.6361687e-01   6.5361633e-01   6.2540953e-01   9.5122582e-01   2.5573229e-01   1.0381214e-01   5.1669680e-01   5.4736830e-01   1.5413503e-02  -2.0013474e-01   9.3047320e-01  -4.9186828e-01   4.6660784e-02   4.8588946e-01  -3.9708302e-01   7.8849234e-01  -4.1246507e-01   1.5040460e-01   8.3665177e-01  -1.1626934e-01  -7.6326305e-01   6.7211003e-01  -7.6854795e-01  -3.1316282e-01  -8.8843639e-01  -5.2920015e-01  -8.5368227e-01   2.0683183e-01   9.3010764e-01  -5.7404495e-01   5.7639139e-01   6.0585342e-01   1.7120739e-01   8.1152570e-01   7.4663314e-01   6.8066022e-01  -4.7941670e-01   6.5791780e-01   2.7153088e-01   9.6366393e-01   5.8668820e-01   4.0607684e-01  -3.1809279e-01  -7.6071993e-01   9.8031617e-02   9.8220737e-01  -3.2626530e-01   3.7981634e-01   8.5984154e-01   7.2814754e-01   4.8450547e-01  -5.2144738e-01  -5.4277556e-01   9.9108431e-01   5.4378757e-01  -7.6758906e-01   5.0265405e-01  -3.6446572e-01   6.2215475e-01   4.4498699e-01   3.0199931e-01   8.6563907e-01   1.2793184e-01  -5.7913320e-01  -3.3022732e-01   5.7445474e-01   1.0092406e-01   3.0746793e-02  -6.6813107e-01   6.2852525e-01   8.0820120e-01  -2.9427823e-01  -5.4460126e-01   8.1564198e-02  -4.6917469e-01   1.4990777e-01  -1.3971818e-01   8.5001254e-01  -4.3071645e-01  -9.2082733e-01   5.6297751e-01   7.6882311e-01  -7.1947400e-01   8.0770416e-01   4.3522595e-02   5.6704374e-01  -8.7073664e-01  -8.0399172e-01   7.2274946e-01   2.8923652e-01  -1.6919153e-01   2.2564874e-01  -3.7767838e-01  -3.7350517e-01   2.4363451e-01   4.7077698e-02   2.2208697e-01   3.0337726e-01   1.6173797e-01  -8.0068974e-01   3.6137454e-01  -4.9138712e-01  -9.3682567e-01  -7.7778531e-01   1.5654078e-01  -6.8376627e-01   2.3659804e-01   9.7610233e-01  -4.1941516e-02  -7.0819881e-01  -2.3638734e-01   2.4775726e-01  -3.0296482e-01   9.3165975e-01   7.9779616e-01   6.4117639e-01   4.8604059e-01  -4.6155602e-01   3.4131358e-01  -6.5287941e-01  -4.5498775e-01  -7.2258195e-01   1.2670359e-02  -6.1089514e-01   3.9707951e-01   3.0581607e-02   3.0866051e-01   5.2541822e-01   4.0228359e-01  -1.1276379e-01  -8.5773131e-01   1.3803383e-01   9.4175421e-02  -3.1044987e-01   3.1508587e-02  -8.8211705e-01   9.5942613e-01   4.2616267e-01  -2.7971255e-01   4.1480388e-01   3.2043216e-01   6.3765912e-01   6.2477630e-01   7.4186891e-01  -5.2047016e-01  -8.3449909e-01  -2.5690415e-01   9.7361665e-01   3.6621157e-01   4.0906458e-01   8.9059866e-01   1.2375528e-01  -6.4045339e-01  -8.0671503e-01   9.3011572e-01  -9.1456784e-01   8.7353489e-01   2.1841501e-01   5.5265785e-01  -9.6431269e-01  -9.4957459e-02  -4.3021530e-01  -7.1324799e-01   5.5931104e-01   3.5752148e-01   1.9513323e-01  -9.9496074e-01   5.4676903e-01  -8.3085070e-01   1.9234449e-01   9.2725995e-01   6.3148229e-01  -6.7762926e-01  -1.9775073e-01   1.0230315e-01  -7.3378810e-01  -3.4021035e-01  -3.8763169e-01   8.3635747e-01   2.4540485e-01  -5.2375553e-01   6.1913923e-01  -2.9745856e-01  -7.0472686e-02  -3.4850707e-01  -7.1265438e-01  -4.5908551e-01   4.1951696e-01  -6.8892047e-01  -7.9582691e-01  -2.0901707e-01  -8.1333244e-01   4.7444726e-01  -7.7469375e-01   5.6918503e-01  -5.8602706e-01   6.9573286e-01  -5.9788625e-01   3.5840850e-01  -3.3096662e-01   2.7125148e-01  -6.8684731e-01   9.4330334e-01   2.8883348e-01  -3.5642314e-01   2.6050514e-02  -4.2071743e-01   5.6480047e-01   3.7623766e-01  -3.7164578e-01   8.3435948e-01  -6.6490437e-01   7.7618508e-01   7.0889594e-03   3.2177077e-01  -3.1704212e-01  -3.7521765e-01  -8.3088676e-01  -4.9722173e-01   2.5026243e-01  -5.9649087e-01   2.0444598e-01  -7.6411868e-01  -3.5308208e-01   1.8280521e-01  -6.6163860e-01  -3.7319214e-01  -1.8043010e-01   3.8379637e-02  -1.8415935e-01  -4.0978404e-01  -4.1832945e-01  -4.4051933e-01  -8.8485809e-01  -6.7583049e-01   1.9120133e-01   2.1990676e-01   9.3897450e-01   4.6794826e-01   6.1293006e-01   1.1420106e-02  -8.3610877e-01   8.3559476e-01  -1.6118141e-01  -3.1078921e-01   8.8379538e-01   9.5231892e-01  -5.9355999e-01   3.6615152e-01  -4.7739482e-01  -6.5681435e-01  -5.3759370e-01  -3.5321929e-01  -4.5055734e-01  -1.4038808e-01  -7.1439175e-01   8.2043042e-02   9.2983285e-01  -8.8188319e-01  -3.9128885e-01  -3.3082259e-01  -9.5629477e-01  -5.6916464e-01  -1.2035961e-01  -2.6042963e-01   2.9448825e-01   6.3148446e-02   2.3799843e-01  -3.3452591e-01  -1.9358426e-01  -1.4569723e-01   4.5018046e-01   4.3543634e-01  -5.2204221e-04   1.8556163e-01   1.8767591e-02  -3.5032303e-01   3.3134988e-01  -6.8971921e-01   5.9678162e-01  -6.9609245e-01  -8.2261590e-01   4.1331995e-01   9.2718779e-01  -8.8148055e-01   5.2990040e-01  -5.2297310e-01  -7.8441274e-01   3.7181365e-01  -9.1428970e-01   3.4946895e-01   3.9357162e-01  -7.0870070e-01   5.2491641e-01  -3.6184129e-01  -8.6152255e-01  -3.2325548e-01  -4.1000382e-01  -4.7147357e-01   8.9033330e-01   7.3252073e-01   1.3583490e-01  -7.5913927e-01  -8.0864599e-01   3.7265995e-01  -4.3630643e-01  -9.2897985e-01  -6.0411022e-02  -9.0199858e-01   4.4640326e-01  -1.1467673e-01  -2.9085929e-01   3.4180016e-02  -2.7299744e-01   3.2076426e-02  -2.1689464e-01   4.0066142e-01  -3.1573490e-01   5.5050108e-01   9.6323115e-01   1.0515219e-01  -2.8740738e-01   9.8128570e-01  -3.2698414e-01   7.6647630e-01   8.9019704e-01   8.0273225e-02  -9.5205425e-01  -9.5470547e-01   7.1486020e-01   6.5388412e-01  -1.6529125e-02  -3.1608426e-01  -8.0833862e-02  -8.0722319e-01   6.3639996e-01   4.4169551e-01   3.5612466e-01   8.6347169e-01   8.5183113e-01  -3.2540002e-01  -7.7817558e-01  -6.5837629e-01  -7.8135629e-01  -8.2449417e-01   8.0726047e-01  -4.1076321e-01  -3.1494927e-01  -9.4952230e-02  -4.7867977e-01  -6.9356143e-01  -6.4301362e-01   1.2928468e-01  -1.2021405e-01  -3.0369502e-01   8.4421583e-01  -2.1909945e-01  -3.2856298e-01   8.7301171e-01   4.3624177e-02  -5.4941170e-01   5.2587701e-01   7.3727632e-01  -4.2758955e-01   1.4478369e-01  -6.3574851e-01  -9.1602243e-01   9.0273251e-01  -6.1491867e-01  -7.3701973e-02  -1.1994743e-01   3.5172596e-01   3.7233991e-01  -1.4766090e-01   4.6204255e-01  -1.8949220e-01  -5.6353896e-01  -8.9657134e-01  -6.1451806e-01   9.4217990e-01  -4.5945473e-01   8.2992352e-01  -3.1222723e-01   2.9280053e-01  -7.8608185e-01  -4.9958952e-01   2.2984695e-01  -9.5282265e-02  -7.3899697e-01  -7.9813748e-01  -3.7627679e-01   1.5127113e-01  -1.1681203e-01   1.7118866e-01  -9.4662656e-01  -7.8403390e-01   2.9049387e-01  -6.0325030e-01  -8.4642072e-01   4.2273918e-01   7.2730763e-01   3.4592940e-01   7.4069554e-01  -4.4413000e-01  -6.8671852e-01   1.9179058e-01   4.9301189e-01  -5.0844337e-03   6.4013433e-01  -5.3494164e-01   8.9998022e-01   3.7749607e-02  -3.1183235e-01   2.5408554e-01   1.6128403e-01  -3.4737635e-01  -5.6857150e-02   9.2344462e-01   2.0965281e-01  -5.0166937e-01  -8.5943172e-01   5.3445860e-01   4.1024910e-02   3.3369106e-01   9.2380223e-01  -2.7902280e-01  -9.1087579e-01  -1.2527210e-01  -4.9015619e-01   8.8099311e-01   2.9584382e-02  -7.9927981e-01   7.6120613e-01  -1.6999378e-01  -7.7324893e-01   4.1025842e-01  -4.1213816e-01  -7.7133404e-01   5.7855841e-01   4.1159384e-01  -7.5689570e-01  -9.0629302e-01   6.2323583e-01   8.9430538e-01  -4.6557081e-01  -8.0941910e-02   7.6383422e-01  -6.0218229e-02   6.6883458e-02   5.9905807e-01   7.5769442e-01  -5.0036029e-02   7.7932562e-01   6.1098328e-01  -9.2583749e-01  -5.9505939e-01   9.1314047e-01
