  -2.4438138e-01   3.6473416e-01   4.7470353e-01  -2.9479106e-01   8.8132229e-01   5.2210310e-01  -7.8482815e-01  -5.8892747e-01   5.8883560e-01   5.9557928e-01  -7.8033989e-01   4.1575532e-01  -3.0304669e-01  -3.6011580e-01  -7.4254663e-01  -6.5036575e-01  -4.8579488e-01   6.2679709e-01  -3.9000737e-01   4.6886864e-01   8.0142022e-01   1.7908386e-01   5.7544129e-01  -9.3434426e-01  -5.0419761e-01  -8.7155126e-01   9.4228182e-01   5.1590056e-01  -9.5894131e-02   5.7060240e-01  -1.9788773e-01  -1.4052281e-01   7.0324736e-01   2.3096368e-01   8.2185892e-01  -8.9794866e-01   9.5821239e-01   5.1263011e-01  -9.0279407e-01   5.5769751e-01   3.9919106e-01  -3.8798783e-01   2.6781133e-01  -1.7834354e-01  -7.4854477e-01   5.2691996e-01  -4.8267942e-01   2.2600087e-01  -7.1209857e-01   9.9740750e-01   7.5993440e-01  -9.5440296e-01   2.7364590e-01  -2.2744011e-01  -3.6906193e-01  -9.5490076e-01  -9.2142800e-01   8.5708042e-02  -8.7185473e-01  -7.7822944e-01  -7.7385103e-01  -3.4954161e-01  -7.1451119e-01   4.6645218e-01  -6.1680496e-01  -3.9135428e-02  -3.5207727e-01  -3.7586494e-01   3.5259525e-01   8.7266429e-01  -6.4218597e-01   5.1853485e-01  -6.3900585e-01   2.3983236e-01   1.9826506e-01   7.9510213e-01   2.7286563e-01  -6.6096514e-01  -1.8758782e-01   5.9993883e-01  -9.8156525e-01   5.5435281e-02  -9.8016628e-02  -3.6226211e-01  -5.9092748e-01   4.6823015e-01   8.9442140e-01  -5.9296281e-01   3.0956688e-02  -8.2306659e-01   6.3769365e-01  -8.3995156e-01  -5.4348313e-01  -4.5600382e-01  -2.2655332e-02   1.0032603e-01  -3.9961136e-01  -6.8867850e-01  -8.5142784e-01   4.1557873e-01   3.9126522e-01  -4.7515184e-01   6.6058932e-01   7.3222487e-01   1.8633678e-01   1.7429037e-01  -7.1820725e-01   1.3998158e-01   2.8312511e-01  -6.0169452e-01  -5.1422682e-01  -6.1089069e-01   8.4361961e-01  -9.9582591e-01   7.2338215e-01  -6.7229379e-01   7.4747364e-02  -6.1607027e-01   8.8246960e-01  -7.2212686e-02   4.9233423e-01   7.1497997e-01   7.6932769e-01  -2.5210974e-01   3.1959920e-01   8.8691354e-01  -8.0465866e-02  -4.6475292e-01  -1.6072934e-01   6.1015844e-01  -6.7003968e-01   8.9904937e-01  -8.9466349e-01  -6.7709650e-02   9.6830063e-01   9.1732289e-01  -8.8129024e-01   2.3876965e-01   6.8036480e-02   7.5247928e-01  -5.1845143e-01  -2.1028161e-02   2.2421998e-01   7.9995370e-01  -2.7986302e-01  -1.1017702e-01  -7.4110470e-01  -5.5609836e-01  -3.9742342e-01   8.5911794e-01  -4.4436607e-02   9.0062365e-02   2.5319300e-01  -8.4095189e-01  -1.7196123e-01   3.5549475e-01  -3.4176716e-01  -6.2448820e-01   7.7189762e-01  -2.4575450e-01   6.5897659e-01   1.7694042e-01   2.1137200e-01  -6.4690225e-01   8.7499880e-01   6.4771727e-01  -3.1667707e-02   9.4762780e-01  -3.6607260e-01   7.3917981e-01   3.7997263e-01   7.8474476e-01  -4.6006110e-01   9.4900289e-01  -8.0758199e-01  -8.1680006e-01   6.3380686e-01   8.5329144e-01  -9.0702827e-01  -9.5363950e-01   2.5043601e-01   2.8292559e-01   8.9690842e-01   5.1740940e-01   9.9957458e-01   6.3740299e-02  -3.9437309e-01   2.6729347e-02   8.1817574e-01   1.6827874e-01  -3.3357750e-01  -8.3358141e-01   3.8878498e-01   9.0838215e-01   1.6047312e-01  -5.5750927e-01   1.0049468e-01   9.0539154e-01   8.2072842e-01  -8.9564482e-01  -7.7027390e-01   2.6317038e-01   1.9442503e-01   7.9074177e-02  -9.1548131e-01   5.6693037e-01  -5.0214266e-01  -9.2529368e-01   3.1737236e-01  -6.1333693e-01   9.5158615e-01   6.1006612e-01   5.3226336e-01   3.4103021e-01  -6.9980153e-01  -8.8486702e-01  -8.9947766e-01   2.8745835e-01  -5.2308185e-01   8.9654209e-01   8.8893757e-01   6.0131860e-01   4.8461159e-01  -9.4177421e-01   2.8648117e-01  -6.6276091e-01  -3.6762304e-02  -7.0458395e-01   4.4362932e-01   9.1469798e-01  -3.3975898e-01  -5.3642539e-01  -1.6521701e-01   6.4261940e-01   3.3432007e-01  -8.3256493e-01  -9.0248560e-01   2.0597861e-02  -9.9786265e-01   7.7567395e-01   6.5059145e-01  -2.3959220e-01  -1.4764791e-01  -7.6421584e-01  -9.9411918e-01  -7.9203300e-02   9.8147576e-01  -3.3974643e-01  -9.1560613e-01  -2.6663668e-01   4.6360666e-01   9.5210874e-01   3.4250986e-01  -7.2265700e-01   3.9148872e-01   5.0332797e-02  -2.3226872e-01   1.6317757e-01  -3.2236449e-01   8.1114024e-01   3.1038436e-01  -1.3320931e-01   2.8106506e-01   8.8226656e-01  -1.7669649e-01   3.3326314e-01  -4.1482707e-01  -6.1624871e-01   5.1065500e-01   9.2994247e-01   8.3809967e-01  -1.5078047e-01   9.2413592e-01  -5.0336807e-02  -7.5074591e-01  -1.0231141e-01   6.4885571e-01  -3.1242402e-01  -1.3349470e-01   3.6636891e-01  -2.5186735e-01  -3.3782957e-01  -8.6059803e-02  -4.0497799e-01  -5.0229651e-02  -1.4903358e-02  -1.4300095e-01  -5.4878275e-01  -6.6581433e-01  -1.7766899e-01   4.8798967e-01  -7.3687099e-01   2.2724170e-01  -2.2934192e-02   5.8430549e-01  -9.6321585e-02  -2.3175537e-01  -1.3254452e-01   9.3323977e-01  -6.3493347e-01   6.8095042e-01  -9.6361711e-04  -3.5399677e-01   6.3028891e-01   9.1114564e-01  -9.2266504e-01  -1.3400963e-02   7.6317146e-01  -4.4809666e-01  -3.8536954e-01  -4.3355117e-01   6.4891970e-01  -8.4435511e-01   4.0679844e-01   4.1652805e-02   8.0234361e-01  -3.6873513e-01   2.3898075e-01  -9.2966138e-01  -8.0589982e-01   3.4775189e-01   2.0477772e-01   5.5541202e-01   8.6713609e-01   5.5445917e-02  -7.1397085e-01   4.7699108e-01  -6.7009447e-02  -9.8470771e-02   2.8254301e-02   4.9397595e-01  -3.8887370e-01  -3.9659169e-03   5.7449471e-01   4.0620199e-01  -3.7803908e-01   2.8439296e-02  -2.5078245e-02   9.1947083e-01  -1.8198091e-01   2.8744691e-01   2.3374523e-01   5.5930030e-01  -5.9458432e-01  -8.5293412e-01  -4.3267831e-01  -3.6763796e-01   8.3928141e-01  -6.7185932e-01  -1.3750567e-01   3.4345269e-01   4.0639074e-01  -6.5668315e-01   2.3531981e-01   4.5844549e-01  -7.4845330e-01   5.3149139e-01  -8.2754977e-02  -4.8638166e-02  -3.6260973e-01   5.9074485e-01   8.2089764e-01  -7.0197793e-02  -7.9531684e-01  -8.1268840e-01  -8.2958024e-01  -6.8248096e-02   7.0992647e-01   6.4262903e-01   1.4664874e-01   7.8601779e-01  -1.9270933e-01  -8.7878179e-02  -8.4723090e-01   6.5236604e-01   5.8212596e-01  -2.4524105e-01  -3.6503403e-01   4.4318798e-01   7.0653130e-01   7.5991451e-01   2.0226843e-02  -7.3712150e-01   3.2189723e-01  -9.5556164e-01   9.0636285e-01  -9.9209116e-01   5.6136512e-01  -2.9876316e-01  -3.9818027e-01   6.7193316e-01   4.0985510e-01  -4.6568461e-01  -6.5064709e-01   3.9321517e-01   3.3316395e-01  -6.2145045e-01  -4.9875957e-01  -1.0929034e-01  -2.8353044e-01  -6.5597103e-01   8.4342262e-02  -3.8481858e-01  -4.9255859e-01  -3.8374484e-01  -6.9129554e-01   6.9620291e-01  -4.3847420e-01  -7.7820118e-01  -7.7474007e-02  -3.6324230e-01   9.4721632e-01  -9.6703439e-01  -9.4668939e-01  -4.0888821e-01  -4.9904148e-01  -7.6710346e-01  -1.8066626e-01  -3.1090715e-01  -3.6934721e-01   2.2341070e-01   2.5264434e-01   5.7625088e-01   5.4157346e-01  -8.1935843e-01  -4.6688249e-01   1.2894876e-01  -4.7784340e-01   6.2417470e-01  -5.3110282e-01   6.8684038e-01   4.1579458e-01   3.0774183e-01  -9.9683643e-01   9.6899214e-02   6.3686711e-01  -8.4428779e-01  -1.1209775e-01  -9.5933571e-01  -2.6694339e-01  -8.9592236e-01  -7.9005862e-01  -1.6089684e-01  -3.4069222e-01   9.5828789e-01   4.2350735e-01  -9.0697515e-01   4.7293251e-01   5.3674368e-01   4.2382023e-01   8.2964888e-01   1.1380404e-01  -6.5425740e-01   2.4944188e-01   2.1480756e-01  -2.9048454e-01   5.3216321e-01  -6.1724350e-01  -2.8148346e-01  -2.6732893e-01   5.3269975e-01   2.3801972e-01  -8.9257140e-01  -5.5939208e-01   9.8978009e-01  -7.6973109e-01   6.5382943e-01   9.6550157e-01  -9.4807341e-01  -1.5473768e-01  -5.5540599e-01  -4.4756503e-01  -2.3942135e-01   3.2277181e-01   5.2310606e-01   9.4217690e-01  -1.0868096e-01  -1.6096033e-01  -5.1348323e-01   8.7122596e-01   8.1411744e-01   1.1011039e-01   4.0104417e-01   6.2915884e-01   9.0139945e-01  -6.8823550e-01   1.3702821e-01  -5.5622996e-01   6.8659630e-01   6.7159569e-02  -6.8194929e-01  -9.7695475e-01  -2.9998823e-01   6.1748020e-01  -5.7551033e-02  -4.7188584e-01  -9.0903351e-01   2.2563556e-01  -8.6602004e-02   4.4941665e-01   5.3903609e-01   2.8409877e-01   7.3857882e-01   4.9340888e-01  -6.7642041e-01  -7.5757227e-01  -9.7248072e-01  -1.2317823e-01  -7.8454615e-02  -2.0157569e-01  -3.5235127e-01   3.7959297e-02  -2.8063753e-01   4.4331986e-02  -4.3558191e-01   5.3037051e-01  -2.2737178e-01  -2.5544655e-04   3.2640829e-01  -6.3203575e-01  -1.1659308e-02   7.6265229e-01   9.5851372e-01   4.4973295e-02  -6.5450664e-01  -6.3602368e-01  -9.2794489e-01  -8.9319522e-01  -5.1241742e-01   6.8255023e-02   9.0192486e-02  -5.4606095e-01   3.3394552e-01  -8.8772021e-02  -8.7501389e-01   7.7611388e-01  -2.6304032e-01   7.7071657e-01  -6.8403508e-01   7.0382205e-01  -8.7073936e-01   1.0246146e-01  -3.4273100e-01  -9.4535815e-01  -7.5952277e-02  -4.4257619e-01  -4.7094761e-01  -7.3310231e-01   3.4608565e-01   4.0334405e-01   2.8188114e-01  -3.6916121e-01  -2.3710674e-01   5.2037246e-02   8.7142346e-01  -8.2536544e-01  -2.3242992e-02  -5.1438243e-01   3.1173897e-01   1.5582789e-01   5.2174007e-01   6.5562298e-01  -7.4090341e-01  -4.8165750e-01   3.3445683e-01   5.4621429e-01   1.9644822e-01   3.9110483e-01   8.1658596e-01   7.3127951e-01  -1.2448785e-02   3.8629750e-01   7.0610891e-01   4.0974033e-01   8.4024091e-01  -2.8839847e-01   6.0279030e-01   7.1911518e-01   9.8271103e-01   4.7361379e-01  -5.7050056e-01  -2.2281622e-01  -1.9495539e-01  -2.2261699e-02   9.0170076e-01  -3.8779321e-01  -9.3261334e-01   9.8201884e-01   1.0896906e-01   2.8243147e-01   1.7027618e-01  -6.5023339e-01   2.4609122e-01  -3.7940256e-01   2.5868666e-01  -9.6038360e-01  -5.8746538e-01   2.5680631e-01   7.8869368e-01   7.0742220e-01  -3.6656355e-01   4.6636451e-01  -7.0475997e-01  -3.0408834e-01   8.8563250e-01   6.7656576e-01  -5.0585771e-02   6.9944244e-01   7.2436247e-01  -1.4029144e-01  -6.8284984e-03  -4.7984398e-01   8.8081524e-01   7.2858986e-01  -1.8216163e-01   2.8661410e-01  -6.9973472e-01   9.1914304e-01   9.0861336e-01   4.7994424e-01   2.3892313e-01   8.2858335e-01  -9.9946889e-01   9.6169258e-01   8.7230332e-01  -8.2353893e-01  -9.3914558e-01  -2.6783769e-01   1.4156106e-01  -9.9093694e-01  -6.5637789e-01  -2.6556305e-01   9.5102524e-01   3.7610191e-01   6.9575452e-01  -5.1656325e-01  -6.5129133e-01  -1.0288231e-01   9.7213763e-01  -7.3871099e-01  -1.6795318e-01  -4.0614953e-01   9.9397138e-01   4.1055660e-02   1.5048223e-01  -3.7905199e-01   2.6237626e-01   6.8990957e-01  -3.6726968e-01   7.2136434e-01   9.8944233e-01  -1.9390460e-01   9.0968645e-01   4.2719980e-02   3.3378539e-01  -3.6641602e-01   7.4421355e-01  -2.3565206e-01   9.6025261e-02  -3.8449537e-01   3.0583579e-01   5.8987852e-01  -7.2931565e-01  -3.8857186e-01  -3.3592002e-01  -2.8701428e-02   5.3967702e-01   7.6260298e-01   3.0218255e-01   8.0660750e-01   2.8031833e-01  -3.5610311e-01  -6.7911254e-01  -6.4402495e-01  -1.5700540e-01   5.8483749e-01  -3.0634595e-03  -6.5252840e-01   5.8179772e-01  -9.1065376e-02  -7.4458016e-01   6.7590394e-01   8.6467820e-02  -8.1201584e-01   2.8483630e-01  -5.3206236e-01  -4.5000119e-01   8.4189287e-01  -2.3346217e-01   3.7404738e-01  -5.0641239e-01   7.1780095e-01   9.9067074e-01  -8.0302591e-01  -1.6532427e-01   1.7373283e-01  -1.0315290e-01   9.9809664e-01  -9.4818689e-01  -6.3965676e-01   1.4055841e-01   8.5414697e-01   3.2980837e-01  -8.4491187e-01  -6.4919964e-01   1.0238775e-01   4.6311244e-01  -1.1231340e-01   5.7859552e-01  -5.0025720e-01  -8.3641622e-01  -1.9973225e-01  -3.2510915e-01   9.7706175e-01  -2.5441248e-01  -6.8141783e-01   9.9700378e-01  -2.0819484e-01  -7.1366629e-02   5.9943587e-02   7.5237638e-01   8.2737149e-01  -4.7546275e-01   8.8801578e-01   7.1899343e-01   9.3005616e-01  -6.8019310e-01  -5.7354211e-01   1.5093520e-01   4.4994088e-01  -4.5438029e-01  -6.6933147e-01  -2.2914411e-01  -3.1672130e-01  -6.3522642e-01  -3.5223242e-01   5.8433142e-01  -5.1694314e-01  -2.7083896e-01  -9.3699350e-01   5.0165627e-01  -6.9061603e-01   8.5978858e-01  -7.0586094e-02  -2.4491917e-02   6.0305516e-01   4.4133483e-01   5.2272552e-01  -8.3553359e-01  -6.1451193e-01  -5.1860420e-01  -4.8736121e-01  -1.2935054e-01   4.1572281e-01  -6.4580359e-01  -9.9432640e-01  -7.3286702e-01   4.5311587e-01   6.6272393e-01  -9.6260091e-01  -6.2511204e-01  -5.7863306e-01  -5.7613928e-01  -1.0972973e-01   9.6323095e-01  -6.5832963e-01   9.3864421e-01  -5.0509460e-01   2.9032109e-02  -8.5006038e-01   5.9079302e-01  -5.5973316e-01  -3.7480459e-02   7.8754163e-01  -3.8422593e-02   3.8794606e-01   7.2359186e-01  -8.1891624e-01   6.6707172e-01  -1.0123280e-01   4.0382680e-01  -2.4596907e-01   8.0901468e-01   5.7728282e-01  -9.9523915e-01  -9.9983543e-01  -7.7071206e-01   3.1980222e-01  -5.7013397e-01   8.4874447e-01  -5.0824896e-03  -6.6455392e-01  -7.1663931e-01  -9.5952138e-01   2.3971678e-01  -2.7804068e-01   3.9534587e-01   9.3880892e-01   6.7045256e-01   8.7022305e-01   5.5784432e-01   6.0373944e-01  -5.7690233e-01  -1.7011774e-02   5.8576531e-01   8.3496733e-02   3.4361807e-01   7.9235497e-01  -1.6087463e-01   4.4711414e-01  -6.4233626e-01  -3.2247378e-01   6.6243653e-01  -3.9018363e-01  -2.4095496e-01   9.6043768e-01   3.5277050e-01  -8.3961706e-01   8.9598663e-01  -4.1167850e-02   2.8352931e-01  -9.5962827e-01   7.1395087e-01   4.6774766e-01   5.9011429e-02   5.4391080e-01  -9.2834055e-01  -8.5983216e-02   1.4178035e-01  -8.8888026e-02   9.5892883e-01  -7.7870964e-01  -1.8920817e-01   7.5224739e-01   5.9133667e-02  -1.3127707e-01  -7.5980127e-01  -1.9996611e-01   6.0975405e-01   7.1040947e-01   9.3203399e-01   3.5831098e-01  -4.7009991e-01   7.1721766e-01   8.2513929e-01   4.6405812e-01  -8.3344061e-01  -1.0100614e-01  -1.2522111e-01  -6.6620203e-01   8.2145578e-01  -8.5057300e-01   9.6441115e-01  -6.7233341e-01   8.9518306e-01   6.3801565e-01   6.6130248e-01  -1.6863209e-01   7.3083731e-01  -4.9590109e-01  -9.4542280e-02  -7.8988289e-01  -6.8212095e-01  -4.5640314e-01  -1.7813851e-01  -5.5951748e-02   9.9045648e-02   9.9623981e-01   7.6704685e-01  -5.0479175e-01   4.1321706e-01   4.0931141e-01  -7.2242073e-02   2.4490734e-01   7.7288312e-01  -4.8923239e-01   5.0440283e-01   4.0255255e-01  -6.1422932e-01  -5.0599269e-01   2.0827046e-01   3.9368050e-01   7.4764798e-01   2.0784851e-01  -3.1101793e-01   6.7137547e-01  -6.6807424e-01   1.6012290e-01  -2.6121373e-01   6.2474884e-01  -7.0665870e-01   4.7740557e-01  -4.0711181e-01   8.2307786e-01   2.4504770e-01   3.5568794e-01  -7.0086103e-01  -2.0003818e-01   2.2563397e-01  -7.9629644e-01   3.6770507e-01  -8.8231587e-01  -3.3009972e-01   4.2017875e-02   3.9009286e-01  -1.7662609e-01  -2.7213086e-01  -1.9003724e-01  -5.0468232e-01  -7.7036704e-01  -7.6865101e-01  -4.6939819e-01   7.1644624e-01  -5.0472097e-01  -6.0833360e-01   3.6534893e-01  -7.1928688e-01  -3.3137340e-01   9.2874510e-01   2.4777716e-01   1.8159936e-01   3.5473636e-01   5.2468372e-01  -7.8730144e-01   6.7893092e-02  -5.8076335e-01   3.0867075e-01   1.3324831e-01  -4.8602866e-01  -4.6886811e-01   1.5756731e-01  -1.0660793e-01   6.5529055e-01  -6.7841364e-01  -9.2073056e-01   2.0060662e-01  -2.3263872e-01  -1.5888979e-01   5.8603865e-01   5.6003514e-01  -7.7641885e-01  -5.6409131e-02  -1.6486835e-01   1.1635919e-01   4.2936418e-01  -9.0879483e-01   6.5096086e-01  -8.1847122e-02   5.6923462e-01  -5.6769337e-01  -2.9992753e-02   5.8454121e-01   8.0985650e-01   2.6283186e-01   1.4645428e-01  -1.5952666e-01  -5.6727255e-01   3.4254351e-01   4.2588471e-01  -8.6968616e-01   2.6491111e-01   5.8709170e-01   9.5787963e-02  -2.5401555e-01  -2.2537645e-01   3.3381249e-01  -5.8428524e-01   8.1561566e-01   5.3319478e-02   1.7057076e-01   9.1999832e-01  -7.1432375e-01  -5.8813262e-01   7.2083138e-01  -8.0073098e-01   6.8989530e-01  -7.5557661e-01  -3.5857687e-01  -6.0030268e-01  -9.2719072e-01   1.9020004e-01   4.5537196e-01   9.0499257e-01  -6.3359471e-01  -5.1334377e-01  -7.8530374e-01   5.1280382e-01   7.3894708e-01   6.8473696e-01  -4.6589883e-01  -1.7379412e-01   9.0291151e-01  -6.4787968e-01   6.6297214e-02  -1.6149357e-02  -6.4488371e-01  -4.9037880e-01  -5.5967494e-01   9.6050390e-01   6.0158079e-01
