   5.4333960e-01   5.7311563e-01  -8.1579655e-01  -7.4029344e-01   3.0535301e-01  -7.3888095e-01   7.3549430e-01   5.7941510e-01   6.2287982e-01  -2.5383306e-01  -6.7280545e-01  -1.2328409e-01  -6.1870510e-01   3.4365158e-01  -5.0958605e-01  -5.2146972e-01   8.6147794e-01   4.6854851e-01  -2.1849600e-01   2.3159674e-01  -5.8474401e-01  -5.8721371e-01   4.1678521e-01  -1.8763803e-01   8.5730714e-01   6.3513739e-01  -5.5915156e-01   2.6911681e-01  -4.6971287e-01   7.4095432e-01   7.9069680e-01  -5.8780147e-01  -6.3743661e-01   5.0136600e-01  -6.2437018e-02  -8.4089187e-01   5.2934677e-01   4.2124365e-01   6.3351969e-01  -5.3250102e-01   4.9994914e-02   3.0725268e-01   5.7366220e-01   9.1627520e-01   8.9007083e-01   9.7965696e-01   4.5341553e-01   8.2842451e-01   7.4768723e-01  -8.4297605e-01   6.2233454e-01   1.9283245e-01   6.3202729e-01   9.3992475e-01   4.5365553e-01   4.0652553e-01   7.5886593e-02   8.4081237e-01  -5.2346157e-01  -8.1262586e-01   7.0333479e-01   4.7932633e-01  -6.9609875e-01   2.7680446e-01   1.9424193e-01  -6.9434457e-01   3.1025235e-01  -3.7683367e-01  -2.7568953e-01   2.9307379e-01  -5.3735414e-01   8.0285103e-01   3.6409288e-01   8.4185341e-01   2.3152323e-01   6.0682695e-01  -9.2966859e-01  -7.8189068e-01  -6.2825122e-01   5.2903976e-01  -7.3134135e-01  -9.6857885e-01  -9.1848050e-01  -1.3511411e-01   9.0432813e-02  -6.2231217e-01  -7.8849901e-01   3.9271380e-01   9.4727050e-01  -4.4000132e-02  -5.3857693e-01  -2.3533357e-01  -8.6846172e-01   7.9806925e-01  -3.4079878e-01   7.3622944e-01   2.0803497e-01   7.9633896e-01   6.1837949e-01   1.5556673e-01   5.5018637e-01  -1.4086339e-01   2.2855852e-01  -7.6621159e-01   5.1541252e-01   6.3229979e-01   3.7404660e-01   5.2605211e-01  -2.0564577e-01   7.1258537e-01  -4.1659543e-01  -7.0150618e-01   4.2721494e-01  -7.7308652e-01  -5.8122308e-01  -5.9549782e-03  -2.2725097e-01  -2.3533821e-01  -8.5046460e-01   7.6927177e-01   4.1987791e-01  -1.8991298e-01   5.2998838e-01  -8.4846324e-01  -4.9334806e-01   1.5360267e-01  -9.9367262e-02  -7.4668306e-01  -5.8395780e-01   8.4204550e-01   3.5662933e-01   7.2582289e-01  -8.5590230e-01   2.5595621e-01   7.4915223e-01  -1.7184834e-01   7.5244797e-01  -1.2159924e-02  -7.7250226e-01   6.9256177e-01  -1.7229722e-01   6.5760536e-01   3.5325012e-01  -2.6582171e-01   5.8043717e-01  -4.3039818e-02  -1.4417623e-01  -4.3951447e-01   9.4124337e-01  -2.4994266e-01   6.5848656e-01   1.4115105e-01  -6.4559731e-02  -7.9688900e-01  -5.5131322e-01  -9.7736695e-02  -8.2599977e-01   6.7768673e-01  -7.5238973e-01  -4.1679276e-01   6.5744162e-01  -8.4334308e-02  -2.0718657e-01  -2.2869967e-02   3.4911416e-01   2.1126641e-01   5.2000160e-02  -9.9092090e-01  -2.9997996e-01   4.7500051e-01   1.2880084e-01  -2.6316181e-01  -8.5090396e-01   5.6858793e-01   3.6574685e-01   6.8209772e-01   5.4482543e-01   4.0878472e-01  -2.6551002e-02  -2.4779246e-01   1.8756795e-01  -4.0917436e-01   7.0657779e-01   2.0719807e-01  -2.0611734e-01  -2.0843721e-01   4.1057806e-01  -9.0669395e-01   7.7366792e-01  -4.1722830e-01  -4.0915666e-01  -1.6645096e-01  -7.0105243e-01   6.8114439e-01  -5.7768689e-01  -9.3997661e-01  -7.0306649e-01   5.3564848e-01   6.8236951e-02   2.1965322e-01   9.4941274e-01  -4.2987727e-01  -6.1631079e-01   9.6629525e-01  -3.3394982e-01   7.1471669e-01  -3.7944527e-01   4.7115947e-01   3.9748417e-01  -8.0803796e-01  -3.7375683e-01   2.9090674e-02  -4.6726756e-01  -3.6313940e-01   7.5458993e-01   9.7150165e-01  -9.4795292e-02  -9.1750342e-01  -6.2299993e-01   9.0034223e-01   5.2789748e-01   5.8822467e-01   1.4784594e-01   9.1084003e-01  -5.0109775e-02   1.4979471e-01   3.3658740e-01   6.7271418e-01   5.6888604e-01   3.3042145e-01  -5.3737750e-02  -5.8034032e-01  -3.4826231e-01  -8.6805667e-01  -7.4065038e-01   4.2835115e-01  -2.1696567e-01  -2.4908105e-01  -4.1043168e-01   5.6217131e-01   6.6371879e-01   6.1471389e-02  -4.6472747e-01   7.9800122e-01   1.4379751e-01  -8.1968598e-01   7.7763443e-01   3.8674567e-01  -7.2462216e-01   5.6255230e-01  -7.5645966e-01   8.3888907e-01   8.4499773e-01   1.5660831e-01  -3.5344193e-01   8.5961851e-02   7.2596030e-01   2.4086866e-01   4.7814149e-01  -6.1771218e-01   3.0468551e-01  -7.7849107e-01   6.5702234e-01   1.3649167e-01  -4.1252124e-01   6.4377438e-02   1.8321902e-01  -9.1552377e-01  -2.3569581e-01  -6.8921038e-01  -4.2949432e-01   9.3016149e-01   7.3426191e-01   8.4750107e-01  -7.7109950e-01   2.3693308e-01  -5.9570448e-01  -4.3943274e-01  -3.1540782e-01   6.1545383e-01  -2.9418000e-01  -9.3852612e-01  -1.6247943e-01   1.1202698e-01  -6.4158713e-01  -5.5961162e-01   1.8556278e-01   7.5519884e-01  -2.5625245e-01  -9.2772130e-01  -8.9221538e-01  -5.6979433e-01  -1.8508632e-01  -6.5447224e-01   2.3779209e-01  -8.9731490e-01  -6.9623657e-01   8.4029066e-01  -5.3959359e-01  -7.0277010e-01  -4.9046888e-01  -8.6476791e-01   6.8987779e-01   5.5783413e-01  -5.4710989e-01  -6.5965092e-01   3.9596776e-01  -1.9401984e-01  -9.5012436e-02  -6.3122566e-01   5.8640580e-02   1.9839480e-01  -9.2172651e-01  -1.1681376e-02  -5.5055086e-02  -3.5390124e-01   4.0073869e-01   6.3292404e-01   5.5821599e-01   6.4516083e-01  -4.9474268e-01   5.0941878e-01   3.5857326e-01   4.3686779e-01   7.6760434e-01   2.4620636e-01   6.2260577e-01   3.6879482e-01   2.6323852e-01   4.6935328e-01   9.0713243e-01   6.8630885e-01  -6.1731518e-01  -8.2645623e-01  -8.2378288e-01   1.3676134e-01  -6.5533882e-01   5.0769883e-01  -3.7294266e-01   7.9122161e-01   4.0028501e-01   2.6458868e-01  -9.1478379e-01  -1.3763841e-01  -2.9056768e-01  -6.6961265e-01   3.7908653e-01   1.4995733e-02  -7.8292535e-01   3.9573244e-02  -3.2110483e-01  -1.4939101e-02   4.9955998e-01   6.6228076e-01   9.0975107e-01  -4.8041373e-02  -1.7879127e-01   9.5359455e-01   2.0412583e-01  -5.3612023e-01   6.8133724e-01  -1.0506300e-01  -5.2545393e-01   2.1912892e-01   9.5938861e-01   9.9677202e-01  -6.7732024e-01   4.1765836e-01  -4.9417839e-01  -6.0584362e-01  -2.6149355e-01   2.8983482e-01   2.2551633e-01   6.8829589e-01  -1.3068458e-01  -5.0991051e-01   1.1798085e-01  -4.9209451e-01  -5.0650563e-01  -5.4191611e-01   9.5566628e-01   5.5255831e-01  -2.3487753e-01  -3.9418677e-01  -3.6697137e-01  -2.8801637e-01   1.5167161e-01  -7.3158924e-01   6.3606450e-01  -8.6475063e-01  -5.3999738e-01   8.0521179e-02  -4.6423846e-01  -7.9899546e-01   1.2688091e-01   7.5873844e-01  -3.2832311e-01   5.4159363e-01   3.6697270e-01  -7.0212662e-01  -2.1894723e-01   9.1060954e-01  -2.0323529e-01   4.9689228e-03   9.2337005e-01   8.3699340e-01  -8.8872206e-01   1.5127225e-01  -8.9656025e-01  -9.3322352e-01   4.9063591e-01   1.7387115e-01  -5.5860147e-01  -8.5148700e-01   2.6587707e-01  -8.3480622e-01  -8.7867128e-01  -4.3207354e-01   4.4247839e-01   4.5251553e-01   4.9042054e-01   1.8334679e-01  -5.4799927e-01   1.6564826e-01  -8.5486577e-01   7.4955421e-01   8.0154111e-01   9.9763634e-01  -5.3086507e-01  -5.8322665e-01   5.7856770e-01   2.9407164e-02  -9.2403690e-02  -3.7257905e-01  -3.8515586e-01  -6.0513080e-01  -6.1267256e-01  -6.3283373e-01  -2.3619491e-01  -7.7450277e-01   9.1651844e-02  -7.7126292e-01  -7.7139291e-01   6.9178964e-01  -9.0242198e-01   7.0169577e-01  -9.5667439e-02   8.0104085e-01   3.4668527e-01  -2.9403413e-01   6.9634035e-01   3.9251069e-01  -3.7160044e-01   1.7036751e-02   2.0664017e-01  -7.9247904e-01   1.6497875e-01  -4.4132769e-01   7.9013530e-02   9.5378947e-01  -8.8315371e-01  -4.7426978e-01   2.8186683e-01   8.3298330e-01   9.9537174e-01   3.5795569e-01  -2.8338714e-01   6.7844748e-01  -9.3727376e-01   8.6110769e-01  -3.7293002e-01   6.0485648e-02   1.8701034e-03  -5.1158708e-01   4.2410651e-01  -5.7552380e-01  -4.0750144e-01  -8.6441033e-01   9.9978360e-02  -1.7728560e-01  -9.0443935e-01   2.4651232e-01   6.9957822e-01  -8.5827363e-01   7.5435830e-01  -5.2394216e-01   3.8197279e-01  -3.7758338e-01   5.8276240e-01  -7.3587056e-01  -2.3153734e-02  -5.4001140e-01   4.2399583e-04   4.0564079e-03   7.9352601e-01   4.7406249e-01   7.4367240e-01  -6.9757335e-01   3.8813051e-01  -2.7771583e-01   6.3019943e-01   7.7182942e-01   9.5670487e-01   8.3102431e-01   6.4105630e-01   9.7750299e-01  -6.2047514e-01  -3.6407690e-01   3.6545241e-01   7.9686313e-01   5.4130033e-01  -2.2521198e-01   7.2777102e-01  -1.7327125e-01  -3.4807517e-01   4.6409497e-01  -7.4036155e-01   1.0776031e-01   9.7091987e-01   8.4523356e-01  -8.4113328e-01  -7.5972376e-01  -5.9318664e-01   6.1551337e-01   7.3719115e-01  -1.6134290e-01   6.2240679e-01  -6.7276921e-02  -2.8590682e-01   8.5199047e-02  -1.4421529e-01  -8.1157301e-01   5.9717103e-01   6.6177434e-01  -2.5986191e-01  -5.2802537e-01  -7.6056729e-01   2.8715694e-01  -9.1416361e-01  -3.4345281e-01   5.2117626e-01   6.0384175e-01  -2.1605372e-01  -6.9310277e-01   6.3888156e-01  -5.9622028e-01  -1.9879598e-01   6.7834916e-01   1.8582268e-01  -7.0501295e-01  -1.4832407e-01   1.0583462e-01  -3.7143729e-01   1.2250399e-01  -3.6699090e-01   5.4063094e-01  -4.4893958e-01   5.8921481e-01   5.9625251e-02   2.5553186e-01   7.4426529e-01   3.7698562e-01  -1.8701794e-01   8.0176483e-01  -7.4274492e-01  -2.5969313e-01   4.3514333e-01   4.6884880e-01  -2.8960019e-02   1.5298460e-01   1.5119617e-01  -1.2860665e-01  -5.0734185e-01   1.0718642e-01  -9.3931676e-01  -1.8070620e-01  -7.1183104e-01   9.3772560e-01  -9.4948468e-01  -3.2408720e-01  -7.2321381e-02   9.5370179e-01  -4.8017978e-01   5.8931436e-01  -7.9854793e-01   2.7132093e-01  -4.4948634e-01  -3.4910024e-01  -6.9803452e-01   1.5790052e-01  -4.4171868e-01   6.0998835e-01  -8.7297463e-01   9.6088514e-01  -6.0879861e-01   2.9602413e-01  -3.7039802e-02  -6.4185711e-01  -1.4547923e-01   3.0696327e-01   6.6312189e-01   4.8779336e-01   9.4083217e-02   2.6152970e-01   6.2835529e-02   6.3013898e-01  -4.5718536e-01  -6.3560762e-01   2.7427519e-01  -2.2244970e-01   4.7033320e-01   9.9076091e-02   8.8708479e-01  -8.2656351e-01  -8.2590175e-01   4.0325374e-01   6.5891289e-01  -5.6154810e-01   3.0327955e-01   8.9711118e-02  -5.1518593e-01   2.0128022e-01  -6.2922708e-01   3.5398519e-01   9.2823897e-01  -9.0634392e-01  -4.5619356e-01  -4.2330551e-01   4.9251013e-01  -6.2666938e-01  -9.9771464e-01  -6.8641080e-01  -3.3794664e-01  -5.0168658e-01  -6.4231103e-02   4.0393589e-01   4.6252823e-01  -7.5434313e-01  -6.7535365e-02   1.1346870e-01   3.5463158e-01   7.2390277e-01  -4.4328561e-01   3.6880847e-01   8.6942788e-01   1.5273829e-01  -2.7836768e-01   2.4691888e-01  -6.9942468e-01   7.7114696e-01  -9.0669717e-01   2.3772355e-01   3.8091600e-01   9.2692870e-01  -1.5209137e-01  -4.7851502e-01   1.9842077e-01   3.3689263e-01  -1.6321549e-01   6.6071393e-02  -3.4689790e-01   5.3880676e-02  -9.2547400e-01   2.7894889e-02  -6.6391549e-01  -7.8844468e-01  -6.9767072e-01  -9.0810708e-01   2.4856429e-01   4.8684674e-01   4.9607674e-01   7.9425197e-01  -1.6315995e-01   1.6026181e-01   3.0878077e-01   3.7670012e-01   8.5090360e-01   2.2134964e-01  -7.5924196e-01  -5.4731701e-01   9.8369444e-01  -4.5813719e-01  -8.9786736e-01  -5.4747735e-01   4.1494166e-01   2.7623316e-01   5.6681847e-01   4.2222076e-01  -6.8874815e-01  -5.7016488e-01   8.5147268e-01  -7.3060882e-01  -1.6284694e-01  -7.7523757e-01   8.2406576e-01  -3.1066753e-01  -8.4248164e-02   2.8265639e-01  -8.7771614e-01  -5.3286499e-01  -6.6486345e-01   4.9035190e-01   1.9276417e-01  -8.0913869e-01   6.8797200e-02   2.4657807e-01  -1.0234945e-02   3.9243514e-02   8.5314719e-01   4.4565622e-01  -9.9734385e-01  -9.8927372e-01   2.9141255e-01   4.3242170e-01   6.4892158e-01  -5.3138633e-01  -4.8671789e-01   6.8550419e-01   9.4634744e-01   3.4448381e-01  -2.5832750e-01  -2.1296779e-01  -4.4454825e-01  -8.2809652e-01  -3.5411079e-01   6.4249094e-02   4.3383087e-01   1.9015231e-01  -5.0228944e-01   7.3933924e-01  -3.4429809e-02  -8.4203790e-01  -3.1492331e-02  -7.8768718e-01   9.8933019e-01   6.0427432e-01   4.6900646e-01  -7.5452456e-01   3.5593668e-01   3.0612278e-01  -3.6457280e-01   4.0605194e-01   9.0824678e-01  -4.0858485e-01  -5.8781984e-01  -4.7657543e-01   6.1895659e-01   1.0980633e-01   6.1647546e-01  -8.7992749e-01  -9.6579881e-01   8.9633885e-01   9.7081718e-01  -5.5707053e-01   4.5602366e-01  -7.1982483e-01   2.5238924e-01  -2.8310874e-01   4.7196736e-01   8.3739571e-01   6.9233330e-01  -1.2905911e-01   4.8637966e-01   2.5589142e-01  -4.4304018e-01  -2.3659604e-01   7.8944280e-01  -5.6214186e-01   6.9610676e-01  -1.7110679e-01  -2.9316226e-02   3.9432390e-01   9.2914309e-02   3.5024935e-01  -6.1664568e-01  -3.5271222e-01   5.0722160e-01   2.6688785e-01   8.1188763e-01  -8.9505482e-01  -4.1466514e-01  -5.4984991e-01   6.0570023e-01  -5.2849933e-01  -2.7977785e-01  -7.5263969e-01   3.7532454e-01  -7.3036905e-01   2.1253599e-01  -5.2978782e-01  -2.2250747e-01  -5.1867804e-01  -6.9496757e-01   3.6438427e-01  -9.5534578e-01  -6.9085301e-01  -3.1880851e-01   5.5608592e-01   4.9910994e-01  -6.0964051e-01   4.0111033e-01  -9.2158256e-01   8.0551073e-01   5.2853448e-01  -7.1416266e-01  -1.8645924e-01   9.7247142e-01  -7.6985686e-01   1.1473288e-01   7.5494247e-03  -2.0161309e-01  -6.1903144e-01  -7.6354905e-01  -3.1882899e-01  -2.6605114e-01   9.0580317e-01  -5.6026843e-01  -3.0965067e-01  -7.5690913e-01   4.5052593e-01   1.9996882e-01  -6.9579115e-01   1.0023142e-01   2.1759650e-01  -3.8221417e-01   9.7463174e-02   3.6758976e-01   2.8728469e-01   3.9181111e-02  -1.2776915e-01   9.6935987e-01   3.4742130e-01  -7.9434023e-01  -3.2043328e-01   8.7864218e-01   6.7726164e-01  -8.8391283e-01  -2.8020452e-02   2.1145865e-01  -4.8573412e-01  -7.2561648e-01   9.5743593e-01  -9.6573804e-01  -6.3845883e-01  -5.3133845e-01   4.9934959e-01   3.2429438e-01  -4.5144371e-02   7.9178207e-01   8.2351687e-01  -4.9831776e-01  -5.1640502e-01  -2.5217254e-02   8.5209947e-01   6.2318457e-01   8.6725751e-01   8.8846089e-01   1.2055391e-01   2.5689260e-01  -9.9291505e-01   8.2780727e-01  -8.7834997e-01  -4.2529815e-01   3.0968692e-01   3.9578477e-01   2.9885514e-02   8.7532356e-01   8.2913139e-01   9.0277327e-02   8.5861615e-01   2.4755524e-01   1.6325599e-01   4.5106579e-01  -8.0871200e-01  -3.5291777e-01   8.3556501e-01   7.6421395e-01  -3.6977780e-01   2.6265218e-01  -8.2665202e-02  -6.1320878e-01   2.3044168e-01  -6.5719057e-01   9.9570580e-02  -3.7724401e-01  -5.3562876e-01   9.5176398e-01   4.3645548e-01   2.0271200e-01   3.1220335e-01   3.5464760e-01   2.0099123e-01   8.0627416e-01  -6.9157417e-01  -7.4960824e-01   1.5055688e-01  -3.6720574e-01   2.2239763e-01   8.2683287e-01  -2.8182453e-01   5.4749857e-02  -1.4681829e-02   6.3943403e-01   1.7461257e-01   3.8093399e-02   7.0058141e-01  -7.9815694e-01   1.2728519e-01   4.8607646e-01   4.2896988e-01   4.9608411e-01  -1.1558827e-01   1.3144949e-01   4.8966671e-01   1.8862547e-01  -2.5609491e-01  -2.6743883e-01  -5.1688366e-01  -8.8760292e-01  -4.3479478e-01  -5.5498600e-01  -6.3656106e-01   9.2741464e-01  -9.0820166e-01   2.6394711e-01  -7.1493240e-01   9.8371801e-01  -2.2157269e-01  -7.1226619e-02  -5.9631953e-01   7.6079696e-01  -6.5932891e-01  -1.7019287e-01   3.6598997e-01  -1.1007503e-01   1.1969795e-01   6.5575548e-01   8.3268310e-01  -7.5865399e-01  -8.7657385e-01   6.3646421e-01  -4.2114663e-01   6.2697747e-01  -4.7196553e-01   4.1559276e-01   1.2370532e-01   3.1765197e-01   6.3481364e-01  -9.3728446e-01   8.4772820e-01   7.3052697e-01  -6.6876828e-01   3.9993097e-01  -6.8356909e-01  -6.1853522e-02  -1.1043459e-01   7.0121017e-01  -3.1928083e-01  -1.2660171e-01   6.2751825e-01   8.7966576e-02  -2.0244889e-01   2.4123069e-01  -6.2938108e-01  -2.1866879e-01   1.6482078e-01   8.9913892e-01   5.3581814e-01   9.8598727e-01  -2.7588871e-01   9.7839506e-01   4.4610262e-01   2.6544451e-01  -4.1724797e-01   1.7230972e-01   2.4091568e-01  -2.9422111e-01  -7.7219304e-01  -9.8606401e-01  -9.6672697e-01   9.4251276e-01  -4.7623634e-01  -9.1326595e-01  -7.5784485e-01  -5.5592104e-01   9.0434495e-01  -8.6548635e-01  -2.4224065e-01   1.9347639e-01   6.8679374e-01   7.6931678e-01  -4.9484701e-01  -9.1407590e-01  -6.2507595e-01   6.6509477e-01   7.5689488e-01   5.1174463e-01  -7.2073720e-01   8.8852683e-03  -5.6642551e-01
