   4.9968318e-01   9.5989192e-01  -1.9123997e-01   4.2835596e-03  -5.5847742e-01   9.1990273e-01   7.9005245e-01   4.1688729e-01  -4.0795907e-01   3.8830399e-01   7.6076904e-01  -5.3683143e-01   9.1081826e-01   9.6995140e-01  -5.4652366e-01  -5.1375518e-01  -7.0868214e-01  -5.4584539e-01  -5.2563869e-01   3.9320658e-01  -5.5281512e-01  -5.6368753e-01   4.3715025e-02  -8.5777233e-01  -3.1844284e-01   3.3781416e-01  -5.3559303e-01   3.6240902e-01   5.5202127e-01  -1.8238612e-01   3.2570926e-01   7.2633877e-01   3.7325335e-01   1.4742597e-01  -9.4102288e-01  -9.8238570e-01  -9.1863182e-02  -7.4920473e-01  -5.7336273e-01   4.4192001e-01   9.7079369e-01  -5.3155475e-01   2.0436041e-01   5.6072412e-01   4.4617032e-01   5.7514561e-01   5.0341625e-01  -3.3818130e-01  -8.1084930e-01  -5.8170524e-01   6.8003167e-01  -7.0201583e-01   7.2430384e-02   9.2568646e-01  -2.0551303e-02   2.4228382e-01  -4.0409939e-01  -8.0301349e-01  -6.9938265e-01   4.7573913e-01   2.2721434e-01   9.5624278e-01   9.7124738e-01   1.9720558e-01   2.9610284e-02  -2.6383055e-01  -4.0061890e-01  -8.8395398e-01   1.2016016e-01   1.3390052e-01   1.1602083e-01   7.4045116e-01  -2.0074493e-01  -2.1141514e-01  -2.2641117e-01  -3.4308680e-01   1.5494983e-01   5.2269304e-01   5.7431673e-01   5.1065035e-01  -3.0489951e-01   9.7181605e-01  -4.9311169e-01   1.3582797e-01  -7.3248882e-01   1.1857572e-01  -5.4616699e-01   3.1580638e-01  -3.5094142e-03  -2.9165515e-01   3.3548411e-01  -3.4862912e-01  -4.6687743e-01  -2.9903446e-01   7.2898371e-01  -3.4149361e-01   2.5670507e-01   9.2629429e-01   3.0600645e-01  -9.4506623e-01   4.4845986e-01   1.2089597e-01   4.9820992e-01  -9.6553076e-01   9.7213985e-01  -9.6794164e-01   9.0586988e-01   4.7753494e-01  -9.3147549e-01  -8.6795649e-01  -7.0475319e-01   9.1529714e-01  -2.9201255e-01  -8.4630560e-02  -3.5021030e-01   9.8014322e-01  -7.3051442e-01   3.7352348e-02  -9.8850392e-01  -9.9680198e-01  -9.3904928e-01   1.3838529e-01   4.5621364e-01  -8.9950325e-01   9.2373957e-01   8.5999247e-01  -6.0913532e-01  -3.5626669e-01   3.6137692e-01   5.6944875e-01  -8.9597314e-01  -5.7585969e-01   3.2419025e-01   6.5237916e-01   2.7233250e-01   8.1267137e-01   4.1938737e-01   2.4675672e-01  -3.7055449e-01   6.8472465e-01  -6.4226383e-01  -3.9992494e-01   8.7483108e-01   7.6079235e-01   3.6567569e-01  -6.9500100e-01   8.5643178e-01   1.0593115e-01   8.3987038e-01  -4.0964465e-01  -5.3164656e-01  -9.5420602e-01   3.3169605e-01   5.2538779e-01  -7.5653005e-01   1.8060132e-01   8.5415395e-01  -4.6494015e-02   4.9751696e-01   7.4023057e-01   2.5220918e-02  -8.3584728e-01  -3.4669956e-01  -6.4560399e-01   8.0332610e-01  -2.0845687e-01  -5.3169188e-01  -1.5504703e-01   2.6507807e-01  -1.3391673e-01   8.7292543e-01   4.4704447e-01  -9.0009329e-01   4.3139596e-01   5.2475343e-01  -6.4691084e-01   5.0857219e-01  -3.2729894e-01  -1.0702849e-01  -5.9174686e-01   1.8895861e-01  -1.3820987e-01  -9.7137038e-01   5.5944798e-01  -1.5077891e-01  -2.3778150e-01   2.1678858e-01  -6.6559892e-01   8.1924505e-01  -9.4143167e-02   4.4740629e-01  -1.5460993e-01   1.0963098e-01  -6.6076565e-01   6.7289170e-01   5.7142855e-01   9.7569123e-01  -1.7029092e-01  -9.9994310e-01  -4.7040929e-01  -7.5030962e-01   8.7296023e-01   2.4653532e-01   3.1424425e-01   3.8326687e-01   6.0831790e-01  -5.6342621e-01  -3.8486167e-01   2.8136310e-01   2.7889369e-01   5.0955358e-02   3.4534656e-01  -8.6149688e-01  -6.2981701e-01   1.6355815e-02   6.7243839e-01  -1.8612558e-01   2.9125590e-01   6.6345568e-01   9.3102029e-01  -8.3447114e-02   5.6957640e-01   4.6315964e-01   2.9341686e-01   6.2003571e-02   9.4574122e-01   3.8815722e-01   7.3200620e-01  -3.0572247e-01   3.7581463e-01  -3.4761124e-01  -5.9310848e-01  -9.9039337e-01  -5.5410448e-01   9.2371417e-01   8.1843255e-01  -8.8037884e-02  -3.3736808e-01   2.4331364e-01  -9.0100224e-01   1.5015355e-01  -2.8586144e-01   9.0714554e-01  -4.2349700e-01   9.2476326e-01  -4.2705029e-01   6.6215098e-01  -9.8420691e-01  -3.8439817e-01  -1.7429467e-01  -7.5381992e-01   7.5928358e-01  -7.4935662e-01   8.4722981e-01   1.4190338e-01  -3.9413925e-01  -4.8098523e-01   7.0008656e-01  -3.9704514e-01  -4.3496224e-01   6.7686359e-02   9.4289605e-01   8.5695078e-01   4.5915818e-01  -5.9032447e-01   9.1475138e-01   8.9438046e-01  -4.5769882e-01  -7.9200694e-01  -2.3604337e-01  -9.3621694e-01   6.1301279e-02  -8.0035726e-01   9.0506188e-01  -3.8278908e-01  -5.6239444e-02   7.6114470e-01   9.9566970e-01   3.5185823e-01   1.2930183e-01   7.3084604e-01   1.0541357e-01   5.1842621e-01   2.9882166e-01   2.5028344e-01   2.9247561e-01   6.0930142e-02  -2.6525769e-01  -7.2022308e-01   7.1837441e-01  -7.5804121e-01   7.1780121e-01   4.2250987e-01  -5.5529765e-01  -3.4248160e-01   3.9266173e-01  -1.9439218e-01  -9.1118325e-01   1.9178070e-01   7.3092814e-01  -6.8964232e-01  -8.7438863e-01  -3.9412633e-01   8.1027130e-01   7.2613282e-02   2.7192200e-01  -5.0731202e-01   3.5148712e-01  -7.3185176e-01  -7.4575515e-01   3.6537836e-01   3.0271416e-03  -1.4284504e-02  -2.3449515e-01   7.4696081e-01   5.1285841e-01   1.5238343e-01   7.3529885e-01  -5.8420043e-01   8.8181128e-01  -3.0983764e-02  -9.3208310e-01   2.6273178e-01   7.9518420e-01  -4.3096487e-01   1.3187678e-01   7.9476229e-01  -4.7357582e-01   9.3300886e-01  -7.5409693e-01   2.2224525e-01  -9.8963745e-01  -1.0328111e-01  -1.7840556e-01   2.2763287e-01  -9.0731477e-01   7.6699377e-01   9.7280609e-01   9.2527003e-01   9.0376467e-01   7.7036142e-01   7.2735037e-01   4.6271343e-01   7.8512913e-01  -3.4288557e-01   5.1474898e-01  -4.7269480e-01  -7.0806666e-01  -2.8348205e-01   6.6968337e-02  -4.9305824e-01  -1.7543479e-02   8.2086042e-01  -8.5864277e-01   7.7022011e-01  -5.3628867e-01  -2.2773972e-01  -7.2153994e-01   3.2044985e-01   8.1814753e-01   3.0879042e-01  -3.3669622e-01   7.6714868e-01  -1.9559986e-01   9.1583436e-01   8.9605449e-01   8.6828761e-01   9.2203454e-01   2.7911129e-01   5.3334293e-01   3.2080579e-01   7.6320743e-01  -8.3871144e-01   1.2283779e-01  -4.2063285e-01   6.6004867e-01   2.0330128e-01  -8.9840846e-01   6.7625969e-01  -9.3060331e-01   8.3841091e-02   7.1937865e-01   4.4254260e-01   4.8462775e-01   2.3236539e-01   2.1029725e-01  -9.2797494e-01   8.5353982e-01   4.0695892e-01  -7.5129811e-01  -8.8251837e-01   4.7712155e-01   7.1362675e-01  -6.0246031e-01   6.5032020e-01   1.6973598e-01   2.7853809e-01  -5.5766642e-02   2.4639646e-01  -2.8241668e-01  -5.4040060e-01   4.0770590e-01   9.9485661e-01   3.5128921e-01  -5.7086657e-01   3.2007471e-01   6.2011207e-01   3.2655800e-01   6.1065465e-01  -7.4583641e-01   5.9624009e-01  -1.2200565e-01   8.6211004e-01   1.2254297e-01  -4.7140401e-01  -8.6388785e-02  -5.1105408e-01   8.2954929e-01   4.6049672e-01   3.8309387e-01  -1.7822019e-01  -5.9145208e-01  -8.5948998e-01   2.5788287e-02   7.1518655e-01   1.6326532e-01  -3.3647436e-01   9.1769800e-01   1.5047419e-01  -1.5716500e-01  -3.0449229e-01  -5.7938015e-01   7.8671802e-01   4.7795377e-01  -1.0199384e-01  -5.9881215e-01  -9.0812831e-01   6.7053814e-01   6.2014887e-01  -8.3227418e-01  -7.2177581e-01   4.4307445e-01  -3.3541086e-01   1.4257379e-02  -2.7365001e-02   5.1604672e-01  -9.7310161e-02   1.2631369e-01  -4.9458167e-01   1.7226880e-01   5.6311409e-01  -1.5806446e-01  -9.0057020e-01  -8.8753204e-01   2.0196897e-01   2.4306838e-01  -4.0757066e-02  -8.5189062e-01   4.2202873e-03   6.2018898e-01   1.7659885e-01  -7.1253497e-01  -5.7120486e-01   9.8453514e-01   9.4512767e-01  -4.1182662e-02  -5.8851277e-01  -3.3140126e-01  -8.3453388e-01  -1.3682063e-01   7.8730808e-01   5.0953524e-01   5.5904820e-01   6.2777938e-01  -5.0750210e-01  -7.3019029e-01   5.3058586e-01   5.1447893e-01   1.6553802e-01   6.7717958e-01   5.6855196e-01   2.7814260e-01   4.6936488e-01  -5.3869526e-01   9.2169801e-01   3.3441857e-01   1.3280134e-01  -9.4320122e-01  -5.7623591e-01   7.6456833e-01  -7.5029286e-01   4.1297770e-01   7.5985690e-01  -5.9405662e-01   8.3744338e-01   6.8363989e-01  -3.5798828e-03   1.6103287e-01   2.4759064e-01   2.2348950e-01  -9.9514732e-01  -3.5234019e-01  -7.2058942e-01  -2.2043736e-01  -8.7067436e-01  -9.0758179e-01   5.9636467e-01  -4.7335980e-01  -8.7593858e-01   4.0881319e-01  -3.5565278e-01  -5.9184524e-01  -1.0151910e-01  -7.4844328e-01  -8.0370468e-01  -5.3354785e-01   8.5008340e-01   1.1709439e-01   5.7665574e-01   7.4744122e-01   1.2895118e-01   1.0029207e-02   9.7292233e-01   2.1892106e-01  -4.9171709e-02  -4.7784406e-01  -1.8624625e-01   2.8082404e-01   2.8357755e-01   1.9315374e-01   3.9182439e-01   9.1719634e-01  -5.9581771e-01  -9.4345146e-01  -5.9796557e-01  -7.6286022e-01   9.7310483e-01  -9.4118050e-01   6.8544677e-01  -7.1315406e-01  -7.4951231e-01   4.2947586e-01   9.5598563e-01  -3.4296678e-01   1.0796501e-01  -1.3124742e-01   2.2697095e-01   7.7673860e-01   6.8267059e-01   5.1690096e-01   6.6111391e-01   1.8740698e-01  -2.0442409e-01   2.4296026e-01  -9.0711540e-01   1.7630731e-01   1.4177263e-01  -1.1885533e-02   8.4481333e-01  -1.5773375e-01   4.5017831e-01  -6.3731821e-01   4.9694456e-01  -2.8535523e-01   5.0778642e-01  -6.6529033e-01   2.4962525e-01  -2.8096727e-01  -6.5351185e-01  -6.5989285e-01   1.9690342e-01   3.2346375e-01  -4.3179808e-01  -1.2409855e-02   7.0586477e-01   2.6766799e-01  -8.6076174e-01  -1.3303500e-01  -2.0267281e-01   2.9242281e-01   6.8073961e-01   7.9672603e-01  -3.9824969e-01  -1.4346424e-01   4.1268455e-02   3.3824523e-01   5.7481026e-01   3.2871132e-01  -7.2209936e-01   7.2452432e-01  -7.6303598e-01   2.2585134e-01  -4.8141928e-01  -6.0775124e-01  -4.8528650e-01  -2.8422161e-01  -6.0035850e-01  -2.8836138e-01   8.8654728e-01   7.5911604e-01  -9.4689797e-01   7.9709697e-01   3.0685426e-01   6.6569405e-02   5.8622214e-01  -7.8814779e-01  -1.7371798e-01  -7.5510389e-01   2.4697058e-01   1.7904698e-02   5.5808339e-01   4.9024013e-01   5.9861591e-01  -7.0086822e-03  -2.4591565e-01   7.0168276e-01   8.7296554e-01  -4.7911960e-01   6.9820144e-01   1.6535188e-01   7.1023067e-01   4.2314228e-01   6.3330941e-01  -7.0522670e-01  -8.3898918e-01  -5.5499111e-01  -7.1375918e-01  -6.0084968e-01   7.4722953e-01  -1.4822968e-01   3.4228206e-01   8.6512303e-01   7.1228838e-01   2.8414036e-01   4.6338353e-01   1.6030135e-01   3.3703765e-01  -6.2403663e-01   1.5716443e-01   4.8440306e-01   3.8610149e-01  -1.5787729e-01  -1.5339530e-01   9.9516699e-01   4.5976060e-01  -7.9926443e-01   4.1145595e-01  -7.5293368e-01   9.8354830e-01   3.1412903e-01  -6.4706428e-01  -1.4244394e-01   8.7137698e-01   3.1466495e-01  -8.9549612e-01  -8.9334169e-01   5.4000286e-01   1.9241217e-01   5.4180634e-01  -5.6954596e-02   2.9821134e-01  -9.4388332e-01   4.8217944e-01   1.3651541e-03   3.3935939e-01  -4.1592675e-01  -5.2523809e-01  -6.0223930e-01   8.4446709e-01  -2.8588108e-01   3.8237532e-01   6.6954354e-02   4.2928298e-01   8.3485284e-01  -3.9660149e-02   8.9051805e-01   2.6320991e-01  -1.4932064e-01  -3.1951767e-01   1.3287226e-01  -1.4328371e-01  -5.5755420e-01  -8.4903304e-01  -5.9191952e-01   4.1343067e-01   3.4670173e-01  -4.0802287e-01  -9.0192793e-01  -5.9233574e-01  -2.3126505e-01   3.1209065e-01   2.0312289e-01  -1.9226885e-01   8.8903965e-01  -1.2787980e-01  -8.8739622e-01   8.1681394e-01  -6.0976221e-01   9.7986129e-01  -2.8154683e-01  -6.0199586e-01  -2.3955866e-01  -3.6975287e-01  -3.1441890e-01  -7.4799953e-01   5.3079716e-01   9.3563491e-01  -5.1308889e-01   6.8233206e-01  -8.4521208e-01  -4.9078256e-01  -5.8154823e-01   3.6666601e-01  -7.5317995e-01   2.0789449e-01  -1.6015073e-01   6.7165087e-01   5.5319273e-01  -1.6946558e-01  -5.1744171e-01   3.5718372e-01  -7.4852038e-01   6.5375100e-01  -5.6087111e-01  -2.7897258e-01   6.0561711e-01   1.8560840e-01  -3.0193202e-01   5.8263241e-01   6.5492686e-01  -2.4853178e-01  -2.3793899e-01   9.3101616e-01   7.9666293e-01   2.2584858e-01  -8.9842288e-01  -9.4211776e-01  -7.1499636e-01  -4.5587296e-01  -7.0644811e-01   7.9836385e-01  -2.0133155e-01  -3.6798735e-01  -8.6296773e-02  -9.1052494e-01  -6.5146038e-01  -6.2309099e-01  -4.4862763e-01   2.7692093e-01  -7.8263154e-01  -6.9932334e-01  -9.8356443e-01  -7.2997509e-01  -3.4402756e-01  -6.0636966e-01  -8.4582701e-01   9.9267719e-01   6.7156773e-01  -2.2290841e-01  -5.0825764e-01  -4.0971890e-01   9.8271948e-01  -6.1414995e-01  -2.9628639e-01   9.8014980e-01  -3.0796762e-01   5.6884790e-01   1.8220062e-01   4.0274120e-01  -6.7544061e-01   5.0566400e-01   1.2588934e-01  -4.1620732e-01   6.6339707e-01  -2.4474441e-01   2.1616347e-01  -4.0533124e-01  -8.3628005e-01   2.4160104e-01  -5.4986301e-01  -1.5969900e-01  -6.2841028e-01   2.5463226e-01  -1.8801429e-01  -1.4776180e-01  -1.0196746e-01   2.9420969e-01  -7.4936415e-01  -9.5303880e-01  -5.2624651e-01  -9.8555143e-01   4.2015713e-01  -6.0297541e-01   2.6221265e-01  -9.7438252e-02  -3.9961997e-01   1.3703541e-01  -8.1428170e-01   8.0107968e-01  -5.9833216e-02  -7.6242673e-01   6.6191660e-01   2.9359712e-01  -9.5916773e-01  -6.9255094e-01   6.5548596e-01  -5.6515386e-01   1.9277784e-01  -7.8661696e-02  -7.4133750e-01   7.5128763e-01   6.8776842e-01  -5.2774992e-02   3.0857351e-01   6.1657022e-01   3.5003057e-01  -6.6177239e-01  -4.5701435e-01   9.9348469e-01  -7.3570141e-01  -8.9301182e-01  -5.4503262e-01   4.4917218e-01  -8.4074380e-01  -7.3658218e-01   2.4153681e-01   8.7411157e-01   1.9640533e-01   5.0612962e-01  -7.4230582e-01   2.3673929e-01   1.1393414e-01   3.4759097e-02  -3.0935798e-01   1.4042419e-01  -3.1888544e-01  -1.7513548e-02  -4.2111130e-01   6.3725704e-01   3.1123902e-01   9.7684531e-01  -7.0698303e-01   8.1561428e-01   8.8568607e-01  -1.0419463e-01  -3.6158823e-01  -9.3888637e-01   6.7573369e-01   8.2241132e-01   5.0899008e-01   2.6431550e-01   3.0467132e-01  -7.5856852e-01   6.6511425e-01  -1.5906213e-02   6.7540933e-01  -9.3700304e-01  -5.6632781e-01  -3.6453306e-01   6.0038909e-01   6.3833301e-01   4.4014151e-01  -8.1432004e-01  -8.1062678e-02   7.7554235e-02   4.9705940e-01  -2.3189605e-01   1.3467107e-01   5.9870399e-01  -7.8527061e-01   7.9942370e-01  -6.0251550e-01   5.3687146e-01   6.1977831e-01   7.6976943e-04   7.0082701e-01  -2.1197913e-01  -6.5401218e-01  -1.5678248e-01   4.1287309e-01  -6.1351454e-01   7.0049222e-01  -8.7344628e-01   7.7232155e-01  -9.1645843e-01  -6.4651825e-01  -8.8069748e-01   2.3957442e-01  -3.6059838e-01   4.2242760e-01   8.4836387e-01  -1.9522336e-01  -4.8423079e-01   8.8949599e-01   5.3907978e-01  -9.4818429e-01  -5.3164275e-01  -8.8722454e-01   2.0714262e-01  -3.6580516e-01  -6.4030949e-01   7.7068283e-01  -8.3790102e-01   5.0962941e-01   7.5347652e-01  -8.7222319e-02   5.8697043e-01  -7.7579795e-01  -1.0319005e-01  -5.9484544e-01  -9.2891444e-02  -4.1107001e-01   8.1589708e-01   1.3159799e-01   1.4326976e-01  -3.8058737e-01   9.2834500e-01  -3.2551339e-01  -8.6653423e-01   2.5745768e-01   2.7551596e-01  -1.7732576e-01   2.5653682e-01  -6.7491645e-01   7.0926451e-01  -9.3850896e-01  -5.4739597e-01  -2.7994174e-01   8.4738946e-01   7.5270897e-01  -4.5903800e-01  -6.5690579e-02  -4.3395979e-02  -3.6141406e-01  -3.6868848e-01   5.7575327e-01   6.6907176e-01   5.9654195e-01  -3.7486796e-01   5.3387123e-01  -3.7487512e-01   1.5505681e-01   2.9929554e-01  -7.1082345e-01   2.9690520e-01  -6.2699417e-01  -5.8350931e-01  -8.2186806e-01   3.8766789e-01   9.3731373e-01   7.2232656e-01   4.8389385e-01  -6.4627561e-01   9.1015343e-03   1.5069150e-01   9.4956545e-01   6.2527375e-01   4.9524388e-01  -3.7270367e-01   9.3726172e-01  -7.3001662e-01  -4.3697588e-01   9.0004817e-03   9.5642905e-01   2.0637969e-01   6.2478960e-02  -1.1421853e-01   8.4314035e-02  -4.0015504e-02  -2.3496314e-01   2.3044706e-01  -9.2685553e-01  -6.4403444e-02  -9.9626900e-01   9.7141714e-01  -3.6107644e-01   5.4533901e-01   7.7354790e-01   5.6798675e-01   5.4201722e-01  -1.0516979e-01   4.0483079e-01   5.7191065e-01   4.8170031e-01   2.8114033e-01  -2.1848795e-02   7.1822345e-01  -6.3419850e-01  -1.0233808e-01  -4.2535241e-01   4.6128668e-01  -1.3544422e-01  -8.9193325e-01   4.6802728e-01   8.9003456e-01  -5.2900291e-03   7.1237971e-01  -1.7368934e-01   3.0915019e-01  -3.0283918e-01
