  -7.6621313e-01   8.0174867e-01  -6.3154840e-03   9.8675276e-01  -8.9981580e-01  -2.8832598e-01  -5.8949507e-01   7.5174033e-01   7.2047834e-01   5.3734598e-01   5.9484966e-01   8.4348610e-01  -2.0664552e-01  -8.5234467e-01   9.3370765e-01  -8.9627953e-01  -4.4177951e-01  -9.6200592e-01  -5.5230788e-01  -6.8738254e-01  -7.1432129e-01   2.6573339e-01  -9.1436158e-01   1.5625936e-01   4.1320964e-01  -1.0840748e-01  -3.7632371e-01   5.1329488e-01   5.5764506e-02   1.0980427e-01   9.8393032e-01  -5.1308008e-01   6.1105649e-01  -1.5715260e-03   6.4449500e-02  -5.2741056e-02  -5.6877687e-01   5.5630313e-01  -8.1794706e-01  -2.0388202e-01   1.6577917e-01   8.9015388e-01  -4.3009192e-01  -4.1296342e-01   5.5741392e-01   9.4597331e-01  -2.7643561e-01   9.0014133e-02  -5.0090341e-01  -4.8436271e-01   8.6676974e-01   4.8519109e-01   3.5642820e-01  -3.8331690e-01   2.5457373e-01   2.1324942e-01  -2.0822321e-01   4.4082713e-01  -3.3205320e-01   2.2886980e-01  -6.8661260e-01  -7.2883552e-01  -6.5977540e-01   7.1950057e-01  -9.1221021e-01  -9.0633841e-01   3.8187443e-02   2.1077820e-01  -3.3157852e-01  -3.9980256e-01  -1.8571423e-01  -3.8058314e-01   9.1480151e-01   4.8346977e-01   3.8492042e-01   6.1724952e-01  -2.4563351e-01  -2.0339755e-01   6.4760541e-01   5.8637672e-01  -5.6170646e-01  -4.2533067e-01  -6.2188066e-02   4.3822101e-01  -6.3491688e-01  -6.6993828e-01   5.2682667e-01   8.8370047e-01  -7.1323695e-02   9.8673061e-01  -3.0974506e-02   7.3718291e-01  -1.5747642e-01   1.8011247e-01   6.3022373e-01  -3.6653164e-01  -6.6660727e-01  -6.3311391e-01   4.4334317e-02  -9.7455704e-01   2.1595883e-01   1.2652054e-01  -7.0915646e-01  -9.0006698e-02  -4.0759736e-01   7.2094153e-01   5.8570776e-01  -7.2019232e-01   6.1653957e-01   7.9498984e-01   3.7217167e-01  -6.2995490e-01   7.0382083e-01  -3.0129582e-01  -5.2705755e-01  -8.4864530e-01  -9.6826045e-01  -1.7297650e-02  -7.1659405e-02  -5.4784208e-01   5.5474350e-01  -2.9043945e-01   7.5741388e-01  -4.3673066e-01   5.0222539e-01  -7.1010555e-01  -9.9715100e-01   1.3327297e-01  -9.8061866e-02  -5.2988813e-02  -2.2252545e-01   5.1939511e-01  -8.5053047e-01   6.6339647e-01  -2.7226614e-01   1.8124359e-01  -1.8300261e-01   5.0930195e-01   5.1703591e-01  -9.3715043e-01  -9.6156533e-01   3.4375115e-01   6.5047256e-01  -4.6896221e-01  -4.9191038e-01  -5.9274105e-01  -5.3361056e-01   9.6619195e-01  -4.6220200e-01  -3.4556112e-01  -3.1763479e-01   7.5835261e-01   8.2771196e-01   9.4073736e-01  -7.8519870e-02   5.1158294e-01   7.3118544e-01   5.0106489e-01   1.2609801e-01   1.9343493e-01  -2.1320301e-01   2.9839721e-01   7.6406282e-01   7.1155100e-01   2.9542295e-01  -6.8445993e-01  -7.8670883e-01  -2.2422032e-01  -9.7395236e-01   3.8229379e-01  -4.8430687e-01   6.0590475e-01  -1.7488357e-01  -6.8147567e-01  -4.6823785e-01  -4.1378360e-01  -7.1718538e-01  -9.5646332e-01  -1.1196939e-01   3.7301995e-01   8.5310247e-02   2.2639324e-01  -4.0765713e-01   3.9551022e-01   8.4656627e-01  -3.3252933e-01  -4.1416681e-01  -3.7029679e-01   6.6126304e-02   2.6046614e-01  -6.5008605e-01   6.1576205e-02  -1.3253889e-01  -9.3336288e-01   5.6041917e-01  -2.3105825e-01  -2.3538206e-01  -3.0558575e-01   1.3815734e-01   9.6328083e-01  -7.1062372e-01   1.4789721e-01  -5.9047145e-01   8.4154363e-01   9.7785195e-01  -6.6975292e-01   3.1939216e-01   1.6263953e-01   3.0956379e-01   1.3273295e-02  -1.3478998e-01   4.9317532e-01   1.8067299e-01  -8.6905002e-01  -6.2993982e-01  -4.9119977e-01   6.6550552e-01   9.2795103e-01   5.1206569e-02  -1.4223068e-01  -7.2365083e-01   7.3253125e-01  -2.5135630e-01   9.5608679e-01  -8.7048767e-02  -4.2480612e-01  -4.8305520e-01   9.9612200e-01  -7.6409128e-01   9.3345344e-01   3.6493236e-01   5.4317713e-01   3.2355765e-01  -6.6826731e-02  -8.9590462e-01   8.7503851e-01   1.7419060e-01   7.7137335e-01  -6.5825663e-01   2.1486886e-01   4.5074577e-01   1.4454563e-01  -3.4556310e-01   7.4586679e-01   1.9942473e-01   8.6814691e-01   9.5339540e-01  -6.6846070e-01  -6.0648389e-01  -6.0842795e-01  -4.9132912e-01  -4.3476915e-01   2.4301060e-01   2.0952286e-01   2.4488557e-01  -1.0771137e-01   3.2716202e-01   8.7467995e-02  -7.7926487e-01   6.9103945e-01   7.7275651e-01   9.0004589e-01  -5.0110731e-01   4.3352012e-01   6.7921377e-01  -9.9483771e-01  -1.9173285e-01   6.0264055e-01  -8.9245567e-01  -6.4278855e-01   3.1607681e-01   8.8803029e-01  -8.2649103e-01   2.4899643e-01  -5.5859073e-01  -7.7803151e-02  -8.6524150e-01   4.0392923e-02  -5.3780692e-01  -1.7227063e-01   3.9386515e-01   4.0893316e-02  -7.0334388e-01   8.0666963e-01   1.9360326e-01  -9.2628883e-01   7.5544840e-01   7.1834177e-01  -6.2847293e-01   3.3996880e-01   1.5354950e-01  -1.1543590e-02  -2.0719206e-02   1.1577436e-01  -1.6667237e-01   7.0415285e-01   3.5492277e-02  -1.5365703e-01   9.6632953e-01  -8.3906171e-01   5.0588916e-01   5.9981166e-01   9.7723029e-01  -2.5651176e-01  -2.0215861e-01   3.4081509e-01  -8.0946114e-01   7.8285836e-01   4.2975520e-01   7.8172956e-01  -9.9969009e-02  -5.2997008e-01  -5.2404201e-01   4.9328802e-01  -3.1897564e-01   4.8167305e-01   2.1944064e-01  -1.1078903e-01  -8.3053028e-01  -5.1381418e-03  -5.3231743e-01  -5.4064298e-01   4.0335342e-01   6.3915419e-01   6.3582512e-01  -3.5444552e-02   6.2480562e-01  -8.6455444e-01   9.3879587e-01   2.4713643e-02   3.3124753e-01   5.6777843e-01   5.2802373e-01   6.5547975e-01  -5.4958987e-01   2.9146961e-01  -2.1172502e-01  -3.0994154e-01  -7.3881084e-01   1.3108616e-01   3.9043842e-01   9.1613409e-01  -8.5524424e-01   3.9975472e-01   6.6962464e-01  -4.9791118e-01  -3.8112311e-01   8.9762225e-02   8.4573536e-01   9.4415727e-01  -7.3346054e-01   2.1980537e-01   9.8665222e-02   5.2664974e-01   9.4049614e-01  -7.7798108e-02   7.4374120e-01  -7.8148933e-01  -3.6293389e-01  -9.6542280e-01  -1.4087830e-01   6.8514714e-01   5.5299973e-01  -8.0156971e-02  -9.3899615e-01  -6.7559830e-01  -6.6508627e-01  -5.4205980e-01   9.6627726e-01  -2.3721736e-01   9.3923747e-01   6.2590213e-01   3.4121849e-01  -9.1364555e-01  -6.7562173e-01   6.9249283e-01   2.8885522e-01   1.2721819e-02  -2.2874380e-01   6.1239531e-01  -1.8631758e-01   2.9067081e-01  -7.8224683e-01  -5.5000421e-02   6.5311063e-01   4.3817913e-01  -9.3331469e-02   9.7157614e-01   5.3069623e-02  -1.4700785e-01   4.4397554e-01   7.9374957e-01   3.3961492e-01  -6.0572475e-01   6.1458730e-01  -3.8412675e-01  -9.7039011e-01   7.1279781e-01   9.3711419e-01   3.8977719e-01   8.0233786e-01  -4.7808332e-01  -7.2199471e-02  -2.6738152e-01  -8.3688851e-01   6.0163413e-01  -3.5105987e-01  -9.0800632e-01   7.8638392e-01  -9.8946629e-01   4.7829908e-01   5.1901732e-01  -3.9651545e-01   6.8843774e-01   5.3868767e-01  -8.4539105e-01  -6.4959609e-01   8.1949638e-01  -7.5750806e-01   3.0240444e-01   4.3910789e-01  -8.7955770e-01   1.8294053e-02  -8.1316324e-01   4.8535316e-01  -2.4306973e-01   8.8815586e-01   5.1578392e-02   7.2540855e-01   9.8948869e-01   7.2581854e-01   6.9446974e-01   6.9497030e-01  -5.5326723e-01   1.6110912e-01   9.0244312e-01   3.9740776e-01  -2.6089094e-01  -2.8605324e-01  -2.9420326e-01  -6.5976117e-01   1.7784323e-01  -5.9248411e-01  -7.2114742e-01   9.4598756e-04  -2.2109039e-01   4.8208905e-01   4.2470219e-01  -1.1329110e-01  -8.1882197e-01   2.5907765e-01  -8.1027384e-01   9.7470610e-02  -8.9921056e-01   7.3654537e-01   7.8460329e-01  -3.5757342e-01   4.9032787e-01  -5.7915771e-01   3.3040235e-01   8.5081764e-01  -5.0821207e-01  -8.3863114e-01  -6.3049476e-01  -3.1116390e-02   6.4754261e-01  -3.9562418e-01  -8.3399570e-01  -6.5162087e-01  -8.9876949e-01   8.2315024e-01   7.0569913e-01   8.8639361e-01   8.4370115e-01   1.4200455e-01  -4.5797789e-01  -9.7433492e-01  -7.4413039e-01  -6.2061915e-02  -2.6868794e-01   3.6834889e-01  -1.3132776e-02  -5.4562662e-01   8.0276935e-01   4.6774380e-01  -5.5466118e-02   3.7654273e-01  -8.6258339e-01   4.1666769e-01  -7.3957264e-01  -3.4988777e-01  -6.7145895e-01  -2.1279356e-01  -9.9954520e-01   6.7129948e-01   7.1777046e-01   6.4906380e-01  -6.0607693e-01   4.3732040e-01  -2.3130804e-01   5.7988234e-01  -5.7694890e-01   9.4280260e-01  -9.4374328e-02  -9.1994576e-02   7.6341344e-01  -1.8271391e-01   4.4464155e-02   3.1098039e-01   5.8847626e-01  -4.8680817e-01  -5.8771982e-01  -4.9558931e-01   2.7131681e-01   3.9187628e-01   6.1550542e-01  -5.9752828e-02   1.1081938e-01   1.8026590e-01  -5.9311678e-01   2.7773148e-01   6.8732629e-01   2.9485477e-01   9.6878895e-01   9.9701675e-01   7.8667340e-01  -9.5728839e-01   2.1181784e-01   7.6482035e-01   1.1774520e-01   8.5032081e-01   1.9672220e-01  -3.3278136e-02  -5.9743966e-01   3.9093339e-01   1.4404898e-01  -9.8465693e-01   2.6262441e-01   6.1581730e-01   6.1400502e-01   1.5622974e-01  -7.9709117e-01   2.8273594e-01  -7.6563400e-01  -6.5804193e-01  -2.3310546e-01  -4.4032397e-01   9.8486231e-01  -7.2425822e-01   3.2298058e-01  -1.8680117e-01   4.9959988e-01   5.6422935e-02   9.2414381e-01   6.9641717e-01  -4.7317928e-01   1.8098003e-01  -3.7035193e-01  -7.1034782e-01   8.2056130e-01  -9.4837895e-01   3.4554101e-01   1.7171107e-01   1.4207318e-01   4.4656172e-01   6.7546272e-01  -2.7632699e-01   5.9032450e-01   7.0861128e-01   2.2372519e-01   6.3893690e-01   9.9229739e-01   7.1170602e-01   4.3620811e-01  -7.6078944e-01   9.9377962e-01   6.1387422e-01   9.1514833e-01  -4.2513104e-02   6.4968279e-01  -5.7971692e-01   3.2335346e-01  -5.5942071e-01  -6.9405202e-01   6.9737298e-01   4.1907859e-01  -7.8594823e-01  -9.4191288e-01   8.7435893e-03  -5.7095600e-01  -4.0122249e-01  -4.4911156e-01  -7.0256546e-02   5.5382879e-01   1.6350840e-01   8.5498690e-02  -1.5669475e-01   5.6955319e-01  -4.0907267e-01  -7.6949463e-01   6.6921542e-01   1.8505191e-01   7.0489484e-01   7.3980431e-01   1.9130885e-01   4.1577530e-01  -9.2790465e-01  -7.6113746e-01  -5.3041505e-01  -3.2916689e-01   5.1935290e-01  -6.3105402e-02   7.5066337e-01   7.4965672e-01   4.7782509e-01  -1.6165559e-01  -1.6920241e-01  -6.1863891e-01  -7.0095923e-01   2.0133980e-02   3.4029848e-01  -4.8959674e-01  -9.9724623e-01   6.7693230e-01   3.0799708e-01  -7.7435054e-01  -8.0960473e-02   7.2562694e-01  -3.9906027e-01  -6.7101248e-01  -5.5027833e-01   6.2795361e-01   1.3694020e-01   4.4321865e-01  -6.8744175e-01   2.6598095e-01  -8.8216996e-02   8.0764913e-01   3.6290562e-01  -3.3306866e-01  -3.5824102e-01  -8.4194434e-01  -9.9101770e-01   5.6029819e-01  -6.2248127e-01  -3.9259812e-01   7.5073781e-01  -7.9495373e-02  -2.2238056e-01  -2.8614557e-01   2.1635340e-01   7.0457910e-02   7.0123545e-01  -9.4460618e-01   6.3055911e-01  -9.1320339e-01  -1.5090322e-01  -3.7600734e-01  -4.5485032e-01   1.4990860e-01   3.5616146e-01   4.2897376e-01  -6.6008736e-02   3.0190132e-01  -9.3400840e-01  -1.3034917e-01  -6.3719785e-01   2.0453296e-01  -7.3229277e-01   1.6641380e-01   6.3764866e-02  -3.6744750e-01   1.1452178e-01  -1.7172602e-01  -4.6738314e-01  -2.5716751e-01  -3.3086753e-01  -3.9307981e-01  -6.2188594e-01  -2.8044813e-01   4.5892996e-01  -7.2091420e-01  -6.3546959e-01   2.5396562e-01  -9.6507811e-01  -6.2897688e-01  -7.8838761e-02  -9.3786914e-01  -2.9355905e-01  -5.1892296e-01   4.6700222e-02  -5.9999128e-01  -7.1921359e-02  -2.3670088e-01  -6.2178925e-01   2.1739316e-01   1.1786613e-01   9.4280154e-01   9.5448404e-01   5.2011821e-01  -9.9695859e-02  -3.0647784e-01  -2.4812054e-01  -2.7295206e-01   7.8879260e-01   4.9984549e-01  -7.8119593e-01   2.1320935e-01   1.2001869e-02   4.2180252e-01  -1.1962250e-01  -1.7754802e-01  -2.3213911e-01   7.7425023e-01   2.6295492e-01   5.2985434e-01   2.0746472e-01   6.2865550e-01  -4.7884708e-01   5.0426276e-01   3.5705514e-01  -1.1139095e-01  -5.0411127e-01   1.1132553e-01   8.3736952e-01  -5.2550972e-01   2.6808303e-01   1.2177306e-01   1.9348860e-01  -5.0382509e-02   5.5831148e-01  -5.9280017e-01  -3.3537557e-02  -9.9484642e-01   4.1649033e-01   6.3078065e-01  -5.9209501e-02   1.5242850e-01   2.9724238e-02   9.2363189e-01  -8.1621118e-01  -8.3062568e-01   5.3310402e-01  -3.0423967e-01  -1.1489486e-01  -3.7156118e-01  -9.1463109e-01   8.9741709e-01   7.9207742e-01   5.1216269e-01  -4.3619035e-02   1.7328416e-01   9.6103877e-02   3.6365598e-01  -5.5168317e-02  -4.0048301e-01   7.4000332e-01  -8.8995773e-01   6.9054515e-01   1.8606618e-01  -1.3435086e-01  -3.1056018e-01  -1.3617986e-01  -9.9153422e-02  -6.1728338e-01   6.5964180e-01  -8.2361629e-01   9.4249968e-04   7.6907539e-01   4.2022904e-01  -4.6332508e-02   3.3227020e-01  -2.2980777e-01   4.6494173e-01   7.9522343e-01  -5.9804384e-01  -3.4495325e-01  -2.8684043e-01  -1.0118970e-01  -5.1391794e-03   6.0045404e-01   8.9693717e-01  -8.1851368e-02   5.8677281e-01   2.3594485e-01  -1.7108123e-01   7.7382149e-02   2.3482439e-01  -3.9516898e-01  -1.4147833e-01  -1.7180648e-01   1.3411764e-01   3.9099991e-01   3.8466194e-01  -5.0412822e-01  -1.6778020e-01  -7.6182406e-02   8.5565531e-01  -9.3735463e-01   5.2023698e-01   3.4635985e-01  -9.6091667e-01   6.3733991e-01   8.5280973e-01   6.7590931e-01  -2.9123618e-01  -9.9948949e-01  -5.3580164e-01   6.6122876e-01  -7.0712078e-01   9.2523110e-01  -9.0761643e-01   9.8623810e-01  -3.0749242e-01   6.6343943e-02  -5.1460596e-01  -4.0534505e-01   1.6744114e-01   9.4353658e-01   4.7180000e-01  -4.4397161e-01  -3.9672463e-01   5.3920518e-01  -6.5745482e-01   1.9007146e-01  -8.1600404e-01   3.6497487e-01   2.4374540e-01  -1.3713334e-01  -1.0614452e-01   3.4656071e-01  -9.7940195e-01   4.5646754e-01   4.6981524e-02  -6.9214157e-01   5.3928250e-01   2.8205115e-01   4.0921842e-01  -4.7435737e-01  -1.9827203e-01  -4.3149682e-01   6.6037366e-01  -8.7320055e-01   3.7214566e-02  -4.8131685e-01   9.0505515e-01   7.3838783e-01  -1.3247319e-01   1.2280709e-01   5.0224069e-01  -8.6617034e-01   2.2947203e-01   5.4029912e-01   6.4943117e-01  -2.1575449e-01  -8.0148273e-01  -4.5219195e-01   6.8986277e-01  -3.7685549e-01  -1.7129495e-01  -5.0090440e-01   3.2863698e-01  -4.1477646e-01  -7.2266365e-01  -9.7073239e-01  -8.0633088e-01   7.0688980e-01  -1.4891074e-02   6.9120845e-01  -2.9484767e-01   4.2360418e-01   4.7455393e-01  -8.0708106e-01  -6.8219619e-02  -3.7029570e-01  -9.2424683e-01   7.3926179e-01  -3.9339097e-01   2.7332988e-01   7.6545241e-01  -1.4071850e-01   7.0349563e-01   8.8933892e-02   2.7105279e-02  -7.8535649e-01  -8.9165621e-01  -3.3286494e-01  -9.8933418e-01  -1.1860517e-01  -9.4684107e-01  -6.8846225e-01   4.3255031e-02   1.8774945e-01   8.5410519e-01  -7.6362606e-01  -6.2584885e-01   8.8172651e-02   5.8044920e-01  -7.8782988e-01   3.8700575e-01   1.5670033e-01   6.3191781e-01   1.7130675e-01   9.7035945e-01   2.2215373e-01   2.4000401e-01   2.2193964e-01   7.5445763e-01  -7.1066244e-01   2.7022459e-02   9.8473853e-01  -4.5986519e-01   7.6290061e-01  -5.2992201e-01   7.4339796e-01   2.5861136e-01   5.0334142e-01  -8.9170089e-01  -4.2903886e-01  -3.8923974e-01   8.2120189e-01   7.4984732e-01  -5.8850700e-01  -7.8066215e-01   6.6361432e-01   2.7269145e-01   9.1578121e-01  -2.3170867e-01  -6.8816692e-01  -8.9532303e-01   5.4895491e-01  -9.6115375e-01   6.4530788e-02   6.3066241e-01  -5.6271138e-01  -6.2893161e-01  -9.5269354e-01   2.0623537e-01  -2.0442648e-01   2.5012213e-01  -8.7520555e-01   6.5809622e-01  -5.1459579e-01  -3.3606159e-01   6.0916390e-01  -3.3535916e-01   2.9338465e-01  -5.0837922e-01  -2.0503754e-01   7.7152765e-01   6.6392767e-01   2.5636652e-02   7.5533519e-04   5.7584396e-01   3.8860016e-01   4.5369624e-01  -1.0309990e-01  -6.8001309e-01  -9.7417304e-01  -7.7589015e-01  -1.5075010e-02   8.2638997e-01   4.1040040e-01   7.1183858e-01   2.8848015e-01  -2.5738602e-01  -1.6460621e-01  -3.2590732e-01  -2.9654791e-01  -1.6185937e-01  -9.5598021e-01   9.7448233e-01  -9.5949356e-01  -4.6313791e-01  -6.4630437e-01   9.5287336e-01   2.6799385e-02   5.5301780e-01   7.9709358e-03   4.8763707e-01   4.5920993e-01   8.0625616e-01   2.3570490e-01   6.3106317e-03   3.8152492e-01   3.4955619e-01   7.8106671e-01   1.0634540e-02   8.2505230e-01  -8.0453891e-01  -2.1554112e-01   9.8101811e-01  -6.0039628e-01  -3.6411451e-01  -1.2741034e-02   7.9615931e-01  -4.3566329e-01   4.7992585e-01   3.9612206e-01   6.4315134e-01
   7.1768497e-01   7.0183673e-01   7.5601736e-01   9.8366420e-02  -8.8427937e-01  -4.6586143e-01  -4.3034089e-01   8.9314300e-01   1.4914675e-01   1.1142812e-01   3.3962264e-02  -4.2959740e-01   3.5655639e-01  -5.7862979e-01   9.1313560e-01  -8.3986936e-01  -7.7233405e-01  -6.2662130e-01   4.3022496e-01   4.7738870e-01   4.2844334e-01   2.4931512e-01   2.8392659e-01   9.1597442e-01  -7.9815617e-01  -6.1008980e-01  -2.3947737e-01  -9.6583260e-01   6.5701708e-01   2.6381733e-01  -9.9798494e-01  -7.1958491e-01  -6.9626712e-01  -7.7190462e-02  -4.0079460e-01   3.2664447e-01  -8.4298855e-01  -3.5817445e-01  -7.9773393e-01   3.5236599e-01  -8.3230537e-01   6.4880762e-01  -5.8089933e-01  -8.5041882e-01   1.7878059e-01   3.9880929e-01  -2.6669514e-01   7.3301846e-01  -8.3644826e-01   6.8040281e-01  -7.1317179e-01   8.8326098e-01   6.4324195e-01   1.8274819e-02  -6.1594690e-01   7.6128431e-01   4.6461502e-01  -8.6589234e-01   5.2484406e-01   6.3725958e-01  -7.2362052e-01  -9.6873499e-01  -3.3093319e-01   5.7838391e-02   6.5726000e-01  -5.1983021e-01   5.5584159e-01  -6.8121161e-01  -7.2031771e-01  -7.8133137e-01  -1.0976876e-01  -2.0898454e-01   6.8445644e-01  -8.3870487e-01  -4.6096329e-01   5.1294515e-01   2.4945896e-01   6.2622867e-01   8.8052754e-01   9.6981339e-02   3.8306224e-01  -8.4856669e-01   2.5679852e-02   4.1613150e-01  -1.0849413e-01   5.5538114e-01   4.9147446e-01  -9.3553494e-01   6.1387771e-01  -5.6562575e-01  -9.7496102e-01   2.7167149e-01   2.7686795e-01   3.3359212e-01   7.6566297e-01   4.2565966e-01   5.8706011e-01  -5.8618584e-01  -8.8166994e-01   2.3291680e-01  -6.2449735e-01  -8.1172457e-01   1.9306669e-01   7.0699006e-01  -8.1806314e-01  -1.7891802e-02  -9.2826316e-01  -8.1240642e-01  -8.6066910e-01   5.1290378e-01   5.4852596e-01   4.7412436e-01  -3.1953473e-01  -7.2096580e-01  -7.3593758e-01  -2.4935174e-01  -6.3908976e-01   2.7509013e-01  -1.5861587e-01   7.4510405e-02   2.7724048e-01  -8.9875692e-01   6.9635153e-01   8.7532553e-01  -4.3470095e-01   6.2903223e-01  -6.4013393e-01   1.8234874e-01   4.0933285e-01  -2.5239807e-02  -5.1530272e-01   6.6712203e-02  -7.8361184e-01  -4.6937678e-01   7.4848858e-01  -2.4204671e-01   2.0805356e-01  -5.6244297e-01   6.3144366e-02  -8.3776035e-01   9.7518288e-01  -1.9337154e-02  -6.1573448e-02  -5.6018540e-01   5.3641707e-01  -1.8362027e-01   7.5129772e-01   7.8276719e-01   1.1134206e-01  -8.6464664e-01  -1.2370460e-01   2.1509341e-01   4.2611722e-01  -2.7212800e-01   4.0291471e-01   3.9293506e-01   9.0560510e-01   2.8480689e-01   4.6294466e-01   5.5166627e-01   7.7100445e-01  -2.9745706e-01  -7.9034671e-01  -4.8823141e-01  -3.0333363e-01   8.0582123e-01  -3.6285287e-01  -2.2958835e-01  -7.7743771e-01   4.1956413e-01   6.1045837e-01  -8.5240364e-01  -3.0516108e-01   4.0802770e-01  -7.9767776e-01  -7.7114238e-01   8.8498791e-01   5.4209305e-01  -2.6872707e-01  -6.4568293e-01   2.0917547e-01  -3.8121995e-02   7.3255551e-01  -2.9963808e-01   3.8687342e-01   8.7215028e-01   6.1313865e-01   5.2734944e-02  -8.7073612e-01   3.9356302e-01  -6.0973094e-01   6.2041975e-02   6.9897989e-01  -8.5096111e-01   1.5155514e-02   6.4112756e-01  -6.1360251e-01   6.6398016e-01  -9.9481564e-01   1.2598350e-01  -7.9541010e-01  -6.3748824e-01   7.6486196e-01  -2.0389865e-01  -6.2797855e-01   4.8203599e-01  -7.3622524e-01   8.9873547e-01  -7.0944770e-01   8.8535863e-01   7.0277359e-01   9.6179010e-01   9.3960392e-01  -8.3621799e-01  -9.8171285e-01  -3.9404290e-01   1.7474564e-01   5.1394665e-02   2.5515229e-02   1.8065544e-01  -8.2531131e-01  -1.1321207e-02  -2.2073504e-01   2.6531296e-01  -2.9633057e-01   6.8303526e-01  -9.5223879e-01  -7.8732583e-01  -9.1635588e-01   9.0099090e-01   8.1981646e-01   7.6971365e-01   7.0490580e-01  -4.1978961e-02   2.8849179e-01   2.8043057e-01  -1.0838320e-01   2.2161957e-01   6.2573641e-01   4.9887921e-01  -1.0913633e-01   7.0360702e-01  -7.4972096e-01  -6.5854351e-01  -1.7973727e-01   3.7491283e-01   8.9756787e-01   8.1233749e-01  -8.4039699e-01  -5.6354281e-01   4.6125937e-02   7.1578170e-01   5.5654494e-01  -8.0262303e-01  -2.9902867e-03  -8.9323590e-01  -2.9840998e-01  -3.6215125e-01  -4.8243311e-01   8.7759986e-01   1.1466508e-01  -3.6857444e-01  -1.1484245e-01   9.1951688e-01  -3.0388725e-01   2.4161675e-02  -4.2740747e-01   7.6513378e-01   3.0541357e-01   7.7319116e-01  -1.7194993e-01  -5.8167495e-01  -2.1393992e-01   5.4570370e-01  -1.2740440e-01   7.0804332e-01   9.6696090e-01   2.0326926e-02   9.1005428e-02  -8.0479997e-01   5.9804520e-01   2.3353477e-01  -8.5182867e-01  -9.9737198e-01  -4.4043048e-01   9.6758030e-01  -8.7619350e-01   3.3598391e-01   7.6967845e-02   4.8215138e-01  -7.0602963e-01   1.6936364e-01   4.6539915e-01  -8.3191716e-01   9.1815128e-01  -6.4129242e-01   2.7948906e-01   3.9058159e-01  -8.4774308e-01  -5.7503696e-01   4.6928058e-01  -8.1674924e-01  -7.3551432e-01  -5.4811895e-02   8.4245715e-01  -3.5789206e-01   9.6105706e-01   9.2126012e-01  -3.3144719e-01  -4.3707385e-02  -4.5332624e-01   7.0759490e-01  -6.8494675e-01  -8.8604876e-01   4.5657281e-01   3.5069738e-01   3.3363085e-01  -6.5313847e-01  -7.9136638e-01  -2.0478299e-01   1.0221605e-01   7.0825265e-01  -7.6593765e-01   2.2473870e-01   6.1030022e-01  -5.7527359e-01  -7.7538166e-01  -1.1127130e-02   3.9824490e-01   4.0327450e-01  -8.6791894e-02  -7.6056823e-01   2.6888907e-01   9.1456887e-01  -3.2639684e-01  -7.2210529e-03   3.4759981e-01   5.7030667e-01  -6.9702327e-01   5.2804134e-01   8.8751011e-01   7.4263988e-01  -9.8571108e-02  -8.2595413e-01   4.8132427e-01   2.0438892e-01   9.8240638e-01   4.0250346e-01  -9.8820274e-01  -2.7923956e-01  -7.2925518e-01   2.5902183e-01   9.0643677e-01   9.8388844e-01  -3.8373243e-01   2.5627428e-01   1.4013126e-01   5.0590038e-01   5.6457663e-01  -5.9844394e-01  -2.8528373e-01  -9.5608393e-01  -1.4758542e-01  -2.5916672e-01   1.6840232e-01   3.8674159e-01  -4.9829992e-01  -8.0640218e-01  -4.4406945e-02  -4.5904953e-01  -3.8477170e-02  -5.6306409e-01  -5.1663728e-01   6.0616199e-01  -4.9092192e-01  -7.4292538e-01  -8.3587579e-02   3.3331784e-01   4.7751153e-01  -5.8659288e-01  -9.0399106e-01   9.2180900e-01   4.5182763e-01   8.8087710e-01  -5.7600885e-01   8.1805808e-01   9.1228575e-01  -1.6174787e-01   6.8407576e-02   7.2300211e-01   1.5299282e-01  -4.0283305e-01   9.0061077e-01  -7.9244172e-01  -7.3396587e-01  -4.9554312e-01   1.6730982e-01   6.7987782e-01   2.9847807e-01   8.9805250e-01  -1.9167352e-01  -6.5709095e-01   3.8227129e-01  -4.4835948e-01   9.6726717e-01   1.9093958e-02   9.3234245e-01  -4.8367664e-01  -3.9260976e-01  -5.0825749e-01   6.0277761e-01  -1.9053967e-01   8.1562830e-01   4.6982834e-02  -3.1989402e-01  -6.9427868e-01   5.0499000e-01  -9.8298847e-01   7.3792366e-01  -2.4595279e-01   4.0220595e-01  -4.7796250e-01  -2.6249989e-01   4.8141292e-01  -5.4949837e-01  -1.5101893e-01  -3.6617132e-01   8.6868990e-01   7.2456786e-01  -3.2621894e-01  -4.0008903e-01   2.4998526e-01   8.4744126e-02   3.7834251e-01   1.3675927e-01  -2.0495935e-02  -7.0656742e-01  -3.9683658e-01   6.5001286e-01  -4.7193891e-01  -7.7916848e-01   7.3586257e-01  -7.8420847e-01  -7.2381004e-01   2.6980414e-01  -6.1310963e-01   4.9435380e-01  -1.3930057e-01   7.4969620e-01   8.7333235e-02  -9.8178850e-01  -2.2869487e-01   8.1502152e-01  -7.3872825e-01  -1.3366560e-01  -1.7686493e-01  -8.8554733e-02  -9.6627468e-01  -1.1022231e-01  -9.7403048e-01  -1.9372256e-01   6.5114983e-01   2.4309700e-01   4.9976364e-01   7.6825008e-02   4.6743265e-02  -2.8948215e-01  -7.0938318e-02   2.2960707e-01  -9.8358607e-01   8.9153151e-01  -7.2089291e-01  -3.9483281e-01  -8.9208543e-01  -4.1547348e-01  -2.9166924e-01  -5.0504059e-01  -5.2315436e-01  -7.6080516e-02  -3.5747063e-01   1.8685889e-01   8.6378642e-01   1.6069058e-01   3.8535618e-01   6.3172882e-02   7.0483037e-01  -1.2664695e-01   5.0094154e-01  -8.2571478e-01  -6.3689782e-02  -6.5881790e-01   6.1412786e-01   8.2289322e-01  -7.6163395e-01   6.9834500e-02  -9.0082902e-01   5.1213281e-02  -7.3682681e-01   9.7212373e-01   6.5887274e-01  -1.3674130e-01  -2.7784449e-01  -6.9889037e-01   9.6693078e-01   2.9933657e-01   1.4365099e-01   4.7361279e-01  -2.2441078e-01  -1.3251793e-01   4.6940361e-01   2.8104242e-01  -4.5490702e-01  -6.0411102e-01  -3.2041037e-01  -3.6177018e-01  -8.9701565e-01   9.4061289e-01  -5.3223811e-01   4.1915967e-01  -1.9094281e-01   7.1147878e-01  -4.6424981e-01   7.7282461e-01   3.5942053e-01  -2.8175580e-02   8.7108041e-01   1.6386965e-01  -4.8369169e-01   3.7948101e-01  -6.0361080e-01   6.3681297e-01  -1.6801599e-01   2.2950833e-01   2.9503947e-01  -3.4880991e-01   8.2139356e-01   4.9021817e-01  -9.3139154e-01  -1.6137864e-01   8.0403727e-02   8.7197943e-01   8.0305742e-01   7.4723648e-01   2.2488333e-01   1.2593995e-01   9.1138614e-01   1.0385375e-01   4.8886379e-01   9.9916089e-01  -3.9773320e-02  -7.3158213e-01   5.8574097e-01  -6.5361222e-01  -1.3072956e-01  -3.1803386e-02  -2.2338314e-01  -6.2556686e-01  -8.2613800e-01  -1.2016292e-01  -5.7630773e-01  -5.3618560e-01   4.2821807e-02   8.3336157e-01  -1.9041180e-01  -5.6225258e-01  -5.3778911e-01   6.6852809e-01   3.2925709e-01   8.3221713e-01  -3.8197341e-02   9.9400706e-01  -7.9750523e-01   4.4223296e-01   6.6830956e-01   6.4167285e-01   6.0159165e-01  -5.3015907e-01   8.2256705e-01  -4.1852360e-01  -6.4089148e-01   5.1238234e-01  -8.8026827e-01   4.4182127e-02  -8.9290477e-01  -1.8121211e-01  -7.6824866e-01   2.1079913e-01  -1.3026815e-01   9.0993554e-01  -4.9117840e-01   3.8884786e-01  -1.5698913e-01   5.1307585e-02  -7.1385381e-01   2.5077471e-01   1.6674157e-01  -3.2085980e-01  -2.2900231e-01  -6.2103654e-01  -6.6806311e-01   6.3411996e-01   3.8220281e-01   5.2428665e-02  -3.3853900e-01   6.9789429e-01   8.8304956e-01  -1.2733406e-01  -4.4185569e-01   4.8018979e-01  -3.6077032e-01  -3.7707054e-01   4.2702673e-01   3.1363990e-01   6.5407837e-01  -8.1749841e-02   9.6490589e-01   7.2217699e-02   8.0918709e-01   7.2914602e-01  -5.1546504e-01   8.8731901e-01   5.2743419e-01   1.8971399e-01   1.7788696e-01   7.8499619e-01  -8.0656491e-01  -7.3095040e-01   8.6503349e-01   5.9224491e-01   8.1087815e-01  -1.3552600e-01   5.0041764e-01  -1.5194102e-01   6.8378915e-01  -3.2917270e-01  -4.7283476e-01   7.3216143e-03   1.4718224e-01  -8.6765543e-01  -8.8763462e-01  -3.0030247e-01  -1.2129030e-01   2.2986125e-01  -7.6663070e-01   8.5115503e-01   8.6462528e-01  -6.8514946e-01  -4.1858007e-01   4.5762309e-02   5.4080787e-01  -8.5324372e-01  -6.4625554e-01  -1.0434604e-01   9.0519640e-02   7.7477463e-01   1.2034053e-01   4.1258869e-01  -5.0307604e-01  -1.2967825e-01   5.3394316e-01  -5.3647670e-01   6.6699568e-01   1.9349820e-02   6.5134461e-01  -4.8108550e-01   4.6687018e-01   5.6314416e-01   3.4806277e-01  -2.6922111e-01   2.0325702e-01  -6.8332461e-01  -3.2452269e-01   1.3916947e-01   8.8660068e-01   6.6233228e-01   3.1636450e-01  -3.3441423e-01   5.5125836e-01   2.8879872e-01  -6.0009320e-01  -8.1117739e-01  -5.6107538e-01   7.6359641e-01   7.4470212e-02  -1.7689253e-01  -8.4325133e-01   2.6374685e-02   6.6641904e-01  -4.8667207e-01   4.7088867e-01   6.3211620e-03  -9.6716974e-01  -5.0381147e-01   9.6352502e-01  -3.0979466e-01   2.9087866e-01  -8.0546231e-01  -8.4738006e-01  -9.7420485e-01   7.6712905e-01  -8.8626079e-01   3.9397095e-01   1.4065870e-01   1.9830124e-01   4.0996350e-02   7.6330649e-01   7.0202093e-01  -7.7652280e-01  -1.8328111e-01  -5.2755869e-01  -2.5169807e-01  -9.6249765e-01  -5.6415955e-01  -9.3050298e-01  -1.1234778e-01   1.4314423e-01   4.9214406e-01   5.0150732e-01  -4.7161913e-01   7.2167535e-01   3.2975797e-01   9.0345504e-01  -5.8021416e-01  -5.1821685e-02   6.6298403e-01   6.8231848e-02  -4.4361816e-01   4.5067148e-01   7.8110197e-01  -7.2641792e-01   4.6611369e-01  -5.5536624e-02  -6.4899457e-01  -5.1137991e-01  -9.2034201e-01  -2.3407931e-01  -8.1269616e-01   1.2972237e-01   4.5336014e-01  -1.2807004e-01   8.4532410e-01   2.3784552e-01   6.6426008e-01   9.5047170e-01  -5.0201972e-01   4.2285748e-01   6.8747239e-01   5.0502983e-01   9.3493783e-01   4.6328670e-01  -2.4832173e-01   4.9316695e-01  -2.0464127e-02   4.2865401e-01   6.2907909e-01   3.8361053e-01  -3.7102930e-01  -1.1448960e-01  -4.0349608e-01  -2.6366241e-01  -2.8761996e-01  -2.2290266e-01  -9.9695720e-01   6.1778184e-01   8.5037243e-01  -7.3583541e-01  -1.0001017e-01   6.2648689e-01   8.1796460e-01   5.4833826e-01  -7.2567720e-01   4.4567505e-02  -8.4862987e-01  -5.2606644e-01  -4.3236622e-01  -9.4248996e-01   5.4201686e-01  -9.3222870e-01  -3.4148063e-01   5.6022739e-01  -1.3508659e-02  -1.4450060e-01   2.4372467e-01   9.6599111e-01   7.3522228e-01   5.2947168e-01  -1.4380005e-01   4.7444654e-01   6.3506104e-01   8.0852094e-01  -8.8965737e-01  -1.8672975e-01  -4.7382919e-01  -6.9504999e-01   7.7699945e-01  -3.8796130e-02  -2.3553972e-02   3.1808254e-01   5.8416052e-01   1.2780210e-01  -3.2128785e-01  -4.4851584e-01  -6.5222132e-02   2.0996608e-01  -4.4042005e-01  -2.6774144e-01   7.5824742e-01  -2.9388052e-01  -8.1017815e-01  -3.7799874e-01   9.9770546e-01  -6.9905911e-01  -6.6736215e-01   7.1664543e-01   2.0453413e-02  -8.3517810e-01   4.2209901e-01  -6.5385256e-01  -9.7162310e-01   3.6453093e-01  -8.9207275e-01   4.5081533e-01   7.4039966e-01  -1.4070243e-01  -3.9983702e-01   4.7644547e-01   9.0382203e-01   1.2200485e-01  -9.1101097e-01   2.1168715e-01   7.7784148e-01   4.2258208e-01   1.4324207e-01  -9.4250056e-01   4.0918137e-02   1.3123054e-01  -7.9791607e-01  -7.5594757e-01  -4.4290616e-01  -7.3506400e-03  -6.7607738e-01   3.6660474e-01   1.9952773e-01  -1.3980192e-02   8.7052536e-01   9.9782853e-01   2.8685419e-01  -3.3253068e-01   8.0723143e-01   5.0597962e-01  -4.8939594e-01   7.5048074e-01  -8.7738162e-01   4.9427633e-02  -2.3901469e-01  -6.5036515e-01   8.5235323e-01   4.0106585e-01   7.2340349e-01   9.5741522e-02   3.2052140e-01  -3.6421454e-01  -5.7163933e-01   5.8543680e-01  -7.8372596e-01  -8.5386139e-01  -6.3301132e-01   4.7758572e-01  -4.7353526e-01   4.9150576e-01   2.3733682e-01  -9.2753471e-02   4.6221505e-01  -6.6159632e-01  -7.6437249e-01  -3.4386634e-01   1.8195461e-01   3.7257222e-01  -2.3494368e-01  -2.8159480e-01  -7.4786586e-01   3.4135878e-01   1.4432660e-01   3.8299076e-02  -4.4674852e-01  -1.6980019e-01   1.6404588e-01  -8.7122068e-02  -5.4363264e-01   3.0113375e-01   5.6507381e-01  -5.7446527e-01  -4.9837244e-01  -8.9010723e-01   7.4767430e-02   7.4111971e-01  -2.7364943e-01   4.9274568e-01   2.3804887e-01   8.9687384e-01   9.1322209e-01   7.0298590e-01  -6.3638772e-01  -2.3824591e-01  -6.5821400e-01   6.6022317e-01  -2.8952322e-02   9.7458131e-01  -3.2723974e-01   7.0661347e-01   2.4955326e-02   9.9515013e-02   4.4464522e-01  -1.8046844e-01   1.6086257e-01   9.6011745e-01  -7.7442182e-01  -5.1166963e-01  -9.2726335e-01   7.5468907e-03  -5.7151541e-01   6.5475157e-01   5.2843329e-01   6.3242558e-01  -9.7850352e-01   5.0211363e-01   5.0200608e-01   7.9337007e-01  -3.2296973e-01  -5.1991938e-01  -4.3274135e-01  -2.6183126e-01   4.2417021e-01   7.0720379e-01   1.9182180e-01  -6.6380665e-01   1.5671515e-01   4.0236465e-01  -9.4312306e-01   6.9406672e-01  -3.5966020e-01   5.7547927e-01   2.3901835e-02  -4.0129452e-01  -6.7458846e-01  -4.4628631e-01   3.2644385e-01   4.9843159e-01   3.9682787e-01  -5.3345155e-02   6.0302463e-01   7.7472728e-01   3.0601573e-01   3.5834562e-03  -6.1068131e-01  -3.8976319e-01  -4.3714044e-01   7.2280367e-01  -8.5704460e-01  -6.3607137e-01  -3.3483480e-01  -4.2377960e-01   5.4094204e-01   1.8498965e-01  -3.9078176e-01  -3.0383102e-01  -1.2475671e-01   7.1816903e-01  -9.3133575e-01  -9.4631826e-02  -6.8533548e-01  -5.6164449e-01  -8.9535610e-01  -3.3125863e-01  -2.4263392e-01  -2.2031795e-01  -7.8499547e-01   9.1635198e-01   7.2435144e-01   6.7124307e-01   5.5913853e-01   6.0217967e-01  -5.6761402e-01  -8.7467842e-01   1.3939035e-01   6.3153035e-01   4.5661576e-01   1.6063373e-01  -7.8899377e-01   8.3433163e-03   8.1169134e-01   1.2126392e-01  -7.2657626e-01   9.4827659e-01  -5.7282057e-01  -6.5170157e-01   6.6568301e-01  -4.5367989e-01   5.9133814e-01   5.2406578e-01
   6.1499367e-01   6.7799280e-01   8.1348408e-01   4.1497794e-01  -6.1022385e-01   4.9027670e-02  -2.8106327e-01   8.4975369e-01   1.4386910e-01  -7.3251721e-01   6.9922793e-01   7.9337883e-01   5.5507343e-01  -8.7766784e-01   7.7168585e-01   1.1135011e-01  -9.3357727e-01   9.3605732e-02  -4.2377435e-01  -9.7747865e-01  -2.9357612e-01  -8.5993952e-01  -7.8214442e-01  -2.7457350e-01   8.3126573e-01   8.3437691e-01   6.1209591e-01   3.8747589e-02   4.5394238e-01   7.5398973e-01  -7.0237870e-01  -5.6246392e-01  -2.0513250e-01   5.4679091e-01   3.0810446e-01   9.2200472e-02  -7.8053998e-01   4.3877106e-01  -2.0310848e-01   8.8256385e-02  -4.2789908e-02  -5.8476689e-01   6.5934870e-01  -1.4751857e-01   5.4927323e-01   8.2527259e-01  -1.3718853e-01  -9.8350741e-01   6.3974877e-01  -1.2000446e-01  -5.4119124e-01   2.5228143e-01  -6.3762080e-01  -8.3580932e-01  -4.1318641e-01  -2.7617136e-01   3.3071889e-01  -5.6627250e-01  -8.3095886e-01  -6.7365237e-02   9.1308831e-01   7.3004536e-01   3.4069962e-01  -7.7976130e-01   4.9990735e-01  -2.5872755e-01  -8.1593367e-01  -6.4906631e-01  -1.8739129e-01   8.0465541e-02   7.1127360e-01  -2.0965104e-02  -5.1748035e-01   7.5410274e-01   9.9936584e-01  -7.4353365e-01  -2.3628310e-01   9.0201604e-01   7.2721778e-01  -3.1080943e-01   5.6548949e-01  -5.4948124e-01   8.6738780e-01   8.2699054e-01   9.3961244e-01  -1.6644867e-01   1.3902979e-01  -9.0953055e-01   9.0723987e-01   4.3086335e-01   8.1920753e-02  -1.6631909e-01   4.9151410e-02   3.4422197e-01   8.6775269e-01   2.0934376e-01  -7.0105714e-01  -2.6750208e-03   3.1108286e-01  -9.3414367e-01   3.6049000e-01   9.9809710e-01  -5.3798476e-01   6.3650006e-01   5.6928969e-01  -6.1591866e-01  -8.4973806e-01  -3.4543815e-02   4.8994378e-01   6.6042816e-01  -1.8584332e-02   3.2128579e-01  -2.9355549e-03   1.1595996e-01   9.3139070e-01   7.9524728e-01  -8.6146355e-02   1.5976744e-01   3.9242307e-01   3.1470704e-01  -2.3309690e-01  -8.0333128e-01  -4.7366845e-01   3.9662045e-01   7.9669915e-01  -5.3677346e-01  -4.4055281e-01   2.7969578e-01   1.8656074e-01  -7.6425140e-01   4.7179548e-01   1.0767923e-01   5.3421058e-01   5.4896133e-01   5.2953388e-01  -4.9301262e-01   4.4385962e-01  -3.6981240e-01   1.4633160e-01   3.3966748e-01  -2.6307292e-01   9.6490039e-01   3.1835584e-01   7.1563224e-01  -7.8978331e-01  -4.3083457e-01  -7.3583314e-01   9.7275803e-01   3.4400343e-01   6.0462221e-01   1.2134212e-02   9.1627426e-02  -1.5381677e-01  -1.0191667e-02  -6.9931199e-02   9.1090858e-01   2.2124286e-01   2.8708759e-01   1.6837447e-01   5.2769345e-01   1.9737183e-01  -9.1230782e-01  -2.6820629e-01  -4.1102550e-01   8.8894890e-01   2.4450549e-01  -3.9477492e-01   6.3334684e-01  -1.5063184e-02  -6.6496195e-01   3.1680990e-01   7.0076323e-02  -7.1122606e-01   9.6777055e-01  -8.3177734e-01   9.6873093e-01   8.3144121e-01  -6.6253622e-01   3.0576718e-01  -2.8997835e-02   1.3554848e-01  -9.5489654e-01  -1.8713727e-01   1.1818573e-01  -9.1804650e-01   5.3629524e-01  -3.9600724e-01   4.3949486e-01   6.3794086e-01   7.4009124e-01   4.1455493e-01   2.9672640e-01  -4.1660714e-01  -6.2084912e-01   5.1711627e-01  -2.8731128e-01  -9.4184048e-01  -3.5104733e-02   3.1962727e-01  -8.0566752e-01  -2.1146125e-01  -3.7515292e-02  -1.4760953e-01  -6.3836231e-01  -2.6966153e-01  -3.5991875e-03  -1.2140942e-01  -1.0801428e-01  -8.3710726e-01   4.6085411e-01   5.0021400e-01   2.0176823e-01   1.0100504e-01   1.7118727e-01   1.8588213e-01  -2.9109861e-02  -9.0476188e-01   4.2328507e-01   6.6496845e-01   7.4346821e-01  -1.4125018e-01  -7.8960925e-01   1.1525590e-01   6.4884893e-01   8.1259286e-01  -1.1720018e-01  -5.4981469e-02  -2.8612531e-01  -1.0542175e-01   6.9557542e-01   7.8609959e-01  -7.2679623e-01  -9.9867970e-01   5.7993457e-01   5.7718823e-01   1.3502468e-01  -5.7844409e-01   9.7685126e-01  -2.3049505e-01  -6.1274586e-01   6.5849358e-01   9.7469477e-01  -6.1348024e-01   9.1844880e-01   9.1090911e-01   2.4577395e-01   6.4172053e-01   3.1907697e-01   5.7210324e-01  -7.3613255e-01  -3.4121792e-01   2.6165322e-01   3.9385045e-01  -6.3610816e-01   9.6402948e-01   8.1592812e-01  -8.9742329e-01   8.8931762e-01  -4.4334119e-01  -6.1565273e-01  -5.4391009e-01  -8.7515336e-01  -8.2634981e-01   6.3794989e-02  -8.4044514e-01  -6.8044445e-01  -8.8487138e-01   5.2515712e-01   5.2277968e-01   7.8663245e-01   9.3886503e-01   6.2675892e-01  -4.4100759e-01  -8.0338254e-01   3.5641992e-01  -1.5279615e-01  -1.8341607e-01   9.4979740e-01   2.0327023e-01   9.0571171e-01   1.5946354e-01   4.4058338e-01  -9.8870260e-01   1.4421610e-01  -6.4736464e-01  -9.6716983e-02  -5.6656985e-01   5.6373268e-01   1.5709299e-01  -4.7391990e-01   1.3078801e-01  -8.0145198e-01   6.8516529e-01   9.1564607e-01   8.1939442e-01  -5.8981884e-01   5.0677372e-01   4.2596295e-01  -3.6665510e-01  -7.8518373e-02  -3.4069305e-01   4.2323408e-01   4.3359810e-01   4.3813140e-01   3.7940783e-01  -2.8048554e-01   8.8608187e-01  -3.4352061e-02   2.3051152e-03  -5.6124010e-02  -3.8886406e-01   9.5120384e-01   2.2446670e-02   3.6615921e-01   5.2940736e-01   3.2751687e-01  -6.8789316e-01   3.6821926e-01   5.3873011e-01   3.9289073e-01   3.9993760e-01  -1.5236598e-01  -2.1550031e-01  -4.6523460e-01  -1.5573244e-01   4.3469915e-03  -1.9013601e-01   9.1306742e-01  -8.6244559e-01   7.3903671e-01  -6.9952224e-01   8.3652956e-01  -8.5999383e-01  -3.8891540e-02   8.8525431e-01   9.9403532e-01   8.5680999e-01   5.3906025e-01  -4.8161196e-01   3.2397454e-01  -5.0726392e-01  -8.4236171e-01  -7.1582806e-01  -5.0029684e-01   7.8147845e-01  -6.9910733e-01  -4.6069335e-01  -8.5641904e-01  -1.2560740e-01  -9.5462566e-01  -1.0166673e-01   5.8681128e-01   7.1633220e-01  -8.6517862e-01   8.7554444e-01   6.6825965e-01  -2.5885566e-01   5.3843971e-01  -7.1367868e-01  -9.8422792e-02  -2.0564530e-01   6.2111979e-01   3.2556378e-01   3.1132765e-01  -2.8062330e-01   4.0177386e-01  -2.8666871e-01   2.1174615e-01  -5.2646062e-01   5.5924472e-01  -8.8897139e-01   9.2941836e-01  -9.0782589e-01  -8.9277798e-01   1.1416822e-01  -1.3580245e-01   6.4842218e-01   2.2975059e-01   5.4527061e-01  -2.9936317e-01  -7.0848551e-01   2.6141084e-01  -8.2388380e-03  -7.5898816e-01  -4.8297023e-01  -4.9352973e-01   9.5810364e-01  -8.8094609e-04  -1.8628040e-02  -4.7002757e-01   1.4662597e-01  -8.8726857e-01   6.3657971e-01  -1.9922865e-01   3.1813752e-01  -7.3425988e-01   6.9875805e-02  -1.4454629e-01   6.6542303e-01  -8.4538951e-01  -6.5200892e-01  -5.2673389e-01   4.2947070e-01   6.4041922e-01   7.4233101e-01   3.0104248e-01   4.4896323e-01  -9.9222892e-01   2.1879672e-01  -5.2150079e-01   6.5287870e-01   2.6363289e-01   7.3945059e-01   2.7502177e-01  -1.0472688e-01  -2.1119877e-01  -9.1357488e-01   7.7466682e-01   5.1457765e-01   6.6306656e-01   4.8715179e-01   9.2697286e-01  -5.1534014e-01   1.1386235e-01  -1.7184518e-01   3.3791997e-01   4.8165924e-01  -2.5560941e-01   5.3624241e-01   7.4728913e-01  -7.7771911e-01  -1.0710087e-01  -2.0268233e-01   3.7347565e-01   9.2859246e-01  -6.9746397e-01  -8.1595629e-01   1.5828008e-01   7.4855841e-01   5.0396857e-01  -6.5147255e-01  -7.1368983e-01  -5.0294633e-01  -6.5559313e-01   8.7556061e-01   4.0584775e-01   8.4039298e-01  -2.9937022e-01   8.9150357e-01   2.7588068e-01  -6.3312192e-01   5.3436588e-01   9.9456058e-01   6.4280840e-02  -9.7444892e-01   5.2832988e-01  -8.9179182e-02   4.7114734e-01  -1.6209954e-01   6.9441592e-01   4.8218745e-01  -9.0038591e-02  -1.3387744e-01   6.0039461e-01   8.8374361e-01  -1.9947440e-01  -5.1880672e-01  -8.1054807e-01   5.1328472e-02  -5.7722183e-01  -1.8520831e-02   8.3649118e-01  -1.5291335e-01   3.9686142e-01  -4.1163087e-01  -6.3471539e-01   8.1103546e-01   3.4798139e-01   8.5336704e-01  -2.4047835e-01   2.8024643e-02  -2.9238227e-02  -9.1216946e-01  -5.9279490e-01   8.5426823e-01   9.5144080e-01  -4.4892958e-01  -9.8341397e-01   9.0070904e-01  -2.6911789e-01  -5.2882551e-01   8.0143638e-01  -5.1336605e-01   4.8046626e-01   5.6606221e-01   1.3341751e-01   9.3257592e-01   2.8726999e-01  -2.0147487e-01   7.7214207e-01  -1.7630172e-01   3.2406559e-01   3.3750669e-01  -9.6296991e-01   9.7933557e-01   5.5780132e-01   9.2602837e-01  -9.8658292e-01   9.3574424e-01   9.6610020e-01  -3.2544480e-01   9.3487728e-01   8.2741122e-01  -5.9449880e-01  -7.4890112e-01  -9.7822898e-01   8.5737300e-01  -8.2102882e-01   8.4516670e-01  -1.9722041e-01  -6.5149724e-01  -5.1305508e-01   5.3298531e-02  -6.6026287e-01   1.5849225e-01   6.7421994e-01  -4.7841155e-01   5.2921539e-01   4.3558686e-01   1.7860488e-01   1.5627175e-01  -2.4369249e-01  -5.2739812e-01   6.8314932e-01  -1.3979194e-01  -4.6921515e-01  -8.0919101e-01   9.1124571e-01  -5.5013007e-01   8.6080939e-02  -4.8242839e-01   5.6613971e-01   5.4630305e-01   9.3971601e-01  -8.3782939e-01  -2.8819979e-01   6.7811819e-01  -6.6501451e-01  -4.9852145e-01   4.2984676e-01   9.0440382e-01  -5.8743967e-01   6.6522649e-01   7.2109419e-02  -6.0940080e-01   6.6705928e-01  -2.1066488e-01  -3.5730363e-01   5.1179414e-01  -8.7169350e-01  -7.9425193e-02  -7.2197454e-01  -1.2547651e-01   9.6323139e-01   8.1978877e-01   4.6406847e-01   9.1684554e-02  -1.4765939e-01  -9.3560315e-02  -5.3480861e-01   1.2198662e-01   5.8554632e-01  -4.7052486e-01   2.2033183e-01   3.9552523e-01   4.4493318e-01   2.2496971e-01  -9.9373799e-01   3.6552584e-01  -6.4382298e-01   5.9216631e-01  -4.0207757e-01   8.1946030e-01  -2.6577620e-01  -3.2785177e-02  -2.6581781e-01  -5.2707635e-01  -9.4085146e-01   6.4644799e-01   4.3934048e-01   4.0937300e-01   7.2391231e-01  -9.1695323e-01   3.9273686e-01   4.7868504e-01   4.7711600e-01  -8.0237608e-01   4.8886161e-01  -1.2946410e-01  -7.9517419e-01   2.2322242e-01  -8.8055150e-01  -4.0532459e-02   7.6942824e-01   3.5451667e-01   2.9154483e-01  -4.3641542e-01  -9.1733968e-01  -7.7906339e-01  -8.8570115e-01   9.9252251e-01  -7.5439473e-01  -3.1157414e-01  -1.4328872e-01   1.8229885e-01   1.6035329e-01  -4.4919453e-01   7.3973197e-01  -8.4707251e-02   6.0268737e-01  -9.5823630e-01  -2.7422564e-01  -7.0293327e-01  -4.4312900e-01   9.2816163e-01   1.3460203e-01  -4.5946901e-01   3.0099538e-01  -6.8134839e-01   6.9832574e-01  -5.6569541e-02   4.4506703e-01  -5.2762115e-01  -1.3427702e-01  -3.6550928e-01   1.6205002e-01  -9.9241254e-01   1.3192896e-01   6.2173837e-02   1.0952893e-01   4.6274651e-01   9.1729885e-01  -3.0922565e-01  -3.2066722e-01   8.5317811e-01  -6.8695197e-01  -8.0474652e-02   4.8480327e-02   9.1405199e-01  -7.0171636e-01  -1.5492488e-01  -5.8631628e-01  -2.5520026e-01   9.0916495e-01   6.4310117e-01  -2.8771036e-02   2.9664293e-01  -7.2856184e-01   4.5110932e-01  -9.9025773e-01   9.9057070e-01  -5.9835639e-01  -5.3572295e-01   4.2135848e-01   4.6350476e-02  -3.4065501e-01   4.7508432e-01   2.5675796e-01  -6.5491172e-02  -1.3727468e-01  -6.3267302e-01  -6.5201228e-01  -9.5059419e-01  -4.6887648e-01   2.2315544e-01  -7.8377202e-01   6.8222679e-02   2.8568660e-01   7.6669991e-01  -4.6824832e-01  -2.7850589e-01   9.8382108e-01   5.1252281e-01   6.5788578e-01   8.4784739e-01   6.1824578e-01   4.7374675e-01  -7.3354188e-01   8.7341645e-01   9.7240061e-02   6.9866872e-01  -8.6359585e-01   9.6111670e-01   9.0395216e-01   9.6078788e-02   1.4946139e-01  -4.8866554e-01  -2.4154018e-01   3.0753718e-01   9.3641310e-01  -2.1497934e-01   3.5132995e-01  -2.0693746e-01  -3.8762186e-01  -2.9577467e-01  -1.6522159e-01  -4.4814215e-01  -5.9561850e-01  -2.9310488e-01  -7.2618816e-02   7.0181867e-01   2.5098158e-01  -1.7496368e-01   7.5310989e-01   6.1218053e-01  -7.7792548e-01   9.5017117e-01   1.5035369e-02  -4.5194600e-02  -6.0369136e-01   3.8966037e-01   5.6360081e-01   8.3916038e-01  -4.9520439e-01  -2.8937792e-01   4.7318919e-01  -4.3429076e-02  -5.9938189e-01   3.7253273e-01  -3.5385994e-01   2.1175098e-02  -5.4962891e-01  -5.1090421e-02   1.9908009e-01   8.7249421e-01   9.6588878e-01  -1.8082000e-01   4.1047552e-01  -8.8318036e-01   2.9893237e-01  -1.9652602e-01   6.5510052e-01   1.0424778e-01   1.7814761e-01  -6.3984491e-01   3.6999690e-01  -9.1348981e-02   2.4036360e-01   2.1967719e-01  -5.5788423e-01   1.2788339e-01  -7.6112065e-01  -9.0879220e-02   9.1471207e-02  -4.7469996e-01  -1.1031542e-01   8.4044277e-01   7.2365864e-01   5.7764701e-01   9.9023348e-02   2.7196710e-01   3.5579499e-01  -9.7027410e-01  -9.0973078e-01  -7.2320130e-01  -6.4073958e-01  -7.9049001e-01   7.6702357e-02   3.8858327e-01  -3.9716749e-02   6.8108989e-01  -6.6901182e-01   9.6602955e-01  -6.3562821e-01  -7.5211184e-01  -1.8140726e-01   8.6466759e-01   4.1395453e-01   6.5382572e-01   2.8838056e-01  -6.1347745e-01   2.6723918e-01   5.9265852e-01  -1.0820550e-01  -4.7128050e-01  -4.1811584e-01  -5.5610941e-01  -1.8612198e-02   7.4211194e-01  -6.6959071e-01  -1.9352359e-01   5.7110242e-01   5.9412448e-01  -9.0222197e-01  -3.2316122e-01   5.8235452e-01  -4.8741747e-01  -7.5336908e-01   5.2664992e-01   9.3014328e-01  -4.1121061e-02  -8.3404084e-01   8.6771586e-01  -2.9948489e-01  -5.4680986e-01  -7.7404882e-01  -2.4551488e-01  -8.4791494e-01   7.6498090e-01   3.0255519e-01  -1.0746909e-01   4.9300822e-01  -8.3018485e-02  -1.5140532e-01   3.3159807e-01   8.8828804e-02   6.3472362e-01  -1.3053360e-01  -9.7682916e-01  -3.0308169e-02   7.6650873e-01  -3.0386589e-01   3.9325414e-01   3.8636928e-01  -3.1181843e-01  -4.8544343e-01   2.6988699e-01   4.7920263e-01   4.8500560e-01   1.4029135e-01  -4.6226489e-02  -7.0021007e-01   3.3348877e-01   2.7086402e-01   6.5730170e-01  -3.9950188e-01  -5.9655800e-01  -1.0750297e-01  -9.2161733e-02  -1.1063289e-01  -6.5101843e-03  -7.5068309e-01   1.2486494e-01   2.7282913e-01   5.7965896e-01   9.8731386e-01   4.2808056e-01   6.9430580e-01  -5.4290963e-01  -3.6531269e-01  -7.4341247e-02  -8.2370496e-01   5.6203578e-01  -4.6093928e-01   2.4101516e-01  -4.8651634e-01  -2.6230345e-01  -8.4862810e-02  -5.1085731e-01  -3.5078454e-01   2.7894136e-01  -9.4031614e-01   3.1105621e-02  -2.4073053e-02   4.4982391e-01   6.9929506e-01   3.6797606e-01   2.0054636e-01   5.7861887e-01  -2.9004473e-01   9.8175041e-01   3.2849537e-01  -1.5693244e-01  -8.3070676e-01   1.4968833e-01   2.7270305e-01  -6.3941561e-01  -2.0740393e-01   1.6365475e-01  -5.5590287e-01  -4.8808296e-01   5.5850004e-01  -8.1903049e-01   4.0121806e-01  -2.3107813e-01  -4.1005274e-01  -6.0344726e-01   1.4979593e-01  -7.5278298e-01   8.9159808e-01   7.0111556e-01   6.5345409e-02   8.3723751e-01   6.8753282e-01   5.6679530e-01   1.2345222e-01  -8.5553580e-03   4.1852592e-01  -7.2719875e-01   5.5507742e-01   7.1181449e-01  -5.8358749e-01   6.6814617e-01  -1.7913592e-02   3.9891835e-01   8.6678110e-01   1.7853570e-01  -3.1288317e-01  -9.1415665e-01  -2.9352304e-01  -5.7526168e-01   4.7938141e-01  -6.5652829e-01  -6.5272780e-01  -3.5462458e-01  -5.9700088e-01   2.4738054e-01  -8.6526776e-01   9.3658711e-01   2.5343029e-01   8.6305257e-01   8.8464280e-02   6.6860384e-01  -1.4426146e-01   3.7170708e-02   4.2352783e-01  -5.3448312e-01   4.5532827e-01   8.8562032e-01  -3.4071385e-01   2.8598463e-01  -3.1070044e-01   8.5445518e-01  -1.5117075e-01  -7.0013562e-01   7.5534750e-01  -8.0711348e-01  -2.5681151e-01  -8.9144755e-01   4.0873899e-01  -6.5671147e-01  -4.8059760e-01   9.0553002e-01  -4.6059693e-01  -7.5684145e-01   8.5184644e-01  -7.9616225e-01  -3.6870044e-01  -7.3353288e-01   8.8750160e-01   1.0410895e-02  -7.8370153e-01   5.7742296e-01   4.9731535e-01   7.2090502e-01  -4.6901389e-01  -2.2652385e-01   6.1656271e-01   9.7645994e-01   3.1227370e-02   3.0198506e-01   1.3961335e-01  -9.7908149e-01  -4.7455390e-01  -2.3528387e-01   9.6660636e-01   6.3301631e-01   3.6847439e-01  -4.8386344e-01   9.9555078e-01  -5.4683819e-01  -5.4038307e-01  -1.0273339e-01  -6.1644619e-01   9.0987565e-01   8.1466184e-01   2.9527372e-01   4.0823112e-01   3.2642336e-01  -8.8474806e-01  -3.3085348e-01  -6.2176225e-01  -2.8531221e-01  -6.7872780e-01  -8.4941838e-01   1.3213600e-01   7.7431972e-02  -2.2591280e-01   4.7967543e-01   8.6157210e-02  -9.8916990e-01  -2.9206804e-01   9.9961091e-01   2.4603234e-01  -5.6815513e-01   6.2444647e-01  -4.2068887e-01   2.7205437e-01  -2.3540297e-01   2.0161402e-01
   6.5646184e-01  -8.3091738e-01  -1.7552392e-01  -4.5785103e-01   4.4179673e-01  -9.3830897e-01  -2.3732904e-01   2.9743789e-01  -2.2174885e-02  -6.4658583e-02  -4.2527072e-01   5.7759593e-01  -5.0252600e-01   6.0701449e-01  -4.0309176e-01   5.1357142e-03  -7.0355316e-01  -9.4861629e-01   3.2918891e-01  -7.9871968e-01  -2.2882257e-01   1.9352508e-01  -1.1022846e-01   3.2102800e-01   5.9387385e-01  -6.1965725e-01   2.8119252e-01   3.9522658e-01   7.0381409e-01   4.9751138e-01  -8.0944219e-01  -3.4866873e-01   7.8081289e-02  -5.3346692e-01   3.7439245e-01   4.1012463e-01   9.3551994e-01  -5.3111360e-01  -3.3873803e-01  -1.5443050e-01   9.8060155e-01  -6.1312864e-01   6.8053668e-01  -8.6708009e-01   6.9268152e-01  -5.5830920e-01   4.0686931e-01   3.2500895e-01   7.1218158e-01   1.3429204e-01  -3.4650749e-01   3.8067246e-01  -8.0811156e-01  -1.7454637e-01  -4.6741401e-01   6.3010491e-01  -9.2633629e-01  -6.4470233e-01   8.9054108e-02  -4.1547563e-01   5.8643309e-01   2.6495165e-01  -1.4724855e-01  -3.2952929e-01   6.5891442e-01  -6.7282160e-01   1.2270955e-01  -4.9371491e-01  -5.4494974e-01   5.6122382e-01  -1.8031203e-01  -5.6293530e-01  -9.2177343e-01  -1.5811930e-01  -8.1907639e-01  -4.5699968e-01   7.9147403e-01   9.4438724e-01  -1.2809685e-02  -5.9593251e-01  -7.4203789e-01   1.0575506e-02  -3.8323182e-01   1.3396323e-01  -8.2799226e-01   9.7239989e-01   1.6451103e-01   4.5833330e-01  -3.1548287e-02  -3.0169426e-01   3.6305882e-01  -3.2624680e-01  -1.8425158e-01  -9.3897161e-01  -6.6385676e-01   4.5734724e-01   9.5654047e-01   2.7663395e-02   8.9062809e-01  -2.2186084e-01   2.2855910e-01   3.2792223e-01   4.5754314e-01  -3.1356938e-01   3.1696406e-02   4.1021199e-01   7.5757283e-01  -3.8440282e-01  -6.1173455e-01  -3.6369694e-01   5.5620855e-01   6.5441329e-01   9.9337472e-01   5.2824491e-01  -3.0698495e-01   2.6749381e-01  -6.2373922e-01  -6.7787715e-01   5.8592912e-01   4.2309030e-01  -4.8374852e-01   3.9686026e-01  -8.4769455e-01  -8.4211026e-02   1.0392870e-01   2.1708858e-01   7.4798653e-01   2.0938532e-01  -7.6177304e-01   2.5486422e-01  -2.9576658e-01  -8.2622653e-01  -5.0676168e-01   1.5476975e-01  -8.4866859e-01  -3.0263577e-01   1.2465672e-01  -8.7194034e-01   4.6478282e-01  -6.1129443e-01  -1.7559052e-01  -7.5887874e-01  -8.6936498e-01   8.9999306e-01  -8.7010208e-01   4.2402748e-01   2.9768913e-01  -7.1311737e-02  -4.6422073e-01   2.4185742e-01  -3.4005944e-01  -3.0202644e-01  -4.3636897e-01   6.1520600e-01  -2.5364969e-01   8.1854490e-01  -9.3269408e-01   2.1543699e-01   1.3881001e-01   4.8447767e-01   1.6055263e-01   5.3210605e-01   1.8938187e-01   9.3936146e-01  -5.2864166e-01   5.1088956e-02  -4.8661426e-01   6.3394368e-01   8.0956955e-02  -4.1017159e-01   6.7491039e-02  -5.8983424e-01   9.3649296e-01  -8.5263368e-01   3.7900252e-01   3.9101992e-02  -4.2485195e-01  -2.1170670e-02  -5.9655752e-02   9.5656466e-01  -9.7229536e-01  -8.5341321e-01  -6.4911732e-01   5.7326607e-01   4.3360585e-01  -7.3597127e-01   9.5905949e-01  -1.0011048e-01  -1.2068635e-01  -5.7889838e-01   6.4611386e-01  -8.3133936e-01  -7.3059739e-01   8.6296018e-01   9.1931827e-01   6.0773650e-02   5.2156508e-01   4.9687826e-01   1.2273878e-01  -3.9375350e-01  -7.7062090e-01   6.3541785e-01   5.5281416e-01   7.7278880e-01   4.0624663e-01   1.0684557e-01   9.7329323e-02  -1.8802558e-01  -6.6982854e-01   5.1741929e-01   8.4524429e-01  -2.6818654e-01  -5.7241588e-01  -9.5703443e-01  -5.9730188e-01  -3.4385208e-01   2.9228019e-01  -9.7645272e-01   5.9254190e-01   5.3815093e-01  -5.8909962e-01   9.5429720e-01   6.4592641e-01   8.1135909e-01   6.2548352e-01   4.3224549e-01  -1.9721180e-01   9.8983853e-01  -9.4175102e-01  -5.5275439e-01   1.4531741e-01   2.4481006e-01   3.1917889e-01  -3.0158030e-02   5.4641186e-01   5.5224278e-01  -6.9080991e-01  -2.6373339e-02  -3.6055273e-01   2.6390939e-01   2.6998458e-02   3.6763399e-01  -5.4902509e-01  -4.8530084e-01   5.2370545e-01  -8.1813482e-01  -9.0632620e-01  -8.7798421e-01   3.7543467e-01  -4.9507885e-01   6.5637471e-01  -2.6519656e-01   4.2189586e-01  -2.0599694e-02   8.5111257e-01  -4.6539434e-01  -9.6025255e-01  -1.4551544e-01  -8.1321824e-02  -7.3619300e-01   8.6989033e-01  -3.2203606e-02  -8.7101140e-02   3.4334953e-01  -9.2314662e-01   1.2140265e-01  -1.7449354e-01   6.3947491e-01   1.6788037e-01   2.4422497e-01  -8.3879062e-01   4.6195998e-01   5.3082447e-01  -8.6272369e-01  -4.6540417e-01  -8.2967942e-01  -2.5435463e-01   5.2854019e-01  -7.6284757e-01  -1.1006401e-01  -4.4829395e-01  -7.2297223e-01   9.8387981e-01   6.1367687e-01   8.8538809e-01   5.4304033e-01  -2.9188357e-01  -1.0243130e-01  -9.9770524e-01  -7.6226001e-01  -7.4077553e-01   9.1100404e-01   4.0822435e-01   6.2088919e-01  -4.0624682e-01   4.6977319e-02  -8.9319469e-01  -1.0658666e-02   3.8009455e-01  -2.7765144e-01   4.0736791e-01   3.6347382e-01  -6.2790446e-01   8.4203542e-01  -1.2807977e-01  -3.9072533e-01  -1.7309192e-01   6.9720899e-01  -7.6434557e-01  -8.6340987e-01   1.6945566e-01   6.8798007e-01  -4.5253008e-01   3.5947592e-01  -3.5777810e-01  -9.1857871e-02   1.8586554e-01   2.5334290e-01  -3.9090803e-03  -4.6122774e-01  -6.8113121e-01  -1.3408078e-02  -6.1084237e-01   9.1794148e-01   7.7619565e-02   1.5804559e-01   2.3684035e-01  -2.2846767e-01   1.5018020e-01  -7.9167375e-01   4.1575009e-01  -5.0313659e-01  -7.6540841e-01  -8.3908228e-01  -4.3345896e-01   3.1743824e-01   4.9253187e-02   4.3609126e-01   6.9021398e-01   1.5004856e-01   5.2205716e-01   4.7971739e-01  -5.5268698e-01  -3.3918278e-01  -7.9648033e-01   6.4527569e-01  -2.2436065e-02   7.2542732e-01   2.5817354e-01  -2.4858935e-03   5.9660536e-01  -1.0835192e-01   5.5401099e-01  -7.3000559e-01  -3.0840448e-01  -5.5025753e-02  -7.5837263e-01  -8.7100168e-02   7.9859280e-01  -7.9930324e-02  -3.9168960e-02   7.4423632e-01   3.7332440e-01   9.9763895e-01  -6.2589989e-01  -1.9782867e-03  -4.2383248e-02  -9.0737013e-01  -1.7906835e-01  -4.5774831e-01   3.2648869e-01   6.5077471e-01   4.5827642e-01  -8.1071495e-01  -1.3505860e-01  -3.2276468e-01   2.4855806e-01  -6.0170186e-01   1.1461178e-01  -1.7622789e-01   6.5787620e-01  -2.2900796e-01   4.2603631e-01   4.5248317e-02  -2.8828788e-01  -9.5859817e-01  -2.1973502e-01  -7.8018396e-01  -5.8639780e-02   2.5485247e-01  -7.3816182e-01  -9.0611426e-01   6.3175663e-01  -5.9111668e-01  -4.1595769e-01   9.4012943e-01   9.8113306e-01   4.4748550e-01   4.8021522e-02  -4.8826625e-01  -6.1470748e-01  -3.3964973e-02   9.6599226e-01   2.7641809e-01   3.5941895e-01   9.2670238e-01   7.2980496e-01   6.9755214e-01   9.5663255e-01   6.8054088e-01  -3.4739274e-01   1.1187393e-03  -4.7564887e-01   3.4975978e-01  -5.4009782e-01  -7.3421305e-01  -7.9050064e-02  -5.4986970e-01   8.4063353e-01   7.1405338e-01  -8.4693814e-01  -9.9011575e-01   6.2152017e-01  -5.1050287e-01   7.8572298e-01   3.4801699e-02   6.4658250e-02   5.9714802e-01   9.2980914e-01  -9.9000284e-02  -6.0330587e-01   1.1677581e-01  -2.6082863e-01  -6.3840547e-01   7.0593979e-01  -1.4839093e-01  -9.3741011e-01  -1.9814369e-01   4.5717474e-01  -9.5978457e-01   6.7802161e-01   1.7897124e-02  -5.1007228e-02  -5.7511047e-02  -5.0125673e-01   3.0372549e-01  -9.3514254e-01  -2.9588680e-01   4.5585341e-01   6.7470035e-01  -6.6954220e-01   2.4542074e-01  -6.2311484e-02   4.4040585e-01   1.5853806e-01  -3.7275269e-01  -8.1535374e-01   6.1021996e-01   5.3906883e-01   2.1877379e-01  -6.8541167e-01   4.2140636e-01  -4.3659663e-01   6.6625160e-01   6.9026829e-02  -7.7226066e-02  -4.7758511e-01  -2.5219807e-02   3.2175995e-01   9.3509794e-01  -4.9119015e-01   2.6686212e-01   9.2911862e-01  -4.5942891e-01  -4.8600047e-01  -8.1931817e-01   9.2405754e-01  -4.9481469e-02  -2.4597144e-01   8.7868161e-01  -5.4110370e-01   6.9751367e-01  -1.3186127e-01   4.3566457e-01  -2.9744460e-01   5.6891737e-01  -7.4732963e-01   2.2130930e-01   1.3901521e-01  -2.6634122e-01   2.2507975e-01   7.4564326e-01  -1.5446078e-01  -2.0964444e-01  -8.9585964e-01   2.0679451e-01   7.4838496e-01   3.9509935e-01   9.7377689e-01   6.3899869e-02  -1.4144883e-01  -3.6986855e-01   6.3534090e-01   2.3989005e-01  -2.7920012e-01  -1.1404398e-01   1.3447841e-01  -4.0235589e-01  -7.5459182e-02   6.0215199e-01  -5.9004922e-01  -6.7309748e-01  -6.3661268e-01  -1.4904308e-01   3.5067049e-01   6.3569439e-01  -6.9725797e-01  -5.7158834e-01   9.0700602e-01  -4.3053663e-01  -7.1266477e-01   4.7187140e-01   3.7022288e-01  -8.2059963e-01   7.1575981e-01   2.6756597e-01   4.3989456e-02  -8.3948695e-01  -4.7997101e-01   4.6743302e-02  -8.6411345e-01  -3.8887036e-01  -5.9457092e-01  -5.1843949e-02   6.8209725e-01   5.4906957e-02   1.6938606e-01   2.7532084e-01   9.4136529e-02   2.2783431e-03   8.7952347e-01   1.4266451e-01  -9.1071422e-01   7.1560913e-01   6.8733196e-01   6.1193912e-01  -1.5594251e-01  -3.4327164e-01  -4.3000913e-01  -4.4920335e-01   2.1151217e-01   3.4566894e-01  -4.0977081e-01   5.5308540e-01   2.5894646e-02   7.0538978e-01  -1.9522984e-01   6.9493547e-02  -2.4379701e-01   1.0796168e-01   8.9007880e-02  -5.6935753e-01  -6.4009423e-01   8.9958479e-01   6.5075398e-01  -4.5222962e-01  -4.3873337e-02  -6.0167586e-02  -5.5890632e-02  -9.2983483e-03   7.0531394e-01  -1.8734758e-01   2.4880324e-01  -1.1666589e-01  -2.0623980e-01  -1.5884705e-01  -3.6051079e-01  -4.4847177e-01  -2.8462079e-01   2.9201839e-01   6.0362580e-03   3.2257814e-01  -1.6132170e-01  -2.6305036e-01  -5.5769245e-01  -9.6026008e-01   3.0940461e-01   7.1776977e-01  -9.6346781e-01   6.7472473e-01  -4.2048649e-02  -5.1978198e-01  -8.9267774e-01  -8.6443795e-01  -4.0469067e-01   6.5069927e-01  -5.2532517e-01   4.8306500e-01   7.9921397e-01  -2.2836243e-01   7.3746904e-01   1.6908335e-01   6.2797458e-01   4.2156988e-01  -4.2185706e-01  -3.7368862e-01  -8.5984892e-01  -7.2464308e-01   6.5865768e-02  -6.0991546e-01   3.5187991e-01  -1.8235464e-02   7.5350845e-01  -8.5029324e-02  -8.1545893e-01   2.6182242e-01   8.5383926e-01  -7.2400209e-01   6.1844004e-01   9.7273906e-01   6.5681528e-01   8.4995053e-01   9.7082232e-01   2.2563003e-01  -8.4259680e-01  -5.7521264e-01  -3.0624457e-01   4.1446088e-01   1.4540527e-01  -1.8543396e-01   6.5914060e-01  -7.1706911e-01  -5.0174814e-02  -4.5907861e-01   3.5419666e-01   5.9626897e-01   7.2175534e-02   5.9415069e-01   8.2962948e-01  -6.5669509e-01   9.8629209e-01   4.2548608e-01   7.1654566e-01  -6.6176540e-01  -9.7991983e-01   2.9875045e-01  -9.6868371e-01  -6.8683932e-01  -9.3590322e-01  -6.0509936e-01  -4.2888987e-01   2.4717026e-01  -1.6653683e-01  -1.5251424e-01  -6.4120159e-01   1.8432582e-01  -4.6310388e-01   7.5737397e-01   8.5449297e-02   4.1567759e-01   5.8448300e-01   4.9257333e-01  -9.4578273e-01  -9.5349917e-01  -6.9801753e-01  -6.2859054e-01  -6.1269883e-01  -8.9500721e-01  -7.1282867e-01  -6.9947985e-01   3.6113150e-01   8.7943488e-01  -5.8653641e-01  -7.5252463e-01  -2.1872867e-01  -2.4806388e-01  -5.0784425e-01  -2.2176149e-01  -1.4651620e-01   3.6577813e-01  -5.4809626e-01   9.1466222e-01   4.5602288e-01  -9.6640620e-01   9.3298537e-01   1.0937604e-01  -5.6350357e-01   8.3055929e-01   7.7394665e-01   4.5344355e-02  -5.1304656e-01   2.1894788e-01  -6.7777403e-01  -3.3744583e-01  -8.1496740e-01   1.2013708e-01   9.9346502e-01  -9.4592088e-01   3.1475989e-01  -3.0503507e-01   8.2535971e-01   4.8208507e-01   9.8836439e-01   5.2931140e-01   2.2751193e-01  -3.2977605e-01   2.7555619e-01   2.0690753e-01  -2.8850803e-01  -8.7414030e-02  -2.1018587e-01  -2.8545885e-01   2.3589309e-01   7.3171389e-02   5.3467579e-01  -3.0285173e-01   6.0486931e-01  -3.7661877e-01   3.5354682e-01  -1.5104815e-01  -6.5004930e-01  -2.2099091e-01   5.0415227e-03   6.6319999e-01   3.9014340e-01  -4.9728131e-01   4.1483197e-01  -9.0230765e-01  -5.5714660e-01   1.4758365e-01  -5.6384363e-01  -7.7308908e-01  -6.3667051e-01   6.1234177e-01   1.9785259e-01   1.9788149e-01   7.2444909e-01  -7.1191239e-01   8.2202913e-01  -4.1314017e-01  -6.8229485e-01   7.3868007e-01   5.5466239e-01  -3.1653203e-01   1.5610192e-01   6.0155729e-01  -7.1015584e-01  -5.5377543e-01  -5.9776225e-02   7.3728415e-01   8.1183208e-01   1.4946737e-01  -6.9932278e-01   6.6723170e-01   3.9909771e-01   8.0514707e-01  -3.7475109e-01   5.6674423e-01   1.7298500e-01   5.3777600e-01   9.0806145e-01   1.6695303e-01  -6.6055084e-01   5.3713357e-01  -7.3683272e-01  -4.9664095e-01  -7.7846863e-01  -1.0834623e-01  -7.0694495e-01  -4.7396384e-01  -4.1090360e-01  -7.7329786e-01  -1.8458831e-01   1.1111499e-02  -6.5030380e-01   8.3718889e-01  -8.4006913e-01  -2.0727661e-01   3.4518937e-01  -3.0277377e-01   3.5024254e-01   9.4758578e-01  -3.2000314e-01   9.3600364e-01  -1.4319606e-01  -4.1760806e-01  -2.5077741e-01   8.9628089e-02   6.9899221e-01  -5.2424212e-02   7.3526550e-01  -6.3400982e-01   5.8610610e-01   1.6529642e-01  -5.7028031e-01  -2.1538013e-01   1.7182133e-01  -2.2063689e-02   3.8016248e-01  -2.6601036e-01   2.5415765e-03  -5.3706903e-01  -6.8148531e-01  -7.9860417e-01   6.7336344e-01   2.8209550e-01  -1.2464414e-01  -6.8009772e-02  -4.1137794e-01   7.5246498e-01  -2.9120429e-01   2.5711499e-01   7.7624201e-01  -3.6437506e-01  -5.6140700e-01   3.9208308e-01   3.4682769e-01  -1.4441206e-01   8.8423183e-01   2.9502072e-03   5.4908477e-01   2.2479525e-02   3.4952234e-01  -6.0607399e-02   7.2916078e-01  -1.9672657e-01   6.8152961e-01  -3.4165376e-01   8.0169835e-01  -8.7896871e-01  -1.5999380e-01  -3.5232764e-01  -2.0191439e-01   3.4199448e-01  -9.8667355e-01  -2.1521312e-01  -7.5172301e-01  -6.0404465e-01  -6.6976120e-01  -7.5906080e-01  -7.4912358e-01   2.5410204e-01   3.7129672e-01   4.6070777e-01   5.7154768e-01  -8.5404409e-01  -9.5791612e-01  -8.6583456e-01   1.6047948e-01   6.3121200e-01  -2.1068679e-01  -2.7401622e-01  -1.0300310e-01   3.8451060e-01   8.9095737e-02  -5.7423426e-01  -6.6814751e-01  -9.5645215e-01  -8.6561132e-01   2.8619981e-01   1.6321135e-01  -4.0737168e-01   5.5877808e-01   6.7463690e-02  -9.6384484e-01   9.7268185e-01  -7.4955170e-01   9.7735108e-01   4.1167850e-01  -4.9837612e-01  -6.6776731e-01  -7.9597043e-01   2.7545654e-01   5.6616756e-01  -5.3604902e-01  -4.3425157e-01   9.0640228e-02   7.2918148e-01   1.2655666e-02  -8.8947696e-01   9.7445618e-01   3.1337525e-02  -2.9252222e-01   4.5486417e-01   8.9835981e-01  -3.5831880e-01  -5.1805383e-01  -6.6284191e-01   9.1278555e-01  -4.5091171e-01   9.4821816e-01  -6.7966865e-01   6.0004312e-01  -2.4061783e-01   5.9331690e-01  -7.1304565e-01  -5.8587415e-01  -9.8514500e-01   9.0144429e-01  -2.9680329e-01   5.9586344e-01   9.6632058e-01   1.5106681e-01   5.8282793e-01   1.5328468e-01   3.6591297e-01   1.0137883e-01  -9.6218422e-01   8.4514877e-02   2.6614656e-01   4.7697497e-01  -2.3206054e-01  -3.1366004e-01  -8.8709980e-01   6.4892218e-01  -9.8262153e-01   4.5420795e-01   4.3182369e-02   2.3994394e-01   3.6886801e-01  -2.9028905e-01   8.9429981e-01   8.8579034e-01   5.5339769e-01   9.0167003e-01   9.6372917e-01  -2.9828438e-01  -1.6761883e-01   9.8383847e-01   5.4224362e-01  -7.8191707e-01  -7.0209535e-01   2.2635356e-01  -6.9702621e-01   4.1736509e-03   4.9941583e-03  -4.0542592e-01  -7.8331300e-01   7.7228012e-01   3.4775237e-01  -9.8315185e-01  -9.8179906e-01   2.7501409e-01  -3.9747413e-02  -6.2218913e-01  -5.1011546e-01   9.3648107e-02  -9.9543959e-01   7.6632605e-01  -8.1165599e-01  -4.9557509e-02  -4.9107488e-01   5.7469866e-01  -9.4066799e-01   9.0332312e-01  -5.1224468e-01  -9.6441920e-01   5.5551216e-01  -6.2534579e-01   3.3765512e-01   7.2929508e-01   2.8939036e-01   7.6710512e-01   4.7017411e-01   1.5245562e-02  -1.5796211e-01   7.5328711e-01   6.4057287e-02  -2.1226066e-01  -3.8628042e-01   6.1600221e-01   3.8004106e-01   3.1068679e-01   7.2419013e-01  -2.0862033e-01  -6.1014584e-01  -3.1672258e-01   5.2348622e-01   5.8279717e-01  -6.8251530e-01  -6.9160931e-01   9.8428070e-01  -7.8483339e-01  -5.6376276e-01  -9.6340247e-01   2.9829135e-02  -3.7050398e-01   7.2211289e-01  -7.5410025e-01  -6.8745144e-01   4.8583950e-01   1.4430682e-01  -5.7994569e-01  -9.1058222e-01   9.5430680e-01  -6.2780968e-01   3.7422365e-02   3.4728238e-01   1.7176830e-01   6.8590266e-01
  -8.7421285e-01  -1.9217372e-01   5.3017369e-01   7.1616912e-01   3.2668279e-01   8.8569872e-01  -3.9737496e-01  -3.9448751e-01  -1.7665170e-01   1.7145580e-01   5.1872514e-02   8.6559871e-01  -2.2288317e-01  -5.8283880e-02  -7.3727392e-01   5.7542523e-01   8.3239564e-01   1.0081807e-01  -5.8890553e-01  -1.1901545e-01  -3.0539936e-01   1.1493241e-01  -3.4437241e-01   3.4472391e-01   7.4545858e-01  -6.5820903e-02  -7.9956409e-01   2.7371388e-01   9.4171792e-01  -8.9451360e-01   1.7379256e-01  -5.7290182e-01  -8.4229298e-01  -3.7423013e-01   5.2101803e-01   5.0062890e-01  -5.4541453e-01   5.5776256e-01   5.2568198e-01  -9.9079573e-01   1.2923437e-01   5.7422671e-01  -9.7167481e-01  -1.5747816e-01   8.2290045e-01   7.4236120e-01  -1.5846975e-01  -2.0532544e-01   7.4291977e-01   9.9703347e-01  -1.3547157e-01   8.6612082e-01   1.4065027e-01   8.9931199e-02   4.7287333e-02  -3.0923380e-01   1.6423030e-01  -6.5178115e-01  -8.8533793e-01   2.2113314e-01   3.0736861e-01   2.4813705e-01   1.7718957e-01   3.0873219e-01  -5.7378648e-01  -5.8254665e-02   4.1447777e-01   3.2320423e-01   3.8642598e-03  -2.9592419e-02   5.9855092e-01  -1.5520509e-01   6.9389460e-01  -5.3484367e-01   1.0921339e-01   3.8464551e-01   9.3270734e-01   8.4134701e-01   1.7285586e-01   9.2013561e-01  -3.9806912e-01  -6.1998178e-01   9.7712637e-01  -3.1101936e-01  -4.1088496e-01  -9.6213056e-02   9.1048016e-01  -9.1311719e-01  -5.4257389e-01  -9.2291434e-01  -7.0654891e-01   6.7574975e-01   1.6653671e-01   3.4935921e-01   2.3646627e-01   5.8150381e-01   5.6164687e-01  -3.0831093e-01  -3.9126183e-01  -3.1778289e-02  -9.2808505e-01   6.6012492e-01   9.2653366e-01   5.6623645e-01  -2.9432556e-01  -5.3061202e-01   7.4256202e-01  -9.7489012e-01   1.8581610e-01  -7.6600655e-01  -6.1314100e-01   3.9266342e-01  -1.5835839e-01  -8.3618676e-02   7.7227895e-01  -2.7635304e-01  -4.6254387e-01  -5.3664464e-01  -6.9895678e-01   9.3535831e-01   7.6027723e-01  -5.9328276e-01  -5.8896868e-01   6.3944756e-01  -6.0137323e-01   1.7553131e-01  -7.2108547e-01   8.8784242e-01  -7.1251305e-02  -5.8958826e-01   2.0665006e-01  -9.2463681e-01   3.9013142e-02  -2.2309058e-01  -5.9099483e-01  -6.1788799e-01   8.7347511e-01  -6.5539912e-01   8.9788238e-01   5.0950337e-01  -6.5345414e-01   1.9798365e-01  -3.2359877e-01   2.0708141e-01   2.7185769e-02  -6.2832333e-01   5.2187971e-01   9.6185497e-01   7.2052245e-01  -1.2841490e-01   5.6186834e-01  -3.7023413e-01  -8.2641319e-01   9.5336633e-01   1.7850728e-01   3.0237024e-01   6.2304079e-02   4.0465066e-02  -6.2779437e-02   2.3675816e-01   8.3494960e-01   4.0522032e-01  -5.0282452e-01  -3.1825245e-01  -8.8448485e-01  -4.1949126e-01   1.3627068e-01  -8.7703894e-01   9.1876802e-02  -5.7275224e-01   9.5971530e-01   2.3730124e-01  -6.8329079e-01   3.3551622e-01  -4.9656946e-03   3.5360491e-01  -1.2252462e-01  -5.9775380e-01  -1.2110568e-01   2.8263951e-01  -7.7455898e-01  -1.9218102e-01  -1.8610418e-01  -7.6326016e-01   9.2284856e-01   3.3728906e-01  -3.6491160e-01  -5.4350441e-01  -5.1638371e-01  -7.8480637e-01  -3.4767985e-01  -5.2899662e-01   6.3531971e-01   6.7165657e-01  -2.0245161e-03  -8.8061416e-01  -1.5617215e-01  -8.8602319e-01  -3.4199642e-01  -8.8349372e-02  -2.8835686e-02   4.8206996e-01   2.2566243e-01   9.1944743e-01   1.4882105e-01  -5.4021645e-04   2.7939133e-01   8.2196278e-01  -4.3397566e-01  -3.9313779e-01  -7.7285076e-01  -7.5277311e-01  -4.5107034e-01   5.6093198e-01   5.2516338e-02  -3.1466905e-01   5.1013319e-01  -9.3704342e-01  -1.0122948e-01  -7.0558771e-01   9.9464427e-01  -6.0128421e-01  -8.3624042e-01  -3.3705131e-01  -7.3479351e-01  -5.1244258e-01  -3.0520173e-02   4.0445506e-01  -5.5412321e-01   7.1742386e-01  -1.3686899e-03  -2.1254214e-02   1.3201201e-01  -9.6900593e-01  -2.3021638e-01  -1.6914477e-01   7.2533865e-01   2.7758645e-01   4.7819094e-01  -5.3527111e-01  -8.1052448e-01  -5.2247477e-01   1.4670365e-01  -2.5698031e-01  -4.1150300e-01   4.2152306e-01   8.7803560e-01  -4.3845563e-01   3.1124187e-01   5.9210093e-01  -2.7716157e-01  -6.2645668e-01  -7.1548800e-01   7.1826808e-01  -3.1358882e-02   8.2653223e-01  -3.2828411e-01   6.4556175e-01  -7.5584420e-01  -8.7797463e-01  -7.9621815e-01  -2.3965491e-01   7.3512767e-01  -8.6593547e-01   2.7617460e-01   4.9176477e-01  -8.1940509e-01   3.5539271e-01   6.0553598e-01   9.4273103e-01   4.3132109e-01  -3.9552539e-01  -6.9791859e-01   6.1649398e-01   2.0282126e-01   2.8172812e-01   8.4705048e-01   9.9236655e-01   2.7885350e-01   7.6114411e-01   9.5654061e-01  -3.0823261e-01   1.2081671e-01   2.9528390e-02   3.2643508e-01   7.6529015e-01  -8.3507712e-02   4.5291336e-02   7.1293424e-01   3.9881819e-02  -1.2366169e-01  -1.6089040e-01  -5.6686179e-01   7.7035974e-01  -6.7254210e-01   8.0208597e-01  -1.2790732e-02   4.2114083e-01   7.0189851e-01  -4.3139069e-01  -7.9823218e-01  -1.8534571e-01  -3.8798459e-01  -9.3085615e-01   5.4733635e-01  -4.9602715e-01  -6.6643345e-01  -3.2591379e-01   6.8092094e-01   7.2618574e-01  -3.4094514e-01   4.9148568e-01  -2.2428244e-01   4.6837945e-01   7.6336133e-02  -5.7272188e-01   5.7984130e-01   8.0141408e-01  -7.7720968e-01   2.9228186e-01   9.7248500e-01  -6.3067330e-01  -2.0071773e-01  -6.9979785e-01  -7.6416416e-01  -7.1024943e-01  -3.0381907e-01   9.9588276e-01  -8.8083249e-01  -2.5869752e-02  -4.6189468e-01   5.6622053e-01   1.4359851e-01   6.3092825e-01  -1.0268996e-01  -1.1104817e-01  -6.5939990e-01  -9.3334294e-01   6.4474556e-01  -4.9197041e-01   7.1280409e-01  -4.6635363e-01   9.3639030e-01  -1.7350998e-01  -2.9387614e-01  -2.4976196e-01   9.7363666e-01  -9.1422410e-01   2.4567292e-01  -4.4556480e-01  -3.2195977e-01   8.1408528e-01   1.9885008e-01   1.4328436e-01  -6.3496355e-01   5.2701473e-01   9.0739858e-01   8.8117821e-01   3.1817168e-01   9.9840227e-01  -7.3833891e-01   6.9493752e-01   5.7902834e-01  -4.5164976e-01   1.4104775e-01  -5.5419530e-01  -7.3350335e-01   5.6597773e-01   2.2883594e-01  -2.0545797e-01   6.3014480e-01  -5.6206246e-03  -3.6858641e-01   8.6438736e-02   6.4507423e-01  -6.0609129e-01  -8.0643185e-01  -1.3370350e-01   2.8061874e-02   2.8284138e-01  -9.9741604e-01   6.0766990e-01  -4.0046099e-02  -7.1330527e-01   9.0460414e-01  -8.5059832e-01  -6.0458003e-01  -1.9680200e-01   8.3419864e-01  -9.0559819e-01   7.6957306e-01   9.5066609e-01   1.1277648e-01  -3.0143036e-01  -2.5976671e-01   6.1015055e-01  -4.7531638e-01   7.6491837e-01  -9.3601906e-01  -9.7080957e-02   2.1271300e-01   9.8217225e-01   9.4202132e-01   1.2920282e-01   4.5053599e-01  -7.2574576e-01   2.8996219e-01   3.7475551e-01  -7.5913069e-01   4.1844074e-01   8.9665255e-01   8.5518362e-01  -4.4292549e-02   2.9194776e-01   4.5038293e-01  -8.1036423e-01   4.7346033e-01  -1.8837831e-01  -3.9460969e-02   1.3822296e-01   6.0712161e-01   3.4093007e-01   6.8414564e-01   3.1241863e-01   6.6373820e-01  -9.8342032e-01  -4.3715987e-01   8.4415735e-01   6.9107675e-01  -7.7683194e-01   8.6014933e-01   3.2080006e-01  -8.1441465e-01   8.0013964e-01  -7.5004124e-02   5.4521672e-01   7.2627170e-01  -3.0325357e-01   1.9722872e-01  -5.5330364e-02   6.3531863e-01  -5.9128163e-01   5.0939318e-02   8.8068554e-01   4.6231132e-01   9.1339908e-01   5.4627657e-01  -5.4874520e-01   5.9786056e-01  -7.9485303e-01  -6.2258480e-01   5.3280117e-01   6.1230192e-01   1.0539636e-01   9.6287036e-01  -1.2910983e-01  -1.6231463e-01  -7.9369810e-01  -4.5243211e-01  -2.3785151e-01  -9.0708612e-01   7.9042109e-01   1.9175004e-01  -2.7396383e-01  -5.0532717e-01  -5.6975120e-01   5.4987758e-01   2.2371548e-01  -6.2233621e-03  -4.6340558e-01   8.4560064e-01  -3.3288381e-01   9.3733613e-01   7.1817797e-01  -3.3733967e-01   5.4607757e-01  -1.7829371e-01   4.0501024e-01   6.6035810e-01   8.4245333e-01   8.8730322e-01   2.9543543e-01  -9.3942520e-01  -6.0988407e-01   4.8491584e-01  -6.9050780e-01   7.9791144e-01   9.6823589e-01   7.4208046e-01   2.2963076e-02   8.3868709e-02  -4.5055233e-01   5.8753916e-01  -7.5746831e-01  -9.3846837e-01   6.1014192e-01   6.8718225e-01   5.6709540e-01   2.0976739e-01   1.3297226e-01   6.2640841e-01  -7.6093236e-01   9.2326501e-01   4.1340116e-01  -3.3149722e-01   9.3025933e-01  -3.4367150e-01   3.3682827e-01  -8.5830561e-01  -4.0826517e-01   4.6918628e-01   3.0075348e-01  -4.4353654e-01   8.9616404e-01  -3.1211273e-01   4.2476488e-01  -1.6788290e-01   2.0209803e-01  -9.3959116e-01   1.2072498e-02  -5.1719988e-01  -6.8031108e-01  -6.2960886e-01  -3.6295441e-01  -4.7806604e-01   6.0513784e-01   6.5328564e-01   2.5239910e-01   9.4423776e-01  -8.1989149e-01  -4.6037621e-01  -6.5261075e-01  -5.9855925e-01   7.2090620e-01   4.4168902e-01  -8.9573107e-01  -7.8457559e-01   1.4916693e-01   5.4102481e-01   8.4977790e-01   2.4350373e-01  -8.7904883e-01  -4.1223675e-02  -3.5180108e-01   4.5681161e-01   1.2105473e-01   1.2526234e-01  -2.0908740e-01   4.3720374e-01  -1.5018404e-01   1.1088253e-01  -3.9115100e-01  -3.2633991e-01   5.7933543e-01  -7.8384216e-01  -8.5328736e-01   3.1638938e-01  -7.9768207e-02   8.8572826e-01   2.4253752e-01   1.8462661e-01   5.2547559e-01  -9.8870658e-01  -3.8550848e-01  -3.4473361e-01   9.1624383e-01   4.8062265e-01  -3.6030611e-01  -1.7405972e-01  -9.7834985e-01   2.6775165e-02   6.7253351e-01  -6.3223243e-01   5.9303805e-01  -1.5543830e-01  -4.1094899e-01  -4.9399008e-01   6.8227414e-02   1.2100620e-01  -6.8015940e-01   2.7046216e-01  -8.8556261e-01   5.1012491e-01   9.5592988e-01  -7.2289547e-01  -3.4692157e-01  -9.2042411e-01  -7.4572202e-01   6.8756790e-01   3.4630281e-01   7.6548318e-01   3.7207064e-01  -8.4375510e-01  -9.7560241e-01  -1.4789985e-01   8.9882993e-01  -4.9043434e-01   1.6833583e-02   8.3124041e-01   5.4451388e-01  -4.5022058e-01   6.8595370e-01   6.7925525e-01  -5.0046995e-01   6.4778794e-01  -5.6289931e-01  -1.8355453e-01   6.5429742e-01   8.7986983e-01   5.8752615e-01  -5.9111814e-01  -3.2000567e-01  -5.7251084e-01  -8.7792574e-01  -4.4403560e-01   4.4173715e-01   5.0284869e-01  -4.7372847e-01   4.4548439e-02   7.6071207e-01   4.1484318e-02  -5.1399199e-01   7.6503782e-01   9.0110298e-01  -6.9053571e-01   8.0151038e-01  -2.2915110e-01   3.3973091e-01  -5.2265297e-01   6.1231553e-01   8.5138244e-01  -2.6852027e-01  -8.2062599e-01   1.7829342e-01  -6.0599488e-01  -9.4342791e-01  -5.9077234e-01   6.2124674e-02  -1.0381252e-01  -4.5218577e-01   1.2266017e-01  -4.9711024e-01  -3.8921917e-01   2.8780976e-01   7.2672844e-02   4.4497777e-01  -6.8884495e-01   4.5554955e-01  -1.3242970e-01   2.0308001e-01   9.7328557e-02  -8.1038284e-02   9.5312923e-01  -1.2577761e-01  -8.2662064e-01  -7.1929536e-01   7.0762276e-01   5.9941583e-01  -8.9478167e-02   5.3514170e-01   9.5229041e-01  -7.8576355e-01   8.6368085e-01  -9.4217827e-01  -6.3101920e-01   6.3970906e-01  -1.5266548e-01   3.1716950e-01  -1.8767985e-01   5.9452021e-01  -2.1475009e-01  -9.7237642e-01   3.5114312e-01   2.6994016e-01  -4.4543251e-01  -9.5794697e-02   6.9167349e-01  -7.8927035e-01  -6.1946179e-01   4.4505017e-01   9.9834106e-01  -7.4463624e-01   7.0455003e-01   7.7099254e-01  -4.9841065e-01   5.8650461e-01  -4.7875950e-01   6.7713056e-01   5.0614684e-01  -1.2757948e-01   9.1183524e-01   4.0261911e-01  -8.3983945e-01  -6.2675718e-01  -1.4428361e-01   5.9810330e-01  -1.8814753e-01  -9.3155172e-01  -9.2340777e-01  -7.8502189e-01  -7.0647098e-01   3.1664968e-02   3.9468566e-01  -6.6981399e-01  -8.5844752e-01   5.9465729e-01   2.2836990e-01  -2.5972357e-01  -6.9916148e-01  -7.6173068e-01   7.0383867e-01  -3.3087690e-01  -3.7576941e-01  -2.1735643e-02   9.8501683e-02  -7.0342624e-01  -1.7862126e-02   9.7385670e-01   3.5020249e-01   3.4064022e-01  -5.4614962e-01   4.1608122e-01  -4.5665057e-01  -1.8970700e-01  -6.5341715e-01  -3.1194455e-01   2.9217385e-01  -2.1976230e-01   4.6548652e-01   4.3959567e-01  -1.8234837e-01   6.8032063e-01  -7.0383109e-01   7.2802495e-01  -4.1626731e-01  -7.1843263e-02   9.9018924e-01   4.2963652e-01   7.5793402e-01  -9.8401688e-01  -1.9845997e-01  -1.6324945e-01  -1.0022516e-01   8.0887563e-01   6.9767627e-01  -7.2440265e-03  -3.6608866e-01  -8.3470858e-02   8.2159599e-01  -6.9789977e-01  -3.5075793e-01  -9.9309000e-01   6.2453473e-01  -2.8616790e-01   4.7484482e-01   4.7626601e-01  -8.9073780e-01  -3.9800949e-01  -3.8636507e-01   9.2873681e-01   7.7012265e-01  -7.1253278e-02  -8.6846547e-02   4.8827853e-02   8.0568794e-01   6.6655812e-01   2.1337663e-01  -8.7028697e-01   4.8799155e-01   8.6431492e-01  -6.4854986e-01   5.0301714e-01  -5.1138985e-01  -9.6116770e-02  -2.8316192e-01  -9.8825594e-01  -9.0922583e-02  -7.1831096e-01   5.1999702e-01  -5.7283043e-01   2.2487257e-01   4.8893452e-01  -4.0496767e-01   6.4933482e-01  -2.4211143e-01  -3.0529470e-01  -6.8128404e-01   6.4902035e-01  -2.4581324e-01   5.2954994e-01   6.1796266e-01   3.2519980e-01   8.4488872e-01  -6.0077740e-01   5.4635156e-01  -5.0170437e-01   6.7101557e-01   3.0267322e-01  -1.5758727e-02  -4.9476276e-01   2.6212624e-01  -2.9307951e-01  -8.4386818e-01  -2.2373311e-01  -8.1373794e-01  -4.7672980e-01  -5.8509060e-01   1.9025626e-01  -6.6004412e-01   8.1574531e-01  -5.6280000e-01  -7.7372869e-01  -9.4245719e-01  -2.5577479e-01  -1.4881289e-01   1.7188506e-02  -2.5416957e-01  -4.0410129e-01  -9.2251321e-01  -3.2630688e-01  -4.0763476e-01   6.8412640e-01   5.8816304e-01   1.0377122e-01   1.8334922e-03   1.7570928e-01  -6.4754587e-01   8.4825526e-01  -7.0497015e-02  -5.1401832e-01  -4.3409400e-01  -5.4251884e-02  -5.3387016e-02  -5.9343636e-01   7.8643978e-01   8.7943696e-01   6.3098049e-01  -6.1714359e-01   5.4027311e-01   2.4370343e-01  -1.8196722e-01   7.2544933e-01   2.1717386e-01   3.6093978e-01   1.4592921e-01   4.3462462e-01   4.4071860e-02  -6.4370641e-01  -5.0360383e-01  -2.6328984e-01  -3.0172257e-01  -2.8061648e-01  -7.9042448e-01   8.6176818e-01  -4.1338965e-01   7.1590209e-01   3.1785666e-01  -1.8524625e-01   6.0004825e-01  -2.3219649e-01   7.8264700e-01  -5.9166047e-01   1.0625389e-01  -3.9539225e-01  -1.9439842e-01   1.0543624e-01   2.8231002e-01  -3.4145449e-02  -8.4683552e-01  -3.2538109e-01   9.5665333e-01   3.5947185e-01  -6.3517026e-01   6.1275422e-01   9.9179294e-01   9.8208547e-01   7.0148942e-01  -9.6202384e-01  -5.9688313e-01  -3.8399300e-02  -8.8126256e-01   8.6206773e-01  -9.4935609e-01  -5.4897402e-01  -6.4036755e-02  -1.5425173e-01  -2.5726867e-01  -4.8922231e-01   3.1848436e-01   9.0775236e-01  -1.2700273e-01  -6.3427189e-01   6.7368002e-01  -2.6768082e-01   4.9979484e-01  -6.4078249e-01  -5.0447452e-01  -7.7150122e-01  -2.1950372e-01   1.3960861e-01  -3.9255848e-01  -7.5466416e-01  -8.8876877e-01   8.4746082e-01  -9.0036939e-01   6.6345223e-01   1.9560888e-01   4.9634504e-01   4.2848845e-01  -6.8108860e-01   2.7831935e-01  -6.9304601e-01   5.0983488e-01  -2.2827356e-01  -9.1782244e-02  -9.4164863e-01  -6.5715838e-01  -1.2029038e-01  -6.5916741e-01  -3.9172684e-01   1.2801180e-01   7.3315438e-01  -8.5802625e-01  -4.8428456e-01   5.8339228e-01   4.6021783e-01   9.0209825e-01  -3.6621476e-01   6.8091192e-01   4.0324208e-01  -7.3233117e-02  -1.4208600e-01  -5.1884185e-02  -3.6022011e-01   3.9249390e-01  -3.8676666e-01   9.3509403e-01   1.5541099e-01   7.3307483e-02  -9.1532209e-01   3.1979776e-01  -8.3654986e-01   1.6199555e-01  -4.7431711e-01  -9.3514236e-01   8.7672151e-01   8.2371992e-01  -5.7949190e-01  -9.2522664e-01  -5.1668170e-01   2.4410593e-01   6.0565830e-01   1.0163403e-01  -9.2615952e-01   4.3238924e-01  -2.2158964e-01  -6.3360334e-01   6.0913855e-01   5.5583298e-01   2.1878662e-01  -1.9081377e-01  -4.7830333e-01  -5.9636917e-01  -2.3143474e-01  -6.2481978e-01  -8.5953809e-01   8.0373796e-01  -5.1157003e-01   1.9059920e-01  -7.9198761e-01  -3.3124629e-01  -1.5407863e-01   1.7484645e-01  -4.2425605e-01  -2.2024866e-01  -7.9970135e-01   2.7241211e-01   6.8558448e-01  -7.5905879e-01  -1.6250322e-02   6.6988145e-01  -1.5471946e-01   6.1162833e-01   1.1871404e-01   4.7316962e-01   7.5919193e-01  -2.1546339e-02   5.5557990e-02  -9.7590228e-01  -5.8785507e-01   5.1118471e-01  -3.4889216e-02   7.5236686e-01   6.1950639e-01  -5.2087195e-01   1.1463959e-01  -9.2081061e-02   5.3924469e-01  -9.1687019e-01  -6.2750661e-01
  -2.6183109e-01  -3.9558054e-02  -5.4250727e-02  -6.1777545e-01   2.6043090e-01  -6.2693370e-01   6.5910573e-01  -6.5220393e-01  -2.0458943e-01  -4.9711371e-01   2.4336130e-01  -9.6641598e-01   3.7435577e-01  -7.7815509e-01  -6.1989312e-01  -3.8436298e-01  -8.8351913e-01   8.8440710e-01  -9.9295972e-01   4.2231521e-01  -1.8789311e-01   3.2246089e-02   9.3631592e-01  -5.0601994e-01  -2.5745422e-01   3.7124990e-01   2.6271650e-01   8.4195668e-01  -4.0358748e-01  -2.4034788e-01  -7.3915903e-01  -7.6053391e-01   4.7962659e-01  -4.6718786e-01   9.7638514e-01   1.3129207e-01  -6.9790028e-01  -9.2059398e-01   9.2693884e-01  -4.2346768e-01   6.3949453e-02   8.6876836e-01  -8.7284910e-01  -6.7858430e-01   3.3404958e-01   8.6527846e-01  -2.3108681e-01  -7.3162614e-01  -7.7544956e-02  -2.8051485e-01   8.8611788e-01   4.7839085e-01  -9.1375049e-01  -4.3834653e-02  -6.6915459e-01  -2.0506231e-01  -9.3263069e-01   4.3317571e-01  -3.7660370e-01   7.8491991e-01   2.2738983e-01   5.1546622e-01  -5.2697046e-01   5.6569204e-01   3.6982785e-01   3.4869444e-02   5.6734548e-01   3.2514827e-01  -3.1450303e-02  -3.1992508e-01  -9.4930050e-01  -2.5511967e-02   4.1107317e-01   6.3833227e-01   3.0185551e-02  -4.9399138e-01   1.8549497e-01  -7.0965227e-01   1.3876577e-02  -2.2660874e-02  -1.1677362e-01  -4.0606504e-01  -6.6973829e-01  -9.8006682e-01  -3.8344960e-01   1.1475613e-01   6.9634874e-01  -8.2044281e-01   9.9810651e-01   9.4190275e-01   1.6780485e-01  -8.4986810e-01   9.3362348e-01   1.3525984e-02  -1.9310011e-01   9.5409836e-01  -5.2899606e-01   9.7347588e-01   8.2453398e-01   2.5602635e-01   1.6644585e-01   8.1888940e-01  -1.9831566e-01  -9.4754045e-01   5.9806166e-01   3.8172459e-01  -2.3281716e-01   1.3744610e-01  -1.3396741e-01   2.1305805e-01   5.5803474e-01  -5.0221526e-01   4.6400934e-01   2.8503902e-01  -9.1249381e-01  -4.7685476e-02  -9.4011434e-01  -5.2703173e-01  -2.5679649e-02  -7.7002105e-01  -4.5270005e-02   6.2080540e-02   7.2980808e-01   5.0267206e-01   4.0356552e-01  -2.8223666e-01  -8.6248386e-02  -1.6504928e-01  -8.1624087e-01  -7.8806849e-01  -9.0986685e-01   4.9966563e-01  -7.6994837e-01  -5.9508394e-01  -5.2116677e-01   9.7060112e-01  -5.6499978e-01   4.5199300e-01   3.9586953e-01  -3.2542804e-02   6.0405934e-01   5.2534538e-01   6.8940902e-01  -7.3204185e-01   4.3836872e-01   6.6701809e-01   3.5466756e-01  -9.5568968e-01   9.0094982e-01  -2.3870269e-01  -8.4803823e-01  -1.6460874e-01   6.7713227e-01   2.3875324e-01  -4.6510807e-02   5.9344715e-02   9.3484042e-01  -3.1030555e-01  -7.6506600e-01  -8.0883221e-01  -5.4034129e-01   8.7253597e-01  -8.2153046e-01  -8.4688596e-03   7.5305082e-01   7.9278893e-01   5.3296955e-02  -4.4111577e-01  -2.3201095e-01  -5.3693678e-01   4.0609250e-01   2.8305684e-01   5.4497184e-01   8.5099872e-01  -4.1449413e-01  -7.3699711e-01   7.0631495e-01  -5.7101217e-01   2.2846825e-01  -4.4002381e-01  -4.8809562e-01  -2.7765034e-01   1.1841766e-02   7.3494303e-01  -5.7030216e-01  -5.0059995e-01  -9.8464427e-01  -7.8156656e-01   5.0410281e-01  -3.5947421e-01   2.2585776e-03   3.7689040e-01  -3.7532271e-01   5.5677868e-01   8.4568669e-01   4.3034702e-01   8.0080462e-01   5.0221696e-01   7.9544828e-01   8.0539467e-01  -6.8813234e-01   1.0043685e-01  -4.3572735e-01   4.4316955e-01  -1.2184932e-01   1.8342561e-01   1.7302077e-01   2.4221007e-01   2.1291315e-01  -6.8765354e-01  -2.7932967e-01  -8.4694195e-01  -5.3745137e-01  -6.4262087e-01   3.3746086e-01  -9.2958964e-01  -9.9225916e-01  -4.3534695e-01  -4.3779297e-01  -9.4712939e-01  -5.2336683e-02   8.0370800e-02  -9.9914182e-01  -7.4835860e-01  -6.8861608e-02   1.6043563e-01   1.3292220e-01  -7.5737836e-01   7.7930897e-01  -5.0457640e-01   1.4291114e-01  -2.5360906e-01  -2.9191130e-02   2.5907541e-01   4.5541538e-01   2.2718641e-01   1.7862936e-01   5.5501082e-01  -5.3046365e-01   7.8368451e-01  -4.9316313e-01  -2.2245977e-01   3.4281237e-01  -3.0587121e-01   5.8338235e-02  -4.0260971e-01  -8.3356887e-01   8.8992696e-01   7.2273603e-01   5.5101794e-01   7.6279818e-01   3.5366676e-01  -7.6524470e-01  -5.5018276e-01  -7.8672004e-01  -3.9357785e-01   1.8571526e-01   8.5957392e-01  -7.1839678e-01  -3.0294451e-01  -2.5533369e-01   5.6528856e-01  -6.2229179e-01   8.6570223e-01  -9.1567842e-01  -9.5769225e-01   9.0930359e-01  -3.2047458e-01  -1.2029403e-01   2.8654587e-01  -2.5067962e-01   6.3947096e-01   6.8188679e-01  -2.4093991e-01  -1.7863202e-01   5.0951839e-03   9.7794303e-01   6.1572091e-01  -7.4782927e-01   4.7547814e-01   1.8332940e-01   7.1574977e-01   5.3852716e-01  -4.5891697e-01  -4.8570319e-03  -1.1256408e-01  -7.3272765e-01   9.8287361e-01  -3.3920196e-01  -3.0582499e-01  -3.3514852e-01  -2.9673324e-01   2.1883997e-01   3.4558372e-01   2.1143435e-01   7.4007817e-01   7.5167137e-01  -8.3860143e-01   1.8641276e-01  -1.9220668e-02  -2.0316669e-01  -9.2221087e-01   6.3000308e-01  -2.5658593e-01   7.7603544e-01  -7.2789532e-01   3.7873565e-01   1.1903176e-01  -3.5857050e-01   5.9974232e-01   4.1706693e-01  -9.0285293e-01   4.6312192e-01   6.5076077e-01  -4.1482409e-01   5.1007459e-01  -3.1109455e-01  -5.0999742e-02   6.7171898e-01  -7.4471070e-01   5.5770701e-01   7.1398803e-01  -4.1224950e-01   9.0915427e-01  -2.5075980e-01   8.8544661e-01  -4.0419147e-01  -7.6183245e-01  -1.4205252e-01  -6.6085352e-01   1.8569137e-01  -2.5324642e-01  -6.5703022e-01   8.0777045e-01  -2.2621934e-01  -7.6349117e-01  -7.7073618e-01  -3.6850393e-01  -3.2712711e-01  -4.7735849e-01   4.4931509e-01   6.4511962e-01  -7.2109342e-01   9.9167079e-01  -8.3714077e-01  -6.1647697e-01   8.5865813e-01  -8.3834002e-01  -8.6021539e-01  -8.9569449e-01   5.9325860e-01   4.6544057e-01  -5.4695049e-01   8.9848747e-01  -4.8879439e-01  -6.5960724e-01   8.9337197e-01   1.1235430e-03   9.9893828e-01  -4.2155032e-01   1.7028525e-01   7.3873874e-01   3.5212233e-01  -9.1386256e-01   4.5165932e-01  -1.6116214e-02   8.6660134e-01  -5.1308564e-01  -9.1793993e-02  -6.5199075e-01   2.8710511e-01  -5.1192277e-01   3.6266680e-01  -2.1740022e-02   3.4082832e-01  -3.5974629e-03   9.2204740e-01   3.3381010e-01   3.1164625e-02   9.8424484e-01   2.0916923e-01  -1.5956801e-01  -8.4465582e-01  -8.3385335e-01  -6.8179176e-01   1.5798091e-01   3.6412002e-01   2.7306021e-03  -3.5670811e-01   5.1846619e-02  -5.0751249e-01  -7.7294763e-01   1.8537301e-01   7.1554310e-01  -7.4253579e-01   1.4171580e-01  -7.3812206e-01   2.6563198e-01  -7.3209292e-01   9.1560335e-01  -3.5148933e-01   9.3188865e-01  -1.5343666e-01   3.9455577e-02   4.2057290e-01   1.8874421e-01   5.2676422e-01  -2.4275756e-01   9.7833975e-01   2.9338598e-01   8.4954443e-01   8.6045598e-01   5.1379632e-01   6.4618460e-01  -6.0665488e-01  -7.8703461e-02   5.1708360e-01   7.0430996e-01  -6.7839648e-01  -3.7319568e-01   6.9688038e-01   3.1136256e-01   9.5530161e-01   1.9442856e-01   8.6091217e-01   2.0773205e-01  -5.2521243e-01   2.2756928e-01   7.0172524e-01   4.7713328e-01  -5.7340619e-01  -9.6747746e-01  -8.9374879e-01  -8.0684169e-01   4.0723105e-01  -9.4191249e-01  -8.7820386e-01   7.9925862e-01  -6.9543310e-01  -1.3848289e-01   2.2333672e-01   9.9722896e-01   5.4586862e-01  -6.6610141e-01   8.8343963e-01  -3.8823719e-01  -1.6926541e-02  -9.1196904e-01  -2.8386420e-01   4.7410681e-01   6.7300582e-01   4.6158741e-01   7.3188490e-01   1.2019206e-01   8.7553302e-01  -3.9499489e-01  -4.8823865e-01  -4.5525286e-02  -6.9249226e-01  -9.8417318e-01  -5.3153542e-02  -1.3993163e-01  -9.2201619e-01  -2.2341739e-01   6.4180179e-01   5.9779911e-02   3.8280295e-01   9.4899334e-01   7.6176225e-01   1.6837950e-01   5.0434825e-01  -9.4854398e-01   4.2127404e-01  -8.9672896e-01  -1.1518303e-01  -4.9884673e-01   7.6401848e-02   9.6248824e-01   1.9555647e-01  -8.6273291e-01  -9.3177387e-01   8.0291297e-01  -5.4979046e-01  -1.0812303e-01  -1.3529165e-01   6.0344662e-01   8.4870256e-01   7.0043470e-02   4.8727799e-01   6.6552189e-01  -3.0524178e-01  -4.6752709e-01  -4.7748007e-01  -3.5469495e-01  -4.6642965e-01  -4.2764995e-01   4.1225672e-01   1.5213169e-01  -2.2244707e-02   5.8703033e-01  -7.7917567e-01  -8.3111228e-01   2.1698527e-01   8.0798320e-01  -5.9478232e-01  -9.5518811e-01  -3.6706453e-01   7.0717481e-01   2.9033257e-01   9.8532789e-01  -1.2173333e-02   9.2211045e-02   5.8257054e-01   9.4096482e-01  -7.9103478e-01   7.3609498e-01   5.9393138e-01  -7.2502990e-01   5.1091169e-01  -4.3716573e-01  -1.6606580e-01   5.2212430e-01  -8.7329221e-01   2.3144425e-01   9.8941123e-02   1.0515813e-01  -2.0730652e-01  -4.0615498e-02  -1.2911562e-01   2.4005322e-01   7.3391096e-01  -6.2551825e-01   9.2715960e-01   7.8095172e-01   3.9027118e-01  -1.9806191e-03   9.2843514e-01   4.8770087e-01  -4.9633134e-01   4.0630184e-01  -7.6247437e-01  -8.8152581e-01  -7.0622733e-01  -3.2838151e-02  -4.9119322e-01   6.0940037e-01  -4.6539180e-01   5.1960595e-01  -7.4019589e-01   8.1103423e-01  -8.4677243e-01   7.8903067e-01   1.8748871e-01   8.4260772e-01   5.7824850e-01   8.8059129e-01  -9.8480192e-01  -5.9040424e-01   1.9562755e-02   3.2713387e-01  -2.0842076e-01   4.9659972e-01  -8.0221693e-01  -1.2792589e-01   1.1173072e-02   7.5709230e-01   5.6702735e-01  -3.3315513e-01   1.8738190e-01  -2.5295686e-01  -6.0660141e-02  -1.9938270e-01  -7.2436927e-01   9.6616944e-01  -6.2932668e-01  -6.3745959e-01  -3.8716935e-01  -1.8198857e-01   6.9027719e-01   6.9367491e-03   9.5928454e-01  -8.4783391e-01  -3.5679841e-01   1.4840310e-01  -1.2845091e-01   5.7274187e-02   3.3715605e-01   9.7802841e-01  -3.6187478e-02   8.4251610e-01  -2.0764684e-01  -8.7925071e-01   8.7755987e-01   9.9644889e-01  -9.3692120e-01   5.3587014e-01  -5.7225603e-01  -5.7618543e-01  -2.5949649e-01   6.5934707e-01  -5.0251714e-01  -7.2559040e-01   6.7599026e-01  -2.7774514e-01  -6.7233169e-01  -2.7658909e-01   6.3248273e-01   4.7452042e-01   4.2470545e-02   1.3400998e-01  -7.3316912e-01  -2.4310420e-01   8.4387991e-02   3.3043691e-02  -8.7252719e-01  -1.6563357e-01   1.4690307e-01   9.0455828e-01  -8.5329894e-01   5.4443828e-01  -6.5552338e-01   4.2126430e-01   1.5268870e-01  -8.5968221e-01  -7.7592886e-01  -7.0608073e-01   7.6917779e-01   7.4505621e-01  -5.1015114e-01   7.5252666e-01  -3.3545337e-02   8.9574165e-01   9.1850362e-01   1.8227864e-01  -7.6026381e-01  -5.1593608e-01   2.1157513e-01   7.3447677e-01  -4.1230049e-01   4.6624578e-01   8.8096586e-01  -9.3624277e-02   6.6561455e-01  -2.2830746e-01  -1.0590475e-01  -6.3243435e-01  -7.7091905e-01  -7.2074748e-01  -7.1960696e-01   6.6473108e-01  -2.0240247e-01  -8.6278288e-01  -3.9366501e-01   6.6422407e-01  -8.0896632e-01  -4.2377301e-01  -9.5599766e-01  -9.4665568e-01  -2.4156611e-01  -6.4851711e-01   3.6537304e-01  -9.1495849e-01   5.8763300e-02  -2.2064237e-01  -1.7704877e-01  -1.8020136e-01  -6.5032893e-01   5.0746796e-01  -9.8852241e-01   2.1219932e-01  -1.8193321e-02   4.2054304e-01   4.2538982e-01  -9.5432939e-01  -2.1793154e-01   8.0690698e-01  -1.2359598e-01  -1.2083074e-02   3.1480891e-01   5.3945337e-01  -7.0453565e-01  -8.8885645e-01  -2.0091565e-01   3.4981961e-01  -9.3002840e-01   6.8529031e-01  -5.5844467e-01   9.8346244e-01   9.2213457e-01   5.7170766e-01  -7.1116112e-01   9.0934358e-01   9.9620944e-01  -8.8630784e-01   8.9534049e-01  -4.3948487e-01  -9.6430205e-01  -1.9550864e-01  -7.3318258e-01  -6.3324527e-01  -4.7421173e-01   3.4594125e-01  -1.5984292e-01   5.9175877e-01  -7.2027436e-01   7.8444140e-01  -7.2493809e-01  -7.8507586e-01   2.4265570e-01  -4.7263409e-01  -5.0188920e-01   4.8339583e-01  -6.8710339e-01  -1.5596474e-01   6.3531859e-01   5.4973694e-01  -6.3553549e-01  -5.2098842e-01   8.5719567e-01   3.8893856e-01  -9.4372752e-01  -3.9791006e-01   1.8199610e-01   9.4343712e-01   3.6280837e-01  -7.8618199e-01  -3.6288894e-01   6.1262457e-01   8.6707542e-01   1.6448024e-01  -4.4989566e-02  -7.4143559e-01  -1.4701244e-01  -8.6825212e-01   9.0882745e-01   6.8585983e-01   8.1873755e-01  -7.8472836e-01  -9.2705943e-01   2.3768896e-01   4.3463208e-01  -8.4101904e-01   2.1010135e-01   7.3665245e-01  -6.3685811e-01   7.5635018e-01   5.3596093e-01  -7.6486058e-01  -8.0346677e-01  -5.8299081e-01  -4.1591623e-01   2.0369489e-01  -8.4076723e-01   7.5358234e-01   9.1469672e-01  -8.3847794e-01  -3.3122466e-01  -6.6196370e-01   7.9097281e-01  -6.4020953e-01  -6.8161656e-01   8.3744674e-01   9.6361212e-01  -1.3952970e-01  -5.4435712e-01  -9.9120182e-01  -4.8329659e-02   8.9905422e-01   6.9315334e-01  -1.2800172e-01  -4.8396923e-01   6.0411428e-01  -3.3815559e-01  -8.1044889e-01  -7.7963489e-01   6.1653585e-01  -5.9533028e-01  -6.7230426e-02  -1.5848520e-01  -1.4654266e-01  -2.7704584e-01   5.3400654e-01   5.0544483e-01  -7.5348520e-01  -3.3002075e-01  -6.0273538e-01  -4.3670331e-01  -9.6248475e-01  -3.5656448e-02   7.8732398e-03   4.9460401e-01  -3.2894533e-01   8.5267718e-01   6.6610893e-01  -1.1806182e-01   8.1067455e-01  -2.6751936e-01  -1.8350085e-01   6.6203897e-01   1.3623740e-01  -2.6777610e-01  -8.8626190e-01  -4.0971819e-01   2.7785266e-01   1.5552984e-01   2.2488384e-01   8.8809606e-01   8.3438452e-01  -8.4807802e-01   1.7997639e-01   1.9611321e-01  -1.8529740e-01  -1.5074011e-01   2.3624674e-01   7.4443563e-01   6.3862301e-01  -3.3833494e-02  -3.0853191e-01   8.3399876e-01   4.2713171e-01   6.7596901e-01  -8.1953326e-01   2.8943240e-01  -2.6471711e-01   6.6902103e-01  -9.7218273e-01  -5.5736034e-01   2.4210908e-01   9.1088474e-01  -2.9703815e-01  -7.2175610e-01  -8.2974497e-01   4.7518459e-01  -3.3021728e-01  -9.7539530e-01   6.6910183e-01  -9.8912832e-02  -4.9083954e-01   1.3406114e-01  -1.3257515e-01   6.0102012e-01  -7.7796291e-01  -8.2331562e-01   8.6510800e-01   9.7679988e-01  -9.4011702e-01  -9.2944504e-01   9.1649444e-01  -7.3774022e-01  -7.4904467e-02  -8.3474230e-01   5.4948238e-01  -9.1971824e-02   2.3164173e-01   3.0573855e-01  -2.7225966e-01  -7.3468616e-01  -2.2499497e-01   3.2232096e-01   5.9370188e-01   5.0974014e-01   2.0714745e-01   5.1117790e-01   6.9192601e-02   4.5123877e-01  -6.5860161e-01  -9.9420932e-01   5.1877004e-01  -1.2556115e-01  -8.2905193e-01   4.1701340e-01  -9.4890689e-01  -1.9526380e-01   9.6270785e-01   7.8806248e-01  -3.8054695e-01   9.6685480e-01  -3.5655264e-01  -5.7010392e-01  -4.0463825e-01  -8.9544516e-01   7.8430028e-01   8.0455757e-01  -5.7816041e-02   6.2015166e-01   6.4642007e-01  -8.6487861e-02   9.9939698e-02  -2.1066038e-01   4.4680747e-01   8.9981669e-01   7.3916472e-01  -5.9258423e-01  -7.7346482e-01  -9.2946446e-01  -5.8757201e-01   3.5324372e-01   5.6781670e-01  -7.1691854e-01  -1.5374062e-01  -2.5129308e-01  -6.5956457e-01  -7.2991365e-01  -7.2666273e-01   9.0132864e-01  -5.7597757e-02  -7.8723294e-01  -9.7956750e-01   2.7158569e-01   6.8627101e-01   7.1757613e-01  -4.0367793e-01   3.1286651e-01  -2.1748171e-01   2.3083224e-01   5.8560930e-01   2.7333875e-01  -2.0685633e-01  -3.5494984e-01   7.1505749e-01  -4.4084748e-01  -1.7311118e-01  -5.9268268e-01   1.7256270e-01   3.8636137e-02  -8.0909339e-01  -9.0347950e-02   2.4088009e-01   3.3584392e-01   7.6252331e-01   1.7635031e-01   7.7378802e-01  -2.7353647e-01   9.8345066e-01  -6.2459311e-02  -9.6375620e-01  -9.1199334e-01  -4.9687092e-01   6.2060373e-01   6.3165884e-01  -5.5872985e-01   2.3628874e-02   3.4041700e-01   4.0228050e-02   2.8662425e-01   2.0624128e-02   6.8765968e-01  -3.7627989e-01   9.5310181e-01   5.7794804e-01  -1.2700397e-01   4.8225507e-01   5.9254433e-01   6.6428402e-01  -2.4761670e-01   9.8047731e-01  -9.7435863e-01  -1.0155743e-01   9.2807939e-01  -5.5252522e-01  -9.2064014e-02  -9.5887082e-01  -8.9767841e-01  -4.6881167e-01  -7.4861200e-01  -6.2259953e-01   7.7243946e-01  -5.2162190e-01   8.0216562e-01  -4.8006337e-02   6.7287544e-01   9.8766794e-01   2.3100696e-01  -3.8881354e-04  -5.8803280e-01   7.8410030e-02  -4.4108156e-01   9.7019212e-01  -2.5324103e-01   5.1704114e-01   2.4262269e-01   8.4419166e-01   7.3824193e-01   4.6361770e-01   3.0188114e-01   1.4953578e-01  -1.5231106e-01  -1.4723514e-01  -1.1374121e-01  -8.6301060e-01  -7.6124459e-02   9.2254642e-01   6.2589759e-02   3.4978956e-01  -3.4829176e-01  -9.6265100e-01   4.6679659e-01   9.2412139e-01   1.1368443e-01  -6.3643015e-01
   6.6151659e-01  -8.6763676e-01   7.9348272e-01  -3.8572020e-01   5.4665937e-01  -3.3234407e-01  -8.8717786e-01   6.1242229e-01  -5.4306409e-02  -5.3169461e-01  -9.2674162e-01   3.0777576e-01   5.2701833e-01  -1.6202969e-01   5.1168512e-01   6.3109498e-01  -4.3057959e-01   7.8773862e-01   6.8865980e-01  -2.0881850e-01  -1.7481077e-02   6.3711859e-01  -7.9291033e-01  -8.2403845e-01   8.6569552e-01   9.3118426e-01  -9.5817441e-01   5.9503416e-01   7.5321050e-01   3.6521901e-01   2.4057461e-01  -8.0308212e-02  -7.5038061e-01   7.9400386e-01   7.6350599e-01  -1.6388470e-01   7.3770310e-01   5.3728632e-01   5.8787020e-01  -4.9410257e-01   8.8545889e-01  -3.0688227e-01  -2.2362386e-01  -9.1793489e-01  -3.0730519e-01  -8.0569886e-01  -5.6052943e-01  -3.8134999e-01   4.6248008e-01   4.0041836e-01   8.9019245e-01   2.8760803e-01  -2.2369457e-01   5.1391258e-01  -2.8688066e-01  -8.7678593e-01  -3.7645246e-01  -1.7872940e-01  -3.8242987e-01   6.7219073e-01   6.0967735e-02  -2.5989399e-01  -1.6736381e-02  -3.6588522e-01   8.8511475e-01   6.6738453e-01  -2.5234381e-01  -2.1167400e-01  -1.9176468e-01  -2.8927225e-02  -3.8930809e-01   3.4058836e-01  -8.2476710e-01   2.2340726e-01  -2.2834644e-03  -7.5406868e-01  -8.2567235e-01  -6.8764887e-01   9.1209521e-01  -1.1181891e-01  -7.6867142e-02  -8.1920306e-02   8.0695147e-01  -9.9414935e-01  -7.9587732e-01  -6.2083240e-01   6.5861739e-01  -2.1593257e-01  -7.7999612e-01   5.7244758e-02  -7.1552588e-01   8.3465850e-01   4.5386783e-01  -6.2098924e-01  -2.8866457e-01   6.6608016e-01   1.0479437e-01   6.0987364e-01   3.4786664e-01   7.5480380e-01   2.2112050e-01  -9.3474395e-01  -3.7539141e-01   8.0228343e-01  -2.4255462e-01  -3.9740740e-01   2.7450252e-01  -4.3014372e-01   7.3714444e-01   4.9123571e-01   2.3509326e-01   8.7770925e-01  -5.9687571e-02  -2.1161079e-01  -3.9006676e-01  -8.7122405e-01   4.2570754e-01  -2.9676778e-02   1.1391848e-01  -1.3519073e-02   4.5146999e-01  -7.6183729e-01   9.6296029e-01   9.1484322e-01   5.7297702e-01   8.5857181e-01  -4.8339908e-01  -7.1634231e-01   3.3709808e-01   3.9391679e-02   7.6510072e-01   1.7225034e-02   5.7319407e-01  -4.8834244e-01   2.2474217e-02   8.5734318e-01  -2.9596024e-01  -1.8016871e-01   6.7566371e-01   8.1258016e-01  -8.4036578e-01  -3.6014887e-01  -9.5927765e-01   9.4901063e-01  -1.5519146e-01   1.1382935e-01  -3.3589048e-01   4.4219499e-01   2.1130084e-01  -2.3874393e-01  -8.7780794e-02   4.8881519e-01  -5.7098909e-01  -5.0267573e-01   9.9268750e-01  -8.2434176e-01   1.9531684e-01  -4.6074664e-02  -3.1413129e-01  -8.9744380e-01  -4.4892465e-01   1.9221702e-01   3.6225046e-01   9.5959843e-01  -7.0487568e-01   1.1668443e-01  -3.5951402e-01  -8.5989600e-02  -4.3132434e-01  -6.7553104e-01   1.8553718e-01  -6.6502630e-01  -4.7158501e-01  -4.9208896e-01  -9.8148549e-02  -3.8399187e-01  -9.4988397e-02   1.6161884e-01   1.0092528e-01  -3.9730693e-01   6.8708601e-02  -8.2462534e-02  -7.8252481e-01   8.0087817e-01   7.8045272e-01   6.8797374e-01   8.2441524e-01   6.0328394e-01   4.4067566e-01  -4.3939587e-03  -7.8007126e-01   2.6249978e-01   5.4342189e-01   4.4091503e-01  -6.1453978e-01   2.1172228e-01  -4.1001095e-01  -2.2405563e-01   3.3338730e-01   2.8314308e-01   8.5387344e-01   3.1064556e-02  -6.3301669e-01  -3.9679172e-01   7.2663983e-01   6.5498229e-01  -1.4458398e-01  -8.6695921e-01   2.1643752e-01   1.2615172e-02  -6.7832239e-01  -9.3633594e-01   2.3913787e-01  -6.1117840e-01  -5.5515213e-01   7.1772399e-01   3.3712492e-01  -8.7558884e-01   9.0375040e-01  -5.4024262e-01   7.9335092e-01  -6.8513476e-01   2.2143435e-01  -1.2621138e-01   2.7670258e-01  -2.6729642e-01  -4.6351186e-01  -6.5769537e-01  -8.6283824e-01  -9.0191875e-01  -1.6806314e-01  -8.1353195e-01   7.2373528e-01  -5.2679566e-02  -6.7468232e-01   4.6339975e-01   2.8236357e-01  -1.8439220e-02   5.1616759e-01   4.7020960e-02   6.6900107e-01  -4.8856478e-01   4.7256327e-01   2.6353261e-01   2.1419252e-01  -2.1093804e-01   9.6080775e-01   8.3850414e-01  -7.4907132e-01   7.9997305e-01  -8.4859134e-01   9.3403759e-01  -6.6869583e-01  -4.0858967e-01  -7.3843998e-01  -3.3572014e-01   3.7116969e-01   4.4102897e-02   9.3363869e-01  -1.3962579e-01  -4.8154772e-01  -3.0303448e-01   9.4452585e-01  -4.0711792e-01   1.3343741e-01   3.0855713e-01   9.2161149e-01   3.1965499e-01   6.1959666e-01  -1.3045893e-01  -3.5619994e-01   8.2267557e-01   6.4657023e-01   2.4083200e-01   7.1246971e-01  -2.4568778e-01  -9.6295653e-01  -1.1770513e-01  -5.7305206e-01   9.9092213e-01   4.4417985e-01  -2.7409405e-01   6.4321934e-02   4.2914735e-01   1.3618904e-01   9.9503087e-01   8.5828909e-01  -3.1804458e-01   3.5267431e-01  -1.9423953e-01   9.3922057e-01  -5.9546334e-01  -7.7948175e-01   1.3820478e-01  -5.1336398e-01   8.9572634e-01  -8.8219464e-02   1.8254309e-01  -3.5701705e-01   5.7982135e-01   3.5214870e-01  -5.0675398e-02   7.2718434e-01   1.6353491e-01  -4.4961696e-01  -6.0853252e-01   3.2453303e-02   5.0274860e-01   9.6771980e-02  -4.4172607e-01  -5.3805553e-01   4.3816234e-01   9.0630898e-01  -7.8450577e-02  -5.6885968e-01  -9.9051632e-01   5.0313969e-01   1.8813947e-01   8.2044421e-01   8.5746421e-01   2.9418570e-01   2.0148618e-01   8.2117190e-01   5.7664662e-01  -2.8473382e-01   1.8040639e-01  -8.1623657e-02   6.3465220e-01   5.5809980e-02   8.9629624e-01  -8.9301336e-01  -3.2762971e-01   7.0229099e-01   5.5855234e-01   9.9361133e-01   2.1788873e-01  -4.2983835e-01   9.4590622e-01  -5.2394235e-01   3.6942595e-01  -4.5880127e-01  -4.0687867e-01  -8.9402540e-01  -5.9117355e-01   9.0852521e-02  -7.2597843e-01  -5.1299686e-02  -3.6527211e-01   4.5330366e-01  -3.3449562e-01  -3.3028222e-01   3.4835798e-01  -7.8319681e-01  -4.4354318e-01   2.8453915e-01   2.5988853e-01  -3.9390136e-01  -1.3560981e-01  -6.5894284e-01   8.1118427e-01  -5.7367899e-01  -6.1108637e-01   3.3267512e-01   8.7068864e-01   2.7291774e-01   3.6683219e-01   2.8788971e-01   3.0253088e-01   9.5175960e-02  -4.3480946e-01   7.8685594e-02   9.7634046e-02  -7.2467531e-01  -2.2136640e-02  -7.2302794e-01  -2.6544686e-01  -3.9568195e-01  -4.8806080e-01   1.2783153e-01  -2.0669536e-01   7.4292828e-01  -5.4067530e-01   8.0644654e-01   6.5199673e-01   2.7346461e-01   6.6620304e-02   3.6880968e-01  -3.2557659e-01  -3.0524961e-01  -2.7863849e-01  -4.9470662e-01  -2.5564681e-04  -3.2074161e-02   6.9997209e-01   1.4088101e-01  -7.2175903e-01  -9.3666155e-01  -2.6366160e-01  -3.8085609e-01  -7.9344877e-01  -3.6852322e-01  -4.9806730e-01  -2.4774709e-01  -7.7534749e-01   4.0234988e-01  -8.6901224e-01   6.3330632e-01   8.7638644e-01   8.7715385e-01  -9.0283208e-01  -5.2631561e-01  -2.6688102e-01   7.2256640e-01  -6.8643359e-01   4.8142107e-01  -2.5753515e-01   1.4960805e-01   3.9147386e-01   5.8553289e-02  -6.2325902e-01   9.7645947e-01   5.8107095e-01   2.7287345e-01   1.4845020e-01  -9.0109975e-01  -7.0320188e-02   9.8412984e-01   1.2082034e-01   6.2300029e-01   4.5414256e-01   3.0631195e-01  -5.6983190e-01   7.4174404e-01   6.4777616e-01  -8.7817931e-01   3.9091711e-01   6.2379892e-01   8.7411685e-01  -8.7579849e-01   5.6705737e-01  -1.2919461e-01   1.5484031e-01   1.5014983e-01  -5.8531346e-01  -5.6307119e-01  -5.4687905e-02  -4.6715176e-01   4.6960943e-01   3.8863304e-01   1.5273626e-02  -9.1725009e-01  -7.5119216e-01   6.2581113e-01   8.2376949e-01   6.5375419e-01   1.3932536e-01   6.2562715e-01  -7.4506616e-01  -1.5969199e-01   2.9668695e-01  -1.6568821e-01   9.0748295e-01  -2.8579562e-01   2.0607904e-02  -8.9380193e-02  -3.6446134e-01   2.2158886e-02   3.5682874e-01  -4.4782618e-01   5.3127060e-01  -3.4869268e-01  -7.1265407e-01  -3.3454540e-01   6.8872403e-01   3.3278593e-01  -7.6737917e-01   6.9739996e-01  -2.3519542e-01   7.8192361e-01  -7.6705708e-01   2.3645167e-01   9.5755025e-01  -9.7186415e-01  -6.3590433e-01   8.2833945e-01   7.9971983e-01  -1.0770231e-01  -7.1102269e-01   8.4340244e-01   2.2410049e-01   3.9075516e-01  -2.2452111e-01   6.8160740e-01  -3.3081549e-02  -7.8301689e-01  -5.5374552e-01   1.1946473e-01   8.4935019e-01  -2.2742528e-01  -8.1658027e-01  -9.8930317e-01  -6.9964604e-02   6.2074141e-02  -8.9916546e-01  -2.7056019e-01   4.8011930e-01  -5.1920038e-02  -2.5037971e-03   1.2265903e-01   4.4504265e-01   8.5933195e-01  -8.7075242e-02   4.1443818e-01  -9.2501771e-01  -7.9841347e-01   3.8264982e-01   1.6734215e-01  -6.8367229e-01  -7.1383658e-01   5.2874967e-01   3.3360918e-01  -9.8810574e-01  -3.1615555e-01  -3.3592968e-01  -6.7737624e-01  -9.5928341e-01   1.9553979e-01  -4.7471650e-01   2.3446154e-01  -3.3228179e-01   9.6193722e-01  -2.3681820e-01  -3.8004289e-01  -6.0504599e-01  -4.3387329e-01  -1.9705874e-01   7.6921839e-01  -2.0668857e-01   4.7977247e-01   6.7046815e-01   7.5221892e-01   4.9436408e-01  -8.8739248e-01   6.9098963e-01   5.4098774e-01   1.8625764e-01  -2.6310505e-01   4.4753580e-01   3.8652336e-01   5.8691533e-01  -2.1370248e-01   6.8144840e-01   3.8867714e-01   2.6279791e-01   3.6391243e-01   3.7156615e-02   5.8034634e-01  -8.8684518e-01  -8.0507013e-01   5.7371888e-01  -3.0969413e-01  -5.9346169e-01  -1.4508465e-01   6.3803775e-01  -1.2058764e-01  -2.6419359e-01   6.6250362e-01   3.2199641e-01   4.8714291e-01  -2.4108415e-01   4.1389057e-01  -4.6138248e-01  -7.8931071e-01   7.0790506e-02   5.9369043e-01   3.0047803e-01   6.1639406e-01   2.8360953e-01  -5.1802914e-01  -9.4535484e-03  -4.7681444e-01  -4.3866667e-01  -1.0848524e-01  -6.9504560e-01  -7.3286380e-01  -2.9348486e-01  -7.0038866e-01  -7.9882849e-01   2.8297840e-01   4.8697447e-01   9.6376124e-01   5.0950747e-01   3.2420636e-01  -3.7510676e-01  -9.2380246e-01  -9.7036766e-01   4.9799844e-01   5.1059763e-03  -3.5721920e-02   1.3850456e-02  -3.8684400e-01  -8.7643154e-01  -9.2730656e-01   8.6070955e-01   5.0363439e-01   8.0943318e-01   2.6924912e-01   7.0617828e-01   9.5414916e-01   2.0050710e-01  -3.4225554e-01  -3.3731540e-01  -8.0490954e-01   6.7257211e-02   8.5505037e-01  -1.4365272e-01   8.7123355e-01   2.8543602e-01   7.7616902e-01   7.5625396e-01  -7.5676891e-01   9.8585143e-01   1.9898439e-01  -2.4014134e-01   3.1601061e-01  -9.3162810e-01   7.6977046e-01  -1.1087146e-01  -9.9727187e-01   1.7239628e-01   6.6916359e-01  -9.3105907e-01  -1.3564970e-01   1.4812799e-01   2.5629398e-01   2.8161206e-02   4.0971911e-01  -2.1379116e-01   9.1235034e-01   1.1857739e-01  -1.6053322e-01  -7.4198995e-01  -8.3130873e-01  -9.2697790e-01  -8.4121585e-01   1.6283770e-01   2.2790700e-01   8.3068982e-01  -6.3086751e-01  -5.8904544e-01  -3.5344512e-02  -3.6121741e-01   8.8178005e-01   9.2032148e-01   4.7024370e-01   8.0548887e-01  -1.0174760e-03  -2.8548869e-01  -8.9755345e-01  -4.6150974e-02   5.9822057e-01  -9.2519190e-01  -5.9242818e-01  -9.7768077e-01  -2.2392837e-01   6.2494836e-02   3.0348420e-01  -5.5083311e-01   1.4488924e-01   5.0368474e-02  -8.1264689e-01  -6.5309982e-01  -5.7118990e-01  -4.3026712e-01   7.3630058e-01   8.7710817e-01  -9.4284210e-01   5.5740603e-01  -4.6137042e-01  -1.1305295e-01   4.0698977e-01  -1.3599751e-01  -9.4921622e-01  -1.1144006e-01  -5.9272678e-01  -2.8896079e-01  -7.2494267e-01  -4.4945880e-01   4.0212419e-01   1.3753441e-01  -6.8666036e-01  -2.4277495e-01   9.5870526e-01   3.8182253e-01   8.9079491e-01  -5.4545906e-01   6.8401428e-02   5.9881054e-02   7.7698754e-01  -6.2913505e-01   6.9737094e-01  -1.3589849e-01  -2.8284631e-01   8.4076165e-01   8.5956836e-01   4.9062208e-01   2.0405427e-01  -7.3242715e-01  -6.7164498e-01  -1.8868620e-01   9.8740920e-01  -1.6334022e-01  -9.4667393e-01   3.5376264e-01  -7.2684309e-01  -3.7426687e-01   5.5506869e-01  -7.4134670e-02   2.1634397e-01   1.1535242e-01   7.0655220e-01   4.5302491e-01   6.9564973e-01   1.9588625e-01   2.2638000e-01   9.4838904e-01   1.1529165e-01  -2.4051654e-01  -9.0287659e-01  -6.2310873e-01   4.3582158e-01   5.9530568e-01  -8.5738574e-01  -2.8347136e-02  -3.8232512e-01  -3.4585417e-02   1.2067370e-01  -3.6509148e-01   4.1898737e-01   2.0323768e-01  -4.8574958e-01  -1.4244967e-01   7.1054165e-01   4.9805761e-01   8.4391699e-01  -5.6955910e-01  -1.1730731e-01  -6.4107955e-02  -3.9357320e-01  -4.6158028e-01   5.4126156e-01   7.8993279e-01  -6.3895168e-01  -7.1504458e-02  -8.1121608e-01   5.3892311e-01   7.0872845e-02  -6.3172820e-01   7.3845910e-01   4.9281844e-01   6.1576666e-01  -3.9864901e-01  -7.6266421e-01  -5.5919200e-01   2.0205606e-02  -1.8519683e-01   5.2773234e-01   8.7122921e-01   3.4074022e-01   5.9775793e-01   8.4721314e-01  -2.3765613e-01  -2.6570353e-01   5.2178001e-01  -5.9290375e-01   9.5434985e-01   7.3153707e-01  -6.0181029e-01  -5.4497788e-01  -4.2722024e-01  -1.5517569e-01  -7.8670870e-01   8.6499627e-01   5.2371617e-01  -8.4785474e-01  -8.6531066e-01   9.3479287e-01  -1.8820810e-01   9.9572864e-01   1.2681264e-01  -3.3769143e-03  -6.2480817e-01   6.6346059e-01   1.9571902e-01   7.0276598e-01   3.2712534e-01  -8.6251012e-01   7.1368880e-01   2.5995020e-01   1.7455403e-01  -5.3527607e-02   6.1025576e-02  -2.9823073e-01   2.3963177e-01   9.6184912e-01  -6.0277122e-03   7.4670600e-01   9.4790198e-01  -1.8496973e-01  -7.8845963e-01  -9.5159953e-01   5.8649120e-01   6.3929497e-01  -1.1865439e-01   2.8791769e-02  -5.8688380e-01   6.5723081e-01   4.1878034e-01  -8.3664960e-01  -3.8163674e-01   8.7036498e-01   9.3903242e-01   7.0379960e-01  -3.3012831e-01   1.7604740e-02  -1.9332062e-01   2.6658757e-01  -5.9467850e-02  -6.3173362e-01  -6.8468613e-01   6.0031386e-01  -2.7192101e-01  -4.1953636e-01   3.0113832e-01  -8.7471261e-01  -8.1101147e-02   7.1721519e-01  -4.8794703e-01   7.4671183e-02  -5.7429377e-01  -8.8801210e-01   8.1120106e-01   6.6978383e-01  -7.2866479e-01   5.2591841e-01  -8.2541209e-01  -9.0373360e-04  -5.2992599e-01   8.6925128e-02  -3.2322714e-01  -7.8118112e-01   2.7830918e-01  -3.1322906e-01   3.7053495e-01   3.6282606e-01  -1.7545840e-01   6.5701146e-01   3.3855171e-01   9.9191188e-01  -4.9202252e-01  -4.0916410e-02   6.5337382e-01  -8.9442323e-01   5.5450890e-01  -5.2967963e-01   4.2054309e-01   1.4361549e-01   8.5113317e-01  -1.8375945e-01  -3.8491723e-01   8.1424493e-01   3.6784781e-01   4.6577053e-01   2.7441610e-01   1.8444554e-01  -3.2568170e-01   1.1814356e-01  -4.1205472e-01   7.9401921e-01   8.1743552e-02  -7.7969944e-01  -2.3745305e-02  -9.4367005e-01  -4.1615824e-01   9.9199280e-01  -4.2697834e-01   6.8064745e-01  -1.1961814e-01   3.1149422e-01  -7.6859437e-01   5.4530487e-01  -3.4714308e-01  -8.6948876e-01   8.1734808e-01   5.9617805e-01   9.9786083e-01   8.4181602e-01  -6.4590341e-01  -8.1146955e-01   5.7636554e-02  -1.6375354e-01   7.6442248e-01  -2.1991585e-01   2.4798807e-01  -1.0445006e-01  -7.2726399e-01   4.0180347e-01   9.6706372e-01  -7.9211451e-01   4.5732902e-01   3.7563442e-01  -2.8815500e-01   1.2071936e-01  -5.1757508e-02  -7.1820514e-01   3.5699129e-01   3.9733434e-02   7.0055100e-02   9.4736094e-01   2.8805869e-01  -3.7961306e-01   7.2906590e-01  -7.7632913e-01   5.7267353e-01  -1.1221995e-01   7.8896463e-01   3.4978297e-01  -6.1017310e-01   6.2151035e-01  -5.3230318e-01  -7.6727592e-01   7.7725282e-01   3.9974001e-01  -8.0775149e-01   2.2688607e-01  -1.8602985e-01  -2.2521258e-01   3.9153376e-01  -8.8693414e-01  -7.3727057e-01   2.1063499e-01  -3.7939187e-02   9.0270720e-01  -8.1940769e-01   4.4406139e-03   8.6131021e-01   7.2905358e-01   3.3650013e-01   1.2217597e-01   2.5041823e-01  -8.5661619e-01   1.7844054e-01   1.6491437e-01  -6.1687438e-02   3.0412779e-02   8.5339291e-01   9.9797680e-01  -4.9984776e-01  -1.7576128e-01  -1.2365557e-01  -1.6590261e-01  -3.1552137e-02  -3.4663489e-01  -7.9841857e-01  -9.0436542e-01   4.5940740e-01   6.4897558e-01   7.1767651e-01  -7.4623646e-01   4.0199169e-01  -9.6984640e-02   1.1360638e-01   6.9760516e-01   7.8775272e-01   9.2016473e-01   4.0903546e-01  -5.5331920e-01  -9.2430342e-01   1.1523540e-01   4.1068011e-01  -2.1040640e-01  -2.6428043e-01  -7.5448004e-01  -9.4531386e-01  -6.7014476e-01   3.7582131e-01   5.2571079e-02  -4.2779143e-01  -6.5979537e-01  -5.7621343e-01  -7.8964053e-01   2.2057835e-02  -4.2687416e-01  -4.5880335e-01  -5.8003434e-02   9.2880529e-01   9.6806134e-02  -4.5776229e-01  -5.3257909e-01  -1.5238947e-01
