   6.8979439e-02   4.8235095e-01   4.4942717e-01  -9.0409228e-01   1.7155425e-01  -3.7093264e-01   8.7941481e-01  -8.5998858e-01  -8.0228233e-01  -7.8976507e-01   1.3220280e-01  -6.4967888e-01   5.8833304e-01  -3.7378306e-02  -7.2153874e-03   5.8340530e-01  -6.9985474e-01   2.3994079e-01  -8.1477784e-01   4.9081748e-01   8.7271630e-01  -2.4001415e-01   1.6578808e-01   3.7266200e-01  -2.4112244e-01   8.0780198e-01  -7.1693849e-01  -4.6087612e-01   4.4807561e-01  -9.7540592e-01  -3.4170768e-01  -4.9221308e-01  -6.8580770e-01  -1.4475565e-01   9.1206582e-01  -1.5242431e-01  -5.7519877e-01  -8.3394935e-01  -2.3178035e-02  -4.4697563e-01   7.0170610e-01   5.2468901e-01   9.7387191e-02   6.3978488e-01   9.7337741e-01   2.2717302e-01  -2.6044350e-01   8.6861989e-01   7.0876776e-01  -7.0863543e-01  -1.1599733e-01  -1.4601428e-02  -3.0272311e-01   3.2991328e-01  -7.3571783e-01  -6.1582670e-01  -9.6148932e-01   1.1222584e-02   5.0748745e-01   2.1982848e-01  -8.9216513e-01  -8.0409035e-01  -6.9877152e-01  -7.7683363e-01   3.5956728e-01  -4.0653153e-01  -7.3744371e-01  -7.2333955e-01   4.0476128e-01  -3.6896990e-02  -4.2838097e-01   1.8407459e-01   4.4705172e-01   1.8759640e-04   8.3728822e-01  -5.2905318e-02   3.6173111e-01  -4.3875835e-01  -1.6117324e-01  -3.1803191e-01   6.2356254e-01  -5.2331097e-01   1.4871285e-01   7.3300398e-01   8.0335386e-01  -3.6792788e-01  -5.3795415e-01   2.0371819e-01   3.5552658e-01   4.8994012e-01   8.3866622e-02   5.6763654e-01   3.6971963e-01  -8.8298378e-02   8.9064481e-01  -7.5609063e-01  -2.1062856e-01  -7.5773400e-02   7.4595399e-02  -2.8364174e-01  -5.2553755e-01   3.1948616e-01   9.0011226e-01  -4.7449828e-01   7.9194480e-01  -6.4356188e-01  -8.1887923e-01  -2.4484687e-01  -8.2773453e-01  -8.3500265e-01  -8.6800481e-01  -2.1182115e-01  -3.6344055e-01   5.6657203e-01  -1.8825787e-01   4.4757301e-01   5.8854695e-01   2.5040872e-01  -4.0327928e-01  -2.3945069e-01   9.9230644e-01   7.8211099e-01   8.5463918e-01  -5.0891439e-02  -1.0143015e-01   2.4117687e-01   3.1068762e-01  -6.2509329e-01   5.4203953e-01  -3.0615552e-01   2.4346941e-01  -5.4901254e-01  -2.0493895e-02   8.7765295e-01  -6.7227561e-01  -5.8785301e-01   8.4215902e-01   3.2487684e-01   2.5306982e-01  -2.3476045e-02  -9.7309896e-01   4.5487287e-02  -5.5317516e-01   3.5357214e-01   7.3563971e-01  -1.0970938e-01   1.4401090e-01  -6.4322364e-01  -1.4384793e-01  -3.8691166e-01  -4.0391427e-01  -1.3960714e-01   4.3085414e-01  -5.8443354e-01  -9.2350313e-01  -1.0905915e-01  -4.8938984e-01  -6.9772754e-01  -2.8358844e-01   1.7746829e-01   2.1405235e-01   1.7327266e-01  -5.0852587e-01   4.9530047e-01  -6.5317672e-01   9.0270883e-01   3.9871547e-01  -3.4629573e-02  -9.7048236e-01  -3.3902896e-02   4.3384677e-01  -2.8557045e-01  -2.2652167e-01  -1.8579829e-01   7.1260037e-01   8.4093230e-01  -4.6436864e-01  -6.1655986e-01   7.6374755e-01   5.1725632e-01  -2.7696677e-02  -1.5846797e-01   6.8127633e-02   7.2426951e-01  -1.3023405e-01   2.8976274e-01   6.4493680e-02   4.0398072e-01   3.8319977e-01  -6.7598217e-01  -3.6801413e-02   3.1953388e-01  -1.1672823e-01  -4.9661871e-01   2.6156260e-01  -1.9402469e-01  -8.3605372e-01  -3.3559955e-01  -9.1569437e-01  -7.9815193e-01  -7.6647475e-01  -8.3970895e-02   7.9806092e-01  -7.6442566e-01  -3.9708916e-01  -3.6266652e-02   2.8727587e-02  -7.6494975e-01  -7.5771404e-01   7.7892923e-01  -8.0928025e-01   5.9017941e-01  -2.0284002e-01   8.7430907e-01  -5.2509761e-04  -1.4453311e-01   5.1171732e-01   1.1618013e-01   2.5010811e-02   8.2782891e-01   9.7910479e-01  -2.2868690e-01   9.4487409e-01  -1.4243849e-01   6.9620097e-01   8.1853522e-01   5.6057168e-01   5.3218330e-01   5.6044000e-01  -5.8692252e-01  -9.9292034e-01  -9.2160937e-01  -3.8523230e-01   4.3112219e-01  -8.7489135e-01   7.3336170e-02   3.1731587e-01   3.5933114e-01   4.7309893e-01  -7.5735152e-01   8.7775472e-01   9.9350953e-01  -8.7640407e-01  -3.0455251e-02   9.4629952e-01   4.1115707e-02   6.9562322e-01   1.3543911e-01   1.1692214e-01  -6.3240803e-01   2.8384651e-01   3.5016747e-01  -5.1080928e-01  -5.8918043e-01   6.6203848e-01  -4.6106280e-01   7.6419354e-01  -8.3738738e-01  -5.9598131e-01   5.5345230e-01  -3.7989159e-02   8.3813193e-01   1.7197085e-01   8.2639893e-01  -6.7182343e-01   9.2369449e-01   3.0586905e-01   3.2103362e-01  -4.2618929e-01  -8.3615574e-01  -7.5561731e-01  -2.1756251e-01  -9.7181240e-01   4.0594610e-01   4.9816679e-01  -4.3629915e-01  -5.3029421e-01  -3.6685651e-01  -2.2139128e-01  -4.2624952e-02  -4.5429257e-01  -1.3780611e-01   8.0172722e-01   3.1492104e-02  -3.2975539e-01  -6.4071995e-01  -7.7271925e-02  -2.8429131e-01   4.2041185e-01  -2.2255041e-01  -9.5518856e-01   7.2020744e-01  -7.1825344e-01   8.5734330e-01  -1.4538668e-01   7.0790861e-01   4.8887204e-01  -1.9092612e-01   9.9188907e-01   3.4010219e-01   8.8009046e-01   4.3401464e-02  -4.6830211e-01   5.3139574e-01   2.1355075e-02   5.9352760e-01   4.3297012e-01  -6.9643961e-01   3.7002774e-01   4.3259595e-01  -1.4710293e-01   1.4793129e-01  -1.9644617e-02  -1.0163807e-01  -6.0171668e-01  -8.3744215e-01   1.8729145e-01   1.3298392e-01  -9.7899157e-01  -2.8719214e-01  -3.6622180e-01   8.5243231e-01   7.4306961e-01   1.3394433e-01  -7.9609391e-01  -2.3012186e-01  -1.4786137e-01  -4.7059563e-01  -4.9528478e-01   1.6911919e-01  -5.6485466e-01  -9.7775733e-01  -1.5787899e-02   5.0328356e-01  -1.6184069e-01  -8.0459572e-01  -6.6282839e-01   7.9595555e-03  -1.7226076e-02  -2.7488073e-01  -7.0239055e-01   8.9204240e-01  -9.1717878e-01  -5.2547970e-01   3.1120893e-01   3.9506240e-01  -4.8215493e-01  -2.4954111e-01   5.9439348e-01   2.4737508e-01  -2.7712259e-01   5.2341422e-01   1.3695500e-01  -1.9484437e-01   2.6910848e-01  -8.1803924e-01  -4.1877534e-01  -9.0594402e-01   7.9338239e-01   4.1784491e-01  -9.8021846e-01   4.7183035e-01   7.2017212e-01  -5.9582102e-01  -9.1818411e-01   5.2168669e-02   7.8151706e-01   7.1945445e-01   4.2390850e-01  -1.4784872e-01  -7.3918790e-01  -4.9064564e-01   7.1840283e-01  -4.4386780e-01   5.1269758e-02   5.0262040e-01   2.8313844e-01  -2.1353152e-01   1.8733294e-01  -7.6554899e-01   6.2846913e-01   2.9977784e-01  -4.0396094e-01  -3.9523183e-01  -5.2013076e-01  -8.8965069e-01   2.6416050e-01  -9.9955657e-01  -8.1571953e-02   1.5448835e-01  -4.8364913e-01   9.0957583e-01  -5.4011895e-02   9.6393236e-01  -4.1611859e-01   2.8750160e-02  -6.3577445e-01  -7.7799924e-01  -2.1900937e-02   5.2547094e-01  -9.1569974e-01   1.7465555e-01  -7.1687690e-02  -4.2047495e-01   1.5178512e-01  -7.7031992e-01   5.5022263e-01  -5.2076676e-01   5.7655672e-01   4.9745524e-01  -2.7123877e-01  -1.4369365e-01  -8.8809075e-01   4.2502119e-01   2.1213964e-01   8.6754011e-01   8.5081340e-01   6.8395203e-01  -3.9172417e-01   1.0516935e-01   8.5491856e-03   3.6435614e-02   5.0254728e-01   2.1205516e-01   8.8793370e-01  -8.9089622e-01   7.4957839e-01   1.9963226e-01   3.2654270e-01   5.2657365e-01   2.7122315e-01   3.8759224e-02  -1.6484266e-01  -5.0916760e-02   8.6593416e-03  -4.7681666e-01  -9.6582279e-01   7.2563072e-01   3.0445627e-01  -5.3642482e-01  -4.9845598e-01  -7.1507357e-01   6.1452319e-02   1.8499522e-01   2.1728900e-01  -4.0604498e-01  -9.5877837e-01   2.8239504e-01  -9.4591845e-01  -2.7073706e-01  -5.8476093e-01  -3.1656251e-01  -6.2452306e-01   2.9147044e-01   2.9836798e-01  -2.0152276e-01  -2.4263869e-01   2.8289220e-01   2.0762070e-01   5.2974606e-01  -8.2823652e-01   1.7997612e-01  -6.7853710e-01   2.7164493e-02   1.6923955e-01   5.4145674e-01  -2.4717904e-01   3.5058064e-01   9.2597014e-01  -6.8887171e-01   4.7525978e-01  -9.1626044e-01   2.4554914e-01  -2.3251389e-01   6.9165493e-01   3.9503294e-02   9.9653273e-01   5.2995589e-01  -3.5952755e-01  -5.3552272e-01  -5.8054891e-01   1.6941521e-01  -1.7577676e-01   2.4152015e-01  -9.5781046e-01  -1.9837866e-01   9.1965253e-01   7.4153546e-01  -8.3501257e-01   9.4842091e-01  -7.0814903e-01  -1.0719693e-01  -8.9276357e-01   6.9204672e-01   5.2258303e-01   9.9071722e-01  -4.6851850e-01   4.2457260e-01   4.8534800e-01   6.3543876e-01   1.6388766e-01  -1.6695756e-01   2.8069898e-01  -8.8516833e-01   2.7787892e-01   7.6601582e-02   9.5584343e-01  -9.0339805e-02   3.6532427e-01  -7.2636443e-01  -3.8121034e-01   9.9976805e-01   8.5457627e-01  -7.6977008e-01  -6.6249576e-02   1.3580059e-01   3.9711241e-01   5.9528745e-01  -9.5624860e-01  -5.4083316e-02   3.1581346e-01  -5.5760512e-01  -6.5309290e-02  -3.4686111e-01  -1.0693483e-01  -1.7595874e-01   9.9110369e-02  -2.4186671e-01   2.3069377e-01  -5.2127075e-01   5.8935918e-01  -4.8896922e-01  -1.8018566e-01   5.3274940e-01  -3.1105577e-01  -6.2481600e-01   1.3394649e-01  -7.3641632e-01  -8.2840191e-01   6.7436172e-01   7.7651710e-01   6.1335946e-01   6.4080667e-01  -8.7611651e-01   2.7617523e-01  -5.7802465e-01   6.8217454e-01  -8.3771098e-01  -9.6943561e-01   2.2827007e-01   7.1998247e-01  -3.6102555e-01   2.4819997e-02  -1.5931109e-01   9.6563267e-01  -9.1149387e-01   7.7776501e-01   9.5782328e-01  -9.7394230e-01  -8.4645775e-01  -8.1136091e-01  -7.5733590e-01  -2.9579059e-01   7.1143103e-02  -3.1630992e-01  -4.0515717e-01   4.6769712e-01   2.0164191e-01   5.6555325e-01  -5.1928042e-02   3.4403833e-01  -7.3222796e-01   8.1434796e-01   2.5637363e-01  -7.2924782e-01   1.0150930e-01  -4.4788280e-01   8.0996032e-01   9.6003041e-01   4.9525596e-01   7.9087383e-01   8.5116747e-01   2.2622601e-01   5.8252358e-01  -7.0587081e-01   8.8397151e-01   9.5568777e-01   3.6126477e-01  -1.1669674e-01   7.3106829e-01  -4.3132362e-01  -7.3286379e-01   5.9164525e-01   7.8902700e-02  -6.1117141e-01  -5.8489681e-01  -5.7745892e-01   9.2306338e-01  -8.6591573e-01  -5.7281373e-01  -1.0103156e-01   8.9691531e-01   5.0973289e-01   9.2438235e-01  -3.0575738e-01   5.7092392e-01  -9.0044633e-01   5.6439275e-01  -4.4458213e-01   1.5555337e-01   7.2106180e-01   5.7925259e-01  -6.3056951e-01   5.3822958e-01   8.6875652e-01  -5.4403318e-01   7.9392622e-01  -2.1022823e-01   4.9563539e-01  -4.9002289e-01   3.2521309e-01   4.8507902e-01   1.5077387e-01  -7.3391379e-01   9.1134154e-01  -4.5359489e-02   2.8338471e-01   3.1780906e-01   9.7263324e-01   5.5468783e-01  -9.2804015e-01   3.2609446e-02  -4.2229763e-01   2.4495890e-01  -8.4199184e-02  -8.5337178e-02   4.9511511e-01   6.5859320e-01  -3.5032242e-02  -6.6985351e-01  -1.2946275e-01   5.0923838e-01  -9.0307090e-02   9.8984951e-01   4.2994171e-01  -6.7932430e-01   4.9038092e-01   3.3024199e-01   3.0090544e-01   6.4688467e-01   5.3473357e-01   8.9581065e-01   5.2371690e-01   5.2260875e-01  -2.3119000e-01  -1.4101107e-01   4.4466063e-02   2.2057020e-01  -6.5936422e-01  -6.8481164e-01  -6.8210673e-01  -2.7827910e-03  -9.9525200e-01  -4.4984114e-01   2.2184757e-01  -6.4964212e-01  -9.9817608e-01  -3.5314978e-01   9.3415346e-01  -4.3836109e-01  -3.9909305e-01   8.7126605e-01   2.5326861e-01  -6.6819612e-01  -1.6328347e-01  -4.9683545e-01   6.5016245e-01  -9.3261486e-01  -5.5520588e-01  -4.7828153e-01   2.9840911e-01   9.0244825e-01  -3.9980680e-01   5.1463985e-01   3.7273421e-01  -2.8314852e-01  -5.6462436e-01  -3.8893780e-01   8.7683073e-01  -8.5093164e-01   5.8571789e-01  -6.8164910e-01   8.8612445e-01   1.8058400e-01   9.5336193e-01   2.9652202e-01   2.2441555e-01  -8.4902826e-01  -9.1279627e-01  -2.4842680e-01   4.6660175e-01  -6.3395041e-01   7.9949065e-01   2.6676015e-02  -3.6831207e-01   2.7089019e-01   4.0688316e-02  -8.7076045e-01   2.4678363e-01   9.0058731e-01   6.3730369e-01   7.0626219e-01  -7.0659168e-01   3.2576141e-01   1.0591407e-01   4.1742324e-01  -2.3152300e-01   6.8323755e-01   2.1511637e-02  -3.4807016e-01   3.5168088e-01   1.7445790e-01   2.4521539e-01  -1.1308875e-01   5.6580863e-01  -1.8771253e-01   5.2583114e-01   9.7014344e-01  -7.1459412e-01  -1.8555644e-01   5.4566990e-01   4.0867001e-01  -5.5891355e-02   6.8206997e-01   6.2108844e-01   2.4154986e-01   6.5615866e-02   8.6027843e-01  -4.8944901e-02  -6.2477095e-01  -1.4066576e-01  -5.2183951e-01   3.2586130e-02   6.1330536e-01   4.0931137e-01  -1.4434683e-01  -1.2412596e-02  -2.9913660e-01   9.2860594e-01  -6.1834048e-01   7.2361895e-02  -2.2544490e-01   9.5923184e-01  -3.4840290e-01   7.9471723e-01  -1.3271438e-01   5.9487848e-02  -5.0632732e-02   5.5226627e-01  -7.5883339e-01   8.2238136e-01   5.2060826e-01   8.6427263e-01  -3.4694040e-01   1.7804055e-01  -5.5224902e-01  -4.9862529e-01   7.0278364e-01   3.2621433e-01   8.0686130e-01  -4.2008020e-01   3.0598936e-01   7.3005997e-01  -5.0604459e-01  -1.0591628e-01   6.2102408e-01  -9.1127238e-01   4.8427233e-01   4.6711859e-01  -7.4892747e-01   5.8104657e-01  -1.5698337e-01   5.8856430e-01  -4.3713971e-01   9.8132028e-01  -1.6879461e-01  -5.9165421e-01  -1.5712063e-01  -4.9408424e-01   8.6576481e-01  -1.0390968e-01  -2.5565950e-01  -7.8668094e-01  -3.2286062e-01  -3.8853406e-01   3.9823819e-01   8.5518492e-01  -9.5214377e-01  -4.5978677e-01  -3.8870323e-01  -6.4101051e-01  -8.3240344e-01   9.7688662e-01   5.0339358e-01   3.5557861e-01  -2.2229088e-01  -3.4200415e-01  -1.9829754e-01   6.2245842e-02  -8.4491056e-01   2.9924816e-01  -2.6045686e-01   7.0206391e-01  -2.1262681e-01  -8.1119373e-01   6.7311328e-01  -1.6282851e-01   4.6479856e-01  -5.8424660e-01  -9.3090038e-01   5.2246216e-01  -7.8207229e-01   1.8833700e-01  -9.6924408e-01  -8.3604039e-01  -1.5729372e-01   7.5137616e-01  -1.5079238e-01  -9.8784204e-01  -6.3292245e-01  -4.6534586e-01   1.4408107e-01  -3.2230719e-01  -3.6575285e-01   3.4269257e-01  -9.4730624e-01   5.8253737e-01  -1.5167347e-01  -8.2361575e-01   3.2636609e-02   4.4830288e-01   2.2010600e-01  -9.7314906e-01  -8.1887730e-01  -2.4768697e-02  -6.9885164e-01  -6.9493753e-01  -5.1482955e-01  -7.9800540e-01  -5.2571711e-02   5.7564329e-01  -8.5832335e-01   1.7273513e-02   4.7251095e-01  -4.9909991e-01   3.3101455e-01  -3.3597785e-03   3.0756157e-01   8.1056716e-01   2.4967801e-01   2.0457966e-01  -6.9790563e-01  -5.6945959e-01   2.3773182e-02  -7.6673383e-01   9.5295630e-01   6.9395875e-01   9.3502751e-01  -1.9247620e-01   3.4694625e-01   7.4186817e-02  -7.6699690e-01   7.6996533e-01  -8.1702547e-02  -9.5707432e-01   3.8925554e-01   5.1494244e-01   1.3872259e-01   8.8384296e-02   8.2381125e-01  -7.4499494e-01  -8.4694263e-01   5.5506275e-01  -7.1526001e-01   4.0797811e-01  -4.5338429e-02  -7.8985780e-01  -6.5209341e-02   7.8177862e-01   6.8359902e-01  -5.8909328e-01   2.5646908e-01   9.1707351e-01  -1.9807311e-01   7.7187811e-01  -3.5349218e-01  -7.1313343e-01  -7.8899636e-02  -3.9519974e-01  -8.9955020e-01   7.6160408e-01  -7.7253444e-01   3.6050130e-01  -9.3775202e-01  -4.9696699e-01   8.7846843e-02  -1.5365750e-01   5.1457849e-01   1.9657857e-01   4.5838729e-01   4.7640414e-01   1.4182122e-01  -8.7004173e-01  -3.4580686e-01   4.0229852e-01  -7.6903512e-01  -4.3422429e-01  -7.2107657e-01   5.1212692e-01   3.9306446e-01  -2.5353319e-01  -1.8096207e-01   5.6118710e-02   1.7435995e-01  -5.0471067e-02   9.0151412e-01  -1.7184828e-01   8.1274779e-01   3.7669008e-01  -4.4428489e-01  -2.5741439e-01   7.2460848e-01   1.5637201e-01   8.6645277e-01  -7.8700326e-01   7.7259113e-01   8.1522787e-01   2.3703229e-01  -1.6433330e-01   6.9433175e-01   7.3372377e-02   8.8834450e-01  -8.6271213e-01   5.0198496e-01  -8.3686332e-01   6.6074375e-01   6.3221693e-01   1.1538388e-01  -8.3862165e-01   5.7499638e-01  -2.9317018e-01   8.4111036e-01   4.7120959e-01   2.9616427e-01  -5.5727361e-01   3.7065064e-01  -2.6853545e-01   4.3222256e-01  -7.5714983e-02  -6.0468139e-01  -1.4469359e-01   4.5065389e-02  -7.5737104e-01   4.2680913e-01   7.2150042e-02  -3.8064224e-02   5.3815172e-01   2.5265169e-01  -9.3261345e-01  -9.5268385e-01   7.7948619e-01   4.0665779e-02   7.8150950e-01   5.4631748e-01  -9.5127134e-01   1.5815109e-02  -1.8910182e-01   8.0416553e-02  -2.1088072e-01   3.5390781e-01   9.2969565e-01   4.6266659e-01   2.5961993e-01  -9.2627244e-01   9.5775108e-01  -2.4025079e-01  -4.3647473e-01  -6.9962469e-01  -4.0496628e-01   4.3079482e-02  -5.7842509e-01  -6.1282086e-01  -4.8029301e-01   8.2218912e-01   7.8467645e-01  -7.7715508e-01  -5.4001813e-01   3.8445978e-02  -9.0344810e-01   1.1537892e-01
   9.8984253e-01   8.1710052e-01  -9.2169074e-02   9.5126153e-01  -9.0415877e-01  -5.7003134e-01  -7.4906835e-01   8.7122414e-01  -5.4308145e-01   6.2127308e-01  -5.9442005e-01  -5.9522961e-01   7.6770424e-01  -6.2149500e-01   1.5952856e-01  -1.5037394e-01  -5.7442500e-01   9.6647949e-01   5.8947850e-01  -6.1607517e-01  -6.4650744e-01   8.1530431e-01   8.5164722e-01  -9.3200731e-01   9.2421708e-01   2.8294340e-01   3.5668454e-01   5.1919288e-01   8.5073024e-01  -6.9573109e-01  -6.5546634e-01   2.2456332e-01  -2.0692174e-01  -1.3375362e-01  -1.8298786e-01  -1.5477759e-01  -1.9921611e-01  -2.6279049e-01  -3.4564589e-01   3.9950598e-01  -5.6624196e-01  -8.7732682e-01   5.4864219e-01  -2.4336684e-05   4.4644529e-01   2.0383637e-01  -4.4184593e-01  -6.1816670e-01   6.8092670e-01  -6.1411425e-01   5.2489645e-01  -3.4606207e-01  -9.7437912e-01   1.7330969e-01  -2.0426323e-01  -3.7675424e-01   2.0840541e-01  -2.2523355e-01   6.3819181e-01   5.7162467e-01  -2.9491259e-01   5.7006527e-01  -7.6617082e-01   9.2056359e-01  -5.4816043e-01  -5.7943411e-01   4.0041359e-01   8.1383958e-01   2.3149859e-01  -5.5836467e-01   3.0261888e-01   5.1726071e-01  -3.1742764e-01  -4.6828218e-01  -7.0209227e-01  -5.2315587e-01   7.8872338e-02   3.2584539e-01  -5.5932954e-02   4.1331350e-01  -7.3664800e-01  -9.8221141e-01  -3.3383697e-01  -6.1903820e-01  -6.5734735e-01   8.5459695e-01   5.3915714e-01  -8.9710057e-01  -6.0474281e-01  -8.8177045e-01   5.7577657e-01   6.8958228e-01  -4.0689677e-01  -4.3305011e-01  -2.1186761e-01  -9.6237450e-01  -9.6503302e-01  -5.0479731e-01   2.2298224e-01  -6.1703517e-02   3.1246696e-01   8.1758303e-01  -7.0697548e-01  -4.7562441e-01   1.0475396e-01   7.1984657e-01  -3.0786135e-01  -6.8581039e-01  -9.1016757e-01   1.8537650e-01   9.2052841e-01   5.6290009e-01  -6.8487438e-01   5.3580912e-01  -3.3849745e-01  -4.0312290e-01   8.7821955e-01  -4.1189025e-01  -8.7683348e-01  -6.3018023e-01   4.7943355e-01   5.0995907e-01  -3.8662144e-02   7.5909680e-01   6.8296794e-01   2.3041228e-02  -8.7618586e-01   9.8665127e-02  -7.0404468e-02   6.9236792e-01  -7.4848568e-01  -1.0728650e-01   3.8433304e-01   2.9570789e-01  -3.2526235e-01  -5.4263360e-01  -6.6917516e-01   8.3232421e-01  -3.6708749e-01  -4.4775193e-01  -3.4749625e-01   9.0388753e-01   8.6438531e-01   3.2070519e-01  -8.0102226e-01   2.2987427e-01  -9.1695783e-01  -6.5820370e-01  -5.3416585e-01  -9.3508292e-01   8.7808664e-01   9.2083546e-01   7.3396637e-01   2.1936717e-01  -5.6453026e-01  -9.9641596e-02  -3.2583018e-02   7.3870821e-01  -9.8774353e-01  -2.7912063e-01  -2.3556622e-01  -2.2812029e-01  -9.3095096e-01  -6.2940221e-01  -9.6840193e-01   7.3514480e-01   1.0119524e-01   1.1101452e-01   9.2843211e-01  -1.6859208e-01   3.1277267e-01  -6.4662979e-01  -8.2148095e-01   1.3315615e-01   2.4113601e-01  -9.9886584e-01  -2.3330608e-01  -4.2597180e-01   5.0598489e-01   8.4731690e-01   8.0530577e-01  -2.3759684e-01   3.2915763e-01  -7.3042806e-01   6.8077903e-01  -4.5170796e-02   8.5081229e-01  -9.5295567e-01  -7.0685777e-01   7.4069289e-01   9.6798839e-01  -7.5569376e-01   6.0693583e-02  -9.7352138e-01  -9.9474693e-01  -9.2700075e-01   3.9739811e-01  -5.0557180e-01   4.6641367e-01  -9.3962135e-01   6.8056394e-01  -1.6845534e-03   1.7808395e-01   4.4109198e-01   7.3117487e-01   5.5997198e-01  -5.2652793e-01   6.1498828e-01  -6.7229937e-01   6.4537192e-01   1.4959994e-01  -9.0249937e-01  -9.3529512e-01  -2.3689424e-01  -8.2938104e-01  -7.5123833e-01   9.9753388e-01  -8.5347999e-01  -7.5255541e-01  -4.9855080e-01   6.3222202e-01  -9.3264460e-01  -6.1870937e-01  -8.0388053e-02  -7.8205228e-01  -7.5774541e-01   4.6094491e-01   5.1199930e-01   6.1398143e-02   9.5429029e-01   3.2683391e-01   1.6368130e-02  -4.7601549e-01  -2.6233902e-02   6.4728790e-01  -5.9883848e-01   2.3006668e-01   2.3435850e-01  -6.8992621e-01   7.0063155e-01   2.4077341e-01  -6.5410999e-01  -2.0835501e-01   5.2659774e-01  -9.9564891e-01  -5.1086006e-01   8.5130902e-02  -3.2830380e-01   6.3343405e-01   7.5561582e-02   9.1722084e-02   2.3094592e-01  -8.0485555e-01  -2.5215760e-01   3.9713505e-01  -9.7211163e-01  -8.9696594e-01   7.9898808e-01   2.9673303e-01  -9.4879554e-02  -7.7705699e-01  -4.0710488e-01  -3.7325785e-01   9.6851886e-01   9.5164905e-01  -9.6741155e-01  -6.8131804e-01   2.1865060e-01   5.8124464e-01  -2.2618194e-01   3.7039868e-01   7.7267560e-02  -9.3881627e-01  -2.7983219e-01  -5.4623177e-01   2.9344872e-02   8.4321904e-01  -1.1751183e-01  -8.5768707e-01  -6.9134085e-01  -3.0371605e-01   9.3999265e-01   4.6768476e-01  -6.6169107e-01   8.6948779e-02  -5.2104997e-01   8.6971978e-01  -4.0408527e-01   5.5831648e-01  -4.1355470e-01   8.5877823e-01  -4.9792711e-01   9.2867838e-01   5.0053999e-01  -3.4616719e-01   7.3712032e-01   7.9027770e-01  -3.4968094e-01  -8.1621227e-01  -2.4444070e-01   4.1030763e-01  -2.1660041e-01   7.6342759e-02   7.3408080e-01  -7.2166177e-01  -6.4535068e-01   9.3753582e-01  -9.2652235e-01  -5.2627053e-01   4.7456127e-01  -5.5550572e-01  -6.2802665e-01  -8.9745599e-01   9.0877527e-01   5.2528547e-01   5.9450631e-02  -2.6618897e-01  -7.8520494e-01   3.8568610e-01  -7.9589960e-01   5.9988680e-01  -1.1674554e-01  -2.6156980e-01  -5.2232414e-01   3.2483285e-01   5.1873968e-01   8.6461710e-01  -1.2697348e-01   1.3176110e-01   7.8939989e-02   1.6129671e-01   2.5288428e-01   5.1759457e-01  -1.4760763e-01   8.7275538e-01   4.4050830e-01  -1.6947456e-02   9.7050041e-01   4.3349515e-01  -5.6232104e-02   1.6265886e-01  -9.8472624e-02   9.1499157e-01   2.7023818e-01   7.1303044e-01  -3.4192983e-01   1.5192226e-01   7.7843251e-01   7.6092127e-01  -8.9299800e-01   3.8919351e-03   1.7384974e-01  -2.9564196e-01  -9.4434664e-01   3.3821183e-01  -8.4256393e-01  -1.8922463e-01   4.6468091e-01  -1.0269463e-01   3.6141434e-01   7.0555303e-01   4.8226541e-01   2.0809510e-01  -9.1621405e-01   4.8282912e-01  -2.3341788e-01  -4.1205498e-01   4.7268010e-01   2.7540665e-01  -2.4089352e-02   2.2477359e-01   2.4491871e-01   6.7811992e-01  -6.3738796e-02   7.4487415e-01   8.5723895e-01   7.2927815e-01   1.5951391e-02   5.7204460e-01  -5.2148827e-01   5.7724395e-01  -4.2623997e-01  -1.8057414e-01   9.0382368e-01   7.6040882e-01  -2.8142631e-01   9.0900585e-01  -3.0488491e-01   3.1423089e-01   7.5373698e-01  -5.5169659e-01   8.5421145e-01   7.3803701e-01  -1.7152454e-01   3.0154649e-01   7.4173408e-01   9.2411462e-01   6.9483153e-01   4.1972837e-01   8.8878550e-01   1.4515361e-01  -7.0851100e-01   2.8138739e-01  -3.0793768e-01   6.9919480e-01   1.8541907e-01   9.0084022e-01   9.3019225e-01   1.5843887e-01   8.1646020e-01   5.2596825e-01  -3.5225437e-01   7.2351506e-01  -8.2314776e-01   1.9857096e-01  -2.3863810e-01   1.7006737e-01   2.6698620e-01   4.5141430e-01   2.6589848e-01   9.1445925e-01   2.6445654e-01   3.2545858e-01  -4.6055033e-01   8.3470519e-01   7.1264602e-01  -5.4106138e-01   2.7882397e-01   1.9188258e-01  -5.6816011e-01  -8.1386038e-01  -4.5640558e-01  -9.7878954e-01   8.8714448e-02   7.1673230e-01  -3.4870087e-01  -6.4304684e-01   9.8194984e-01  -8.7985416e-02   9.8268732e-01   3.4487150e-01   9.1120397e-02   2.3116229e-01   8.3107104e-01  -6.2045313e-01  -6.0220291e-01   1.8017810e-01  -8.0698630e-01  -2.4883487e-02   9.2379719e-01   9.1530425e-01   8.0340749e-01  -2.7188410e-02  -5.6348103e-01   8.7447567e-01  -1.6975637e-01   4.8797973e-01   5.6919080e-01   5.2233068e-01   9.7278172e-01  -3.3678889e-02   2.6898896e-01   2.7973237e-01   4.3761250e-01  -8.6167218e-01  -2.8760392e-01  -3.5306402e-01  -3.1243821e-01   2.6691676e-01   7.3188791e-01   9.2321916e-01  -8.7728288e-01   1.4546699e-02  -4.1206863e-01   5.1064585e-01  -9.7293609e-01  -7.2860622e-01  -9.9779902e-02  -4.2583460e-01  -4.2442684e-01  -2.1867619e-01  -2.9202343e-01   1.4925555e-01   4.4827447e-01   5.5267140e-01  -3.4949708e-01   6.6343125e-01   8.9894056e-01  -2.7563712e-01   6.4773542e-01   1.2743504e-01  -3.6708669e-01  -3.7668194e-01   2.1979546e-01   1.8821865e-01   8.8420196e-01   6.5091946e-02  -3.5389016e-01  -2.5570881e-01   7.0553092e-01  -4.3963881e-01   8.5201070e-01  -1.2883045e-01   9.3956621e-01  -4.1013677e-01  -6.9426713e-01  -1.9327264e-01   6.1610325e-01  -9.8529659e-01   5.8647161e-01  -9.8569872e-01  -7.9001296e-01   8.9368257e-01  -1.8732577e-02  -2.4972799e-01   6.4607940e-01  -1.7996393e-01  -9.8622002e-01   1.3577044e-01  -6.9561805e-01  -6.4745063e-01   3.8192923e-01  -9.2176471e-01  -9.8136827e-01  -6.7490056e-01  -9.8469912e-01   5.3737277e-01   2.9528534e-01  -3.8388788e-01  -2.1708010e-01   3.4177906e-02  -9.0781047e-01   5.4272482e-01  -5.8794340e-02  -4.7060109e-01   2.8649609e-01  -8.2239535e-01  -1.0717596e-01   3.8707915e-01   7.8361149e-01   3.9666666e-01  -9.5948686e-01   4.3626764e-01  -3.4452981e-01   8.2699051e-01   4.1904771e-01  -3.8983373e-01   5.2213388e-01  -1.0866711e-01  -4.4275163e-01  -1.6188890e-01   5.0156282e-01  -3.2709298e-01   6.7985516e-01  -2.6638593e-01  -2.2749003e-01  -5.9745690e-01  -5.9951624e-01   1.2078597e-01   9.2282614e-01   7.4772844e-01   8.7782534e-01  -7.2249437e-01   2.0641444e-01  -1.3620177e-01   3.1315345e-01  -8.7371556e-01  -8.2746595e-02  -7.7559160e-01  -6.1229850e-01   3.5651290e-01   3.6144497e-01  -1.6536571e-01   8.0191019e-01   5.4003251e-01  -1.2552077e-01  -8.1916056e-01   3.6996522e-02  -3.6762527e-01   9.0448573e-01   4.2533565e-01   1.6309885e-01   9.6516656e-01   8.7645897e-02   6.0673979e-01   9.9014186e-02   9.5001963e-01   5.1883718e-01  -6.6389292e-01  -2.5444976e-01  -6.1376875e-01   2.4261064e-01   5.1139030e-01   7.4954712e-01   8.3720311e-01  -8.3526389e-01   3.5037087e-01  -6.5082333e-01  -5.9783965e-01  -2.3935790e-01   3.9391739e-01  -4.8268715e-01   2.9206862e-01  -2.2385077e-01   3.2836528e-01  -6.3906868e-01   9.3419454e-01  -1.3420166e-01   2.6644805e-01  -7.7720210e-02  -7.4434296e-01   8.8964800e-01   9.3818573e-02   6.2922896e-01   2.8342707e-01  -5.1346153e-01  -5.9189093e-02   7.5261129e-01   6.5785404e-01  -2.5116583e-01  -7.5905729e-01  -2.9957982e-01   6.5402485e-01   1.6496725e-01  -8.4940999e-01   3.5748338e-01  -3.3705409e-02   3.9034549e-01   2.3557905e-01  -9.4766358e-01  -1.0701737e-01  -2.4215614e-02   3.3945526e-02  -3.4909694e-01  -8.9653367e-01  -2.9569409e-01   9.7099723e-02   2.1502650e-01  -1.8300698e-01  -8.4827749e-01  -6.1307112e-01   6.9230066e-01  -3.4837293e-01  -4.6066626e-01   9.7555040e-01   2.9857282e-02  -8.4542752e-01  -9.7176915e-01  -2.9036341e-01   8.5978869e-02  -2.7887092e-01  -9.5166059e-01  -8.0807746e-01  -5.1961135e-01  -9.9057404e-01   4.8590990e-01   1.6180780e-01   7.7450235e-01  -3.2308634e-01  -3.2612845e-01   6.0966723e-01   7.8474575e-01  -1.2371383e-01  -6.1355026e-01  -5.5953158e-01  -9.9511961e-01  -2.5688875e-01   3.2696162e-01  -9.0114226e-01  -5.1786446e-01   9.7185079e-01   8.1303828e-01  -3.4763782e-01   5.7596066e-01   1.7376388e-01  -5.6545133e-01  -8.2482948e-01   2.5781393e-01   7.0795725e-01   8.8740989e-01  -1.0260346e-01   4.4888484e-01  -6.3181745e-01   3.1227233e-01  -9.1041803e-01   3.2639523e-01   9.9785924e-01  -7.0727974e-01  -9.5330692e-01  -6.9049018e-01   7.3025539e-01  -8.1678141e-01   7.9182381e-01  -2.4922993e-01   7.2427453e-02   2.7085316e-01  -8.7537128e-01  -6.5342812e-01   5.4463078e-01   3.9190349e-01   9.9802131e-03   3.8839975e-01   9.1639893e-01  -3.2481201e-01  -6.8072166e-01  -3.3526793e-01   6.5662967e-02   7.6262852e-01   8.7710292e-01  -6.4423244e-01  -7.6583869e-01  -9.8796586e-01  -1.3320476e-02   8.2969920e-01   5.6735698e-01  -2.3261425e-01  -9.2872695e-01  -1.8328361e-01   2.3374676e-01   5.5440322e-02   5.1244704e-02   9.3280663e-01  -2.4928246e-02  -8.0246337e-01   9.6015559e-01  -8.1484419e-01  -6.2276306e-02  -6.2394544e-01   8.4607669e-01   2.5702529e-01  -2.4432237e-01  -9.6141826e-01  -3.4491334e-01   6.8811899e-01   6.0940217e-02   3.3088294e-01  -4.6652589e-01  -4.3237489e-02  -6.3652532e-01   1.0647921e-01  -9.5890354e-01  -5.5738942e-01  -2.4738404e-01  -9.4114175e-02  -8.8046558e-01   8.9386424e-01  -3.6590612e-01   1.0580056e-02   1.6194072e-01   2.0678037e-01   3.3790864e-01   9.3950133e-01   1.0636077e-01   8.9979756e-01   3.9371687e-01   5.4167935e-01  -4.6411805e-01  -4.0218052e-01  -5.1061253e-01  -9.7797523e-01   3.0833157e-01   8.7409941e-01  -3.9985208e-01  -6.0229623e-01   3.5168252e-01   9.9750395e-01  -6.3991188e-01   9.9776752e-01   4.4359728e-01  -4.4863109e-01   9.5435188e-01  -3.6592711e-01  -7.6562173e-01   8.7376734e-01  -8.1830079e-01   6.7453692e-01   6.5688879e-01   1.9657466e-01   2.6648900e-01  -7.9311817e-01   5.6743241e-01  -4.7691222e-02  -1.3296698e-01   3.2776297e-01   9.6269946e-01  -4.4354450e-02  -9.2358319e-01  -9.0536303e-01  -4.9365929e-01   4.5966937e-01   3.7107084e-01   3.6870636e-02   2.6952834e-01   1.2862480e-01   4.8898781e-01   7.3542097e-01   4.2880009e-02   2.6170515e-01  -3.8463168e-02  -1.4707201e-02   9.9805256e-02   7.2425693e-01  -9.8020606e-02  -2.0095603e-01  -7.1066320e-01   4.3263444e-01   3.4787030e-01  -3.2520669e-01  -2.0410106e-01  -7.6695414e-01   8.0200959e-01   1.9236466e-02  -3.9711683e-01  -5.4498950e-01  -4.0953782e-01   6.2131299e-01  -5.5948470e-01   8.6267989e-01   5.8732256e-01   8.8916047e-01   4.8800496e-01   3.0904736e-01  -6.1786354e-02  -4.1772222e-02   1.0385281e-01  -8.4755364e-01  -3.0602760e-01   3.3457589e-01   5.8350265e-01   3.0175419e-01  -2.9086111e-01   1.2790444e-02   9.4189236e-01  -4.3227984e-01   5.1373604e-01   3.7690415e-01  -4.6191700e-01  -7.6463208e-01   9.0317358e-01  -3.0410025e-01   5.0454172e-01   7.9803831e-02  -7.9032082e-01  -8.4058312e-02   8.8607325e-01   7.7979946e-01  -3.4060464e-01  -5.2445690e-01  -1.7391350e-01  -8.9897136e-01  -6.0471703e-01  -4.5913379e-01   3.5804536e-01   1.8449977e-01  -6.3723665e-01  -3.9117401e-01  -4.1830123e-01   9.5926925e-01   6.6817122e-01   6.4628338e-01  -3.8804793e-01   2.0580263e-01   9.0777965e-01  -5.5485536e-01  -3.5654731e-01  -6.2294877e-01   8.9110167e-01   4.0566331e-01  -4.6637255e-01  -3.7042912e-01   8.7150871e-01   9.6479854e-01   1.9057665e-01  -7.6674456e-01   4.8673444e-01  -4.5776416e-01   9.7847680e-01  -3.7240593e-02   7.0429821e-02  -8.7868267e-01   3.4493201e-01   3.8047642e-01   5.9227976e-01   9.4413462e-02   8.7385286e-01   7.8838704e-01  -3.9164242e-01   9.1822488e-02  -5.6547084e-01  -8.0781778e-02   6.9043670e-01  -8.4282817e-01  -1.0339403e-01   5.0545861e-01  -6.3088807e-01  -2.5270143e-01  -5.4140841e-02  -5.5376661e-01  -6.2046225e-01   9.4081376e-02   3.3203285e-02   2.6355701e-01   8.5571217e-01  -4.2993026e-01  -4.9182514e-01   9.4061658e-01   5.2817426e-01  -8.7621988e-01  -5.2955621e-01   5.8499403e-01  -6.6475234e-01   5.9031135e-01   2.1833388e-02  -2.1565980e-01   8.2461975e-01  -4.7830037e-02  -7.4165035e-01  -7.8595390e-01   2.9144147e-02  -1.3798722e-01  -6.2749172e-01   5.3777501e-01   2.8212055e-01   5.8712639e-01  -9.3826652e-01   1.5856688e-01  -4.4936719e-01   6.6009978e-01  -1.9629072e-01   1.2782720e-02  -9.4942529e-05  -2.7152374e-01  -7.2553347e-02  -4.3348351e-01  -4.2692491e-01   2.6428430e-01   4.4845927e-01  -9.5721908e-01   1.5235902e-01  -2.7295240e-01   7.6916914e-01   7.9144420e-01  -3.8122558e-01  -7.6863768e-01  -6.4170121e-01  -1.8313109e-01  -2.6448521e-01  -5.2950212e-01   3.1431977e-01   4.4164876e-01   5.5273169e-01   6.6007704e-01   9.8208030e-01  -9.1556352e-01  -8.9370596e-01   6.2708679e-01  -3.3520625e-01  -5.6536236e-01  -1.8259248e-01  -1.3270207e-01   4.8693148e-02  -7.5804534e-01  -1.0014340e-02  -6.9159195e-01  -7.3251688e-01   8.1854990e-01  -4.2880468e-01   6.7932671e-01  -5.3347828e-01  -1.5631846e-01   6.3048587e-01   1.0005525e-01   5.5483379e-01  -1.9205739e-01  -7.3941337e-01   6.6903826e-01   1.6665329e-01  -2.2989453e-01   6.2312122e-01  -6.8834555e-01  -6.8426390e-01   7.3105210e-01  -8.9047545e-01  -1.3260587e-01  -5.8215519e-01   8.5584637e-01   2.1717830e-01   9.2933794e-01   7.4405675e-01   1.6929752e-02   6.7588363e-01   7.3476843e-01  -9.4352081e-01  -4.5007370e-01   7.8875934e-01   2.0255287e-01   4.1003191e-01  -4.1946802e-01   9.0910527e-01  -2.3524681e-01
  -6.3886603e-01  -1.9933994e-01  -7.1164154e-01  -4.6047482e-01  -7.3844646e-01  -7.3429446e-01  -4.8302461e-01   6.7696099e-03   1.9532928e-01   7.8575113e-02   5.9383912e-02  -3.1674213e-01   8.3822729e-01   6.3784411e-01  -2.8164731e-01   3.0705744e-01   9.6770679e-01   5.1719326e-01   1.1762265e-01  -8.9554636e-01   2.1285137e-01  -3.4958317e-01   9.9992809e-01   5.6961447e-02  -4.5675765e-01  -1.0366361e-02  -7.4776727e-01  -5.2566994e-01   7.3166705e-02   4.3794237e-01  -6.8283503e-01   2.9799653e-02   8.9661044e-01   2.3842476e-01   5.9371297e-01  -1.0069989e-03  -7.1711005e-01  -3.9234809e-01   4.8393284e-01   2.7723528e-01   2.4451543e-01  -4.3865479e-01  -9.6027544e-01   1.2600720e-01   3.0417814e-01   4.8812922e-01   5.9881721e-01   8.1170375e-01   6.3392308e-02  -3.3841082e-01   4.9782533e-01   6.5364476e-01   3.9380525e-01   7.9309774e-01  -2.5446803e-01   8.8942453e-01   2.9673321e-01  -2.4386343e-01   8.9269832e-01   2.9107109e-01   8.6654569e-01  -4.6013278e-01   2.5163138e-01  -8.0995901e-02   8.7463854e-01  -5.5320328e-02   6.9895916e-01   7.6222127e-01   4.2997037e-01   1.4785538e-01  -6.7357710e-01   6.7941224e-01   8.0946785e-01  -6.2783134e-01  -3.1118562e-01   4.2721795e-01  -1.5315850e-01  -1.0517626e-01  -8.8601395e-01   2.4171942e-01   1.8637042e-01  -7.5361203e-01   8.4630724e-01  -2.9468784e-01   2.0529019e-02  -6.8672483e-01   4.6491816e-01  -2.9506612e-01  -9.5276319e-01   3.4406778e-01   6.1004541e-01   3.7457557e-01  -8.0385628e-01  -1.7291458e-01  -2.3703038e-01  -7.0301271e-01  -5.8854512e-01  -5.9639485e-01  -6.2718027e-01  -9.4085846e-01   3.2367545e-01   4.6404677e-01  -5.5134255e-02   2.4989706e-01   6.8431674e-01  -2.9490470e-01   2.2054966e-01  -1.6748028e-01  -2.8664811e-01   1.3852748e-01   5.6418866e-02  -9.9084420e-01  -4.2768138e-01  -1.9386449e-02   5.2597372e-01   7.1002039e-01  -6.8846566e-01   2.1683934e-01   8.3038873e-01   6.1446865e-01  -7.6957022e-01   3.3759588e-01   5.9973308e-01  -2.8713124e-01  -9.7568873e-01   7.9129487e-01   5.9908774e-01   3.3791173e-01   3.0724264e-01  -8.3443405e-02   3.1890000e-01   9.1931973e-01   3.8394935e-01   9.8959751e-01  -5.5610227e-01   6.8698430e-01  -3.6541690e-01  -5.8179965e-01   4.5519113e-01   5.5531470e-01   1.7926021e-01   4.7569201e-01   8.8255912e-01   9.1836554e-03   9.8148101e-01  -1.6087325e-01  -3.0238838e-01  -2.8263378e-01   8.3467777e-01   3.1429547e-01   9.9864827e-01  -7.6907927e-01   7.7616251e-01   2.2764590e-01   5.4476643e-01  -7.4782489e-01  -2.4864784e-01  -6.7295696e-02  -1.8207326e-02  -5.4472022e-01   3.3590401e-01   6.3911113e-01   6.3502888e-01   1.0923102e-01   9.5734995e-01   3.9336580e-01  -9.8089389e-01   8.1808652e-01  -2.8985142e-01  -5.5905264e-01  -1.0063208e-02   7.2523913e-01  -5.9913686e-01   4.2776965e-01   5.0345614e-01   2.5753310e-01  -1.1138978e-01   5.8933325e-01  -2.3339907e-02  -1.6919772e-01  -7.0536442e-01   2.2254878e-01  -3.4405896e-01   3.4059365e-01   7.8559472e-01   9.3818074e-01   1.3532178e-01   4.1627754e-01   5.3804553e-01   8.9825763e-01  -6.6926326e-01   6.5218499e-01   1.8784300e-01  -6.3751273e-01   4.9552418e-01   8.5736147e-01  -6.9925913e-01   1.1238663e-02   8.6842597e-01  -2.6616831e-01   9.9578349e-01  -3.0070374e-01  -1.8904560e-01   7.2199631e-02   3.5767365e-01   6.4340363e-01   3.1428305e-01   3.5648756e-01  -7.2397663e-01   4.4734054e-01   6.8971479e-01   2.1523145e-01  -9.9074489e-01  -2.7140496e-01  -2.2563271e-01   8.0493832e-01  -4.2532438e-01  -5.9297332e-01   1.4414107e-01  -2.1388644e-01  -6.2788823e-01   3.9032419e-01   6.2399822e-01   9.3176441e-01   3.3499291e-01  -7.6882734e-01   7.4364416e-01  -2.9509977e-01  -3.6547697e-01  -9.5281579e-01   7.3568453e-01   1.7915932e-01   7.1545594e-01   6.2971400e-01   9.6883331e-01   5.2897300e-01   5.1027295e-01  -6.7393797e-02  -5.0864255e-01   9.0808271e-01   2.0161957e-02   9.8062000e-01   7.5103715e-01  -3.7127708e-01  -7.4271323e-01   3.9137694e-01   8.3659840e-01   6.3744915e-01   9.2585525e-01  -8.8016397e-01  -7.1236527e-01  -3.9029515e-01   1.3814065e-01  -7.3362400e-01  -5.5087204e-01  -4.2231494e-01   6.7593347e-01   6.6222856e-01   2.9885518e-01   2.2008320e-01  -3.0116473e-01  -3.3090500e-01  -5.1115744e-01   5.7183696e-01   9.1716844e-01   5.2278799e-01   3.2432225e-01  -8.2483270e-01  -5.7065571e-01   2.7070929e-01  -7.4379510e-01  -9.2169943e-01  -9.7619044e-01   4.0820474e-01  -4.1299258e-01  -3.0027893e-01  -6.0342045e-01   1.8683865e-01  -2.3864524e-01  -1.4648357e-01   5.4502782e-02   2.4481723e-01  -6.6514974e-01  -9.0856636e-01  -1.2393687e-01  -7.3924737e-01   1.0962362e-01  -2.8006103e-01   4.0408497e-01   4.7390926e-01  -8.0236392e-01  -9.3538014e-01  -3.1850767e-01  -1.3649451e-01   2.3968529e-01   4.7872136e-02  -1.4598725e-01  -3.8241942e-01   4.4045792e-02   6.1450158e-01   9.7060840e-01  -7.7856655e-01  -6.6340501e-02   9.4903825e-01  -1.5030910e-02   3.8474666e-01  -3.2280499e-01   7.3794455e-01  -4.0333854e-01   6.6227618e-01   9.0944748e-01  -9.9533074e-01  -2.2263473e-01  -8.9460121e-01  -5.2506042e-01   4.9866809e-01  -7.1800918e-01   4.1935732e-01   9.0734617e-01  -3.3018685e-01  -1.2024165e-01   7.4383786e-01  -8.1581069e-01   1.3646886e-01  -4.1687025e-01  -9.2024260e-01   2.2496375e-01  -3.0446381e-01  -8.3099771e-01   8.6646605e-01   8.0976707e-01  -3.2805248e-01  -8.3872386e-01   9.9154442e-01   5.5034597e-01  -2.9283434e-01   5.4633462e-01  -3.8731509e-04  -2.4426033e-01  -7.8168236e-01   4.7250685e-01  -6.5322996e-01  -3.7932621e-01   6.8241577e-01  -5.0027965e-01   4.2079450e-01  -7.5431912e-01   7.4477724e-01   2.6960582e-01   7.8017007e-01  -7.6114890e-01   3.0030894e-01  -1.9318892e-01   2.2878976e-01   8.7882240e-01  -5.2732213e-01   9.4816571e-01  -7.4925547e-01   3.9196496e-01   8.8450772e-01  -1.9979883e-01  -3.0751593e-01   6.7555022e-01  -5.4086676e-01   3.4779049e-02  -1.5040336e-01   8.9192968e-01   5.4661493e-01   2.1712278e-01  -5.2872200e-01   8.4427996e-01  -4.0004397e-01   7.2236265e-01  -2.6469820e-01   3.4831247e-01  -8.9059360e-01  -3.5921493e-01   7.9386672e-01   6.8742780e-03   2.5950391e-01  -6.4406863e-01  -7.5751971e-01  -1.2437413e-02  -1.5533657e-02   6.1623598e-01   2.0797117e-01  -5.9142986e-01  -1.7606351e-01   2.7212229e-01   1.8125549e-01   3.8284189e-01   3.4120714e-01   5.6636268e-01   2.2656198e-01  -1.5113506e-01  -7.9246927e-01  -4.1172370e-02  -8.0288264e-01   5.0828616e-01   8.3899901e-01  -7.4407860e-01   5.6354384e-01   6.1959778e-01   4.9242273e-01   8.5428083e-01   5.3989544e-01   9.6713493e-01  -4.5217811e-01  -7.4073756e-01   8.7168339e-01  -9.6470317e-02  -7.0898206e-01   5.5229884e-01   3.6470109e-02  -9.8721455e-01  -2.9251027e-01  -8.4514830e-01   5.7494905e-01   2.5541443e-01  -3.2937965e-01   6.1875910e-01   3.2491550e-01   9.1088626e-01   8.0953262e-01   8.2929921e-01  -3.8536968e-01  -8.0556919e-01   3.5157102e-01   6.9560845e-01   7.0151656e-02  -5.0453733e-02   9.5752134e-01   5.6892318e-01  -7.8339664e-01   8.7448528e-01   1.9351780e-02  -7.2542106e-01  -1.8678413e-01  -8.3886633e-01  -6.8988482e-01   2.2756415e-01   4.9721916e-01  -3.3607126e-01  -1.1281231e-01  -9.2949281e-01   7.2485989e-01   3.8871276e-01   8.7695312e-01   9.9435245e-01   1.1788210e-01  -8.1043499e-01   6.8607665e-01   6.6632241e-01  -1.4976867e-01  -6.8367009e-01  -4.4933058e-01   2.4047099e-01  -1.6135327e-01   4.5631748e-01  -8.0992280e-01  -3.3167361e-01  -9.0538278e-02  -5.1630850e-01  -7.5269729e-01   9.9898841e-01   3.8552579e-02  -3.5001121e-01  -2.6035421e-01   5.7714293e-01   8.9749499e-01   2.5920905e-01  -4.0757981e-01   2.1879616e-01  -5.3805649e-02  -1.4247134e-01   2.1808478e-01   2.9681722e-01  -7.9193905e-01   2.5474613e-01  -7.0346863e-03  -1.1113688e-01  -3.8250681e-01  -1.9734279e-01  -8.2099785e-01   4.1671779e-01  -5.2618003e-01  -3.5129006e-01   9.1243507e-01   2.2346041e-02   3.4048988e-01   1.3961702e-01  -1.8977697e-01  -8.2332622e-01   7.0436106e-01  -1.5595450e-01   1.8436635e-01  -4.6464284e-01   3.0506696e-01  -2.5066253e-01   4.2355442e-02   6.2021723e-01   5.1531953e-01  -6.2163479e-01  -9.0610323e-01  -4.0958919e-01  -5.4534771e-01  -7.9024979e-01   7.7240574e-02  -3.9193800e-01   2.6600206e-01  -8.0131998e-01  -1.7186322e-01  -9.0843669e-01  -9.3353554e-01   8.5337773e-01  -1.0688292e-01   8.7922535e-01   5.0592362e-01  -4.2609808e-01   2.3027834e-01   5.1759413e-01  -3.2289407e-01   4.9844843e-01  -2.6480884e-01  -3.1728080e-01   5.7391504e-01  -5.2068154e-01  -5.2844829e-01   4.7291766e-01  -3.7240811e-02  -7.9064157e-01   1.7319561e-01  -2.4067688e-01  -9.6025528e-01   9.5124946e-01  -7.9069028e-01  -2.1224679e-01  -8.8719523e-01  -3.9186642e-01  -9.6095223e-01   7.7448342e-02   2.3191384e-01  -3.5218931e-01   3.3584579e-01  -4.2118376e-01   9.8549417e-01  -4.3176090e-02   4.2499576e-03  -5.4725732e-01   9.1644124e-01   9.4560280e-02   8.7039868e-01  -3.6966765e-01  -9.0981321e-01  -8.8248346e-02  -3.5679174e-01  -9.2587258e-02  -6.8424614e-01   8.8114212e-01   9.5120714e-01  -5.1797275e-01   5.9565259e-02   9.7372245e-01   2.8506013e-01   8.0387534e-01   3.9376742e-01  -8.8903913e-01   8.3350617e-01  -1.8926071e-01  -9.0400246e-01   8.4337731e-01  -8.3509480e-01   2.0869506e-01   8.0190068e-01   4.9455168e-01  -5.1525290e-01   8.9380246e-02  -9.5746141e-01   5.7746272e-01   4.6136066e-01  -6.2955726e-01   9.6709339e-01  -7.9259785e-01   3.3903719e-01   9.9569710e-01   1.8627401e-01   9.4226999e-01  -9.7724160e-01   5.9818672e-03   2.4226542e-01   1.0244073e-02  -2.3198699e-02   6.0657714e-01  -2.2896896e-01  -1.6385579e-02   7.0646322e-03  -7.0644063e-01   5.4859053e-01   9.4271228e-01   8.7652013e-01   9.5648397e-01   7.4381708e-03   7.8577819e-01   2.3263519e-01  -1.6924734e-01  -6.8590414e-01   4.2177932e-02   1.7139363e-01  -8.9454816e-01   5.5284270e-01  -1.5438610e-01  -9.2348999e-01  -1.6121842e-01  -5.5078681e-01  -8.6988600e-01  -9.4522196e-01   8.4514713e-01  -9.9536283e-01  -1.8739024e-01   9.6113580e-01   1.2938417e-01   4.2856160e-01   5.1293756e-01   2.6443156e-01  -9.7731936e-01   4.7681251e-01  -8.5176365e-01   5.3583975e-01   9.0075256e-01  -4.5849140e-01   1.3746699e-01  -7.0422151e-02   2.0103706e-02  -8.2752667e-01  -5.4917023e-01  -6.4727075e-01  -6.1317451e-02  -3.8013541e-01  -7.9411789e-01  -4.6231534e-01  -5.5731876e-01  -3.6529778e-01  -9.8661426e-01  -8.9126678e-01   5.3166034e-01  -8.3759971e-02   2.9616136e-01   1.0749301e-01   1.4823114e-01  -3.4514230e-01   3.4989769e-01  -7.2109067e-01  -8.1513061e-01  -9.0882626e-01   8.8266530e-01   6.0650040e-01  -5.6394850e-01  -1.3525276e-01  -3.1286995e-01   1.8516210e-01   9.2705252e-01   9.1010902e-01  -6.9069087e-01   7.9144158e-01   5.2379015e-01   7.7048601e-01  -8.9364754e-01  -5.7230486e-01   8.2222736e-01  -3.2936233e-01   6.2311362e-01   1.6326717e-01  -3.5519813e-01   9.8252447e-01  -2.4649203e-01   4.3113496e-01   4.1937465e-01   4.0816331e-02  -2.9163369e-01  -4.8704570e-01  -6.5182312e-02   1.3324750e-02  -5.5750175e-01  -5.5168665e-01  -9.7212422e-01   6.3822649e-01   1.8366806e-01  -2.2589365e-02  -7.6705419e-01  -9.0888800e-01   4.5544111e-01   5.6916178e-01   2.3961041e-01  -6.8098185e-01  -7.0376273e-02  -8.1887611e-01   9.0062254e-01  -1.3012568e-01   9.3515312e-01   9.3262327e-01  -4.0031500e-01   5.5776572e-01   4.0673149e-01  -1.4518899e-01   3.7494217e-01   5.9944887e-01   1.8461883e-01   9.3740007e-01   4.3359399e-01  -2.4870614e-01  -6.6253983e-01  -2.1728893e-03   5.7870229e-01  -6.0070923e-01   2.5581190e-01   5.5006936e-01  -9.3543535e-01   8.9417430e-01   9.0663173e-01   8.8486873e-01   4.3630920e-01   6.0176805e-01   2.3022967e-01  -4.1402913e-01  -1.5476717e-01  -7.3634008e-02  -8.7409247e-02   4.2413935e-01  -2.0377053e-01   6.1845389e-01   1.7682703e-01  -7.9384870e-01  -3.4963567e-01  -4.6706894e-01  -8.1716063e-01  -5.1775197e-01   2.4137070e-01  -9.9222296e-01   1.8913043e-01  -4.4113897e-01   9.4365324e-01   7.3323568e-01  -6.2972255e-01   2.6537423e-01   7.6639192e-01  -6.4534492e-01  -7.6637501e-01   7.9956565e-02  -3.3965599e-01  -5.5519479e-01  -3.5881931e-01  -9.7774489e-01   5.2820437e-01  -2.8021775e-01  -6.4042698e-03  -5.5372897e-01  -6.2389064e-01  -6.4342387e-01   3.3942132e-01   6.8407499e-02  -3.8185931e-01  -3.6760305e-01   3.5893576e-01   6.0150671e-01   4.6163268e-01   4.7104913e-01   8.1997951e-01  -5.8558323e-01  -6.4820485e-01   1.0829679e-01   3.8554518e-01   8.9514739e-01  -7.4075160e-01  -3.2587622e-01   1.9776265e-01  -3.5005644e-01   4.9779580e-01  -7.8374321e-01   3.0380042e-01   3.8054484e-01   2.4433850e-01  -8.5029930e-01  -2.4990256e-01   9.7735213e-01  -9.4755283e-02   6.7860230e-02  -3.0101057e-02   5.2621108e-01  -8.0131122e-02   9.3562822e-01   2.8299555e-01   2.5618307e-01   1.5220186e-01   7.8628436e-01  -2.7501868e-01  -7.3805126e-01   9.3578163e-01   7.7882224e-01   7.0836088e-01  -1.7102544e-01  -4.6933666e-01   2.1376906e-01  -9.4911359e-01  -4.7049620e-02  -4.7145266e-01  -2.3614919e-01  -7.9242600e-01   5.8479200e-01  -4.1678352e-02  -7.4513745e-01  -6.9207535e-02  -5.9149890e-01  -4.9989516e-01   8.4748284e-01  -5.6539653e-01   1.2286907e-01   8.8964313e-01  -6.4934266e-01  -8.8865491e-01   6.8132592e-01   4.9883352e-01  -9.2494877e-01  -3.9129173e-01  -5.0902875e-01   5.5355338e-01   8.5253150e-02   1.0968528e-01   8.2897788e-01  -5.8050522e-01   2.4300567e-01  -8.3236512e-01   7.9331800e-01  -6.7322608e-01   2.4226958e-01  -5.4048148e-01   4.3769963e-01   3.3151681e-01   9.5362434e-01  -6.1146545e-01   1.3078512e-01   4.5618520e-01  -1.8716115e-01   6.4155117e-01   2.8851166e-01   2.8425819e-01  -9.5844346e-01  -5.7556732e-01  -1.1549590e-02   7.8599705e-01  -3.1833510e-01  -1.5739771e-01  -7.6364688e-01   6.4721532e-01  -3.1928287e-01  -9.6510940e-02   5.1972038e-01  -8.6452198e-01  -2.2986229e-01  -3.3057295e-01  -2.9172006e-01  -1.3422155e-01   4.1207959e-02  -8.0149776e-01  -8.5962009e-01   2.7725431e-01   4.8167303e-01  -4.4133963e-01   1.0599414e-01  -8.5346757e-01  -4.6532313e-01   6.7131527e-01  -2.3606167e-01   7.0123151e-01   3.4477341e-01   2.8053747e-01  -5.0407989e-01  -5.0654552e-02   4.6267646e-01  -6.7761567e-01   1.0464130e-01  -9.6342564e-01  -7.9160973e-01  -6.0406707e-01  -6.9908934e-01  -3.9428624e-01   4.9631789e-01   4.1435651e-01  -8.4649414e-01   3.7312955e-01   6.9417156e-01  -8.1454301e-01   5.9859571e-03  -1.2071049e-01   6.0049577e-01  -1.6271324e-01   4.0938202e-01  -5.1797218e-01   8.6543693e-01   4.1344888e-01  -6.4100003e-01  -2.3491898e-01   9.8782196e-01  -5.8799019e-01  -2.8187252e-01   3.8624563e-01  -7.6756228e-01   5.1129059e-01   7.8407981e-02   5.8525471e-01  -9.7504315e-01   7.4550462e-01  -8.5235788e-01  -9.0682428e-01   8.3814190e-01  -8.0494645e-01   1.5177223e-01   3.2795978e-02  -6.1455676e-01   8.6162619e-01   2.0315089e-01   8.4372208e-01   3.2778716e-02  -2.4208480e-01  -5.7622964e-01   7.9568510e-01   4.8298195e-01   3.2043368e-01   8.2613441e-01  -4.5939440e-01   2.1991485e-01   6.0738894e-01   2.7586888e-01   3.7858501e-01  -4.6736549e-01   9.6157324e-01   2.9526666e-01   8.0239756e-01   9.3633975e-01  -9.0740011e-01  -7.6177430e-01   3.1377151e-01  -5.0970442e-01  -6.3506857e-01  -5.0779856e-01  -5.1612046e-01   9.2162461e-02   4.6859491e-01   1.0000534e-01  -1.5981485e-01   8.7058011e-01   1.6549180e-02   7.3616518e-01  -2.5668014e-01   8.2726440e-01   4.8428149e-01  -1.4331486e-01   9.2952045e-01  -6.0184307e-01   7.4937172e-01  -8.6020064e-01  -7.4444145e-01  -5.8252265e-01   4.8830996e-01  -5.6989598e-01  -4.8537722e-01  -2.7545697e-01  -1.5717375e-01   1.1914833e-01   7.5605702e-01  -6.5248382e-01   7.7502353e-01   4.5583663e-01   3.7710149e-01   7.6076299e-01  -4.6683013e-01   1.5802026e-01  -7.3000423e-01  -2.9644261e-01   9.6364663e-01  -7.1433606e-01   3.3758929e-01  -8.8720390e-01   4.4060124e-01  -9.0424014e-01   1.3410031e-01   7.3323459e-01  -8.3929397e-01  -2.3302354e-01  -5.7019637e-01  -7.7365144e-01   7.7375074e-01  -8.2161472e-01  -9.1572018e-01  -6.6780653e-01  -8.4436459e-01   8.9840233e-02   5.2405924e-01  -7.1053051e-01  -5.6865941e-01   3.7653815e-01
  -1.6779542e-01   6.4375846e-01   3.1877258e-02  -2.0374595e-02  -1.3874670e-01  -1.3575996e-01   3.2593157e-01   3.5538080e-01   1.7091928e-01   2.2885366e-01  -6.1590476e-01   7.2241562e-01  -4.6168570e-01  -2.6857642e-01   2.1582647e-01  -2.5987816e-01  -1.3463703e-01   2.2835757e-01  -2.6692664e-01   5.8561217e-01   5.7524418e-02  -4.4592213e-01   7.1651080e-01   7.7615468e-01   7.3758914e-01   5.3969921e-01   4.3330969e-01   5.5792656e-01  -4.7692338e-01   9.3693106e-01   7.7302966e-01  -8.5477400e-01  -9.2536908e-01   3.0924938e-01   2.5830933e-01   7.6513585e-01   6.9209441e-01  -6.7003767e-01   5.0228847e-01  -4.3672029e-01  -6.3325502e-01  -9.4106088e-01  -1.4990183e-01   7.8816966e-01   6.7938065e-02  -1.2808058e-01  -6.0899922e-01  -1.3296228e-01  -3.3860866e-01   2.9835565e-01   7.4929917e-01   4.1954873e-01   1.0577561e-01   4.4077111e-01   5.7148474e-01   8.6346570e-01  -9.0465903e-01   9.3867803e-01  -9.8652309e-01   8.8232656e-01   1.0124803e-01  -3.2152526e-01   6.8448818e-01   2.3000721e-01   6.7051278e-01   8.9857289e-01  -7.8010898e-01  -4.7691727e-01  -9.6267668e-01  -8.8832766e-01  -6.5376549e-01  -7.6835517e-01   4.9683271e-01  -9.2627767e-01  -9.5693691e-01  -1.3587289e-01   1.3269003e-02   1.0184989e-01  -8.9944823e-03   8.4167731e-01   1.0932619e-01   6.3960054e-01   8.3446129e-02   7.3816382e-01   5.6533581e-02  -6.0040863e-01   6.4871581e-01   3.5905465e-01   1.9030000e-01  -8.4522262e-01  -2.4286156e-01   2.6308319e-01  -8.4218160e-01  -4.0642245e-01  -7.7825685e-01  -5.8273111e-01  -7.2948574e-01   8.3501882e-02  -7.3443570e-01  -3.8594334e-01   4.2852426e-01   9.6346789e-01  -9.3172545e-01  -3.9031171e-01   4.7759981e-01  -1.1531006e-01   9.9177548e-01  -8.1973021e-01  -4.0744931e-01   4.8355357e-02  -2.7395643e-01   5.3876478e-01   8.1569796e-01  -8.0489226e-01  -8.5853382e-01   7.4569829e-01   9.6737512e-02   2.9827922e-01   4.1272002e-02   6.6466304e-01   3.2819923e-01  -3.9780664e-01  -3.9604109e-01  -3.1301641e-01   3.6583980e-01  -5.1606069e-03  -9.6800202e-01   3.2833968e-01  -7.0579965e-02   2.2189118e-02   7.8467458e-01  -8.6014649e-01   9.0326570e-01  -3.6886800e-01  -3.0749102e-01  -6.8493612e-01   9.9529747e-02  -6.4011994e-02   7.8820801e-01  -1.5555173e-01  -2.7489823e-01   2.0165020e-01  -8.0378385e-01   9.3069778e-01  -3.9205863e-01  -9.9258582e-01  -3.6375590e-01   3.6740944e-03  -9.6030305e-01  -1.0878373e-01  -5.9341838e-01  -9.5417937e-02   4.6003463e-01   5.9036186e-02   3.1331721e-01  -6.5422347e-01  -6.3840478e-02  -4.4426293e-02   2.4759257e-01  -5.7020491e-01  -9.4351345e-01  -4.4769296e-01   8.0179116e-01  -7.8097493e-01  -2.7301949e-01   9.7376547e-01  -9.8441896e-01  -2.7076832e-01  -9.9621326e-01   9.3451854e-02   8.6504136e-01   1.6906847e-01   4.2937938e-01   4.2716835e-01  -1.7532084e-01  -1.7493482e-01   1.8148085e-01  -8.0508634e-01  -5.6020508e-01   7.3396667e-01  -2.5580243e-01   4.5363802e-01  -1.2720989e-01   3.1456572e-01  -6.9074860e-01   1.4332298e-01   5.2180807e-02  -1.2019127e-01   6.3293459e-01   3.4543496e-01   2.1198931e-02   7.2912964e-01  -1.6877906e-01   1.6937132e-01   7.2086143e-01   4.9476823e-01  -9.7131801e-01   9.0845891e-01  -5.8320247e-01   1.2644023e-01   2.1762286e-01   3.1594325e-01   1.1337708e-01   4.9045324e-01  -5.9868688e-01   7.3410515e-01  -7.1792518e-01  -8.3701341e-01  -3.9360122e-01  -6.6881403e-01  -1.9272861e-01  -9.6024529e-01   7.5738372e-01  -6.0542080e-01  -1.7206711e-01  -5.8018747e-01  -1.3912312e-01   5.3692481e-01   9.4958226e-01   2.9642920e-01  -3.9078489e-01   3.8769657e-02  -1.1612760e-01  -4.0983214e-03   3.0696464e-02  -5.2881262e-01  -1.2021674e-01   9.0108437e-01  -7.9947551e-01  -8.7055434e-01  -3.4980256e-01   4.0747566e-01  -1.7966508e-01  -1.8678282e-01  -8.5164137e-01   7.3999700e-01   9.3231996e-01  -9.9674623e-01   8.7674954e-01   5.6690282e-02   8.7924703e-03  -9.5905635e-01  -9.7783440e-01  -7.6807107e-01   2.2912110e-01   2.3443951e-01  -4.1091584e-01  -5.1191584e-01  -2.6492313e-01  -5.5314839e-01  -4.8888645e-01  -9.7813917e-01   2.1007624e-01  -3.8703652e-01   7.6172012e-01  -6.7385101e-01  -5.8423284e-01   5.2222571e-01  -8.7001100e-01  -5.0860391e-01   4.2459414e-01   8.5225469e-01  -5.3899406e-01  -2.6833488e-01  -3.4321250e-01   5.6449471e-01  -8.9963736e-01   2.1749598e-01   8.2701245e-01   1.3462553e-01   3.5276384e-01   5.9572187e-01  -2.7738185e-01  -6.1636072e-01  -2.2437191e-01  -8.0463074e-01   1.5424382e-01   4.5688098e-01  -1.9332296e-02  -8.1907552e-01  -6.2842841e-01   1.8764554e-01   3.3039437e-01  -6.8905603e-01  -7.7374482e-01  -2.3550268e-02  -6.4494349e-01   3.9891049e-01   3.1887176e-01   8.2710065e-01  -1.2102074e-01  -4.6715380e-01  -8.0101332e-01   3.2166434e-01  -7.1032237e-02   6.8640037e-01   7.6852429e-01  -1.8844510e-01  -2.1697159e-01   3.9759578e-01   8.2736465e-01  -7.0385007e-01  -2.6945168e-01  -7.1389941e-01  -6.6191663e-01  -6.6802016e-01  -3.9467000e-01   3.0264573e-01  -9.3928888e-01  -9.6367552e-01   8.1163561e-01  -8.2131859e-01   5.6268001e-02  -5.8663652e-01  -9.2916573e-01  -7.6704187e-01   4.8907254e-01   6.8761812e-01  -6.6140332e-01   1.4366912e-01  -3.8686127e-01  -7.2045139e-01  -4.9218682e-01   7.5169965e-01  -9.0581850e-01   5.8266860e-01   5.8045666e-01   5.1322226e-01  -4.3623475e-01  -1.1503893e-01   7.6932873e-01  -4.6659757e-01   8.0478805e-01  -8.1110966e-01  -6.2494549e-01  -4.5861662e-01   8.6482023e-01   1.9783501e-01   3.7960718e-01  -6.1063052e-01   5.5605056e-01  -7.5817339e-01   6.0439648e-01  -1.2693816e-01   7.0790563e-01   4.5041856e-01   2.2044652e-01  -9.9053589e-01  -1.5513071e-01   8.9873369e-01   9.4812501e-01  -8.0644606e-01  -1.7641794e-01   7.9847321e-01  -1.3324633e-01   4.1184213e-02   7.4828050e-01  -9.6679586e-01   5.3173376e-01   4.6999929e-01  -5.7049904e-01  -4.1081613e-01  -7.7190336e-01   2.4161149e-01   5.0405047e-01  -9.3045634e-01   4.7014422e-02   7.0968584e-01   7.4812334e-01  -9.4159175e-01   1.6846620e-01   1.6739837e-01   4.6399175e-01   3.5535530e-01  -7.3664084e-01  -9.1243143e-01  -6.8795842e-01  -6.5186595e-01  -7.7840125e-02   3.2646623e-01  -9.3033861e-01   4.6437628e-01   2.2947751e-01   4.1119338e-01  -5.6378784e-01  -6.8371841e-01  -4.2515624e-01  -8.2638450e-01   1.2817974e-01  -8.5401718e-01   2.0131640e-01  -9.3821842e-02   4.4679434e-01   7.0361272e-01  -4.7291202e-01   8.2987174e-01  -3.2615807e-01   2.2983375e-01  -9.7265138e-01  -2.5993452e-01  -7.5291957e-01   3.2818793e-01   9.5143257e-01  -3.9092935e-01   2.0584331e-01   1.3768280e-02   8.1518099e-01  -8.8401576e-01   7.2753751e-01   3.6257406e-01  -1.9792336e-01   7.7043719e-01   8.5801891e-01   9.8674386e-01   1.0058348e-02  -5.1847477e-02   7.6001587e-01  -1.6348553e-01   2.7632459e-01  -3.0851773e-01  -4.4214577e-01  -7.3952357e-01  -6.4475887e-01   3.3353423e-01  -3.1590392e-02   3.7067310e-01  -9.9564695e-01   4.1342526e-01  -8.8863500e-01   4.7073100e-03  -9.8836710e-01   6.6053104e-01   6.3794176e-02   5.2255710e-01   6.4147093e-01  -6.4831231e-02   8.7708125e-01   1.2430114e-01  -2.3098721e-01  -4.6793103e-01  -2.0722759e-01   2.2975229e-01   6.0912127e-01  -5.0573160e-01  -5.0387426e-01   9.2229851e-01   1.8313997e-01   9.1663737e-01  -4.1873980e-01   1.4967380e-01  -5.8278090e-01   2.9854657e-01   6.7246948e-01   6.7632975e-01  -7.0782657e-01  -4.2588959e-01   3.6326486e-01   7.2422794e-01  -3.9560408e-01  -5.0823255e-01   8.4280593e-01  -5.2333858e-01   7.7651150e-01  -4.7710279e-01  -6.8739745e-01   8.6448747e-01  -7.0898814e-01  -8.1634145e-01  -2.8054068e-01  -1.9021008e-01  -2.6230730e-01   2.5715338e-01   4.4970316e-01  -9.0228774e-01  -1.9887476e-01   8.3215046e-01   9.9678090e-01  -3.7659766e-01   2.4158408e-01  -8.7632026e-01  -6.7085069e-01   4.1544335e-01   5.1036613e-01   2.0201212e-02   3.2866788e-02   9.5003930e-01  -5.1240675e-01   8.8239941e-01  -6.1230434e-02  -6.5263106e-01   1.0657248e-01   5.9530912e-02  -1.0682383e-01   6.5398498e-01  -3.3237303e-02   5.2053983e-01  -4.5533646e-01   7.4676960e-01   1.7415680e-01  -7.1811686e-01   8.6413027e-01   1.8100176e-01   3.1740828e-01   8.5272112e-01   3.1554296e-01  -4.0705834e-01   3.8541235e-01   8.4279462e-01  -7.6403908e-01   9.4548720e-01  -8.5870003e-01   5.0249268e-01  -9.8806777e-01  -5.0497732e-01   8.4069849e-01   8.8193654e-01  -6.9061623e-01   8.8460312e-01   3.7820112e-01   1.0336047e-01  -5.0984985e-01  -5.6546560e-01  -2.1708145e-01  -6.6069331e-01   4.1811061e-01   7.8515555e-01   4.3383730e-01   4.2530645e-02   6.1640850e-01  -7.9169444e-01   9.2160327e-01   7.6568283e-01  -7.9345821e-01  -7.1948414e-01  -9.5815929e-01   5.4409426e-01  -7.9844867e-01  -7.8529064e-01  -8.3252673e-02  -6.7398313e-01  -4.7498231e-01  -7.3640505e-01   5.2468399e-01  -5.2698490e-01   3.7518309e-01   5.9409108e-01   5.1348255e-01  -4.8166832e-01   3.8885117e-01   2.1081282e-01   4.8299383e-01   7.7885606e-01  -5.3541704e-01  -7.1181674e-01   9.6527232e-01  -5.0175250e-01  -5.8895174e-01   3.0288889e-01   8.7798702e-01  -2.7836803e-01   9.5624632e-01   3.6331993e-01  -8.4095877e-01  -1.4717233e-01  -3.0816446e-01   2.2114969e-01  -5.6836399e-01   2.4636722e-01   7.3012815e-01   8.4786675e-01  -7.3680788e-01   1.8726029e-01   4.1705585e-01   4.0871233e-01  -6.6319324e-01  -2.0786805e-02   5.0025116e-01   6.9252728e-01  -6.1560951e-01  -6.4404030e-02  -7.8095000e-01  -4.2361020e-01   7.7208080e-01   7.5899344e-01  -9.4479654e-01  -1.2451116e-01   9.9691099e-01   4.7641219e-01  -7.0640904e-01  -7.2349542e-01   7.0056336e-01  -2.2607104e-01   7.2862861e-01   2.2875619e-01   4.0371353e-02  -9.2245904e-01   4.5495337e-01   5.0645832e-01  -4.9817323e-01  -5.4766745e-01   7.7224085e-03  -5.5926195e-02  -2.4738086e-01  -7.1312114e-01  -3.7848493e-01   6.8579167e-01  -7.6868103e-01  -3.1049733e-01  -1.1788087e-01  -4.5261152e-01   6.3716477e-02  -2.3723572e-01   4.2371705e-01  -8.6681866e-01  -6.8868796e-01   6.0845552e-01   7.5609753e-01  -6.7281456e-01   8.1095006e-01   7.7330445e-01  -4.9076752e-01  -5.2384380e-01   7.7444758e-01   9.2883927e-01  -4.9409695e-01  -8.9922981e-01  -3.5146497e-01   1.9921831e-01   1.2964631e-01   2.0588052e-02   7.2820736e-01   1.7735031e-01   9.6015830e-01   2.2513389e-01  -6.6643583e-01   8.5253121e-01  -1.8322784e-03  -3.2136850e-01   7.9399993e-02   9.4384912e-01   7.3824820e-01  -1.9226197e-03   7.0288676e-01   8.1310426e-01  -3.3373102e-02  -2.9584425e-02  -8.4657083e-01   4.6288848e-01   9.5240399e-01   2.2137676e-01   3.0633574e-02  -7.9876454e-01   4.7043611e-01   8.4048467e-01  -8.6062275e-01   6.7423302e-01   1.5550042e-01   8.7213439e-01  -3.9204985e-01   1.0384287e-01  -8.8108581e-02   8.2697456e-01   4.6093316e-02   7.3555466e-01  -2.9578901e-01   3.1823481e-02   3.0228187e-01   6.4592744e-01  -9.5624774e-01   5.6329067e-01  -5.8993536e-01   3.2683360e-01  -9.4165950e-01  -4.7326032e-01  -2.0029557e-01  -1.1286414e-01   1.9381129e-01   2.2427887e-01   6.2445907e-01  -2.1786142e-01  -8.0462650e-01   6.7076645e-01   7.6330431e-01   5.1795234e-01   8.7471630e-02  -9.1533072e-01  -9.1566547e-01   1.2382492e-02   8.7813841e-01  -7.4489751e-01   7.1438179e-01   5.7310230e-01   9.0815924e-01   1.7405815e-01  -6.2334191e-01   5.5204684e-01  -1.5448891e-01   9.7553608e-01  -5.6697167e-01   8.6394396e-01  -5.7398921e-01  -4.3583383e-01  -8.7589426e-01  -4.2410463e-01  -4.7632239e-01   7.8819044e-01   4.6141243e-01   2.6053570e-02   6.8180957e-01  -3.9906794e-01   3.4192356e-01  -8.9052022e-01   1.2720846e-01  -9.8877960e-01  -7.0911530e-01   9.3195547e-02   3.6066758e-02   7.9281183e-01   2.6365970e-01   8.5819844e-02  -5.7272717e-01   3.6594873e-02  -4.2432254e-01  -2.9198880e-01  -3.1635209e-01   3.1496138e-01  -7.9784760e-01  -5.4703405e-02   9.8550192e-01  -1.8997423e-01  -8.4081358e-01   9.6835059e-01   7.6300690e-01   9.1627460e-01  -3.8825044e-02  -9.6447628e-01   3.4739234e-02  -2.9416860e-01   2.4762954e-01   2.4508758e-01  -2.0487100e-01   6.6436263e-01   1.9229727e-01  -3.4704383e-01   9.9070983e-01  -2.9109399e-01  -1.0211725e-02   7.4235475e-01  -3.7619471e-01   6.7775525e-01   9.6458864e-01   8.0194192e-01   5.2852307e-02  -1.9288417e-01   2.5777072e-01  -7.5752768e-02   9.9633751e-01   6.2609873e-01  -4.7765102e-01   9.6999635e-01   3.8191844e-01   8.3121758e-01  -1.9547830e-01   5.5044988e-01   4.7312024e-02  -8.4221903e-01  -2.7283299e-01  -5.7275454e-01  -6.7750681e-01   6.0284300e-02  -3.4036295e-01  -6.8808865e-01  -4.8817252e-01   4.5285570e-01   5.5467527e-01   6.9545217e-01   7.7169977e-01   7.1139521e-02   9.1783110e-01   3.4181464e-01   4.4702425e-02   4.7145754e-02  -7.1296676e-01  -7.5513453e-01  -7.5828367e-01  -2.5210460e-01  -3.4559054e-01  -9.1567048e-01   4.9412409e-01   2.9213489e-01  -1.1512428e-01   7.3244901e-01  -2.5696750e-01  -5.4063348e-01   3.8500981e-01  -8.2812662e-01  -6.6080130e-01  -9.2780615e-01   6.2917176e-01   9.6238307e-01  -3.6002745e-02   3.1195281e-01  -2.0498860e-01   9.0286435e-01  -4.2341195e-01   8.9949329e-01  -8.5161289e-01   7.6177608e-01   3.9230664e-02   3.5408614e-01  -8.0743635e-01  -1.2602556e-01   8.6584771e-02  -8.9867615e-01  -5.5227542e-01  -9.1286697e-01   5.7064614e-02  -6.4833525e-01   7.5081802e-01   6.4179463e-01  -3.5634131e-01   2.6369888e-01  -5.6443080e-02   1.0823724e-01  -5.9174988e-01   5.2213850e-01  -3.2620591e-01   8.9256376e-02   4.8743764e-01  -5.8571029e-01  -3.0662867e-01   3.0903020e-02   2.5698532e-01   4.0795679e-01   1.7136212e-01  -3.8345376e-01  -1.9878428e-01   7.9141420e-01  -7.6788850e-01  -8.3355882e-01   9.5846996e-01  -4.5333184e-01  -6.9139531e-01   3.1725543e-01  -3.9321468e-01   3.3754526e-01  -2.3825892e-01   2.3529907e-01  -8.1245507e-01   1.5916359e-01  -4.6837496e-01  -6.4043989e-01   1.0609115e-01  -4.8606220e-01   1.3921211e-01   5.6351643e-01   6.6850179e-02  -7.8559312e-01  -6.4199473e-01  -9.9470327e-01   1.5405242e-01   7.0417205e-01   8.5719057e-01   3.2778303e-01  -3.8040949e-01   7.8456728e-01  -5.3712124e-01  -2.1672150e-01  -9.1217075e-01  -5.7751666e-01   8.8956309e-02   8.1429879e-01  -6.9929529e-01  -3.0073518e-02  -7.6591851e-01   2.8330382e-01   3.2483868e-01  -1.6683560e-02  -7.6853590e-01   5.1243486e-01  -2.2840659e-01   1.7105476e-01  -2.5403701e-01  -2.8609543e-01  -7.9818058e-02  -8.7647849e-01   8.7088370e-01   2.1439003e-01  -1.1095142e-01  -8.8263450e-01   2.5335831e-02   5.9226519e-01   7.9317634e-02  -1.3904120e-01   9.1617075e-01  -5.2458463e-01   1.3925430e-01  -5.1691241e-01   8.4281763e-01  -8.6117217e-01  -4.0935118e-01  -1.9178572e-01   6.7618154e-01   4.2099972e-01   8.6799653e-01   9.8723442e-01   6.6798035e-01   3.6022522e-01   9.0007436e-02   2.2456517e-01  -4.6777880e-01  -5.5773999e-01   1.6299837e-01   9.0750593e-01   4.8797865e-01   2.6912233e-01  -8.0086899e-01  -8.1899979e-01   6.7856557e-01  -6.7405899e-01   6.5240978e-01   1.8751694e-01  -6.6973612e-01   8.4632858e-01   6.5958191e-01  -5.3378271e-01  -9.6890872e-01  -6.7735816e-01  -9.5408137e-01  -3.0832984e-01   6.0066549e-01  -7.8243106e-01  -4.9706473e-01  -4.2332724e-02  -8.4962672e-01   5.1608989e-01  -5.7855786e-01   2.2934929e-01   4.8577497e-01  -4.4692833e-01  -6.5074787e-01  -9.2338677e-02   8.6256656e-01   9.6204992e-01   1.7392639e-01  -1.5494085e-02  -1.6370677e-01   9.7884670e-01  -5.1068587e-02   1.8493932e-01   1.6767268e-01  -5.0896360e-01   8.7761977e-01   7.3041448e-01   9.3476946e-01   5.2554880e-01  -8.6350867e-01   1.6881581e-01   1.9078553e-01   9.2482695e-01   7.6763332e-01  -6.5121041e-01   9.7570988e-01   6.3361933e-01   9.5109199e-01   1.8922083e-01   1.4677384e-02   2.7503688e-01  -5.9113134e-01   1.2610802e-01   9.3979056e-01   4.3450838e-01  -1.6344651e-01  -9.8268364e-01  -9.3779796e-01  -3.2849340e-01  -5.1325360e-01   1.0797967e-01   9.8746286e-01   7.4744962e-01   7.8222303e-01  -6.5464021e-01  -3.9734795e-01   3.8866511e-01  -8.2325042e-01  -6.1764524e-02   2.0500055e-02  -6.6976584e-01   1.8929799e-01  -8.6639306e-01  -3.3561429e-01   7.6872158e-01  -4.3854817e-01  -2.6734341e-02  -7.6425517e-02  -8.9151358e-01  -3.8380665e-01  -9.0387907e-01   2.2702267e-01  -9.6802185e-01
  -7.2354552e-01   1.3013702e-01  -2.6537262e-01  -1.9631234e-01   1.5311598e-01   5.6095020e-01  -6.8546920e-01  -9.1338672e-01   9.1808781e-01  -3.6233312e-01  -3.7542130e-01   9.9923545e-01  -9.4983657e-01  -6.1547200e-01  -2.6946233e-01  -2.8687036e-02   3.5277757e-01  -7.8005349e-01  -1.1169507e-01  -7.3294461e-01  -6.2647748e-01  -8.3893586e-01  -7.0021119e-01   3.0338461e-01  -6.0041376e-01  -5.0589854e-01   6.3285344e-01   1.6038421e-02   6.3534652e-01  -9.1460348e-01   1.5077114e-01   7.9971593e-01   3.8539260e-01   6.0740471e-01   3.6004131e-01  -9.2217770e-01  -1.7799708e-01   3.2829019e-01  -8.8308369e-01   2.0807523e-01  -8.1455369e-01   9.1903520e-01   8.5014904e-01  -7.0963484e-01   7.3017801e-01  -2.2019600e-01  -2.1682943e-01  -1.9999053e-01  -9.1268827e-01  -8.6729616e-02  -4.2637824e-01   4.0153383e-01  -9.9842826e-01  -9.1211293e-01  -1.4115611e-01   7.8360370e-01  -1.4129334e-01   5.5240811e-01   6.8468295e-01   3.5917765e-01  -2.9922902e-01   9.5678630e-02  -7.4761908e-01  -5.1800720e-01   3.2385710e-01   7.1311399e-01  -3.3111789e-01   1.0208761e-01   2.6509206e-01  -1.9102103e-01  -6.5768841e-02   6.1502291e-02   4.2609493e-02  -4.3286651e-01   3.4220052e-01   6.8551610e-01  -6.9266263e-01   2.5871033e-01  -6.9193015e-01   6.7933120e-03  -6.4394833e-01  -8.8876946e-01  -4.4460773e-01  -3.6200396e-01  -1.1854697e-01  -3.3218361e-01   4.4437287e-03   2.6572645e-01  -8.6883385e-01  -3.9523536e-01   2.5551896e-02   2.3791435e-01   1.4067977e-01  -7.9615922e-01  -5.6727859e-01   7.2840714e-01  -3.1776592e-01   2.2798423e-01   2.2384713e-01   5.1238754e-01   6.4913332e-01  -8.1503531e-01   4.2486266e-01  -7.7980424e-01   6.3730887e-01  -3.7597557e-01  -3.5338948e-01  -5.5935591e-01  -1.0430792e-01  -9.9957841e-01  -7.0688252e-01  -3.5489616e-01  -9.7226413e-01  -6.4385194e-01   4.4594910e-01  -8.5226764e-01  -4.0932388e-01   9.6076004e-01   7.2911238e-01  -4.4905443e-01   9.7692022e-01  -7.9669457e-01  -6.9416066e-01   9.1136717e-01  -5.4170804e-01   2.8039657e-01   4.8116094e-01   7.0257922e-02   1.2884498e-01  -2.1002381e-01   9.9060144e-01  -2.4217100e-01   4.7927380e-01   7.2682990e-01   7.4075542e-01   2.3688524e-01   6.7595400e-01  -4.3063634e-01   6.1719412e-01   9.9333546e-02  -4.0319888e-01   1.9614651e-01  -6.1803501e-01   7.1296292e-01  -4.0128655e-01   4.1460224e-01  -5.3058914e-01  -5.9248907e-01  -3.1657964e-01   7.3140753e-01  -6.5762103e-01  -5.0420570e-01   7.0670523e-01  -6.7994459e-01   4.6645088e-01  -9.2515283e-01   1.6950060e-01  -6.6032153e-02  -8.6356672e-01  -4.3156656e-01   6.9576245e-01  -5.5910054e-01  -5.7350039e-01  -7.8588499e-01   3.2486804e-01  -9.9058677e-01   4.9887844e-01   6.9950410e-01  -2.4326648e-01   9.1257292e-01  -2.4847623e-01   1.3772282e-01   4.9144109e-01   8.6550131e-02  -9.4510094e-01  -1.6822573e-01  -4.5997269e-01   5.4666343e-01  -3.3101634e-01  -1.9600930e-01  -9.4297393e-01  -4.6643570e-01  -9.0677833e-01   8.8163808e-01  -1.9856538e-01   4.7603300e-01  -3.7226052e-02   4.1803035e-01  -7.8948390e-01   1.4352450e-01  -7.3252889e-01   2.8898933e-02  -4.3890419e-01   9.9064604e-01   3.0007276e-01  -6.6127145e-01  -1.7268708e-01   2.8265729e-01  -6.0864004e-01   4.6324791e-01  -4.1650402e-01   8.3141174e-01   5.2772661e-01  -7.0063547e-01  -2.0648875e-02   1.3358533e-01   4.1024328e-01  -1.1091748e-01   7.0781855e-01   1.4274868e-01   4.4596138e-01   5.8831942e-01   5.1151814e-01  -2.7506580e-01  -1.2213199e-01   3.4048907e-01   1.6224435e-01   3.4521896e-01  -2.7567018e-01   6.7280343e-01  -4.6004452e-01  -6.0328829e-01   3.4537817e-01  -3.6927382e-02  -5.4832907e-01  -3.7251507e-01  -3.9862299e-01   1.2578094e-01  -7.6980383e-03   6.7958356e-01   9.1119805e-01  -5.1149092e-01   2.0566430e-01   2.6347218e-01   6.4107975e-01   4.4664093e-01   7.1646571e-01  -9.7969057e-01  -7.0616446e-02   5.6216625e-01   2.3039697e-01  -2.9553388e-01  -1.4385184e-01  -6.8424447e-01   6.9782093e-02  -6.4076954e-01   3.7887547e-01   4.1931902e-01   4.9619664e-01  -3.2243561e-02  -7.1398693e-01  -3.8827667e-01   5.7444525e-02  -3.6081893e-01   2.5743666e-01   2.0250057e-01   5.2832307e-01   5.3828212e-01   8.0034997e-01  -2.3851110e-01   5.3442983e-01  -7.9414414e-01   3.6980902e-01  -2.2020605e-01   2.7331382e-01  -1.6240697e-01  -7.5988490e-01  -8.1326649e-01  -3.9928108e-02   8.6592024e-01  -9.3019985e-01   5.0212254e-01   9.5783666e-01   4.2073720e-01   2.6444986e-01  -3.0911682e-01  -7.0679933e-01   7.7364440e-01   1.4639176e-01   9.7745179e-01   9.6690562e-01  -4.2455477e-01  -6.0810587e-01   5.5407663e-01   3.1728307e-01  -8.2911324e-01  -7.8167487e-01  -4.8575766e-01  -9.8003036e-01   8.0350799e-02  -6.1203912e-01   6.4216981e-01  -4.8014003e-01   9.3582162e-01  -4.2954482e-01  -7.0525799e-01   6.1401890e-01  -7.6777785e-01   1.8923286e-01  -7.2613729e-01  -8.2350202e-01   8.8619123e-01  -4.9901267e-01  -5.0440235e-01   8.5348091e-01   8.0270461e-01  -6.1898517e-01  -1.4879950e-01  -4.8864229e-01   5.0439222e-01   3.2513193e-01   5.3883632e-01   7.2827862e-01   5.7396952e-02   1.4631132e-01   9.0222649e-01   2.6236688e-01   4.0911835e-03   3.7422463e-01   9.5613444e-01  -4.9526450e-03   5.5512449e-01  -6.1851126e-01  -5.5046149e-01  -6.3019637e-01   4.3037175e-01  -4.9673059e-01   3.0111025e-01   4.9963805e-01   1.6739349e-02  -1.8512867e-01  -3.3751005e-01  -8.6764281e-01   2.4427341e-02  -1.2191099e-01  -7.9839251e-02  -7.2897382e-01   1.2050243e-04   4.7294211e-01   4.7591666e-02   5.1429795e-01   4.1322023e-01  -3.5675996e-01   5.2104841e-01  -8.6777979e-01  -9.6407644e-01  -3.5728533e-01   7.0993604e-01   9.0539770e-01   7.4110270e-01   8.5213623e-01  -8.6159675e-01   8.0445175e-01  -2.4278477e-01   5.2461297e-01  -4.5740856e-01   6.6479884e-01  -2.7826982e-01   1.3955786e-01  -4.8225323e-01  -6.9134438e-02   6.8486373e-01  -4.7289991e-01   1.3231603e-02   5.0061124e-01   8.7493375e-01   4.0411006e-01   1.6500488e-01   5.4105414e-01  -6.3570930e-01  -4.4089800e-01  -6.9023526e-01  -4.9463255e-01  -1.1948909e-01  -7.9409198e-03   3.2034282e-01   3.1375040e-01   7.8522707e-02  -9.6419745e-01  -9.8131494e-01  -8.4857346e-01  -7.7558216e-01  -1.5452405e-01   8.8575919e-01   6.3435992e-01  -2.0653339e-01  -2.2750756e-01  -5.0544764e-01  -6.7947712e-01   9.7808299e-01  -5.9257110e-01  -4.0831300e-01  -4.6710415e-01   9.2937957e-01   1.0864826e-01  -4.5185143e-01  -3.4395574e-01  -9.6896603e-02  -8.0537404e-01   3.2741650e-01   2.4682552e-01   4.6454236e-01  -4.5532145e-01   3.2422866e-01   5.3250860e-01   4.6655554e-03  -3.0688807e-01   6.3429810e-01  -4.7632335e-01  -2.7413103e-01  -8.9910525e-03  -8.2737950e-01   3.8764251e-01   7.6610378e-01  -2.9935264e-01  -2.8916306e-01   4.4658829e-01   6.2045403e-01  -2.5074175e-01  -4.9594284e-01  -6.9312079e-01  -9.3465775e-01   6.7211214e-01  -5.8460728e-01   2.3718582e-01   2.3145526e-01   4.9866471e-01  -3.3828486e-01   4.0577833e-01   3.3446204e-02   4.9195719e-01  -5.5700726e-01  -6.9803832e-01   7.7753422e-01   7.6344386e-01   5.3911337e-01  -7.2455390e-01   7.3271438e-02  -6.5641685e-01   4.5819537e-01   1.5401369e-01   5.3648595e-01  -7.9172683e-01   8.2955035e-01  -5.8472433e-01   6.5081360e-01  -9.5902226e-01   5.6170010e-01  -7.9632945e-01  -4.1210008e-01   1.1145079e-01   4.3735738e-01   1.0725769e-01  -5.0376529e-01   8.2644586e-01   6.2257927e-01  -3.3410000e-01   6.7919231e-02   9.2617683e-01  -5.2534248e-01   3.3079755e-01   8.1160922e-01  -4.9856268e-01  -6.8645569e-01  -6.1966153e-01   6.3414005e-01   9.8456214e-01  -2.7939543e-01   5.9812479e-01   2.8311411e-01  -1.4685211e-01  -5.0965224e-01  -6.5690943e-01  -4.8411101e-01  -1.5344380e-01   1.3232320e-01  -7.0891537e-01  -8.6138462e-01   4.5434819e-01   5.9653662e-01   9.8709223e-01   7.6718630e-01  -5.5279602e-01  -7.4557411e-01  -5.8813078e-01   2.4355599e-01   6.2609538e-02  -5.0973431e-01   8.8881530e-01  -3.3639751e-01  -4.0441709e-01  -4.0853924e-01   3.6010497e-01  -7.4435895e-01  -7.4894021e-02  -8.0729877e-01  -1.5631863e-01   8.8842235e-01  -9.3019442e-01  -1.0940742e-01  -2.1971586e-01  -9.4267475e-01   5.0864015e-01   5.7837915e-01  -3.0590173e-01   7.7500620e-01   9.3901905e-01  -9.0024792e-01  -7.0104766e-01   4.3522732e-01  -9.0200013e-01  -1.0714034e-01  -7.6086260e-01  -6.1016491e-01  -5.3728783e-02   2.4411750e-01  -4.6646349e-02  -8.9123864e-01  -3.6459716e-02   2.8322093e-01  -3.3988394e-01  -7.9973104e-01   9.8459638e-02   2.7125108e-01   3.9668264e-01   5.6464995e-01   7.3270576e-01   8.3291104e-01   2.9543606e-01  -6.4650905e-01  -8.3634422e-02  -2.9421577e-01   6.0314458e-01  -6.1022429e-01  -1.2147907e-01  -1.2189273e-01  -5.8353076e-01  -2.8103468e-01  -3.9122824e-01   7.4883001e-01  -2.0569493e-01  -2.3505822e-01   3.0189085e-01  -6.3288982e-01  -8.9988532e-01   9.8222547e-01   6.2529877e-01  -9.1576273e-01   6.9817542e-01   5.7173035e-01  -2.9288476e-01   7.0987316e-01   2.9256079e-01   4.7880996e-01  -6.4025265e-01   1.9258896e-01   7.4529727e-01  -5.4481459e-01   1.7521699e-01  -2.4923058e-01   3.0342587e-01  -4.3576280e-01   8.7253856e-02  -1.1498159e-01  -9.2397752e-01  -2.6488016e-01   5.3247861e-01   5.2178057e-01  -7.7294256e-01  -4.2675305e-01   7.6676853e-01   7.9261781e-01   7.6155427e-01  -9.0472875e-01  -5.1115512e-01   5.1418180e-01   5.8784544e-01   2.1234283e-01  -6.9986322e-01  -5.2990031e-01  -8.5083077e-01  -1.5862758e-01  -5.6960827e-02   3.6768523e-01   5.4458918e-01  -7.9033541e-01  -4.2944266e-01  -6.8321064e-01  -6.1935275e-01   6.5899531e-01   6.0746376e-01  -4.8709543e-02   9.5672311e-01   8.5854321e-01  -3.5050769e-01   6.8685313e-01  -2.2783025e-01  -2.8594356e-01  -3.1195641e-01   9.3060209e-01   7.2798672e-01  -1.4115531e-01  -8.2293625e-01  -2.0336507e-01   8.4640474e-01   8.1555787e-01  -4.6258180e-01  -7.1632049e-03  -3.0095133e-01   9.3033116e-01  -1.0949528e-01  -2.7314154e-01  -9.5160895e-02  -7.0259492e-01  -7.9563926e-01   8.3675869e-02  -7.2684013e-01  -5.5971742e-01   4.2809472e-01  -1.6082187e-01   9.2147919e-01   5.6583898e-01   7.5076960e-01   2.0675289e-01  -1.9624324e-01  -1.0590420e-01  -3.2943728e-01  -1.8546880e-01   4.1079377e-01  -6.0949661e-01   1.2933723e-01   6.6434355e-01   9.6152313e-01  -4.1213643e-01  -7.0752941e-01  -9.8666630e-01  -7.3282717e-01   3.3903442e-02   8.7715809e-01  -7.3055904e-01  -6.8901015e-02  -5.6243100e-01  -2.4148928e-01   2.6970143e-01   3.3175752e-01  -3.6770964e-01  -6.9036638e-01   1.8936618e-02  -3.8442647e-01   1.2978631e-01  -2.7038499e-01  -6.9302544e-01  -7.6168833e-01  -6.3517786e-02  -6.7921303e-01   8.2550245e-01   1.2519409e-01   7.1412813e-01   1.1325689e-01  -2.4139927e-01   5.0252355e-01   1.9209133e-01   1.7736041e-02  -6.6773717e-01   9.1005730e-01   3.4433022e-02   1.5022025e-01   1.7665239e-01   4.9833606e-01   5.5757336e-01   3.7298357e-02   3.5886490e-01  -4.1379023e-01   2.7064003e-01   5.4274986e-01   9.4390464e-01  -4.9361917e-01  -7.7953669e-01  -8.0510252e-01   7.4252307e-01   9.6215184e-01   3.0147221e-01  -9.7136216e-01  -4.9377194e-02  -2.9095021e-01   1.1944979e-01  -3.9785659e-01   9.1754378e-02   5.3742975e-01  -8.4770436e-01   4.5625013e-01  -9.8453420e-01  -6.3310706e-01  -2.2852792e-01  -8.6181071e-01   8.3762949e-01  -4.1610271e-02  -4.1148543e-01   5.1753205e-02   4.9805698e-01  -5.0821089e-02  -9.2350854e-01   9.9655879e-02   5.7738604e-01   8.4305588e-01   1.9568182e-01   1.0832568e-01   9.8737556e-01   5.3168186e-01   6.5739695e-01   5.3454487e-02   8.1947908e-01   1.8722613e-01   7.7064946e-01  -2.3758257e-01  -2.3184394e-01   7.8544676e-01   1.9871739e-01   4.9597370e-01  -1.1558393e-01  -3.8256459e-01   1.4601949e-02   7.3160807e-02   5.7257743e-01  -8.4112664e-01   7.4913490e-01   9.3226749e-01   9.5664004e-01  -5.1214152e-01   6.9085581e-01   1.4940776e-01   4.1921862e-01   4.6675921e-02   2.8454463e-01  -1.2919440e-01  -7.2465013e-02   4.1104933e-01  -3.8882433e-01   1.0942727e-01   3.4522627e-02   9.7978771e-01   7.8748074e-01  -9.0662004e-01  -3.1414872e-01   6.6987741e-01   8.3563106e-01   6.0921547e-01   9.1138783e-01   7.0286676e-01  -5.0174075e-01   4.2956146e-01   3.8903123e-01  -7.9537229e-01  -2.3676751e-01   5.1953093e-01   2.0018201e-01   9.5754741e-01  -4.3343755e-01   5.8807045e-01   1.9479893e-01  -3.7358141e-01   3.8308166e-01   2.0278979e-01   3.3411083e-01   6.4296757e-01  -6.9628678e-01  -3.7395844e-01  -1.2222971e-01   7.8370516e-01   9.9410036e-01   1.5144423e-01   9.3918685e-01   4.2595054e-01  -5.5324447e-01  -7.2095558e-01  -5.5938709e-01   1.4080510e-01  -6.9863414e-01   1.1314155e-02  -4.8805059e-02  -8.0845150e-01   9.4116284e-01   4.3077207e-01  -4.6223067e-01  -5.4183879e-01  -9.7169520e-01   7.7387938e-01  -2.9282469e-02   5.4199654e-01  -7.0417849e-01  -3.6162030e-01  -3.3711353e-01   8.5076129e-02  -3.0812157e-01  -3.0686471e-01  -4.6353770e-01  -9.7668398e-01   6.2949324e-01  -9.5778128e-01  -4.8840474e-01  -3.0216847e-01   4.6543076e-01   8.0895827e-01   2.9563923e-01  -4.8034182e-02  -8.3736206e-01  -4.4673181e-01   1.2064807e-01   1.6675034e-01   2.9655148e-01   5.4394440e-01   6.9237471e-01  -4.4342877e-01   6.9656455e-01  -9.2949637e-01  -6.2002761e-01   3.4985174e-01  -5.8944499e-01  -2.4560513e-01  -6.0050902e-01  -8.6576801e-01   7.3988157e-01  -3.6911437e-01   7.2402458e-01   5.1660681e-01   2.0636738e-01  -7.8610974e-01  -2.3506943e-01  -9.1601517e-01  -6.7959239e-02  -5.8441434e-01   1.6471885e-01  -8.5387059e-01   4.1514018e-03   9.0831834e-01  -7.8039895e-01   7.9658721e-01  -3.1520653e-01   8.4274000e-01   8.3477587e-01  -3.7184743e-01   6.6810949e-01   2.2619325e-01   3.8536244e-01   1.6155433e-01   9.8530175e-01  -3.4276668e-01   4.8452104e-01  -2.3164270e-01   8.7661938e-01   7.7830318e-01  -4.4725325e-01  -9.1335419e-01   6.8820460e-02  -7.9234156e-01   3.4827508e-01   7.5083152e-01   4.2754781e-01  -9.0847891e-01  -9.5982568e-01  -3.2030902e-01   9.1335922e-01   8.2979385e-01   9.5716184e-01   6.6018920e-01   4.0440120e-01  -1.7291625e-02  -6.1699458e-01  -6.0365329e-01   8.7655145e-01   3.9707055e-01   2.7207240e-01   1.0717699e-01  -5.8562823e-01   9.5466706e-01   1.2634333e-01   7.8020766e-01  -6.3244181e-01  -8.2066519e-01  -3.2936904e-01  -6.9161667e-01  -8.0253511e-01  -3.0632532e-02  -4.9112077e-01   6.4968255e-01  -2.2620514e-01   5.4523908e-01   9.5359413e-01   2.8188607e-01  -7.0805548e-01   2.1261981e-01   2.8925959e-01   6.5380059e-01   4.4182014e-01  -2.3024162e-01  -9.1629357e-01  -2.0609824e-01   3.2616954e-01   8.4238330e-01  -4.5308160e-01   6.1185058e-01  -6.3563277e-01  -2.5423897e-01  -2.2677986e-01  -5.1933153e-01  -8.2190702e-01  -4.7716662e-01  -2.6874708e-01  -3.9300215e-01  -8.4991212e-01  -3.9477673e-01  -3.5600169e-01   8.9296061e-01  -8.0779413e-01  -1.6364104e-01  -5.8876145e-01  -2.2451980e-01  -4.3602922e-01   5.1972452e-01   4.8903517e-01   2.1200586e-01  -6.1466220e-01   8.0464256e-01   1.9967495e-01   2.6575447e-01  -6.8910402e-01  -9.6316511e-01   6.4014742e-01   3.4015564e-01   6.8670302e-01  -8.0469100e-01  -3.4031582e-01   9.4789968e-01   5.3320883e-01   6.4738613e-01   7.2337730e-01   2.1398703e-01  -5.4556837e-01   8.1931829e-01   8.5901082e-01  -9.0538731e-01  -2.3096961e-01   6.3449339e-01   4.9987058e-01  -6.8333960e-01   1.1047617e-01  -9.8057604e-03   6.3671347e-01   6.3993160e-01   5.2783227e-01  -1.6781880e-01  -3.5002756e-01   7.0761575e-01   6.3121965e-01  -3.5841211e-01  -2.5478478e-01  -3.2088487e-01   4.2119067e-01  -9.5415824e-01  -3.4670468e-01   1.5692896e-01  -4.5923740e-01  -1.4570764e-01  -3.5168384e-01  -4.7356133e-01  -6.7734132e-01   9.1473261e-01  -8.1194624e-01  -4.0002795e-01  -7.4740956e-01   7.1726143e-01   4.8537154e-01  -3.7540024e-01  -8.0840740e-01  -9.2930790e-02   4.7425955e-01  -9.9189114e-01  -9.3875704e-01   2.7719022e-01   5.4446134e-01  -9.6257636e-01   2.7889426e-01   4.0394001e-01   3.9416913e-01  -2.0154880e-01  -7.3097031e-01   8.1195360e-01  -6.1289724e-01  -7.1249684e-01  -1.8226258e-01   9.7302250e-01   3.2293192e-01   7.7737984e-02  -5.3024772e-01  -9.3968691e-01   1.7689575e-01  -9.3822640e-02   3.7865153e-01   6.3641476e-01  -2.6992200e-01
  -4.6229308e-01  -4.4920035e-01  -7.3238339e-01  -2.0248427e-01   9.8438981e-01  -3.7490166e-02  -3.9298767e-01  -7.1209956e-01  -5.4486138e-01   5.6405678e-01  -1.9629515e-01  -5.3335431e-01  -6.9461850e-01  -2.6200687e-01   7.0139092e-01   5.8864792e-01  -5.8391008e-01  -4.6296987e-02  -7.2255772e-01  -5.5019893e-01  -9.1262116e-01  -6.6677634e-01  -3.9123715e-01   8.9055811e-01   2.5111064e-01   4.2584378e-01  -9.8742345e-01   9.8044633e-01  -3.1991767e-01   6.3751928e-04   5.0167604e-02  -5.2470974e-01   8.6887851e-01  -2.6901265e-01  -4.5046706e-02   7.7507651e-01   6.0470582e-02  -6.0232944e-01  -1.2264710e-01  -2.7728285e-01   8.7618995e-01  -5.2704193e-01   8.8472837e-01  -3.3911638e-01  -2.3902533e-01   2.6708173e-01   1.1416328e-02  -9.9224080e-02  -4.0484497e-01  -9.5528649e-01  -1.2685850e-01  -1.7672389e-01   1.3036482e-02   3.0930878e-01   8.4011552e-01   6.7632618e-01  -2.0836724e-01   8.5774966e-01   1.2869336e-02  -8.3475959e-01  -5.5432382e-01   8.9906117e-01  -1.0382418e-01   9.5073422e-01   2.8521362e-01  -3.1653764e-01  -5.7597653e-01  -8.5597219e-01  -9.5780596e-01  -4.7312962e-01  -8.5415023e-01   4.5158646e-01   8.4739082e-01  -7.9978753e-01   6.5574269e-01  -9.3814170e-03  -6.8103505e-01   4.4257809e-01  -9.7215407e-01  -6.4289213e-01  -4.6898064e-01  -6.4699391e-01  -9.3297131e-01   2.4699217e-01  -1.0329738e-01  -6.1627437e-01  -3.5974487e-01   2.2355492e-01  -2.3715197e-01  -5.8256094e-01  -8.2870633e-01   8.7010237e-01  -2.1037877e-02   9.4883398e-01  -1.4874254e-01   2.1528789e-01   5.9576116e-01   2.7444290e-01  -4.6380317e-01   6.0720546e-01  -6.0544493e-01  -1.6886742e-01   7.8957007e-01   9.5532881e-01   3.9793677e-01   1.3531255e-02  -8.8604054e-01  -4.5055457e-01  -8.9188126e-01  -3.9916621e-01   5.6664266e-01   1.7653617e-01  -2.8965683e-01   5.9988689e-03   7.6357497e-01   5.3346511e-01   8.7693221e-01  -2.5791819e-02  -2.1677243e-01   4.2659998e-01  -7.0926298e-01   2.5941728e-01   4.5948407e-01  -6.7260376e-01  -8.4524234e-01  -8.1279382e-01   7.1897188e-01   3.0146394e-01   5.5167494e-01  -6.7491126e-01   8.7389585e-01  -2.3759349e-02   5.6760931e-01   7.4931659e-01   4.9714625e-01  -7.7341705e-01   4.7802763e-01  -7.9847876e-01   4.3559637e-01   1.0508624e-01  -2.3841194e-02   8.1674387e-01   1.6689899e-01  -8.0359527e-01  -5.6867470e-01   4.0181882e-01  -4.2689149e-01  -9.4582298e-01   7.5441501e-02   2.3351872e-01   4.4645439e-01   6.3278335e-01   2.4362345e-01  -9.5276863e-01   7.1755375e-03  -5.5711428e-01  -9.7308965e-02   5.1585675e-01  -5.9104616e-01   9.7100343e-01   2.0016002e-01  -2.6424788e-01  -5.3041705e-01   5.8308499e-01   9.5766433e-01   8.0476659e-01   2.7947178e-01   1.2281906e-01  -6.1882887e-01  -4.6225713e-01   1.0152375e-01  -2.0779162e-01  -1.8279552e-02   9.4683487e-01   4.0107412e-01  -2.7298255e-01   8.2235870e-01  -4.9373325e-01  -4.9881294e-01   5.3987761e-01   6.0416771e-01   9.1620410e-01  -2.8477193e-01  -6.5276766e-01  -3.3648866e-01  -2.8497561e-01  -3.1661551e-01  -7.1968037e-01  -4.9675685e-01   2.5317937e-01  -8.7834841e-01   4.3225201e-01  -6.6341127e-01   6.2810413e-01   4.2268959e-01  -1.8014331e-01  -9.3181132e-01   9.0282707e-01  -8.8723468e-01   7.9541715e-01   5.7191018e-01   9.3629850e-01   8.5960666e-02  -9.1952765e-01  -2.5343376e-01   6.4969691e-01   7.2527601e-01  -6.1120947e-02  -8.8111617e-01  -2.6339174e-01   2.2791715e-01   3.5822056e-01   4.6004259e-01   1.4756103e-01  -9.5521942e-01   3.3633992e-01  -8.2903514e-01  -8.5524019e-01   7.0334954e-01  -5.9843096e-01  -8.0345222e-01   8.9169746e-01  -5.5266380e-01   7.9470566e-01   1.6494251e-01   5.1483939e-01  -7.9086291e-01  -2.4239828e-02   6.2370782e-01  -1.1895097e-01  -8.5025557e-01  -7.6810812e-01  -2.0304726e-01  -4.3190010e-01  -5.1231790e-01  -2.9340204e-01   5.9836845e-01   6.8351440e-01   9.1268980e-01   7.8924085e-01   7.6670323e-01  -1.4380629e-01   4.4731251e-01  -7.1435328e-01   9.1756295e-01   4.3869753e-01  -2.6471023e-01   2.6189969e-01  -4.2002912e-01   1.4414703e-01   9.2017797e-01   4.0998530e-01   9.0646598e-01  -2.2137985e-01  -9.1438950e-01   3.9430774e-01   4.9174107e-01  -5.1328849e-01  -1.5603034e-01   7.5414583e-01   7.3409277e-02  -8.3401196e-01   5.9011205e-01  -6.4328246e-01   1.0200768e-01   2.6114293e-01   8.0641598e-01  -2.5758407e-01  -9.1346801e-01   1.1113618e-01   5.8105839e-01   1.1104323e-01   6.9436635e-01  -5.9657994e-01  -3.4814724e-01  -8.5194141e-01  -4.4301005e-01   9.8459751e-03   2.5936126e-01  -5.2729888e-01  -1.6653556e-01   7.9781328e-01   9.7720014e-01  -3.3082595e-01   6.6227230e-01   4.1644215e-01  -7.6871671e-01  -3.7842040e-01   3.3350817e-01  -5.9063771e-01  -1.4672654e-01  -2.5110384e-01  -6.5645597e-01  -6.8730176e-01   3.3532946e-01  -6.0619770e-01  -1.5732017e-01   5.0931488e-01  -6.4437365e-01  -3.3459876e-01   4.0244776e-01   5.3808769e-01  -9.3794339e-01   2.9534492e-01  -7.9589807e-01  -4.8386973e-01  -4.9661185e-01   5.3127193e-01  -9.7925847e-01  -9.7787436e-01  -3.3719525e-01   5.5882448e-01  -1.9632234e-02  -7.5540932e-01   2.5584589e-02  -2.4420447e-01   5.3069850e-01  -4.1773954e-01   1.9872178e-01   2.2644725e-01   7.6805057e-02   1.4029570e-01  -4.1865490e-02   9.1781381e-01  -1.8460716e-01  -6.9977419e-01  -1.0356273e-01  -9.2830223e-01   6.7492811e-01  -6.3724945e-02   5.6057326e-01   9.1011502e-01   4.4419240e-01  -9.6136518e-02  -6.7566375e-01  -2.8867399e-02  -9.7894903e-01  -7.9770167e-01   9.3453821e-01  -9.2049480e-01  -1.1321543e-01  -4.8626973e-02  -8.8169180e-01  -4.1332271e-02   8.7684502e-01   6.9945956e-01   8.5302392e-01   7.1144867e-01   6.5601262e-02  -2.9525596e-01  -3.6650838e-01  -9.1245891e-01   2.7000432e-02  -7.9542706e-01   5.1884541e-02  -1.7787381e-01  -6.7229339e-02  -6.8136802e-01  -2.1270774e-01   6.9745065e-01  -4.3123390e-02   1.6068477e-01   6.1377146e-01  -8.9880386e-01   9.2206709e-01   2.0320252e-01   5.7453060e-01  -1.3723483e-01   5.7865265e-01  -1.5872798e-01   7.9366805e-01  -8.5013696e-01   1.5012719e-02  -8.7925603e-02  -6.9198590e-01   2.5453324e-01  -6.6937834e-01   7.3329022e-01  -5.8632518e-01  -6.5191833e-01  -9.0640334e-01   6.7532874e-01   9.1849233e-01   8.3418468e-01  -4.6249192e-01   7.1945669e-01   2.4735037e-01  -9.8162244e-02   9.9514953e-01   6.9901997e-01   7.9042923e-01  -9.7294080e-01   3.5522409e-01   2.8728065e-02   2.3177472e-02  -2.5834627e-02   4.5076382e-01   1.9271836e-01   7.3799597e-01  -8.0903929e-01   3.0353902e-01  -9.1910906e-01   2.0457062e-01   6.9728695e-01  -6.3650404e-01  -5.6410449e-01  -9.6287907e-01  -2.0701983e-01   8.1351118e-01   1.0238142e-01  -7.5081597e-01   3.0815836e-01   2.8176212e-01  -6.9659555e-02   6.4966400e-01   7.8570712e-01   9.2365815e-01  -4.2013003e-01   7.5149482e-01  -8.4023379e-01  -9.7592204e-01   8.0115155e-01   5.1426238e-01  -3.9921754e-01   8.4402982e-01  -6.6050122e-01   5.0411094e-01   1.3373481e-01   3.5622484e-01  -9.4811853e-01   3.7887648e-01   8.1977582e-01   2.3180445e-01   9.1111129e-01  -9.0082293e-03  -6.1290346e-01  -8.3983763e-01  -8.3959631e-02   9.3913681e-01  -3.2234220e-02  -5.5617926e-01   5.8235649e-01   3.1287202e-01   1.9731850e-01  -9.0423359e-02   8.2010852e-01  -1.3675327e-01  -1.8604999e-01  -9.6900948e-02  -5.2909654e-01   7.8522193e-01  -2.4132319e-01  -3.5391216e-01   1.7974324e-01   1.8926444e-01  -3.7992772e-01  -9.7471761e-01  -9.6250459e-01   6.9216103e-01  -5.4704757e-01  -4.2672015e-01  -3.9653493e-01   2.6341538e-01  -6.6824328e-01   5.8228801e-01  -2.2113266e-01  -4.5917935e-01   7.7382858e-02   2.8500694e-01  -2.0804840e-01  -7.5568994e-01   5.6414552e-01   5.1820899e-01   9.8498427e-02  -9.0398159e-01   7.0951791e-01  -2.4840598e-01   2.2347293e-01  -2.5059828e-03  -8.0849589e-01   7.9377410e-01  -9.8936439e-01   9.0748760e-01  -5.1374246e-01   6.2497945e-01   5.1959782e-01   2.5006502e-01   8.6424689e-01  -7.8681348e-01   4.7576320e-01   8.3159703e-01  -1.3091225e-01   5.0897424e-01  -8.6250286e-01   6.1829689e-01   8.8269557e-01   5.2268508e-01  -1.1322952e-01   1.5003320e-01  -7.0740884e-01  -6.8909429e-01  -9.2419740e-01  -2.1081168e-01   1.9326262e-01  -4.4017428e-01  -1.2370263e-01  -5.6569545e-01   2.9426035e-01  -1.4472185e-01  -6.6680529e-01  -5.1477470e-01  -3.9510525e-01  -5.8372891e-01   8.2682206e-01  -9.2874271e-02   9.1201924e-01  -2.5787838e-01  -4.0398303e-01  -3.4948816e-01  -5.9953375e-01   9.3209643e-01   9.3019040e-01  -8.2459464e-01   6.3657415e-02   9.5055120e-02  -7.8041691e-01   4.9823212e-01   9.8173322e-01   8.1165614e-01   1.1633496e-01  -6.3592859e-01   4.4363522e-01   6.4711296e-01   2.3851740e-01  -7.9479617e-01  -2.7189223e-02  -6.6229108e-01  -7.5355459e-01   1.1799754e-01   8.5781172e-01   2.0510771e-01   5.1560138e-01   8.0616652e-01  -7.0081056e-01   6.9305519e-01   2.4242698e-01  -8.9729257e-01  -7.0893155e-02   5.6932376e-01  -3.1217002e-01  -7.9499500e-01   3.3688498e-01   8.8779235e-02   2.7740771e-01   6.7979626e-01   6.2927480e-01   7.1682662e-01   1.4424957e-01   3.3705938e-01  -5.4165744e-01  -5.6331478e-02  -8.3314426e-01   9.6029163e-01   5.7253344e-02  -3.2426265e-01   1.8507495e-01   9.8672093e-01  -2.4732175e-01   2.5121994e-02   7.3338537e-02   8.7961634e-01   2.9942110e-02   6.2596169e-01  -7.2610457e-01  -1.3692321e-01  -2.5277662e-01  -7.1239146e-01   8.7638946e-01   3.6665152e-02  -9.7807636e-01  -1.9603249e-01  -4.4974130e-01  -6.5658819e-01   4.7470905e-01   8.0957446e-01   1.6748692e-01  -7.0784353e-01   4.9015824e-02   4.3118424e-02  -5.3468339e-01   3.1183993e-01  -2.9529850e-01   4.5056889e-01   7.2308687e-01  -1.8355492e-01   8.6762048e-02   6.6854729e-01   3.8285149e-01   3.0196827e-01   8.8840922e-01   7.6176363e-01  -8.5870258e-01   7.4014826e-01   4.5118278e-01  -7.6248940e-01   4.9357492e-01  -9.8963439e-01  -1.4611474e-03  -9.3338145e-01  -8.3571760e-01   8.3785352e-01  -8.2597876e-01   8.0746272e-01  -1.5422750e-01   3.2714583e-01  -9.8528643e-01   8.3222402e-01   9.1127847e-01  -9.8178834e-01  -2.9820517e-01  -6.1144367e-01  -1.3810558e-01  -2.3478478e-01   3.8010172e-01   5.7536066e-01   6.1633952e-01   9.9091151e-01  -3.3528707e-01  -4.9535809e-01  -1.6446713e-01  -6.1147266e-01  -4.4070931e-01   3.9441367e-01  -1.3821421e-01  -9.1418141e-01   4.3211788e-01  -8.2475048e-01   6.7403013e-01  -6.8649276e-02  -9.6790656e-01   8.8274738e-02   3.0972842e-01   8.5677571e-01  -8.4788609e-01  -7.5333230e-02  -9.9603482e-01  -6.2992504e-02   1.3646261e-01  -9.0314219e-01  -4.6932550e-01   3.3409647e-01  -5.9012570e-01   7.2314532e-01  -4.2436878e-01   2.5767779e-02  -5.9030121e-01   6.4459715e-02  -6.0415181e-01   1.4684972e-01  -1.6924441e-01  -6.8131841e-01  -8.4626184e-01  -9.6122674e-01  -7.0154299e-02   8.4685293e-01  -4.8720898e-01  -9.6904739e-01  -3.7009872e-01  -2.9067373e-01   4.0641291e-02   5.8045369e-01  -2.1839413e-01   5.7304496e-01  -8.2556431e-01  -9.7322545e-01   1.8677260e-01   3.1321938e-01   7.4822442e-01  -8.6368884e-01   5.7639547e-01  -1.4850540e-01  -2.7223816e-01  -5.2710591e-01  -3.1434442e-01  -7.3735365e-01   4.8141995e-02   3.9377166e-01   2.6847912e-01  -7.3361000e-01   6.6472229e-02   2.3152864e-01   1.7048536e-01   1.3555376e-01  -1.6608114e-01  -3.8328543e-01   7.0931317e-01  -5.3545684e-04  -1.1430297e-01  -2.8929369e-01   2.4541923e-01   8.6760908e-02  -7.1493565e-01   5.6602957e-01  -4.3420460e-01   3.0677342e-01  -1.8266427e-01   4.6364305e-01   3.8668908e-01  -2.6656366e-01  -9.8107177e-01   3.1061611e-01  -9.5741784e-01  -4.3002432e-01   8.4103628e-01   6.8153460e-01   5.4000640e-01   9.9553639e-01   2.7139374e-01  -1.4896534e-01   4.2663469e-01  -4.5755562e-02   5.1049308e-01  -7.8261029e-01   1.7176387e-01  -4.2497839e-01  -2.5164783e-01  -3.7212297e-01  -6.5820390e-01   4.0740929e-01   3.3607123e-01   1.8244251e-01   4.2060915e-01   4.6483055e-01   6.0455053e-01  -9.9208360e-01   8.3471607e-01  -6.8530350e-01  -9.6827052e-01  -2.5242562e-01  -5.3242166e-01   2.1143292e-02   1.1835927e-01   1.9690145e-01  -3.5201810e-01  -4.9235852e-01  -6.1634018e-01   3.0242370e-01  -9.8504013e-01   1.8106116e-01   8.4666508e-01  -8.6970549e-01  -6.2639375e-01   6.7338238e-01   3.5334493e-01   9.1057769e-01   6.0416651e-02   1.3319771e-01   5.5772208e-01  -1.7907280e-01  -8.4889045e-01   2.4749371e-02  -6.6299268e-01   2.0938037e-01  -1.3932480e-01  -8.7829548e-01   9.1020817e-01  -7.3809723e-02   9.6994276e-01   1.2043249e-01   2.5889509e-01  -7.0505334e-01   3.9191624e-01  -6.7468484e-01  -6.6182928e-01  -9.9965477e-01  -1.5921410e-01   3.2206031e-01  -5.9685980e-02  -6.9198263e-01   2.8726135e-01  -6.6586837e-02  -1.9097592e-01  -6.9751626e-01   7.3387853e-02   5.3293210e-01  -3.0084033e-01   3.8117162e-01   1.9827242e-02   2.0170320e-02   8.2572630e-01   9.6360748e-01   2.4821835e-01  -7.5987871e-01  -7.8655508e-01  -8.4751027e-01  -7.4135256e-01  -6.5567501e-01  -1.5898750e-01   5.6696253e-01  -3.5983004e-02   2.9978251e-01  -1.9864003e-01  -5.5108026e-02  -2.9046393e-01   6.9419269e-01   1.3053826e-01   7.4668443e-01   4.8370989e-01  -5.8441200e-01  -9.7494080e-01  -9.0460759e-01  -8.2245339e-01   9.1915066e-01   1.9504274e-01   7.7494707e-01  -5.1070029e-01   6.9315456e-01   5.9885504e-02   8.0970843e-01   8.0881734e-01  -9.0774261e-01  -8.3504627e-01  -6.7432996e-01   5.2882343e-01   7.4539939e-02  -9.6298565e-01   9.4022979e-01  -2.4755204e-01   6.9032052e-03  -1.5951056e-01   1.2844557e-01  -5.7209690e-01   6.8140127e-01  -9.3750307e-01  -9.8470580e-01   1.2033868e-01   9.1860969e-01  -5.4832009e-01   3.1732670e-01   1.0269866e-01  -7.8457655e-01   1.9403518e-01  -5.9877963e-02   6.9110362e-01   7.9608768e-01  -7.7816510e-01  -5.4928925e-01  -9.6621279e-02   4.5004987e-01   7.2143715e-02  -7.6211046e-01  -6.2287414e-01   5.7126694e-01   3.5147765e-01   1.0420915e-01   4.8203774e-01  -1.4281096e-01   2.1409809e-01   9.2363531e-01  -8.7485661e-01   8.3302089e-01   1.4844883e-01   8.2136071e-01  -6.7210514e-01   8.6798286e-02   1.1615646e-01  -8.3579175e-01   2.1676420e-01  -9.8685930e-01   7.1577926e-01   3.2800741e-01   4.4363207e-01   7.7140757e-01  -3.9678447e-01   5.9110494e-01  -4.3817220e-01  -4.4101405e-01  -2.6013773e-01  -8.5316043e-01  -2.7905557e-01   9.7898529e-01   2.7792002e-02  -3.1890676e-01  -5.7776303e-01  -4.6918792e-01   9.4063773e-01  -5.0077152e-01  -6.8924865e-02  -6.3182391e-01   3.7733526e-01   1.0397002e-02   1.8064091e-01  -9.5464319e-01  -1.1255453e-01   7.7293921e-01  -9.6497477e-01  -2.0393759e-01  -8.0272839e-02  -6.2004454e-01  -2.3131717e-01  -3.1250037e-01   5.4855830e-01   5.8298248e-01  -1.7272547e-01  -1.1434280e-01   4.9010086e-01   8.4339681e-01  -8.8855417e-01  -5.6098543e-01  -8.2530242e-01   4.9003487e-01  -3.9970364e-01   9.8725901e-01  -9.3187736e-01  -8.0196462e-01   8.2668907e-01   5.5766032e-01   3.7303882e-01   3.2024953e-01   5.3611829e-01  -3.7175738e-01   6.2405182e-01   5.9629284e-01  -1.0424767e-01  -1.8745512e-01  -3.0141305e-01  -5.0764651e-01  -7.1895247e-02  -6.3337900e-01   3.0390974e-01  -6.3585566e-01   5.6682786e-01   3.7666830e-01  -8.4393270e-01  -6.6133116e-01  -1.2108650e-01   9.8940364e-01   6.6794668e-01   2.4680336e-01   3.0650217e-01  -2.5934493e-01  -9.6227912e-01   5.6870140e-01  -5.1081058e-01   7.9594023e-01  -1.5386443e-01   7.8250195e-01   6.2314277e-02   1.7200504e-01   5.6099455e-01  -6.8268054e-01  -9.7714858e-01  -4.5088718e-01  -3.8951848e-01   7.6148876e-01   1.1837920e-01   5.8113665e-01   8.5349794e-01   8.9881036e-01   7.0637480e-01  -5.9520590e-01   2.8641068e-02  -4.1097577e-01  -9.4137226e-01  -7.1348333e-01  -3.3536533e-01  -6.6693303e-01   8.9193342e-01  -2.2359551e-01  -6.3049633e-01  -4.8541780e-01  -5.3850758e-01  -7.9535341e-01   9.1217438e-02  -1.9288904e-02  -1.0689593e-01  -4.8889897e-01   4.4384664e-01  -8.4426708e-01  -1.0490127e-01   2.3925695e-01   4.1865152e-01  -5.2744366e-01  -1.4941097e-02   2.6508895e-02   5.0540484e-01  -3.9207946e-01  -7.9336824e-01  -4.2924736e-01  -4.8017380e-01  -1.1335929e-01   9.0683580e-01   7.4315119e-02   1.5215144e-01   2.9086300e-01  -9.6491083e-01  -2.6853834e-01   2.4037998e-01   6.2455360e-01  -6.4434565e-02
   6.7759225e-01  -4.0931926e-02   1.3707543e-01   5.6692391e-01  -1.4651621e-01  -7.5550664e-01  -3.6763254e-02   7.3805268e-01   1.7951288e-02   2.1449355e-01  -3.0981876e-01   3.2105635e-01   4.2774994e-01   7.9199455e-01   1.4701655e-01  -7.7753254e-01   9.4773746e-01   8.3988236e-01  -2.9492589e-01   9.0731030e-01   1.5133019e-01   7.5494819e-01  -8.7527847e-01   4.7488455e-01  -9.2655702e-01  -4.9547248e-01  -4.4881838e-01   9.0543192e-02   6.9229820e-01   3.3881072e-01   1.7111512e-01   4.6002570e-01   9.8953849e-02  -7.5053164e-01  -2.1794868e-02   4.9633318e-02  -7.3644399e-01   7.7310657e-01  -5.8578712e-01  -4.5213790e-01   2.6531802e-01   9.2621022e-01   5.1668732e-01   8.3801245e-01  -8.5795629e-01  -5.9395780e-01   7.1960645e-01  -1.2268700e-01  -6.2732518e-01   5.2086017e-01  -5.1596084e-01  -3.2337948e-01  -2.1429335e-01   5.2182255e-01   1.3688073e-01   2.3106826e-01  -9.4883175e-01  -4.5091146e-01  -9.1135868e-01   7.0365984e-01   7.3965304e-02  -7.0972834e-02  -4.7341083e-01   9.5295385e-01   3.9235470e-01  -9.9039079e-01   8.2557744e-01   4.4081347e-01   4.6993132e-01  -9.0080969e-01  -6.2778106e-01   6.3111925e-01   5.5262236e-01  -1.6197584e-01  -4.8532770e-01  -3.2357529e-01  -6.1818636e-01   7.7564990e-01   1.7074942e-01  -4.1310145e-01  -3.7986515e-01  -4.6061247e-01   4.4856807e-01   9.6160725e-01   1.4447426e-01   5.1933908e-01  -7.7459149e-01  -2.7823484e-01  -8.2259371e-01  -5.4435446e-01  -5.2542339e-01  -4.9509958e-01  -6.6384735e-01  -2.0319520e-02   2.5432454e-01  -5.3215620e-01  -4.1763141e-01   2.7686157e-01   1.2563382e-01  -2.8433351e-02  -3.8223035e-01  -1.6942348e-01  -1.1244019e-01   7.4010977e-01   8.1975555e-01  -6.4857585e-01   2.8920760e-01  -2.4971946e-01   5.5013342e-01  -6.7701243e-01   8.5310590e-01   6.8436969e-01  -4.2207627e-01   2.5022322e-01   4.1532785e-01   8.1870826e-01   9.0537994e-01  -5.7846296e-01  -6.7517822e-02  -8.5836614e-01   7.7325761e-01   2.5240209e-01   1.3740087e-01  -7.4379094e-01   2.8485558e-01  -8.5142542e-02  -4.1611741e-01  -9.1248452e-01   1.5351165e-01  -6.9873166e-01   2.5531826e-01   8.5247040e-01  -7.5785430e-01   8.7028739e-01  -5.8946553e-02   3.7449600e-01   5.2650208e-01   1.1669474e-01   3.0358368e-01  -9.5412246e-01   9.0284055e-01   9.1351139e-01  -4.7625827e-01   7.8423476e-01   5.9336315e-01   9.6440971e-01   8.5012800e-01  -1.1059459e-01  -7.4595670e-01  -1.8028096e-01   9.5740589e-01  -7.7398645e-01  -2.0261848e-02   1.7869009e-01   3.0871969e-01   3.4307513e-02   9.6298705e-01   9.5225004e-01   8.7713033e-01   4.8858751e-01   2.4788639e-01  -2.0977624e-01  -8.2301996e-01  -1.2954423e-01   4.9019020e-01  -1.7073921e-01  -3.3519262e-01   5.4807139e-01   7.6691522e-01  -2.6422574e-01   9.6955694e-01  -4.1625151e-01  -2.7257198e-01  -5.1209066e-01   2.9588268e-01  -9.1660616e-01  -8.4711050e-01   6.2382260e-01   4.7209019e-02  -2.6285826e-01  -2.9967830e-01   6.5166480e-01   8.7319279e-02   5.0499912e-01  -9.3494737e-01   2.0763728e-01   3.6745429e-01  -2.5581048e-01  -3.7683324e-01  -8.4772445e-01   4.4779791e-01   4.7204557e-01   4.8028349e-01   3.0330658e-01  -5.2177562e-01  -2.1443473e-01   1.7345188e-01  -4.1819951e-01  -7.3494757e-01  -1.6665232e-01  -4.6118068e-01   9.9591759e-01   3.3723971e-01   7.1855193e-01  -2.7347574e-01  -7.5332324e-02   1.9467557e-01   6.9751654e-02   8.7216060e-01   4.1420634e-01  -7.4802455e-02  -4.5260199e-01  -1.1614705e-01   2.2439341e-01  -3.7027132e-01  -9.6370765e-01  -7.4158194e-01   9.7572054e-01   2.2758640e-01   1.1148993e-02  -4.7337594e-01  -6.4193275e-01   1.7134677e-02  -2.9908634e-01  -9.1632749e-01   8.6628250e-02   9.8435560e-01  -1.3816038e-01  -5.2083819e-01   3.9709299e-01  -9.7452462e-01   4.8296378e-01  -8.8697719e-01   3.0166820e-01   5.6346546e-01  -3.3143420e-01   3.0557985e-01   3.8085126e-01  -8.1822996e-01   6.7366419e-01  -6.3157888e-01  -5.6711221e-01   9.7244345e-01  -2.9522310e-01   2.1758651e-01  -7.9130791e-02   2.2811507e-02   6.9018782e-01   4.2572817e-01  -6.7021081e-02   5.8909967e-01  -4.1745876e-01  -2.8782686e-01   5.0605402e-01   7.1561117e-01  -9.3385986e-01   3.8454988e-01  -6.1410688e-01   1.8399239e-01   1.3161144e-01  -8.7095352e-01   6.3256899e-01   6.2809660e-01   3.2213686e-02   4.0037021e-01   9.0483698e-01   6.9206256e-01  -9.2248900e-01   1.3568047e-01  -4.0181276e-01  -5.1169011e-01   6.4950494e-02  -9.3097447e-02  -7.8489779e-02   6.7335802e-01   1.5658057e-01   5.8955501e-01  -8.3255512e-01   9.8183242e-01   8.5553920e-02  -2.0567460e-01  -2.9462340e-01   4.2381351e-01  -4.8781964e-01  -2.0991030e-01   5.7242951e-01  -4.5867948e-01   5.0679494e-01   8.9618537e-01  -3.1959795e-01   4.6033142e-01   9.6843424e-01  -3.7013549e-01   5.6792853e-01  -6.3239441e-01  -7.6229283e-02  -9.4467543e-01  -2.5133672e-01  -1.7176666e-01   7.2076691e-01  -6.4801856e-01  -5.4432595e-01   4.4006620e-01  -2.6518731e-01   5.7644249e-01  -5.1824479e-01  -4.5945657e-01   7.2250199e-01   7.6492192e-02   8.5408764e-01   4.6258186e-01  -7.6759136e-02  -2.5444939e-01   5.5108818e-01  -1.4813511e-01   6.2413710e-01  -1.7022153e-01   9.5903283e-01   6.0649828e-01   1.4695581e-01  -9.7250030e-01  -1.7772693e-01   2.2109752e-01   2.3124963e-01  -3.7435765e-01  -7.1781743e-01  -8.7795149e-01  -5.5313528e-01  -9.8867183e-01   9.6285237e-01  -8.3877637e-01  -5.1513649e-01  -2.8188145e-02   8.2787876e-01  -8.8232170e-01   6.2271849e-01   8.1394239e-01  -4.8731468e-01  -4.9050211e-01   2.3929136e-01   2.2140957e-01  -3.8114909e-01  -2.1637036e-01  -5.6415051e-01  -2.4367409e-01   8.9922821e-01  -1.9840939e-01   6.3789046e-01   5.4493252e-02   4.8426505e-02  -2.9202570e-01  -5.4039562e-01   7.7181579e-01  -1.0671490e-02   1.0458873e-01  -8.3472934e-01   2.6567655e-01  -6.4587617e-01   9.7778772e-01  -1.8009325e-01   6.3147785e-01   4.8049704e-01  -3.1735410e-01   3.7084358e-02  -8.7622784e-01  -6.1369354e-01  -1.0408148e-02   9.7574061e-01  -1.2603489e-01   8.6393135e-01   8.9042240e-01  -3.8235950e-01   8.8534288e-01  -7.8767233e-02  -2.8283377e-02   3.1721463e-01   1.7142648e-01   3.8705293e-01   7.5043450e-01   6.0098273e-01   5.8415884e-01   7.4708017e-01   2.4895538e-01   7.5144576e-01   9.7034959e-01  -5.7805615e-01   4.7407276e-01   7.5374315e-01   1.9609918e-01   3.7635779e-01   1.1964268e-01  -2.3202601e-01   9.6519646e-02   9.2490898e-02  -3.9377374e-01   3.6396668e-01  -8.4848656e-01   2.5494978e-01   6.1258066e-01   1.4351754e-01  -6.9922515e-01  -6.4582404e-01  -8.7549091e-03  -7.7906597e-01  -5.2837310e-01  -2.6893752e-01  -3.9230796e-01  -2.2075772e-01  -4.6705891e-01   5.1366204e-01  -8.7160499e-01  -4.4114643e-01   2.8503758e-01  -2.9908252e-01  -8.1792493e-01  -8.9132289e-01  -2.1197567e-01   9.6504254e-01  -3.2889426e-01   8.3409411e-01   4.8027692e-01   4.2034269e-01  -6.5731930e-01   7.0745794e-01  -3.0863439e-01   8.5563041e-01   6.5822466e-01   7.0399371e-01   2.0295021e-01   9.8012448e-01   6.4484621e-02   6.6566889e-01  -1.0853272e-01   6.9058008e-01  -4.0955104e-01   4.1249605e-01  -4.4388439e-01  -7.5138139e-01  -4.4643826e-03   6.7648319e-01   6.4028806e-01  -9.7755234e-01  -9.0975052e-01  -5.3534910e-01  -5.8823045e-01  -9.8760483e-01  -3.5596765e-01  -7.6511157e-01  -6.5330713e-01   4.5938159e-01   3.3656345e-02   9.7630746e-01  -6.9635619e-01  -4.8433428e-01   2.3066336e-01  -5.6750288e-01  -7.1290007e-01  -4.1100472e-01  -8.5896107e-01  -9.0078215e-01   4.9868008e-01   6.0349328e-01   6.6748771e-01   2.8984717e-01  -3.2767672e-01   8.1609560e-01   5.4478354e-01  -3.0376091e-01  -6.3676016e-02   4.8250638e-01   6.3732910e-01  -9.4517323e-01   9.2864300e-01   2.0474907e-02  -6.8981315e-01   9.9773076e-01   4.5661638e-01  -2.7006241e-01  -4.0451731e-01   7.8851106e-01  -7.0722536e-01  -6.5471197e-02   8.8493439e-01   2.7097346e-03  -9.9284908e-01   9.5744095e-01   5.4994989e-01   5.7672909e-01   5.6713359e-01   9.7845718e-01   3.6259028e-01   2.2152639e-01  -9.5885035e-01  -8.5952645e-01   9.4261719e-01  -7.4744269e-01   4.3998859e-02  -8.3399897e-02  -8.4150555e-01  -8.4207771e-01  -3.2745116e-01  -5.3358279e-02  -8.2062182e-01   6.1126285e-01   1.8815618e-01  -7.2380432e-01  -9.0768194e-01  -6.6455249e-01   6.6329038e-01   9.5230293e-01  -2.6272441e-01   8.6263674e-01  -9.8214057e-01   2.3753746e-01  -9.9219250e-01   3.4237429e-01   6.2792780e-01   3.1068045e-01  -6.4841514e-01   6.1744566e-01  -8.9477359e-01  -3.5889078e-01  -2.6401865e-01  -8.5209606e-01  -7.3477780e-01   1.5772643e-01  -7.3764228e-01   9.0685094e-01   9.8756795e-01   6.6833583e-01  -3.0250293e-01   3.6810586e-01  -9.4180286e-01  -7.4183478e-01   1.6307138e-02  -1.4114897e-01  -4.6416686e-01   6.4859377e-01  -5.0573029e-01  -5.2246523e-01   1.7056909e-01   7.1790071e-01  -6.0478463e-01   6.4277907e-01  -8.1546880e-01  -2.0330989e-01  -2.8062937e-01  -1.2938982e-01   5.5858438e-02   7.5948348e-01   4.4257140e-01  -9.3887424e-01  -1.9512714e-01  -1.0781168e-01   8.1796599e-01  -2.3958385e-02   6.8346190e-01   2.0687659e-01  -5.3940415e-02  -9.2970196e-01   8.8310386e-01   2.5777313e-01  -7.8829560e-01  -9.0413395e-02  -3.2288817e-01  -7.9066843e-02   4.7556781e-01  -1.4480191e-01   9.4833727e-02  -5.9662763e-01   9.7863035e-01  -2.1899108e-01  -4.6991844e-01  -3.4897920e-01  -9.9584668e-01  -3.5698212e-01  -7.6714410e-01  -4.9298303e-01  -1.4374969e-01   5.0036980e-01   7.3304205e-02  -2.4804919e-01   7.4087534e-02  -4.5566394e-01   5.7193291e-01   4.0600255e-01   9.0654250e-02  -8.7451706e-02  -1.6148628e-01   5.0182176e-01   1.7171718e-01   9.1421185e-01   3.3874390e-01   6.5447617e-01   4.4730542e-01   9.0998265e-01   5.3525580e-01   8.5679622e-01   6.3931671e-01   6.7318556e-01  -8.7209682e-01   6.9804600e-01   6.3281583e-01   3.6049145e-01   5.6183560e-01  -5.8659994e-01  -3.1917787e-01   4.4164869e-01   3.5847762e-01   8.2846282e-02   7.5767048e-01  -6.0462472e-01  -8.0023325e-01  -3.5205693e-01   6.2361087e-02   8.5252061e-01  -6.4172277e-01  -9.8063576e-01  -5.8511650e-02  -2.5997348e-01   6.1589712e-01  -7.3926215e-01   1.5803517e-01  -3.7135185e-01   1.8273065e-01   9.4783458e-01  -5.9997508e-01   4.8162403e-02   3.5025178e-01   5.4557044e-01  -1.0993401e-01   5.0146544e-01  -3.2566996e-01   6.2032964e-01   7.9425320e-02  -9.6795742e-01   7.0204763e-01  -4.0311798e-01   9.4007342e-01  -4.8265818e-01   1.0568782e-01  -5.0063880e-01   3.4661064e-01  -6.1873824e-01   1.5096561e-01   7.7750962e-01   2.0010490e-01  -5.7175391e-01  -7.3115081e-01  -4.5324154e-01   1.1104630e-01   5.7290119e-01  -3.7951468e-01  -2.6802579e-01   6.8150470e-01   5.7838223e-01   4.6581926e-01  -8.1239501e-01  -2.6078997e-01  -9.4993649e-01  -8.1030242e-01  -3.9441490e-01  -7.1834141e-01   3.8443305e-01  -8.7196485e-02   9.2931015e-01   4.5893328e-02   7.5713799e-01   4.6521948e-01  -3.7823191e-01   5.7118840e-01  -2.4127041e-01  -2.7114005e-01  -7.9433043e-01   4.6984075e-01   3.0690399e-01  -5.2631715e-01  -2.8984560e-01   8.8046811e-01   2.5319501e-01   9.6033374e-01  -5.4365939e-01   7.5013038e-01   5.5440692e-01   8.4328362e-01   9.6233356e-01  -7.6106109e-01  -5.9645636e-01  -2.2928637e-01   8.6843249e-01  -5.4343052e-01  -2.7300446e-01  -7.5882310e-01  -6.6267077e-01  -8.6318181e-01   7.5606913e-01   2.9567964e-01  -6.1886406e-01  -1.3950950e-01  -6.1153621e-01  -3.9709773e-01  -9.4050421e-01   4.3852005e-01   9.7046040e-01   5.2234110e-02  -1.9360053e-01  -9.1203040e-01  -4.9794129e-01   7.3437629e-01  -7.0669016e-01  -6.6441763e-01   2.2818823e-01   9.6681778e-01   8.0886490e-01  -1.0238215e-01  -5.0219676e-01   4.8922782e-01   5.2903356e-01  -7.4475752e-01   5.4304245e-01  -8.3461867e-01  -1.8163544e-01  -6.4167737e-01  -3.4800998e-01   5.8338798e-01   1.2638564e-01   3.1978130e-01   4.3409753e-01  -5.1545124e-01   8.2971040e-02   5.8836555e-01   6.4211934e-01   4.4933371e-01  -7.8529569e-01   6.4423246e-01   4.5676268e-01  -6.9629268e-01   7.4649630e-01  -1.4123844e-01  -9.1933972e-01  -4.3630171e-01  -3.8195261e-01   1.9104361e-01   3.2346273e-01  -8.7046576e-01  -2.9429849e-01   4.3723049e-01   3.8621188e-01  -9.4130841e-01   2.9890156e-01   5.5675131e-01  -1.6361521e-01   8.9907197e-01  -8.0697719e-01   2.7404338e-01  -4.3479977e-02   2.4627617e-01   6.6943572e-01  -3.8524671e-01  -5.8946838e-01   3.4766161e-01  -3.2331153e-01   8.7800077e-01  -1.3901121e-01  -7.8533128e-01   7.2979257e-01   6.6763724e-01   2.5521595e-01  -5.2426148e-01   2.2873880e-01  -1.5222280e-01  -6.2217043e-01  -8.7117041e-01  -4.7790316e-01   7.1573850e-02   4.6805483e-01   3.7753465e-01   4.3086941e-01   8.7694152e-01  -3.2405926e-01  -3.4825341e-01   2.9404240e-01  -2.0457354e-01   6.7484293e-01   2.4961714e-01   9.4763857e-01   6.7327043e-01   9.2446854e-01  -1.8647375e-01  -6.0393715e-01  -3.1490492e-01   6.3182501e-02   6.8204496e-02  -7.8356945e-01   8.0648920e-02   4.2483137e-01  -2.0686905e-01  -5.3169718e-01  -4.9468251e-01   3.1107845e-02   6.6991430e-01  -3.6881244e-01  -4.5019544e-01   6.0477681e-01  -4.5871457e-01  -2.2900046e-01  -9.2980796e-01  -4.4949277e-01   9.8911186e-01   3.4010788e-01   5.3215117e-01   4.3617512e-01  -5.7499003e-01   7.3001352e-01   3.4129993e-01   1.8066670e-01   6.4623225e-01   7.1889710e-01   3.0201517e-01  -3.4111718e-01   4.0250473e-01  -2.3439956e-01  -8.6364779e-01  -9.9857612e-01   1.7860704e-02   5.9330594e-01  -4.3020430e-01  -3.7283260e-01   7.5453648e-01  -7.2914621e-01   1.3829647e-01  -7.7396573e-01   6.6873340e-01   1.2574465e-02  -3.6684185e-01   3.7979951e-01   1.3011597e-01  -4.3588172e-01  -4.3066109e-01   1.8867778e-01  -1.6546781e-01  -6.1721534e-01   4.6019563e-01  -9.9467720e-01   8.6258079e-01   5.6928005e-01   3.1217943e-01   2.3632261e-01   2.3601402e-01   1.9791675e-01   5.0828878e-01  -7.9681496e-01   1.8293620e-01  -7.8059962e-02   4.4070510e-01   5.8643576e-01   1.3455605e-01  -4.8614334e-02   7.9642098e-01   9.0630153e-02   5.3338504e-01   9.0479743e-01  -2.2493025e-02  -4.2797793e-01  -3.8500410e-01   5.2647006e-01  -8.9143927e-01  -8.8869585e-01   6.8222081e-01   1.9487869e-01  -6.7510665e-01  -5.8523665e-01   7.7566422e-01  -1.7030632e-01   2.4662391e-02  -5.8970763e-01  -1.5258756e-01  -7.2662277e-01  -1.8104316e-01  -8.9119431e-01   2.0053959e-01  -5.1428679e-01  -5.7613530e-01   4.6435275e-02   8.9769604e-01  -4.8958918e-01  -8.8444794e-01  -7.4646218e-01  -6.0627594e-02  -7.8735870e-01   8.4228140e-01   7.7713538e-01  -2.0277336e-02   1.4938697e-01  -5.5922918e-01   1.7297815e-01   7.3813869e-01   9.0684537e-01   7.5178614e-01   6.7870590e-01  -3.9969429e-01  -7.6638646e-01  -1.3726223e-01  -8.3324724e-01   7.3935507e-01   1.8451318e-02   8.7010966e-01   1.7616825e-01  -5.8604882e-01  -5.7316949e-01   8.7171338e-01  -1.4246678e-01   6.4444330e-02   6.8345742e-01   3.1515949e-01   3.4769311e-01  -4.0238536e-01   9.7638015e-01   9.7117761e-01   9.7143766e-01  -7.8489014e-01   6.0685660e-01   9.8494017e-01   3.1532034e-01   2.5467795e-01   5.8581674e-01   8.0785772e-01  -8.4778803e-01   5.8467010e-01   9.5498131e-01  -3.8546487e-01  -4.0433861e-01   4.8953361e-01  -8.4022009e-01  -6.2334099e-01  -6.5726594e-01  -3.2338960e-01   3.1356794e-01  -1.0471678e-01   5.5775724e-01  -2.3552725e-01  -3.8879432e-01   8.1354804e-01   6.0134194e-01   8.1942577e-01  -9.9987199e-01  -4.8921967e-01  -3.0123182e-01  -7.2397501e-01   3.9474721e-01   3.6619487e-03   6.8015286e-01  -6.5484955e-01  -3.2621697e-01  -1.4960530e-01   1.5391445e-01   8.5011057e-01  -1.3994584e-02   8.1179092e-01  -3.4625219e-01   2.5089749e-01  -7.7288238e-01   5.8478667e-01  -4.7648362e-01  -7.7196414e-01  -3.6774169e-01   1.6257860e-01  -2.4059340e-01  -8.7119415e-01   6.0194612e-01  -5.9612883e-01   5.2833349e-01   7.3532450e-01   4.0447345e-01  -4.4954150e-01   2.3550226e-01   7.5647727e-02   9.0852772e-01  -7.9126229e-01   2.3998472e-01   7.3306552e-01  -4.5340251e-01  -4.3452523e-03  -5.9854874e-01  -2.3410303e-01   2.9896565e-01  -5.4113981e-01   6.5129884e-01  -4.4163553e-01  -8.4757910e-01   6.6515481e-02  -8.1730144e-01   3.9692584e-01  -2.1256170e-01  -6.0019999e-01  -1.6613529e-01   1.8930728e-01  -4.6208989e-01  -3.5771861e-01  -5.4859549e-01
