   3.3357017e-01  -9.0753689e-02  -5.5772206e-01   6.2022377e-01   6.9646607e-01  -9.0425153e-01   6.8518652e-01   7.1025412e-01   9.9574986e-02  -5.2684867e-01  -8.0223431e-01   7.0010835e-01   6.0947477e-01   6.1226147e-01  -2.9170855e-02  -6.1802085e-01   4.4171390e-01  -6.0045276e-01   3.2318965e-01   7.8947958e-01   8.7027739e-01   8.6913331e-01   6.4285318e-01   2.0625846e-01  -1.0210732e-01   7.7647428e-01  -8.7036712e-01   8.6179083e-01   4.8894085e-01  -3.8816837e-01   5.4445494e-02   3.3301080e-02   7.8515283e-02   2.3760451e-01  -9.4347010e-01  -8.7922909e-01   2.6637596e-01   7.7523929e-01   9.7863541e-01   3.0195589e-01  -8.8143965e-01   6.1566181e-01   4.9732263e-01   8.8716553e-01  -4.7873969e-01   7.2858305e-01   4.6379226e-01   9.5835166e-02  -2.0643433e-01   7.8929097e-01  -3.1252728e-01   1.4487076e-01   5.7667853e-01   7.0695771e-01   9.4903103e-01   2.2347210e-01  -1.7355367e-01   4.6650971e-01   5.3621811e-01   2.4237891e-01   2.6077037e-01   4.6529394e-01  -3.8329336e-01   3.3416122e-01   5.3453198e-01  -4.7445594e-01  -9.4818901e-01   1.6973548e-01   5.2926707e-01  -8.7477541e-01   5.7664972e-01   1.3420794e-01   3.7128332e-01   8.0703378e-01  -9.9072225e-01  -7.8646948e-02  -8.2184237e-01   3.9048283e-01   3.1384437e-01  -6.1922954e-01  -8.3138689e-01  -1.6336477e-01   3.1205468e-01  -3.4440327e-01   7.2826674e-01  -8.9403151e-01  -2.8320119e-01   1.7823535e-01   2.6332866e-02  -8.3982711e-02   6.9275524e-01  -8.4051884e-01   2.4553480e-01   6.6325126e-01   1.5546095e-01   8.5364437e-01   4.8038288e-01   4.3555804e-01   3.3289324e-01   9.7630636e-01  -2.8666769e-01  -5.2376135e-01  -5.9073635e-01  -7.7416796e-01   4.2641376e-01   8.3154738e-01  -6.8788250e-01   2.4476070e-01  -8.9518541e-01   4.7073589e-02   3.2136009e-01  -2.8816227e-01   8.5130281e-01  -9.4997138e-01   9.2325963e-01   1.7959042e-01   4.2040643e-01   4.0497677e-01   3.7648855e-01   7.6834138e-01  -5.6161735e-01   9.0081241e-02  -4.2321275e-01   3.9182868e-01   3.6861982e-01  -5.9086183e-01   2.9910810e-01  -3.5871632e-01   5.7885897e-01  -5.2157839e-02   2.1041620e-01  -7.5773883e-01   5.4893205e-01   4.2398108e-01  -3.9861138e-01  -8.3421420e-01   1.3662816e-01  -8.3125190e-01   6.5848896e-01  -2.0318267e-02  -4.6441318e-02   7.2725902e-01   8.9392577e-02  -9.1825823e-01  -8.7479426e-01  -8.1358241e-01  -8.4458286e-01   9.9248430e-02   5.1890292e-01  -4.7971442e-02   2.3654091e-01   8.9626897e-01   2.4845354e-01   4.0337720e-01  -1.8393120e-01   6.0636097e-01   1.7379401e-01   8.2511705e-01  -8.8223426e-01  -8.9403099e-01  -8.0470776e-01   3.1858105e-01  -5.2640577e-01  -6.2324405e-02   9.6341854e-01   7.1668990e-01   6.7022717e-01   5.7435382e-01  -8.3982634e-01   5.6090341e-02  -9.1954519e-02  -3.7894176e-01   8.4552819e-01   4.6893740e-01   8.7551607e-01  -2.1760530e-01  -5.6916300e-01  -4.8911613e-02   8.4295369e-01   4.3379894e-01   7.1755878e-01  -4.9971133e-01  -6.1676595e-01   2.9616684e-01   2.2365431e-01  -6.2080300e-01  -2.9746648e-01   6.0437111e-01  -7.7525738e-02  -9.4092377e-01  -2.2614052e-02   5.8234392e-01  -6.7315708e-01   6.9652175e-01  -7.3185281e-01  -4.5276401e-02  -7.8672664e-01  -6.2139427e-01   1.1803406e-01  -6.1143383e-02  -6.7540903e-01   7.3460969e-01   2.1817519e-02   8.4380326e-02  -6.4248931e-01   4.5344272e-01  -6.2584730e-01   5.8355955e-01  -5.8123593e-01   7.1805970e-01  -4.3968082e-01   5.6970995e-01   9.1742390e-01  -8.9892014e-01   2.3797957e-01   4.5193640e-01  -9.4047089e-01  -8.1983875e-01   1.7781078e-01  -9.8613403e-01   2.6429351e-01   2.0352660e-01  -8.6524424e-02   8.6131355e-02   6.3450079e-01   5.5040300e-01   6.3440359e-01   1.2155828e-01  -1.2283632e-01   3.1538728e-01  -9.3292721e-01   9.1039795e-01  -1.9929681e-01  -5.4247937e-01  -6.8291722e-01   3.7932320e-01  -1.9737111e-01  -7.3624006e-01   4.4915117e-01  -3.6579802e-01  -8.8993423e-02  -4.6860758e-01  -2.6284244e-03  -3.6272623e-01   8.1662652e-01  -7.7238534e-02  -1.8424983e-01  -6.8943589e-01   8.1933164e-01  -7.0277894e-02  -3.3729741e-01  -1.5424379e-01  -8.7757729e-01  -6.2325722e-01  -6.3078510e-01  -2.0544218e-01  -5.3595410e-01   8.2169428e-01  -2.7623804e-01   1.2615597e-01  -3.4481648e-01   2.3883591e-01  -3.5435048e-01   5.5528410e-01  -3.7304426e-01  -3.8369821e-01   1.3161169e-01   4.7015418e-01  -4.4100052e-01   5.6636398e-01   6.6810273e-02   9.6254156e-01   1.2292759e-01   3.1238210e-01   3.0159772e-01  -9.2117276e-01   6.3749544e-01   2.3458986e-01   4.5140495e-01   9.5084315e-01  -3.8837029e-01  -6.0777790e-01  -3.4091317e-01   6.4082358e-01  -6.6849636e-01   3.2621564e-01   8.5999133e-01  -6.0150332e-01   4.3078540e-01   9.1178232e-02  -2.7247439e-01  -6.5050580e-01  -6.8479693e-01   5.5320116e-01  -3.6225961e-01   8.7527844e-01  -1.1021942e-01   3.8336321e-01  -7.6449827e-01  -2.7805199e-01  -5.8678430e-01  -2.1093369e-01  -6.6660334e-01   3.2877955e-01   1.7367001e-01  -4.3753885e-01  -2.9154321e-01   2.9642616e-01   4.1269021e-01  -1.6032352e-01   9.3352550e-01   6.4447970e-01  -8.6275714e-01   8.8208494e-01  -1.9475955e-01   6.9344295e-02   8.9706528e-01   5.0524337e-02  -2.5673306e-01   3.4819721e-01  -1.8702588e-01   5.5965489e-01   1.6544615e-01  -2.4386294e-01   1.9985613e-01  -9.5184613e-01  -9.8434513e-01  -5.3222662e-01  -5.2115782e-01  -8.1106006e-01  -1.2346655e-01  -2.1683315e-01   7.0842009e-01  -8.4864585e-01   6.2559032e-01   9.7356524e-01  -1.9385324e-01  -9.5586354e-01  -2.9864383e-01  -4.1336867e-01   8.5171076e-02  -7.6842529e-01  -6.0908396e-01   8.2966202e-01   6.4776236e-02  -5.1097044e-01  -7.0592801e-01   5.4601597e-01   5.6845352e-01  -1.8593348e-01  -9.1363644e-02  -4.5363068e-01  -9.3484728e-01   3.0663275e-01  -4.2450377e-01  -5.6903432e-01   5.9945661e-01   9.9747433e-01   7.6223667e-01  -8.8098955e-01  -8.1049740e-01  -2.4031085e-01   7.7420329e-01   5.3225325e-01   9.3934622e-01   3.1208816e-01  -6.8568481e-01   8.8511236e-01   4.8006587e-01  -6.3751162e-01   1.6890790e-01  -1.3764562e-01  -5.2681562e-01  -4.9589037e-01   6.7835354e-01   8.9587802e-01  -4.1986884e-01  -2.0113818e-01   8.9843676e-01   7.7310442e-01   2.5894584e-02   9.9843461e-01  -4.9275146e-01   9.1470190e-01   4.2928843e-01  -3.2363310e-01   9.2615167e-01   6.4316052e-02  -8.7213504e-01  -4.0015309e-01  -8.8073843e-01  -5.7976032e-01   1.7574248e-01   3.9277449e-01   9.8998753e-01  -8.1910814e-01  -5.6795500e-01  -9.8991230e-01   2.0037329e-01  -3.8220190e-01   7.8282809e-01   8.4398532e-01   3.4762936e-01   4.9604006e-01   6.6957066e-01  -2.9513882e-01  -3.1001661e-01  -1.8310314e-01  -9.9846641e-01   8.2594541e-01  -9.1031229e-01  -1.7146198e-01   5.5491951e-01   5.7710624e-01  -4.8590845e-01  -8.9393750e-01  -9.6038321e-01  -1.5397026e-01  -6.4616444e-01  -7.2466066e-01  -2.3671096e-02   4.3027274e-01   3.1105141e-01  -8.8399762e-01  -6.3384436e-01   5.1047167e-02  -8.4351748e-01   6.5973174e-01   2.8003449e-01   5.2585890e-01   4.4365032e-01  -2.4182555e-01   3.4001724e-01   2.8702732e-01   6.2864485e-01  -9.2008544e-01  -9.9047531e-01   5.0251765e-01  -6.8623961e-01   1.3100932e-01   7.9808419e-01  -8.7447016e-01  -5.4965028e-01   2.9744761e-01  -3.3671384e-01   2.1869520e-01   7.1716831e-01   7.7751897e-02  -6.7798191e-02  -2.6432278e-01  -3.3310622e-03  -7.4101519e-01  -7.7658489e-01   1.5469753e-01  -6.0248503e-02  -1.9079789e-01   8.4870102e-01   2.2673162e-01   3.8973253e-01  -5.1088040e-01  -5.6927940e-01   6.7728059e-01  -8.5051761e-01   5.3982494e-01  -8.7620811e-01  -7.9594035e-01  -5.5748189e-02  -2.6534131e-01  -4.5879443e-02   1.3063106e-01  -9.2126848e-01  -3.1871097e-01   4.5969272e-01  -2.0022115e-02  -5.7284943e-01  -7.6214565e-01   3.9072465e-01   8.2620079e-01  -6.7926333e-01  -4.1168861e-02  -5.2796737e-01  -5.7575132e-01   7.0653006e-01  -6.9252283e-01  -9.9387011e-01  -6.3230500e-03  -2.4510411e-02  -7.7435884e-03  -6.4056679e-01   7.6238875e-01   8.1159302e-01   7.2408671e-01  -7.0131548e-01   4.7929673e-01  -2.3098458e-01  -3.6323261e-01   8.6510038e-01   5.6355971e-01   4.7721539e-01  -1.2600250e-01  -3.3626669e-02  -8.2659622e-01   2.6325018e-01  -9.6276424e-01   2.1842405e-01   6.5997045e-02   4.8073483e-01   2.4589074e-01  -8.5426387e-01  -2.6807878e-01   7.1743140e-01   6.2950328e-02   2.5222879e-01  -5.3567093e-01   1.5999306e-01  -6.1518523e-01  -3.8678893e-01  -5.0264040e-01   5.6999298e-01  -2.3202820e-02  -8.0222891e-01  -2.9576467e-01   9.0605741e-01   9.6734090e-02  -6.4109877e-01   6.0075087e-01  -8.2277236e-01   7.3221980e-01   3.2422431e-01   6.5693368e-01  -3.5363154e-01   1.2300323e-01   8.3577277e-02   9.1448915e-01  -7.7906727e-02   4.3362515e-01   8.1701508e-01   2.9023488e-01  -2.5021185e-01  -6.6283302e-01  -6.6043506e-01  -6.9746195e-01  -8.4330558e-01   2.2203004e-01  -7.8093809e-01   8.5808846e-01  -8.7054408e-01  -4.4131176e-01  -4.1239927e-01  -1.4983394e-01   1.8408594e-01   7.4226763e-01  -4.6220048e-01  -7.9718301e-01   4.2935396e-01   5.7780993e-01  -2.4831320e-01   3.6496360e-01   5.6562200e-01   6.6422477e-01  -4.7835716e-02  -4.8529515e-01   5.7368661e-01  -8.4642406e-02  -8.3370849e-01  -8.0319903e-01   1.3110238e-01  -3.7928653e-01  -5.8504530e-01   8.6468884e-01   1.8591459e-01  -2.2093595e-01  -1.8826173e-01   6.7268452e-01   8.6354270e-01   1.5844849e-01  -1.6735370e-01  -8.7106605e-02  -9.1223846e-01   2.8690585e-01  -2.3006690e-01   2.5108388e-02  -6.1765152e-01   5.6923213e-01   5.9401742e-02   1.9802896e-01  -6.9140863e-01   6.8861620e-01  -2.4719360e-01  -3.0079627e-01   7.4034079e-02  -7.2212756e-01  -8.2720920e-01   3.0784083e-01   4.2299878e-01   6.7625111e-01  -5.1011203e-01   5.3721808e-01   5.8849306e-01  -8.6829035e-01   5.0680719e-01   8.4624087e-01   1.8644230e-01   6.7458258e-01   1.5854609e-01   7.2146625e-01   4.5024869e-01  -3.2368095e-01  -4.0474374e-01  -5.9245367e-01  -5.9689455e-01   3.1808105e-01  -2.3858682e-02  -3.3488337e-01   2.5975570e-01  -1.9102497e-01   9.5243029e-01   3.8653068e-01   1.4634264e-01  -7.6454750e-01   9.2512237e-01   3.7619301e-01   9.0467145e-01   8.2732915e-01   6.0390973e-01  -6.6935624e-01  -8.4934032e-01  -8.6833534e-01   6.0372046e-01   7.8035227e-01  -1.7883356e-02   9.7094077e-01  -8.0646726e-01  -9.7038356e-01  -7.4379663e-01  -4.7476045e-01  -2.4020338e-01  -2.3276870e-01  -9.8877112e-01   6.1743491e-01  -9.8366652e-01   8.7855391e-01  -4.7482631e-02   3.1335632e-01   3.3473709e-01   6.3652713e-02  -2.1232213e-01   3.9413283e-01  -7.8911082e-01   6.5917166e-01   9.1488003e-01  -8.8335249e-01   5.0993825e-01  -1.3902101e-01   6.2346654e-01  -7.0713988e-01   4.1724343e-01   6.7750911e-01  -6.0237806e-01  -4.8789575e-01   6.0896586e-01   6.1868621e-01  -3.4499734e-01  -8.2834056e-01  -3.6657381e-01   7.3410024e-01  -3.8824692e-01   7.3292515e-01   2.7520478e-01  -9.8208914e-01   7.9100303e-01  -8.7966180e-01   3.7885577e-02   1.9272236e-01  -3.6776895e-01   3.8165938e-01   6.1050113e-01   3.3407112e-01  -7.4727367e-02  -7.9332201e-02  -6.0260514e-02  -4.6216802e-01   7.1193211e-01   1.7932192e-02   7.9327042e-01  -2.4399869e-01   3.4879488e-02  -9.9199115e-01  -3.9210356e-01   9.2345108e-02  -8.1256912e-01   4.5797327e-01  -4.7925646e-01  -1.9327972e-01  -1.8118425e-01   8.0873714e-01   6.0403122e-01  -5.6876810e-02  -4.1627178e-01   5.2967146e-01   5.4434469e-01  -4.2754226e-01  -9.5637221e-01   2.5139172e-01   5.3360109e-01  -5.4787469e-01  -5.9534991e-01   5.9689584e-01   3.1709098e-01   4.4261401e-01  -7.4623445e-01  -5.6819504e-01  -7.2206787e-01  -3.1690056e-02  -9.9517991e-01  -5.7148218e-02   1.2408236e-01   1.9107228e-01  -7.4772750e-01  -6.2271587e-01   1.7630043e-01  -4.9653316e-01  -3.7987359e-02   1.0239730e-01   9.7617110e-01   5.2994617e-01  -5.1304213e-01  -9.1297415e-01   4.4005034e-02  -7.5004989e-01  -9.2289021e-01   3.8713047e-01   1.8927673e-01  -8.5995184e-01  -7.4373208e-01  -2.4751369e-01   4.0390409e-01  -8.7433849e-01  -4.8192347e-01  -4.7073858e-01   8.6024518e-01  -5.2080935e-02  -3.0889626e-02   3.4493721e-01   5.7925930e-01  -4.8900782e-01  -6.4688360e-01   6.5704431e-01  -7.9308130e-01  -9.3943514e-01  -8.9735042e-01  -9.4902203e-01  -4.0068137e-01   7.8172148e-01  -7.5215043e-01   3.8841224e-01  -4.7346924e-01   5.0481687e-01  -6.9588741e-01  -5.3548421e-01  -9.5472876e-01  -6.9720602e-01  -6.3846113e-01   2.7216958e-01   2.2238974e-01   9.0661418e-01   4.9583631e-02  -9.6948604e-01   8.7982526e-01  -4.0422011e-02  -8.0046073e-01   2.9941511e-02   3.5594523e-01   7.1531286e-01  -5.0754147e-01  -8.1187998e-01  -6.9655996e-01   8.0078477e-01   6.2425672e-01   8.2346472e-01  -6.5904296e-02  -9.0316589e-01   8.2319333e-01  -4.5242813e-01  -4.6014366e-01  -6.2094814e-01   6.8630968e-01  -7.0956913e-01  -7.4207077e-01  -9.5128692e-01  -5.4693967e-01   7.4504224e-01   3.2696122e-01   1.0858326e-01  -2.3490183e-01   1.3385113e-01   6.3702614e-01  -5.7341408e-01   3.9117723e-02   8.5962969e-01  -4.4408518e-01  -3.7911958e-01  -6.1534794e-01  -1.6312153e-01   4.4284861e-01  -8.2434289e-01  -2.4888517e-01   8.8908898e-01  -7.0666141e-01   8.5094304e-02  -7.4988663e-01  -5.2254550e-01   1.7113972e-01  -4.4991144e-01   5.4170996e-01  -8.7525122e-01   7.2512144e-01   3.6555700e-01   5.6904224e-01   1.7762148e-01  -3.8942968e-01   1.3012545e-01  -3.2330947e-01   5.3884307e-01   3.9462861e-01  -5.2772837e-01  -7.6908131e-01   9.5200987e-01   7.3855905e-01  -4.4813128e-01   2.3681587e-01   2.6646182e-01   4.1512602e-01   1.1344400e-01   6.7855738e-01  -9.7893982e-01   8.2778535e-01  -5.6368339e-01  -1.8642410e-01   7.7753878e-01  -9.7217747e-01  -1.9844130e-01  -7.9051424e-01  -9.4977511e-01  -6.4635758e-01   7.4575033e-01  -6.1473828e-01   7.9014379e-01   1.5148701e-01  -6.3011261e-01  -3.7325872e-01   1.7983504e-01   9.5138585e-03  -1.5673321e-02   2.9132781e-01   9.0468505e-01   4.8082155e-01   3.8645242e-01  -3.1925722e-01  -4.0920177e-01  -8.3911796e-01  -7.0426187e-01   7.5927981e-01   4.8455093e-01  -9.9163808e-01  -3.1288660e-01  -7.9338767e-02   1.7024368e-01  -3.9954941e-01  -5.3836916e-01  -5.5519594e-01  -5.2043527e-01  -1.8696873e-01   7.8901097e-01  -6.3775144e-01   5.3940567e-01  -3.0589877e-01  -4.8528451e-01   6.7092830e-01  -8.8433306e-01  -3.9947483e-02   1.8535746e-01  -7.7998109e-01  -3.3847687e-01  -1.0361594e-01   5.5767967e-01   3.9767202e-01   3.9189994e-01  -6.8469914e-01   6.3763350e-01   8.8375711e-03   8.8240015e-01   4.8825867e-01  -4.2570685e-01  -1.1506117e-02   7.5739973e-01  -2.9876202e-01   2.6777177e-02  -4.1853447e-01  -1.4804715e-01  -4.7383069e-01  -7.2486602e-01   1.9900218e-01   2.4720048e-01   4.4974897e-01  -2.2908029e-01   4.9622751e-01   5.5289109e-01  -3.0124129e-01  -5.3948347e-01   9.0601294e-01  -7.2073537e-01   6.3006974e-01  -7.9552073e-01  -3.6962235e-01  -6.6030123e-01   4.8026017e-01   6.4630388e-02   5.0746226e-01  -4.4937293e-01  -1.3644111e-01  -7.4518464e-01   9.0930944e-01   4.9937110e-01  -9.5198100e-02   5.8446055e-01  -1.1853955e-01   5.9454022e-01   8.3805976e-01   4.6399305e-01  -6.2052332e-01   2.2660360e-01  -5.2902687e-01  -9.7966984e-01   2.2674662e-01   6.4065485e-01  -3.2972920e-01  -5.2461397e-01  -9.6664449e-02   4.5489161e-01  -6.2829942e-01   7.8298338e-01  -5.2663569e-01   8.7197483e-01  -3.5419294e-01  -9.4331476e-01  -4.8733157e-01   7.9659947e-01  -8.3422304e-01   3.4119992e-01  -5.7817739e-01   1.6001306e-01  -1.3255468e-01   3.1205313e-01   9.6317797e-02  -2.5512046e-01  -2.3896046e-01  -6.9416995e-01  -9.3327545e-01   7.7032501e-01   5.4050902e-01  -3.9888926e-01   6.7674767e-01  -2.2689296e-01   7.6736797e-01  -6.9822057e-01  -7.9921469e-01  -3.7907297e-01  -2.3269363e-01   9.7068014e-01  -8.0926680e-01   2.7102524e-01   6.6502472e-01  -8.2640415e-01  -3.4878675e-01  -8.5872628e-02   9.4633656e-01   5.3672904e-01  -7.6755973e-01  -6.4069150e-01   7.8082796e-01   5.9418668e-01   6.9346088e-01  -6.3174959e-02   7.4485998e-01  -4.2728775e-01   8.9367784e-01   8.9532670e-01   4.3258477e-01   3.3094824e-01   3.6429934e-04   9.7204582e-01  -2.7693837e-01  -5.8412022e-01  -3.6368252e-01  -6.9313955e-01   6.1680415e-01   6.2689582e-02  -7.5103009e-01   7.1918170e-01
