  -5.1026635e-01  -4.8262971e-01  -4.0093369e-01  -2.8616463e-01  -2.7595850e-01  -5.0541681e-01   8.4693961e-01  -5.3399636e-02  -9.1047902e-01   9.9322593e-01  -1.7598565e-01  -1.8649202e-01  -3.4576021e-02   1.8143335e-01   4.7668499e-01  -5.6554342e-01  -5.1312499e-01  -6.6035423e-01   1.8570137e-01  -3.1518589e-02  -8.8362919e-01  -2.9848459e-01   3.4478267e-01   2.1944867e-01  -7.9222245e-01  -5.3232380e-01   3.9207814e-01  -9.0679082e-01   4.7358064e-01  -2.8760364e-01   2.3371033e-01  -5.8064982e-01  -5.4054327e-01  -1.4221540e-01   8.1429804e-01  -3.4457056e-01  -2.7675186e-01   7.3328931e-01  -1.1607355e-01   7.9268691e-01   2.0155559e-02  -8.3568548e-01   6.1379285e-01   6.6062020e-02  -7.0301531e-01   1.8664463e-01   9.5927645e-01  -6.8045225e-01  -9.9008478e-01  -1.6882576e-02   3.0145226e-01   4.8266652e-01  -4.3391117e-01  -8.4532326e-01  -4.3633384e-01  -1.2842620e-01   4.1387122e-01   2.7706401e-01  -1.1577231e-01  -3.8857678e-01   4.4992214e-02   3.3927202e-01   2.4845633e-01  -3.2934452e-01   9.2624331e-01  -4.4981062e-02  -1.8908280e-01   1.2188819e-01  -3.5267725e-01  -2.9361236e-01  -1.2638983e-01  -7.8159520e-01  -7.0139558e-01   9.5844227e-01   3.3402497e-01   7.8912530e-02  -6.4762151e-01  -6.6176962e-01   2.3113502e-01  -7.3242728e-01   2.6370875e-01   4.9957489e-01   7.9031284e-01   8.8921139e-01   5.8769181e-01   7.9811710e-01   5.1291573e-01  -5.7181418e-01  -3.8684209e-01   1.3474851e-01  -2.7452930e-01  -6.9663366e-02   2.9316700e-01   9.8198560e-01   4.9609515e-01  -2.0162977e-01   4.6178636e-01  -9.7854942e-01   4.9776944e-01   8.5915011e-01   7.4128452e-01   1.4751495e-01   7.6363558e-02  -2.2930944e-01   9.4070104e-01   4.9513302e-01  -6.4813623e-01  -1.8428389e-01   7.8725385e-01  -2.4457472e-01   9.3700064e-01   4.5606490e-01   7.2815935e-01   3.1133147e-01  -3.6445175e-02   5.5513966e-01  -7.6849538e-02   7.9317736e-01   4.5849212e-01   2.3710738e-02   9.9236304e-01   1.4835570e-01   9.4864261e-01  -4.3746585e-01  -4.7317884e-03  -1.9300953e-01  -2.7530175e-01   4.4733634e-01   8.4056713e-01   8.9994898e-01   7.9998260e-01   9.1587542e-01  -3.7895297e-01   3.5291309e-02   6.5672752e-01  -5.3487718e-01   2.8358690e-02  -8.5848914e-01   2.7972733e-01   9.5883023e-01  -6.9474074e-01  -3.4116122e-01   1.8474310e-01   5.5027709e-01  -3.0183874e-01   3.7474802e-01   6.2446819e-01   8.6808267e-01  -1.7876789e-01   1.9925960e-01  -8.8482615e-01  -2.8173935e-01   2.6335876e-01   2.2617809e-01   8.7396386e-01  -7.6843672e-01   9.6327881e-01  -5.0737187e-01   3.9462841e-01  -6.4690489e-01  -2.2898101e-01  -7.6022451e-01   4.6866498e-01  -1.3800681e-01  -5.4651789e-01  -7.5873244e-01   8.4284863e-01   8.6822899e-02   9.8267271e-01   6.3674312e-01   1.0594175e-01  -1.2058115e-01  -6.7780753e-01  -7.2757902e-01  -4.9796027e-01  -2.1454750e-01  -7.9895562e-01   2.8557148e-01  -1.9485981e-01  -5.5197668e-02   6.2145714e-01   9.2128819e-01   1.4867682e-01   3.1515934e-01  -2.5922912e-01  -7.6575270e-01  -7.0673279e-02  -2.0619037e-01  -8.9750488e-01   8.6577586e-01   3.3852321e-01   7.7364571e-01   3.9217382e-01   5.0843048e-01   5.7010694e-01  -6.0364010e-01   5.7086676e-01   8.8265688e-01   4.3006703e-01   5.7233136e-01  -1.6898838e-01   1.3857892e-01  -6.7166774e-01  -2.4771487e-01   3.4460129e-02   8.0854159e-01   6.5522898e-02  -6.5340511e-01   7.9358199e-01   9.9144743e-01  -8.7220630e-01   5.9101019e-01  -1.2162907e-01  -5.0069023e-01  -9.5806461e-01  -2.2684850e-01  -3.3150283e-01   7.7584453e-01   6.3388698e-02  -3.0325378e-01  -5.0578562e-01   8.8546869e-01   2.9942098e-01   9.4259503e-01   8.9883822e-01   3.1628361e-01   1.5769680e-01  -5.2227149e-01   5.5732943e-02  -1.4776453e-01   1.4946956e-01  -1.2584416e-01  -9.1768194e-01  -5.8018412e-01  -3.3334805e-01   1.1631166e-01  -4.4647598e-01  -1.8635547e-01   3.0279686e-01   8.4851046e-01   1.3268884e-01  -8.6308820e-01   3.5111552e-01   4.2995268e-01  -8.9907546e-01  -5.1084716e-01   9.8736361e-01   8.7454712e-01  -1.9164932e-01  -9.7072549e-01  -4.5214045e-01   2.2360237e-01  -8.8576816e-01  -9.8472283e-01   8.3429324e-01  -3.1894349e-01   2.5384885e-01  -4.7379845e-01   1.2499681e-01   3.3703748e-01   4.0188368e-02   2.3566346e-01   7.8951902e-01   2.5498210e-01   1.5836757e-01   8.7978508e-01  -8.6167324e-01   6.0001687e-01   3.4103341e-01  -5.0704031e-01   9.2115778e-01  -7.8310630e-01  -4.7650795e-03  -3.8072656e-02   9.0863828e-01   6.7791107e-02  -7.2963435e-01  -7.9781626e-01  -6.2042724e-01   2.7646686e-01  -8.2865465e-01  -4.4258708e-01  -1.9179532e-01  -4.8414649e-01   8.2672638e-01   3.6083459e-01  -5.2411782e-01   5.0200830e-01  -2.2065831e-01  -1.1179342e-01  -3.8104079e-01  -3.5729193e-01  -1.6492255e-01   4.1817783e-02   8.4998887e-01  -1.0779799e-01  -8.0089729e-01  -3.8418652e-01   9.7772165e-01  -2.4500943e-01   1.9491641e-01  -9.7843528e-01  -7.0817507e-01   4.8036964e-01  -8.3211418e-01   6.2065130e-01  -5.8845942e-01  -9.2808452e-01  -5.2027178e-01   2.6470096e-02  -9.8990654e-01   3.5552704e-01   7.6619949e-01   4.3193874e-01   8.7390251e-01   6.2198573e-01  -6.1846981e-01   7.7453181e-01   4.1218557e-01   1.4693117e-01   7.2332197e-01   6.5743857e-02   8.5008454e-01  -3.6040042e-01   4.4329380e-01  -2.2554510e-02  -5.5730088e-01   5.6568428e-01  -8.1856284e-01  -6.8996359e-01  -7.2277533e-01   1.8757331e-01  -8.1610957e-01   3.7312517e-01  -4.6725752e-02   5.8909833e-01  -2.6875159e-02   1.0422169e-01   7.7247556e-01   7.5925310e-01   3.7813001e-01   5.8627520e-01   2.6538748e-01   2.5175866e-01   9.0894181e-01   6.1426236e-01  -2.3668057e-01   4.7770447e-01  -1.7023150e-02  -9.0955333e-01  -4.7930633e-01  -4.8214495e-01  -4.3981534e-01   7.6185909e-01   9.1568908e-01  -4.3148418e-01   4.1901238e-02   3.1058210e-01   6.4768803e-01   8.4868789e-01   6.1449518e-01  -4.7186574e-01   8.5467407e-01  -2.9013159e-01   8.2298910e-01   9.7436177e-01  -5.4032539e-01   8.7269508e-01  -7.8467563e-02  -3.6958647e-01   2.3624182e-01   5.9175972e-01   8.7246133e-01  -5.5564355e-01   5.0599070e-01  -1.9685389e-02   1.5721035e-01  -8.4196346e-01   9.4687471e-01   3.3934412e-01   5.7347077e-01  -9.7025817e-01  -5.9802449e-02  -8.6786065e-01   6.9906453e-01  -2.3864609e-01  -4.3291121e-01   1.4002375e-01   7.9155833e-01  -6.5781759e-01  -8.5248206e-01   4.0792918e-01  -7.5844052e-01   9.9098791e-01  -1.7947412e-01  -3.7448697e-01   2.6243222e-01  -5.8824712e-01   2.4125793e-01   3.7748173e-01   5.8829756e-01   1.8715251e-01  -3.0836560e-01   1.2689884e-05  -7.4677117e-01   1.8935137e-01  -2.5190938e-01   6.3435502e-01  -2.0516643e-01  -5.2463986e-01   6.7018960e-01  -3.3308636e-01   2.6376055e-01  -4.1970220e-01   4.5131922e-01   5.6130035e-01  -8.1902232e-01   1.5684808e-02  -9.9142491e-01  -6.7113892e-02  -8.2655262e-01  -1.8663941e-01   4.8771546e-01   1.3375231e-01  -4.2652036e-01  -6.0496033e-01   1.8671482e-01   7.0054756e-01   8.2159113e-01   7.2226082e-02   1.1751347e-01   2.0375404e-01   6.1185511e-02   4.9883259e-01   5.2793095e-01  -6.2003846e-01  -8.2547599e-01  -9.2933083e-01  -3.8676521e-01   5.4142190e-01   2.4880854e-01  -1.9427131e-01  -5.7597235e-01  -5.5250088e-02   6.0117033e-01   3.1086979e-01  -9.3832752e-01   9.8805686e-01   4.4074846e-01   9.3249546e-01   7.7631927e-01  -7.8008249e-01   7.0689113e-01  -5.8768886e-02   9.0394590e-01  -8.6789814e-02  -5.4740724e-01  -1.6556252e-01   2.7965269e-01  -3.7949894e-02  -6.9908778e-01   2.2124573e-01  -4.3676635e-01  -8.3961257e-01   1.2525643e-01  -9.3035468e-01   3.6462237e-01   4.8264634e-01   3.6953485e-01  -7.4133845e-01   6.3536333e-01   7.4513959e-01  -4.5815394e-01   1.8520671e-01   2.8939162e-01  -2.7169615e-01  -4.6512761e-01  -5.2076488e-01   6.8234292e-01   9.5851720e-01  -8.1129394e-01   7.0700865e-01  -4.3359086e-01  -2.8434766e-01  -1.5120872e-01   9.1222267e-01   7.2317556e-01   9.1330461e-01  -8.1345772e-01   6.7043769e-02  -6.5643474e-01   1.5823345e-01   4.9606773e-01  -9.2738695e-01  -6.8600456e-01   1.1914468e-01   4.0280715e-01  -9.5582523e-01   1.8417633e-01   8.6617886e-02  -1.7419234e-01  -8.6697484e-01  -6.9586605e-01  -4.6713473e-01   4.0328310e-01  -9.0011464e-01   8.3675729e-01  -4.8710086e-01  -3.7666617e-01   4.5125649e-01  -7.5761782e-01  -6.0722537e-02  -4.4676990e-01  -9.7594790e-01  -9.4786726e-01  -5.0340224e-01   7.9052479e-01   7.9664190e-02  -5.3661860e-01  -8.5604510e-01  -4.4431894e-01  -5.9839659e-01   3.1838064e-01   6.3437847e-01  -5.8909918e-01  -8.2315245e-02  -7.7681898e-01  -9.0876320e-01  -3.7858189e-02   4.7596961e-01  -8.1769389e-01   6.4670451e-01  -8.6591030e-01  -2.2123239e-01   3.0714156e-01   2.8661527e-01  -4.8653817e-01   1.2579526e-01   1.8633920e-01   7.3315989e-01   9.8970822e-01  -1.0236848e-01   5.1441217e-01  -3.0486181e-02  -8.6913924e-01   1.8367080e-01  -4.8446926e-01  -3.4155737e-01   9.0987280e-01  -1.8538243e-01  -4.9862941e-01   1.6578273e-01  -3.5264491e-01  -9.8937317e-01  -9.6906937e-01  -1.6032092e-01  -2.4484970e-01  -4.2672872e-02   1.0742547e-01  -6.4594127e-01  -5.6289108e-01  -6.1558284e-01   6.9619828e-01  -7.8405749e-01  -5.3001342e-01  -6.7624854e-01  -2.6639572e-01   8.6231320e-01   6.4102455e-01  -2.2637242e-01   8.4681213e-01   1.8931557e-01  -3.0216201e-01   7.0751498e-01   5.9353628e-01   5.9603726e-01  -5.5091610e-01  -9.6113942e-01  -3.5891050e-01  -2.4150733e-01  -8.4648364e-01   2.3421853e-01  -7.8641924e-01   8.1395250e-02  -3.1573583e-01   4.7103706e-01   1.3819372e-01  -4.4603455e-01  -1.0141879e-01  -1.1398910e-02   2.6606721e-01  -1.8117010e-01  -4.1614459e-01   3.0532818e-01  -1.8990840e-01  -4.9650724e-01  -9.9684393e-01   4.5686842e-01   5.3698978e-01  -4.7404503e-01  -9.1400865e-01  -4.3016554e-01  -9.3698802e-02   9.3367474e-01  -2.2081984e-01   7.0047778e-01  -2.9851476e-01  -6.5125428e-01  -3.5453412e-01  -2.3265278e-01  -9.6972672e-01  -2.5868491e-02   3.2078153e-01   2.6883355e-02  -1.8124536e-01  -5.4928711e-02  -5.4096723e-01  -8.2117383e-01   2.8986951e-01  -5.6905092e-01  -3.2830553e-01   5.6582437e-01   9.4531565e-01   3.3655866e-01   4.2621334e-01   4.6053566e-01  -1.3244521e-01   5.0981100e-01   9.8766338e-01   3.7189361e-01  -3.3403621e-01   5.1325454e-01   5.5646331e-02  -6.9702202e-01  -1.7844093e-02   3.1126210e-01  -8.6017200e-01   6.2404949e-01   6.3619690e-01  -9.1035028e-02  -3.4221488e-01  -9.7451984e-01  -1.1192718e-01   3.7465429e-01  -2.6777944e-01  -2.7400150e-01  -3.9816885e-01   5.0350367e-01   3.0069270e-01  -7.1173259e-01  -6.5159262e-01  -8.9669891e-01   9.4857348e-01   9.3426150e-02  -9.5114864e-01   4.2973096e-01   1.3873421e-02  -4.9319432e-01  -4.6380982e-01  -7.6626307e-01  -8.8659460e-01   5.6398161e-01   6.6660899e-01  -9.7361024e-01   4.3230531e-01   9.0799986e-01   8.0540381e-01   4.5951644e-01   1.1732054e-01  -1.2121781e-01  -6.4797446e-01  -1.8529409e-01  -9.3102557e-01   9.5765859e-01   7.1387953e-01  -9.6193705e-01  -3.6094005e-01   1.9843034e-01   6.4206313e-01   1.4684265e-01   6.9754586e-03   8.5458012e-01   2.3858036e-01  -6.5281490e-01   4.6551249e-02  -8.4329091e-02  -8.2499314e-01  -3.0645004e-01   8.1005172e-01  -3.2683782e-01   8.9888270e-01   9.1568346e-01   9.6089583e-01  -3.1919559e-01   9.6369087e-03   8.0102715e-01  -9.2035719e-01  -3.4932367e-01   7.0386389e-01   6.4390054e-01  -5.8394869e-01   5.7818613e-01   8.2580645e-01   2.3465193e-01  -1.4144003e-01  -2.0960477e-01   2.3047886e-01   9.3654794e-01  -5.4847774e-01  -7.7581327e-01   7.6306462e-01  -3.5223023e-01  -1.8360668e-01   4.2796818e-01  -8.1013347e-01   1.0655727e-01   9.2117562e-01  -4.6712512e-01  -5.8827882e-01   5.1781507e-01   8.4114907e-01   2.4303936e-01   1.7558252e-02  -9.9348395e-01   8.1071838e-01   5.5426635e-01   2.2147242e-01   4.0116110e-01  -2.3281332e-01   3.8352747e-01  -4.5056301e-01   8.2543614e-01   5.2718184e-01  -3.0160235e-01  -1.6606313e-01   1.6221399e-01   1.6821010e-01  -4.2075527e-01  -5.8916034e-01  -6.5495332e-01  -8.3717657e-01  -4.8766669e-01  -3.6721171e-01  -4.3208332e-01   6.0698447e-01   8.7380094e-01   4.2963177e-01  -1.7845966e-01   7.9196287e-01   2.5685129e-01   8.7751379e-01  -9.5190027e-01  -3.1517325e-01  -4.8823837e-01   7.7804976e-01  -6.1983063e-01   1.6499548e-01   6.2989264e-01  -8.3786522e-01   2.6673359e-01  -4.5001461e-01  -6.6136414e-01   4.4134647e-01  -6.7018041e-01   8.8476372e-01  -2.5379071e-01  -7.0408576e-01  -7.2235978e-01   4.7087612e-01   2.7267368e-01  -9.7404097e-01  -9.2590414e-01   7.6466297e-01  -8.3071060e-01  -1.7126608e-01  -3.2051258e-01   3.1481852e-01   1.3039331e-01   8.1004378e-01  -7.2083784e-01   5.3467380e-01  -9.6463762e-01   3.5620143e-04   7.5479656e-01  -4.4673126e-01   8.2535322e-01   7.6376469e-01   2.9083689e-01   7.5842349e-01  -1.6237152e-01  -5.9608064e-01   6.1135384e-01   6.0348471e-01   4.8707872e-01  -8.4349455e-01  -9.6517591e-01   4.3162794e-01   1.0397411e-01   9.0439761e-01  -3.2744352e-01  -7.1732576e-01   6.3806545e-01   4.4431033e-02   8.6294913e-01   5.0225298e-01  -3.7708757e-01  -4.4620249e-01  -1.2815333e-01   8.6865691e-01   4.6257343e-01  -5.8390731e-01   6.5549469e-01  -2.9470572e-01  -2.8033636e-01  -5.5141058e-01   4.7581314e-01  -1.7314064e-01  -4.2050884e-01  -8.6898243e-01   4.4464954e-01   7.3650227e-02   6.5141771e-01   7.6366166e-01   5.6237398e-01  -2.3873878e-02   4.5873044e-01  -4.9959148e-01   8.2535983e-02   5.6043488e-01   8.0472214e-01   6.9974551e-01  -5.4341530e-01   9.0523227e-01  -5.2209311e-01   3.9113887e-01   8.9114821e-01  -9.8044420e-01   4.7885210e-01  -6.2743855e-01  -2.9265263e-01   3.5300246e-01  -4.4597360e-01  -8.8249495e-01  -5.3509852e-01  -6.2837053e-01  -7.8289541e-01   4.7923344e-01  -7.7062354e-01   2.3901806e-02  -8.3377679e-01   1.5700952e-01  -4.7891506e-01  -7.4314055e-01  -2.4435167e-01   9.2279653e-01  -4.4329635e-01  -3.5002888e-01  -3.0904682e-01   7.1271881e-01  -1.8798466e-01  -9.1996610e-01  -3.7585342e-02  -1.1928754e-01   1.2160092e-01  -7.6822993e-01   6.5897400e-01   6.8728663e-02   5.2637369e-01   6.1791952e-01   9.9387383e-01  -6.1849660e-01  -3.4154487e-01  -3.8758342e-01   6.4027099e-01  -1.7544615e-01   3.1064976e-01  -5.9717129e-01  -3.2615962e-01  -9.8402744e-01   8.0750410e-02   1.1223866e-01  -1.7331457e-01  -7.8966871e-01  -8.0788662e-01   1.0911519e-01   2.9184408e-03   3.1350457e-02   7.0330974e-01  -3.0743318e-01   8.7755363e-01  -5.6206273e-01   7.6952447e-01   1.4693633e-02  -5.8837854e-01   7.2953312e-01   8.1780497e-01   8.4611472e-01   4.0393619e-01  -7.9173762e-02  -1.5884970e-01  -5.6351509e-01   9.9563716e-01  -4.2199868e-01   3.2026447e-01   6.7544766e-01   6.5809606e-01   8.6950205e-01  -6.8976456e-01  -1.4009514e-01  -9.0794662e-01  -7.7647423e-01   1.1725070e-01  -8.5985253e-01   9.4247921e-01   3.2727392e-01   7.7106695e-01  -1.1071462e-01  -9.5818673e-01   2.2998418e-01   7.2253533e-02  -4.7052055e-01  -2.1689307e-01   7.6982580e-01   8.6018745e-01   7.3937403e-01   2.9302575e-01   2.2871970e-01   2.7646296e-01  -3.2001852e-01  -6.7092223e-01  -7.8352761e-01   5.9157863e-01   8.8089757e-01   8.6576191e-01  -5.5742131e-01  -9.2319302e-01  -8.6276486e-01   1.7849692e-01  -4.5054976e-01  -5.7824944e-01  -5.3473824e-01  -5.3549917e-02   3.2612688e-01   9.2919996e-01  -1.5209225e-01   2.1484591e-01   5.0373719e-01  -1.9961576e-01  -3.5161011e-01  -6.5039235e-01  -6.8012883e-01  -3.7715233e-01  -4.1251375e-01  -1.7389897e-01   3.4095123e-01  -3.5882628e-01   9.2379670e-01  -7.2608935e-01  -9.8640277e-01   2.1484885e-01   3.8051928e-01   3.2478388e-01  -5.5640063e-01   4.8120003e-01  -1.0806694e-01   4.6994610e-01  -1.6044693e-01  -2.4270640e-01   1.9679731e-01  -7.6128744e-01  -6.8031505e-01  -7.0346687e-01  -8.6910725e-01   9.5325906e-02   8.0850833e-01  -8.3666467e-02   1.3429189e-01   1.4367027e-01  -2.4409282e-02   9.8433214e-01  -4.1923823e-01  -5.1419993e-01  -2.9938719e-01  -5.6246130e-01  -2.9834496e-01  -4.9032535e-01   2.5183584e-01  -8.5597711e-01  -1.9047085e-01   7.9289688e-01  -6.2687053e-01   6.1407226e-01  -1.0199134e-01  -8.3746466e-01   4.6652284e-01   8.3282623e-01  -6.9453547e-01  -7.6305686e-01   8.5916040e-01   5.0783262e-01
  -5.9668109e-01   3.6565525e-01  -4.6942744e-01  -3.6244677e-01   6.0431914e-01  -8.4709739e-01  -8.6608636e-01   3.7131965e-01  -2.8018865e-01   1.1378361e-01   2.2375927e-01   4.1032744e-01   7.2768879e-01   6.2463211e-01  -5.9023657e-01   2.0855501e-01  -3.5181995e-01   1.7455957e-01   7.7419690e-01  -6.9656667e-01   7.9345757e-01  -5.9517705e-01  -8.9873692e-01   3.7359178e-01   7.1385762e-01   6.8422941e-01   3.7807449e-01   5.6921311e-01  -7.9355151e-01  -8.6508216e-02  -6.0679848e-01  -5.1248078e-01  -3.1526053e-01  -4.2142211e-01   8.0925449e-01   5.9800199e-01   6.0437694e-01  -7.4392327e-01   5.7008817e-01  -5.7119844e-01   2.3885285e-01  -7.2833094e-01   2.5193211e-02  -8.0930163e-01  -5.2415740e-01   9.1055588e-01  -4.9409876e-01  -5.5780812e-01   1.4707169e-01   4.9921394e-01   4.1386578e-01   6.7302853e-01  -7.7463553e-01   5.8956743e-02   1.1703451e-01  -5.8049635e-01   1.8928036e-01   4.9590368e-01   6.8312556e-01  -6.4517760e-02   4.4965821e-01  -9.8352589e-02   1.1430811e-01  -5.1128037e-01   5.2701783e-01   5.1647109e-01  -4.9442556e-01   3.6213124e-01   4.0376609e-01  -8.4138214e-01   2.3623171e-01  -9.8718523e-01  -6.0083859e-01   8.1123520e-01   4.9149107e-01  -7.4645678e-01   5.3735261e-01   7.7332804e-01  -8.3121774e-01   8.7593318e-01   7.5050908e-02  -4.9831137e-01   7.6296061e-01   2.5683834e-01  -8.2677474e-01   9.3980510e-01  -8.2761666e-01  -9.9827850e-01  -6.7124947e-01  -3.5409435e-01  -1.9642142e-01   7.6905668e-01  -8.1351324e-01  -4.4198056e-01   1.0022832e-01  -7.2357857e-01   9.4665661e-01  -9.7823513e-01  -1.4366728e-01   1.0247391e-01   3.9899411e-01  -5.9258967e-01   9.0769256e-01  -7.1100364e-01   9.8553713e-01  -5.4461905e-01   7.5566949e-01   2.0953756e-01  -7.5176058e-01   9.0511803e-01  -8.6437537e-01   5.6970161e-01   9.7525134e-02  -5.1822620e-01  -2.9946664e-01   5.6667974e-02  -3.9694655e-01   2.2183760e-01  -3.4636179e-01   8.1047891e-01   6.7148605e-01  -9.6773051e-01   3.5925719e-01   4.7638121e-01   5.0515397e-01  -7.9865076e-01   8.3046676e-01   1.2178645e-02   2.5154258e-01   9.5808293e-01  -4.5687798e-01  -5.2402435e-01  -4.3214461e-01  -8.8719138e-01  -9.0736529e-01  -5.0163797e-01  -4.3830580e-01  -9.0077802e-01  -3.7885669e-02   6.3843585e-02   2.5774638e-01   2.1573653e-01  -8.8817143e-01   9.9786338e-01  -3.1945081e-01   5.5791462e-01   8.5979017e-01   4.2579528e-01   3.2788297e-01  -4.2528308e-01   4.4285165e-01  -2.4853917e-01   7.7434357e-01   8.9794175e-01   4.8222852e-01   2.1597299e-01   8.2948161e-01   8.1054009e-01   4.1961617e-01   6.7042904e-02   6.8779536e-01  -3.5768434e-01  -2.4468963e-01  -7.1127015e-01  -8.9156177e-01  -4.5962219e-02  -5.3715828e-01  -1.8776187e-01  -8.1970434e-01   9.7365021e-01   5.3677113e-01   6.8805505e-01  -2.1881503e-01   8.6587145e-01   2.3139672e-02  -2.2649599e-01   7.7939792e-01   8.0130708e-01  -4.2110726e-01  -3.8504083e-02  -6.0186015e-01   1.6673059e-01   7.2944723e-01   7.9000437e-03   3.0249285e-01  -4.5160555e-01   8.4341832e-01   9.4789901e-01  -4.5738019e-01  -6.8682788e-01  -5.6882583e-01  -5.2542433e-01  -8.9910510e-01  -6.7790484e-01  -7.8210817e-01  -9.3959913e-01   8.3678244e-01   8.0054615e-01  -6.0254301e-01  -3.7797941e-01   6.8354121e-01  -6.0134034e-01   3.8641379e-01   1.4322404e-01  -1.7727665e-01  -1.8914498e-01  -7.1093048e-01  -9.3839070e-02  -2.0155528e-01  -8.4619849e-02   7.9534159e-01   2.9153150e-01   1.3089982e-01  -2.6486694e-01   9.9052158e-01   2.6716456e-01   4.3689185e-02   5.8483189e-01  -9.9177665e-01   9.3407807e-01   6.6305778e-01  -2.6223941e-01   4.7892206e-01   8.7176829e-01  -2.5992130e-01   6.8975241e-01   3.4090605e-01   2.2493207e-01   3.9813565e-01   4.4110650e-01   3.6001118e-01  -1.4623102e-01  -9.6007498e-01   5.1178891e-02   9.7001850e-01   1.2362310e-01   9.3790892e-01  -2.2940546e-01   7.5342198e-01  -8.3659723e-01   1.6219933e-01  -5.8646334e-01  -2.0147502e-01  -5.4401005e-02  -4.0593495e-02   2.0595987e-01   6.2792417e-01   4.0176470e-01   5.0484562e-01  -8.7788104e-01  -9.8086156e-01   5.3667340e-01   1.3674365e-01  -3.4738393e-01   9.2046426e-01   6.7831543e-02  -1.7222029e-01  -2.8862888e-01  -9.0570367e-01   8.0722628e-01   9.8181654e-01  -8.6834792e-01   5.0818587e-01   3.0219749e-01   3.2178470e-01  -2.2924214e-02   5.0228190e-01  -3.3386028e-01  -3.2596446e-01   9.4822750e-01   4.9075246e-01   6.9902615e-01  -7.2295856e-01  -4.6202902e-01  -1.5875987e-01  -8.9314513e-01   6.5572169e-01   8.4555823e-01   8.8311792e-01  -1.1686376e-01   4.6600624e-01   3.5276545e-01  -4.5194508e-01   9.7460595e-01   3.3740302e-01  -2.2851118e-02  -8.0357999e-01   9.4545653e-01  -3.6120111e-01   1.9895913e-01  -4.4313579e-01  -8.7713708e-01   9.0817126e-01  -7.0560071e-02   8.8638724e-01  -6.2890782e-01  -2.9593208e-01   1.1380885e-01  -8.7275192e-01  -6.5102662e-01   9.3495544e-01   3.2156716e-01   9.9737140e-01   5.9642654e-01   4.9872812e-01  -3.4677842e-01   4.7701108e-01  -3.5725065e-01  -1.4653191e-01   7.9685606e-01   2.3632280e-01   6.1926403e-01  -9.8443381e-01  -1.2327895e-01   1.8179681e-01   4.1342071e-01   2.7858555e-02   5.5872901e-01  -5.5252954e-01   9.2475454e-01  -3.8400183e-01   3.5261769e-01  -2.2637626e-01  -6.9296190e-01   3.9831721e-01  -6.7334785e-01  -9.0056294e-01  -6.0537957e-01   2.1640177e-01   4.5021116e-01  -1.4801809e-01  -5.6883807e-01  -7.8043679e-01   1.4443824e-01  -5.9759858e-01  -6.7439573e-01  -7.6202476e-01   2.8220403e-02   6.9366312e-01   3.1164777e-01  -4.2285853e-01  -7.1875857e-01   4.4237222e-01   3.3852664e-01   8.7547087e-01  -2.7947341e-01   6.7822592e-01  -3.6522897e-01  -6.0716969e-01  -2.4687943e-01   1.1814013e-01  -2.8082944e-02  -7.9173179e-01  -9.5514716e-01   7.4170842e-01  -5.8134664e-01  -2.4188746e-01  -7.1249687e-01   4.5400165e-01   9.6346193e-01   2.7264009e-01  -2.1132425e-02  -3.8308518e-02  -2.5054602e-01  -3.4893493e-02  -2.9423681e-01  -8.3621544e-01   3.4187895e-01  -3.5074120e-02   1.3249422e-01  -9.6053929e-01  -5.6890480e-01  -4.2325379e-01  -7.7066328e-01  -1.8739841e-01  -4.4772738e-01  -3.9214364e-01  -1.2589482e-01   8.7011060e-01  -1.8217670e-01  -2.8605962e-01   6.8104198e-01  -1.8531641e-01   6.8631851e-01   1.9499753e-01  -9.9388584e-01   4.8273880e-01  -5.8696617e-01  -9.9006428e-01   2.1414258e-01   4.0231051e-03   5.0448214e-02   9.0276278e-01  -2.7928143e-01   3.3509427e-01  -1.4844884e-01   9.6951467e-01   5.9720794e-01  -1.7494195e-02   3.1207499e-01   5.3009553e-01   5.3793403e-01   6.1120927e-01   9.1708107e-01   7.6520915e-01   4.3048300e-01  -8.4899920e-01   9.5900476e-01  -1.4086996e-01   4.8496384e-01  -7.7313814e-01   2.4964006e-01  -1.8009730e-01   3.6171790e-01  -6.5712745e-01   1.1736657e-02   6.5323680e-01   6.3139041e-02   8.5762143e-01  -1.5190949e-01   6.9134528e-01  -1.8009064e-01   8.5388114e-01   8.8786068e-01   6.7035614e-01   3.0756967e-01  -9.6588927e-01  -4.9599380e-01  -7.0581597e-02   4.2441765e-01   1.1804746e-01  -2.6439535e-01  -9.9588353e-02  -7.9083032e-01   7.3502271e-02   9.3536200e-01   4.7971479e-01   6.2052945e-01  -8.2444623e-01   5.5174692e-01  -2.1661753e-01  -7.3868140e-01   5.4175514e-01  -5.8014904e-01   8.7239719e-01   2.0280639e-01   5.1839276e-02   1.8784144e-01   4.9255821e-01  -6.4351987e-02   7.4803682e-01   7.8857218e-01  -7.8202803e-01   6.1868305e-01  -6.1274352e-01  -4.8435910e-01   5.2020709e-01  -2.1228155e-01  -2.5972028e-01  -3.7124209e-01   8.5541998e-01  -1.3063275e-01   3.8493523e-01   2.2584682e-01   3.3710427e-03  -3.2203871e-01   5.6097094e-01   2.4608083e-01  -1.0706785e-01   4.9319349e-01   5.9518518e-01  -6.9346444e-01  -9.6306457e-01  -9.2469940e-01   7.5025040e-01  -8.8695373e-01   5.9866385e-01   6.5964116e-01   9.0744544e-01  -7.0906004e-01  -7.2179040e-01   5.8082713e-02  -4.9312470e-01  -7.2022804e-01  -9.8777641e-01   3.8291691e-01   4.2316765e-01   6.9557240e-01  -5.9601895e-01  -7.1062613e-01  -6.9824310e-01  -9.5692263e-01  -4.9547421e-01  -5.6582614e-01   3.3259353e-01   8.7816900e-01   7.4283186e-02   3.8374102e-01  -6.8788472e-01  -9.6391616e-01  -3.4564010e-01   7.1441083e-01   5.5241846e-01   5.3801706e-01  -3.5831973e-01   8.1711765e-01  -6.8891690e-01   4.7980768e-01   4.9555049e-01  -8.1123118e-01  -5.6264874e-01   3.4382351e-01   6.9635998e-01   6.5450193e-01   3.0149611e-01  -6.1276346e-01  -4.2301977e-01  -4.7424727e-01   5.7803723e-01   5.2702095e-01  -9.4151991e-01  -9.5123348e-01   8.3936758e-02  -3.7714439e-01  -1.0500841e-01   4.7294935e-01  -2.5408535e-01  -3.4096099e-01   4.3666906e-01   3.3109718e-02  -5.9275410e-02   3.3989725e-01  -6.9119573e-01  -8.4117341e-01  -9.9569947e-01   4.8422091e-01   1.4500456e-01   6.3505087e-01   3.8755448e-01   8.8307960e-01  -6.0309836e-01   6.4659130e-02   5.4572244e-01   8.3045551e-01  -9.2159146e-01  -3.4707891e-02  -5.1820908e-01  -9.8108953e-02  -1.2754724e-01   4.3652238e-01   2.8364131e-01  -1.2903213e-01  -6.0019269e-01   2.6849548e-01   5.3829296e-01   9.3749948e-01   8.0352928e-01  -5.4650505e-01   3.8162429e-01  -8.6721791e-01   1.2004725e-01   8.0288435e-01   2.8018156e-01   7.8234920e-01   1.9616746e-01   3.7184716e-01  -8.6131362e-01  -9.2792790e-01   3.0915650e-01   3.8560516e-01  -5.4867082e-01  -6.3260275e-01  -1.5080050e-01  -8.5902492e-01  -6.9812235e-01  -9.8573801e-01   7.4834689e-01  -5.0607475e-01  -5.8233088e-01   7.5753791e-01   7.5244800e-01  -5.2363027e-01   6.4712141e-01  -2.4585319e-01  -4.9380432e-01   6.3616803e-01   1.2439573e-01  -1.6898886e-02   5.4626302e-01  -5.6948917e-01  -9.4473781e-02  -1.0776192e-01   2.6519209e-01  -9.5363738e-01  -1.8663223e-01  -8.7929949e-01  -5.5879012e-01   1.4902301e-01   9.8623298e-01  -5.3078987e-01  -5.4581697e-01  -5.0064278e-01   3.9194504e-01   1.5388561e-01   7.3619775e-02   4.4620290e-01  -3.6061693e-01   3.2396238e-01   3.4077632e-01  -7.4305560e-02   6.1428369e-01   3.7341727e-01  -8.1059737e-01   2.7103494e-01  -9.9164182e-01  -4.9478642e-02  -6.8823740e-02   6.9188677e-01   4.8260623e-01   2.0798753e-01  -3.5386499e-01  -1.5650666e-02   7.5517926e-01  -6.9562571e-01   6.9485116e-01  -9.0631921e-01  -1.1159679e-01  -4.4370223e-03   7.4073240e-01  -4.0626583e-01   7.8663822e-01  -8.7474610e-01  -9.7866189e-01  -2.5934277e-01   9.8181566e-01   3.6719173e-01  -8.0072367e-01   3.6403011e-01   1.0900931e-01  -3.4910599e-01  -4.7741023e-01  -6.7377777e-01  -4.0631664e-01   1.6424272e-01  -5.6587687e-01   8.0426478e-01  -8.6343261e-01   1.2301963e-01   8.8145194e-01   4.5750250e-01  -8.0988374e-01   2.7005023e-01   6.3470566e-01   1.3233577e-01   2.9006749e-01  -3.3273515e-01   2.6537432e-01   6.8232763e-01   1.4731191e-02  -4.8871291e-01   8.9046825e-01   9.4111414e-02  -9.1188558e-01   7.5704083e-01   5.6414206e-01  -2.1539532e-01   2.2561103e-01   2.8849623e-01   8.8011803e-01   4.9235825e-01  -4.2466151e-01  -7.6289053e-02  -5.9049791e-01  -9.3149227e-01   7.3789940e-01  -7.6553634e-01   6.8598333e-01  -2.2231938e-02   9.1169813e-01   7.5423819e-01   9.1597664e-02  -6.8728200e-01   8.6970195e-02  -1.4356775e-01  -8.0860557e-01  -1.0556350e-01   5.3570142e-01   6.8869845e-01   4.1563483e-01   7.6943761e-01  -9.0000449e-01   1.0841958e-01  -4.7126565e-01   9.1098233e-01   6.3346629e-01  -4.5836284e-01   8.6063017e-01   8.8816187e-04   4.1839289e-01   6.7806621e-01   8.4863983e-01  -5.7655710e-02   8.9974575e-01   7.5507650e-01  -3.8232149e-01   4.0115889e-01  -4.3040788e-01  -3.8194690e-01  -9.9571424e-01   2.9069343e-02   2.7229147e-01   4.4170681e-01   5.6192542e-01   6.6193117e-01   1.3438523e-01   3.2881526e-01  -3.6370813e-01   8.0535001e-01   7.6501121e-02  -8.4799324e-01   1.4462497e-01  -3.5914965e-01   9.9444907e-02  -6.6931317e-02  -4.2252060e-01  -4.8689756e-01   8.5560540e-01   9.0762627e-01   9.7510373e-01  -5.1358621e-02  -5.4983938e-01   6.2200635e-01  -6.8687502e-02  -6.6191985e-01  -1.5652907e-01   4.0256913e-01  -1.3717539e-01   1.9344330e-01  -8.9511773e-01   3.5519763e-03  -1.1167781e-01  -8.6563969e-01  -4.5815530e-01   6.0150884e-01   6.6033571e-01  -8.6647841e-02   3.1237943e-01   5.2918197e-01   9.2415136e-01   7.1394023e-01  -7.7014579e-01  -8.9339857e-01  -6.6527178e-01  -2.1353888e-01  -3.5724502e-01   5.3294691e-02  -2.2404205e-01  -4.8354085e-01  -9.0898936e-01   6.2421650e-01  -1.0257497e-01  -4.0726117e-01  -2.0592164e-02   4.1766380e-01   2.3000550e-01  -3.5599875e-01  -4.3604303e-02  -3.7596466e-02  -9.7795062e-01  -6.1646151e-01   9.2053821e-01  -1.7580745e-01  -8.1942216e-01  -8.7042814e-01  -8.8787531e-01   2.0282079e-01  -5.6508372e-01  -4.1205022e-01  -4.1701248e-01   2.7132591e-01   9.5530354e-01   9.3597529e-02  -2.2355687e-01   3.7512836e-01  -7.6052871e-01   4.4251010e-03   2.6359398e-01  -9.0235289e-02  -4.3064010e-01   2.3841853e-01  -6.3914018e-01  -8.6143472e-01  -4.7293568e-01   5.0098117e-01   6.3962222e-01   6.6420676e-02  -7.9620269e-01  -2.8659967e-02   5.4940397e-02   4.9249345e-01   2.1851205e-02  -3.6326463e-01  -9.4013881e-01   8.9015468e-04  -2.9750240e-01  -5.2808846e-01   4.4769036e-01   8.6346256e-01  -1.2597910e-01  -1.8177281e-01   4.0611262e-01  -8.3849019e-01   3.8416432e-01   1.0311768e-01  -1.3691463e-01   6.7173966e-01  -8.9701365e-01  -9.5457639e-01   3.3049995e-01  -2.9755133e-02   5.3633895e-01   8.6543090e-01   8.5997400e-01   5.2664808e-01   2.3492684e-01  -5.2859333e-02   1.1593517e-01  -2.3487421e-01   8.0746876e-02   2.0740311e-01  -8.3321370e-02  -8.6502649e-01   2.0359495e-01  -5.9489904e-01   1.5314043e-01  -9.9349759e-01   3.9503919e-01  -2.5942611e-01   9.2945022e-01   8.7710448e-01   9.1536399e-01   2.1306658e-01  -6.6466544e-01   3.4696991e-02  -3.4463237e-01   6.7769930e-01  -7.8783462e-01   4.8359641e-01  -7.8762630e-01  -2.6557765e-01  -2.4351009e-01  -3.6977421e-01  -1.2175974e-01  -6.5272971e-01   9.1101968e-01   8.3335423e-01  -9.6347475e-01  -8.2831151e-01   1.0709018e-01   3.8766778e-01  -6.1315482e-01   1.0290505e-01   8.3525850e-01  -3.0091208e-01  -5.3527806e-01   4.6240747e-01   8.1109998e-02   4.1462749e-01   1.4129363e-01  -2.6405196e-02  -1.1817075e-01   1.1364504e-01   1.8244964e-01  -5.9368029e-01   5.5376756e-01  -9.8488873e-02  -9.8086349e-01  -2.8094818e-01   3.2580967e-01  -3.3161588e-01  -3.3690179e-01   9.6260275e-01   1.6719066e-01   3.0307884e-03  -8.0614078e-01  -1.6078609e-01   9.6071021e-01  -6.5304387e-01   3.3138154e-01  -6.6607817e-01  -3.1180304e-01   6.5827347e-01   9.2256330e-01   8.9835829e-01  -8.1546467e-01  -6.2339364e-01   3.3501395e-02  -4.0640917e-01  -2.7112673e-01   6.8817995e-01   9.0119278e-01   1.0002892e-01  -6.0959437e-01  -8.4897658e-01  -7.9076003e-01   8.5899065e-01  -2.6335230e-01  -2.1374118e-01   1.2150154e-01   2.6897936e-01   3.0240390e-01  -6.3437370e-01  -9.6470161e-01   2.4419141e-03  -5.4399801e-01   8.5450528e-02  -9.1253740e-01   2.1917049e-01   7.5137397e-01  -4.5394418e-01   4.7848129e-01  -1.0381451e-01  -2.6707495e-01  -4.5542263e-01   1.8826464e-01   3.6716505e-01   2.3335428e-01   6.5809689e-01  -6.8289140e-01   3.1516209e-01  -4.4322541e-01   1.7655806e-01   8.0981060e-01   3.3916355e-01  -9.6813222e-01  -9.1358637e-01   9.6663536e-01  -4.9135962e-01   6.8017865e-01   5.7689337e-01  -1.1170441e-01  -7.3727158e-01  -4.8751557e-02  -4.8190909e-01  -7.5535911e-01   3.7151407e-01  -8.1347552e-01   3.1801929e-01  -5.1977483e-01   3.2809310e-01   9.0733095e-01   7.0371421e-01  -3.9427841e-01  -9.7510881e-02   1.9035813e-01  -6.7163578e-01  -5.7604567e-02  -1.4617684e-01  -2.6406333e-01  -4.9210926e-01  -6.1155891e-02   3.2600129e-01  -2.8876009e-01   4.4139742e-01   5.0784872e-01   4.2155639e-01   7.2520340e-01   3.8054510e-02  -9.0881398e-01   1.4055922e-01  -8.2122618e-01  -5.5138128e-01  -9.5834992e-01   6.8966735e-01   3.6514095e-01   9.3411198e-02  -9.7550297e-01  -3.1579778e-01  -8.9037632e-01  -2.3887689e-01   6.3001309e-01  -9.0593464e-01  -4.0068864e-01   6.1552760e-01  -6.2812989e-01  -7.0438435e-01  -6.0122860e-01   9.3557521e-01   8.6599206e-01   4.5395098e-01   7.4538834e-01  -6.3354572e-01  -8.8354272e-01  -4.7259582e-02   5.0145410e-01   3.7348378e-01   1.7344433e-01  -8.0591548e-01   9.1708133e-01  -8.8669726e-01
   5.5119934e-01  -8.9652543e-01   5.6951336e-01   4.1293919e-01   3.5321001e-02   4.5144692e-01   3.8058016e-01  -9.1295082e-01   5.4797925e-02   1.1349523e-01  -4.8893617e-01   4.5154085e-02  -6.5171606e-01  -9.7454306e-01   3.7154705e-02  -3.8991663e-02   4.9214991e-01   4.9929498e-01  -5.5170222e-01   2.6507113e-01   9.3731773e-01   8.6004709e-01   7.8331418e-01  -5.6763977e-01   7.2145868e-01   6.9180724e-01   5.4442405e-01  -2.3799649e-02  -4.2381224e-01  -9.5547136e-01  -2.9699015e-02  -6.0460231e-01  -6.8212920e-01   3.0108787e-01   3.0346526e-01  -8.3249529e-01  -4.0644904e-01  -2.3097360e-01  -6.7026178e-01   4.6540983e-01   4.4412113e-01   2.3025446e-01   5.7899029e-01   2.7630236e-01  -5.9644530e-01  -9.8985043e-01   7.3007774e-01   1.5557924e-01  -9.2042586e-02   7.6008006e-01  -2.7326454e-01   6.8014065e-01  -4.8594770e-01   4.6306813e-01  -6.9196278e-01  -4.9182456e-03   4.2182291e-01  -1.9572187e-01   1.1258315e-01   7.4642797e-01  -7.0957566e-01   1.1034344e-01   8.5719329e-01  -7.3581160e-01   4.0538073e-01   8.8371768e-02  -1.7544994e-01  -6.7577270e-01   7.1798273e-01   4.8276467e-01   7.0589586e-01   3.9205519e-01   3.2364942e-01   7.6160772e-01   7.6808150e-01  -4.9537208e-01  -2.0211437e-01   7.4568748e-01   6.7197036e-01   3.4570654e-01   5.5435157e-01   4.8129417e-01  -8.2281382e-01  -2.6038498e-01  -2.0825686e-01   4.6245548e-01   9.1358878e-01   7.0290682e-01  -4.2267950e-01   5.7062654e-01  -3.4234016e-01   9.4972481e-01  -2.1529303e-01   3.5188469e-01   3.2947915e-01  -4.5137875e-01  -7.2724384e-01  -3.1448244e-01  -2.3096826e-01   6.8706503e-01   4.2689651e-02  -8.8693609e-01  -3.1815467e-01   9.1877989e-01   6.7311412e-03  -6.6923561e-01  -6.0502590e-01   9.0148440e-01  -4.1880706e-01   9.8884935e-01   3.6543512e-01  -4.2613701e-01  -2.5185785e-02  -8.3405192e-02  -8.3321116e-01   8.8972480e-01   3.6803661e-01   3.6776976e-01   6.6503571e-01   2.1536610e-01  -5.1149942e-01  -4.1681147e-01   9.6186719e-01   3.5489925e-01   5.7631200e-01   8.5218854e-01  -1.9376150e-01  -1.7301640e-01  -8.8708921e-01   8.1052663e-01  -1.6975003e-01  -8.1400011e-01   7.8167300e-01   9.3350403e-01  -6.4785149e-01  -2.8507834e-01   8.6272032e-01  -5.2633903e-01   4.4613307e-01   4.3296097e-02  -8.3564075e-01  -6.8026697e-01   3.9037210e-01  -2.8105372e-01   4.5425842e-01  -7.2268981e-02   3.0927058e-01   2.5226836e-01  -4.8433011e-01  -6.3196746e-01  -4.2321828e-01  -7.1053685e-01  -7.7027316e-01   8.9029219e-01   8.0548634e-01   2.4495246e-01  -8.5576928e-02  -2.1763753e-01  -4.3821732e-01   6.5232337e-01  -3.6520240e-01   7.8867332e-01   3.0929170e-01  -1.2148902e-01   1.6985719e-01  -3.8189839e-01  -7.3394957e-01  -4.2069603e-01  -3.7177381e-01  -5.3607716e-01  -9.0565635e-01  -4.0724313e-01  -1.8163166e-01   3.5723950e-01  -9.9259689e-01   9.4919147e-01   1.5947148e-01   3.0234342e-01  -3.0794524e-01   2.3383198e-01  -9.8773732e-01  -3.8497867e-01  -5.8214883e-01  -6.5339035e-01   8.4463757e-01  -5.9705797e-02   2.3338037e-01   3.2963572e-01   7.7545183e-01   8.4020104e-01  -5.3650592e-01  -3.9651668e-01  -2.3528749e-01   4.4038505e-01  -6.9108481e-01   4.0129233e-02  -3.4685147e-01   2.4880675e-01  -2.8037120e-01  -5.2160333e-01   6.7666315e-01   6.5582466e-01  -5.6817061e-01  -3.4123674e-02   5.8989157e-01   7.2414316e-01  -1.3997497e-01  -8.7854054e-01   8.3791746e-01  -6.0457123e-01   7.7523734e-02  -3.5070679e-02  -2.6574937e-01  -2.5778837e-02  -2.0525610e-01   2.7556231e-01   9.9895984e-01  -8.1525716e-01  -5.0734192e-01  -9.1469415e-01  -3.8905205e-01   9.9235904e-01  -7.8166067e-01   4.6816347e-01   8.1534735e-02   2.8335154e-01   3.7853000e-01  -2.5305176e-01  -2.0681502e-01   2.2914296e-01  -8.8476215e-01  -6.1162484e-01  -7.6663471e-02   2.7342240e-02   9.3814112e-01   6.7049123e-01  -2.3708131e-01   4.3826644e-02  -8.0950030e-01   8.5298306e-02  -6.9395340e-01   3.8184799e-01   3.7497579e-01   2.0011835e-01  -2.6150932e-02   4.0927949e-01   7.6115622e-01  -8.4822805e-01   5.9872522e-01  -7.0985325e-01   1.8891151e-01   8.0408071e-01   3.6120079e-01  -4.3933830e-02   6.7072831e-01   4.1630103e-01  -7.0082371e-01   3.9908905e-01  -9.7957630e-01   2.0734863e-01   7.0298353e-02  -5.4182824e-02   6.0871129e-01   9.5637831e-01  -8.6617969e-01  -7.2386353e-01  -8.4006064e-02   8.8706679e-01   6.1879774e-01  -2.9970790e-01   9.2681823e-01   4.4850953e-01  -9.6011024e-01  -9.4991039e-01   1.5881606e-01   9.7753904e-01  -2.2998340e-03  -9.9857074e-01   8.3846927e-01   3.0351668e-01  -2.8722912e-01   8.8737516e-01   9.1696855e-01  -3.0237324e-01  -9.0856987e-01  -6.2085472e-02  -7.3104377e-01  -6.0392616e-01  -9.8501329e-01  -6.3488536e-01  -1.7605963e-01   4.4888574e-01  -7.5706680e-01  -5.9197995e-02   5.1048576e-01  -4.5902824e-01  -6.5430790e-01   2.7127585e-01  -8.8745538e-01   7.1713591e-02  -3.8798687e-01  -3.8935805e-01   6.4109480e-01   7.2613446e-01  -8.3363670e-01   5.7313513e-01   8.9181892e-01   2.4708646e-01   9.4997552e-01  -4.4789529e-02   7.2804361e-01  -8.8716100e-01  -8.6450038e-02   4.7676810e-01   9.8827569e-01  -5.5269633e-02  -7.7745551e-01  -3.1923000e-01  -4.9045852e-01   3.9750097e-01  -6.6088620e-01   2.8915596e-01   4.6420028e-01  -1.8663018e-01  -7.7697868e-01   9.8678594e-01   7.1016959e-01  -3.1714064e-01   4.4266959e-01   3.3416934e-01   4.3903583e-01  -9.5204293e-01   1.2678229e-01  -6.3174495e-03   3.5649581e-01   9.6735670e-01   7.8286665e-02  -9.5041208e-01   8.2015937e-01  -6.5461420e-01  -2.4640917e-01  -2.9675684e-01  -3.0883839e-01  -7.1437069e-01   7.2158267e-01  -8.6503328e-01  -9.4091002e-03   6.6681191e-01   6.8972323e-01   5.2077048e-01  -1.2127250e-01  -3.7079711e-03   5.0410862e-01   5.1663490e-01   9.1935888e-01  -6.1651319e-01   7.1605130e-01  -1.6576177e-02  -6.5946339e-01  -1.2355371e-01  -7.6330521e-01  -9.6100221e-01  -1.6053211e-01   3.4186496e-01   1.6091169e-01   2.9333883e-01   7.4066036e-01  -6.6926376e-01  -4.7471029e-01  -5.7704334e-01   5.0997970e-01   1.2055233e-02  -2.7603344e-02   3.9209136e-01  -6.4714979e-01  -7.4160694e-01   4.6890730e-01  -1.3029106e-01  -6.8696646e-03  -7.7058237e-01  -8.6271840e-01  -4.5356143e-01   3.1434815e-01   2.4977625e-01  -3.8519275e-01   1.7833548e-01  -1.8821192e-01  -4.8167440e-01   8.6930984e-01   1.7822685e-02  -2.8054681e-01  -8.5437306e-01  -6.1804615e-01   4.7836422e-01  -1.7266763e-01  -2.2585031e-01   3.5954203e-01  -5.7951326e-01   9.8548384e-01  -6.6256036e-01   5.4301414e-01  -7.0719322e-01   4.0807952e-01  -1.3742480e-01  -2.2064809e-01  -1.9304737e-01  -8.1164696e-01   4.1902729e-01   6.0829978e-01   8.7358028e-01   5.0847973e-01  -8.5367407e-01  -4.2073387e-01   5.9186513e-01  -5.0324091e-01  -4.9481450e-02  -2.6537214e-01   1.7118914e-01   7.3193804e-01  -4.0414056e-01   7.4533829e-01   7.4087273e-01  -4.9529399e-01  -3.1581736e-01   3.1243817e-01  -9.8682904e-01   3.6688338e-01   8.9830553e-01  -8.6838324e-01  -9.7662365e-01   5.0784467e-01   6.0889140e-01   6.1952969e-01   2.5698619e-01   1.4335638e-01  -1.5373705e-01  -5.7427481e-02  -4.9077492e-01  -1.6214869e-01  -3.5586060e-02  -9.0310478e-01  -1.7206136e-01   2.3739966e-01  -9.7910069e-01   4.0556336e-01   2.3353642e-01   6.6531790e-01   6.5877820e-01  -6.8652790e-01   5.6716272e-01   8.9998764e-01   7.7691867e-01  -3.0759457e-01  -4.7262807e-02   7.5197658e-01   6.0522842e-01   2.4273528e-01  -7.2346407e-01  -3.6198801e-02   1.8839663e-01   5.3519588e-01   1.8122200e-01   6.5012397e-01   7.9750494e-01   1.7508585e-01  -5.2415218e-01  -5.1267117e-01  -2.9559799e-01   3.2849408e-01  -9.9577864e-01   4.7205765e-01   2.0359395e-01  -1.3306629e-03   5.0237251e-02   8.0787841e-01  -3.3758166e-03  -4.4955110e-01   5.0984181e-01   6.7962328e-01  -8.4433393e-01   1.8304325e-01  -3.2568993e-01  -5.2942063e-01   6.8970645e-01  -4.1427186e-01   1.1095935e-01  -8.6242845e-01  -5.3813939e-01   1.6629688e-02   8.0934432e-01   6.0772473e-01   5.4486759e-01   1.6257566e-01   4.8019904e-01  -1.5690769e-01  -9.6900393e-01  -4.6382430e-01  -2.7443987e-01   3.3376375e-01  -7.1564149e-01   6.8657174e-01  -6.8775736e-01  -6.9262926e-01   5.0469751e-01  -7.0034440e-03   5.4692036e-01   5.3643388e-01   1.3121709e-01  -9.5846845e-02  -8.1705095e-01   3.1405997e-01   8.5460774e-01  -1.4763507e-01  -5.5004764e-01   6.2991541e-01   9.2804691e-01   4.1380543e-01   1.1724413e-01  -8.4443473e-01  -4.8302216e-01   9.7805915e-01   5.5801758e-01  -1.5563786e-01   9.2712390e-01   5.8856569e-02   4.3377676e-01   1.6798242e-01   6.9592633e-01  -9.8390294e-01  -2.8339516e-01   6.2879992e-01   5.3027342e-01   3.6661818e-01  -9.7161715e-01  -8.5083624e-01   1.3329178e-01   9.7462780e-01  -6.1407759e-01   8.8656937e-01  -6.6399386e-01   3.8116587e-01  -9.7565125e-01   4.2953041e-01   4.9235967e-01   6.7693641e-01   6.2111884e-01   5.2626264e-01  -2.7339769e-01  -4.3303500e-01   4.3481668e-01  -8.4457308e-01  -2.3476859e-01  -3.2449656e-01   6.7409063e-01  -2.2084963e-01   5.5726283e-01  -8.0868146e-01  -6.7713843e-01   7.3972929e-01   9.3189504e-01   3.3776505e-01  -2.6552828e-01  -3.2446862e-01  -5.6471215e-01   4.8446065e-01  -9.8737942e-01   8.7689923e-01  -7.5575415e-01   5.5296854e-01  -6.0267401e-01  -2.2088733e-01   5.5337688e-01   3.1908747e-01   5.9097345e-01  -9.5125450e-01   2.1864064e-01  -4.8366109e-01   6.6166142e-01  -7.7869520e-01  -2.1680063e-01   9.8989913e-02   4.9730542e-02   6.7991233e-02   9.3191919e-01   9.9947664e-01   2.9995945e-02  -7.0568706e-01  -9.7772826e-01   9.3589908e-01  -5.0613063e-01   8.3594427e-01  -3.0143066e-01   2.6351099e-01  -2.7099304e-01  -6.6838655e-01  -6.3737783e-01   8.5380873e-01   9.3031015e-01  -8.8580429e-01  -7.4062605e-01   3.3877418e-01   7.3851218e-02   6.6454261e-01   3.1386833e-01   3.9626298e-01  -3.6835338e-01   8.7804157e-01  -1.0304004e-02  -8.6719382e-01  -6.5464409e-01   9.5356230e-01  -7.7777857e-01  -9.0726177e-01   5.4026706e-01   4.2872226e-01  -7.6287068e-01  -4.4946160e-01   2.7338689e-01   3.9380010e-01   6.8158801e-01   5.8619525e-01   2.6902199e-01   8.0716650e-01  -9.7866264e-01   9.4468119e-01   9.2716086e-01   9.7294346e-01  -7.8081496e-01  -6.0279205e-01   3.4375266e-01  -3.8875351e-01  -7.3660508e-01  -5.8862575e-01  -1.6691559e-01  -5.9693173e-02   6.0391927e-01   8.7497310e-01   7.1344189e-01  -7.1331830e-02   2.1585275e-02   7.8331968e-02  -5.6239853e-01   5.8584143e-01   3.5974105e-01   6.7403051e-01  -4.7823741e-01  -9.7883719e-01  -8.8201112e-01  -9.4645178e-01  -5.0254738e-01  -7.5787379e-01   3.9066092e-01  -9.0474610e-01  -6.8132358e-01  -9.3876465e-01  -5.4573763e-01  -4.9906836e-01   5.2859268e-02  -3.3491048e-01   9.4690381e-01   4.0517133e-01   8.1173942e-01  -8.8286919e-01   8.4589902e-01  -5.1025329e-01   1.4477942e-01  -6.6464584e-01   8.2702910e-01   9.0293279e-01   9.1800570e-01   9.7535213e-01   2.8966735e-01  -6.5332339e-01  -7.7820825e-03   1.0670271e-01  -3.9451375e-01  -9.8184859e-02  -6.0881623e-01   5.6233638e-01  -1.5543740e-01  -1.8216743e-01   3.7886009e-01  -5.0290422e-01   6.5506147e-01   7.7870275e-01  -2.2729456e-01  -7.9250946e-02  -3.8957364e-01  -5.9753317e-01  -6.9496344e-01   3.7601060e-01   7.1241104e-01  -4.2369202e-02   1.3196631e-01   1.6239634e-02   5.2931647e-01  -9.0264039e-01  -3.0759163e-01   1.8108880e-01  -6.5965953e-01   6.0144008e-01  -2.5696229e-01  -5.9688888e-02  -7.7724788e-01  -7.0592314e-01   2.9853581e-01  -9.3987133e-01  -9.4315431e-01  -7.1101073e-01  -3.0341860e-03  -5.1719386e-01  -9.2900891e-01   2.7826881e-01  -8.3129827e-01   3.4442753e-02   8.8963714e-02  -3.2544364e-01  -3.5278024e-01  -1.6784414e-01   4.8406635e-01   6.2218567e-01  -2.6239127e-01   7.9260025e-01   4.3503619e-01  -1.9293594e-01  -2.9054941e-01  -1.3268917e-01  -4.4929820e-01  -1.0345261e-01  -6.7712625e-01   4.6195443e-01  -5.2860280e-01   2.6943910e-01   9.7188135e-01   3.3821044e-01   9.2832590e-01  -5.7737736e-01   7.5303630e-01  -7.1181630e-01  -4.5425761e-02  -7.7102999e-01   1.4630726e-01   7.4885754e-01  -1.4563090e-02   2.1631485e-01   7.5109060e-01   9.7970126e-01   2.1902846e-03   6.0051536e-01  -4.9196367e-01   7.9869048e-01   7.4139341e-01  -3.6483781e-01   4.5865846e-01   3.5476583e-01   4.8764974e-01  -9.7330024e-01  -6.0404556e-01  -9.5029938e-01  -5.1166120e-01   1.4135242e-01  -6.8571974e-01   6.7155924e-01  -5.6300663e-01   4.3046727e-01   8.6998290e-01   3.2634981e-01   8.3281929e-01  -4.5310666e-01  -1.8435885e-01  -4.0258267e-02   1.1022084e-01   1.0454404e-01   8.2621954e-01   7.3453321e-01  -5.6635849e-01   6.0587178e-01   8.6050084e-01   1.7038987e-01  -1.6986445e-02   7.6267046e-01   3.5030689e-01   5.5881598e-01  -3.2763016e-01   3.2640780e-01  -1.1226195e-01  -7.0582831e-01   2.8536180e-02  -4.1367992e-01  -2.1312553e-01  -3.4878154e-01  -3.5379292e-01  -4.0116940e-02   9.4261672e-01   6.6876295e-01   4.0544805e-01   2.4127928e-01   3.2911101e-01   2.6342992e-01   8.8286865e-01   5.5054992e-01  -6.1389902e-02  -7.4893328e-01  -8.8028771e-02  -6.5601417e-01  -5.7926404e-02   6.4176713e-01   8.4149836e-01   2.9953975e-01   8.6510818e-01   1.5438873e-01   5.7365676e-01   2.7285812e-01   1.0558950e-01   7.4086629e-01   4.8193050e-01  -3.7470644e-01   6.2402141e-01   3.8538328e-01  -3.1316244e-01  -7.4383360e-01  -3.5515850e-01  -8.1929871e-01  -5.2769928e-01   2.5437846e-01  -9.3189112e-01   8.3537631e-01   7.2175856e-02  -5.1214272e-01   1.7186115e-01   5.1762784e-01  -6.1656405e-01  -1.7374124e-01   5.9518727e-01  -8.7814107e-01   6.0251186e-01  -5.2156804e-01  -1.6357797e-02   9.4331290e-02  -6.5763362e-01  -3.9184192e-01   3.9122028e-01   6.8422233e-01   1.5816399e-01   8.2876257e-01   6.4682486e-01  -6.7523659e-01   3.1100012e-01   5.0762120e-01  -7.7092010e-01   3.8505616e-01   4.4034739e-01  -4.9381297e-01   5.2429690e-01  -5.2166546e-02   1.3764074e-01   4.4317184e-02  -5.7208896e-02  -7.9364179e-01  -3.9202092e-02   8.4367596e-01  -1.6874549e-01   5.0581699e-01   6.5863327e-01   4.4081491e-03  -5.8516306e-01   7.2171003e-01   7.0178829e-01   1.9054638e-01   9.4018619e-01  -5.9710400e-01   9.6547157e-01  -3.9064696e-01   2.0877819e-01  -9.1345017e-02  -3.5885831e-01  -2.9609705e-01   3.8798286e-02   1.0270574e-01   2.5242257e-01  -9.9370798e-01  -9.8626342e-01  -7.5964939e-01  -9.7204753e-02   2.0106232e-01  -5.7439251e-01   2.8461717e-01   6.4074885e-01  -4.8953112e-02   4.9393042e-02   9.5721920e-01   2.5843594e-01   8.7792778e-01   5.0324172e-01   8.9151173e-01   1.5792952e-01  -4.8414775e-01  -4.1584066e-01  -6.6482787e-01  -3.8187221e-01   1.9396567e-01  -2.9219127e-01  -8.6572167e-01  -4.6673431e-01   2.5890631e-01  -2.4875612e-01   5.0922078e-02   3.0653891e-01   6.1412431e-01   2.5819076e-02  -1.9432810e-01  -6.3150958e-01  -7.9477390e-01  -1.8650619e-01  -4.1822591e-01   8.3934648e-01  -2.0165255e-01   4.5750532e-01  -5.3554975e-02   1.5676572e-01   7.0328814e-01   4.1349977e-01  -6.2702334e-01  -5.3073647e-01  -6.9239768e-01   6.5014972e-01  -6.2907220e-02   7.9042096e-01   6.1434344e-01  -9.0913037e-01   2.4768599e-01   6.4512496e-01   4.9590332e-01  -5.2357988e-02  -6.6066132e-01  -1.2069709e-01   5.2987171e-01   9.2148367e-01   2.6206660e-01  -6.4034669e-01   7.0677525e-01  -1.0322933e-01  -6.2686996e-02   2.0121115e-01  -6.5647147e-01   9.3909035e-01  -6.3465686e-01  -1.7363710e-01   3.7538650e-01  -2.8163991e-01  -5.0698827e-01  -1.6902269e-01  -2.3826913e-01  -3.0257226e-01   4.3782030e-01   1.5878776e-01   4.2424232e-01   3.4640173e-01   3.4281447e-01  -8.8629071e-02   3.3512798e-01   4.7739269e-01   6.6574726e-01   3.2444088e-02  -6.5769149e-01   8.7362424e-01  -4.2307522e-01   7.8154029e-02   9.8027926e-01   8.8103506e-01  -5.1329616e-01   9.6835177e-01   2.4658479e-01  -3.7425802e-01   3.2962202e-01   4.4007754e-01  -8.3101105e-01   8.7228479e-01   5.5232896e-02  -6.5421525e-02  -2.2748684e-01  -7.3249528e-01   5.8705955e-01   6.0797685e-01  -3.4343918e-01  -2.2032794e-02  -7.6665482e-01  -7.3809015e-01   7.2728651e-01  -6.7532177e-01   5.5525138e-01   6.6681874e-01   2.7778346e-01  -8.1626796e-01  -1.8739367e-01  -3.2324385e-01   5.5586662e-01  -2.3750482e-01  -9.5814866e-01   4.5466150e-02
  -6.9902720e-01   6.7584243e-01   8.5559904e-01  -5.6501839e-01   9.6007078e-01  -6.3026844e-01   7.9994645e-01  -1.1990831e-01   5.1896321e-01  -2.2922091e-01  -4.5253634e-01   5.2900566e-01   5.1169183e-01  -4.6762806e-02   4.6488634e-01  -8.1622489e-01  -9.9869648e-01  -2.3662280e-01   7.8130744e-01   2.6618938e-02   1.9142544e-01  -3.7901118e-01  -9.3603883e-01   1.3718007e-01   5.2506173e-03  -7.3111741e-01   4.1981251e-01  -9.3789021e-01   4.4293629e-01  -2.5293094e-01   3.3291621e-01  -6.2115985e-01   5.0723192e-01   7.1914224e-01  -9.3918459e-01  -6.9411578e-01   7.5366310e-02   3.5022237e-01  -1.8574114e-01   6.1096271e-01  -1.2331371e-01   2.8399791e-01   1.7649928e-01   9.8223962e-01  -6.5216242e-01  -9.2067981e-01   6.9992579e-01   9.9609794e-01  -1.5220643e-01   7.2294900e-01  -9.8806104e-02  -2.7663113e-01  -1.9913471e-01  -2.2524681e-01   2.3930686e-01  -9.0373454e-01  -9.5589212e-01  -4.7780339e-01  -8.1346386e-01  -7.8555719e-01  -8.7769099e-01  -4.6514979e-01   7.8743002e-01   7.4252676e-01   4.5583650e-01   6.4378442e-01   9.4048975e-01  -9.3570061e-01  -2.1313980e-01   8.6811710e-01  -7.1852068e-01  -3.4771428e-01  -8.2650903e-01   6.4827837e-01  -1.8138291e-01  -4.6914496e-01  -7.0658545e-02   4.1116117e-01   6.9620153e-01  -2.1964870e-01   4.4350186e-01   2.1620144e-01  -9.5571907e-01  -3.2750261e-01   5.8924803e-01   8.1412719e-01  -3.3028025e-01   7.9180707e-01   4.2035310e-01  -9.0968533e-01  -3.0478356e-01  -2.5673599e-01  -2.2564871e-01  -5.6744558e-01  -8.6742572e-01  -2.1349636e-01  -9.4776162e-01   6.8741900e-01  -3.8770614e-01  -8.6003925e-01  -6.3545732e-01   6.2415344e-01  -7.1120893e-01   7.7502597e-01   5.1941185e-01   7.6818706e-02   2.4373713e-02  -4.0216932e-01  -7.5599505e-01   3.3592189e-01  -2.1623797e-02  -4.8522269e-02   2.5163120e-01   8.4572189e-01  -9.8390180e-01   4.5795816e-01  -4.0029059e-01  -1.9651306e-01  -3.8449826e-01   7.3144199e-01   1.1497294e-01  -9.6161345e-01   9.6057163e-01   9.0364770e-01  -9.0326520e-01  -2.0035375e-01  -3.8543696e-01   8.6378999e-01  -7.8543099e-01  -8.8341833e-01  -7.2232368e-01   4.3133739e-01   8.4797113e-01  -6.1718700e-01  -1.0041482e-01  -7.5039736e-01  -2.1306058e-01  -5.7745692e-01   1.9858042e-01   8.3483629e-01  -2.2530088e-01   8.1122178e-01   8.8385926e-01   9.1836005e-01   4.2579767e-01   7.7646113e-01   6.5499510e-01   8.2057198e-02  -7.3055664e-01   8.1875555e-01  -8.2920248e-01   7.5132971e-01   3.9777869e-01  -1.8626566e-01  -9.9400628e-01  -7.1705500e-01   8.0032850e-01  -3.7280208e-01   5.3762997e-03   9.2220091e-01   6.5166718e-01  -6.2917059e-02   9.7722531e-01  -7.9129118e-01   9.5771624e-01   1.6609424e-01  -8.5662055e-01  -5.1697390e-01  -8.6023932e-01  -3.6272138e-01   2.0495495e-01   2.0066318e-01  -2.6753125e-01  -5.1533090e-02  -6.1587447e-01   1.1405147e-01   5.0899868e-01   5.8096152e-01   6.5286523e-01   5.2041299e-01   3.2281540e-01   5.1999745e-01   3.9589111e-01   5.9762220e-01   5.5970265e-01   6.0686880e-02  -3.2877130e-01   3.9941611e-01   7.4105551e-01   2.0121488e-01  -3.2764520e-01  -1.6561648e-01   8.1491250e-01   1.8638356e-01   8.4766722e-01  -8.8127882e-01  -7.0770293e-01  -5.7171453e-01  -4.1708620e-01  -7.6831702e-01   8.5857656e-01   6.4072081e-01  -2.2015799e-01  -8.7716001e-01  -9.8902360e-01  -1.0006024e-01  -1.9322967e-01   6.6609555e-01  -5.1869307e-01   7.6030176e-02  -4.1605737e-02   4.9817309e-01  -5.4456882e-01   3.0728322e-01  -2.1450219e-02  -3.4993033e-01  -7.1185250e-01  -5.8907237e-02   2.1855363e-01   5.6625042e-01  -8.4775313e-01  -3.3348467e-01  -3.5496001e-01   6.5359722e-01   2.9296745e-01   1.9182437e-01   1.5183695e-01   2.5374812e-01   1.7623499e-01  -5.1549646e-01   9.5265538e-01  -5.3219914e-01   6.9746914e-01   3.4999394e-01  -4.3831360e-01  -7.9630206e-01   9.8203400e-01  -8.6280408e-01  -9.1232382e-01   7.6150438e-01   8.1556457e-01  -3.0359255e-01  -6.4737080e-01  -5.6239664e-01   5.4386178e-01  -4.2007320e-02  -4.6216087e-03   3.1167251e-01  -6.3552756e-01  -2.5263056e-01  -6.4223537e-02  -8.7750523e-01   8.2752411e-02   1.3115142e-01  -7.0674257e-01   7.8550572e-02   2.3210980e-01   2.9171029e-01   7.8316760e-01   1.2380644e-01  -4.5979333e-01  -6.9170073e-01  -2.6050454e-01   7.9787287e-01   6.4752365e-01   4.2157393e-01  -9.3458531e-01  -6.1480219e-01   2.7506375e-01   4.8690704e-01   7.4620630e-01   9.7127631e-01   9.2904550e-01   6.3748355e-01  -7.6332697e-01   8.9721451e-01  -8.9543020e-02   2.0824208e-01   7.2040366e-01  -8.2430515e-01   7.6170075e-01  -5.3205167e-01   5.6838245e-01   4.3170283e-01   7.9596845e-01  -4.0988058e-01  -3.9526762e-02  -6.8865526e-01  -9.2639718e-01   4.1636558e-01  -5.3991804e-01  -4.9039295e-01  -9.6150156e-01   1.5994525e-02  -1.1097012e-01   8.6953497e-01   4.3752236e-01   6.8730208e-01  -9.5848968e-01  -4.6085894e-01   4.7097329e-01  -5.1549248e-01   1.5182733e-01  -5.6735845e-01   1.9959118e-01  -9.4273182e-01   2.9435369e-01  -1.2946253e-01  -1.1528136e-01  -7.0255491e-01  -1.9417479e-01   8.3517707e-01   9.2900342e-01  -5.7810324e-01  -5.0900692e-01   8.3228457e-01  -1.5554837e-01   5.6798106e-01   2.1419566e-01   1.5079182e-01   5.8267444e-01   4.7236831e-02   6.8841214e-01   7.8083829e-02   3.4427071e-02   7.5925867e-02   5.1743052e-01  -7.6966176e-01   7.8800036e-01   9.1043475e-01  -8.3950888e-01  -9.1741400e-01  -9.8723074e-01  -8.8978265e-02  -6.4890488e-02   5.5986021e-01  -6.3501009e-01   6.0963575e-01  -3.7918986e-01   5.8797673e-01   5.5831422e-01   2.0503655e-01  -5.3208596e-01  -6.3968260e-02  -9.7345915e-01   3.8558176e-01  -3.1406445e-01   1.0426656e-01  -3.9873296e-01  -7.9596071e-01  -5.1018505e-02   4.2540711e-01  -2.7541280e-01   8.9514739e-01   3.0107595e-01  -3.6618576e-02   9.6665917e-02   5.7820048e-01  -5.9123916e-01   7.9743868e-01   2.7102067e-01  -4.4810756e-01   5.0042339e-01   2.8211035e-01  -4.9301383e-01   1.5485848e-01   8.7926558e-01  -1.3469347e-01  -6.6412346e-01   4.4744661e-01  -2.3915129e-01  -5.8122249e-01  -1.0931446e-01  -9.9701693e-02  -7.0787556e-01  -4.4907343e-01  -4.0260643e-01   1.7571270e-01   3.6170807e-01  -9.4800916e-01  -2.0918804e-01  -2.1593960e-02   3.3787050e-01   4.4705447e-02   9.1000357e-01  -2.8251192e-01  -8.3774198e-01  -4.7005062e-01  -3.7283473e-01  -2.8796824e-01   8.5199960e-01  -9.2978924e-01   7.6343595e-01   6.8931336e-01   4.8583643e-01   2.7821239e-01  -2.0072703e-01  -6.5301641e-01  -1.1771166e-01   9.8923714e-01  -1.8447391e-01   6.5635730e-02  -3.8065146e-01  -5.1879808e-01  -3.5419246e-01   7.2629662e-01  -7.1901617e-01  -7.0669176e-01   4.5607159e-01  -5.0849546e-01   8.1371356e-01   8.5261257e-01   3.7740081e-01   2.4595154e-01   3.3669478e-01   8.6841433e-01  -3.5931427e-02   1.9316617e-01   3.0755239e-01   4.4507441e-01  -1.8962940e-01  -4.8008839e-01   4.9487752e-01   2.2370493e-01   2.5620609e-01  -4.0657512e-01  -1.3852201e-01  -9.3193861e-01   6.9492443e-01   1.0941998e-01   5.3100850e-01   5.3636433e-01   2.5223895e-01  -9.3441489e-01   2.2500013e-01   1.8780175e-01   3.4586154e-01   7.8961818e-01  -5.3028853e-01  -7.3156186e-01  -7.3831168e-01   4.7746578e-01   5.2872589e-01  -7.6253071e-01   1.7869073e-01   1.2701680e-01   8.8372162e-01  -6.7851874e-01   2.1516189e-01  -6.3841567e-01  -3.0897203e-02   6.4286070e-01  -2.2509888e-01   3.3113309e-01  -9.8936664e-02  -7.5993631e-01  -4.2320901e-01  -1.7600355e-01   2.5893791e-01  -9.2314613e-01   7.7124455e-01  -8.9644082e-01   1.9220088e-01  -4.2848148e-01  -5.1499081e-01   7.1643305e-02  -9.2401998e-01   4.0505269e-01   9.9605004e-01  -6.5062951e-01  -8.7840504e-02   4.3373135e-01  -2.8913399e-01   9.5355884e-02   5.9030052e-01   2.2851414e-01   2.0235280e-01   5.8324201e-01   1.4445616e-01  -2.2096255e-01   2.1574877e-01   3.2411239e-01   3.5160487e-01  -7.4120436e-01  -8.4115895e-01   6.4784921e-01   1.8838631e-01   8.3974965e-02   8.4331721e-01  -3.6938547e-01   7.3041843e-02  -8.7592942e-01   3.6504133e-02   7.7711276e-01  -7.2974076e-01  -6.7365246e-01   4.6854910e-01  -7.2068847e-01   7.1805080e-01   7.5541782e-01   6.6952605e-01  -9.1766157e-01  -3.9179512e-01  -1.2156899e-01   9.0215937e-01  -9.9603639e-01  -7.0200867e-01   7.8023158e-01   1.0582490e-01   7.1958580e-01   5.0020034e-01   3.4243692e-01   6.7451035e-01  -6.5729530e-01   4.1959843e-01  -1.6006745e-01  -3.4897223e-01  -4.5657791e-01   2.9876601e-01   6.1094758e-01  -6.8064642e-01  -2.4689889e-01   2.2129673e-01  -4.6418243e-02   7.2982513e-01   5.3165790e-01  -3.4122687e-01  -4.2683331e-01   8.7714324e-01  -4.2076429e-01  -1.2991031e-01  -2.2555676e-01   9.6155903e-01   3.5183344e-01  -8.0514758e-01   2.7439309e-01   7.6291583e-01  -1.2804384e-02   5.5530252e-01   7.3710670e-02   5.9926589e-01  -1.2187611e-01  -7.2018006e-01  -9.6127686e-01  -8.4694054e-01  -6.1926622e-01  -1.5210122e-02  -9.9608628e-01   8.8029084e-02  -9.4970466e-01  -4.3511487e-01  -2.3828600e-01  -9.0923358e-01  -3.7514036e-01   3.7796154e-01  -6.4569665e-01   3.2978416e-01  -6.9744699e-01   4.2714577e-01   7.7302582e-01  -8.8055889e-02   1.7174075e-01  -1.6361680e-01   3.2501693e-01  -7.1282440e-01  -6.8462235e-01   5.5027768e-01   8.9675088e-01   9.0137622e-02  -9.5265571e-01   8.4601731e-01   3.9665455e-01   7.5832379e-01  -4.8843918e-01  -7.7420960e-01   2.8057801e-01   6.6924322e-02   3.6355003e-01  -7.4930763e-01   9.5220785e-01   9.2878932e-01   7.7910390e-01  -1.1374743e-01   2.5638805e-01  -2.9248657e-01  -6.7073424e-01  -6.2566408e-01   3.4953555e-02   7.2933042e-01  -5.3511020e-01  -5.8491697e-01  -5.8308859e-01  -9.1900574e-01   4.3695876e-01  -1.3172934e-01  -7.9871175e-01  -5.1131154e-01  -3.7562616e-01   1.7148099e-01  -4.6261572e-01   5.5461284e-01   9.4720294e-01   9.0282913e-02   5.7681005e-01  -7.5089638e-02  -5.0685846e-01  -4.8299372e-01   7.2898014e-01   4.9614254e-01   5.4841402e-01   6.2618380e-01  -6.8801799e-01  -4.5993856e-01   3.5405141e-01   6.6474489e-01  -1.3970427e-01  -7.5098699e-01   5.5980566e-01  -8.9459896e-01   1.6930966e-01  -1.8911888e-01   2.1888878e-01  -8.4248314e-01  -9.1727313e-01   8.0639474e-01   7.9987759e-01   7.8853150e-01   5.3655705e-01  -6.1263729e-01   5.1758953e-01  -9.6486433e-01   7.2302432e-01  -3.7824852e-01  -5.2868649e-01   8.4203649e-01   7.4349814e-01  -9.6447376e-01  -5.1277798e-01  -1.4102390e-01  -6.6877080e-01  -4.3027018e-01   1.5298970e-01   6.9477072e-01   4.1702385e-01  -7.7292430e-01  -1.8088694e-01  -7.3430234e-01   4.9559340e-01   2.7646672e-01  -7.8501982e-01   4.4498740e-01   4.0910061e-01  -6.5458727e-01  -7.5810731e-01  -9.2044684e-01   1.4841498e-02   9.2186985e-01   3.8789856e-01   8.8987335e-01  -5.5820721e-01   6.8769114e-01   4.7105108e-01  -9.9242006e-01   5.9599309e-01   9.4509986e-01   7.2521251e-01   7.7975665e-01   1.1092889e-01  -9.5572198e-01  -3.5867903e-01  -2.2493537e-01  -4.7371035e-01   5.9139114e-01  -5.6541019e-01  -6.3709139e-01  -7.8504860e-01   5.4166492e-01   6.0790864e-01  -8.8865362e-01   9.4188549e-01   7.5878521e-01   2.2534445e-01   5.2791290e-01   4.6185038e-03  -7.2393438e-01   5.5738931e-01  -8.3984082e-01   8.3889890e-01  -8.2643765e-01   4.8704662e-01  -8.3532935e-01  -1.1369861e-01   5.6505752e-01   5.6124727e-01  -1.9808954e-01   7.7922595e-01  -5.6341900e-01   8.8724398e-01   5.1677956e-01   4.4663433e-01   9.5856792e-02  -4.5189129e-01   7.2598385e-01   6.3670616e-01  -3.8805892e-01   3.5026586e-01  -3.3817716e-01  -7.1035233e-01  -5.2368060e-02  -5.2916793e-01  -7.5224868e-01  -1.7606879e-01  -2.7549799e-02   7.9084249e-01  -4.8278419e-01   4.0535963e-01  -5.5081799e-01  -1.5459993e-01   4.8082620e-01   8.1989617e-02   5.6583052e-01  -3.8135366e-01  -5.8366605e-01  -8.3626798e-01  -9.7828878e-01   8.1036547e-01   2.5188835e-01   6.7245673e-01  -3.7209376e-01  -3.9318190e-01  -8.1677758e-01   6.7090357e-01   6.0916111e-01   3.8558473e-01   9.7609652e-01  -6.2916479e-01  -9.5597308e-01   2.6328799e-02   2.8272143e-01  -3.5198893e-01  -2.7699465e-01   5.0698647e-01  -4.7351955e-01   7.2786301e-01  -2.5798066e-01   1.0745339e-01  -5.2943193e-01  -9.2706737e-01   4.4520371e-01  -1.2247700e-01   8.1921555e-01   4.7620784e-01  -3.0268063e-02  -2.5805840e-01  -6.5713943e-01  -7.8652431e-01   9.4432671e-01   5.4851985e-02  -1.8530158e-01   3.3249663e-01   5.8890056e-02  -7.1997204e-01  -8.5233834e-02   7.8441711e-01  -9.8603221e-01   1.1069951e-02   3.3905820e-01  -7.9133991e-01  -5.3919017e-01  -8.8223939e-01  -3.8010016e-01   4.7832514e-02   4.8257765e-01   2.8359938e-01  -2.7187749e-01  -5.2093027e-01  -8.0059668e-01  -5.3661497e-01   6.6957814e-01   7.2933014e-01  -1.7907202e-01   2.2837601e-01  -1.2021443e-01   3.6313098e-01   6.6908619e-01   4.7837479e-01  -8.3431058e-01   2.9446516e-01   4.0562470e-01  -8.1412622e-01  -9.0428909e-01  -5.8049662e-01  -7.0040966e-02  -1.5741770e-01  -3.6244071e-01   5.2344666e-01  -9.9502632e-01   2.6552091e-02  -2.1105790e-01   3.8003889e-01   5.6454821e-01  -9.9090583e-01  -2.2328651e-01   7.9995817e-01   9.0189301e-01   7.5032751e-01  -9.6302298e-01  -4.3259183e-01   2.6682267e-01   8.1544652e-01   1.4755925e-01   4.8430675e-01   5.6025103e-01   7.5966778e-01   3.0510748e-01  -1.7495134e-01  -4.9863317e-01  -6.8153214e-01  -8.9142181e-01   4.2122850e-01  -7.8367590e-01   9.9025203e-01  -6.0161977e-01  -1.3390531e-01  -5.1584307e-01   9.1934999e-02  -1.1064478e-01  -6.3632352e-01   4.5298089e-01  -3.6262446e-01   4.1567414e-01   2.6465363e-01   4.4801788e-02  -8.4109596e-01   3.9682950e-01   7.3151531e-01  -9.7678754e-01   6.8621444e-01   3.1886326e-01  -4.6263734e-01   8.5857486e-01  -9.4316808e-01  -1.1941136e-01  -5.6207870e-01   3.2232273e-01   4.4354688e-01   2.5259033e-01   4.0471040e-01   9.0462985e-01   2.8070725e-01   1.9750981e-01  -1.8461513e-01   4.6683486e-01  -1.5671411e-01  -9.9474916e-01  -3.6609178e-02   7.5162451e-01  -4.2607077e-01   7.0885391e-01   5.9798706e-01   7.1520288e-01  -1.4936785e-01   2.5514745e-01  -6.3120918e-01  -9.7127530e-01   5.2513304e-01   5.6063476e-01   7.4655135e-01  -1.1088211e-01  -1.3864496e-02  -3.2233960e-02   9.0809349e-01   2.8495403e-01   9.4595545e-01  -6.0799250e-01  -6.3390706e-01  -6.7582074e-01  -1.7388988e-01  -7.5841544e-02  -4.8381481e-01  -8.1422639e-01   3.7597316e-01  -7.0220070e-01   7.9449166e-01   8.1387010e-01   5.6992042e-02   6.2997867e-01   6.7634135e-01  -5.8075802e-01   2.7637655e-01  -8.2038266e-01  -1.1628733e-01  -2.6093507e-01  -1.3892348e-02   2.5725923e-01   6.5137138e-01  -4.5709208e-01   5.2299466e-01  -9.7111543e-01  -4.8914802e-01   2.1106139e-01   6.2881464e-01   5.0995181e-01  -8.9294145e-01   9.2193684e-01  -6.9880607e-01   5.5239513e-01   2.7135617e-01  -8.1869751e-01   8.1401055e-01  -9.3447578e-01  -2.0539564e-02   2.4977655e-03   1.1597088e-01  -7.6863914e-02  -8.5790784e-01   5.5751371e-01  -4.7604495e-02   6.6953242e-01   4.2625091e-01  -6.8883244e-01  -6.3066404e-01  -5.5127565e-01  -3.3970709e-01  -7.0430805e-01  -9.1846626e-01   3.3393780e-01   5.6687350e-01   2.3557517e-01   4.2599887e-01  -8.5733809e-01   4.9742965e-01   9.7896428e-01   5.9891996e-01  -2.4031264e-01  -1.7392070e-01  -6.8676880e-01   8.1880458e-01   2.2527816e-02  -8.6645544e-01  -6.5028078e-01   2.2058037e-01  -9.0548814e-01  -2.9999612e-01  -4.5104009e-01  -6.3096156e-01  -9.6550357e-01   8.2879720e-01   6.9258044e-01  -7.8024137e-01   4.1834757e-01   9.7838502e-01  -3.9062709e-01  -6.0816604e-01   4.5016343e-01  -9.6619268e-01   8.2125457e-01   9.0468083e-01  -3.1251963e-01   5.2529861e-01  -7.2516277e-02  -4.6185029e-01  -4.6210579e-01   4.1231952e-01  -6.5709069e-01   7.5005210e-01   9.7356962e-01  -1.1014079e-02  -5.3813686e-01   3.0684691e-01   2.2144970e-01   5.0381693e-01   4.7666593e-01   9.5288944e-01   6.2762948e-01   9.9347419e-01  -7.8239567e-02   8.8417202e-01   5.3407927e-01  -2.2185158e-01   6.2739148e-01   8.3226423e-01  -1.7336631e-01   5.9597249e-01  -3.1860399e-01   7.4713436e-01  -8.9876969e-01   8.0452131e-01   1.9335019e-01   3.5409579e-01   1.4858516e-01   1.0649384e-01   8.6699850e-01   1.6381831e-01  -7.5632038e-01   6.3079017e-02   1.4862281e-01  -3.8283368e-01   6.5175814e-01   2.3086003e-01
  -3.4880322e-01  -4.6364668e-02  -6.2992809e-01   6.4688648e-01  -3.1291792e-01  -3.3615892e-01   6.3281814e-01   7.0206603e-01   6.9133483e-01  -8.9671278e-01  -7.4026100e-01   5.0775761e-01   8.7391530e-01  -9.2888743e-01  -4.5457462e-01   7.5403922e-01   1.3420819e-01   2.2830592e-01  -3.4624396e-01  -1.1030790e-01  -8.8362327e-01  -8.0633756e-01  -4.0875876e-01  -8.2151317e-01   7.1290186e-01  -5.4536666e-01  -4.6271990e-01   4.5735393e-01   8.6518003e-01  -1.8930185e-01   3.3064775e-01  -4.8306666e-01  -1.3080954e-01   2.3962759e-01   5.9178323e-01  -1.0062756e-01  -4.4937002e-01   5.2220543e-01   7.2254675e-01   3.6876927e-01  -1.1143231e-01   6.0499139e-01  -6.0214354e-01   5.5249478e-01  -8.7644156e-01  -2.9685771e-02   8.3080291e-01   9.5010243e-01   1.2301341e-01  -6.4663541e-01  -3.6229540e-02   7.6352415e-01   9.0784410e-01   2.0212622e-01   3.5717185e-01   5.4401522e-01  -3.9343278e-01   8.8521401e-01  -5.5372848e-01   3.0128338e-01  -8.7690959e-01   9.2781126e-01  -8.1198677e-01  -7.2828929e-01   5.1364086e-01  -6.0619718e-01   7.8700983e-01  -1.8498750e-01  -2.1175325e-01   7.6095894e-01  -9.2586036e-02  -2.3488351e-01  -5.1478797e-01  -4.7760638e-02  -7.5557849e-01   6.1795264e-01   8.0042168e-01  -7.2767840e-01   6.9209879e-01  -9.3133335e-01  -9.5217478e-01   8.4041922e-01   3.5823523e-01   2.2054355e-01  -6.6010750e-01  -9.6351897e-01  -2.7727381e-01  -7.3373708e-01   4.5368101e-01   6.3400299e-02   2.0011322e-01   7.5799849e-01  -8.6500263e-01   9.2024958e-01   4.4706447e-01   7.7797569e-01  -2.4859848e-01  -7.0628405e-01   6.2304935e-01   2.7525316e-01  -4.6279451e-01   1.4432342e-01  -2.5854865e-01   4.0078404e-01  -1.1198959e-01  -8.8134364e-01   9.3757486e-01  -3.2378683e-02  -7.1604969e-02  -4.5606052e-01   4.8058050e-02  -7.4451399e-01   2.7217447e-01  -2.8631371e-02   5.2136259e-01  -2.2591700e-01   2.1941679e-02  -3.9195369e-01   2.4350075e-01  -3.7568060e-01   9.0040372e-02   3.9928426e-01  -4.2479869e-01  -7.5612375e-01  -7.8045342e-01   9.4277030e-01   1.9863219e-01  -2.5016218e-02   4.5199399e-01   5.4191723e-01   6.8489715e-01   5.9829409e-01   8.5961511e-01   1.4755438e-01  -3.2125500e-01  -9.0171427e-01  -4.6613214e-01   1.7219518e-01  -6.9586271e-01  -3.0534707e-01  -8.7152164e-01  -9.9462893e-01   6.4245547e-01  -3.3107959e-01  -6.2997042e-02   9.6779644e-01  -1.2622613e-02   6.6070869e-01  -5.6816884e-01   8.2964833e-01   9.1106747e-01   2.5500306e-01   1.9970104e-01   6.1271825e-01  -9.6272672e-01  -6.8964755e-02  -2.2968526e-01   6.6674387e-01   2.7739305e-01   4.2448986e-01  -3.6158185e-01   3.8278481e-01   6.1950072e-01  -9.8772034e-01  -3.6685245e-01  -7.6923071e-02   4.5791121e-01   1.3240122e-01   3.0311252e-01  -4.5864465e-01   1.4002185e-01  -2.1750590e-01  -1.3081700e-01   3.2457005e-01   3.2960315e-01  -2.1172873e-01  -9.2851328e-01  -8.5420534e-01  -6.6999663e-01  -3.8265315e-03   3.8471594e-01   8.7119110e-01   5.9804178e-02  -7.5482783e-01  -2.2777104e-01   1.7686629e-01   6.1796340e-01   5.8169095e-01   3.4123751e-02   6.5724513e-01   3.1527649e-01   2.5989489e-01   4.9848546e-01  -5.1268165e-01  -2.5528179e-01   6.8398570e-01  -6.4230216e-01   4.1849867e-01  -6.3631964e-01   5.3600923e-02   2.0328251e-01   4.9590599e-01  -9.5076950e-01  -7.1388859e-01  -1.5384439e-01   5.3630512e-01  -1.0773960e-01   6.1747224e-01   6.2134452e-01   6.4215679e-02   4.2287202e-01   5.8053816e-01  -7.7987276e-01   9.3813851e-01   8.8542884e-01  -1.9875857e-01  -4.9471976e-01  -9.3602397e-01   8.3823498e-01  -5.5661040e-01   6.1901954e-01  -2.7121336e-02   2.7896905e-01  -8.1383294e-01  -2.8313303e-01  -4.1343915e-01  -8.8713890e-01   5.6467377e-01   9.6396232e-01   1.1259456e-01  -6.1362331e-03   9.3994964e-01   1.0503979e-01   9.1687823e-01   2.3891807e-01   5.4685038e-01   6.6548351e-01  -2.7666944e-01   7.2544005e-01   4.0033470e-01  -6.2756428e-01  -5.1495718e-01  -8.7829902e-01  -1.0034254e-01   5.1595866e-01  -3.3441647e-01   4.9887907e-01  -1.6735791e-01  -9.8285507e-01  -6.0148807e-01   9.6536322e-01  -5.3834933e-01  -6.2027715e-01  -4.6386984e-02   9.4428262e-01   4.8824678e-01   8.3238148e-02   5.9658620e-01  -6.4592548e-03  -7.7156597e-03   3.1636588e-01  -9.4621295e-01  -8.3053709e-01   6.5322262e-01   9.4243958e-01   6.1041782e-01   9.0399120e-01  -1.6149756e-02  -3.6349181e-01   1.6758569e-01  -6.7498301e-01   5.1333113e-02   6.3669436e-01   8.6187351e-01   4.3612881e-01  -4.8312166e-01   8.9071253e-01   6.8725312e-01  -5.6433798e-01  -1.4440382e-01  -9.9308906e-01   9.1634765e-01   6.9563832e-02   6.3022247e-02   5.7335909e-01  -2.8281452e-01   4.8341564e-01  -5.8542597e-02   4.3285434e-01   5.9396008e-01   8.2435046e-01  -2.1407445e-01   2.3451563e-01  -3.3941911e-01  -4.5523444e-01   7.4811657e-01   8.7535504e-01  -9.2980732e-01   7.7098488e-02  -7.3731903e-01   2.2921956e-01  -4.7260038e-01   6.3682008e-01  -1.7371169e-01   7.4365153e-02   7.8517938e-01  -2.3931271e-02  -6.9706314e-01   5.8799794e-01  -5.3074806e-01  -5.2951307e-01  -4.7400424e-01  -2.0351353e-01  -1.6221455e-01   9.2389886e-01   6.2293230e-01  -6.9497264e-01  -9.5968213e-01  -1.0778606e-02   5.5197168e-01  -9.4357189e-01   6.3398016e-01   1.9716155e-01   1.6245130e-02   1.5369392e-01   4.3149350e-01   9.7326414e-02   5.9767084e-01  -6.1146425e-01  -4.2627245e-01  -6.2907307e-01  -3.7951527e-01   7.9321618e-01   6.6301257e-01  -4.5380265e-01   2.3568498e-01  -1.7620980e-01  -1.7694038e-01   7.3538670e-01  -1.3691252e-03   6.0179142e-02   2.5562943e-01   4.1977787e-01   6.6153145e-02  -9.0892715e-01   8.1524306e-01  -5.6058504e-01   9.3189474e-01  -1.7453183e-01  -4.1101838e-01  -8.5291143e-01  -5.7759512e-01  -3.7881867e-01   9.1931388e-01   1.4531355e-01  -4.9263371e-01   7.3695303e-01   9.1332936e-01  -9.9602944e-01  -6.7745051e-01   3.5227337e-01   8.3447938e-02   8.2229972e-01  -2.3474735e-01   2.0769221e-01   7.2809932e-01   6.9138151e-01   4.9444888e-01  -3.5730612e-01   5.6619905e-01   5.2581530e-01   1.8904418e-01  -1.8230889e-01   8.8018087e-01  -2.6131336e-01   7.0154606e-01  -1.6405173e-01  -6.0478640e-01   6.9751945e-01  -2.7435517e-01  -2.8082854e-01  -5.6011636e-01   5.0313112e-01   8.4447807e-01   1.4800841e-01  -9.5153993e-01  -3.7259428e-01  -3.2673192e-01  -7.2619069e-01  -5.3602316e-01   3.1978661e-01  -2.8871148e-01   4.2708893e-02  -3.4258968e-01   7.1650270e-01   3.6819697e-01   4.0258933e-01   6.2432951e-01  -5.6458908e-01   6.1130337e-01   9.2525436e-01  -2.6286776e-01   6.1524261e-01   5.9083620e-01   8.4133980e-01   5.9933186e-01  -9.9036399e-01  -8.8779957e-01   4.7343118e-01  -7.3916257e-01   9.1735689e-01  -5.0134670e-01   5.2430058e-01  -6.4894327e-01  -9.9164516e-01  -6.2214215e-02  -5.0960607e-01  -2.3088344e-01   5.5124924e-01  -9.9757918e-01   3.3617789e-01  -6.5094218e-01  -8.8964554e-01  -5.6583060e-01  -5.0811025e-01   4.3027469e-01  -7.5706835e-01   5.5583264e-01  -9.6560792e-01  -7.1934277e-01  -5.5765881e-01  -7.2053888e-01  -6.2057476e-01  -2.5826552e-01  -5.8666184e-01   1.1652066e-01   9.9699658e-01  -7.6495032e-01  -6.6165947e-01   8.9158538e-01   6.2952783e-01  -6.9423899e-01   1.2790826e-01   5.9343104e-01   9.3286817e-01   1.2368070e-01   7.5673255e-01   5.0408825e-01  -1.3074171e-01  -4.8413049e-01  -1.8610945e-02  -1.2937469e-01  -7.3742043e-01   2.7864166e-01   2.3489943e-02   3.8587110e-01   6.7459356e-01  -2.2867216e-01   1.0756908e-01   9.8561751e-01   3.7944678e-01  -7.3732996e-01   3.1880332e-02   6.7421778e-01   4.3289711e-01   6.2663547e-01   5.5267058e-01   2.6176081e-02   7.8216340e-01  -3.2288189e-01  -2.5044336e-01  -9.6940022e-01  -2.9204432e-01   2.2064974e-01   3.6686170e-01  -2.5815187e-01  -6.1999713e-01   8.3220499e-01   8.0831523e-02  -1.5266729e-01  -7.7191118e-01  -7.5788181e-01   9.6599837e-01  -5.0587173e-02   5.8500136e-01  -5.6113105e-01   6.7624789e-01  -1.7940233e-01   3.5247988e-01   5.1569885e-01   6.9531203e-01  -6.1983094e-01   7.1468896e-01   8.4002605e-01   7.3599691e-01  -9.3947882e-02  -8.8540210e-01   7.9926533e-01   2.9627133e-01   3.2796457e-01  -8.3547649e-01   8.5888796e-01   5.3775307e-01  -3.2686682e-01  -7.1420509e-01  -7.7208648e-01   7.2203906e-01   8.1917624e-01  -1.6224442e-01  -2.6975239e-01   8.1364881e-02  -3.5029345e-01  -4.6822163e-01  -6.7579757e-01  -4.6233198e-01   9.8459422e-02  -7.9193786e-01   2.4080473e-01  -2.1002348e-02  -1.2576634e-02  -4.1421117e-01   9.0442143e-02   3.1799446e-01  -4.4204513e-01  -2.9754521e-01   7.7519795e-01  -5.9115605e-01  -1.7206761e-01  -3.7021974e-01   2.9244786e-01  -2.7184929e-01  -1.3354464e-01  -9.2534651e-01  -1.8767755e-01   8.7751306e-01   1.8592017e-01  -9.4978971e-01  -9.3404648e-01   4.6228193e-02   3.4117900e-01  -2.8338261e-01   3.4569838e-01  -3.4916175e-01   2.7825628e-02   8.4665419e-01  -6.6163988e-01   5.2301912e-01   1.9264190e-01   3.9484014e-01   5.5706869e-01  -2.6403337e-01   1.0368906e-01   7.8164044e-01   8.8191506e-01   2.9275988e-01   3.9800212e-01  -5.9036317e-01   3.1164241e-01   5.1755657e-01  -3.9110376e-01  -7.2709040e-01   4.1874756e-01   1.8895496e-01  -8.4313457e-01  -6.2014636e-01   4.2071537e-01  -4.3705593e-01  -4.5570722e-01   9.4192951e-01   6.8713019e-01  -1.8978356e-02   4.1827456e-01  -1.9042164e-01  -3.0162405e-01   6.5793810e-01   8.8407864e-01  -8.6750878e-02  -5.7510076e-01   1.0274647e-01   1.1685353e-01  -2.3630487e-01   3.1479520e-01   7.9050720e-02  -7.1335332e-01  -6.5634023e-01  -6.7459858e-01  -7.7653724e-01   4.1215844e-01   8.9287955e-01   6.1383370e-01   3.3217308e-01  -7.6159689e-01  -7.7898035e-01   5.2423904e-01  -5.7850037e-01   6.9313973e-01   5.1793360e-01   7.1243321e-01   6.0803475e-01  -6.6374731e-01   1.6962419e-01  -4.4822795e-01   2.0262567e-01  -3.5834180e-01   8.1513311e-01   9.6626365e-01  -9.9150113e-01   8.3949049e-02   4.7836474e-01  -7.0326932e-01  -4.4962564e-02  -7.5373853e-01   8.6565241e-01  -9.3220352e-01   3.3219043e-01  -3.8783695e-01  -9.6347484e-01   3.8063935e-01   1.7168524e-01  -3.3012082e-01  -8.6543051e-01  -6.7313175e-01  -1.8751660e-01  -5.4870246e-01  -7.3523787e-02   5.9574617e-02  -7.3025385e-01  -9.1438290e-01  -6.2471362e-01   8.3651554e-01  -2.1995775e-02   3.0995622e-01  -4.1231006e-01  -2.4257272e-01  -6.7911305e-01  -5.7989225e-02   1.9259043e-01  -2.4168523e-01   6.0399901e-01  -2.9008304e-01   5.8160747e-01   7.5854518e-01   1.4332976e-02  -6.8355975e-01   9.1467385e-02   6.1810808e-01  -6.3148871e-01   1.8744476e-01   4.0376975e-02   4.0642364e-01   5.1517070e-01   8.4739506e-01  -2.9752862e-01   6.9764266e-01  -3.3377044e-01   1.6635321e-01  -3.7964080e-01   5.4242897e-01  -3.1336032e-01   5.5639924e-01  -2.0282110e-01  -3.6071212e-01  -6.8004750e-01   8.9210122e-01  -5.6741603e-01  -8.2831851e-01   6.0643670e-01  -1.8476667e-01   7.4513541e-02  -6.2745075e-01  -9.0898415e-01   1.8173020e-01   6.2744911e-01   9.0781580e-01  -4.2480078e-01   7.5839399e-01  -5.9457281e-01  -8.5395595e-01  -4.4281094e-01   7.7346468e-01  -1.9611660e-03   1.9026992e-01  -8.2298859e-01  -6.5834530e-02  -1.4445880e-01   6.8950845e-01  -2.4704823e-01  -4.8042221e-01  -6.3102165e-01   6.9218356e-01   2.3237427e-01  -6.1752227e-01  -4.6558891e-01  -2.2801351e-01  -8.1293993e-01  -1.9347693e-01   8.6595835e-01  -5.2257182e-01   9.5765049e-01  -6.6575111e-01   5.7700986e-01  -9.4575804e-01  -7.8080708e-01   9.0498764e-01  -4.7409311e-01  -3.9333994e-01  -8.1392223e-01  -5.3112449e-01  -1.1696881e-02  -4.6876818e-01  -8.9265855e-01  -5.4393013e-01  -6.2976012e-01  -4.3581147e-01  -5.9907340e-01   5.7030494e-01  -3.8648037e-02   8.5986221e-01   4.2440685e-01  -3.6314664e-01   6.8843702e-01  -8.6358681e-01   2.9611408e-01   3.9595010e-01   6.9379391e-01  -3.0011667e-01   5.3488467e-01  -1.3740260e-02   3.3456448e-01  -5.5252823e-01  -7.0374876e-01   2.5128131e-01   9.5973457e-01   9.5256572e-01  -9.5915694e-01   9.0461109e-01   6.2843440e-01  -7.5578118e-01   8.0416576e-01  -8.3896529e-01  -9.8880748e-01  -2.4314426e-01  -8.0806495e-01  -9.5284524e-02   2.0941446e-01  -2.6480730e-01   2.4577206e-01   7.4436552e-01   9.6993876e-01   4.4162320e-01  -5.1790589e-01   8.4582949e-01  -8.2346773e-01   1.5498538e-01   4.6813506e-01  -1.9865772e-01  -2.7994578e-01  -5.3076725e-01   1.6846768e-01   3.9529200e-01   7.6701889e-01   5.8341911e-01   4.9385985e-01   1.0782871e-01  -6.3004306e-01  -7.2647718e-01   9.5556232e-01  -1.6558537e-01  -9.3036059e-01   7.4621519e-01  -5.6750901e-01  -6.7809292e-01  -7.8102136e-01   7.7251553e-01  -2.1270258e-01  -4.1062656e-01  -8.5452929e-01  -4.1228508e-01  -4.4717325e-02  -2.3934373e-01  -3.7944160e-01  -2.7979911e-01  -5.8362111e-01  -7.2603497e-01  -7.8027870e-01   9.0471080e-01  -6.7283159e-01   1.2589614e-01  -6.2580875e-01  -6.9223900e-01   1.4965112e-01  -9.0176657e-01   8.5264008e-01  -8.3793933e-01   9.4827667e-01  -6.8717261e-01  -5.5776419e-01  -3.9925784e-01  -3.2892649e-01   7.8727868e-01   7.4437212e-01  -2.0225861e-01  -7.0570244e-01  -5.6412671e-01  -7.9499938e-01   5.3112630e-01  -2.5245424e-01  -8.5103984e-01  -4.0001132e-01   2.6674673e-01  -4.8230447e-02  -8.2668660e-01   2.5944589e-01   3.7980293e-01   5.1648109e-01  -1.7084176e-02   2.1965112e-01  -2.0418682e-01   8.9522729e-01   7.4146749e-01   3.2525806e-02   8.3465754e-01   9.3588980e-01   5.4403113e-01   3.0314750e-01  -9.0665949e-01  -8.7490788e-01   5.6684521e-03  -8.1772788e-01   7.5936064e-01   4.4753472e-01  -1.3442687e-01   8.4645315e-01  -8.2445949e-01  -5.8092563e-01   3.0205458e-01  -8.4990598e-01  -3.3929982e-01  -4.2201846e-02   4.3627585e-01   6.6210112e-01  -4.7183186e-01  -7.0921053e-02  -1.7638324e-01  -9.6741639e-01  -3.9143764e-01  -4.0159459e-01  -8.5795520e-01  -2.0012819e-01   7.7673825e-02  -8.9028420e-01   1.9569365e-01  -3.2551711e-01   6.5014564e-01   9.3939079e-01   7.8311676e-01   6.7210746e-01  -6.0532768e-01   3.9154127e-01  -7.4071058e-01   3.6761693e-01   6.7400016e-01  -7.1974663e-01  -8.9216014e-02  -3.0890324e-01  -7.6418000e-01  -6.3270682e-01   8.4007551e-01  -7.0702147e-02  -7.3858914e-01   9.3223298e-01   2.9888643e-01   3.1642982e-01  -5.2040913e-01  -7.0667099e-01  -8.0013202e-01  -6.4854174e-01  -4.5299809e-01  -8.3019208e-01  -2.2645792e-01  -1.3901910e-01   5.2333310e-01   2.2698476e-01   1.4640766e-01  -4.9670506e-01   8.8202773e-01   9.1203067e-02  -4.3396301e-01   7.1484586e-01  -4.8708551e-01   7.4104411e-01  -7.4711796e-01   1.1256362e-01  -1.3293777e-01  -2.6674483e-01  -9.0744072e-01  -8.7730159e-01   1.5488379e-01   7.0218136e-02  -9.5332862e-01   6.5879488e-01  -1.6409090e-01  -2.1432596e-01  -5.9397348e-01   8.6843394e-01   3.0388479e-01  -5.6762254e-01   4.3299695e-01  -6.0407135e-01   6.7861108e-01   8.9536638e-01   1.4320329e-01  -2.6498163e-01  -9.3501496e-01  -3.9345062e-01  -8.7077130e-01  -9.2834753e-01   9.3775067e-01  -4.3064008e-01  -6.2788562e-01  -9.0804317e-02   8.4172985e-01  -9.0710954e-01   6.9188386e-01   9.7557478e-01   6.1109953e-01   4.4858307e-01   8.0037966e-01  -4.2402047e-01  -1.8962697e-01  -2.9600263e-01  -2.8756527e-01   1.0888534e-02  -3.8597344e-01   8.0378546e-01   7.9334968e-01   3.2391123e-01  -1.4874085e-01   1.6423155e-01  -2.4809080e-01   9.8694769e-02  -7.3633066e-03   8.1579604e-01   2.7649722e-03  -9.5703875e-01  -9.7746694e-01  -7.6710513e-01   7.9952195e-01  -3.2879611e-01  -4.4832185e-01  -3.3024633e-01   6.0048505e-03   3.3720131e-01  -6.7332187e-01   9.3279907e-01  -1.8394510e-01  -9.9332724e-01  -4.4008941e-01   6.5594134e-01  -4.6079010e-01  -2.0769623e-01  -6.2948153e-01   7.0539870e-01  -9.6319544e-01   4.8256978e-01  -6.3840960e-01   8.5095542e-01  -3.2450449e-01  -4.5349950e-02  -4.1043574e-01   7.5067470e-01   2.3581931e-01   4.8924842e-01  -9.3006571e-03   3.5647355e-01  -9.0601710e-01  -5.1152677e-01  -4.7943199e-01  -4.7753596e-01  -2.7990536e-01  -2.1636299e-02   8.9795185e-03   2.9173106e-01   1.3154376e-01  -4.0257779e-01  -1.6366635e-01   1.7260570e-01   6.2737275e-01   6.9192598e-01   7.2532062e-01   3.6342834e-01   5.4177756e-02   6.3284215e-01   4.9213274e-01   6.4716327e-01   7.4803513e-01   1.4095051e-03   9.7275321e-02   4.6392841e-01   9.6737484e-01
   8.6401558e-01  -4.3476058e-01  -7.3284700e-01   6.2232716e-01  -9.5236804e-01   5.8810617e-01   8.9721933e-01  -8.5671186e-02   5.9547051e-01  -9.4480133e-02  -9.7611287e-01   8.0601140e-01   5.1319091e-01   5.9838391e-01   8.1907101e-01   7.0280255e-01   1.0061291e-01  -3.1956483e-01   1.1378169e-01   3.6045485e-01   4.3770152e-01   3.7277323e-01  -9.6256256e-01   8.6201482e-01  -5.6274511e-02  -6.8786118e-03  -4.1380401e-01  -7.1095419e-01  -7.6099478e-01  -6.7423598e-02  -2.1518112e-01  -5.9094057e-01  -7.3125577e-01   6.6729271e-01  -7.2163155e-02  -2.7449941e-01   9.9164487e-01   1.4319223e-01  -2.8110670e-01   2.5171822e-01  -1.1928222e-01  -1.6409802e-01  -4.4800655e-01  -1.3727786e-01  -7.9836717e-01  -4.9115867e-01  -6.9140513e-01  -3.2720687e-01   8.6313273e-01  -8.5599488e-01   2.0981858e-01  -3.9182024e-01  -5.6017162e-01   3.9614759e-01  -6.1699553e-02   7.7345706e-01   4.4639246e-01  -6.2082711e-01   6.2677599e-01   4.8752555e-01   7.7892676e-01  -9.3753621e-01   3.5199935e-01   7.2830916e-01  -8.2586778e-01   1.7379345e-01   3.6340846e-01   8.5711019e-01  -2.0279606e-01   2.3840310e-01   8.6861317e-01  -1.5034329e-01   9.9490052e-01   9.1832846e-01   8.9887595e-01  -6.3918103e-01   4.5242323e-02  -2.8940776e-01  -4.0189363e-01   9.6755028e-01  -9.0380542e-01  -6.7192078e-01  -1.4927911e-01  -9.2547447e-01   2.6294798e-01   5.1015304e-01   5.0751509e-01  -5.7702321e-01   5.2978156e-01   2.0594163e-01  -3.0012214e-01   4.0355149e-01   5.6138437e-01  -7.0174583e-02  -3.3618633e-01   2.3251129e-01  -6.1742074e-01   9.3296688e-01  -3.2200314e-01  -4.2526047e-01   4.8521788e-01  -6.8755183e-01  -1.7160072e-01   9.7760897e-02  -1.2643693e-01  -2.3052455e-01  -8.7127364e-01  -7.2081724e-01  -1.9497655e-01   9.9690952e-01  -9.5680409e-01  -4.1025615e-02  -6.1583325e-01   3.2028228e-02  -3.4159831e-01   5.1839285e-01   6.0514752e-01   2.7234675e-01   4.4435780e-01   1.2405060e-01  -3.5668900e-01   5.7916310e-01  -3.9044464e-01  -1.9755136e-01  -2.9521637e-01  -8.7949794e-02  -6.5393211e-01  -7.1683619e-01   7.1242468e-01  -2.9973059e-01  -1.3957047e-02  -4.9969502e-01   7.4033148e-01   4.4854798e-01  -2.1557943e-01   5.9887532e-01  -6.8673098e-01   7.6508734e-01   6.7532306e-01  -1.9438139e-01   2.8558478e-01  -2.5412523e-01  -9.8839394e-01  -9.4209591e-01   6.8049814e-01  -5.7692150e-01   7.1155659e-01   2.1532076e-02  -9.8068547e-01   2.6822821e-01  -7.5784570e-01   9.3558321e-01   5.6813634e-01   7.7508438e-02   7.9550332e-01   2.2681288e-03   5.9326784e-01   5.9570683e-01  -8.7723090e-01   6.1644122e-01   7.4985930e-01   1.3226946e-01  -6.6783828e-01  -5.7256505e-01   2.2835247e-01  -3.4014755e-01  -2.8859789e-01  -7.1663220e-02   1.8254817e-01  -3.0045258e-01   6.6925648e-01   3.6418509e-01  -9.1181380e-01   7.9514769e-01  -2.7585162e-01  -4.3734822e-01   7.2681156e-02   1.8870727e-01  -4.1509615e-01   2.1346491e-01  -6.2981304e-01   3.1393851e-01   4.5186413e-01   3.8475089e-01   8.9752278e-01  -1.8834763e-01   8.2721384e-01   9.8531478e-01  -8.3921327e-01   8.1454376e-01  -7.5966816e-01  -3.7972980e-01   3.1324606e-01  -6.7045057e-01  -7.8345716e-01  -2.3037541e-01  -8.5159359e-01  -4.8466952e-01   1.5496170e-01   9.5575104e-01   7.1304097e-01   5.4971522e-01  -1.0935555e-01   9.2209378e-01  -5.2263440e-01  -4.9927789e-01   5.4991785e-01  -3.2848583e-01  -7.0441005e-01   1.1326612e-01  -8.7327316e-02   4.1640435e-02  -8.4937172e-01   8.3042283e-02  -2.1668413e-01   7.6817702e-01  -3.7503886e-01   3.3639850e-01  -3.2356268e-01   8.1562742e-02  -9.3734519e-01   2.2690552e-01   5.2853948e-01  -8.3485050e-01  -2.7995069e-01   6.8299413e-02  -4.8519964e-01   3.8078851e-01   1.3286996e-01  -5.3914118e-01   7.7089305e-03   3.4292518e-01   1.5530817e-01  -6.9448761e-01  -7.7260764e-02  -9.6981317e-01   4.5015954e-01   7.6239164e-01   5.2597554e-01   3.8208928e-01  -1.7674779e-01  -7.0353080e-01   6.3233311e-02   8.3147423e-01   3.4797749e-01   1.4524814e-01   2.7854656e-01  -8.8976054e-01  -4.5042018e-01  -9.1313328e-01  -1.6176228e-01  -3.2141311e-01  -1.1135939e-01  -7.5239191e-01  -5.3399778e-01  -4.6643410e-01  -6.3864976e-01   8.9092432e-01   1.9722947e-01   1.2908834e-01  -4.0989615e-01  -4.9132574e-01   1.4303991e-01   2.7675955e-02   9.5612986e-01   4.3487927e-01  -9.9005105e-01  -3.2570274e-01   6.8369023e-01  -9.1757007e-01   1.6330092e-01  -3.5371649e-01   8.5462376e-01  -6.8265427e-01   5.8595663e-01   4.9530068e-01   7.4166130e-01  -6.5506533e-01  -2.2194671e-01   2.2690649e-01  -5.2036189e-01   5.3504121e-01  -9.4460289e-01   5.5648814e-01   8.1965034e-01   4.7834557e-02   1.7649614e-02   2.8265514e-01   1.4852989e-01  -5.3764991e-02   9.5134546e-01  -6.2550951e-01   9.7544780e-01   1.2161816e-02  -8.2864790e-01   5.8986937e-01   8.1664244e-01   4.2810201e-02  -5.6543572e-01  -6.0210183e-01  -4.7682269e-01  -1.0985024e-01  -8.6679234e-01  -3.5208517e-01  -5.7975773e-01   5.0334974e-01  -5.1429559e-01   3.4567267e-01  -5.9961805e-01   9.3735033e-01   7.3632749e-01   1.9940310e-01  -5.2624192e-01  -7.4817962e-01   4.8177156e-01  -3.5632952e-01   7.0650965e-01  -8.2035716e-01  -7.8000339e-01   3.2902213e-01  -7.8513368e-01  -6.6393465e-01   4.7056489e-01   7.6783588e-01   8.2186704e-03   4.2451695e-01   2.3408830e-01   6.6970608e-01  -1.0011989e-01  -1.5461252e-01  -2.8846871e-01  -3.9687556e-01   4.9073218e-01  -8.5703067e-01   6.9993824e-01  -7.3032162e-01   3.7887680e-01   8.6831766e-01  -6.3068762e-02   9.8738798e-01   1.9277353e-01  -4.2276947e-01  -6.6527741e-01   5.9171441e-01  -1.7071755e-01   2.3813132e-01  -1.5244222e-01   1.4118817e-01   8.3414204e-01  -1.7121323e-01   1.4029902e-01   4.4526717e-01  -6.6359338e-01   1.6876734e-01  -1.6842940e-01   1.5070180e-01   4.3267511e-01  -1.4451337e-01   9.8754743e-01   2.4966192e-01   7.5131686e-01   9.4943336e-01  -4.9254907e-01   9.3592389e-01   8.7042598e-01  -9.7509488e-01  -7.1689763e-01  -2.4239579e-01  -4.5635808e-01  -6.5240220e-01   8.6727255e-01   5.3209184e-04   3.7177811e-01   2.8547546e-01   7.2559570e-01   4.9017049e-01   5.3251098e-02  -7.3907013e-02  -2.2516715e-01  -8.4086949e-01   5.7222429e-01  -8.9764582e-01   3.8344724e-02  -9.0166660e-02  -8.9360140e-01   5.0626338e-01  -3.5199396e-01   9.7153111e-01  -1.4250472e-03   6.4284049e-01   5.7616038e-03   5.3923428e-01  -4.3819854e-02  -3.9525872e-01  -4.1363904e-01  -3.4354537e-01   7.4883796e-01  -6.9518407e-01  -6.9243943e-01  -2.9195695e-01  -4.9959118e-01  -1.4042017e-01   8.0193580e-01  -8.5299677e-01  -8.6262226e-01   6.7449101e-01   1.3965824e-01  -3.7501114e-01   1.4437056e-01  -6.3081364e-01  -2.2601003e-01   6.6816056e-01  -2.2890099e-01   1.3587338e-02   4.1380966e-01  -4.6506400e-01  -3.5556557e-01  -4.4526608e-01  -4.0173501e-01   2.2193434e-01   2.8746469e-01  -4.1279457e-01  -5.2100435e-01   9.9677374e-01  -3.0427970e-01   6.1778144e-01  -6.3987724e-01  -4.9933021e-01  -3.6890886e-01   3.4513448e-01   4.8848162e-01   7.6535037e-01   3.4510627e-01   7.2453283e-01   2.9138275e-01  -1.9804938e-01   1.3758049e-01   7.6938872e-01  -7.5118371e-01   7.3943958e-01  -2.5965875e-01  -9.9443837e-01  -4.5594807e-01  -7.2729604e-01  -5.5642957e-01  -1.9723783e-01  -4.8198233e-01   9.3135698e-01  -7.2585183e-02  -5.0392891e-01  -4.1292434e-01   4.7629099e-01   2.4366574e-01  -2.3951322e-01  -6.4904345e-01   7.6884388e-02   9.0736351e-01   7.5882691e-01   4.4736115e-01   1.9157328e-01   3.9167656e-01  -7.3255997e-01  -5.4858704e-02  -5.5971899e-01   5.5360777e-01   4.9049559e-01  -9.1431119e-01   1.9708058e-01   4.3816539e-01  -7.6464994e-02  -2.5340410e-01  -3.7675562e-01  -3.3404964e-01  -8.0819027e-02  -6.4401416e-01  -5.9556429e-01   3.0284628e-01  -1.7028696e-01   3.5767920e-01  -2.6271317e-01  -9.7087576e-03   7.2785786e-02  -7.3632711e-01  -1.3129835e-01  -3.8700648e-01  -9.8290850e-01  -3.8491569e-01   2.8169663e-02  -4.4667314e-01  -5.7630240e-01  -8.9958237e-01  -7.9704511e-01  -3.2320585e-01   2.4716538e-01  -6.5599522e-01  -1.8752448e-01   3.5445601e-01   7.7833675e-01  -5.4641153e-01  -2.0580778e-01  -8.1533984e-01  -9.2804345e-01   9.1295643e-01  -3.8306247e-01   2.0157965e-02  -9.6709778e-01   8.1299670e-01  -1.5157399e-01  -8.1434584e-01   9.4623753e-01  -7.7004460e-01  -8.0881606e-01   3.2513245e-01   1.8811821e-02   9.1430653e-01  -3.0338143e-01  -5.8151832e-04  -3.9996836e-01   5.3915441e-01  -8.6700041e-01   4.0037775e-01   2.6855615e-01   2.5761743e-02  -8.5493643e-02  -6.0280243e-01   2.3907074e-01   8.1477476e-02  -4.8259337e-01  -3.4941992e-01  -3.7286214e-01   3.6309601e-01   2.4351812e-01   4.0989762e-01  -6.9060277e-01  -3.9213576e-01   3.0183349e-01  -2.5131670e-01  -1.8623099e-02  -1.7488430e-01  -2.8722402e-02   2.7936650e-01  -3.4679271e-01   3.1070819e-01   8.0272219e-01   8.5636805e-01  -9.4493420e-01   7.5726946e-01   4.0703536e-01  -4.0748654e-01   4.4536641e-01   4.1037205e-01  -6.0682416e-01  -5.6782840e-01   1.8442291e-01  -6.4366714e-01  -7.1096889e-01   9.3424973e-01  -8.2452181e-01  -5.9460776e-01   2.9052154e-01  -1.8006729e-01  -2.7402932e-01   1.6520393e-01  -8.2610924e-01   5.2791594e-01  -7.1827577e-02   7.7627268e-01  -3.4314246e-01  -9.0218098e-01  -4.3815692e-01  -3.0568386e-02  -7.5600662e-01  -3.3668988e-01  -5.2983559e-01   6.4113962e-01  -8.3192854e-01   2.5755134e-01  -8.7084426e-01  -2.8513712e-01  -5.1745121e-01  -1.5598027e-01   5.9847495e-01   1.7463883e-01   6.9122645e-01   5.5628476e-02   8.5074970e-01  -7.6558622e-01  -9.1650493e-01   1.7230126e-01  -7.3035595e-01  -5.3901679e-01   8.8813103e-01   7.2015674e-01   7.6683552e-01   8.5876370e-01   3.2792254e-01   2.0351505e-02   6.7580532e-01   5.1932632e-01   6.1648619e-01   8.1596731e-01   7.0574482e-01   6.9523020e-01  -5.2603558e-01   5.3858373e-01   6.4019384e-01   6.3224383e-01  -5.6694063e-01   8.9532548e-01   5.7344595e-01   8.7528462e-01  -5.3293598e-01  -6.0640696e-01   9.7253660e-01   1.5015026e-01  -1.1174584e-01  -5.6440989e-01   7.7511692e-02   4.8481375e-01  -2.6206702e-01  -8.1675236e-01   4.8958728e-01  -7.1357042e-01  -8.0547438e-01   1.8136306e-01  -7.9028235e-03  -4.7790789e-01  -7.2878188e-01  -6.8195351e-01   7.9293068e-01   8.9387169e-02   4.3835657e-01   9.8066252e-01   5.5500907e-01  -9.7997275e-01   5.7280970e-01  -1.7683865e-01   3.6634982e-01  -6.3542208e-01   9.9559852e-01   2.0806600e-01   8.0722794e-01  -6.8251766e-02   9.1345668e-01  -8.2627737e-03   8.4098082e-01   2.1209816e-01  -7.6991506e-01   4.4100218e-01  -2.6203085e-01   2.0786506e-01  -7.5978661e-01  -9.3087616e-01  -6.2596033e-02  -2.4266049e-01  -5.0071388e-01  -8.5959171e-01  -7.2348567e-01  -2.4502584e-01   7.4527561e-01  -5.8131542e-01   3.4346137e-01  -3.2302731e-01  -2.8930074e-01  -4.3949527e-01  -9.5809538e-01  -8.0415603e-01   5.1648705e-02   5.1996043e-01   4.1792885e-01  -6.5553465e-01  -7.6536880e-01   9.4857998e-01  -7.5690341e-01  -3.8328827e-01   6.6029229e-01  -6.5712702e-01   8.4800503e-01  -2.2850679e-01   3.4311394e-01  -5.5126292e-01   6.6926447e-01   9.2962047e-01  -7.4297645e-01  -7.4237696e-02   1.1506149e-01  -8.5417100e-01  -8.7057990e-01   6.9439102e-01   8.5041030e-01   2.4303177e-01   1.2882429e-01   9.1287062e-01   6.8891770e-01   7.7225874e-01   8.4063028e-01   3.7974162e-01  -7.3772507e-01   1.7109798e-01   8.4992443e-03   6.6063777e-01  -1.6270778e-01  -4.9876877e-02  -5.5948292e-01   7.4253637e-01   1.9227642e-01   2.9812196e-01   9.9089905e-01  -2.6124985e-01   9.9219234e-01   4.5071618e-01   5.6516492e-01  -4.1858892e-01  -6.6172321e-01  -1.6058224e-01  -8.5112384e-01  -2.3700424e-01  -8.2199298e-01   7.3471905e-01  -7.8480080e-01  -4.4547391e-01   1.0758622e-01  -1.9499925e-02  -4.3905018e-01   5.9127293e-02   1.3583503e-01  -6.9313137e-01  -6.6338887e-01  -1.5519569e-02   5.1939992e-01  -8.2689490e-02   8.3225862e-01  -2.3419928e-02  -6.9048961e-02  -7.8850117e-01  -2.1747420e-01   5.5485993e-01   6.0049368e-01   4.8384258e-01   1.0027483e-01  -5.0338044e-01   8.8181718e-02  -3.9586030e-01   3.7411732e-02   5.8174502e-01   3.9173604e-01   3.3319781e-01   7.9682759e-01   5.7216621e-01   2.0266990e-01   8.2493298e-01  -7.9589648e-02   5.9059425e-01   8.9028074e-01   9.3817343e-01  -6.6404045e-01  -9.7909070e-01   1.5831616e-01   9.0250809e-01  -6.6007321e-01  -2.7740340e-01   3.3462354e-01  -5.5967192e-01   7.0519447e-01   8.7891619e-01   2.0275289e-02  -3.6046646e-01  -8.5901941e-01   1.5398560e-01  -7.8237452e-01   1.1283817e-01  -8.1394739e-01   6.7382700e-01  -4.7884011e-01   6.4444727e-01  -5.3247357e-01   6.5280392e-01   5.9897860e-01  -1.2475244e-01  -9.9490594e-01  -2.2818095e-01   7.8660259e-01  -6.1712053e-01   2.3615164e-01  -7.6762344e-01   6.0422742e-01  -6.8976664e-02   1.6489728e-01  -6.1883030e-01  -8.9346005e-01  -4.1049515e-01  -7.7268691e-01  -5.7654854e-01   7.8980589e-01  -7.8565850e-01   2.6686857e-01   8.1325006e-01   4.6175187e-01   5.9577938e-01   4.5077462e-01   7.0439978e-01  -1.9841031e-02  -3.3849787e-02  -6.3755655e-01   1.1682995e-01   2.0965254e-01   4.3054304e-01   2.9366569e-01   1.0322272e-01   3.8850494e-01   2.6342520e-01   6.3869764e-01  -3.9852803e-01  -4.9663589e-01  -7.5538564e-01   6.8625610e-01  -4.5601651e-01  -3.4261635e-01   8.0276871e-01   7.5192921e-01  -1.8304834e-01  -8.7448809e-01   5.0912346e-01  -9.0230343e-02   8.4003227e-01  -5.5002491e-01  -7.1486787e-01   3.3269129e-01   4.6855188e-01  -9.8003248e-01  -6.9105330e-01   3.9210873e-01  -9.8527332e-01   7.7591199e-01  -7.6977694e-01   5.0475138e-01  -6.3747885e-01  -6.7808618e-01   8.4184825e-01  -1.5500030e-01   5.2251852e-01   2.7381730e-01  -3.8890779e-01   3.1923351e-01  -7.6925437e-01   8.3735944e-01   1.7385902e-01  -6.9866745e-01   6.2639662e-01  -6.5338925e-01   7.8708710e-01   8.5714152e-01   7.6774894e-01  -8.8642106e-01  -6.2119709e-01   8.6997346e-02   8.4898138e-01  -7.2673459e-01   4.8996592e-01  -1.3447225e-01  -8.9857266e-01   3.6684863e-01  -8.6730217e-01   1.1258204e-01  -6.7910163e-01  -2.1986559e-01   4.5978647e-01   7.8334470e-01   9.0148717e-01   3.1844267e-01  -2.9563251e-01  -1.3783081e-01   5.3424324e-01  -6.1217838e-01   6.5324049e-01   3.6035405e-01   1.5385358e-01   2.1501370e-01  -9.0907119e-01  -8.7281929e-01   8.8156819e-01   4.0636839e-01   2.0169051e-01  -5.0055560e-01   9.7168990e-01  -6.2494962e-01   2.6407336e-01  -4.5791835e-01  -5.6277959e-01   3.3290328e-01  -9.7603291e-01   5.5940114e-01   1.2015990e-01  -3.1505212e-01  -6.7365753e-02  -8.2234833e-01   5.3397910e-01  -5.1011839e-01  -3.9615733e-01   6.4574621e-01   6.9682524e-01   8.0851506e-01  -5.8488235e-01   8.0836191e-02  -7.9983155e-01   4.6732657e-01  -4.0723222e-01  -2.3243438e-01  -4.1412787e-01  -7.7091676e-01  -4.8661548e-01   2.5707380e-01  -5.3398767e-01  -3.1376046e-01   3.3844116e-01  -9.2105966e-01  -5.2048496e-01   8.3364435e-01  -8.9345363e-01   8.8637688e-01  -7.0448533e-01  -6.0792363e-01   5.0564339e-01   1.8138260e-01   6.4957132e-01  -8.8340818e-01  -6.8833121e-01  -5.5309972e-01   8.0743997e-01   5.5934148e-01   3.7473729e-01   6.5922844e-01  -3.0987869e-01  -7.9675440e-01  -6.1737307e-01  -9.9038426e-01   1.0121358e-02  -1.4070714e-02   4.5252205e-01  -6.7299703e-01   9.2668181e-01   1.8659990e-01   9.8901525e-01   6.1176366e-01   7.7579034e-01  -5.3933496e-01  -6.1854701e-01  -7.4610209e-01   6.4131894e-01   9.7025936e-01  -9.2531669e-01   7.9767661e-03   2.1558037e-01  -3.0108555e-01  -3.2884927e-01   9.7862678e-02  -9.0987433e-01  -6.7322623e-01   9.4730862e-01   2.9121837e-01  -1.0293416e-01  -6.0064160e-01   4.2996441e-01   1.3750951e-02   8.5466810e-02   8.9900183e-01   7.7164792e-01  -3.6891248e-01  -9.0107090e-01  -4.6378461e-01   3.7320215e-01  -5.8315775e-01  -5.7924845e-01  -3.5332793e-01   7.4340808e-01   9.4515884e-01   6.9935738e-01   9.5516567e-01   1.6477000e-01   1.5375444e-01  -4.1363151e-01  -6.7570380e-01  -6.2389551e-01  -5.9285493e-01  -9.4095565e-01   1.7690342e-01   8.6420919e-01   4.0634112e-01  -3.6441349e-01   7.1955179e-01  -1.8304073e-01   9.0151845e-01  -3.2664966e-01  -3.1704341e-01   2.9438326e-01   8.9403094e-01   2.9344091e-01  -5.6830167e-01  -1.8263914e-01   4.9940667e-01
  -2.7239875e-01  -3.8579627e-01  -8.4634488e-01   8.0543841e-01  -8.4834198e-01   6.8432652e-01   4.4513568e-01  -7.1852718e-02   3.7437033e-02  -7.7097447e-01   6.9688798e-01  -5.0047833e-01   6.8098550e-02   8.2059155e-01  -9.8820933e-01  -5.8677633e-01   1.6690806e-01   2.5312827e-01   2.5060130e-01  -2.9189387e-01   2.0278575e-01  -6.4985409e-02  -7.0757799e-02  -6.8983534e-01   2.5843864e-02  -4.4786388e-01  -4.6563390e-01  -3.6166245e-01   2.3769899e-01  -8.1280306e-01   2.4722336e-01   8.2392464e-01  -3.7439283e-01   2.4544543e-01  -1.2040093e-01  -3.9941780e-01   7.2050349e-01   3.8515404e-01   5.4490368e-01   5.6481938e-01  -9.5192193e-01   1.7842982e-01   5.0874312e-02   7.8938866e-01  -9.4979217e-01  -4.0426171e-01  -3.8859144e-01   7.2673184e-02  -9.7127275e-01  -8.5674301e-01   2.4785839e-01   1.3441949e-01   4.7514468e-02  -7.8765549e-01  -7.4516738e-01  -6.9535189e-01  -1.3805220e-02   3.5796817e-01  -1.0666106e-01  -6.8667898e-01   8.5105596e-01  -3.1440135e-01   7.9619069e-01  -2.3284723e-01  -2.7645758e-01   9.3066674e-02  -1.4777238e-01   4.3247422e-01  -8.2296880e-01   6.0451476e-01  -9.8081461e-01  -4.1873352e-02  -8.8490507e-01   5.7653515e-01  -2.4676606e-01  -8.3776566e-01   3.0372425e-01  -2.3557256e-01  -3.9013113e-01  -7.6326762e-01   4.6453613e-01   7.1838364e-01  -5.2684259e-01  -5.2883373e-01   5.5556531e-01   4.8807421e-01  -5.2509390e-01  -2.2926789e-01  -8.1567949e-01   4.0134590e-01  -2.4987316e-01  -1.2055993e-01   6.4319994e-02   2.8427759e-01  -2.8853495e-01  -4.2774860e-01   4.1201046e-01  -2.7799631e-01   6.6240768e-01   7.3966883e-02  -4.1855028e-01   9.1716836e-01   5.1044675e-01  -3.5981685e-01   9.9357668e-01   3.4485754e-01   3.7763104e-02   9.4683045e-01   6.2999034e-01  -4.0396171e-01   8.1352578e-01   4.3596772e-01  -6.8302180e-01   3.5953389e-01  -4.2730353e-01  -3.7601001e-02   2.8710462e-01   8.9721655e-01  -5.2872780e-01  -9.1531895e-02   7.1538053e-01  -7.1024997e-01   2.4221702e-01   8.5602023e-01  -7.5911673e-02   5.5337669e-01  -6.0488850e-01  -1.3389332e-01   7.8966127e-01  -9.1462812e-01  -1.2032807e-01  -9.1912572e-01  -9.7594208e-01   1.4328308e-01  -2.4319425e-01  -8.1212617e-01   2.6233214e-01  -3.8171160e-01   2.5494669e-01  -2.7787829e-01  -6.4078547e-01   4.5409941e-01  -9.6978462e-01   4.5850172e-01  -8.5557195e-01  -9.5586998e-01   6.3288413e-01  -6.3597215e-01  -2.1068794e-01  -7.5319565e-01  -9.5110507e-01  -1.3662070e-01  -2.2721123e-01   7.9293174e-01   9.2718125e-01  -2.3945473e-01  -7.1938169e-01  -5.6396263e-02  -6.7975274e-01   8.2104926e-01  -9.3690879e-01  -4.1591908e-01   7.6533176e-01   8.0637718e-01  -3.6190070e-01   8.3222082e-01  -9.0331297e-01   3.0484041e-01  -1.2303759e-01  -2.2369307e-01   5.5681336e-01   3.9671045e-02  -2.3769312e-02   7.5871818e-01   8.6539022e-01  -9.2052679e-01  -6.5523016e-01  -8.5343762e-01  -6.1817812e-01  -7.0458507e-01  -5.8920503e-01   3.0421585e-01  -6.4480384e-01   8.1862469e-03  -2.4432608e-01   5.7441640e-01   8.6689123e-01  -8.1751462e-01   1.9746275e-01   9.0090769e-01   4.5078730e-02   4.4748102e-01   8.7356471e-01   2.4446705e-01   2.6723457e-01   5.7188228e-01  -3.1509003e-01   3.0070946e-01   2.6345571e-01  -6.7064138e-01   9.0259151e-01   1.5676325e-01   3.4245687e-01   8.4325994e-01  -6.1805716e-01  -2.4045625e-01   2.9472392e-01  -9.6569101e-01  -5.0645990e-01  -8.2431636e-01  -8.8681109e-01   3.3326836e-01   5.4776154e-01   3.1501033e-01   7.7501253e-01  -6.9642520e-01  -8.6438647e-01   7.1467618e-01   6.5555103e-01   5.5976977e-01   7.1244553e-01   8.6201822e-01  -2.4164033e-01  -9.4000290e-02  -9.3520868e-01  -9.9907400e-01  -4.6273055e-01  -5.4365225e-01  -3.4562926e-01   4.0674329e-01  -2.2586727e-01   7.6706075e-01   7.7583282e-01   2.1228997e-01   7.8977775e-01   5.4306210e-01   5.3186636e-01  -3.9777852e-01   8.6640545e-01   5.1792643e-02  -2.5273274e-01   5.0272544e-01   4.4892575e-01  -3.7981602e-01  -3.9758737e-01   7.6479244e-01  -5.3581673e-01   9.1286810e-01  -7.1906532e-02  -4.4102174e-01  -6.6464554e-01   5.7473986e-01   9.1787214e-01   6.6812303e-02   8.0949896e-01   2.4567678e-01  -2.7408499e-01   6.4001010e-01  -6.1542444e-02  -3.4680819e-01   1.9578665e-01  -9.3022388e-02  -4.9032746e-01   1.4897480e-01   4.9620219e-01  -3.1405363e-01  -3.6167522e-01  -5.6263877e-01  -9.7475713e-01  -9.2839263e-01  -8.7751904e-01   1.4652435e-01   8.9532702e-01   7.9496798e-01   4.4286593e-01  -4.8148591e-01  -6.0534640e-01   9.4307942e-01   2.8660413e-01   5.5686102e-01   3.9799766e-01   5.2216265e-01   8.6258691e-01  -3.3344944e-01  -9.4738889e-01   4.6046140e-01   5.9589803e-01   6.5204726e-01   9.5335544e-01  -7.7068366e-01  -8.4631655e-02   6.0229252e-01  -1.6884925e-02  -2.2199635e-01  -4.8864194e-02   8.4352959e-01  -1.7332181e-01   3.1574790e-01   9.3238635e-01  -7.2854316e-01   2.1382764e-01   3.4681767e-01   6.6829884e-01   7.0045647e-01  -2.1405378e-01  -5.7034340e-01  -4.3967546e-01   3.5116308e-01  -6.7479947e-01   7.8553939e-01  -2.0804326e-01   7.0537180e-01  -7.5802588e-01  -3.9989250e-01   5.9428200e-01  -6.4389624e-01  -6.8738690e-01   3.7461939e-01   7.4025198e-01  -7.7777552e-01   8.3298671e-01   9.3050193e-01  -8.9807243e-01   7.5948999e-01   7.2644021e-01  -6.8267802e-01   9.2326057e-01  -2.5186038e-01  -1.7930295e-01   6.9769153e-01  -1.4389408e-01  -4.1986145e-02   3.0853250e-01  -8.3288329e-01  -8.2919157e-01   7.5918046e-01  -9.3017776e-01   9.4879531e-01   8.0719818e-01   6.7730625e-01  -7.0488275e-02   5.5867843e-01  -8.2979778e-01   4.3861029e-01   7.5695015e-01  -9.9640141e-01   2.5199506e-01   9.7112681e-01  -9.0115864e-01   6.7805015e-02   8.6386655e-01  -9.2113524e-01   4.6756560e-01  -4.9833422e-01   4.9206796e-01  -1.3439433e-01  -7.7813377e-01  -3.0891776e-01  -1.6521326e-01   5.6745948e-01   8.4050175e-01  -9.5142701e-01  -6.2104957e-01   9.6347264e-01   4.4986936e-01   3.7591806e-01  -9.9343998e-01  -1.4425924e-01   9.9312012e-01  -6.6046219e-01   9.6328236e-02   6.2034344e-01  -3.6949268e-01   9.5529679e-01  -2.1896731e-01  -5.5709912e-01  -1.9390488e-01  -8.7509003e-01   8.9684797e-01  -8.9254147e-01   4.5940420e-01   4.7143021e-01   8.8742040e-01   2.1520096e-01   9.4034738e-01  -8.5664805e-02  -1.4529658e-01  -6.3682704e-01  -7.4962557e-01   7.6417623e-01  -4.9774503e-01  -7.1799667e-01  -8.4449345e-01   9.6749847e-01   9.6152413e-01  -5.4850776e-02   7.8326934e-02   8.2055489e-01   9.3252402e-01  -2.4229516e-01   7.5154753e-01   1.9156736e-01  -2.1546704e-01   5.0237920e-01  -6.6880479e-01  -5.3472267e-01   3.1891530e-01  -4.8693441e-01  -9.6197857e-01   8.2573721e-01  -2.2983272e-01  -5.4683440e-01   7.0547995e-01   4.1936227e-01   9.4593872e-02  -5.7807637e-01  -8.4415351e-01  -8.5329514e-02   2.2177062e-01   3.5972719e-02   3.8693440e-01  -6.4152480e-01   7.2377944e-01   4.6177957e-01   1.3883305e-02  -9.8997566e-01   5.1442118e-02  -4.4258401e-01   4.1068856e-01   8.5612739e-01  -3.4332698e-01  -6.8327118e-01  -7.1105413e-01   4.6780170e-01  -5.9590068e-02   6.5211180e-01  -8.9827289e-01  -5.0702699e-01   8.9810659e-01  -8.4023374e-01   1.6281638e-01  -5.0808775e-02  -1.2166700e-01   8.8474098e-01  -7.8776076e-01   1.0683778e-01  -8.9737687e-01  -2.2930595e-01  -1.5268362e-01  -1.0355669e-01  -6.5464849e-01   7.5471750e-01   9.5228760e-01  -7.4674639e-02  -6.0759660e-01   7.4970681e-01  -9.9102350e-01   1.0885397e-01  -6.7315668e-01  -1.4424230e-01  -1.9166586e-01   7.5721532e-01  -7.5018239e-01   3.8683794e-01  -4.5638597e-01  -5.8097177e-01  -9.0860126e-01  -8.3618066e-01   5.6297623e-01   3.0237698e-01  -5.4653376e-01  -8.3031008e-01   9.9052580e-01   3.2374350e-01   7.6571912e-01  -4.0838693e-01   3.1196828e-01  -3.5845772e-01   4.3571871e-01  -6.9685003e-01   2.9901937e-01   5.1719085e-01  -6.4807287e-01  -1.2084977e-01  -5.8242432e-01  -1.2658417e-01   4.9793194e-01  -4.4178047e-01   3.8198823e-01   4.5065090e-01   6.9663942e-01  -4.0763144e-01   7.5069297e-02   9.4743571e-01   7.6786470e-01  -6.5633008e-01  -1.8065766e-01  -1.5977956e-01  -1.4710804e-01   7.3875732e-01  -1.3676594e-01   8.0287868e-01  -9.0813944e-01   5.5130452e-01  -6.7925411e-01   5.2824855e-01  -6.6850909e-01  -3.4095116e-01   9.8550976e-01  -9.7509233e-01  -5.1247740e-01  -9.2593106e-01  -7.2392839e-01   3.6664437e-01   6.3327960e-01  -5.1273018e-01  -1.7718950e-01   8.9723588e-01   8.5849150e-01  -2.4519572e-01   7.0945117e-01   8.3787402e-01  -9.5217901e-01  -6.2306711e-01  -7.7626243e-01   5.4421872e-01  -5.7543073e-01  -9.9061068e-01   3.2310351e-01  -2.6026167e-01  -9.8657921e-01  -3.3187954e-01  -1.6576210e-01  -2.0119791e-01  -5.6079369e-01   6.7267285e-01  -7.9299557e-01   8.7351256e-01  -3.8634627e-01  -5.5448369e-01   1.1376297e-01   2.8568045e-01   9.4308665e-01  -2.9339036e-01  -2.9627978e-01   8.2906953e-01  -6.8576231e-01  -3.8247842e-01  -5.6117405e-01  -1.5010793e-01   8.7793234e-01  -8.1043258e-01  -7.3004644e-01   4.2666528e-01  -5.1863885e-01  -9.9730428e-01   7.0924178e-01   9.4583813e-01   5.7145748e-01  -4.0713543e-01   9.5194613e-01  -5.5279098e-01   9.3466324e-01   7.6086687e-01  -3.9583814e-01  -9.4011397e-01   5.3036838e-01   9.9213637e-01  -9.0797895e-01  -5.2456887e-01  -3.7802046e-01  -4.0314576e-01  -3.1202265e-01  -5.0746819e-01  -1.4336222e-01   5.9828402e-01   1.2042970e-01  -4.8517721e-01   8.5958992e-01   2.3761626e-02   7.8994396e-01  -1.0563202e-01  -5.6696212e-01   7.5798468e-01  -4.5089305e-01  -5.4569449e-01  -4.6058885e-01  -5.4439572e-01   6.0415139e-01  -1.0840412e-01  -7.9997144e-01   3.7343332e-01  -6.9039029e-01   1.7926214e-01  -1.5855508e-01  -9.8260460e-01  -4.1850464e-01   2.4096766e-02  -7.5293189e-01  -6.6940249e-01  -2.3453147e-01   6.3556485e-01  -7.0186511e-01  -9.6119497e-01   5.1036728e-01   7.3001568e-01  -2.4708350e-01  -1.8493224e-02  -8.1001409e-01   1.4283068e-01  -2.9722687e-02  -8.7544093e-01  -1.1710838e-01   1.8125219e-01  -2.1894457e-01  -2.6729885e-01  -2.0733234e-01   6.8471823e-02  -6.1100618e-01   9.5130013e-01   2.8365818e-01  -9.1286191e-01   3.8973966e-01  -8.5245445e-01   9.9849995e-01   1.6004875e-01   4.6399740e-01  -6.9900745e-02   4.9104369e-01  -1.6263907e-01  -5.7128383e-01   6.1593995e-01   6.8821063e-02  -9.5593787e-01  -3.3191038e-01  -4.3337270e-01   4.3694026e-01   8.6862754e-01   4.3888353e-01   9.7816843e-01   5.8796168e-01  -7.1377236e-01   3.8009025e-01   5.2872898e-01   6.3207913e-01  -3.5231133e-01  -1.4075041e-01  -1.9647329e-01  -4.9488533e-01   4.5310152e-01   3.8813052e-01   2.3892800e-01   7.5050140e-01   4.0702511e-01   7.9877212e-01  -6.3616049e-01   2.1875718e-01   1.0172542e-01  -5.9429704e-01   7.5378868e-01  -3.2803289e-01  -8.9116379e-01  -2.6320651e-01   6.7944166e-01  -5.4620103e-01   2.6565053e-01  -7.7838104e-03  -9.8495922e-02  -2.3083197e-01  -9.9827654e-01   6.9184739e-01  -1.4429659e-01  -6.6413026e-01  -1.3826774e-01  -6.3450641e-01  -6.7082035e-01   7.4237078e-01  -9.7357769e-01  -8.8176682e-01   9.3555408e-01   7.2541355e-01  -9.4326322e-01   1.5453451e-01  -8.1602677e-01  -7.1133018e-01  -7.0810925e-01   3.2252268e-01   3.8217302e-01   7.0989538e-01   1.1298909e-01   3.0421206e-01  -6.8500673e-01  -8.5329991e-01   2.8132246e-01  -3.6819535e-01  -9.7018611e-01   4.0443689e-02   3.7380629e-01   4.6597488e-01  -9.5522748e-01  -7.5014368e-01   5.7242404e-01  -7.9284874e-02   7.8035814e-01   5.1423544e-01   8.6402250e-02   9.9572328e-01  -1.3682864e-01  -7.3033567e-01   7.0903999e-01  -3.0608583e-01  -9.7243657e-02  -5.4803070e-02  -3.3355223e-01  -2.6896263e-01  -4.4630592e-01   6.2593981e-01  -5.1630853e-01   2.5803939e-01  -7.5866048e-01  -7.3966851e-01  -9.3250072e-01   3.9540395e-01   2.4912632e-01  -8.8671465e-01  -6.6201885e-01   2.1573309e-01   5.6297615e-03   2.0655435e-01  -7.7369994e-01   9.3311256e-01  -8.0382954e-01  -9.4469616e-01   3.0430786e-01  -4.8342270e-01  -1.5558493e-01  -7.5913017e-01   8.3615783e-01   9.3688116e-01  -9.9864100e-01  -6.0430582e-01   7.0870767e-01   3.7869017e-01   5.6038112e-03   1.8202822e-01  -3.4376739e-01   9.6366557e-01  -3.1173171e-01  -3.5541389e-01   2.6856138e-01  -8.4168245e-01  -1.0809215e-01   7.8748371e-01  -6.4169303e-02  -6.2430840e-01   9.6500871e-02   5.0304121e-01  -2.4484477e-01   3.1049426e-01   8.4921410e-01  -2.9910324e-02   5.0983875e-02  -6.8608993e-01  -2.4688977e-01  -8.3648578e-01  -1.2758816e-01   3.3947585e-01   2.7742199e-02   3.7291300e-01  -2.8309482e-01   3.0522790e-01   7.5480010e-01  -3.8280558e-01  -9.9173659e-01   8.1693338e-01   3.3986203e-01   5.7317897e-01   4.8438028e-01  -4.1862296e-01  -4.1832305e-01  -5.6405486e-01  -9.5398115e-01   8.0294505e-01  -5.8837954e-01  -1.8668450e-01   7.4673852e-01   3.4625605e-01   6.1967853e-01   9.5650109e-01   5.1990948e-01  -1.4255186e-01   2.2885791e-02  -8.7665371e-01  -7.1676692e-01   7.8385036e-02   8.7375969e-01  -2.1943513e-01  -4.0588344e-01   5.6572491e-01   6.4006990e-01  -7.1550081e-01   9.8135789e-01  -1.2527729e-01  -8.1241105e-01   1.4386239e-01  -1.6701821e-01  -5.0852417e-01  -7.7805206e-01  -3.1022353e-01  -2.3690679e-01  -2.9374964e-01  -2.6344891e-01   6.8808041e-01  -2.2447556e-01  -7.2670149e-02  -7.5548869e-01   8.2090854e-01  -9.9229346e-03   8.0735805e-01  -4.7889110e-01  -7.5455279e-01   5.8244216e-01  -1.1870192e-02   5.9495221e-01   2.0783901e-01  -9.5497613e-01   2.5978860e-01  -3.0477395e-01   3.7233209e-01   4.0623209e-01   1.0645093e-01   7.2222758e-01  -1.4929272e-01   2.4317280e-01  -2.1701219e-01   4.1927424e-01   7.8289278e-01  -1.5635466e-01   3.1928145e-01   8.7203996e-01  -9.0265417e-01  -4.3826132e-01  -4.0483249e-01  -3.2197016e-01  -6.7007298e-01   7.1239989e-01  -7.3571775e-01  -8.1330970e-01   3.6611045e-01   5.1359795e-01   8.5675450e-01  -3.5047705e-01   5.0107310e-01   8.7007161e-01   7.4186273e-01  -3.6196854e-01  -9.1281945e-01  -5.9726727e-01  -2.9525359e-01  -2.8871341e-01   3.4810406e-01  -3.4248564e-01   7.9751951e-01  -2.7009541e-01   5.3766840e-01   8.7519945e-01  -8.8033515e-01  -5.9156946e-01  -1.1558631e-01   4.8758367e-01   3.2273099e-01  -2.9606042e-01   9.4130040e-01   3.8506170e-01   4.3467612e-01   8.6913628e-01  -1.2817262e-01   5.8161879e-02  -9.5914560e-01  -6.9108159e-01   5.6637809e-01  -4.3228817e-02  -6.3186014e-02  -5.1440254e-01  -8.5476897e-01  -7.2271592e-01   3.5900999e-01   8.3340387e-02  -5.6554599e-01  -1.7304481e-01  -9.0631897e-01   5.2096314e-01  -8.9931086e-01   4.2211306e-01   3.2755102e-01   5.1673197e-01  -9.9435178e-01   2.2967394e-01   1.7297650e-01  -9.1431738e-01  -4.0374256e-01  -1.4498374e-01   1.1375493e-01   5.8142244e-01   7.1228444e-01   9.9439933e-01   1.1344164e-01   5.7446155e-01   6.0306584e-01  -6.2674319e-01   4.2398935e-01  -9.6797877e-01  -1.2269552e-01   6.3514345e-01  -3.9332276e-01   1.8782023e-01   1.9827679e-01   1.4775597e-01  -2.3169137e-01  -8.8054582e-01  -7.9886119e-01  -5.5804195e-01   9.2186213e-01   2.7589345e-01  -7.5887349e-01   8.7740026e-01  -9.2195320e-01  -2.5839334e-01   1.5338187e-01   8.7192150e-01   4.2854122e-01   7.5181921e-01   4.8485018e-01  -9.1173531e-01  -7.8831454e-01   4.1250079e-01   1.4779939e-02   7.9848300e-02  -9.9299653e-02  -6.9237325e-01   1.7042723e-01   7.9385873e-01  -2.5584093e-01   1.8015588e-01   5.0367044e-01  -1.0115533e-01  -9.9111495e-01  -3.3704169e-01   3.7504873e-01   8.8503849e-01  -3.6944031e-01  -8.7958702e-01   7.7853685e-02  -7.1791756e-02  -1.0027887e-01   8.7066178e-01  -6.8438466e-01   4.2283021e-01  -8.4026984e-01  -9.6078420e-01  -2.5388289e-01   4.0590280e-01  -4.9209468e-01  -7.0998494e-01  -5.1882428e-01   9.2321733e-01   3.3061107e-01  -9.9857136e-01   5.9155374e-01   4.2245024e-01   5.7579407e-01  -8.3262608e-01  -9.9545201e-01   1.9095476e-01  -2.6052384e-01  -1.2749386e-02   5.3245297e-01  -4.9545543e-01  -4.7552272e-01   6.0074081e-01  -2.2582410e-01   1.3769922e-01   2.0051989e-01   9.9193757e-01   2.9241398e-01   9.6507381e-01  -5.7372829e-01  -9.4277023e-01   8.9349464e-01   6.5049152e-01  -5.4334063e-01   8.1508746e-01   1.9883594e-01   1.1672138e-01   3.5818559e-01  -1.1563510e-01   1.3998953e-01  -1.5901024e-01  -8.0359819e-01  -2.2385292e-01
