  -9.0949170e-01   9.0689135e-02   6.1837266e-01  -3.7526542e-01  -1.0301873e-01  -4.9302832e-01   6.2837726e-01   6.5412771e-01   1.6023496e-01   1.3715872e-01   2.5291221e-01  -4.3992720e-01   7.7669211e-01   7.3999614e-01   8.9173414e-01  -4.6525975e-01  -6.1448662e-01  -5.7669334e-02   5.0664049e-01  -6.0600693e-01  -8.3099137e-01  -1.0380398e-01  -5.6513060e-01  -6.4832493e-01  -5.3344073e-01   3.8408994e-01   7.5347213e-01  -3.6529242e-01  -6.1048807e-01  -2.9137166e-01   6.7143322e-01  -9.4110956e-01  -5.1932937e-01  -1.1284084e-01  -1.4317709e-01   6.8060640e-01  -7.0854715e-01  -4.1929192e-01   9.0293651e-01   6.0261537e-01  -8.8879770e-01  -5.4126623e-01  -2.0699776e-01  -3.6152655e-01  -9.4983650e-01  -6.3674933e-01  -3.7495447e-01  -5.6740670e-01   4.4465375e-01   9.5475205e-01   1.5041083e-01   8.5095913e-01  -7.9387537e-01   1.3869933e-01  -5.4559268e-01   8.8541886e-01   6.2692416e-01   6.5232824e-01   7.7179780e-01  -1.4606017e-01   9.5038698e-01  -3.1408790e-01   4.3598088e-01  -2.7287640e-01  -9.3057332e-01   2.0494392e-01  -9.8931140e-01  -9.5468701e-01   5.1234245e-01   9.6940731e-01  -7.8099190e-01   7.0368250e-01   9.9069147e-01   5.0728080e-01   9.6320659e-01  -5.6354546e-01   4.8903181e-01   4.0875756e-01   4.0820071e-01   5.2925254e-01   7.2559520e-01  -2.0202614e-01   7.5217911e-01  -2.7989965e-02   3.2812638e-01   3.6302592e-01   9.3909854e-01  -8.7743193e-01  -6.5518656e-01  -4.8183270e-01  -8.9667817e-02   1.2091646e-01  -4.2363604e-01  -9.9632553e-01   9.9873304e-01   9.6997761e-01  -2.5850287e-01   4.2661515e-01   1.0663068e-01  -5.5558899e-01   9.1851650e-01   4.8629437e-01   1.0926367e-01  -2.5723170e-01   6.3703207e-01  -5.7275754e-01  -1.0376221e-01   7.8072140e-01  -8.4319230e-03   4.0095457e-01   9.6192823e-01  -7.8301655e-01   1.0499646e-01  -8.7204465e-02   9.6905403e-01  -9.1662932e-01  -2.4801929e-01  -1.0680634e-01  -5.4061150e-01  -1.8826270e-01  -7.3670571e-01   6.4391133e-01  -5.6001043e-01  -4.4676534e-01  -4.6925469e-01  -2.9746970e-02  -5.8143757e-01  -7.1545828e-01   1.9211487e-01  -4.1918249e-01   4.5820885e-03  -7.8288591e-02   2.2873367e-01   1.4635124e-02  -1.3515910e-01  -8.7416020e-01  -7.9417304e-01   7.0926190e-01  -7.1647352e-02   2.4042827e-01  -2.3016087e-01  -5.0734518e-01   9.6156915e-01   9.4422620e-01  -4.9937080e-02  -6.3256571e-02  -4.6331858e-01  -7.6064341e-01  -9.6666910e-01  -9.1350048e-01   9.1154911e-01  -1.7728804e-02   7.6258465e-01  -8.9605747e-01  -7.6373456e-01   7.9633514e-01   1.7757260e-01   6.2753253e-01   9.2347689e-01   8.3432916e-01  -4.4377907e-01  -9.6009264e-01   2.1668580e-01   3.5435797e-01   1.7985819e-01   5.7707678e-01  -8.5106971e-01  -6.3749420e-01   9.4847197e-01   7.8367732e-01   8.1458957e-01   1.4994582e-01  -8.4740770e-01  -2.4225629e-01   2.0788464e-01  -7.8460726e-01  -6.5570440e-01  -1.9210695e-01   7.2359474e-01   4.9606847e-01   8.4992131e-01  -8.2601440e-01  -8.9930910e-01   3.7858749e-01  -5.9225414e-01  -3.6644676e-01  -2.4994411e-01   2.6618942e-01  -7.5482871e-01   2.8219524e-01   1.2522403e-01  -1.0113385e-01   7.7280926e-01  -1.0804317e-01   4.5919535e-01   4.7446124e-01  -3.7336433e-01  -6.9691256e-01   1.2961099e-01  -1.8039806e-01   2.7488864e-01   2.5769726e-01   4.6712315e-01   4.8376535e-01   6.6090666e-01   9.3220282e-01   2.0766502e-02  -8.6865208e-01  -2.0883155e-01  -9.7273602e-01  -2.5593035e-01   8.3059175e-01  -7.4950823e-01  -5.7370374e-01  -1.8268428e-01  -1.9045618e-01   1.0084200e-01  -9.4172903e-01   1.2924022e-01  -1.2641799e-01  -6.9535514e-01   4.8474340e-01   6.4794471e-01   3.8334980e-01  -4.9416419e-01   5.2884363e-01   3.4270143e-01  -7.0081182e-01  -8.1027286e-01  -2.6824154e-01   9.7210547e-01   7.3658384e-01  -1.5365760e-01  -8.0588757e-01  -4.0723288e-01  -9.5765514e-02  -1.2391057e-01   1.9585032e-01   1.9465975e-01  -8.7940375e-01  -3.3080814e-02   7.2446657e-02   7.3868299e-01  -7.6244199e-01  -3.6784457e-01   6.1981712e-01  -5.6542763e-01   3.7559258e-01   4.9298720e-01  -1.4909328e-01   4.8667684e-01  -4.6155870e-01   3.5011602e-01   2.2335333e-02  -1.0690446e-01  -1.8189690e-01   3.9216495e-01   3.4730447e-01  -7.2016930e-01   5.4851573e-01   4.2086949e-01   8.9435949e-01   3.4665847e-01   6.9329096e-01  -4.6901892e-01   6.5547072e-01  -8.1293688e-01   9.5514702e-01   3.2093497e-01  -5.9011738e-01  -2.8683238e-01  -5.8087569e-01   8.5914977e-01   7.2311774e-01   4.0509416e-01  -1.2818431e-01  -8.2329610e-01  -9.1423287e-01  -9.1979870e-01  -1.7981732e-01  -9.4230275e-01  -1.7519776e-01  -4.4372563e-01  -7.4656989e-01   8.2503805e-01  -6.9971723e-01   2.9397387e-01  -9.2538824e-01   5.5313570e-01  -6.9013577e-01  -9.0902453e-01  -3.4644947e-01   5.1599766e-01  -3.9719235e-01  -3.9893551e-01  -4.5803797e-02   3.0793106e-01  -5.1740158e-01  -2.7160038e-01   4.0417470e-01  -1.9739126e-01  -8.0882450e-01   8.0377280e-01  -7.3943272e-01  -5.0493664e-01   7.8110452e-01   5.7655607e-01   4.3669853e-01  -1.8726307e-01   4.2908373e-02  -1.2338971e-01   9.0021417e-01   6.6538183e-01  -2.3314113e-01   2.8650599e-01  -4.3987632e-01  -2.5380344e-01  -2.3975707e-01  -6.7890900e-01  -8.6556092e-01   8.6741300e-01   2.7836373e-01   1.5328244e-01  -6.5530604e-01  -7.0212580e-01   4.5933765e-01  -7.0057552e-01  -1.0341651e-01   2.0126839e-01  -4.5918025e-01   4.9636128e-01  -2.8782965e-01   3.1201105e-01   4.7423444e-01   3.9204725e-01   7.6051238e-01  -7.6527906e-02   3.5480475e-01  -2.2197350e-01  -8.2431361e-02  -2.6867179e-01  -2.7941054e-01   6.1184760e-01  -8.1134369e-01   4.1088103e-01  -9.9975547e-01  -3.5888333e-01  -1.6646883e-02  -7.8554440e-01  -4.2102130e-01   4.9669486e-01   5.4694815e-01  -5.4507667e-01  -4.7954926e-01  -7.1581173e-01  -3.8289559e-01   8.7597452e-01  -6.8430611e-01   2.0552254e-01   3.9178967e-01   4.4473896e-01   9.6606350e-02  -1.6223277e-01   4.6991561e-02  -9.9884181e-01   7.1726012e-01   9.8829060e-01  -8.0768149e-01  -5.9932491e-01  -1.0777137e-01   6.6742619e-01  -3.4876167e-01  -2.5595867e-02   2.9630141e-01  -7.5957938e-01   2.4226177e-01  -3.9365370e-03   9.7469607e-01  -6.4992653e-01  -3.6333927e-01  -4.2299161e-01  -6.0247175e-01  -1.2266312e-01   6.0408962e-01   9.7149757e-01  -4.0561990e-01  -2.1058017e-01  -7.9052903e-01   2.5794943e-01  -4.9797011e-01   6.7836274e-01  -1.0119813e-01   3.6213422e-01   6.4080433e-01  -2.2783372e-01   7.5064576e-01   4.8470959e-01  -9.3487168e-01  -5.4928852e-01   5.0797897e-01  -4.3959249e-01   2.0382799e-01  -7.0672496e-01  -8.3465169e-01   3.5987489e-01  -4.2469449e-01   7.2394304e-01  -9.5536383e-01   6.3583561e-02  -1.5692881e-01  -5.7899612e-01  -7.2816925e-01   8.9378181e-01  -8.7339388e-02  -7.4984056e-01   7.4461967e-01  -3.9622031e-01   3.4134110e-01   8.6370638e-01   7.1206288e-01  -1.7408791e-01   5.9292805e-01   8.6912767e-01  -7.5303287e-01   5.0797441e-01   7.9416828e-01   5.0710296e-01   1.7211019e-01  -3.6123762e-02  -6.3602095e-01  -2.1309523e-01  -7.7563304e-01  -9.9674395e-02  -4.9533039e-02   7.1876964e-01  -4.2418625e-01   8.3436933e-01  -3.9662082e-01   2.9018686e-01   5.5144012e-01  -1.7709954e-01   3.2309471e-01  -1.8733422e-01  -3.2555097e-01   7.7010028e-01   3.0524966e-01  -2.6805369e-01  -5.7178335e-01   7.6488798e-01   9.8744710e-02   8.4870414e-01  -6.0582444e-01  -6.3493422e-01   8.7250015e-01  -8.9282811e-01  -3.3838787e-01   5.3581748e-01  -5.9664917e-01   6.4834166e-01   5.6479139e-01   1.1495663e-01   4.7026875e-01  -9.3876072e-01  -2.6818632e-01  -1.9772487e-01   5.0312150e-01  -3.4618701e-01   2.0303662e-01   7.2557402e-01  -7.0636799e-01  -3.5690911e-01  -5.9030449e-01  -8.8388192e-01   8.2862691e-01  -1.9468695e-01   2.7662480e-01   4.3430573e-01   2.5153162e-02  -7.5266769e-02   4.6185023e-01  -8.1103823e-01  -2.5480160e-01  -4.9025521e-01   3.0024742e-01  -6.1274215e-01  -9.9333824e-01   7.2341677e-01   9.1479086e-01   4.7028058e-01   2.5828236e-01   1.3269483e-01   5.0227832e-01  -2.3212894e-01   5.2645761e-01   8.8739041e-01   9.5637133e-02   7.0963112e-02  -4.6334792e-01   9.6451401e-01  -9.9859420e-02  -9.8236998e-01   8.0835348e-01  -6.3635254e-01   4.0273201e-01   8.5879545e-01   6.3150099e-01   1.2947405e-01   1.8816141e-01   1.7896441e-01  -1.4241563e-01   9.4959043e-01   1.4294734e-01   4.5280074e-01  -2.3475982e-01  -4.9576640e-01  -6.7836859e-01   2.3238619e-01  -4.2651485e-01   7.6891238e-01  -5.2433476e-01   6.3963778e-01  -7.1473630e-01   8.9454248e-01   3.6816159e-02   2.6088510e-01  -9.0526616e-01   2.5860636e-01   7.6484743e-01  -5.1755916e-01  -3.6367438e-01  -4.4397279e-01   7.5263722e-01  -8.1378230e-01   5.4246781e-01   9.4000265e-01  -4.5976664e-01   7.1922285e-01   4.2059508e-01  -9.0231882e-01  -9.3635085e-01  -9.7251504e-01  -3.9295214e-01   7.0971850e-01  -5.4162779e-01  -7.2583453e-01   6.1375010e-01   6.6769244e-01  -7.3490070e-02   6.4390459e-01   3.0846723e-02   1.3100456e-01  -3.8251822e-01  -5.5466659e-01  -3.8188276e-01   3.0418381e-01   8.8946887e-01   1.6611369e-01   1.0160029e-01   4.5755312e-01   6.4746263e-01   4.9381868e-01  -9.7035800e-01   6.6612242e-01  -1.4070118e-02   7.8022048e-02  -1.2607208e-02   5.8638548e-01   1.2996806e-01  -9.2845728e-02   5.1826475e-01   4.6561339e-01  -4.4075845e-02   6.2770930e-01   1.7619802e-01  -6.8032829e-01  -7.9684229e-01  -6.3346437e-01  -9.7779464e-01  -8.3324346e-01   2.9823712e-01   5.2240027e-01   4.6940907e-01  -7.5530773e-01  -4.4989949e-01   4.0916845e-02  -7.2126209e-01  -7.1423942e-01   5.8738261e-01  -2.1000859e-01   6.9095127e-01  -6.4397610e-01  -2.5280370e-02  -9.4059458e-02  -9.4677903e-01  -1.7716347e-01   7.1189127e-01   7.8976465e-01   6.9084729e-01   6.7076811e-01  -9.6933987e-01  -9.4580032e-01  -1.2969422e-01  -2.2533544e-01  -1.2839873e-01  -2.9475735e-01   2.3804886e-01   7.3754522e-02   3.6403792e-01  -2.8345257e-01   9.8284706e-01  -6.0293179e-01  -6.2552012e-01   8.5529663e-01   7.6604889e-01  -7.3031367e-01   7.5001654e-01  -3.0932157e-01   9.3188372e-01   4.0730795e-01   2.2726925e-01  -2.1215011e-01   8.1043630e-01  -1.4592170e-01  -1.7455816e-01   1.8013837e-01  -3.3651915e-01  -1.0389104e-01  -4.3597132e-01  -6.6348112e-01   4.3463057e-01   7.7178348e-01  -3.9357929e-01   3.3078681e-01  -6.2188259e-01   4.4208038e-01   3.1688279e-01   3.3670612e-01  -8.7189289e-01  -7.4031413e-01   6.3667580e-01  -7.1276089e-01   8.5163155e-01  -2.2873267e-01   7.5923034e-01   2.1556880e-01   8.3514593e-01   7.1290195e-01  -1.7054153e-01   9.4658397e-01   3.4559713e-01  -1.1928356e-02   4.3195171e-01   7.1476606e-02  -8.0979639e-02   6.2584749e-01  -4.3330152e-02   9.8687735e-01   2.3543552e-01  -8.4663313e-01   6.4883164e-01   9.4811499e-02   3.0910302e-02   1.7697029e-01  -1.2302064e-01   4.1877115e-02   3.0842118e-01  -5.6809176e-01  -9.2773979e-02  -9.5124541e-01   4.9277752e-01  -6.0275833e-01  -5.0018381e-01  -3.7480731e-01  -2.9081422e-01   4.4317037e-02   7.1409821e-01   7.6883047e-01   5.0758030e-01  -1.9889456e-01  -9.4841120e-01  -8.5943364e-01  -8.5971309e-01   9.2761187e-01   6.8879292e-01   2.8428968e-01   4.2293976e-01   3.5032576e-01  -8.0798985e-01   4.0110406e-01  -8.6101443e-01   1.9275059e-01   6.9269477e-01  -7.0797702e-01   2.4346218e-01   8.3788190e-01   9.6156921e-01  -3.3434575e-01   6.5503885e-01   5.1039122e-01   4.7648599e-01   7.5704883e-01   4.2098423e-01  -8.0631107e-01   5.1988091e-01  -5.5439656e-01  -6.1483551e-02  -6.4145665e-01  -6.9900987e-01  -8.0444430e-01  -2.6830173e-02   5.9308708e-02  -8.2107334e-01   3.1597636e-01   6.3683753e-01  -5.0253028e-01   1.5953105e-01  -6.3316737e-01   2.3047988e-02   8.8631300e-01   3.7874922e-01   4.0293539e-01  -3.6864452e-01   8.6756165e-01   2.7529465e-01  -1.2542184e-02   9.1176071e-01  -9.5688411e-01   8.7566430e-01   6.2243094e-01  -1.6189828e-02   7.8975481e-01   3.0853181e-01   7.5627427e-01   7.1031114e-01   4.3816758e-01   5.7052097e-01   6.2366246e-02   4.3981315e-01  -6.4297085e-01  -1.1087479e-01   9.3857909e-01   5.7307390e-01  -3.7596720e-01   9.7535794e-01   2.0025820e-01   4.3790346e-01   9.4983490e-01  -5.0053845e-01   9.5105047e-01   1.5401259e-01   8.0018341e-01   6.0552506e-01  -7.5213247e-01  -7.7871950e-01   8.5709973e-01  -5.5910824e-01   6.0170278e-01  -3.4872146e-01   8.5031369e-01   3.1190786e-01  -6.7084832e-01  -3.7716613e-01   4.7739034e-01  -8.7190173e-01  -7.0324544e-01   6.6610313e-01  -8.8986032e-01   2.2211249e-01   5.8655339e-01   1.0008123e-01  -4.2115502e-01   1.4809713e-01   6.3812572e-01  -1.5003013e-01   6.2366103e-01   4.6174638e-01  -6.8572243e-01  -4.4917996e-01   5.3978707e-02   4.0873770e-01   1.2530594e-01   6.1860219e-01   3.7548832e-01   2.0992879e-01  -7.6396811e-01   1.9635210e-01   2.5511564e-02  -8.5928459e-01  -5.3538036e-01   2.8768644e-01  -6.7239522e-01   2.3471945e-01   4.1831510e-01  -2.0805820e-01  -8.2425646e-01  -7.9548493e-01   8.5957616e-01   9.9145973e-02  -5.8481517e-01   7.0985063e-01  -6.7723142e-01  -3.7917961e-01   2.9201067e-01   7.0370958e-01  -1.1359329e-01  -8.9151118e-01  -9.1981307e-02  -4.0770591e-01  -8.5360614e-01   8.3863031e-01   6.9534994e-02   1.1718338e-01   8.7413611e-01  -6.9859111e-01   4.5303553e-01  -8.4704179e-01  -3.0802212e-01  -7.5125208e-01  -2.5668564e-01  -3.0981771e-01   2.6166287e-01  -4.4365910e-01   3.3426004e-01  -2.9441627e-01   6.8456867e-01   2.9787433e-01   6.0320761e-01   7.6262642e-01  -5.5951140e-01  -1.5896655e-01  -4.0226681e-01  -8.3025846e-01   5.9982744e-01   1.0574510e-01   4.4703546e-01  -5.1404599e-01   4.9482490e-01  -8.2648136e-01   5.3845052e-01  -2.3980174e-01  -4.6979404e-01   1.5050597e-01   6.0995664e-01  -6.7782649e-01   7.1432657e-01  -8.8031128e-01  -7.0506565e-01   7.2532216e-01   8.9798961e-01   5.9636225e-01  -2.0454359e-01  -6.6343142e-01  -3.0581675e-02   6.3427608e-02   9.2422416e-02  -6.7373955e-01  -4.7379410e-01   4.1075301e-01   2.3614847e-01   8.3736145e-03  -4.1944447e-02   9.4481928e-01   7.1720393e-01  -6.0963690e-01  -8.1317737e-02   4.5550159e-02  -1.1281737e-01  -7.5437167e-01   1.7915887e-01   5.0725330e-01  -5.6366380e-01  -6.9779636e-01   7.5637492e-01   9.9394175e-02  -4.3568036e-02  -9.4802529e-01   3.5161259e-01  -4.1044563e-01  -9.5917375e-01   9.6832161e-01   7.5980089e-02  -7.8663846e-01   4.9964211e-01  -1.0822847e-01   7.3040807e-01  -9.2964989e-01  -1.9234644e-01   8.9719095e-01   4.6986913e-01   2.7599205e-01  -9.8417675e-02  -5.7218883e-01   1.5967256e-01  -3.2993614e-01  -9.4963230e-01  -9.6999606e-01  -9.3401580e-01   1.8335579e-02  -7.7566882e-01   2.3256843e-01  -6.2661005e-01  -2.1180484e-01   8.3477542e-01   4.1869001e-02  -5.1152809e-01  -7.3790062e-01   8.4307581e-01  -4.6363492e-01  -3.2631715e-01  -2.4326377e-01   8.4385724e-01   8.2950192e-01   7.8946408e-01  -8.9327321e-01  -7.9276374e-01   7.1586933e-01   5.0052226e-01   4.2153992e-01  -8.8771323e-01   9.7181851e-01  -2.7429599e-01  -2.9080532e-01   4.2251461e-01   1.3885620e-01   7.1487358e-01   9.9651002e-02   2.7578230e-01  -8.2428794e-01  -5.6448377e-01   1.5758892e-01   7.4966484e-01   1.5661541e-01   9.9215976e-01   8.3231881e-01   9.2448820e-01  -3.5465441e-02  -6.7819103e-01   6.5107649e-01  -9.0764748e-01  -3.3841644e-01  -7.6008014e-01   3.2759715e-01  -3.7037641e-01  -1.0578582e-01   6.8624877e-01  -8.6330363e-01   5.3927896e-01  -2.5326756e-01   3.7790724e-01  -2.1208647e-01   1.7269680e-01   5.2088178e-01   2.3809683e-02   4.3200500e-02   6.2005933e-01  -5.4361866e-01   5.2536231e-01   6.2152036e-01  -9.5550197e-01   1.9082521e-01  -1.2618109e-01  -6.4605608e-02  -5.3915757e-01  -3.5931688e-01   4.3768731e-01   3.6973457e-01   6.6940980e-01  -2.0703878e-01   9.1318751e-01  -4.7498172e-01   1.1018172e-01   6.0803152e-01   9.7051660e-01  -8.5384012e-01  -8.7793083e-01   2.1259479e-01   6.2869811e-01   2.8860840e-01  -5.8024452e-01  -1.8462704e-01   2.2984051e-01   4.9675376e-01  -3.3412990e-01  -4.7170001e-01   5.5718446e-01  -7.0080370e-01   5.9183994e-01   1.3079977e-01  -5.6627063e-02   1.4448849e-01   3.0947338e-01  -4.6347519e-01  -6.4318696e-01   4.5188716e-01   8.4686910e-01   1.9123275e-01  -7.1194749e-01  -3.2404540e-01  -9.0707325e-01  -3.0843892e-01
  -7.0910978e-02   3.7811812e-01  -3.7656919e-01  -8.3505669e-01   1.4228200e-02  -2.3501141e-01   1.7727281e-01   2.0496683e-01  -6.3327049e-01   1.6909093e-02  -7.1839481e-01  -4.2869119e-01  -2.9981093e-01  -9.7450593e-01  -8.8203483e-01  -3.1597037e-01   6.6839915e-01   8.9988514e-01   8.4037073e-01   6.3053809e-01   2.3511775e-01  -8.3241321e-01   4.0659128e-01  -6.1794548e-01  -6.8537995e-01   7.5696622e-03  -4.9556239e-01  -8.7935399e-01  -2.1740135e-01  -3.1477655e-01   5.9124673e-01   9.2785551e-01   2.4228959e-01  -1.0429445e-01  -8.4135486e-02  -9.3001070e-01  -6.6898194e-01   3.2005242e-01   4.0464627e-01   2.5139271e-02  -2.9310373e-01   5.6137632e-01   1.3260801e-01   6.2580101e-01  -7.1097573e-01   2.1714403e-01   1.4077854e-01   9.4171792e-01  -1.0755284e-01  -6.3153236e-01   9.0245704e-01  -7.3802953e-01  -7.4809733e-01   6.7555156e-01   5.6137759e-01  -1.6829717e-01   5.0514873e-01  -1.2237250e-01   2.4069493e-01  -4.0582626e-01   8.3131739e-01  -1.0787324e-02   3.4650192e-01  -3.7694529e-01   4.5651347e-01  -2.9759724e-01  -7.2800849e-02  -8.2435556e-01   2.4361461e-01  -6.5922997e-01   5.7940961e-01   5.9790174e-02   8.6412507e-01   4.5837962e-01  -6.2102335e-01   9.3125205e-01  -8.8449899e-02  -6.6541975e-01   1.6463777e-01  -7.7101963e-02   1.0636417e-01   7.8165258e-01  -5.6923992e-01   3.7507933e-01  -9.2940486e-01  -2.4634334e-01  -5.4012661e-01   9.0411974e-01   3.6473121e-01   4.7649580e-01  -7.4591451e-01  -2.4143492e-02   4.7781557e-01   8.2042851e-01   9.4249514e-01   1.3227994e-01   2.3952182e-01   7.7820035e-01   1.6269478e-01   8.9550583e-02   2.0714829e-01  -2.4366888e-01   3.3466890e-01  -2.4114111e-01   6.1869168e-01   2.4826610e-01  -9.0058436e-01   8.1099950e-01  -7.1557903e-02  -7.1580400e-02  -9.8418672e-01   3.2402111e-01  -1.5501220e-02   4.3583887e-01  -1.4794672e-01   3.3937250e-04   1.1846971e-01  -4.5884498e-01  -1.3673402e-01  -5.3293972e-01   7.5168076e-01   5.9952164e-01  -2.3172881e-01   4.8111662e-01  -5.9602833e-01   1.8499605e-01   2.7719237e-01  -7.1416400e-02   1.4996973e-01  -4.6926306e-01   3.9089871e-01  -4.6967319e-01  -9.7942878e-01  -9.1385727e-01  -4.3051128e-01   5.0632762e-01   7.7372240e-01   1.1842652e-01  -2.8315005e-01   2.1134413e-01   9.4982732e-01  -1.0768542e-01  -3.1294917e-01  -9.4835615e-01  -3.9672582e-01  -8.8970557e-01   3.3293064e-01   9.1333196e-01   7.1097474e-01   4.9468652e-01   7.6460663e-01  -6.8428591e-01   9.1608519e-01  -3.6949279e-01  -2.8878561e-01   6.3287154e-01  -7.7269639e-01  -4.3864182e-01  -7.7787094e-01  -7.0106972e-01   9.3232753e-01  -6.7792609e-01  -1.3944208e-01   9.9946942e-02   8.9728509e-01   7.6445367e-01   3.9912816e-01   3.0774885e-01  -2.0141400e-02   3.2233216e-01   1.9364095e-01   3.0650199e-01  -6.4997107e-01  -5.3056470e-01  -8.9182955e-01   6.1034628e-01  -1.2141196e-01  -8.6549418e-01  -6.1911151e-01   1.7129429e-01   3.4966487e-01   9.4009583e-01   6.1432222e-01   6.0186554e-02  -9.8707521e-01  -6.1495705e-02  -6.7204888e-01  -6.4486161e-01  -5.5004443e-01   7.3419649e-01   5.1183730e-01  -3.2764531e-01   3.4651062e-02  -5.1553977e-01  -2.2593828e-01   3.9289670e-01   3.2524286e-01   2.7391534e-01   8.5811222e-01  -1.2830712e-01   9.8900167e-01  -6.8854981e-01  -1.3345120e-01  -5.0099380e-01  -6.9161977e-01   8.1969875e-01  -5.3178328e-01   2.0824353e-01   6.9369517e-01   7.6468973e-01   4.6736804e-01   5.9824484e-01  -3.2188548e-01   4.2068993e-01  -3.8620097e-01   1.6888108e-01   1.1323897e-01  -8.2525143e-01   7.7416894e-01   5.1633223e-01   3.8000039e-02   8.8621395e-01  -1.7327048e-01   1.8904783e-02   1.6750534e-01   2.8944572e-01   9.3353510e-01  -7.7008435e-01   9.3054476e-01   1.3236344e-01   9.4942002e-01   6.7481658e-01  -7.2001260e-01  -6.0894303e-01   8.0034060e-01  -3.5842884e-01  -1.1285956e-01  -5.4683221e-01  -9.9511514e-01   7.5800978e-01   9.6302699e-01  -2.1599015e-01  -7.8501562e-01   5.8727305e-01   4.0968033e-01   8.0413101e-01   6.9085684e-01   5.3083495e-01  -5.6068670e-02   3.2502252e-01  -7.9564470e-01   7.7403595e-01   1.5942793e-01  -3.4125107e-01  -7.2215930e-02  -9.6014139e-01  -3.9266412e-01  -5.9416863e-01   7.2830984e-01  -6.6106269e-01   9.7734228e-01   2.5717061e-02  -4.3916427e-01   1.6900933e-02  -1.5854393e-01  -1.3323814e-01   1.6657791e-01   1.3609862e-01  -2.0668460e-01  -1.5674775e-01  -2.2437081e-01   5.4787066e-01   8.8223349e-01   9.0399492e-01  -2.3566804e-01   4.8863245e-02   1.2845435e-01  -8.0186828e-01   3.7944117e-01  -4.9054014e-01  -4.5724821e-01  -1.8266104e-01   2.7401482e-01  -7.1669819e-01  -7.6710692e-01  -8.9172559e-01   9.6063444e-01   1.4596948e-01  -6.2271668e-01  -4.9651219e-01  -9.9804058e-01   5.8012709e-01   3.7664590e-01  -1.7204090e-01   3.9653172e-01  -1.6589725e-01  -1.5179493e-01  -6.1250547e-01  -3.3371986e-01   8.9028118e-01   4.3655037e-01   1.3183267e-02  -6.5224934e-01   1.6257499e-01  -9.4125904e-01  -1.5054356e-01   5.8054488e-01  -7.8622483e-01  -9.8763922e-01  -5.0221361e-01  -6.8542662e-01   3.8156043e-01   2.0157348e-01   1.1069180e-01  -5.1357779e-01  -4.9949824e-01  -6.4982241e-01  -5.8724801e-01  -2.9651192e-01  -7.8097483e-01  -6.5203516e-01  -4.9062234e-02   9.8936249e-01  -2.3169959e-01  -4.7979261e-01  -4.2801000e-01   9.6229407e-01   1.6543353e-01  -9.4198925e-01   1.9281924e-01  -7.4509711e-01   5.0662137e-01   2.4890596e-01   7.8671457e-01  -1.4076211e-01  -4.9156621e-01  -1.6791677e-01  -4.1775958e-01  -9.4809940e-01  -9.3148721e-01   9.2287571e-01  -9.4366341e-01  -2.5041752e-01   4.1764501e-01   7.0977467e-01   3.2869512e-01  -1.3704512e-01   7.2303607e-01   6.0719097e-01  -8.6429358e-01  -5.6965680e-01   6.7760906e-01   1.2664429e-01  -3.2782403e-01  -4.8963946e-01  -2.2662657e-01  -4.7888148e-01  -4.8993033e-01   7.9837622e-01   1.6957662e-02   1.0505133e-01   1.1542431e-01   6.1137186e-01  -5.6047270e-01  -4.5286835e-02  -5.8009872e-01  -9.9557218e-01   9.6414136e-01  -8.4384831e-01   4.9751972e-02   8.7825799e-01   9.1817637e-01  -8.1331455e-01  -8.2992105e-01   3.6826693e-01   6.1377223e-01  -3.9124234e-02   5.8191970e-01  -1.2091895e-01   9.1452523e-01  -8.0410411e-01   5.2804055e-01  -7.0100295e-01   1.1248057e-01   1.0441991e-01   8.1226208e-01  -3.3971333e-01  -2.7615963e-01   7.5461364e-01   3.0970267e-01   7.5829825e-01   7.9552508e-01   9.5865238e-02  -6.1687567e-01  -8.7533344e-01  -4.2370530e-01   8.5213387e-01  -8.7843145e-01   3.6411449e-01  -7.3559967e-01   9.5645057e-01   9.3409615e-01  -1.7376944e-01  -2.9605651e-01  -1.8979981e-01   5.9262770e-01  -9.6566390e-01  -4.9986023e-01   6.4082096e-01   2.5308484e-01  -8.1473718e-01  -1.2878491e-01  -9.3158776e-01  -7.4969942e-01  -3.6784665e-01   1.7808872e-02  -9.8129626e-01   8.5815592e-01   8.5192385e-02   7.0598476e-01   5.4926723e-01   4.2181082e-01   2.6768662e-03   1.0114327e-01  -6.4444076e-01   7.0018772e-02   3.0184422e-01  -8.8689921e-01   7.4070695e-01   1.2560467e-01  -9.4948256e-02   4.8996612e-01  -2.8395980e-02  -6.5837660e-01   1.8659740e-01  -1.5590820e-01   3.0582444e-01   4.4613452e-01  -5.5652395e-01   9.1594840e-01   1.6552359e-01   6.0083924e-01   3.7461583e-01   6.4652055e-01   4.7121896e-01   1.6650750e-01   4.8630614e-01  -4.2445669e-01   5.1953083e-01   1.3940723e-01   4.7512151e-01   7.0807440e-01   2.7400001e-02  -2.5115753e-01   8.0038079e-01  -3.3831497e-01  -5.7026991e-01  -5.7377204e-01  -7.6129691e-01   4.4293401e-01  -1.3775357e-01   2.7111494e-01  -4.3268846e-01   5.3211432e-01   6.8002005e-01   9.5017309e-01   9.8742006e-02   8.8962360e-01   5.0037751e-01  -6.1795421e-01   8.0752802e-01   2.0596851e-01   4.2049035e-01   4.7314157e-01   5.0236136e-01  -5.8368619e-01   3.2729394e-01  -3.7945940e-01   6.0650447e-01   8.9478590e-01  -5.3912853e-01   7.5056351e-01  -2.0481668e-01   6.8322056e-01  -1.0565833e-01  -9.4390565e-01  -1.5440295e-01  -7.4159477e-01   6.9242621e-01  -5.3046980e-01  -3.2868157e-01   5.4885684e-01  -8.7859139e-01  -3.4380418e-01  -4.9069079e-01  -3.7765851e-01  -4.6704110e-01   1.5803147e-01   4.4111854e-01  -1.7211437e-01   3.8269755e-01   7.8612851e-01  -7.6108154e-01   2.3338272e-01   6.1475856e-02  -7.2608047e-01  -8.6028492e-01   7.7362992e-01   1.8341820e-01   1.0501332e-01   3.0970235e-01  -5.3451699e-01  -2.4726558e-01  -2.9207523e-01  -8.8258413e-03  -1.3954497e-01   7.1588751e-01  -5.8770122e-01   3.8728331e-01  -5.8796618e-01   6.3598316e-01   1.1613959e-01  -7.1043332e-01  -9.8475776e-01   1.7418291e-01  -7.9049879e-01  -9.8878768e-01  -5.9237446e-01  -6.2152177e-01  -8.4231010e-01  -2.8405666e-01   5.4253095e-01   3.9683764e-01  -2.1644682e-01   9.3792251e-01  -6.4008018e-01  -8.0487909e-01  -1.8768810e-01  -1.1086506e-01  -2.5154826e-01  -5.4182142e-01  -4.4383991e-01  -5.2969821e-02  -6.6531175e-01   7.3785202e-01   1.3110692e-01   4.0032575e-02   7.7887020e-01  -1.1485373e-01   3.7677592e-01  -6.1513402e-01  -3.5504057e-01  -8.3080387e-01   8.1068476e-01   7.1034821e-01  -2.6395321e-01   7.0863775e-01   8.5243412e-01   2.8506039e-01  -8.5980092e-01   6.4891139e-02  -1.5787056e-01  -3.7174201e-01  -2.7591183e-01  -8.0608973e-01   6.2029678e-02  -7.4000581e-01   1.8582146e-01   2.1932855e-01   1.1192327e-01   7.5016502e-03   3.1950971e-01   6.5256640e-01   3.4769847e-01  -8.2542622e-01   2.1598445e-01  -2.3862934e-01  -2.8225910e-01  -6.5901689e-01   9.6640772e-01   4.4785621e-01   6.0380842e-01  -9.8742312e-01   2.7182841e-02  -3.0679844e-02   3.0523508e-01  -7.4731463e-01   8.9584381e-01   6.5330125e-01   5.8509801e-01  -4.4606642e-01   4.3622036e-01  -5.1969851e-01   8.8650476e-01  -2.1012525e-01  -6.5943972e-01  -2.5355122e-01  -3.8817783e-02   4.1865521e-01  -8.9778011e-01   8.9270272e-01   7.8522667e-01   8.0124201e-01  -2.4886505e-01  -2.9853944e-01  -8.6030211e-01   2.8082487e-01   3.9662603e-03   3.9007459e-03  -5.2709446e-01   7.0672154e-01  -7.7201005e-01  -1.1053391e-01   8.9845120e-01  -9.1780803e-01  -5.3627676e-01  -6.9707733e-01   9.6763915e-01   7.3775997e-01  -8.7529713e-01   5.3982329e-01   5.7902818e-01  -7.1393745e-01   5.6582938e-01   9.5219772e-01   3.4789074e-01  -2.7504164e-01  -8.6853756e-01   7.6402279e-01   8.8189916e-01  -2.7811883e-02  -8.5148327e-01  -1.4970447e-01   4.6422155e-01   7.7431485e-02   6.2850765e-01   6.4286871e-01   1.5483636e-01   9.2890626e-01  -2.4465649e-01  -5.9630399e-01  -9.1302541e-01  -3.4301655e-01  -1.5341273e-01  -2.4950011e-01  -2.8845611e-01  -2.3431423e-01  -9.0095050e-01  -8.5594957e-01  -9.6271587e-01  -6.7403882e-01  -2.2216360e-01   6.7276536e-01   1.2177032e-01   4.5869309e-01   3.4850354e-01  -6.7386146e-01   7.0944294e-01   1.4100394e-01   4.8085336e-01  -7.6217236e-01   5.7865700e-01   9.4438022e-01  -6.2037037e-01  -4.0171041e-01   6.1157778e-01  -5.9061620e-01  -5.9948882e-01  -8.2016263e-01   7.0395745e-01  -4.3477359e-01   1.6596466e-01  -2.4166370e-01  -8.3777567e-01  -5.1695397e-01   5.9349348e-01  -2.6042059e-01   9.4666119e-01  -3.2030327e-01  -2.5091861e-01   7.8008422e-01  -6.0718124e-01   9.4044464e-01   5.0364921e-01   4.8351880e-01  -1.8078806e-01  -3.9879336e-01   9.5225791e-01   9.6911622e-01   2.7066281e-01  -5.5936006e-01  -5.4320835e-01   8.2751744e-01   7.8300541e-01  -5.3308749e-01  -2.5757939e-02   1.9088938e-01   8.4905477e-03  -4.7743589e-01   8.0069201e-01  -9.3743756e-01   7.8284146e-01  -7.8371880e-01  -2.9704882e-01  -5.1028954e-01  -9.1383000e-01  -6.8396419e-01  -7.4561571e-01  -5.6518029e-01  -7.2818205e-01  -2.4774902e-01  -4.8461344e-01   2.3818333e-01   9.6613561e-01   2.9944713e-01  -8.3924117e-02  -1.2226169e-01   4.9132366e-01  -1.4506308e-01   1.4302152e-01   7.5817844e-01   8.7395939e-01   3.4425279e-01  -1.8594719e-01   2.2487018e-01  -2.5719115e-01   8.4658246e-02   4.5296408e-01  -1.4295290e-01  -1.3367163e-01   4.3830490e-01  -9.8836500e-01  -7.1587507e-01  -4.8522690e-01  -3.4345703e-01   3.7751836e-01  -9.7338949e-01   4.3896260e-01  -4.0110015e-02   1.4321740e-01  -7.5424513e-01   6.6097897e-01   8.8752771e-01   7.5111923e-02  -4.0153367e-01  -4.7736141e-01  -2.4922875e-01  -9.2275575e-01  -3.4631428e-01   1.6010220e-01  -5.6074308e-01   5.9906199e-01  -9.6008490e-01   6.0025293e-01   2.8679216e-02  -2.7056232e-01   8.3196986e-01  -5.8856011e-01  -7.8686871e-01   5.3725211e-01   5.3142861e-01  -7.5299758e-01   7.4167445e-01  -8.5927535e-01   6.5207119e-01   9.5120953e-01  -4.1380042e-01  -1.4255300e-01   6.8039592e-01  -4.8929253e-01   2.8457207e-01  -2.9356384e-01   6.7664054e-01   9.1848160e-01   8.0947269e-01   9.7832621e-01  -1.0678312e-01   3.4102832e-01   4.6634473e-01  -5.7013685e-01  -2.6308627e-01   4.2268514e-01  -3.5438537e-01  -5.1265707e-01  -5.7279164e-01   9.2083897e-01  -5.9055498e-02  -5.9716293e-01  -6.4366983e-02  -5.7212851e-01   9.1972533e-02  -6.5323499e-01  -7.4241362e-01  -9.7532956e-01  -9.8034187e-01  -2.9678138e-01  -2.2064535e-01   6.5784065e-01   6.7170899e-01   9.9921633e-01   4.4026979e-01  -9.1951395e-01  -5.5775195e-01  -5.4349923e-01  -7.9581863e-01  -5.9680100e-01  -7.4510500e-01  -8.3349094e-01   6.8069287e-01  -4.5870294e-02  -3.6357793e-01  -2.4860080e-01  -8.2255302e-02  -3.4363415e-01   2.0047521e-01  -8.3998734e-01   3.8254922e-01   1.7114949e-01   7.8457517e-01   4.9984856e-01  -6.7439053e-01   8.5638888e-01   3.3000451e-01   3.5890849e-01  -1.5378041e-01  -4.4822114e-02   1.7623816e-01  -4.0414912e-01  -9.5953085e-01   8.3960225e-02   1.5174340e-01   6.1524477e-01   6.0996377e-01   7.6801036e-01   4.8599841e-01  -4.8013708e-01  -7.4455238e-01  -1.6266233e-01  -7.9056664e-01  -9.6550332e-01   4.8884609e-01   4.3739925e-01  -3.2354101e-01  -2.1684583e-02   6.5572126e-01   1.8704706e-01  -2.0240653e-01   4.3068995e-01  -9.3446873e-01   2.1047243e-01  -1.9501590e-01   8.2227178e-01  -4.3958591e-01   2.3986943e-01   7.8209183e-01   7.5398460e-01   2.8908542e-01   2.4330612e-01  -2.6336996e-01  -8.4864863e-01   7.8935382e-01   7.7616105e-01   8.8919556e-01   1.5839913e-01  -6.3462546e-01   5.4163317e-01   6.2758339e-01   3.5080273e-01   8.3959566e-01   4.6970517e-01  -2.9413853e-01   9.7203797e-01  -6.8284788e-01   9.6763650e-01   4.9582138e-01   3.9886189e-01  -7.2619119e-01   9.2387100e-02  -8.9064232e-03   5.9069048e-01  -9.6986371e-02  -8.1987988e-01   4.6586178e-01  -1.3511529e-01  -7.5939876e-01  -4.5052327e-01  -5.1597606e-01   9.5171497e-01   9.3968735e-01   1.6282686e-01   3.4389079e-01   3.8989234e-01  -3.0529618e-01  -8.0032078e-01  -3.4810620e-01   9.5795174e-01  -1.1796443e-01   2.0895820e-01  -7.6556409e-02  -5.5413925e-01   9.2128877e-01  -5.8314710e-01  -5.9122834e-01  -6.7976039e-01   6.4582233e-01  -8.5485134e-01  -5.5376474e-01  -6.6085308e-01   4.9414843e-01   6.8873211e-01   3.1922687e-02  -8.7799438e-01  -8.8656853e-01  -1.5105683e-01   7.2538846e-01  -1.2774738e-01   6.4161556e-01   4.5040604e-01  -6.2276510e-01  -4.4667957e-01   9.6291091e-01  -1.3372811e-02   2.1752109e-01   1.8884764e-01   1.5772223e-01   9.2718610e-01   6.5305458e-01   7.0424049e-01  -4.3969060e-01   2.2094833e-01   2.1007760e-01   9.9046526e-02  -6.9708669e-01   3.1482031e-01   5.4097473e-01  -7.9105618e-01   2.6559388e-01  -3.8125681e-01  -2.7409581e-02  -7.2642531e-01   3.1083506e-01   9.3161053e-01   2.5164728e-03  -9.6780160e-01  -4.7648637e-02   9.4687576e-01   7.3161045e-01   7.2954141e-01  -9.7414411e-01   1.6520111e-01   9.1698778e-01  -9.5076761e-01  -9.4300289e-01   7.4061354e-01   3.6707904e-01  -7.1412850e-02  -9.0715687e-01  -2.5024243e-01  -6.9653328e-01  -5.8225250e-01   5.4324055e-01  -6.6739491e-01   8.8764074e-01  -5.6183512e-01  -8.6478401e-01   2.5633811e-01  -8.5664098e-01  -1.8480459e-01   1.3676540e-02  -1.3056302e-01  -7.0598925e-01  -4.8618353e-01  -6.7732891e-01   7.8890835e-01  -5.0337327e-01  -9.4400725e-01  -9.5897906e-01   6.6591903e-01  -7.3999976e-01   8.8829326e-01  -7.9141373e-02   7.6716033e-01   7.0297513e-01  -1.9340405e-01  -6.2693866e-01   8.1022380e-01   1.8332037e-01  -5.7190826e-01  -2.7518661e-01   2.8226461e-01  -6.9386959e-02   5.0094861e-01   5.9216697e-02  -1.9770676e-01   6.7518079e-01   5.1434004e-01  -3.7597588e-02   1.9152692e-01  -3.7593537e-01   4.5666922e-01
  -3.5765651e-01   2.2261447e-01   2.4561627e-01  -1.2756888e-01  -9.2909921e-02   8.5213579e-01  -9.2780672e-02  -8.7531124e-01  -5.4054688e-01  -9.1917058e-02   1.5072653e-02  -9.5330182e-01   1.7985991e-01   4.2973592e-01   7.8364676e-01   8.0736629e-01  -3.3146218e-01  -5.3789392e-01   9.7480582e-01  -3.5670929e-01   8.8568744e-01   6.8794314e-01  -7.7720324e-01   8.9697201e-01   6.8999831e-01   3.3660304e-01  -1.2336477e-01  -8.2131206e-01  -3.4764884e-01   1.1411284e-01  -8.4502285e-02   4.0595048e-01  -8.2965513e-02  -1.3909633e-01   1.4158491e-01   8.9242508e-01  -3.1706837e-01  -4.0250338e-01   7.9722418e-01   9.8173526e-01   3.3096667e-01  -9.7258006e-01   7.8595102e-01  -1.0524845e-01  -7.4372809e-01  -5.9720953e-01  -5.7855812e-01   5.9227321e-02   6.8685560e-01  -8.6149597e-01  -7.1803709e-01  -6.2608721e-01   8.8833367e-01   7.1160376e-01  -4.3041654e-01  -6.4805306e-01   9.6699608e-01   8.6536667e-01  -2.0616456e-01  -7.7329667e-01   2.6144171e-01  -9.9793952e-01   4.9675645e-01   7.8918607e-01   7.7852333e-01  -8.6718687e-01   1.0072810e-01   9.1187841e-02   4.9174392e-01  -7.0419585e-01   4.5541624e-01  -5.1343979e-01  -6.3281662e-02   2.6732604e-01   1.4800100e-01  -6.1456139e-02   9.6545260e-01  -8.5985235e-01   7.2573840e-01  -5.9674000e-01  -4.3132372e-01   3.4085165e-01  -5.8530617e-01   3.0994554e-01   4.8538989e-01  -6.6565048e-01  -2.6796124e-01   6.5517202e-01   8.5589457e-01  -9.4732350e-01  -8.3569463e-01   5.8012980e-01   7.4397186e-01  -1.1915644e-01   3.0235110e-01  -9.4567049e-01   1.6244071e-01   4.4289431e-01  -8.4972243e-01   6.9575467e-01  -2.3554590e-01  -3.7329302e-01   5.1159793e-01  -1.8310951e-02   1.5138631e-01   2.4023985e-01  -1.0104574e-02   9.8387590e-01  -1.4328136e-01  -3.3707640e-01   5.9380896e-01   5.9706678e-02   9.3742460e-01   2.9383966e-01   2.9148918e-01   5.4512616e-01   9.9247352e-01  -1.2718178e-01  -6.5234513e-02  -3.4096431e-01  -7.1364540e-01   7.6835261e-01  -5.0299112e-01   9.9704444e-01  -4.7442923e-01  -5.1599872e-01  -2.8536671e-01   4.4276326e-01   3.6977341e-02  -8.1859508e-01   9.8496957e-01   5.4917033e-01  -9.3701498e-01  -3.0606660e-01   3.5401161e-01   9.1878895e-01   8.4447767e-01   4.1681655e-01  -8.1287309e-01  -2.6325618e-03  -9.8064212e-01  -6.3846377e-01   3.9768487e-01  -6.4446529e-02   9.6284089e-02   4.1676360e-01   6.2050782e-02  -3.7956358e-01   5.2554053e-01  -9.3850084e-01   5.7507450e-01  -6.8035325e-01   3.2405435e-01   2.2739623e-01   1.3278788e-01   4.5564227e-02   4.4699595e-01  -9.4574833e-01  -1.5601132e-01   6.3572169e-01   2.7412402e-01   3.8792461e-01  -9.8728262e-01   7.7594106e-01  -1.6855241e-01   5.7075972e-01   2.5864023e-01   9.2410778e-01   9.9576523e-01  -4.5694375e-01  -4.2809417e-01  -7.7968206e-01   4.3847724e-01   2.7385746e-01  -5.6405246e-02   3.1325255e-01  -8.1843874e-01   3.3210976e-01  -5.1066544e-01  -5.3723579e-01  -2.5669850e-01  -8.2216010e-02   9.8195158e-01   9.7886963e-01   5.7913025e-01  -3.9672207e-01   1.8357694e-01  -8.4869692e-01  -9.7607773e-01  -6.7333738e-01  -8.4256404e-01   8.8802466e-01  -1.5310878e-01   1.1375904e-02   8.1912280e-01   7.1117019e-01  -1.6628391e-01   5.2192821e-01   6.9495642e-01  -3.3628849e-01  -8.4689291e-01   8.6200872e-01  -2.2636628e-01   6.9360102e-01   3.2478734e-01   8.8435778e-03   7.2277283e-02   8.7954922e-01   6.6087668e-01   4.8395301e-01   4.2830664e-01  -5.0162061e-01   6.9622665e-02   7.0009749e-01   9.6672311e-01   4.7527546e-01  -9.5892100e-01  -4.7133959e-01   3.0744870e-01  -7.0307211e-01   2.8425762e-02  -2.1794325e-01   3.3726925e-01   4.9209903e-01   5.6906497e-01  -2.7048052e-01  -2.0199487e-02   1.2234744e-01  -3.9362978e-02  -8.6789498e-01   1.7235598e-01   3.6824208e-01   9.3693569e-01   3.0012619e-01  -5.5419170e-01  -4.3279724e-01  -9.5856971e-01   5.0322607e-01  -8.4762639e-01  -9.4267626e-01  -4.1591438e-01   3.0855824e-01   1.2027044e-01  -4.1469937e-01   5.2789935e-01   2.9982679e-01   9.1065475e-01  -7.5303135e-01  -6.0015622e-01   8.6708055e-01   8.9006657e-01  -6.1922531e-01  -5.6826007e-01  -4.5297416e-01  -1.5483558e-01  -3.6336655e-01  -2.2864912e-02  -1.7851270e-03   5.2753295e-01  -2.1399889e-01  -5.6752796e-01  -9.5051104e-01   5.0470071e-01  -2.5569905e-01  -5.1188224e-01   1.1808018e-01  -3.9766104e-01  -3.0132901e-01   7.3468505e-01  -1.9296123e-02   9.2170954e-01  -5.9885899e-01  -7.3870666e-01   8.8693682e-01   5.8313545e-01  -2.9688104e-01   2.1512528e-02  -3.8618162e-01  -2.3738495e-01  -3.0895772e-01  -7.6213823e-01  -5.3911409e-01  -9.5260140e-01  -1.1526044e-01   9.2274261e-01  -2.3824408e-02   4.8256719e-01   2.6673327e-01   9.9009206e-01  -9.7131636e-01  -5.2151290e-01  -2.0585937e-02  -5.6649997e-03   7.8268027e-01  -9.0819283e-01   3.7024548e-02  -5.0103474e-02  -6.8832223e-01  -2.9744552e-01   4.7287021e-01   8.4971451e-01   7.2088580e-01   5.1390948e-01  -8.4136991e-01  -4.0278475e-01  -7.1407913e-01   9.8234714e-01  -1.9828511e-01  -7.9730003e-02   4.8667341e-01  -1.7116805e-01   7.8006140e-01  -1.4626448e-01   8.6873498e-02  -1.5206047e-01   4.7403042e-01   2.2065220e-01   2.0515149e-01   1.9518721e-01   4.2407228e-01  -7.8317222e-01  -7.6189438e-01   2.3121467e-01   3.4437536e-02   2.5867620e-01   3.7578713e-01  -3.2058251e-01   9.1381036e-01  -7.2921309e-01   2.0001871e-01   1.2491287e-01   7.9447858e-01   7.8877684e-01   3.2456202e-01  -7.5491579e-01   3.2465197e-01  -9.6009953e-02  -3.9097059e-01  -7.3318442e-01  -1.3565717e-01  -9.1972548e-01   5.3941608e-01   6.1264914e-01   6.9986010e-01   3.5365674e-01  -3.2073782e-01  -6.5707861e-01  -7.5124720e-01  -9.3694207e-01   5.0990395e-01  -9.3731761e-01  -4.9233551e-02   5.1635051e-01   5.2686352e-01  -8.8374281e-01  -2.0399826e-01   3.3574305e-01  -2.7556111e-01   2.0047010e-01   1.7860624e-02   2.3744898e-01   5.5308589e-01  -6.3361163e-01   7.8060680e-02   5.6374827e-03   5.8808806e-01   1.2020188e-02   3.5359218e-01   1.3164246e-01  -5.0808865e-01   1.6199682e-01   9.1573310e-02  -9.8435664e-01  -8.0429224e-01   1.8128474e-01  -9.0959643e-01  -3.2824377e-01  -2.2911502e-01   4.8420124e-01   6.9203917e-02   8.6837326e-01   7.0492404e-01  -5.6792826e-01   6.0165529e-01  -9.2956100e-01   8.4442003e-01  -5.0639341e-01  -2.1212037e-01  -1.6768908e-02  -8.2862120e-01  -1.9276730e-01   3.4928079e-01   8.3018594e-01   2.7602259e-01  -8.0546111e-01  -2.6704714e-02  -8.6627250e-01  -3.4352141e-01   1.4725502e-02   1.9669478e-01  -5.3169254e-01   4.9877041e-01  -6.0673929e-01   7.4027110e-01   5.6110859e-01   5.5990048e-01  -7.0225038e-01   1.8192127e-01  -9.1937680e-01  -9.0948920e-01  -1.9602911e-01  -9.0749934e-01  -1.7471802e-01  -8.9786713e-01   2.4018561e-01   7.2510650e-01   4.4994683e-01  -1.0167283e-01   2.1464121e-01   1.5388768e-02   1.9460397e-01  -1.2571045e-01  -3.5539179e-02  -4.2018934e-01  -5.1067621e-01   7.3982403e-01  -7.0306278e-01  -1.1615773e-01   7.3834166e-01   9.4766291e-01   1.3011138e-02   4.2475125e-01   1.7290881e-02   2.4631306e-01   9.9765057e-01   6.5772597e-01   4.8994698e-01  -5.4530766e-02  -6.3733359e-01  -6.1069456e-01   2.5700304e-01  -5.9837234e-01  -5.2453471e-01  -5.3564961e-01   7.7174126e-01   5.3024307e-01   9.2625118e-01   1.9552987e-01   3.4076909e-01   8.3918643e-01   6.3279733e-01  -9.3418113e-01   1.9545462e-01  -9.4286369e-02  -8.5624427e-01   5.5434829e-01  -4.8926758e-01  -8.9437329e-01  -3.0407356e-01  -3.1407167e-01  -9.8570142e-01   3.3919255e-01   4.9774511e-01   3.4510788e-01   6.9626674e-01   4.6488354e-02  -6.2201280e-01   6.7197084e-01  -7.9248169e-01  -4.3485946e-01   7.8179041e-02  -8.9752273e-01   5.4562732e-01  -5.5655287e-01  -4.4993148e-02  -3.0678257e-01  -5.3844171e-01   2.9618182e-01   7.8051086e-01   1.5105659e-01   3.3849943e-02  -8.8704054e-01  -6.6128044e-01   7.7274915e-01  -3.2987047e-01  -5.5659189e-01   4.8151596e-01   6.1338163e-01  -8.4070104e-01  -2.0518382e-01   6.7514589e-01   7.3295004e-01  -4.8924548e-01  -4.6419084e-01  -9.4706833e-02   7.0854153e-01   4.0129368e-01  -9.0202785e-01   7.5728331e-01  -6.6860145e-01   1.0788372e-01  -3.1912795e-01   5.3472462e-01  -3.9165717e-01  -2.2783032e-02  -9.3221437e-01   4.9539014e-02   7.4540132e-01   4.0749943e-01   3.5296410e-02  -7.7557771e-01  -8.6072954e-01   3.9940194e-01  -8.1250602e-01   3.7980528e-01  -8.1127460e-01  -8.5625025e-01   2.8176228e-02  -4.7777621e-02   5.2445310e-01  -8.8417768e-01  -4.9743392e-01  -7.5600030e-01   7.2219259e-01  -4.6248768e-01   3.0599437e-02   7.7447585e-01  -4.5982719e-01   5.5838370e-01  -2.7471540e-01   9.6277964e-01   3.6367976e-01  -2.4879849e-01  -5.9351300e-01  -2.5738931e-02   8.6803429e-01   7.6830385e-02  -8.7382833e-01   8.5288514e-01  -8.3603967e-01  -8.0180061e-01   8.3887516e-01  -1.6359919e-01   7.9796997e-01   3.6079582e-02  -1.4241802e-01  -8.5436424e-01   1.5530688e-01   6.0806948e-01  -7.8912384e-01  -7.6429918e-01  -1.6869470e-01  -2.2308296e-01   2.6850355e-01  -6.1598868e-01  -8.6824691e-01   4.6150678e-01  -4.7537450e-01  -5.8487843e-01  -1.2240356e-01   7.0016023e-01  -8.1828629e-01  -2.7761254e-01  -2.0855277e-01   4.6473766e-01  -1.0430584e-01  -7.5375396e-01  -6.4442181e-01   7.3110712e-01  -3.0412374e-02  -7.6140225e-01  -7.9075830e-01   8.2058378e-01   9.3642134e-01   4.4878598e-01  -6.8889341e-01   1.7558140e-01  -2.0151207e-01  -5.7472425e-01   3.8465858e-01   5.2795596e-01  -2.3624501e-01  -4.2944442e-01   9.4015113e-01   2.2978742e-01   2.9549460e-01   5.6016146e-01   5.8289899e-01   3.6638758e-01  -8.4897682e-01  -5.6609678e-01  -1.9652985e-01   1.7786128e-01  -9.5897770e-01  -2.2614707e-01  -9.2024501e-01  -4.9928152e-01  -3.7796008e-01   5.4325407e-01   2.3598562e-01   2.8390766e-02  -5.1087834e-01   4.8903311e-01  -6.2867482e-01   8.8780333e-01   3.9433986e-01   4.0806600e-01   8.7577681e-01   2.5951348e-01  -6.1979845e-01  -1.2662550e-01  -3.6223074e-01  -9.0610895e-01  -7.6321047e-01  -5.4726658e-01  -2.7774619e-02  -7.4970064e-01  -5.5575538e-01  -9.3362912e-02   5.1642779e-01   4.5272958e-01   2.4743904e-01  -3.8188488e-01   1.8733086e-01   4.9560723e-01   5.6650292e-01   5.0267949e-01  -7.1298819e-01  -9.8973881e-01   4.6959986e-01  -1.2945987e-01  -7.8061272e-01  -2.8002759e-01   8.1917092e-01   3.3509608e-01  -3.9562360e-01  -9.9008582e-01  -8.3524746e-01   2.9742937e-01  -1.5168407e-01   4.7653209e-04   5.0127271e-01   6.9201136e-01  -2.2713312e-01   8.7811492e-01  -1.7519294e-01   7.7941094e-02   7.7750680e-01   8.0846306e-01   4.2798277e-01  -3.1068486e-01  -6.5842059e-01   7.0615595e-01  -7.6928261e-01   9.0003916e-01  -8.4802208e-01   1.7001763e-01   7.8523509e-01  -8.5060678e-01   3.8407461e-01  -7.5412721e-01   5.9126988e-01  -4.4360146e-01  -8.7890433e-01   2.8412765e-01   5.9186309e-01  -1.5126429e-03  -6.8043078e-02   4.4822075e-01   9.0693497e-01  -2.4281976e-01  -7.9745170e-01  -8.8747249e-01   4.1067210e-01  -7.0804367e-01   2.1248725e-01  -2.2460711e-01   5.0160360e-01   4.7387204e-01   8.3541249e-02  -1.6161559e-01  -8.5017318e-01   4.7354091e-01  -1.6748280e-01  -6.5216660e-01  -4.8696202e-01  -6.6743731e-01   3.1990580e-01   7.8154197e-01  -3.6458941e-01   1.6755862e-01  -8.7534936e-01   2.9583713e-01   7.0377697e-01   4.7019866e-01  -3.3451969e-01   6.0576824e-01  -7.0884095e-01   6.6941372e-01   7.5323824e-02  -6.0814976e-01  -4.0862647e-03  -5.1584307e-02  -4.6659381e-01  -7.5961487e-01  -3.4485114e-01  -1.5060380e-02  -4.5181158e-01   2.9723064e-01   7.5798213e-02   8.7104353e-01   1.0012109e-01   8.1133523e-01  -7.1709578e-01  -2.1570853e-01  -2.8371348e-01  -1.3487312e-01   2.0453142e-01   5.1303993e-01   4.4471566e-01  -4.1252853e-01  -2.9751450e-01  -4.8801243e-01   9.9388907e-01   7.6925188e-01  -3.0243119e-01   3.4934562e-01  -9.9463883e-01  -2.2127005e-01   6.3236054e-01   4.0639383e-01   1.0542191e-01  -4.5850225e-01  -6.7447817e-01   6.7195016e-01  -2.9527262e-01   3.6641912e-01   4.5818226e-02  -1.0055733e-01  -1.2122214e-01  -3.5793405e-01   8.3711721e-01   6.9599724e-01  -9.4647319e-01   9.0385667e-01  -8.2928481e-01  -2.5566046e-01   4.3937683e-01   8.7530108e-01   5.7032597e-01   6.9794651e-01   6.4880638e-01   6.5289659e-01   8.8037911e-02  -1.9485632e-01  -8.1390104e-01   9.3981325e-01  -9.4664817e-01  -3.9221384e-01   4.4591040e-01  -1.9099724e-01  -7.4120320e-01  -7.2583239e-01   7.9789005e-01  -5.2326719e-01  -6.6173922e-01  -9.8333090e-01  -8.0567842e-01  -4.3725517e-01   7.1908845e-01   1.9242599e-01   7.9137032e-01  -8.7972035e-01  -8.0453703e-01   6.9314218e-01  -8.9775395e-01  -8.1262429e-01   3.2153551e-01  -6.4672002e-01  -8.0240341e-01  -7.8358503e-02   8.5580255e-02  -3.3548802e-01   1.8059749e-01  -4.0182215e-01   3.8753064e-01   3.6756335e-01  -8.2906359e-01  -9.2037914e-01   2.8190318e-01  -7.4963410e-01   7.2257878e-01  -2.5230101e-02   5.9233228e-01  -9.9822199e-01  -1.6483992e-02  -9.6259316e-02   7.7766352e-01   6.6979999e-01  -4.6213772e-02  -9.4526401e-01   2.2854465e-01  -5.8435389e-01  -5.5493940e-01  -3.8500953e-01   3.3094225e-01  -6.5944553e-01  -8.3537127e-01   2.2997162e-01  -7.2636584e-01   3.8408976e-03   3.6570769e-01   4.6243904e-01   9.2925676e-02   9.8048673e-01   4.6247898e-01   7.1859486e-01  -3.2448084e-01  -5.3397162e-01  -7.9701287e-02   1.1941635e-01  -4.2504349e-01   6.4284203e-01  -3.1640242e-01   6.0451754e-01  -2.4300032e-01  -3.5391552e-01  -3.7187285e-01  -2.2613439e-01   9.4642968e-01  -6.7214533e-01  -1.1677720e-01   2.6801816e-01   6.2083759e-01   7.8131509e-02   4.4689302e-01  -3.4284205e-01   9.9086555e-01   6.3938499e-01   1.7089814e-01   3.8972239e-02  -6.1731964e-01   5.6701827e-01  -5.3644190e-01   9.8001857e-01  -7.3591769e-01   8.0372468e-01   1.4347630e-02  -8.0090494e-01  -5.1785934e-01  -4.9306619e-01   7.7477085e-01  -3.8599571e-01  -3.4769619e-01  -8.9734517e-02  -1.5326655e-01   8.5158319e-02   7.5581505e-01  -3.9712711e-01   2.5208764e-01   2.7326448e-02   3.7449996e-01   5.6239662e-01  -4.4860235e-01  -2.9946193e-01   7.5114814e-01   9.4060567e-01   9.6706547e-01  -2.1110644e-01  -2.9237592e-01  -4.4493162e-01   1.6376726e-01  -7.0922192e-01   4.3673373e-01  -8.5618013e-01   5.0836052e-01  -5.6957460e-01   1.1020620e-01  -5.1344035e-01  -1.2361853e-01  -1.9027712e-02   7.5023862e-01  -9.2064131e-01   3.2949000e-01  -2.2683129e-01  -4.0030017e-02  -6.0700101e-01   9.9430681e-01  -4.5223807e-01  -2.1240171e-02  -5.7167548e-01   5.4592861e-01  -5.6595458e-01  -4.1465786e-01   1.1500845e-01  -1.9174414e-02   8.0626528e-02   3.7535319e-01   5.3499567e-01   1.5870146e-01   3.2725391e-01   4.5028369e-01   9.1921295e-01  -5.0624376e-01  -6.2429233e-01  -9.4837700e-01   5.3089789e-01  -9.1732153e-01  -4.4090589e-01  -8.1488729e-01   2.2054344e-01   1.3170224e-01  -1.8759106e-01   7.3745306e-01   5.8898932e-01  -1.7330669e-01  -7.2548965e-01   7.7577429e-01   8.0359878e-01   6.3868103e-01  -1.2870041e-01   4.2944774e-01   1.9860287e-01  -2.8197935e-01   9.5256038e-01   8.9167176e-01  -6.2748060e-01  -1.8303711e-01   2.8126380e-01  -7.2494975e-01  -3.2385758e-03   5.1701912e-01   5.4741045e-01   4.7940821e-01   9.9695588e-01  -6.0190879e-01   7.6881315e-01   6.2824907e-01  -5.3200644e-01   4.7030621e-01  -3.3828676e-01   4.3502618e-01   2.6400656e-01   8.5827486e-01  -7.0057917e-01  -5.4923295e-01  -2.7417475e-01  -7.0998807e-01   9.9939305e-01   7.6720976e-02   5.5499706e-01   6.3759374e-01   7.6577714e-01   1.2653999e-01  -4.0537923e-01   9.4299688e-01  -5.7762224e-01  -1.6212330e-01  -3.9281272e-02   7.0362694e-01  -5.2173670e-01   7.1774435e-01   2.3499195e-01  -2.7379451e-01   7.5954577e-01   9.7189201e-01   9.9480702e-01   4.1740542e-01   1.6930883e-01   7.6143401e-01  -5.8369550e-01  -7.3373866e-01   6.9259499e-01   5.2188009e-01   4.2064138e-01  -1.5558446e-01  -8.3852212e-01   7.9822840e-01  -3.6172897e-01  -5.6762064e-01  -4.9195578e-01  -4.3803377e-01   7.6309234e-01  -4.8998118e-01   6.6081339e-02  -7.8604374e-01  -7.5372453e-01  -9.9914285e-01   5.0173411e-01  -2.7245888e-01   3.8391743e-01  -4.7824614e-01   7.0334361e-01  -2.8651787e-01   6.2919211e-01   7.8294202e-01  -1.8543736e-02  -3.5025210e-01  -9.5810570e-02  -4.6411087e-01
  -2.9594071e-01  -1.7637166e-02  -3.5576717e-01   3.4544328e-01  -9.0223400e-02  -4.7983745e-01   9.4831382e-01   5.5034275e-01  -3.1755209e-01  -9.6245075e-01  -2.2313753e-01   7.9177342e-01   4.0917670e-01  -6.3935004e-01  -1.1170374e-01  -3.2576523e-03   7.2357231e-01   4.3160089e-01   5.8652468e-01  -9.4179270e-02  -3.5448247e-01  -8.8708808e-01   9.1590449e-01   2.5567386e-01  -7.6763428e-01   8.7736758e-01  -9.3288851e-01   6.3784281e-01  -9.2123147e-01   7.0965408e-01   3.5178175e-01   4.1244446e-01  -9.6869247e-01  -3.0168970e-01  -3.7839331e-01   8.8664036e-01   3.6936058e-01   2.3920129e-01  -5.0582912e-01  -1.3573144e-01   2.2108868e-01   2.6427389e-01   2.3166783e-01  -8.9896580e-03  -2.6447412e-01  -3.3795667e-01  -2.8607511e-01   2.8296128e-01   2.0119222e-01  -4.3000240e-01  -6.6038034e-01   6.8412938e-01  -9.2808640e-01   1.1807664e-01  -5.3284245e-01   1.7792726e-01   4.3489932e-01  -9.6363201e-01  -2.6665229e-01   3.6810286e-01   2.2076476e-01  -3.2038975e-01   5.8975351e-01   7.0893018e-01  -8.7354874e-01  -8.5182352e-01   3.0642744e-01   6.9526890e-01  -3.5749284e-01  -5.4786816e-01  -1.8752069e-01   7.6423199e-02  -6.2115256e-01  -1.0863283e-02   8.4123898e-01  -4.7116542e-01  -8.2079348e-01   3.8878260e-01   3.4443018e-02  -8.3110340e-02   7.6746561e-01   9.1788354e-01  -2.5464885e-01   4.4331867e-01   8.5678838e-01  -6.1780626e-01   8.9458301e-02   5.7555712e-02   9.7326358e-01   8.3471635e-01   3.5707911e-01   8.9759658e-01  -8.6968599e-01  -7.6893491e-01  -7.0042548e-01   9.2743829e-02   4.0172479e-01   5.1748035e-01  -7.2008962e-01   3.9426014e-01  -3.3234150e-01   9.2266082e-01   8.4168839e-01  -1.9358777e-01  -9.8152506e-01  -6.8044354e-01   6.9711971e-01  -2.5536324e-01  -3.6041103e-01   4.9001355e-01   5.7386870e-03  -9.7847875e-01   6.3491216e-01   4.4938487e-01   5.8769728e-01  -2.3805367e-01  -6.3984406e-01   3.9115849e-01   5.0396879e-01   8.6934930e-01   7.7470500e-01   8.1505882e-01  -8.0483621e-01   9.3898811e-02  -8.4245629e-01   2.8657994e-01  -5.5666029e-02  -6.5766814e-01   2.7958804e-01   4.0895706e-01  -4.7130501e-01  -5.3672668e-01   9.4965861e-01  -7.5380038e-01   8.6424385e-02  -3.0666725e-01  -9.2749499e-01   3.9197474e-01  -5.8763604e-01   2.2910068e-01  -8.6461539e-01   9.0026917e-01   7.6257038e-01   7.0295457e-01  -9.9512257e-01  -7.0785333e-01   6.1808417e-01   6.9294380e-01   7.2616151e-01   1.6215174e-01  -8.2951177e-01  -3.7254394e-01   3.6198358e-02  -2.0645042e-01   6.5012744e-01  -9.1170775e-01   3.5874555e-01   4.9622712e-01   6.1067053e-01   6.8669593e-01  -1.6833706e-01  -5.3167632e-01   3.8279648e-01  -7.7472207e-01  -7.2337246e-01  -5.8744835e-01  -8.8590098e-01  -6.7926782e-01   8.2377724e-01  -5.1290071e-01  -2.5935681e-01   8.5020958e-01   1.4818348e-02  -1.5780432e-01   2.3020868e-01  -4.7893849e-01   8.9094161e-01   1.6656319e-01   2.2298826e-01   5.5902914e-01  -2.4453851e-01  -2.2539506e-01   2.2098280e-02  -5.2812241e-01  -5.7319515e-01   7.5667245e-01   6.9411346e-01  -6.6885701e-01   9.4166989e-01  -5.3352392e-01   2.3380180e-02  -3.4440018e-01  -3.9904712e-01  -5.4678192e-03   6.0858226e-01  -6.7823010e-01   6.1890702e-01   5.2830850e-01  -3.0468331e-01   4.5192810e-01  -4.8046844e-01   9.5331658e-01  -5.2713811e-01   3.8006018e-01  -7.0702233e-01  -7.3250227e-01   7.5687144e-01  -2.5542750e-01   8.9639262e-01   8.2930155e-01   9.0935136e-01   1.6851227e-01  -3.4709039e-01  -7.0491554e-01  -4.4043524e-02  -3.5222271e-01  -6.3021328e-01  -9.8215227e-01   9.2468498e-01   8.7283652e-01  -3.1336666e-01  -4.2836535e-01   1.6543955e-01   5.8249945e-01   3.9037761e-01  -1.0334784e-01   3.9084981e-01  -2.3325799e-01  -2.1006012e-03  -4.1856342e-01   1.3496387e-01   4.1808683e-01  -7.9871521e-01  -9.1086367e-01  -9.4447786e-01  -4.5074177e-01  -2.1549637e-01  -7.8343917e-01   6.0946904e-01   3.2515968e-01   5.2909844e-01   8.7173507e-01   1.4199825e-02   2.9545751e-01  -3.1087663e-01   1.2909951e-01   2.9556211e-01  -3.7281441e-01   9.8257255e-02   9.9526254e-01   3.3856275e-01   9.5639770e-01  -9.0136615e-01   7.7332601e-01   4.3409029e-01   6.4707418e-01   3.1894608e-01  -8.3138977e-01   7.8198498e-01   8.6124417e-01  -9.8279646e-01  -6.0569857e-01   1.2597666e-01  -1.7955874e-01  -7.4371802e-01   7.3754394e-01  -7.7300757e-01   2.2121705e-01   3.4663452e-01  -3.6114922e-01   8.5099521e-01  -1.2971497e-02   5.3306258e-02  -7.4023206e-01   6.6845020e-01  -8.2113431e-01  -3.3703347e-01   2.6887301e-02  -9.3394585e-01   6.4875936e-01  -9.7821163e-01   1.8384670e-01  -3.3489987e-02  -7.7788679e-01  -4.5921994e-01  -9.8269076e-01  -5.0141330e-01  -2.4702425e-01  -4.2951612e-01   1.4990285e-01   6.8162432e-01   5.5747699e-01  -4.5997361e-01  -8.4736207e-01  -8.2439397e-01   7.9644961e-01  -4.8278213e-01  -3.4768363e-01  -5.8601699e-01   8.6780458e-01  -8.8442856e-01  -1.1189300e-01  -5.9520785e-02   6.2463045e-01   1.2513593e-01   2.6493132e-01  -6.1683355e-01   6.2793823e-01   1.6359146e-01   3.3992885e-02  -4.5628697e-01  -3.3488648e-01   4.8055400e-01   7.1719565e-01  -8.7467997e-01  -3.1037593e-01   5.5230780e-01   4.3866238e-02  -7.9632276e-01   3.8329472e-01  -1.9869660e-01   9.8169110e-01   2.8494002e-01   8.2120402e-01   1.7661623e-01  -2.9199965e-01  -3.3821964e-02  -3.0007120e-01   1.8152269e-01  -1.7651506e-01   4.1011777e-03   9.5855206e-01  -7.8594748e-01  -9.7811086e-01  -9.5179110e-01  -3.2310625e-01  -6.5938282e-01  -8.8755891e-02   1.3637195e-01   9.1579112e-01   5.3180889e-01  -6.3137650e-01   7.3717605e-01   7.1810234e-01   8.0107929e-01  -2.9021942e-01  -7.6469927e-01  -1.5321365e-01  -4.7927184e-01   1.3092185e-01  -7.3470878e-01  -4.3774244e-01   6.9564867e-01   8.5030009e-01  -3.5008409e-01  -1.1050806e-01   7.1558485e-01  -9.9938301e-02  -8.6416625e-01  -9.2201222e-01  -5.9797667e-01  -8.8561093e-01   3.9124013e-01  -5.4903373e-01  -9.0126901e-01   3.0203833e-01   9.0130814e-01   3.8983622e-01  -4.7487476e-01  -5.7080669e-01  -2.0362963e-01  -3.3204737e-01   7.2166659e-01   6.9105321e-02   4.1205667e-01  -4.3594095e-01  -7.3666195e-01   8.3146421e-01  -7.1914587e-01  -4.6457403e-01   2.0345394e-01  -3.6706867e-01   8.0176289e-01  -9.8311226e-02   4.9963716e-01  -7.3501764e-01  -6.7607391e-01   8.8914955e-01   1.8245570e-01   3.8180967e-01  -1.5973155e-01  -4.0992801e-01  -4.7397879e-02  -8.4580616e-01   4.6911918e-01   1.9925915e-02   2.6755183e-01  -9.4565852e-01  -9.9650907e-01  -4.7854029e-01   3.0483808e-01   5.4016405e-01  -9.0572709e-02   6.1726373e-01   2.4198009e-01   2.1728227e-01  -2.3282749e-01  -3.4316807e-01  -8.1698943e-01  -8.8431250e-01  -9.4661783e-01   7.3738454e-01   1.0401368e-01  -8.8127471e-01  -8.8315958e-02   1.3746213e-01  -5.1474339e-01  -9.8983403e-01   5.7883314e-01   2.3196763e-01  -7.7514962e-01  -5.3718737e-01  -3.6476497e-01   9.6993533e-01   1.2735819e-01   9.7410766e-01  -7.5244661e-01  -9.8249205e-01   1.5527070e-01   7.3612538e-01   7.1085453e-02  -7.4399651e-01  -1.7206904e-01   7.8373227e-01  -4.2436312e-01  -6.6287071e-01   4.1617178e-01   3.8830044e-01   5.1343952e-01   4.8672432e-01   1.0879675e-01  -3.3591064e-01   4.8772107e-02  -9.9664967e-01   7.9289439e-01   8.8651355e-01  -6.1268624e-01   9.0102627e-01   1.7360047e-01   3.3564229e-01  -9.2746020e-01   1.7426027e-01  -6.7229445e-01   5.1092233e-02   7.2753418e-01   3.6276478e-01   7.7034564e-01  -7.6363126e-01  -9.7145912e-02  -1.5699827e-01  -5.1188448e-01  -8.7209451e-01   8.3052598e-03   3.7040190e-01  -8.2554275e-02  -2.4007941e-01   5.1050646e-01   6.7615746e-01  -4.5722439e-01   7.0138940e-01  -7.4208601e-02   2.8836989e-01  -8.7513063e-01  -6.3855260e-01  -2.1802915e-02   4.5232649e-02  -2.6358753e-01   7.0098137e-01  -3.9771156e-01  -1.8348763e-01   9.4892154e-02   2.8343862e-01  -2.8509670e-02  -5.3079118e-01   3.6548634e-01  -1.8484996e-01  -7.8209801e-01  -5.2991995e-01  -2.3700185e-01  -1.0923331e-01   8.9600189e-02  -2.1269468e-02  -2.8885680e-01   7.7020687e-01   4.6514991e-01   6.4049066e-01  -5.5289908e-01   1.3062802e-01  -5.2355622e-01   2.1931768e-01   9.9660174e-01   7.4337039e-01   2.5436803e-01  -5.0730319e-01  -5.0341974e-01   2.0736555e-02  -1.4840222e-01  -4.7200219e-01   1.8133771e-01   8.4058747e-01  -9.5173923e-01   3.6821714e-01   2.6631938e-01   1.4541269e-01   1.7998111e-01   9.7920772e-01   9.9666809e-01   6.2461649e-01   9.9660994e-01  -1.3019185e-01  -8.5845498e-01  -4.9919095e-01   2.1117091e-01  -3.5264909e-01  -3.7889042e-01   1.0703189e-01  -2.6855097e-01   8.6838366e-01  -4.3730087e-01  -8.9526345e-01  -7.6366816e-01   6.9425114e-01   2.9476726e-01  -4.0750418e-01  -1.4551554e-01   7.7448719e-01   6.3051380e-01  -5.1876332e-01  -4.8174045e-01   9.7994019e-01  -6.2973232e-01   5.8947354e-01   9.6991685e-01   8.4730582e-01   6.9335467e-01   3.3194496e-01   9.5894736e-01   1.5620016e-01  -6.2582695e-01  -4.0725782e-01  -4.4078970e-02   8.8896951e-01   3.4044949e-01  -9.0065319e-01  -4.8748164e-01  -6.0416022e-01  -1.2452790e-01  -3.1048467e-01  -8.9330318e-01   9.3491303e-01   9.6392281e-01  -3.3568430e-01  -5.8644021e-01   5.1682269e-01  -3.1308416e-01   1.3271416e-01  -1.5519464e-01  -6.2179123e-01  -4.8549065e-01   8.8612681e-01   6.7803489e-01   3.4572295e-01   5.3772106e-01  -1.1269730e-01  -4.4187322e-01  -7.0053865e-01  -2.9027688e-01   8.2205906e-01   9.4424381e-01   5.8125972e-01  -4.1963658e-01  -3.2951089e-01  -8.6747245e-01   6.3320994e-01  -6.5612007e-01   1.1359263e-01  -6.5855492e-01   6.8395358e-01   7.6775770e-01  -6.0128052e-01   5.9493011e-01   5.5005591e-01   2.0256630e-02  -8.9353588e-01  -8.5929215e-01   6.1956551e-01   5.5402934e-02  -1.4778561e-01   9.6297699e-02   3.9130904e-01   9.1348714e-01   7.3536500e-01   4.4204169e-01   9.5676126e-01   4.6994053e-01   4.0888756e-01  -2.8192891e-01  -6.6919161e-01  -2.7458111e-01   4.9054814e-01  -2.0860283e-01  -9.7779714e-01  -2.3410095e-01  -9.1478974e-01   6.7364010e-01   2.2758949e-01   8.9090180e-01   6.2606505e-01  -2.0976840e-01   2.1495934e-01  -9.0940194e-01   6.1027563e-01  -3.9960574e-01   6.3821070e-01   8.1810439e-01  -9.4090766e-01   1.8461715e-01   8.2539831e-01   9.0206379e-01   2.4523080e-01  -9.3859892e-01   8.0729423e-02  -8.1840292e-01   2.3748532e-01   6.7302820e-01   3.6755152e-01  -2.2961572e-01   2.5573401e-01  -5.2798243e-01   6.4996863e-01  -1.2659114e-01   5.4678562e-01   7.5703139e-01   2.3530859e-01  -6.4721157e-02   3.8646566e-01  -1.6893138e-01   8.5684930e-01  -7.8758814e-01  -4.7003929e-01   8.4437862e-01   7.3336307e-01  -3.7616013e-01   4.7490903e-01  -1.2600010e-01  -5.2589091e-01  -2.8886041e-01  -1.5667244e-01   3.8167897e-01   2.9654000e-01  -2.5796432e-01   9.2543654e-02   7.3283628e-01  -6.7352554e-01  -3.3739579e-01   5.2668571e-01   9.6178525e-01  -1.8816856e-01  -4.8763195e-01  -3.7481774e-01   3.4111533e-02   4.6341970e-01  -4.4124877e-01   5.5036183e-01  -1.0465675e-01   1.9242123e-01   1.1364126e-01  -7.8489444e-01   1.8707889e-01  -8.1557109e-01  -8.1178315e-01  -3.8123963e-01  -6.3172856e-01  -5.4709158e-02  -1.9421131e-01  -9.5709472e-01  -4.2942607e-01   6.6956026e-01  -8.9547113e-02   9.4833520e-01  -8.7915404e-01  -3.6859131e-01   5.9953634e-01  -9.0433631e-02   5.8188601e-01   4.5930135e-01   4.8039835e-01   9.2381237e-02   7.4442001e-01  -3.9690151e-01  -5.3332868e-01   5.0396573e-01  -8.4938468e-01  -1.1361282e-01   7.9812451e-01  -4.2252769e-01   4.6655857e-01  -7.9901819e-01   2.8222901e-01  -9.8780976e-01   6.3324685e-01  -3.0480447e-01  -7.3714561e-01  -8.0492353e-01  -1.8986918e-01   2.6383140e-01   6.1417403e-02  -9.8815877e-01   8.7270854e-01   8.8346277e-01  -2.2218162e-01   2.0708237e-01  -8.4123553e-01   4.1667401e-02   2.5655793e-01  -9.7695977e-01   1.6851761e-01  -2.4140096e-01   1.9170270e-01  -8.2831483e-01  -5.7795431e-01  -1.3890842e-01   4.2963926e-01  -9.8521907e-01   6.7738736e-02  -3.9093903e-01  -6.5141028e-01  -4.6352792e-01   7.3874925e-03   4.5602820e-01   8.5690451e-01   5.7662796e-01  -8.1483424e-01   8.0370912e-01  -5.4797520e-01   7.9280615e-01   4.5075678e-01   6.7328391e-01  -5.1247681e-02   7.6034333e-01  -3.2000106e-01   2.3005089e-01  -1.8969171e-01   8.2587775e-01   6.1859668e-01  -7.6547760e-01  -4.3962318e-01   6.0334007e-01   9.4046359e-01   9.3984603e-02  -9.2242806e-01   6.0973622e-01   9.7183968e-01  -3.7916645e-01  -8.0302196e-01   5.8134152e-01  -6.0524506e-01   4.0582513e-01   1.1257883e-01   9.0992212e-01  -4.7617344e-01  -9.8316022e-01  -1.8514390e-01  -4.6528481e-01   1.4036881e-01   2.4762183e-01   2.7230255e-01  -1.4580607e-02   5.5139724e-01  -9.6831502e-01   5.6116616e-01  -7.9899261e-01  -3.2598739e-02   9.9374479e-01   3.2619220e-01   3.1595179e-01   3.9683578e-01  -2.3704083e-01   2.3527856e-01   9.0251763e-01   5.7539640e-01  -7.3278743e-01   8.7398957e-01   9.3447449e-01  -5.8464090e-01   8.5518224e-01  -9.9004350e-01  -3.4513587e-01  -7.7376689e-02  -7.3992819e-01   2.9712154e-01   3.1860959e-01   7.5913210e-01  -2.2175146e-01  -9.9630654e-01   7.4223932e-02  -9.3383669e-01  -6.0040131e-01   7.1965812e-01   2.9375258e-01   3.3525236e-01  -6.4999972e-01  -7.1959439e-01   2.7212217e-01   9.4378190e-02  -3.8575612e-01   2.8032231e-01   1.9547760e-01  -3.1401090e-01  -8.5660782e-01   5.3751158e-01   8.0550386e-01   2.6503976e-01   1.4552787e-01   6.3923903e-01   5.8229330e-01  -1.3473123e-01  -5.6363843e-02   2.8897536e-03   8.4848166e-01   4.6681355e-01  -3.1375975e-01   6.7353778e-01   5.6502600e-01  -8.6027513e-01   5.2939562e-01  -7.4372276e-01   9.3211103e-01  -9.1766678e-02  -1.4921918e-01  -8.4943449e-01  -5.8269255e-01   5.5664067e-01  -8.5333702e-01   4.8264403e-01  -8.5082783e-01   4.5573807e-01   2.7179620e-01   9.0356285e-01   4.2376731e-01   1.4739970e-01  -1.5017165e-01   7.7672077e-01   9.6867945e-01   4.9962687e-01  -7.6128308e-01  -6.4519702e-01   8.6755007e-01  -6.0604912e-01  -5.3082451e-01   7.5912193e-01  -8.7931112e-01  -8.3752083e-01   4.6033968e-01  -8.2748477e-01   1.0250407e-01   7.4106590e-01  -7.2096258e-01   7.5688432e-01  -8.6965485e-01   6.5779815e-02   1.3875283e-01  -4.7070774e-01   9.1420498e-01  -4.4412987e-01   6.4220911e-02  -1.9798357e-01   4.4798436e-01  -8.5636109e-02   2.7954450e-01  -4.2170986e-01   2.8188887e-01  -8.3942791e-01  -9.6662255e-01   8.7289898e-01   1.7636500e-01  -8.8017079e-01   8.5619658e-01  -3.7720784e-01   7.0998740e-02  -8.5560653e-01  -7.6230631e-01   3.1376741e-01  -5.0293816e-01   3.1672403e-01   9.2572956e-01  -5.8796515e-01  -9.2276887e-01  -6.9849001e-01   7.7500038e-01   7.4342860e-01  -5.6340010e-01   5.4845521e-01   5.9257650e-01   3.8934523e-01   7.8105033e-01   3.2155473e-01   1.3476795e-01   3.9401608e-01   3.1094932e-01  -3.8936486e-03  -4.8413813e-01   9.1459711e-01  -5.4784963e-01  -5.4372830e-01   9.9588597e-01   3.2792172e-01   1.4224917e-01  -7.0853957e-01   2.3086023e-01  -1.9292466e-01   1.7734871e-01   3.4589437e-01   9.0977408e-01   2.0135037e-01  -2.3075974e-01   8.3833834e-01  -7.2484275e-01  -4.1154970e-01   1.2151782e-01  -6.4463181e-01  -7.0975444e-01  -9.3111413e-01  -2.4250820e-01   1.1011830e-01   9.9301037e-01  -5.6198825e-01   6.8748779e-01  -3.4208169e-01   1.8254005e-02  -5.1865531e-01   4.3099477e-01  -3.3270583e-01   2.2592049e-01  -2.9112180e-01   1.9314483e-01  -9.5357279e-01  -4.7524962e-01  -9.9554184e-01   1.0497281e-01   6.8543535e-01  -6.5395306e-01   6.0726844e-01  -3.5082363e-01  -1.6152287e-01  -9.9921824e-02  -5.2067299e-01   3.7823959e-01   7.5971926e-01  -2.8027458e-01   3.5167930e-01  -7.6735918e-02  -1.1195161e-01  -6.7413525e-01  -9.9496395e-01  -7.5832244e-01  -8.6668365e-01  -2.7819422e-03  -8.6048382e-01   1.4788118e-01   4.9595224e-01  -9.4968561e-01   1.7237413e-01   1.6515415e-01  -4.4525984e-01   9.6760723e-01   4.0472680e-01  -6.1702335e-01  -7.2326710e-01   2.6478108e-01   5.9433348e-01  -2.7377342e-01   8.7794769e-01   8.0727494e-01   3.2634008e-01   9.9036181e-01  -7.1643455e-01   2.9617727e-01   5.5715252e-02   4.4613942e-02  -5.8818809e-01  -8.9943428e-01  -9.4341078e-01  -1.8196670e-01   3.1220254e-01   9.5519211e-01  -1.1575631e-01   6.9114239e-01   4.5082481e-02  -6.1622537e-01
  -7.9245157e-01  -5.4667798e-01  -7.2000113e-01   5.5461633e-01   7.1394508e-01   2.4813466e-02  -7.3744846e-01  -6.7616871e-01  -2.4968881e-01   2.3354397e-01   5.5707792e-01   6.3774500e-01  -7.0959228e-01   8.2513066e-01  -8.0081000e-01   1.6282962e-01   1.1037089e-01   2.6188673e-01  -2.2120997e-01  -8.0116242e-01  -1.0152296e-01  -2.1841609e-01   4.9044163e-01  -7.1824059e-01  -5.6857638e-01  -6.4138305e-01  -3.2075352e-01   7.9140353e-01  -4.6127998e-02   2.8685653e-01  -7.9102642e-01   6.4077124e-01   4.0981929e-01  -3.6100530e-01   4.9000518e-01   3.6965498e-01   1.2561460e-01   5.8455999e-01  -3.4778317e-01   1.2562272e-01   4.8293100e-01  -1.6334270e-01   7.5832879e-01   5.9402040e-02   9.7193615e-01   5.7776047e-01   9.1058150e-01  -5.3138260e-02  -2.8037208e-01   5.0445009e-01   5.9105702e-01   4.3873988e-01   2.7421427e-01  -7.0475250e-01   9.8234922e-01   8.4776876e-01  -3.3126254e-01   3.4359889e-01  -9.4812056e-01   5.7905659e-01  -5.0196393e-01  -1.3830268e-01  -3.2655745e-01  -9.2892541e-01  -9.5745906e-01   4.6208479e-01   3.2550560e-01  -4.4156779e-01   1.1906272e-01  -1.0991761e-01   7.7746812e-01   7.6646594e-01   6.9178405e-01   7.3940619e-02   5.2355699e-01   3.5469953e-01   7.4015924e-03  -5.4593885e-01  -1.2473376e-01   9.2489347e-01   3.0538893e-02   5.3724142e-01  -5.3137856e-03  -3.3985223e-01  -3.5504499e-01  -2.3375560e-02  -9.2537746e-01  -4.6773526e-01   7.3809807e-01   4.2143886e-01  -6.6714476e-01   8.2050222e-01   2.8013879e-01   7.1027404e-01   7.0393232e-02   1.6419786e-01  -9.3874522e-01  -5.7142783e-01  -8.0834213e-01   7.8256172e-01   8.8333083e-01  -6.2699466e-01  -1.7452801e-01   2.9200755e-01  -3.1478953e-01   7.9781118e-01  -6.0013092e-01  -9.4304710e-01  -1.8460606e-01   8.6226355e-01   3.0987112e-01  -1.5805923e-01   1.4358227e-01  -9.3829471e-01  -7.6203235e-01   6.3540128e-01   8.2972048e-01   5.3677749e-01   3.4116611e-01  -8.1627071e-01  -3.7032382e-01   2.7429107e-01  -1.6462856e-02   7.6533956e-01  -8.4365538e-01   3.2924841e-01  -5.0435849e-01  -1.9193206e-01   8.4841996e-01   5.7607835e-01   5.2924940e-01  -1.2782849e-01   7.4416746e-02  -6.1750799e-01   9.5541348e-01   8.7271970e-01   2.9291179e-01  -1.6509845e-02   3.4942391e-01   3.5111484e-01  -8.1234784e-02  -9.2707779e-01   1.1351631e-01  -2.7235777e-01   1.9978627e-01  -2.2206082e-01  -5.5806678e-01  -7.9178908e-01   1.6207377e-01   9.9778056e-02  -4.5275142e-01   4.1012228e-01   6.0338819e-01   1.5976720e-02  -6.4796659e-01  -6.0163347e-02   7.3228376e-01  -4.9406829e-01   8.3437457e-01   4.0598394e-01  -5.1667562e-01   4.8953956e-01   8.5050026e-01   3.1970019e-01   8.6430189e-01   1.2974602e-01  -7.1762106e-02  -9.1286516e-02   5.6587605e-01   2.7070474e-01  -3.1047688e-01   4.2385603e-01   9.5891320e-01  -6.4818682e-01   1.9969447e-01   5.3976613e-01   1.9751250e-01  -1.6694894e-01  -6.9742955e-02  -6.9726022e-01   7.6611818e-01   4.3606030e-03  -5.5726699e-01   3.4727729e-01   8.3990476e-01   7.8615380e-01   7.9994633e-01  -5.9606764e-01  -5.4237776e-03  -4.9657240e-01  -6.6797198e-01   5.8744871e-01   7.2551715e-01   3.9528582e-01  -5.2859940e-01  -3.6342148e-01  -5.4036612e-01  -5.2784134e-01   1.0609198e-01  -9.8113338e-01   8.1274696e-01   8.2411984e-01  -1.3693544e-01   6.5385172e-01  -4.3444002e-01  -4.4592885e-02  -5.3703866e-01  -5.2530075e-01  -1.8152810e-01   7.7234490e-01  -8.8451328e-01  -1.9144213e-01   7.4341711e-01   5.0565104e-01   9.6162717e-01   5.5703021e-01   8.4493611e-01  -9.6754735e-01   7.0498687e-01  -6.3876460e-01   1.1414837e-02   7.3065489e-02   6.0157344e-01   5.4598405e-01   5.3649340e-01  -6.0109546e-01  -8.2584121e-01   7.9408330e-01  -9.2864413e-01   7.6023860e-01  -9.8555021e-02   2.1221426e-01  -3.6218697e-02  -8.8863330e-01  -6.2629480e-01  -5.4646521e-01   1.8751616e-01  -9.3148522e-01  -8.6152116e-01  -9.9268315e-01   3.9833610e-02  -6.6957354e-01   3.3322423e-02   9.7767204e-01   2.7201887e-01   7.8098241e-02   4.4931963e-01   3.2153664e-01   6.3390940e-02   7.3884509e-01  -7.0401941e-01   7.8095294e-01  -7.2870190e-01  -7.1425784e-01  -5.6358272e-01  -6.9425061e-02   1.7882443e-01   9.8735863e-01  -3.3168249e-01  -9.9616755e-01   1.9683952e-01   4.8636349e-01  -7.0194396e-01   6.0809052e-01   9.9590332e-01   1.7981028e-01  -6.7439933e-01  -4.5159275e-01   5.0745853e-01  -8.6285132e-01  -8.4498982e-01  -7.9063347e-01   2.0009952e-01  -6.3317235e-01  -7.7503742e-01   4.1386699e-03   6.0685572e-01  -7.1224314e-01  -6.7577540e-01   7.1882275e-01  -9.0457263e-01   2.4304773e-01  -9.0642796e-01  -1.6499877e-02  -1.6914136e-01   5.5627027e-01   5.2594714e-01   1.1204718e-01  -9.8078802e-01  -5.5529389e-01   8.3109066e-01   9.1941783e-01   6.5868585e-02   9.4165768e-01   5.9167061e-03  -5.1143368e-01   8.6953671e-01   5.5108101e-01  -3.1693365e-01   3.9541835e-01   7.7786952e-01  -8.6533548e-01  -2.7224462e-01  -8.0306667e-01   4.5524348e-01   1.5344111e-02  -5.6392050e-01  -1.8004415e-01   1.4724219e-01  -3.5636210e-01   6.7125599e-01   7.7248147e-01  -6.0609392e-01   5.3546888e-02   3.3893620e-01   8.4002042e-02   2.1128158e-01  -2.5416496e-01   9.4468664e-01   8.3427435e-01  -3.5295893e-01   6.7406585e-01  -3.6537461e-01   3.4103573e-01  -7.6221266e-01  -6.2320929e-01  -8.9142542e-01   1.3117745e-01  -1.8002412e-01  -2.5756715e-01  -6.6268730e-01   2.6139949e-01  -3.5759731e-01   6.0009601e-01  -4.4698569e-01  -9.8820313e-01  -4.2138241e-01   7.9678068e-01  -5.1164333e-02   2.8190404e-02  -4.5631149e-01   6.0211276e-01  -7.2958364e-01  -7.5977250e-01   7.6583762e-01  -5.1306420e-01   1.0358011e-01  -4.1569498e-01  -5.8393735e-01   6.6129403e-01   8.8851134e-01  -5.5177610e-01  -5.9342237e-02   7.3974494e-01   9.8831888e-02   7.5676926e-01  -8.6552183e-01   9.1586172e-01  -3.1951261e-01  -1.4430058e-01   5.7265191e-01  -1.1764829e-01  -4.8104625e-01   5.8319229e-01  -2.7106988e-01  -5.3694771e-02   8.3852631e-01   4.6163148e-01   2.1837276e-01   9.1349380e-01  -8.9063936e-01  -9.6370402e-02   1.1700763e-01   1.7020890e-02   2.8810557e-01   2.6135496e-01   1.7921792e-01   8.9044209e-01  -6.3071370e-01  -2.8032950e-01  -8.2613525e-01  -4.0178716e-01   8.7281593e-01  -6.8663146e-01   7.7876151e-01  -5.8644923e-01   1.5154667e-01   8.3645410e-01   7.0292531e-01   8.3322853e-01   3.5450877e-01   8.9554936e-02   9.0758911e-02  -1.9597303e-01  -3.9721711e-01   8.5633346e-01  -8.1149161e-01  -8.6597802e-01  -4.4093204e-01   8.6245038e-01  -4.8056700e-01  -2.7791361e-01  -4.7388236e-01  -1.2481588e-01   3.1288984e-02   4.8380213e-01  -3.7408293e-01   1.4930718e-01   9.2420384e-02  -8.3916242e-02   2.6051419e-01  -4.6887544e-01  -1.8012811e-01   8.0164080e-01  -7.3271334e-01  -6.2409369e-01  -1.1284039e-01  -1.3842201e-01   4.2465173e-01  -9.4366696e-01  -4.4502329e-01  -5.2948994e-01   8.6870051e-01  -8.6515241e-01   3.1377153e-01   2.0560627e-01   6.5734930e-01   1.1209391e-01   9.7422813e-01   4.5062744e-01  -3.8195701e-01   6.7205029e-01  -8.9326114e-01  -1.0994024e-02  -5.0453655e-01   2.1576292e-01   2.0271116e-01  -3.3102571e-01  -4.3549246e-01  -4.3490430e-01  -5.3483355e-01  -7.2263037e-01   9.1450889e-01  -6.8942710e-01  -7.2150732e-01   4.3855115e-01   4.6729077e-01  -2.3802973e-01  -2.8130054e-01   7.2603012e-01   6.8116911e-01   9.8617111e-01  -5.2518955e-01  -5.3087748e-01  -3.0004846e-01  -7.0559260e-01   5.5538090e-01   4.2814940e-01   2.3484010e-02   1.1592348e-01  -6.2381880e-01   7.0179398e-01  -9.2563383e-01   3.5014990e-02   7.4841892e-01   5.7685628e-01   5.3241646e-01   1.4572829e-01  -9.7629364e-01   7.2598335e-01  -2.7781494e-01  -5.8430640e-01  -9.0904249e-01  -2.6917209e-02  -6.0890141e-01  -8.0682557e-01  -5.9465609e-01  -8.9882650e-01  -1.1205943e-02  -1.4665628e-01  -6.8129697e-01   4.7088131e-01   7.7558950e-01  -5.8848912e-01   5.9777717e-01  -4.1423676e-01  -3.2595644e-01   2.8807002e-01  -7.8695729e-01   9.4670981e-01   5.5350562e-01   5.4512575e-01  -2.1127237e-01   9.0547553e-01  -8.4457713e-01  -1.2336833e-01   8.9883210e-01  -2.1573264e-01   8.7514065e-01   7.3501734e-01   3.8845856e-01   9.6161576e-01   6.6542475e-01   8.7386583e-01   6.4993999e-01  -1.4363520e-01   2.9168085e-01  -9.3005313e-01   7.7429840e-01  -8.8928753e-01   3.5487467e-01  -1.6511402e-01  -7.0777962e-01  -4.8074577e-02   8.1106343e-02  -9.6425817e-02   2.6795333e-01   2.9802614e-01   6.7529997e-01   8.6837541e-01   4.5127688e-01  -9.6663354e-02   8.5138075e-01  -8.1105452e-01   1.2175789e-01   5.7001536e-01  -9.5232786e-01  -2.5256201e-01   1.2296495e-01  -4.9441343e-01   9.2909261e-01  -3.3613642e-01   6.5945234e-01  -5.0604870e-01   4.2364963e-01  -2.2798787e-01  -5.2321757e-01  -9.2652259e-01  -7.3452325e-01   1.2183144e-01  -2.9058898e-01  -9.0285555e-01   7.5526082e-01  -7.7103400e-03   9.0757964e-01   3.5313930e-02   7.4918862e-01  -4.3996726e-01   1.6992457e-01  -7.4834094e-01  -2.0090982e-01   1.5052312e-01  -1.2138158e-01  -8.8278422e-01  -1.3776437e-01  -9.4290981e-01   9.5987442e-01   8.7661406e-01  -2.6485308e-01   5.3891822e-01   2.0624632e-01   4.1260991e-01  -2.8307315e-01  -2.9207403e-01  -6.1242131e-01   1.4933432e-01  -5.1710237e-01   7.1669377e-01   8.4488821e-01   6.2377170e-01   8.6409405e-01  -3.1585537e-01  -7.5160517e-01   7.7799043e-01   6.7035929e-01  -3.2447440e-01  -9.8742011e-01   7.2821854e-01  -9.3692831e-01  -1.9558627e-01  -7.1898632e-02  -3.1823352e-01  -8.4531638e-01  -5.9652796e-01  -6.9994022e-02  -8.3044212e-01   2.7625091e-01   1.5303727e-02  -1.8055601e-01   8.5461856e-01   2.0760145e-01   2.7310272e-01   8.3952760e-01  -5.4737209e-01   2.8839578e-01  -9.5510898e-01  -9.6312418e-01  -9.9543732e-01  -6.3983498e-01   4.7463143e-01   4.5452851e-01  -2.7828253e-01  -8.2141425e-01   7.2065263e-01   8.3847080e-01  -3.2792202e-01   7.4117125e-01   1.4955789e-01  -8.7760568e-01   9.6124805e-01  -6.2743874e-01   9.6915047e-01   7.1547653e-02   7.3477821e-01   8.0141408e-01  -8.7109649e-01  -7.2549097e-01   6.7702686e-01  -3.7011234e-01  -4.2588807e-01  -1.7820360e-01   9.5754157e-02   9.0486083e-02  -3.7914713e-01   2.3335710e-01   9.2103385e-01  -3.0734750e-01   8.1296685e-01   2.7075747e-01  -6.2865295e-01  -6.1916013e-01  -2.9403128e-01   1.2516925e-01  -1.9442093e-01   4.1044813e-01   1.7923445e-01   5.9839254e-01  -8.3792782e-01   5.9313943e-01  -4.6450819e-01  -6.3171750e-01   2.0379245e-03   4.6827410e-01  -9.6019617e-01   5.2346832e-01   1.6708889e-01   1.7667744e-01  -8.2617574e-01   8.9407352e-02  -3.6736705e-01  -6.4103046e-01   3.6896657e-01   4.9653607e-01  -6.5437850e-01  -6.6925309e-01   1.0482029e-01   1.7761358e-01   1.0693924e-01   3.3812704e-01  -1.0422814e-01   5.8585866e-01  -3.3663607e-01  -8.1052046e-01  -4.3808866e-01  -8.8231934e-01  -4.7812681e-01  -4.6592269e-01   1.5048889e-01  -7.5121865e-01  -2.9232061e-01   8.7199203e-01   6.9404884e-01  -9.0127660e-01  -8.6009295e-02   9.8587411e-01   6.5505043e-01  -9.7415484e-01   6.8421879e-02  -2.1109785e-01  -3.7846884e-01   7.4033157e-01  -3.4398528e-01  -2.5354597e-01  -1.1501346e-01  -2.8300460e-01   9.2964041e-01  -3.3921794e-01  -2.9323155e-01  -8.9548024e-02  -8.8877899e-01   3.5807889e-01   7.2908143e-01  -4.5765609e-01   9.5651648e-01  -4.4448564e-01  -8.6390483e-01  -7.3674818e-01   3.3451110e-01  -2.6202869e-01   4.3833246e-01   7.8512758e-01  -7.7470814e-01  -7.3136585e-01   4.3902005e-01  -9.4173368e-01  -9.3871137e-01   3.2565974e-01   9.9347549e-01   3.1400550e-02  -8.3448381e-02  -6.1003959e-02  -5.6664584e-01  -2.2483473e-02  -7.5510717e-01  -8.6476840e-02  -2.8764487e-01  -6.6790296e-01  -2.6090279e-02  -8.4974064e-01   1.3976510e-01   6.6793837e-01   8.1155072e-01   5.6281290e-01   5.5934412e-01  -6.6856057e-01  -5.7386930e-01  -6.3853537e-01   4.4506980e-01   4.5415639e-01  -8.1285507e-01   9.3919442e-01  -9.8145533e-01  -8.0753081e-01   6.6158343e-01   2.1352400e-01   8.6058262e-01  -4.9234145e-01  -5.5728601e-01  -6.2479943e-02   7.0662733e-01  -9.5619528e-01   8.2562859e-01   2.2231713e-01  -7.9935592e-01   1.6560360e-01  -1.4252556e-01   2.5729769e-01   5.5980014e-02  -9.6600795e-01   7.1849122e-01  -1.3337695e-01   9.5915519e-01   9.1895234e-01  -1.1660675e-01  -4.9263461e-01   2.6740674e-01  -6.0579358e-01   4.8118307e-01  -4.9387674e-01  -1.5579131e-01   8.7692768e-01  -4.7616483e-01   6.7747261e-01   8.7894949e-01  -7.3634844e-01  -9.8155618e-01  -9.4253756e-01   4.7830263e-01  -4.2356509e-01   1.4625108e-01   3.8998727e-01   5.9279395e-01   4.5571083e-01  -2.7037977e-01   2.1449354e-01   7.0674090e-01   5.0429056e-01  -1.4666875e-01  -1.5828302e-01  -1.3978839e-02  -9.0386058e-01   6.5102465e-02   4.6391203e-01  -2.1554465e-01  -6.3124632e-01   1.6942090e-01   1.6200468e-01   9.9961047e-01   8.7895497e-01  -4.2388391e-01   4.5358712e-01   9.6787450e-01  -4.0071966e-01  -7.2497669e-01  -7.7414060e-01   1.6970679e-01   6.9356708e-01   2.6193406e-01   9.4835572e-01   3.3257160e-01  -6.6015947e-01   9.9387584e-01   4.7404882e-01   2.9588511e-01   4.8519062e-01  -9.4924021e-01  -9.6569695e-02   1.6715453e-01   5.4525462e-01  -6.8591821e-01  -8.8021716e-01   4.3866070e-01  -8.8252626e-01  -9.5276383e-01   1.2611639e-01   6.8240260e-01  -3.1183957e-01   5.9415214e-01  -7.1854836e-01   4.5407198e-01   4.1784450e-02  -3.5861824e-01   2.6529484e-01   4.4476109e-01   6.6307493e-01  -2.2176694e-01  -4.8369897e-01   9.9041577e-01  -6.0375389e-01   5.8567228e-01   2.0356277e-01  -7.4199073e-01  -3.8847557e-01  -6.7352938e-01  -3.0548595e-02  -4.9029949e-01  -2.8964610e-01   5.1016116e-01  -1.0776006e-01  -7.0773121e-01   1.0818378e-01  -5.8499529e-01   2.3523377e-01  -3.5963984e-02  -6.3819303e-01  -1.9827274e-01  -9.5605184e-01  -2.7336657e-01   5.4337891e-01  -1.7492982e-02   2.2135109e-01   5.8228626e-01  -3.6893736e-01  -6.0408187e-01  -3.8285041e-01   3.7733226e-01   8.5478787e-01  -2.7432935e-01  -1.2705800e-01  -2.5715818e-01   5.8717251e-02  -3.4650318e-01  -5.4637309e-01  -3.6782204e-01  -7.0159704e-01  -2.8126623e-01   2.1570061e-01   4.8005566e-01  -3.1590813e-01   3.7817725e-01  -6.4863080e-01  -6.3684352e-02   5.8194075e-01  -1.0337797e-01   1.9523845e-01   2.2689890e-01  -8.0974959e-01   4.8370344e-01  -7.2592873e-01   2.0121872e-01  -9.8064447e-01  -4.6796368e-01  -7.1269204e-01   7.7055749e-01   4.7736657e-01  -2.5594239e-01   6.6938104e-01  -2.8212514e-01  -3.5244866e-01  -1.3159751e-01   2.2083336e-01   9.2066100e-01  -3.4832138e-01  -6.8443089e-01  -2.4407118e-01  -4.8319370e-01   2.8901106e-01   2.3360237e-01  -1.1371889e-01   3.9039875e-01  -4.9821050e-01  -5.8546539e-02   6.5814137e-01   5.4332962e-02   5.1368828e-02   2.5191596e-01   8.3706588e-01  -9.9483437e-01  -5.4040496e-01   8.1908071e-01   2.2308722e-01   3.2429055e-01   1.3497163e-01   8.6030615e-01  -1.0629760e-01   9.4443636e-01   8.8215417e-01   8.9129036e-01  -9.2965819e-01   5.4563366e-01   9.0708774e-01   7.9267554e-01   1.9262521e-01  -4.8361565e-01   6.4740519e-01   5.8203443e-01  -4.9609960e-01  -2.8231898e-01   2.2707170e-01  -6.5620951e-01   5.0024248e-01   3.0010426e-01   2.1737050e-01   9.4552535e-01   9.4403706e-01   1.9648883e-01  -7.0082476e-02   6.8068974e-01   1.7164181e-01   8.3338441e-01  -7.4396625e-01   7.7479774e-01  -6.6143369e-01   2.9389588e-01  -9.4804427e-01   1.7564447e-01  -8.1609982e-01   1.9515305e-01   3.7776455e-01   2.1479482e-01  -4.5822524e-01  -3.3148516e-01  -3.0144112e-02  -6.2034393e-01  -4.9952563e-01   4.3636831e-01   2.1563580e-01   8.5032718e-01   4.9817143e-01   7.6154194e-01  -8.1455751e-02   5.5291796e-01   1.0559998e-01  -9.9498221e-01  -5.0676417e-01   7.5947720e-01   8.5062762e-02   7.9205527e-01   8.7165163e-01   8.5548785e-01   5.2842410e-01   7.9880119e-01   8.0827615e-01   3.1567356e-02  -9.7785200e-01  -5.8749119e-01  -9.6559776e-01   3.1188457e-01  -9.7608497e-01   4.5513856e-01  -2.5817793e-01  -3.5129902e-01   4.9054895e-01   6.0122169e-01   1.1843531e-01   6.5337827e-01  -8.8418785e-01   8.8758102e-01  -2.4459326e-01  -4.5190590e-01   8.5265230e-01  -2.1779308e-01  -2.2587440e-01   5.5273592e-01  -8.2463249e-01  -5.6410303e-01  -5.2713631e-01   8.8557436e-01  -2.7693326e-01  -5.4857532e-01
   2.4585723e-01  -6.6416583e-01   8.9562867e-01  -5.6569583e-01  -2.8082024e-02   7.8572901e-01  -7.1026386e-01  -7.5433858e-01   6.7759203e-01  -3.6735589e-01   3.1435132e-02   4.8152728e-01   2.0129070e-01   4.1556636e-01  -1.7426263e-01   6.2535502e-01  -3.7321717e-02  -9.2024140e-01  -6.1732058e-01  -3.2205016e-01   8.8846001e-01  -6.2517253e-01   1.4481591e-03   6.1639130e-01  -4.1889499e-01  -1.2598304e-01   4.0757438e-01  -4.9038276e-01  -5.2188539e-01  -9.6185236e-01  -9.2454103e-01   6.8417323e-01   1.5890504e-01   3.4796481e-01   5.9972249e-01  -6.7752298e-01   7.3236815e-02  -6.6807599e-01   2.6726579e-01   7.4433285e-01   7.6639673e-01   4.8131086e-01   7.2973351e-01  -6.2000712e-02  -6.5863945e-02  -3.9401568e-01   6.9343104e-01   1.7638055e-01   6.1809891e-01   2.9052077e-01  -1.2606765e-01   8.4233852e-01  -7.5779348e-01  -7.3741637e-01   5.1101607e-01   9.8367253e-01  -2.7778908e-01   5.9942462e-01   8.5615301e-01   2.3963308e-01   4.2714275e-01  -7.9426258e-01   5.8263147e-01  -6.2417507e-01   8.8744215e-01   4.3027676e-01  -1.2731062e-02   6.3687001e-01   8.4506540e-01  -5.5919762e-01   1.7322534e-01   2.3669715e-01   3.0995512e-01   4.9005296e-01   1.5118839e-02  -8.7024058e-01  -1.3635911e-01  -4.9361940e-02  -1.7994915e-01   3.9912146e-01  -5.0542415e-01  -4.0474654e-02  -9.2118031e-01  -4.4541546e-01  -1.4023249e-02   7.5340424e-01  -8.3930473e-01  -8.7827890e-01  -9.5591848e-01  -9.2182522e-01   1.9690711e-01   6.1858823e-01   9.5755403e-01  -9.7427353e-01   9.6686467e-01   1.1708077e-01   5.7108226e-01  -1.0399842e-01  -4.8737206e-01  -3.6087680e-01  -3.8926011e-01  -7.1761647e-01   5.2414680e-01  -1.0620666e-01   2.4057174e-01  -3.5328395e-01  -3.9222063e-01   1.2897426e-01  -4.7450480e-03  -7.9543594e-02  -8.8403399e-01  -3.2117955e-01  -3.8900135e-01   2.9919826e-01  -4.1458183e-01  -5.4459348e-01  -2.6049525e-01  -1.0073510e-02   6.9335130e-01  -5.8428831e-01  -5.8365777e-01   9.9822667e-01   4.2656876e-02   2.5768489e-01   7.7343775e-03  -2.5881368e-01  -1.7507034e-01   8.5238435e-01   5.3034596e-01  -4.7780111e-01  -1.3132682e-01  -6.1720168e-01  -6.1166452e-01  -3.5870864e-01   1.5131900e-01   7.3045889e-01  -4.9301000e-01  -8.5354543e-01   1.6639123e-01   5.0037664e-01   1.3157661e-01   6.3320581e-01   1.2540219e-01  -9.8507441e-01   4.4972032e-01  -2.4733027e-01  -8.7543184e-01   4.3292808e-01  -5.3512503e-01  -3.8088891e-01   5.7897350e-01   9.5577948e-01  -6.1750088e-01  -7.3060986e-01   3.2782153e-01  -2.1987547e-01   7.2096709e-01   9.7198767e-01   3.8501722e-01  -8.3829867e-02   9.6569362e-02  -4.7183225e-01   4.6572165e-02  -1.9011773e-01   7.9915348e-01   8.9097311e-01  -9.8350344e-01  -4.8706124e-01   9.2977837e-01   7.2743054e-01   5.5278386e-01  -6.3021645e-01  -4.7944050e-01  -9.9213550e-01   9.9923665e-01   6.1734452e-01   9.0031423e-04   1.0257735e-01   3.5584694e-01   3.6310406e-01  -1.6477618e-01  -7.3122848e-02  -8.0213976e-01  -2.0418288e-01   2.8220933e-01  -9.6080878e-01  -2.0056022e-01  -5.5468926e-01  -6.1112717e-01   2.9012165e-01  -4.5742911e-01   9.5849138e-01   8.0520860e-01  -6.3154438e-01  -6.2357001e-01   4.4164146e-01   9.8111859e-01  -2.8524715e-01  -3.6570389e-01   2.7728226e-01  -9.9537350e-01  -5.6827934e-01  -2.1499311e-01  -4.7072812e-01  -4.1150086e-01  -8.6196630e-01   4.4110142e-01   4.4390136e-01   7.0110318e-01  -1.7515729e-01   2.0180948e-01   5.0713763e-01  -9.6642669e-01  -1.7488142e-01  -3.4934413e-01   7.5514147e-01   6.7787899e-01  -8.6805965e-01   3.4667909e-01   9.8904444e-01  -8.0798827e-01   2.2780631e-01  -2.0398449e-01  -2.3623631e-01  -6.6123059e-01  -8.5923637e-01  -3.5152441e-01  -9.5885135e-02   3.3452703e-01   9.2048756e-01  -5.5911692e-01  -9.9056537e-01   8.1968269e-01  -8.9053807e-01   5.2205241e-01   9.5019827e-01  -6.3206844e-01  -7.4767990e-02   6.5979577e-01  -5.3041497e-01   4.6932498e-01  -3.7021555e-01   6.7596945e-01   3.6162325e-01  -3.9764377e-01  -1.1042929e-01   1.4401261e-01   6.0133460e-01  -7.8572687e-01   6.7618432e-01  -5.0509245e-01  -8.7729487e-01  -5.2371797e-01  -3.6765920e-01   8.5032719e-01  -8.9271944e-01  -8.9724424e-01   4.9376776e-01   9.0338838e-01   2.5950237e-01  -2.5820332e-01  -2.0014705e-01  -7.9399385e-01   4.8392334e-01   7.1990983e-01  -4.3054612e-02   6.0582393e-01  -4.0013360e-01   3.8232665e-01   4.9910765e-01   2.4144125e-02  -8.3337232e-01   8.7790419e-01  -3.6624783e-01  -3.3804605e-01   5.6228539e-02   6.1628350e-01   9.2830374e-01  -9.7861059e-01   1.5935179e-01   9.4968251e-01   8.6338452e-01   4.8181218e-01  -5.6258196e-01  -5.2466599e-01   2.7312231e-01  -5.3830682e-01  -8.6977587e-01   5.6526736e-01   6.7415205e-01   5.7819595e-01  -1.2738239e-01  -1.5782522e-02   8.1784766e-01  -5.0246778e-01   9.8114874e-01  -9.3699686e-01  -1.2141763e-01  -6.8094295e-01   3.5181133e-01  -3.3899041e-01  -3.9342003e-01   4.2496306e-01   3.0910245e-01  -7.1957287e-01   9.9083726e-01  -5.3585345e-01   8.1132505e-01  -3.5122489e-01  -6.2187022e-01   4.2263259e-01  -1.8662764e-02  -3.4211283e-01   8.7222908e-01   1.9374650e-01  -9.7322791e-01  -2.4036699e-01  -1.8982139e-01   2.8534004e-02   9.0074883e-01   3.1407769e-01   1.3431100e-01   2.9974402e-01   1.6405191e-01  -3.4803665e-01  -3.0341848e-01  -6.9449248e-01   9.7892252e-01   5.6334099e-01   1.1553961e-01   2.1902111e-01  -3.5239747e-01   6.7265224e-02   6.8256490e-01   5.9074634e-01  -4.1260333e-01   7.5959174e-01   1.2723026e-01  -5.0448612e-01  -2.2667521e-01  -7.0281484e-01   8.1917976e-01   9.4263819e-01  -6.0256347e-01   3.6723743e-01  -5.6196756e-01   5.9539421e-01  -7.9744566e-01   6.9632511e-01   5.2138767e-01   4.8863210e-01  -6.2612366e-01  -1.3892534e-01  -8.4471371e-01   1.6839035e-02   4.6574091e-01  -1.0241922e-01   9.2629433e-01   4.2556727e-01  -7.1508834e-01  -5.1458984e-01   8.2011646e-01   3.4106286e-01   7.1216984e-02  -5.2180045e-01  -3.5057532e-01   1.5707544e-01   1.3784693e-01   2.1170562e-01   7.1635389e-02   4.8773177e-01  -3.0129310e-01  -5.3487603e-01  -7.8362549e-01   7.0909449e-01  -7.9114226e-01  -2.0180237e-01  -2.2431668e-02  -1.0129143e-01   2.4972846e-01   1.3573917e-01   3.0261248e-01   4.0550272e-01   5.4353986e-01   4.2943294e-01   7.2279283e-01  -3.5219244e-01  -2.7885346e-01  -7.5213347e-01  -6.1301667e-01   1.3714593e-02   1.3818188e-01  -7.4799478e-01  -1.2495881e-01  -7.9814999e-01  -6.5373522e-01   4.3624846e-01   7.7341493e-01   3.7979541e-01   6.3307586e-01   6.3066716e-01  -9.8224340e-01   5.9906018e-01   1.9130648e-01  -7.8996121e-01   9.3641510e-01   6.4585089e-01  -3.4885562e-01   4.2264811e-02   8.7519376e-01  -6.0592038e-02   6.2131731e-01   3.4534100e-01   8.2744215e-01  -1.5766776e-01   1.6380356e-01  -6.0728409e-01  -3.4877647e-01   1.3778811e-01  -6.0071771e-01  -9.2416427e-01  -8.3873025e-01  -9.7642391e-01   8.3221529e-04   1.6201184e-01   2.9640583e-01   5.1225740e-01   5.7077740e-01  -9.8928893e-01   1.9490234e-01  -3.9754998e-01   1.1939347e-01  -4.0195222e-01   5.0779054e-02   6.6767813e-01  -3.3332505e-01  -1.8740618e-01   5.1924505e-01  -3.2533574e-01  -9.9217957e-01   1.5484554e-01   1.5757422e-01   7.9361052e-02   2.5955856e-01   6.6346427e-01  -8.3288199e-01   7.3890938e-01  -5.4283209e-01   6.0151427e-01  -1.7180857e-01  -5.4582657e-03   2.0799874e-02   6.4471261e-01  -1.5651809e-01  -9.6550158e-01   5.2718856e-01   5.0931467e-01   4.8206057e-01   5.5988700e-01  -6.3996034e-01  -2.8021372e-01   8.3573224e-01   1.7058191e-01  -4.4503449e-01  -5.7481648e-02   8.5314635e-01   5.2636230e-01   7.5645035e-01  -4.6668355e-01  -8.1692805e-03   4.2474199e-01   7.5316505e-01   7.7227413e-01   4.0798787e-01  -2.7966693e-01  -5.0380555e-01   6.1207657e-01   9.1347671e-02   4.8236660e-01   1.4937632e-02  -6.8376475e-01  -5.6638915e-02  -6.6386421e-01  -3.3437959e-01   6.3938239e-01   1.3479661e-01  -3.8734464e-01  -4.0047545e-01   7.1764341e-01  -4.9938122e-01   8.6108979e-02   2.7347649e-02  -1.7215893e-01  -2.2332328e-01   8.3882019e-01   5.0585815e-01  -3.4225076e-01  -6.5543218e-01   7.8274051e-01  -7.4826825e-01   3.6150489e-01   5.3371865e-01  -6.3701030e-01  -7.0598440e-01   1.6917263e-02  -5.8186294e-01  -6.4156046e-01   6.3330306e-01   5.0084095e-01   5.6422243e-02   2.2640360e-01   8.3774067e-01   3.5717279e-01  -8.9834620e-01  -9.1070702e-01  -8.1309727e-01   8.3384049e-01   1.5779560e-01  -4.0820541e-01   8.7497665e-01   9.3625670e-01   6.2310763e-01  -9.2193577e-01  -2.6758712e-01  -7.9303206e-01  -4.8069553e-01   1.9740704e-01  -7.2943940e-01   6.4463342e-01  -2.3761096e-01  -8.8060202e-01  -8.9257148e-01  -2.5375805e-01   8.1470715e-01   4.9314251e-02   4.0243947e-01  -3.5274725e-01   3.8005913e-01   9.1998056e-02  -9.7045729e-01  -3.0039215e-01   3.8911458e-01  -5.6888361e-01   9.8326620e-01   2.9083594e-02   9.4182408e-01   7.9192952e-01  -4.4653498e-02  -8.4038198e-01  -1.5569006e-01   2.5634533e-01  -1.8673016e-01  -9.8450808e-01   8.0912477e-01  -4.4840926e-01  -7.9704506e-01  -7.5870230e-01   1.2944276e-02   5.4776369e-01  -1.2183959e-02  -8.0073882e-01  -3.6247375e-01  -4.4193350e-01   9.2417117e-01  -3.1327945e-01   7.5191202e-02   3.0946174e-01   9.1375870e-01  -6.7542490e-01  -5.8795790e-01   1.4347823e-01  -3.5484948e-02   6.6286464e-01   7.5980613e-01  -2.0934700e-01   5.5840313e-01  -8.2805749e-01  -9.0238922e-01  -3.3480129e-02   1.2416893e-01  -1.1333807e-01   1.7356571e-01  -4.5914872e-01  -7.5327527e-01  -8.5074653e-01   9.7918281e-01  -9.2356998e-01  -4.7446946e-01  -6.9996766e-01  -6.7579091e-01  -7.7723925e-01   8.0046854e-01  -8.0946510e-01  -8.8841612e-01   6.4308639e-01  -6.4795409e-01   6.5541653e-01  -6.8029240e-01  -4.3708578e-01  -1.4091997e-01   4.5647877e-01  -2.4974846e-01   6.3987511e-02   3.8302584e-01  -9.8220805e-01   2.0246918e-01  -2.6102889e-01   4.2061345e-01  -2.5717867e-01   2.2420435e-01  -2.2019490e-01  -7.5302586e-01   2.7243375e-01  -9.5494585e-01  -2.5411991e-01   7.9399289e-01   5.9676933e-01   9.3307136e-01   9.6463110e-01   4.3789451e-01  -3.5281512e-01   3.4956465e-01   7.8150460e-01   7.5272410e-01   1.9483038e-01   1.3817245e-01   4.8830213e-01   1.8003233e-01   2.2456349e-01   3.1784785e-01   7.2259151e-01   5.2942642e-01   7.6833280e-01   5.9822863e-01  -8.9643138e-01   2.9903816e-01  -4.4259256e-01  -6.3952005e-01  -7.5265279e-01   8.7754674e-01  -3.4737818e-01  -3.5230019e-01   2.2971943e-01  -6.0144792e-01  -3.8679179e-01   5.0820436e-01   4.8810458e-01   5.1109194e-01  -4.1889360e-01   7.9888610e-01  -3.2748016e-01  -7.0822098e-01   2.5671443e-01   3.5078687e-01  -1.2648779e-01   9.5073307e-01  -4.4768236e-01  -1.6126276e-01  -5.5337212e-01   3.8188976e-01   5.1480682e-01  -1.7828880e-01  -5.7582400e-01   8.7933549e-01   3.6974640e-01  -9.1001713e-01   9.1214691e-01  -5.9519629e-03   4.8268450e-01  -9.0284220e-01  -4.4969450e-01  -2.0733920e-01  -3.5909070e-03   8.5688964e-02   3.5187873e-01   6.9308724e-01   3.3775047e-01  -8.7528277e-02  -6.2269113e-01   9.9565308e-01  -4.7837618e-01   5.9296286e-01  -6.8332610e-01  -9.3041415e-01  -1.1197192e-01  -2.7783325e-01   7.1174774e-01   5.2564534e-01   2.0471458e-01  -2.3022889e-01  -9.5181666e-01   9.9682814e-01   3.9496970e-01  -9.3940919e-02   4.1605671e-01  -5.3370353e-01   1.7675524e-02  -8.9481368e-01   7.6826623e-01  -7.5237359e-01   1.3719073e-01   4.3046731e-01   9.9836371e-02  -6.8868158e-01   6.7240397e-01   2.9220873e-01   9.5893197e-02   8.7841292e-01  -4.6916954e-01   2.7536026e-01   1.6560984e-01   7.7446592e-01   2.2504444e-01   6.9502636e-01   5.9058161e-01   7.5392384e-01  -2.2195080e-01  -3.7285296e-01  -4.6085368e-01  -5.1570152e-01   2.9758934e-01   5.5389152e-01  -9.8308496e-01   8.3695629e-01   3.2744195e-01   5.6076785e-01   9.4303619e-01   4.0793651e-02   7.0739575e-01   3.3891826e-01  -3.2132438e-01   1.2270005e-01  -9.6414418e-01  -6.9647923e-01  -3.4496493e-01   5.6616905e-01  -8.8806097e-02  -3.9207005e-01  -8.9028260e-01   7.6875855e-01  -6.0762330e-02  -5.1368620e-03   1.4717411e-01   2.8562625e-01  -6.1549822e-01  -5.0748432e-01   2.8456882e-02   8.6235463e-01   9.3547675e-01   2.6429196e-01  -1.3028343e-01   4.0268710e-03  -1.5065750e-02   1.4163749e-01   9.4944334e-02   1.6235696e-01   3.4285679e-01  -2.1882489e-01  -3.5923894e-01   9.9965592e-02   9.4992254e-01   7.5501472e-01   3.3709050e-01  -4.5028550e-01   8.6558969e-01   7.6240459e-02   6.8342652e-01  -1.2526252e-01   8.3333282e-01   6.7929268e-03  -1.5642792e-01  -2.6484097e-01  -1.6411232e-04  -1.8463957e-01   9.5194117e-02  -9.3943445e-03   7.9067248e-01   5.9147608e-01   6.2049716e-02  -9.7333384e-01  -9.5023349e-01   8.1248504e-01   8.0506547e-01   4.2073581e-01   1.2014124e-02   5.5821147e-01  -7.3729062e-01  -2.1347627e-02  -7.0450176e-01   6.2520711e-01   6.5011140e-01  -2.2454254e-01   2.4536150e-01  -1.4548598e-01   7.8216264e-01   1.8047562e-01  -3.5228777e-01   3.6377679e-01  -7.6611536e-01  -3.2183322e-01   5.0774633e-01   8.9767162e-01  -6.1321930e-01   4.0828429e-01  -3.4907252e-01   6.8385697e-01   4.5940476e-01  -2.2095237e-03  -4.8672672e-01   4.0580111e-01   7.6833551e-01   4.3521897e-01  -5.3711037e-01   2.8434659e-01   5.1565894e-01  -2.7484726e-01   9.9212890e-01   1.8100436e-01   3.4519397e-01  -5.6743103e-01   7.7693711e-01   5.2192285e-01  -8.7054104e-02   1.2675177e-01   6.8459878e-01   3.6593863e-01   1.3408077e-01   4.6377661e-01  -6.2963706e-01  -1.5504849e-01   4.0552490e-01   7.9176043e-01   9.3249783e-01  -7.2043205e-01   9.6512165e-01  -3.3168010e-01  -6.7679100e-01  -5.4090676e-01   6.1301410e-01  -5.9452237e-01   2.0953401e-01  -2.7555440e-02   5.1979218e-01  -7.4372203e-01   8.4408316e-01   2.4240987e-01   2.3322501e-01  -4.1048036e-01  -4.5963549e-01   7.2937585e-01  -8.6739010e-01   3.1509777e-01  -4.5965124e-01  -2.5053836e-01   2.2678757e-02  -1.3229952e-01   6.1851824e-01  -7.5552840e-01  -2.2635787e-01  -6.2404170e-01  -4.6680371e-01   9.8500296e-01   3.6723591e-01  -7.8926982e-01   6.2772398e-01  -9.3237987e-02  -8.1037341e-01   2.3938190e-01  -7.0992375e-01   5.3155556e-01   8.9709666e-01   7.6706417e-01  -3.8983429e-02  -2.0405797e-01   5.0614525e-01  -7.4522270e-02   6.2519990e-01  -4.9570220e-01   6.6563964e-03  -2.7094262e-01  -2.1914913e-02  -6.7849993e-01  -1.1679020e-01   1.6471383e-01  -9.6284976e-01   4.8063000e-01  -7.4769634e-01  -8.5368218e-01   9.8074909e-01   8.8590808e-01   7.5694541e-02   2.5896126e-01  -7.1768733e-01  -1.0028221e-01  -1.6234814e-01  -7.9005296e-01   5.3351776e-01   8.5822868e-01  -4.4426707e-01   7.0929425e-01  -1.0458276e-01   2.2540584e-01   5.3084935e-02   1.1747383e-02  -1.5532657e-01   1.1626005e-01   4.4816427e-01   4.7752148e-03   8.6993143e-01   7.8882603e-01   3.9130703e-01  -4.2050848e-02  -5.7663374e-01  -6.5216505e-01  -3.0466089e-01  -7.6094284e-01  -4.5389571e-01  -7.5327855e-02  -2.1673432e-01   6.9084382e-01   7.0665699e-01  -2.6244584e-01   5.5105433e-01  -6.1241032e-01   5.8215015e-01   7.8181332e-01  -2.1907839e-01   1.2227398e-01   8.8864826e-01  -4.1550955e-01   2.4830412e-01  -4.1241719e-01  -1.5056234e-02  -8.7120272e-01   2.1903488e-02  -4.9745618e-01   3.6167226e-01  -9.0309025e-01   5.3094335e-02  -8.0126022e-01   9.2054879e-01   8.4684740e-01  -1.1402077e-01  -8.3320142e-01   6.0104525e-01  -4.1881390e-01  -2.2213225e-01   2.6975321e-01   5.4125744e-01  -2.0878142e-01   6.4763554e-01   7.5187095e-01   6.9316026e-01   3.8090308e-01   3.3305431e-01   6.3036346e-01  -1.1444923e-01  -6.1769551e-01  -7.9265700e-01   6.6637434e-01   7.0902476e-01   9.0153794e-01   4.9466339e-01  -3.1118054e-01   4.0046939e-01   4.4026633e-01   7.5785987e-01   7.6436795e-01   2.1711700e-01  -6.7674070e-01  -4.0663517e-01   6.2604671e-01   8.7490644e-01   2.6854846e-01  -9.1157969e-01   7.5083899e-01   7.3033911e-01   2.8852634e-01   4.6137932e-01   1.1502774e-01   1.8431512e-01  -1.1829812e-01   4.7075941e-01   1.5018810e-01   6.1911923e-01  -7.9232413e-01  -8.4799358e-01   8.5099991e-01   7.8171428e-01   7.0106324e-01   6.6422206e-01  -6.2824837e-02  -3.5081544e-01   2.9247744e-01   9.9064659e-01  -3.3441234e-01  -1.7564020e-01  -1.3105180e-01  -7.0535749e-01  -7.9362614e-01
  -4.6671500e-01  -5.7402888e-01  -2.8883426e-01   8.0026240e-01   2.8612603e-01   5.2063241e-01   4.8611280e-01   4.3184604e-01   3.3760615e-01  -7.9473557e-01  -5.9607729e-01   1.6028033e-01  -6.8407865e-02  -8.1628304e-01   2.0184213e-01   1.0662699e-01   1.0414577e-01   8.3486879e-01   1.7696930e-01   6.6681542e-01   6.3683514e-01   6.1685255e-01   5.1624013e-01   3.3892041e-01   4.5411452e-01   6.9316887e-01  -1.1198399e-01   5.7906376e-01  -9.2959934e-01   5.1158704e-02  -2.0359570e-01   7.4333009e-01   3.7694973e-01   2.8069754e-01  -5.6937183e-01  -5.2060932e-01   1.8948247e-01   4.4512093e-01  -7.1061841e-01   3.9149150e-01   6.4820406e-01   3.9830419e-01  -1.5606671e-01  -6.9624239e-01   5.2565036e-01   9.3263905e-01   8.2618454e-01  -2.1080896e-01   6.0804395e-01  -5.1753112e-01  -9.6233470e-01  -4.3727484e-01   8.7226862e-02   9.7410778e-01   9.1762116e-01  -1.6187457e-01   3.2343069e-01  -5.0280277e-01   5.0502246e-01   2.1864919e-01   9.7584831e-01  -6.6395879e-01   5.6771590e-01  -9.6414037e-01  -4.5698579e-01   2.1221405e-01  -1.5172357e-01   8.7795436e-01   6.2703969e-01  -2.7119460e-01  -6.5046537e-01  -4.0289407e-01  -2.3454766e-01   5.3736530e-01  -7.0411924e-02  -8.0944244e-01  -7.8979923e-01  -2.5907215e-02   5.3888752e-01  -1.6200929e-01   4.7015423e-01   5.4268115e-01  -6.8036322e-01   2.6708115e-01   8.7887684e-01   4.6778596e-01  -4.0893770e-01   3.1143263e-02  -2.6323775e-01   4.0049401e-01   6.0679555e-01  -8.1759185e-01   2.0828806e-01   8.5375576e-01   6.1877999e-01  -9.2541304e-01   4.3330433e-01  -6.1472511e-01   8.2396000e-01  -1.2448107e-01   9.7810062e-01   5.9747802e-01  -6.2724954e-01  -2.8971198e-01  -8.0327897e-01   8.4490387e-01  -2.3244043e-01  -6.4948873e-01   1.4259102e-01   1.0521541e-01   3.1729436e-01   2.5790219e-01   1.6581340e-01   5.6459001e-01  -6.4677512e-01   8.6011347e-01  -1.1020141e-02   1.5846610e-02  -1.9497132e-02   1.6589302e-01  -6.0532458e-01  -2.5175916e-02  -7.3943270e-01   2.6730376e-01  -6.1878378e-01  -3.4649624e-01  -3.8105139e-01  -6.7468479e-01   4.4756369e-01   3.3479711e-01   5.1665254e-01  -4.6606963e-01   2.5763703e-01   5.9744099e-01  -8.0931234e-01   2.3267522e-01   7.7591188e-01  -5.0423194e-01   5.6936032e-01   7.8564579e-01  -9.5834654e-01  -5.6007053e-01   5.5690938e-01   3.7257101e-01  -3.7328251e-02  -1.6983927e-01   2.0891159e-01   1.2326535e-01  -1.0053744e-01  -5.0295460e-01   8.9309578e-01   3.2848059e-01   5.1287078e-01   8.5633690e-01  -9.8898990e-02  -7.1759196e-02   5.4218463e-01   6.5525761e-01   6.7794599e-01  -8.1010388e-01  -4.1261426e-01   3.2752816e-01   3.7315162e-01  -9.4559242e-01   4.1163633e-01   3.6558126e-01   6.3047510e-01   9.7370181e-01  -5.0789622e-01  -8.1004475e-01  -8.6980166e-01  -2.4709987e-01   7.6772872e-01  -2.3046630e-01  -5.4101685e-01  -8.8663201e-01  -5.3752669e-01   8.9219648e-01  -8.8293236e-01  -3.3594644e-01   9.4995849e-01   6.6100912e-01  -1.9342481e-01  -9.8123214e-01  -8.7719703e-01   3.6870923e-01  -3.3655254e-01  -6.6040817e-01   3.4475051e-01   4.2479650e-01   9.3905802e-01   9.1113947e-02  -6.3092130e-01  -2.6792439e-01   8.1093331e-01   5.2621062e-01   3.6357041e-01   2.0604983e-01  -1.7623232e-01   7.1323434e-01   6.3946454e-01  -3.8894207e-01  -8.4689424e-01   6.0368282e-01  -3.4919129e-02  -3.5923113e-01   8.5865796e-01  -5.7861601e-01  -4.6150557e-01   7.0580415e-01   5.5204146e-01   2.1802452e-01  -9.5854102e-01   4.0396486e-03   6.5605598e-01   7.1218831e-01   2.2334812e-01  -4.9121787e-01   3.7128497e-01   4.6805262e-01   5.6767280e-01  -3.0462106e-01   7.3951161e-01   1.3497219e-01   1.5687631e-01  -8.8977099e-01  -7.5092298e-01   9.8445658e-01  -2.4550550e-01   2.2170276e-03   9.4969285e-01   3.7585473e-02  -9.0006764e-01   7.6494340e-01  -6.5264465e-01  -2.4772765e-02  -8.1327826e-01   4.7511967e-02   2.5204961e-01   5.9102562e-01   3.4869583e-01   4.6152917e-01  -2.5014344e-01  -4.7158454e-01  -4.1042673e-01  -7.1579638e-02   6.9728268e-02   2.7534102e-01  -1.0103759e-01  -8.7049339e-01   9.7442140e-01  -7.5766410e-01   6.1687135e-01   5.2127496e-02   8.1701471e-01  -3.5139609e-01  -8.0528854e-01  -5.0671465e-01   1.3747571e-01  -6.1440532e-01  -1.3055924e-01  -3.6076808e-01  -9.5915888e-02   4.1603957e-01  -8.3641197e-01   2.2929242e-01   9.3240581e-02  -3.8333254e-01   6.6260947e-01   7.9332210e-01  -9.0796570e-01   1.5951732e-01   6.5852765e-02  -5.8910960e-01   7.9411174e-01  -2.4344427e-01  -3.6124030e-01   8.8081206e-01   6.3609137e-02  -6.7846131e-01  -5.1480480e-01  -9.4101505e-01  -5.1921243e-01  -2.1217596e-01  -1.2855683e-01   3.5602702e-01  -2.5428444e-01   4.2067918e-01  -8.0594766e-01  -6.6237569e-01  -6.2429348e-01   2.6080389e-01  -2.1995429e-01   5.5133680e-01  -8.3227259e-01   7.6871211e-01   2.7467478e-01   6.9277907e-02   8.3585120e-01   5.1835477e-01   8.2641152e-01  -5.6164651e-01   4.7315738e-01  -7.7596371e-01   1.6157378e-01   9.2838274e-01  -3.8435457e-01  -8.6713113e-01   8.5151603e-01   4.4296199e-01  -1.3343258e-01   1.2155479e-01  -5.1025330e-01  -9.8400278e-02   5.0986926e-01   9.8226817e-02   6.8064568e-01  -9.8091872e-01  -2.8208523e-01   4.0343292e-01   1.3851933e-01   2.4386595e-01   1.4158560e-01   1.7581564e-01  -3.6879957e-01  -8.4191736e-01  -8.1760204e-02  -6.2821068e-01  -5.7125155e-01  -4.5846300e-01   2.8834664e-01  -3.2761288e-01  -7.4162548e-01   3.1912253e-01   2.8740886e-01  -5.7141703e-01   3.0410508e-01   5.4636782e-01   7.9014763e-01  -7.4057106e-01  -9.8415594e-01  -5.4224309e-01   9.1525668e-01  -4.4101739e-01  -8.9946342e-01   5.4539367e-01   1.2533284e-01  -7.5113825e-01   5.6794998e-01  -7.3294328e-01  -4.2450085e-02   6.3284129e-01  -5.0493073e-01   1.4739072e-01  -2.3516424e-01  -1.2086473e-01  -4.0404664e-01  -5.4596197e-01   8.5171473e-01   9.0890964e-01   1.1551111e-01   8.0013553e-01   5.1498182e-01  -5.6756968e-01  -3.3666148e-01  -3.3064841e-01  -3.3862426e-02   1.5580617e-01   2.4866027e-01   2.6552785e-01  -5.3369884e-01   6.6943207e-01   7.8868765e-01  -9.7190653e-01   2.3130384e-01   6.7694450e-01   9.4783010e-01  -8.5576269e-01  -8.3448397e-01   9.4675905e-01   5.5322133e-01  -6.4568283e-02   4.3216097e-01   7.3353105e-01   3.2328562e-01  -5.4052426e-02  -7.1881344e-02   5.6906818e-01  -9.3762601e-01  -5.5233195e-01  -6.0122370e-01  -7.2725386e-01   7.6932149e-01   1.5797787e-01  -5.2661949e-01  -5.2433605e-01   2.9841546e-01  -8.8307166e-01  -1.8708113e-01   3.7318641e-01   9.8481949e-01  -2.3361171e-01  -9.0137084e-01  -3.1937834e-01   1.9105802e-01   4.2199237e-01   1.0118072e-02   1.6133159e-01   8.6044176e-01  -5.2702317e-01  -5.9854071e-01  -5.4948192e-03   2.7101577e-01  -6.0783055e-01  -7.2478288e-02   5.7031659e-02  -4.4274271e-01  -8.1017472e-01   6.2016174e-01  -2.7666410e-01  -5.7336839e-01  -7.4979931e-01  -2.6325639e-03  -4.9343861e-01  -7.0575340e-01  -6.6914583e-01  -2.2119038e-03   5.9333363e-02  -5.4910942e-01  -3.7426424e-01   2.0565423e-01  -3.7895722e-01  -1.2161678e-01   3.7824331e-01   3.1687133e-01   8.0322253e-01   5.7545715e-01   9.9027620e-01   8.1557536e-01  -7.3217185e-01  -5.2038682e-01   2.3513554e-02  -8.4495087e-01  -8.8310808e-01  -9.7364849e-01   2.8678335e-01  -6.4796506e-01  -8.3211550e-01   2.3370156e-01  -9.7819327e-01   6.4994180e-01   9.1787392e-02   4.6097189e-01   1.8484619e-01  -6.7790342e-01   8.1549654e-01   2.2527387e-01   8.6209598e-01  -8.1226725e-01  -9.7832111e-02   5.9950225e-01   4.9102893e-01  -7.0858279e-01  -7.8999999e-01  -9.9573533e-02  -7.6497703e-03   5.4999592e-01  -2.5130669e-01  -7.2715908e-02  -3.0314305e-01   5.9048633e-01  -2.6026138e-01   3.4485234e-01  -1.4537640e-01  -8.4000244e-02   2.8878768e-01   2.3571716e-01  -6.0268197e-01  -3.4411095e-01   8.6762454e-01  -2.6973383e-01   1.0658977e-01  -8.2436528e-01  -3.9044125e-02   7.7110767e-01  -7.6676980e-01  -8.2944370e-01  -2.2189133e-01  -6.1730424e-01   1.3901712e-01   8.7075463e-01  -7.0179415e-01  -6.6055803e-02   6.5794911e-01  -7.6334355e-01   6.0859629e-01   2.4872792e-01  -6.8192171e-01   7.5602172e-01   5.1579833e-01  -5.0215208e-01   5.2208125e-01   2.5165531e-01  -7.8927003e-02  -5.9979674e-01   5.3965901e-02  -6.7248685e-01  -9.5904903e-01  -1.0231231e-01  -1.9739951e-01  -6.8473938e-01   5.1396119e-01  -6.0507564e-01  -6.6804112e-01   4.1795696e-02  -4.5146118e-01  -8.4101378e-01   5.6777178e-01  -3.0328855e-01   6.4678507e-01  -8.3014715e-01   2.9941979e-01   9.2706276e-01  -4.6741112e-01   7.4336216e-01  -5.7006431e-02  -8.4233273e-01   8.2130253e-01   8.9049703e-01   9.1408630e-01  -2.4000144e-01   8.2500211e-01   3.9620786e-01   2.0668737e-01  -7.3362817e-01  -5.2793869e-01  -5.2377857e-01   5.7016087e-01  -8.4106947e-01  -6.8118302e-01   2.9129593e-01  -9.7132308e-01   8.7129954e-01  -9.6963246e-01  -3.6823808e-01   6.2055724e-01   8.5695241e-01   1.4927741e-01   5.7282638e-01   9.9825861e-01  -7.4481798e-01   3.8409789e-01   5.5597292e-01   1.9772366e-01  -9.1978775e-01  -6.6478593e-01   9.1987352e-01  -4.6620773e-01  -4.6453305e-01  -8.6007639e-01   4.0280566e-01  -5.2429510e-01   3.0442715e-01   5.1462112e-01   4.5707396e-01  -1.3080675e-01   7.9372773e-01  -8.6103313e-01  -9.3485164e-01  -5.5136181e-01  -7.4844435e-02  -6.2381555e-01   5.4870378e-01   6.5817712e-01  -2.0936981e-01   2.1719968e-01   5.5388870e-01   4.6889791e-01   9.0150879e-01  -3.7507868e-01  -2.0093454e-01  -9.1980832e-01   5.1223545e-01   9.1419915e-01  -1.2117956e-01   9.2742418e-02  -4.2366038e-01  -8.3516000e-01   4.0422906e-01  -2.4713304e-01  -7.4333730e-01  -9.7798741e-01  -6.5821429e-01   8.5471528e-02  -7.6005645e-01   3.2881480e-01  -9.9174436e-01   8.6284015e-01   7.1674459e-01   5.7742137e-01  -8.0582166e-01   3.4297630e-01  -4.2173048e-01  -1.2949770e-01  -2.6795930e-01  -2.6602906e-01  -6.8197493e-01   6.5555177e-01  -2.8462311e-01   1.3922384e-01   2.7815049e-01   2.4685447e-01  -9.0711819e-01   3.5058960e-01  -6.3704460e-01   4.9557843e-01   9.6797094e-01   8.5959392e-01  -3.1216753e-01   4.5665696e-01   9.7643398e-02  -3.2852459e-01   9.6921136e-01  -4.2845874e-01   3.3959245e-01  -7.5513743e-01  -7.5625179e-02   3.8672151e-03   9.3156958e-01   4.4902473e-01  -1.5042986e-01   7.4503460e-01  -3.3804594e-01  -4.0689977e-01   4.6777213e-01  -7.6927050e-01  -9.8136223e-01   2.6847132e-01   3.4797947e-01   2.4779888e-01  -7.3679866e-02  -1.0618734e-01  -6.2816184e-02  -6.5979333e-01  -1.4587306e-02   6.7846682e-01   5.5867515e-01   2.1175471e-01  -9.7395478e-01   7.1493654e-01  -8.9673221e-01  -8.9674834e-02  -4.7758689e-01  -3.8235333e-01   1.3019251e-01  -7.3007022e-01   5.3034012e-01  -2.0427455e-01  -2.5757446e-01  -7.4673115e-01  -8.6106250e-01   1.4116147e-01   5.2484461e-01   7.5418538e-01  -2.4894988e-01  -4.3925299e-01  -4.8448356e-01   4.1091288e-01   9.6427689e-02   7.3784478e-02  -3.4961444e-02   2.8303076e-01   2.3856149e-01   8.6280445e-01   9.9894243e-01  -3.3597742e-01   2.4583593e-02  -9.6908511e-01   1.5546442e-01  -8.2389785e-01   9.2084311e-01  -6.0433020e-01   4.3585674e-01  -4.2521295e-01   6.1376163e-01   5.8048056e-01  -6.0345991e-01  -3.3398595e-01  -1.9311891e-01   7.5881557e-02   2.8923740e-01  -3.2602573e-02   1.0915286e-02   7.7797423e-02   6.2491219e-01   3.5376742e-01  -3.5786898e-01  -4.2346287e-01   5.7078985e-01  -6.8056589e-01   8.7934894e-01   4.3885833e-02   5.4817464e-01   4.8690203e-01  -8.8635342e-01   1.0411625e-01   8.2253487e-01   3.5948320e-01   6.5774198e-01  -2.4425293e-01  -2.1321620e-01   5.2275795e-01  -1.4083253e-02  -4.9402448e-01   1.3577072e-01   7.4060429e-01  -4.3583002e-01  -9.2465766e-01  -4.4928560e-01   5.8454978e-01   8.9820154e-02  -3.2216534e-01  -8.8770905e-02   6.5818006e-01   6.1753997e-04  -8.1192974e-01   8.7238783e-01   9.8981880e-01  -3.7019660e-02  -9.6153005e-01   9.0693709e-01  -2.3872751e-01  -2.5515350e-01  -8.5280818e-01  -3.1782076e-01   2.1930597e-03   2.1119533e-01   2.6830883e-01   2.9692601e-01   1.8941942e-02   8.6939860e-01   1.0793005e-01   7.8269531e-01  -5.7315213e-01  -7.2965223e-01  -2.3564611e-01  -1.2373713e-01  -5.0461598e-01  -6.5227791e-01   5.1553309e-01   2.3895445e-02  -5.5454457e-01   2.4205223e-02   5.2225732e-01  -9.1327901e-01  -2.6600727e-01  -2.3162591e-01   9.8526052e-01  -8.6531232e-01   6.2742205e-01   7.1148920e-01   8.7094144e-01   7.5134336e-01   2.7456497e-01   4.1799191e-01   5.4584851e-01   6.2791112e-01   8.7478227e-02  -2.8070955e-01  -7.9678898e-01   1.6399157e-02   8.2651083e-01   1.2904696e-02  -9.1971588e-01   1.2729492e-01   8.4894981e-01  -1.4589899e-01   8.8846829e-01  -6.5313990e-01   8.1059622e-01  -5.7963683e-01  -6.2925166e-01   7.8779394e-01  -3.6403817e-01   4.3020260e-01  -8.6261929e-01   8.2860158e-01   1.9858312e-01   9.9482631e-01  -9.0964400e-01  -1.5566305e-01  -8.9794667e-02  -8.4106843e-01   6.9369113e-01  -6.3868980e-01  -2.8944233e-01  -7.4511080e-01  -2.6238869e-01   1.2422018e-01  -3.1936857e-01   6.6385009e-01  -1.7596648e-01   5.9308809e-01  -3.1215441e-01  -3.5677206e-01   3.7055357e-02   6.3110964e-01   7.2991510e-01   4.3941362e-01  -7.3617784e-01  -5.9328299e-01  -3.1549511e-01  -6.9879513e-01  -8.8378034e-01  -8.8943075e-01   8.4729862e-01   1.1136121e-01  -5.2376382e-01  -2.4806512e-01   4.5473759e-01   5.4079649e-01   7.0057478e-01  -8.1676431e-01   5.6025242e-01  -7.1423736e-01  -6.1121006e-01   1.1203562e-01  -8.8384431e-01  -7.4524839e-01  -1.3822952e-01   1.3996382e-01  -8.6663933e-01   6.7430531e-01   5.4530505e-01  -9.6896850e-02   6.0960167e-01  -8.8965419e-01   5.1365604e-01  -6.2851628e-01   1.8442526e-01  -3.2312265e-01  -2.9346419e-02  -4.5927280e-01  -2.3120513e-01   9.4080481e-01  -1.2565026e-01   1.2102885e-01   7.2248397e-01  -4.8373681e-01   6.7800283e-01  -7.8547172e-01  -4.0566470e-01  -6.4966726e-01   5.1193997e-01   5.5698841e-01   1.4762014e-02  -5.7034079e-01  -9.8128835e-01   4.8392355e-01  -1.3222916e-01  -3.1464330e-01  -8.2885400e-01  -1.7561604e-01  -3.3290256e-01   3.4418892e-01  -5.4473501e-01  -1.8587238e-01  -3.0030008e-01   1.9671825e-01  -2.9148471e-01  -6.8867178e-01   4.4804693e-01   9.9349996e-02  -7.3089640e-01   8.4334691e-01  -4.0769160e-03   8.8652749e-01   5.1072433e-01  -6.5121469e-01  -3.4868396e-01   5.5934989e-01  -7.0235730e-01   8.0359583e-01  -6.3374379e-01   3.6780561e-01  -1.7348677e-01  -9.5559512e-01   2.3118866e-01  -1.0239535e-01   9.5893981e-01   3.7266606e-02   4.5308559e-01   1.6500656e-01  -5.9291159e-02  -9.2684779e-01   8.4116463e-02  -9.3270330e-01  -4.7451541e-01  -1.1385602e-01  -2.1317136e-01   2.9079590e-01   8.1239565e-01   9.5548407e-01   1.3233980e-01   2.4471288e-01  -3.0225557e-02  -2.0766708e-01   2.3831175e-01  -2.6080277e-02   1.0217120e-01   8.8661427e-02  -9.4591565e-01   3.2646915e-01  -4.8580707e-01  -5.6787283e-01  -1.6877319e-01   4.1896481e-01   3.3818195e-01  -1.7157472e-01   8.6511911e-01   9.0757018e-01  -7.8104755e-01  -1.5502361e-01   9.1509238e-02   2.7942620e-01   2.4558256e-01  -4.0455150e-01   2.4481574e-02   4.3641542e-01  -5.7909191e-01   4.2620125e-01  -6.4494507e-01  -8.0266080e-01   9.8325720e-01  -4.3523494e-01  -9.2051868e-01   6.6817585e-01   5.5275125e-01   5.2945568e-01   6.6985182e-01  -4.2249792e-02   1.8204670e-01   5.3061155e-01   2.9242069e-01   2.9903367e-01   8.4768447e-01   9.2714370e-01  -5.8808902e-01   5.4120155e-02  -6.0412338e-01   5.4011221e-01   5.2259473e-01  -8.0382311e-01   6.2778535e-01  -9.4734253e-01   2.8175710e-01   2.1352001e-01  -3.2081148e-01   2.9210375e-01   1.1632884e-01   2.7072915e-01  -3.3046158e-01   9.3953963e-01  -8.7552200e-01   6.8043956e-01   9.2228521e-01  -9.8547127e-01  -7.8687827e-01   8.2796342e-01  -9.4477752e-01   9.3307509e-01   9.1912641e-01   2.9071612e-01  -1.5343712e-02   2.0111949e-01   5.1222168e-01  -2.1343993e-01  -9.3209759e-01  -5.3082880e-01  -6.5304836e-01  -8.2008674e-01   3.2868307e-01   5.6367999e-01  -8.8408671e-01  -3.8016797e-01  -8.8801954e-01   3.5455622e-01   3.9362939e-01  -1.6576531e-01   6.0708783e-01   1.3461132e-01   7.6218602e-01   6.6787289e-01   1.4321334e-01  -3.9896703e-01   3.6813600e-01  -4.1671140e-01   5.5107154e-01  -1.9130871e-01   5.3655411e-01
