   2.3734140e-01  -3.4831401e-01   4.0705311e-01   3.6120620e-01  -1.2877076e-01   5.2952260e-01   5.6037852e-02   8.9494117e-01  -8.2130288e-01   7.1994580e-01   1.2305262e-02   7.4074566e-01   1.3861282e-01   6.4034696e-01   8.8720206e-01   7.2246545e-01   9.3815310e-02   3.1968585e-03  -7.6749830e-01   6.6942807e-01   6.1127565e-01  -5.9505458e-01   5.3947041e-01   7.7893509e-01  -1.0261879e-01   1.5523056e-01   1.9505249e-01   9.1347437e-02  -2.7348219e-01  -3.7701889e-01   6.1919155e-01  -1.1785108e-01   9.7425595e-01   2.4388944e-01   7.5978182e-02  -5.6849579e-01   6.0195094e-03   9.0680840e-01  -3.9852485e-01   4.2778395e-01  -7.6293542e-01  -5.0826002e-01  -3.2268711e-02   9.9796352e-01   9.3977489e-01   9.9404542e-01  -7.8635690e-01   4.9603535e-01  -4.2463105e-01  -7.3554985e-01  -6.1184751e-01   8.6665322e-01  -4.6217449e-01   9.8863908e-01  -5.9424281e-01  -4.7900933e-01  -6.6881208e-01  -5.6793798e-01   3.3997043e-01  -4.7773147e-01  -6.1120850e-01  -6.1039354e-01   4.8066833e-01  -9.1571108e-01  -9.0779709e-01  -5.5464760e-02   6.7324124e-01   9.3361496e-01   3.9046169e-01  -8.8359510e-01   3.8975489e-01   5.5133347e-01  -7.2244243e-01  -2.3782669e-02   4.4916333e-01  -3.3204960e-01   9.3008379e-01  -6.6727627e-01  -5.4338544e-01  -3.8912236e-01   1.2214274e-01   3.6147186e-01  -4.8105790e-01   3.2727933e-01  -3.2949320e-02   9.2486389e-01  -2.6232712e-01   9.8214547e-01   6.1533847e-01  -6.1825930e-01  -8.8179071e-01  -2.1602783e-02  -8.8179200e-01   4.2264851e-01  -1.3444158e-01   8.4568923e-01   4.4240116e-01   3.7116579e-01  -6.2409821e-01   5.3295683e-02  -5.8239314e-01  -6.9673139e-02  -8.3224436e-01   4.6891156e-01  -2.5205866e-01   5.6997951e-01   3.0584074e-01  -1.6590662e-02   3.8132678e-01  -3.7110820e-01   6.4473554e-01  -9.3506466e-01  -8.6256076e-01  -9.4238743e-01   5.6004638e-01  -4.7929096e-01   9.3195525e-01   3.1478280e-01  -8.4328517e-01  -4.5137799e-01   7.8440750e-01  -8.1940698e-01  -1.6147949e-02  -3.5977448e-01   9.6877220e-01   5.4490209e-01  -4.5205833e-01   2.3437405e-01   7.3911899e-01  -3.2225693e-01  -7.8368330e-01   6.4691803e-01  -1.0085864e-01   9.8521576e-01   5.1843704e-01   3.2879386e-01  -9.5709833e-01   3.5032431e-01   8.6704931e-01  -6.9714916e-01  -1.8979867e-01  -1.3468058e-01   6.9087640e-01   8.0031559e-01  -8.9444455e-01  -6.9879934e-02   1.8965408e-01  -7.3865484e-01  -1.8244755e-01   2.7131240e-02  -8.7917436e-01  -5.3958792e-01  -5.7414910e-01   6.0415792e-01   2.8628562e-02  -7.3745671e-01   7.8994988e-01   4.9645413e-01   3.0893087e-02   7.5459386e-01  -3.4020601e-01   1.7832414e-01   5.3963682e-01   5.9071839e-01   6.0813566e-01  -2.5965325e-01  -8.6751841e-01   6.2693602e-01  -3.2267091e-01   3.7063151e-01  -3.3312412e-01   1.9890295e-01   6.3517638e-01  -9.4813716e-01  -4.1570745e-01  -1.4682945e-01   2.5312339e-03  -8.7920999e-01  -8.3252279e-01   1.8714430e-01  -2.3057574e-01  -4.5316125e-01  -8.1558775e-01   2.5416902e-01  -5.7428563e-01   7.8297719e-01   3.2996467e-01  -6.8246036e-01   1.8541057e-01  -5.5832029e-01   8.7472734e-02  -1.5210437e-01   7.1781743e-01   2.6407245e-01   5.0658538e-01  -1.2242691e-01  -5.6268103e-01  -3.8975663e-01   6.8552797e-01   6.6311538e-01   1.7720119e-01  -1.0931510e-01  -8.6440657e-01   7.4637884e-01  -4.5743317e-01  -6.4362657e-01   2.2435330e-01   2.2988774e-01  -3.7662847e-01  -6.1260685e-01  -2.3966968e-01  -9.3873757e-01  -5.0636867e-01   5.3256794e-01   1.9881331e-01  -2.3895093e-01  -9.0422581e-01   5.0339742e-02   8.2852236e-01   3.9595466e-02  -2.1634138e-02   8.7871878e-01  -8.9213127e-01   7.8419991e-02  -8.8332402e-01  -7.7960683e-01  -6.4377033e-01   9.7086647e-01   7.3190146e-01  -6.5542102e-02  -5.3647495e-01   8.4022781e-01   6.2500794e-01   8.6224852e-01  -8.9485427e-01  -3.8384004e-01   7.4955565e-01   3.1848569e-02  -1.3525231e-01   5.2607064e-01  -3.4406378e-01   7.0606747e-01  -6.9738984e-01  -4.3997658e-01   9.7659816e-01  -4.8551041e-02  -3.5295818e-01   1.5303550e-01   9.9036863e-01  -5.5237227e-01  -5.3142398e-01   9.4109147e-01  -4.1442201e-01   8.7095070e-01  -1.3280297e-02   9.3397206e-01   5.3353730e-01   6.4619026e-01   8.0611128e-01  -3.0056139e-01  -7.2174922e-01  -5.6389489e-01  -5.9818439e-02   3.7052105e-01   9.3531607e-02  -9.6486294e-01  -1.2011628e-01  -5.0208473e-01   9.7491453e-01   4.8014619e-01   5.5104558e-01   7.6568495e-01   6.9713618e-01  -4.9980481e-01   6.7589377e-01  -4.6923013e-01  -3.6215374e-01  -4.7042221e-01   7.7724474e-01  -3.7617834e-03   1.5948988e-01  -5.3928503e-01   2.3033088e-01   6.6078672e-01  -8.3099050e-01  -9.1790914e-01   3.6559646e-01   4.9634595e-01  -6.7560268e-01  -1.4271922e-02   8.6614214e-01   3.7144942e-01   9.6476179e-01   8.8511921e-01   2.7130469e-01   2.7394444e-01  -2.2092574e-01   1.2934510e-02  -4.1835567e-01  -1.9015958e-01  -8.7301422e-01  -7.6533644e-01   5.6987475e-01  -2.7883660e-01   9.9257847e-01   9.4367125e-01   5.9671063e-01   1.9935423e-01   7.5529749e-02   5.4301762e-02  -8.7953850e-01   3.1355565e-02  -5.0812921e-01  -5.9957229e-01   5.2188012e-01  -4.7885123e-01   3.7186076e-01  -2.8190212e-01   9.7817488e-01   6.6683483e-01  -7.3011297e-01   6.1469513e-01   6.3258083e-01   4.2284282e-03  -3.4984542e-01  -7.3580924e-01   2.8437510e-01  -6.1589216e-01  -9.4127088e-01  -3.7015082e-02   4.0382938e-01  -2.9841903e-01  -1.5001463e-01   5.8208422e-01  -3.1384775e-02   1.5367968e-01  -6.9168134e-01  -9.4920326e-01   1.1692800e-01   3.3631887e-01   5.3889159e-01  -5.9326748e-01   9.2056153e-01  -1.8269441e-02  -8.6196840e-01  -9.1431911e-01   3.5820469e-01  -7.1456697e-01  -2.4396617e-02   4.4491380e-01   7.9535389e-01   1.6521942e-03   3.6733678e-01  -9.5276655e-01   5.4368373e-01  -1.0034078e-01  -1.6411344e-01   5.1014188e-01   7.8606105e-01  -4.1144402e-01   1.1545840e-01  -4.2602479e-01   2.3176950e-02   7.5758886e-01   2.8903335e-01  -4.9871807e-01   2.3691800e-01   7.0335670e-02   2.6173337e-01   2.1013618e-01   6.6121663e-01   5.8503864e-01   4.4970388e-04  -2.8303688e-01  -6.2772902e-01  -6.8405923e-01  -5.0072197e-01  -8.9775229e-01  -3.1833106e-01  -9.2506064e-02  -9.5525136e-01   6.0010347e-01  -2.7094657e-01  -3.2012493e-01   6.4441127e-01  -1.1204919e-01   6.0345599e-03   3.5924653e-01  -5.1685844e-02  -3.6496170e-01  -3.6344970e-01   7.9079449e-01  -5.5132136e-01   1.7759936e-01  -5.3894751e-01  -4.1619997e-02  -7.4655567e-01  -3.1638460e-01   2.1115121e-01   9.0075362e-01  -5.2038211e-01  -2.1243217e-01   4.0994728e-01   2.0713279e-01   2.9506660e-01  -1.8581332e-01   1.1399526e-01  -5.3104804e-01   3.8989264e-01  -1.0516411e-01  -4.2739516e-01   3.7205156e-01  -5.1070605e-01   4.7347474e-03  -5.6042361e-03  -2.9221232e-01  -3.3313614e-01   9.3415912e-01  -4.3204411e-01   3.3494731e-01  -8.8589283e-01  -8.6311303e-01  -1.2749644e-01  -4.8298077e-01  -3.6483020e-02   4.5580827e-01  -8.9957053e-01   7.3058279e-01   2.7493319e-02   5.7678937e-01   8.8869303e-01   3.8949479e-01   7.6204396e-01   5.2010141e-01  -8.5835703e-01  -3.5290199e-01  -1.9259621e-01   7.9960049e-01   3.5846287e-01  -5.9919530e-01   6.0837427e-01   7.3762472e-01   1.6319451e-01   2.1352057e-01   2.8426709e-01  -3.2155381e-01  -3.0036751e-01   1.8868152e-01   5.8915063e-01  -6.5905654e-01   5.1497272e-01  -4.0550664e-01  -7.5618053e-01   5.4281064e-01  -6.3942652e-01  -4.7969615e-01  -5.4937504e-01   1.2684845e-01   6.9326533e-01   4.9580154e-01   9.1823448e-01  -9.9461494e-01   1.5899483e-01   8.7149721e-01   8.0862950e-01  -4.8830029e-01  -8.4823579e-02  -1.3661234e-01   7.1063169e-01  -9.9746046e-01   6.9473868e-01  -7.4368636e-01   7.9393480e-01  -4.1048649e-02  -2.3656263e-01   5.9204241e-01   3.2625548e-01   3.0150688e-01  -9.4489938e-01  -4.2768702e-01   3.8698551e-01   7.5896679e-01  -2.8100243e-01   3.4711688e-01  -9.6851461e-01  -8.4932956e-01  -8.8851559e-01  -9.3818598e-02  -2.3669016e-02   5.5418624e-01  -8.7562494e-01  -2.0731882e-01  -6.4723337e-01   1.3472221e-01   3.1267186e-01  -5.0931317e-01  -9.4366309e-01   6.1894780e-01   4.1224990e-01   4.9257798e-01  -3.9290480e-01  -7.3337388e-01  -8.1478797e-01  -1.8186991e-01  -3.2806100e-01  -9.6470397e-01   7.3795752e-03   2.0603090e-01  -1.8231039e-01  -5.9544668e-02   1.4528886e-01   7.6881574e-01  -4.9261605e-01  -7.8937665e-01  -4.9180962e-02  -4.5350244e-01  -3.1476428e-01  -2.8938451e-01   7.6473750e-02   4.2982590e-01  -6.4742302e-01  -8.6749517e-01   7.5548517e-01   9.8785650e-01  -7.4890273e-01   2.4541201e-01  -2.6574608e-01   5.0118038e-01   7.1530647e-01   2.9039741e-01   2.3949640e-01   3.3468184e-01  -1.6753202e-01   9.8059418e-01  -6.5702154e-01  -8.5004656e-01   4.3765767e-01   1.8720978e-01   3.4326367e-01  -7.7553660e-01  -3.5297595e-01   3.8382603e-01   9.1574282e-01  -5.7157831e-01   1.8317178e-01  -9.1993191e-02  -4.7173476e-01   3.1157918e-01  -4.6049312e-01  -6.1260836e-01  -6.8951334e-01  -7.6543570e-01   2.1285923e-01   5.8632305e-01  -4.8203055e-01  -8.6938608e-01  -3.8682310e-01   5.0444206e-01  -8.2319409e-01   3.7276682e-01   6.1151472e-01  -6.8469508e-01   1.8502469e-01  -9.2370318e-01   4.8177458e-01   3.5188988e-01   4.1662389e-01   9.3883501e-01   1.1146073e-02  -6.5938190e-01  -7.7975259e-01   1.6561130e-02   7.5949545e-01   6.1271183e-01   9.4568801e-02  -9.8327842e-01   9.7378601e-01  -2.5681466e-01  -1.4417467e-01   3.1345588e-01  -5.5171601e-01  -1.3352533e-01  -5.8151810e-01  -9.6962372e-01  -5.8521062e-01   3.1476688e-01  -5.6253197e-01  -5.4110508e-01   1.1243052e-01  -4.3453238e-01   2.3075590e-01   3.5982855e-01   3.9000437e-01   4.6068419e-01  -2.0974618e-01   1.4593421e-01   4.5733640e-01   4.6544991e-01   9.5219476e-01  -3.3639136e-01   7.4416154e-01   4.5792190e-01   1.3678523e-01  -8.1291727e-01   1.6380501e-01   2.6880412e-01  -1.5202769e-01   7.4323392e-01   3.9982590e-01  -7.8641024e-01   9.5146719e-01   8.4039692e-01   4.7998005e-02   8.2028181e-01   8.8625932e-01  -7.2378471e-01  -8.0647420e-01   8.5525859e-01   9.1059749e-01   3.6679532e-01   5.0747481e-01   5.0705118e-01  -2.9254952e-01   8.0203371e-02   4.7248186e-01   6.2076752e-01   4.3680998e-01   1.7144025e-01   6.9456264e-01  -8.3386315e-01  -9.8300789e-01   3.2637111e-01   3.3620649e-01  -4.3992175e-01  -6.8526974e-01   1.0845619e-01  -7.6930020e-01   7.0220953e-01  -9.8941538e-01  -8.0857514e-02  -6.0870866e-01  -2.5556049e-01  -4.6320277e-01   9.9811370e-01  -6.2260145e-01   9.8321046e-01  -7.3613724e-01   8.7280601e-01   8.2233624e-01  -2.6918509e-01  -6.8085743e-01  -6.2601789e-01  -6.9730913e-01  -4.4858576e-01   2.0595650e-01  -3.0575636e-03  -4.8235693e-02   4.0563314e-01  -7.0547912e-01   7.1102406e-01  -3.0262260e-01  -3.1824812e-01  -7.2055522e-01  -3.2253593e-01  -3.4993311e-01  -9.2759118e-01  -7.2538184e-02  -7.3324142e-01   6.0488739e-02  -1.6266592e-01   5.7733468e-01  -6.0657931e-01  -8.3757334e-01  -4.0649776e-01   7.0426263e-01  -7.2738261e-01   9.1327955e-01  -9.7262427e-01  -9.5513088e-01   9.9727785e-01   6.0760253e-02  -2.9025034e-01  -3.4719886e-01   6.8221631e-01   1.5457763e-01  -6.7169467e-01  -3.8488384e-01   2.2967203e-01  -7.5594632e-01  -9.4772028e-01  -2.6563800e-01   1.3600000e-02   4.9338761e-03  -5.5997610e-01   9.2151956e-01  -3.2570200e-01  -6.7462006e-01   1.2608510e-01   2.1875141e-01   4.0498828e-01   3.1720076e-01   5.5989031e-01   1.3465277e-01  -5.2914782e-01   8.1863272e-01  -8.4343576e-01   6.5645206e-02   1.6719567e-02  -4.6661586e-01  -6.7016105e-01   6.6816130e-01   2.2713300e-01  -9.4626889e-01   5.5493555e-01  -4.9322854e-02   2.2830786e-01   7.7659033e-01   3.2909004e-01   9.5789502e-01   4.9844877e-01  -4.2482972e-01   8.3441335e-01  -7.8989699e-01  -8.7684983e-01   6.0363276e-01  -3.7659617e-01  -7.2695611e-02   9.1796468e-01   3.2821924e-01  -5.2373628e-01  -7.6450758e-01   7.1516524e-02  -8.6358171e-01   5.1199250e-01  -3.1819045e-01  -4.6625094e-01   7.8590566e-01   1.6709149e-01   9.6697477e-01  -1.9294082e-01   4.5696876e-01  -8.8051637e-01  -1.6681875e-01  -5.2313272e-01   4.4037266e-01   9.8546337e-01   9.0652582e-01  -1.4782488e-01   3.1047614e-01   9.0957377e-01  -1.1111197e-01  -8.3862356e-01  -5.0760297e-02  -3.4577677e-01   7.8672402e-01  -9.6369187e-01  -2.3352445e-01  -3.2815311e-01  -8.4406351e-01   6.6479554e-01   9.6009341e-01  -7.7936118e-01  -3.4922235e-01   1.3429263e-02  -5.5442787e-01   8.3036704e-01   4.8566823e-01   2.7832055e-01  -2.9742479e-01  -5.7187007e-01   5.0791410e-01   5.3789353e-01  -8.4203994e-01  -5.3058647e-01  -6.9118040e-01  -7.9142079e-03   8.7019837e-01   1.2200067e-01   4.5735060e-01   7.7287620e-01  -5.1782871e-01  -5.4076820e-01   8.7224961e-01   9.7586897e-01  -4.5046968e-01   7.7742136e-01  -2.6964391e-01   8.0098747e-01   4.7530811e-01  -1.4618093e-01   1.6314035e-01  -3.3519664e-01   4.6324384e-01   2.7056175e-01  -7.9286666e-01  -2.2649882e-01   2.1302859e-01   3.6214166e-01  -7.6855954e-01  -6.9516251e-01   4.7409791e-01  -2.3596577e-01   7.6159244e-01   2.6004550e-01   2.4479903e-01  -1.0736532e-01   6.3364608e-01  -1.0561267e-01  -3.5180841e-01  -9.4781726e-01  -7.2524613e-01  -8.1707629e-01  -8.0949703e-01  -6.7546860e-01  -1.6719263e-01  -6.9884684e-02  -9.9063584e-02  -1.0828776e-02  -7.9131044e-02   1.0530565e-01   1.5600321e-01  -1.6316366e-01  -1.0700921e-01   9.3891387e-01  -8.1382048e-01  -1.7626150e-01  -6.8203116e-02   7.0604839e-01  -6.5468103e-01  -3.4777005e-01   7.5343681e-01  -6.4074520e-01   1.1505875e-01  -4.6322958e-01  -6.0427738e-01   1.5861926e-01   5.4450884e-01  -2.2727304e-01   3.2270637e-01  -3.5923068e-01  -8.4358282e-01   2.4773759e-01   3.2177234e-01  -7.0369254e-01  -2.4532413e-01  -6.0459932e-01   7.4523443e-01   1.7098099e-01  -8.6414660e-02   9.4958758e-01  -5.3345241e-01  -3.6238720e-01  -8.9481424e-01   1.8783906e-02  -9.4939305e-01  -6.9297911e-01   5.9171100e-01   3.2958032e-01  -4.5120605e-01  -9.6294644e-01   2.3463102e-01   3.5053654e-01   5.4493760e-01  -1.0860057e-01   8.1116818e-01  -7.7257299e-01  -1.8149053e-01   4.7620296e-01   8.1915411e-01   5.0082451e-01   6.5480622e-01   3.5805183e-01   5.2440464e-01   9.0498540e-02   8.6829635e-02   9.9583930e-01  -5.6866346e-01   5.9659316e-01   1.8667960e-01  -2.3959135e-01   7.4097281e-01  -4.4543757e-01   4.1099266e-01   4.1224943e-01   9.0821912e-01  -6.9958481e-01  -9.2873077e-01   2.9942766e-01   8.3033170e-03   4.5866307e-01  -6.2087409e-01   9.7766407e-01  -3.0448037e-01  -6.5586957e-01   4.4826613e-01   6.3857164e-01   6.4149529e-01  -1.2518400e-01   2.3287673e-03   3.8710038e-01   4.6747748e-01   4.0615839e-01   1.8948549e-01   7.7944655e-01  -3.3179865e-01   1.0905951e-01  -4.3247676e-01   9.0627111e-01  -3.7812113e-01   3.4049435e-01   8.5794732e-01  -2.5880331e-01   3.3054661e-01  -5.6856610e-01  -5.2465614e-02   2.2869694e-01   3.9159472e-01   6.4983210e-02   4.3802927e-01   4.1858907e-01  -1.9045287e-01   4.3675417e-01   8.2446521e-01   9.0410002e-01   1.0274944e-01   3.7000349e-01  -2.8799074e-01  -3.8229775e-01  -2.8403802e-01  -4.8129809e-01   9.6642805e-01   9.1714042e-01   1.2893488e-01   7.5477824e-01   9.5076713e-01   2.3931973e-01  -2.7136696e-01  -5.4280282e-01  -2.2288489e-01   8.5644346e-01   7.5001731e-01  -3.2420725e-01  -6.4356006e-01  -9.4067368e-01  -7.3237758e-01  -9.2146012e-01  -3.9583656e-01  -4.9655043e-01  -3.3816505e-01  -9.4186996e-02  -6.6114415e-01  -8.4685905e-01  -7.6291739e-01  -2.7183744e-02   7.3985021e-01  -7.6890001e-01   9.9955428e-01  -4.9293321e-01  -4.7204348e-02  -3.7175933e-01   9.6373240e-01  -8.5835655e-01  -9.7870787e-01  -3.5621882e-01   2.8450114e-01  -4.6651715e-01   2.5810949e-01  -9.8749941e-01   1.5882866e-01   4.4560341e-01  -1.5784699e-01  -2.3630826e-01  -1.5457221e-01   3.2502827e-01  -1.7544164e-01   2.1156239e-01   7.5172065e-01  -6.4639375e-02   5.9610009e-01   9.5857628e-01   9.1501238e-01   1.4188512e-01   4.9156312e-01  -3.0661273e-01   6.6902927e-01   6.3253751e-01  -7.8496799e-01   6.5020200e-02   6.2077773e-01   7.5500196e-01   3.9439959e-01  -6.0042678e-02  -3.5086546e-01  -5.0519976e-01  -2.2936607e-01  -1.9903881e-01   8.9830555e-01   8.8188429e-01   1.0227827e-01  -9.8636844e-01
  -9.9224025e-01   2.7922813e-01   1.2923214e-01  -2.6211943e-01   3.6779698e-01   3.3215040e-01   9.9692202e-03   4.7874486e-01   6.5461934e-01  -9.4961718e-01  -9.9514170e-01   8.2005629e-01   7.4425799e-01  -9.5607740e-01  -9.8540287e-01   2.9301384e-01   8.7696859e-01  -4.5812685e-01   6.5023105e-02  -8.4506558e-01   6.1667912e-01  -3.7721707e-01  -3.0823583e-01   5.1153087e-02  -3.3239840e-01   4.1279535e-01  -5.8689303e-01   4.6310998e-01   8.5243436e-01  -8.7905331e-01   7.7195393e-01   5.1818497e-01  -6.7484045e-01  -6.8127255e-01   6.1758418e-01   5.6036207e-01  -4.9631149e-01   6.1975032e-01   5.2468223e-01   1.8080650e-01   6.0772265e-01   4.3383428e-01  -5.1798093e-01  -6.3015993e-01   6.8859313e-02  -5.2571627e-01   3.3527406e-01   2.0664035e-01  -3.1859992e-01  -1.1720852e-01  -2.5266332e-01  -3.3693473e-01  -1.7051838e-01  -1.5357067e-01  -7.8643937e-01  -4.6405478e-01  -5.8976440e-01  -9.2076589e-01  -4.8797702e-01  -6.0428401e-01   6.4393763e-01   3.1152194e-01   1.9140032e-01   7.5497042e-01   3.8000351e-01  -7.6756467e-01  -5.8507875e-01  -6.9778369e-01   4.1501089e-01  -1.9021342e-01   9.4312143e-01  -8.8933247e-01  -6.6452560e-01   4.3428513e-01  -5.1013541e-01  -1.9773201e-02   9.0855029e-01   2.6952553e-01   2.0997272e-01  -3.1325627e-01  -5.5033142e-01  -3.7623581e-01  -1.2685352e-01   9.8609428e-02   7.0048614e-01   2.4213192e-01  -6.3598894e-01   7.6761803e-01  -4.5132837e-02   9.8019174e-01   4.9266742e-01   7.6336536e-01   9.5205540e-01  -4.2966370e-01   6.7289240e-01   5.3679632e-01   3.6075033e-01   5.8042498e-01   5.9207732e-01  -1.5878154e-01  -7.0948738e-01   9.1836195e-01   4.5984184e-01   4.1092187e-01  -6.9663885e-01   5.7767049e-01  -4.1538935e-01  -6.6858950e-01   3.9478620e-01   3.2818370e-01  -3.3651687e-02  -7.4676064e-01   4.3110847e-01   3.1284693e-01   8.7455969e-01  -8.9166638e-01  -5.3952524e-01   7.6407494e-02  -7.9185875e-01   4.9642431e-01   3.7623660e-01  -5.1336048e-01   4.9711746e-01   1.4775658e-01   5.4294743e-01  -4.2081122e-01  -6.4520343e-01   7.6155038e-01   5.8161840e-01   7.1232065e-01   5.9966886e-01  -1.3712160e-01   7.5198929e-01  -7.4187799e-01  -2.4385796e-01   5.4487743e-01   8.8262351e-04  -5.5279315e-01  -5.0133872e-01   8.0489928e-01   9.4873318e-02   4.9741881e-01  -1.3711316e-01  -7.2085283e-01   5.3006346e-01  -3.5864617e-01   3.4171957e-01  -5.5827999e-01  -7.4207563e-01   7.1482852e-01  -6.5417330e-01   7.6658979e-03  -3.5277963e-01  -6.6270669e-01  -8.5029938e-01  -3.7746392e-01   3.5365367e-01   7.4725089e-01   5.5706636e-01   9.8043201e-01  -7.2907710e-01   7.3483840e-01   7.2134309e-01  -5.4194491e-01  -2.9986278e-01   2.3961033e-01  -3.8649491e-01   8.6096311e-02   8.1936701e-01   2.1409521e-01   1.3918296e-01  -1.0547026e-01  -5.0935368e-01   1.2834274e-01  -6.8364659e-01  -3.0096972e-02  -5.7661300e-01  -4.6550767e-01   3.2677927e-01   2.0881512e-01   4.9469515e-01   1.9709985e-01   2.3008932e-01  -3.9555930e-01   2.0898444e-01   4.8205254e-01  -1.9673160e-01  -1.1430464e-01  -3.3192768e-01  -6.1780368e-01  -6.5244332e-01  -3.7596746e-01   8.4348908e-01   8.9524278e-01  -6.0079071e-01   1.6603169e-01   8.7331149e-01   6.5716728e-01   5.9466744e-01   7.0038712e-01   4.4643061e-02   2.6005864e-01  -4.6373539e-01   5.9998133e-01   6.1624862e-01   1.7306486e-01   3.2446567e-01  -4.0698295e-01   4.2221747e-01  -6.7213909e-01  -9.6027474e-01   6.9987544e-01   5.4135220e-01   6.3786976e-01  -3.8711318e-01  -9.3636212e-01   2.9977413e-01   8.7447393e-01   9.6403628e-01   2.3769204e-01  -5.8747160e-01  -3.8733174e-01   1.9687122e-01  -9.7980872e-01  -9.7039007e-01  -6.5431279e-01   3.3205200e-01   3.6539221e-01  -3.0303814e-05  -8.5980677e-01  -9.5627088e-01   9.3104838e-01  -5.0372947e-01   9.7845179e-01   2.3225736e-01   9.8397711e-01   7.7933130e-01  -8.0171274e-01   5.5424013e-01   7.1246649e-01   7.3672328e-01  -6.0329245e-01  -7.7121402e-01  -7.1443320e-02   4.4802922e-01   7.7178849e-03  -8.2057976e-01  -8.1342679e-01  -7.4254580e-01  -3.3938070e-01   3.1410349e-01  -2.2904402e-02  -6.6963243e-01   8.2390685e-01   5.7026845e-02  -2.3813801e-01  -1.7556194e-02  -5.5007378e-01   3.8446414e-01  -4.1761053e-01   8.4115289e-01  -1.9904079e-01   2.3155365e-03   7.4987875e-01   3.7092785e-01   1.2375800e-01  -9.4774142e-01  -4.9570529e-02   7.4650761e-01  -9.3520044e-01  -3.4762304e-01   4.8959379e-01   9.8782737e-02  -8.9804583e-01  -1.0298451e-01  -1.8889552e-01  -7.9528117e-01  -9.3738120e-02  -7.6209981e-01   4.2103906e-01   9.6083027e-01   4.7375952e-01   7.5409836e-01   3.7135101e-01  -4.3782994e-01   7.5552693e-01  -5.4684493e-01  -8.6221933e-01   7.1919038e-01   7.1391988e-01  -3.6571172e-01   3.2532539e-01  -4.1483535e-01  -7.4514596e-01   5.6097900e-01   1.8033538e-01  -3.8346312e-01   6.4103263e-01  -3.1677451e-01  -8.3794829e-01   4.7192801e-01   9.7927885e-02   8.9520385e-01  -6.3791566e-01  -6.0683722e-01   8.5396652e-01  -9.1585866e-02  -2.9837760e-01   5.9254208e-02  -8.3628375e-02  -9.6295513e-03   6.0190496e-01   1.5613566e-02  -6.7892647e-01  -9.7523463e-01   4.9184019e-02  -5.5634509e-02   9.7651617e-01  -1.9952622e-01   4.9502843e-01  -3.5630173e-01  -2.0936111e-01   8.2643920e-01   2.4748649e-01  -9.2391379e-01   3.5926154e-01   2.3252158e-01  -4.7833326e-01   9.7912771e-01   9.8331810e-01   4.6649203e-01  -6.7578595e-01   3.2244539e-01   6.9536203e-01   7.6721692e-01   9.8745685e-01  -9.9713345e-01   6.5684038e-01   5.7103291e-01   1.4420053e-01   7.8981897e-02  -1.6311081e-02  -2.2666485e-01   7.8879644e-01  -3.6208952e-01   7.6341218e-01   6.5807860e-01   3.3680813e-01   4.4691034e-02   4.5513526e-01   1.1660671e-02  -4.5709690e-01  -9.7686938e-01   8.9900755e-01   9.2783029e-01   6.6461349e-01   2.3224846e-01   8.7123561e-01  -7.8836433e-01  -5.0310167e-02  -8.8090601e-01   3.6474496e-01  -1.4355976e-01  -4.7905525e-01   4.2696307e-01   2.0070269e-01  -2.4458924e-01  -9.5243606e-01   9.2821701e-01  -6.2558287e-01   6.5308156e-01   5.4504037e-01  -5.9238667e-01  -9.8331009e-01   8.8807062e-01  -6.1498439e-01   8.7014572e-02   3.6433039e-01   1.8006173e-02  -2.7466936e-01  -3.7328722e-01   1.7757392e-01  -5.9335961e-01  -7.1629066e-01  -8.1450994e-01  -7.7339331e-01  -2.8810103e-01  -3.8631994e-01  -5.2571037e-01   8.4400357e-01  -9.8089635e-01  -5.6624146e-02   9.8212300e-01  -7.1710195e-01  -2.5070305e-01  -2.3919143e-02   6.2507920e-01   3.2701041e-01  -1.1850834e-01   9.7375580e-01   2.0807671e-01  -1.1282049e-01   3.4097474e-01   7.4584855e-02   3.5495198e-01  -6.1016569e-01  -1.7909589e-02   5.2188334e-01  -5.6392356e-01  -4.0013475e-01  -1.4628947e-02  -9.8354110e-01  -6.3474150e-01  -7.8892724e-01   5.9450895e-01  -9.4126941e-01  -8.7656519e-01   9.7254438e-01   1.6164183e-01  -6.6690918e-01   8.2245733e-02   4.5207484e-01  -7.4414204e-01   2.7615862e-01   1.5522428e-01  -3.7485362e-01  -5.4235195e-01  -3.7630509e-01  -6.9318468e-01   6.6808228e-02  -1.1606068e-01   6.8082953e-01   2.1694081e-01   3.4182636e-01  -2.6457058e-01   3.2304270e-01   4.0353880e-01   6.3468636e-01  -2.9807097e-01  -7.3783233e-01   5.9871807e-02  -2.8568560e-02   3.2984733e-01   7.8313735e-01  -8.0659817e-01  -3.2381945e-01   4.2569416e-01  -5.9084958e-02  -1.3548416e-02   4.0479174e-01   6.0980711e-01  -2.0079294e-01  -1.1918188e-01  -8.9680540e-02  -6.2795136e-01   8.6183455e-02  -2.8715706e-01   6.3528307e-01   4.0324606e-01   5.9466112e-01   9.9077286e-01  -9.2208533e-01   3.6539002e-01   5.9477136e-01   3.3675544e-01   7.4070560e-01   2.1359805e-01   8.9861141e-01   3.3105921e-01  -9.0348719e-01   4.3074982e-01   1.9474162e-01   2.1654266e-01   2.2147009e-01  -8.0759180e-01   3.6136165e-01   2.4135580e-01   5.5172245e-01  -6.8969579e-01  -1.7289228e-01  -7.7554377e-01   5.0007151e-01  -5.0797319e-01  -7.8291352e-01   1.6113049e-01  -1.5702562e-01   3.7472192e-01  -4.8552380e-01  -7.7554869e-01   9.6025988e-01  -3.2953860e-01   7.5835800e-03  -1.4419411e-01  -4.7786006e-01   3.7599492e-01   1.5851401e-01  -2.1379404e-01  -9.2363752e-01  -2.3082606e-01  -8.3964532e-02   8.7084814e-01  -1.8783335e-01   2.9199065e-01  -2.4707577e-01   6.1069262e-02   5.5649389e-01  -8.9259618e-01  -8.7121982e-01   9.8621195e-01   6.4290623e-01   9.2472306e-01   9.8376367e-01   1.4937612e-01   6.7241312e-01   2.5607558e-01   2.3170110e-01  -7.8152956e-02  -2.2815954e-01   9.2284671e-01   5.3514716e-01   8.1047917e-01   2.5705753e-01   1.3282436e-01  -3.3453362e-01  -7.1598465e-01   2.6502076e-01   4.4123156e-01   7.0058259e-01  -7.3545163e-01  -7.2952745e-01  -6.2006914e-01   4.6550515e-01  -7.9731392e-02   6.3231009e-01   2.9832216e-01  -6.7960178e-01   5.3882011e-01  -3.8655921e-01   1.7652762e-01  -3.1166705e-01  -6.3739323e-01  -8.9510666e-01  -8.5077601e-01   1.8568569e-02   8.4163155e-01  -3.5019377e-01   3.4668900e-01  -5.1213691e-01  -9.1042284e-01  -7.5365179e-01  -3.3190834e-01  -6.1373636e-01   4.8283831e-01   9.0116188e-01   3.7537335e-01   5.5545166e-01  -5.3066378e-01   7.6180002e-01   1.7247009e-01  -7.3187366e-01  -3.4861492e-01  -5.1919400e-01  -4.8378468e-02  -9.9440182e-01   6.5311831e-01   7.1700674e-01   7.1807780e-01   6.2485617e-02  -1.7975853e-01  -8.1526508e-01   7.8508204e-01   1.8848475e-02  -6.8668943e-01  -1.8563657e-02   5.8177086e-01   7.9367487e-01  -8.6402740e-01  -6.7907872e-01  -3.3992714e-01   8.7975744e-01   8.9652832e-01  -4.9061742e-01  -9.2382030e-01   2.7184038e-01   1.1145962e-01  -1.6872580e-01  -1.7687227e-01   6.4484285e-01   2.4156575e-01  -2.7734617e-01   4.6993306e-01   4.3671333e-01  -7.7190564e-01   5.1915908e-01   7.9383614e-01   1.9179891e-01  -4.3534386e-01   9.5983384e-01  -2.2315218e-01   9.1019922e-01  -2.9596139e-01   8.6712462e-01  -4.6345640e-01  -8.6664439e-01   4.5863702e-02  -7.5114751e-01  -2.9581926e-01   9.4580659e-01  -5.3023192e-01   7.8846511e-01  -5.5771515e-01  -5.7433176e-01  -7.2216905e-03   2.7460358e-01   9.9019176e-01   3.6502047e-01   1.8953205e-01   2.6655665e-01   4.9644484e-01   7.1135495e-01   1.9500598e-01  -2.9942536e-02  -3.9206201e-01   8.0862495e-01  -1.1006954e-01  -9.0247682e-01   4.6960321e-01  -2.9816554e-01   4.8694323e-01   4.1012311e-01  -4.0258585e-01   3.1696874e-01  -2.6128712e-01  -7.7558921e-01   2.6330036e-01  -8.5244487e-01   5.1886251e-01   4.9294460e-01   4.1899931e-01  -5.0689452e-02  -2.9622721e-01   5.7137376e-01  -2.5651193e-01  -2.4257734e-02  -5.4804495e-01  -7.0671022e-01   7.6134518e-01   4.6104235e-01  -9.4640436e-01   2.6459803e-01  -3.6242775e-01  -8.0956683e-01   7.4562463e-02  -2.5164821e-01  -1.4909358e-01  -9.1868101e-01   6.0177050e-01   1.6232676e-01   1.9588371e-01  -1.6817123e-01  -9.0552677e-01  -8.6292600e-02   5.9056386e-01   2.3130633e-01   3.8331694e-01   1.6938046e-01  -2.0613849e-02   3.2366393e-01  -7.3843031e-01  -2.0185102e-01  -3.3131770e-01   9.6291946e-01  -4.2704991e-01  -1.3595731e-01  -7.9533422e-01  -7.1333716e-01  -1.6643788e-01  -2.6607427e-01   3.9757760e-01  -8.7021565e-01  -2.1643395e-01  -7.3705188e-01  -6.3916796e-01   7.1917684e-01   6.6185222e-01   6.8205134e-01  -2.5882681e-01  -1.9792651e-01  -2.9459796e-01  -2.6174316e-01   7.6832799e-01   6.3387292e-01  -1.0644825e-02  -4.1696401e-01   2.0528667e-01   4.8599524e-01   5.4363011e-02   4.6574101e-02  -5.2457717e-01  -6.2758994e-01   1.9729176e-01  -3.6963506e-01  -9.0557121e-01   1.8432702e-01   3.9209217e-01  -9.7964019e-01  -6.5110244e-01  -2.4478810e-02  -4.7558976e-02   6.6718558e-03  -7.1670769e-01   3.2533972e-01   7.5912505e-01   6.2627743e-01   4.7457588e-01   8.4910660e-02  -4.1187899e-01  -9.1958683e-01   2.3424299e-01   7.6393773e-01   7.4140337e-01   2.3908130e-01   5.3198232e-01   1.6228207e-01  -4.3446453e-03  -9.5405028e-01   5.7911546e-01   9.1428254e-01   7.1906009e-01   7.9378498e-02   4.0657602e-01  -8.6818994e-01  -2.5546889e-01  -5.6110620e-01  -2.0275056e-01  -7.4325076e-01  -4.2706716e-01   6.7680522e-01  -4.8354042e-01  -8.7114638e-01  -1.3937133e-01   9.0010210e-01   5.9062628e-01   2.8907760e-02   8.7086076e-01   9.2586512e-02   5.4674001e-01   9.7547650e-01   2.6213894e-01   7.9997664e-01  -4.8318303e-01   1.3318437e-01  -9.7827956e-01   2.8060844e-01  -1.8609080e-01   2.5502614e-01   6.0141262e-01   4.8366640e-01   7.9850230e-02  -3.0972648e-02   8.7346016e-01  -5.5502524e-01   9.8051147e-02  -7.7839034e-01   5.8784492e-01   7.5257512e-01  -9.4695998e-01  -5.6752130e-01  -3.1990038e-01   8.6261331e-01  -3.3646166e-01  -2.1438674e-01   6.8375876e-01  -1.0470824e-01   8.9584073e-01   5.2440104e-01   3.1047439e-01   2.9865300e-01  -9.5345520e-01   5.6689604e-01  -4.0560533e-01   2.3118747e-01   1.6890676e-01  -3.0952430e-01  -4.0772121e-01   9.4460559e-02  -7.7482470e-01  -6.5197143e-01  -6.9386561e-01   5.0891567e-01  -6.8207995e-01  -1.4412163e-01   3.4194391e-01   5.5919249e-01  -1.7576675e-01  -1.8445043e-01  -2.8741793e-01  -1.6143345e-01   8.9113449e-01   8.6168876e-01  -1.8438618e-02  -5.7094513e-01  -1.8516568e-01   2.3456139e-01   5.6231792e-02  -3.0974561e-01   7.9166627e-01   8.0475789e-01  -7.0190411e-01   5.7826026e-01   7.3112908e-01   2.7544392e-01   6.7199071e-01  -9.2921095e-01   5.1891168e-01  -1.4270712e-02   9.9781503e-01   1.9933178e-02  -8.2441163e-01   4.5899003e-01   7.4400331e-01   7.8887469e-01  -1.6973569e-01   5.8442083e-01  -4.9725117e-02  -7.1153805e-01   1.3229120e-01  -7.6563259e-01  -9.5908167e-01   4.5688873e-01   5.8808353e-01   2.3035191e-01   8.6961922e-01   6.6889227e-01   7.6470810e-01   4.3732247e-02  -5.2441979e-02  -3.5109753e-01   6.5769319e-01   2.4291017e-01   9.4331530e-01  -9.4813012e-01   5.3729945e-01  -3.8951037e-01   1.3591714e-01   7.1378888e-01   1.4691577e-01  -5.3734050e-01  -2.8997899e-01   1.4246096e-01  -4.3642457e-01   9.6000339e-01   5.6642266e-02  -3.3641489e-01  -6.8563238e-01   4.2403515e-01  -6.3801509e-01  -6.0834130e-01   5.7057658e-01  -7.4763956e-01   4.7570866e-01  -4.2772549e-02  -4.0969350e-01  -5.8945318e-01  -2.7378082e-02  -9.5822555e-01  -2.4328357e-01   3.7060213e-01  -5.2368094e-01   5.5655715e-01   5.4985469e-01   8.0927071e-01   5.1416860e-02   2.9393084e-01  -6.3941527e-01  -4.1349255e-01  -6.4998963e-01   3.0252699e-01  -3.2676638e-01  -6.6905959e-01  -5.1080298e-02   8.1960757e-04   3.0565358e-01  -9.7312591e-01  -7.2084858e-01   5.0710833e-01   8.5562770e-01  -1.3873475e-01   8.0403569e-01   5.8708846e-02  -8.4312463e-01   2.3290347e-01   8.3067447e-01   3.7300192e-01  -7.9946765e-01  -8.8847494e-01   7.0964452e-01  -8.7897486e-01  -8.2151573e-01  -7.6786927e-01   1.7188741e-01  -9.9177472e-01   1.4700702e-01   5.8586051e-01   4.8929990e-01   8.4344229e-01   2.9908764e-01  -3.8518270e-01  -8.3920354e-01  -4.9633428e-01  -6.1196167e-01  -9.8357083e-01   6.8045200e-01  -1.7785160e-01   7.2399812e-01   1.6463924e-01  -6.4300670e-01   8.4101780e-01   9.2017179e-01  -8.2937417e-01  -7.2980968e-01  -1.7862377e-01   4.4836029e-02   7.3940074e-01  -8.3094371e-01  -2.2234721e-01  -9.3306238e-01   6.0234857e-01   1.7567948e-02   5.0636678e-02   9.9883361e-01  -5.7359804e-01  -1.2379692e-01  -1.3494329e-02  -2.9562919e-01  -3.2624377e-01   5.3978024e-01  -3.3130120e-01  -3.6357805e-01   6.1736344e-01   9.7027192e-01   9.0648939e-02  -9.7977528e-01   1.7412791e-01  -7.6576691e-01  -4.1434755e-01   9.9081064e-01  -3.6898697e-01  -4.6770282e-02  -6.4381255e-01  -8.1054295e-01   8.8351149e-02   4.5570804e-02   5.3145849e-01  -3.1770026e-01  -8.7966127e-01  -1.2469713e-01  -5.2293647e-01  -3.6109255e-01   4.4554727e-01   1.4979066e-01  -6.5096039e-01  -6.4457283e-01   9.2106828e-01  -1.2382055e-01  -3.3781492e-02  -4.4513531e-01   5.1276806e-01  -6.5849088e-01   4.8504765e-01  -7.0949938e-01  -6.6851166e-01  -8.1380096e-01   7.8587827e-01  -8.8082681e-01   9.3687766e-01  -8.1394669e-01   6.5975704e-02   3.0286130e-01   5.1320199e-01   1.7613297e-01  -1.6407026e-01   6.5300372e-02   7.3025866e-01   7.6009820e-01  -2.1866964e-01  -8.9650337e-01  -9.4050286e-01   6.8595069e-01   2.9126826e-01  -5.0029838e-01  -6.7756442e-01  -7.9677309e-03  -2.7750494e-01   9.0229143e-01  -5.2374505e-01  -4.3303104e-01  -3.1820205e-01  -3.8699905e-01  -6.8062893e-01
   7.0233101e-02   3.4204087e-01  -5.5926178e-01   7.2064315e-01   4.1646327e-01   5.7860905e-01  -8.0315840e-01  -6.3733044e-01  -3.4916898e-01  -5.9468255e-01   3.2509819e-01  -6.8132019e-01   8.2913134e-01   4.6239319e-01  -8.8388524e-01   7.4050434e-01   2.5830742e-01   9.5852668e-01   4.3849982e-01   9.6054704e-01   5.2892559e-01  -8.3657782e-01   7.9929970e-01  -4.0823594e-01   6.3745129e-01   6.1148699e-02   1.1328661e-01   3.6873658e-01  -3.1219254e-01   1.3668984e-01  -6.4943899e-01   3.4408948e-01  -1.3143982e-01  -3.0652626e-01   2.0305151e-01   4.2195991e-01  -9.6257614e-01   6.1127250e-01  -8.4795841e-01   9.7542021e-01   5.0051434e-01   6.6231770e-01  -2.2540804e-01  -1.4918115e-01  -7.1037162e-02   3.8206387e-01  -4.7388845e-02  -3.9477365e-01   6.3414164e-01   5.6559573e-01  -7.8869599e-01   4.4465279e-01  -3.2542803e-01   2.5605739e-01   5.4605676e-01  -6.7139987e-01  -1.1894617e-01   1.7153982e-01  -6.8745955e-01   6.8531680e-01   7.7130332e-01   4.8345385e-01   9.4651913e-01  -3.6301497e-01  -8.6693074e-01   5.5014168e-01   1.0026225e-01  -1.2978690e-01   3.6099220e-01   7.6492003e-01   8.5001131e-01  -8.7913592e-01  -4.9868283e-01  -1.6039806e-01  -5.3480926e-01  -9.3212129e-01  -5.7601088e-01  -5.3165553e-01   8.2635954e-01  -2.4940609e-01  -1.0066128e-01   6.7554656e-01   8.6364091e-02  -7.2846046e-01  -6.7535553e-01   5.0598383e-01   1.6530272e-01  -1.3439254e-01  -8.6803251e-01   2.9423993e-01  -4.4836502e-01   6.4513934e-01  -5.3161998e-02  -1.7999432e-01   1.8838590e-01  -6.8126182e-01  -1.5769680e-01   4.5520042e-01   4.8236452e-01  -2.0530868e-01  -2.9944438e-01   6.8535167e-01  -7.2396900e-01  -5.2151056e-01  -4.6808867e-01  -8.5080292e-01  -2.5065176e-01  -5.7280009e-01   5.8984733e-01  -5.3797211e-01  -7.3838917e-01   7.8648355e-01   5.4580281e-01   1.6962004e-01   8.9304452e-01  -8.3724109e-02  -9.4593418e-01   6.7527597e-01  -8.6746966e-01  -6.1901777e-01   8.5963708e-01  -8.1790803e-01  -1.0115752e-01  -9.0123176e-01  -3.4176742e-01   7.5141562e-01  -3.3109331e-01  -9.6590835e-01   9.0598014e-01   8.0370257e-01  -3.8658827e-01  -4.0272554e-01   8.0528606e-01  -7.8139807e-02   4.8218113e-02  -7.0339386e-01   7.0640928e-01   5.4345776e-01   8.3640800e-01   3.1003301e-01   9.5959766e-01  -1.7669808e-01  -4.7818503e-01  -5.0236026e-01   2.5644737e-01  -8.7954511e-01   5.0358172e-01  -9.4687740e-01   8.7673963e-02  -7.1159508e-01   3.6964924e-01  -7.3153265e-01  -9.5158386e-01   6.5704696e-01  -2.3737484e-01  -9.9090584e-01   7.5069244e-01  -3.4062260e-01  -4.9148464e-02   2.0509294e-01   7.5302526e-01  -9.0945698e-04   2.2013759e-01   4.4526057e-01   5.5295026e-01   3.4026328e-01  -3.5765907e-01  -6.4361392e-01   2.9246999e-01  -3.3767543e-01  -9.0339731e-02  -8.9932852e-01  -2.4559706e-01  -5.4336998e-01   9.1566997e-01  -4.5198115e-01   2.2092632e-01   7.1905026e-01   6.2094604e-01   2.9668122e-01   8.4212250e-01   7.0704797e-01  -5.8221617e-01  -1.9959470e-01   6.3708711e-02   6.9204339e-02   7.2422774e-01  -6.9626692e-01   4.1342057e-02   7.7727302e-01  -3.9452179e-01  -4.9261017e-01   4.0585925e-01  -2.2142555e-02   5.5400132e-01   1.7942379e-01   6.0995308e-01   2.1574321e-01  -8.0046904e-01   2.1579811e-02   8.9477423e-01   9.3118111e-01   9.1422427e-01  -1.2233635e-01  -5.2415706e-04   5.2374280e-01   3.3300326e-02  -1.7662754e-01  -7.1485151e-01  -5.9212093e-01   2.5832797e-01  -6.3668817e-01  -2.7625204e-01   3.7599423e-01  -4.1948515e-01   3.0214184e-01  -4.4037458e-01  -7.9148757e-01   1.3993205e-02  -5.8141197e-01   4.5522884e-01  -1.1166206e-01   1.6661251e-01  -5.1552618e-01   3.5042918e-01   4.6269134e-01   6.5549127e-01  -9.2561747e-02  -4.2867298e-01  -6.7831828e-01   5.3145309e-01  -6.9433805e-01   5.2006931e-01   3.7320400e-01   8.1195332e-01  -4.9261742e-01  -9.6590171e-01  -7.9637250e-01   6.6688890e-03   9.9048085e-01  -3.7219867e-01  -3.9162473e-01   8.1173894e-01  -3.9108305e-01   7.0180486e-01  -7.3608877e-01   3.3961465e-01   8.0191350e-01  -3.9558599e-01  -1.4348469e-02  -5.5070449e-01   9.7155067e-01   7.7864546e-01  -2.1963010e-01   3.7796384e-01   3.2929807e-01   8.8671282e-01  -6.5058771e-01  -4.6319496e-01  -3.6454216e-01  -8.5346368e-02  -4.5909505e-01   8.2461464e-01  -9.0336878e-01  -8.6285429e-02   9.0754272e-01  -4.8820760e-01   9.3449798e-01   4.8565281e-01   6.4987930e-01   9.8895408e-01  -8.6863095e-01  -2.1463838e-02  -8.4854466e-01  -4.9141263e-02  -6.4604217e-01   5.9275425e-01   9.9217551e-01  -6.0660604e-01  -2.1603376e-01  -4.9000740e-01   9.7322588e-01   8.5231916e-02  -3.3120619e-02  -1.1621975e-01   8.7018544e-01   8.8183751e-01  -8.5935857e-01   9.8262316e-01   3.5429873e-01   2.7293494e-01  -6.5674938e-01   5.6895512e-01  -5.1311486e-01  -6.7285890e-01   1.9631592e-01  -2.6736835e-01  -1.0945088e-01  -7.5160662e-01   7.1471743e-01   6.9572573e-01   8.1538130e-02   6.1744157e-02  -2.2920167e-01   2.7589763e-01   7.9220484e-01  -3.7992714e-01   8.0128507e-01  -7.8315845e-01   7.1966949e-01   7.0334679e-03  -5.2999368e-01   7.5426366e-01  -6.4521460e-01   3.3335056e-01  -1.3519733e-01  -9.9059633e-01  -6.8809646e-01  -1.6140093e-01   8.8748167e-01  -6.0610332e-01  -9.6379057e-01   5.8073066e-01  -4.6393213e-01  -2.2169213e-01  -4.9827077e-01  -5.3081945e-01   2.4265849e-01  -8.2709919e-01  -6.8109069e-01  -2.2075013e-01  -8.4898569e-01  -5.4253850e-01   1.1663906e-01   8.6580829e-01  -4.9340890e-01   2.2844992e-01   4.2835655e-01  -9.2807005e-01   5.2161586e-02   2.9556448e-01  -9.6939186e-01   1.1878146e-02  -5.2928239e-01  -2.7469705e-01   7.1858970e-01  -1.9301032e-01  -5.4208838e-01   5.0302265e-01  -5.0227211e-01   7.4140168e-01  -5.5632322e-01  -7.5689962e-01  -3.7335083e-01   4.7272264e-01  -5.0207162e-01  -7.8662770e-01  -7.5734740e-01   2.9056725e-01   5.0017362e-02   7.1361704e-01  -9.2193955e-01  -6.8131247e-01   5.7353515e-01  -6.5893330e-02   7.4033433e-01   6.5151695e-01   3.6408762e-01   7.6159446e-01  -9.5756687e-01   8.8966850e-01   3.0167724e-01   6.5831991e-01  -5.8309815e-01  -2.9466091e-01  -7.0825817e-01   3.6836846e-01   9.5974328e-01   9.8156276e-01  -6.9871774e-01  -6.7928331e-01   4.3503456e-01  -6.1771204e-02  -2.3453032e-02   7.5332057e-01  -4.6909935e-02  -1.6350538e-01  -3.4706470e-01  -8.4899341e-01  -1.9922877e-01   1.2389692e-01   7.1530862e-01   3.8233687e-01   5.8564045e-01   9.5263620e-01  -9.3490937e-01  -6.3922316e-01  -4.7591320e-01  -6.6804557e-01  -2.2249828e-01  -3.3509448e-01   7.5823928e-01   2.5614114e-01  -2.5567592e-01   1.6853603e-01  -1.0767089e-01  -5.9906776e-01  -4.4396641e-01   4.9585259e-01   6.3873675e-01  -5.7910905e-01  -2.4129546e-01  -9.9086124e-01   7.6125984e-01   9.2164517e-01  -5.1743351e-01   3.7708912e-01   9.7472529e-01  -5.3714961e-01  -1.6533293e-01  -9.3705188e-01  -9.8926760e-01  -6.2475662e-02   8.1169578e-01   3.6823127e-01  -5.8696099e-01  -6.0201789e-01   8.4083406e-01  -4.6784547e-01  -5.2468625e-01   8.7137721e-01   7.1095195e-01   2.4419413e-02  -8.9174688e-01  -4.1161675e-01   8.6276360e-01  -8.5055617e-01   8.9202663e-01   5.2259314e-01   2.0750325e-02  -1.9986044e-01   6.6709289e-01   4.0412131e-01  -6.7323003e-01  -5.4993664e-01   6.1901945e-01  -7.4848986e-01  -1.7128353e-01   4.6637653e-01  -3.7537775e-01  -1.4425521e-01  -4.0579387e-01  -6.0831854e-01  -7.1131336e-01   8.3343145e-01   3.9810742e-01   5.7000315e-01  -7.5340533e-01  -3.2587810e-01  -3.6579660e-02   8.9130418e-01  -2.5133235e-01   9.1566848e-01   2.3300794e-01   3.8696999e-01   3.6124654e-01   6.4568082e-01   9.4512712e-01  -8.2023718e-01   3.3968326e-01  -6.3285392e-01   1.2542209e-01   8.2809171e-01  -5.9296776e-01  -7.2123916e-02  -8.9978437e-02  -5.9425986e-01   8.0186951e-01   6.9131308e-01  -2.6014377e-01  -4.0110705e-01  -1.5638435e-01   3.6049177e-02   7.1859696e-01   2.9225078e-01  -7.9535987e-01  -9.7767234e-01   7.6130845e-01   7.6292918e-01   4.8341557e-01   8.5711287e-01  -8.0159981e-02  -2.1972289e-01  -8.6841666e-01   7.6676048e-01  -1.9009027e-01   8.5270003e-01   8.0029233e-01  -5.7998321e-01  -4.7878837e-01  -3.1701552e-02  -5.1484515e-02   8.8366611e-01   4.3359319e-01   2.2064488e-01   6.3874570e-01  -7.7272113e-01   1.9888333e-01   9.5685845e-01  -8.2616314e-01   3.6211240e-01  -8.7351009e-01  -6.3409279e-01   7.8325741e-01   1.9529890e-01  -6.3822010e-01   7.2025625e-01  -5.7651263e-01  -4.1840958e-01   9.5236733e-01   5.9202315e-02   8.6870138e-01  -5.1879316e-01  -1.8929441e-01  -3.6227657e-01  -3.8454754e-01  -7.3223963e-01   6.7600649e-01   2.4940604e-01  -1.2469469e-01  -3.4628090e-01  -2.7142860e-01  -6.2133203e-01   6.6116022e-01   8.8882721e-01   6.1331199e-01  -7.7468978e-01  -9.7480287e-01  -3.3426056e-01  -7.3129492e-02   7.3029329e-01   7.1975427e-01  -9.1802903e-01  -4.5941105e-02  -9.3622377e-01   7.3770262e-01   6.3720211e-01  -7.2462154e-01   1.1699926e-02  -5.8290657e-01   1.4155241e-01   2.8551694e-01  -3.0271470e-01   7.2342046e-01   8.5167000e-02   3.7055214e-01  -8.6798709e-01   6.4876769e-02   7.3187924e-01  -2.6386323e-01  -3.3967314e-01  -2.6767948e-01   6.9921908e-01  -2.9508491e-01   1.6685540e-01   3.4959129e-01  -5.5295213e-01  -6.1184529e-01   9.6421614e-01   7.0540563e-01  -4.9399145e-01  -4.9125107e-01   9.2633799e-01   8.4961072e-01   9.1250269e-01   1.4138595e-01   7.5786092e-01   4.1513307e-01  -1.0754985e-01   6.6477383e-01  -6.8776132e-01  -4.5958216e-01  -8.8192150e-01   8.5228999e-01  -8.5104533e-01   5.6354763e-02  -4.4885646e-01   8.7534678e-01  -1.0629789e-01   8.4856605e-01  -9.8025682e-01  -6.0013613e-01  -9.6394423e-01  -9.9895257e-01  -8.3427500e-01  -5.6543887e-01  -8.9162144e-01  -5.5931181e-01  -8.8551912e-01   7.7048076e-01  -5.3037966e-01  -7.3592996e-01  -1.7948136e-02   5.8774131e-01  -2.7950447e-03   4.3954227e-01   1.7541652e-01   7.6818913e-01   6.9870802e-01   9.1342075e-01  -4.3655966e-01  -4.2392269e-01  -2.5990040e-01  -9.6532751e-01  -6.1380610e-01  -9.3986363e-01  -9.3419263e-02  -6.9251291e-01  -6.1692045e-01  -7.4666283e-01  -7.3090469e-01   4.3811588e-01   1.6692058e-01   8.6617230e-01   7.8274546e-01  -9.7135809e-01  -9.9305858e-01  -7.4857610e-01   4.1071427e-01  -9.4859922e-02   7.9216173e-01  -1.6901659e-02   8.7272590e-01  -8.9757318e-01   6.5431806e-01  -6.5425872e-01  -6.9226811e-01  -1.1922814e-01  -8.6813701e-01  -1.7088894e-01  -8.0903871e-01   7.3352782e-01   4.3544485e-01  -6.5608135e-01  -6.4562711e-01  -8.9413952e-01   2.5680611e-02  -1.4792633e-01  -3.4329624e-01   6.3770526e-01   4.8037534e-01   7.8993826e-01   4.3950544e-02   2.6537431e-01  -2.4425563e-02   9.8027602e-01   9.1801130e-01   8.1905464e-01  -5.7697568e-01  -9.8074065e-01   8.2457868e-01  -7.8661377e-02  -7.5195325e-01  -2.0929735e-01  -3.6453191e-01  -9.7509650e-01  -5.2903361e-01  -2.1522820e-01   1.3907173e-01  -3.8591962e-01  -4.2572901e-01  -3.6437957e-01   2.8470896e-01   5.6416732e-01   4.0806320e-01  -9.8441118e-02  -3.5556864e-01   4.1526644e-01  -9.7073351e-01  -6.5628241e-02  -5.5270348e-01  -6.1076059e-01   6.7556456e-01   6.9696409e-01   1.3298768e-01  -2.1956025e-01  -7.6358477e-02  -7.1495848e-01  -3.0119735e-01   9.8423647e-01  -5.3523673e-02  -5.4161372e-01   2.9030096e-01  -4.1162420e-01   4.9147955e-01   3.6659448e-01   9.0368418e-01  -1.2402411e-01  -5.0842503e-01   7.4772615e-01  -2.4131811e-01   4.9516816e-01  -5.3424194e-01  -2.3517463e-01   3.5952916e-01   8.1424940e-02   8.6530038e-01   4.0898678e-01  -8.2659138e-01   7.6720324e-01   8.0977600e-01  -8.6897453e-01  -9.2247436e-01  -7.6947518e-01  -8.8125582e-03  -1.8867801e-01  -6.8283353e-01   7.1539503e-01  -8.7359963e-01  -8.7661411e-01   6.7986804e-01  -7.4698283e-01   9.2737327e-01   2.8278032e-01   2.6755590e-01   4.5227439e-03   7.3302986e-01   7.5253439e-01   6.7283871e-01   7.2603812e-01  -6.6572051e-01   6.6747109e-01  -2.4945640e-01  -4.1117548e-01   4.1651720e-01   4.1385441e-01   7.6763363e-01   4.6504444e-01  -4.6694053e-01   6.4815291e-01   2.7221267e-01  -5.9669487e-01   5.2109046e-01   7.8794174e-01   1.1319072e-01   4.4072666e-01  -8.0606215e-01   4.0284462e-01  -5.2179403e-01  -5.1006590e-01   8.4744142e-01  -2.4144136e-02   5.0570559e-01   3.3423275e-02  -6.6272127e-01  -3.9132289e-01   4.4332652e-01  -1.2074387e-01  -3.8880880e-01  -9.3839459e-01  -3.9261788e-02  -3.4760584e-02   6.0043206e-01  -7.7174861e-01   4.9051298e-01   6.3131943e-01   9.6431672e-01  -1.1142593e-01   8.8101818e-01  -8.9511866e-01   7.0387626e-01  -1.1321936e-01   5.8032611e-01  -5.6292570e-01   4.3378981e-01   1.4460529e-01  -7.9406979e-01  -8.4469235e-01  -3.2115951e-01   5.7522975e-01   1.9963209e-01  -3.2265110e-01   7.9476710e-01  -6.9289827e-02  -2.6854583e-02  -3.2014691e-01   3.7562317e-01   4.9641158e-01  -7.0867092e-01   8.4102111e-01   1.7816205e-01   8.6750772e-01   1.2494703e-01   7.6671767e-01  -8.8095627e-01  -2.1444344e-01   7.1087799e-01  -6.2586985e-01  -1.1956375e-01   6.4820848e-01  -1.3745359e-01  -1.5833100e-01   8.0489255e-01   7.0619073e-01   2.8687965e-01   2.4570600e-01  -8.2200230e-01  -8.0926127e-01  -7.7064415e-01  -7.8958866e-01  -6.8321775e-01  -5.5777972e-01  -5.4024256e-01   5.2291941e-01   8.1660696e-01  -9.6190015e-01  -9.1670795e-01  -8.5322772e-02  -9.3511519e-01  -8.8711758e-01  -2.0126811e-01  -6.7429903e-01  -6.7509493e-01   2.1431615e-01  -7.8011944e-01   5.2513220e-01   7.1540865e-01   9.9957576e-01  -8.5432040e-01  -5.1037779e-01   8.1575374e-01   8.8859551e-01  -3.3695896e-01   3.5642453e-01  -3.2233267e-01  -1.5116893e-01  -8.7787626e-01   6.5346024e-01  -8.4832104e-01   5.2425016e-01   3.9035947e-01   8.4088159e-01  -2.9698099e-01  -5.0885344e-01  -2.3604946e-01  -3.5169675e-01  -6.6213555e-01  -6.3894530e-01  -1.5946497e-01  -9.6015787e-01  -1.7099228e-01  -1.7235833e-01  -5.6503677e-01   7.4941289e-01   8.4065312e-01  -1.0289352e-01  -6.6561965e-01  -7.2515084e-01   9.1897014e-02   7.0862729e-01   6.2694487e-01  -9.1672434e-01   6.7521081e-01  -8.8186837e-01   7.1399074e-01  -1.9798254e-01   3.7950724e-01   8.3376189e-01  -8.2145468e-01  -5.0846953e-01  -1.2617058e-01  -1.2144093e-01  -5.6500493e-01   8.5407909e-01  -4.3272452e-01  -6.0986662e-01   3.5624228e-01  -8.0805156e-01   7.3511781e-01  -8.1777138e-01  -3.7494778e-02   1.6610872e-01  -1.4342206e-01   6.4372836e-01  -8.5761455e-01  -5.1472618e-01  -4.2741545e-01   3.3618903e-01  -7.6486147e-01  -3.7481884e-01  -2.3316172e-01  -2.9858832e-01  -4.8001736e-01   3.8643447e-01  -9.5947844e-01  -4.2008539e-01   5.5687502e-01  -3.3853599e-01   3.4055692e-02   7.3677846e-01  -8.0720782e-01   2.6305579e-01   2.8702154e-01   1.2852273e-01  -6.5059376e-01  -6.7056754e-01   1.1539298e-01  -1.8783852e-01   1.6323133e-01   7.8632612e-01   6.1676057e-01  -3.5035907e-01  -9.4174736e-01   6.5998178e-01   8.1290118e-01   6.6845458e-01  -2.0807250e-01   3.3601445e-02   5.1049155e-01   6.3448779e-01  -3.7031677e-01   1.6372531e-01   1.1876656e-01  -1.6201180e-01  -4.1326410e-01  -5.5207238e-01  -8.2847188e-01   4.5066307e-01   1.5473824e-01  -4.8391355e-03  -4.5115571e-01  -3.7999143e-01  -6.4881792e-01   2.0968893e-01  -5.9567617e-01  -9.7721421e-01  -3.8019116e-01  -7.0208122e-01  -4.1383933e-02   2.4146466e-02  -7.6890566e-01  -8.8514067e-01   1.2612779e-01  -1.6848626e-01   9.5389870e-01  -7.0474304e-01  -2.6692471e-01   7.4470581e-01   5.2663813e-01  -4.5652222e-01  -9.6986553e-01  -2.9365146e-01   1.5977525e-01   5.0705525e-01  -8.4228682e-01   5.6519345e-01   7.3757016e-02   5.0579743e-02  -2.0197270e-01  -8.0353992e-01  -7.5234085e-01  -4.6826343e-01   9.5597052e-01   5.2163992e-01  -6.4400815e-01   3.3334945e-01   8.3042089e-02   1.1993341e-01   9.0668156e-01   2.3033146e-01  -4.2647100e-01   6.3689351e-02   9.0352136e-01  -1.6442886e-01  -7.8116367e-01   8.8437966e-01   3.1927011e-01   2.6141464e-01  -5.4905687e-01  -1.2786419e-01   1.4553690e-01   6.3730491e-01   8.9438578e-02   7.7759204e-01   5.8079796e-01  -3.6090787e-01  -4.3501275e-01  -7.5644511e-01  -4.4353425e-01  -7.9923452e-01  -5.5972335e-01   1.0780797e-01   3.1811287e-01  -3.3916435e-01   1.6112400e-01   1.5577601e-02   4.7243481e-01  -3.1206898e-01   9.2779190e-01  -4.7236523e-01
  -3.9858120e-01   4.9190526e-02   1.4400561e-01   1.8223266e-01  -6.4455968e-01  -5.8458378e-01  -3.5009173e-01  -4.0295110e-01  -5.0900149e-01   4.4920551e-02   6.7346182e-01   6.1529120e-01  -5.6348282e-01   9.1376552e-03   7.8358343e-01  -5.7955139e-01   3.8858570e-01   4.8508728e-02   1.5284605e-02  -1.1474084e-01   3.3560785e-01  -8.1651038e-01   2.5621193e-01  -7.9359495e-01  -8.5463203e-01  -6.0821250e-01   3.4289745e-01  -1.4850158e-01   5.6424772e-01   8.5302666e-01   9.8156812e-01  -6.9099305e-01   9.6799094e-01  -3.0866739e-01  -2.7994304e-01  -7.0158125e-01  -6.5672161e-01   9.9765850e-01   2.4717079e-01   1.7552049e-01   3.4326507e-01  -8.8548692e-01   4.8931262e-01   9.7404445e-01  -6.3800675e-01   5.7063108e-01  -1.3505563e-01   5.8576130e-01   3.6530379e-01  -1.8847832e-02   8.6349035e-01   6.7091149e-01   7.8558093e-01  -3.1275005e-01  -1.6927655e-01   6.7709309e-01   6.4212685e-01  -3.5257921e-01   3.8601531e-01   5.2762450e-01  -6.9280555e-01  -5.8282967e-01  -9.2651797e-01   6.7631678e-01  -8.9187316e-01   2.3854458e-02   9.6826427e-01  -4.6552394e-01   1.8094380e-01  -3.3168891e-01  -1.7691708e-01   7.0113706e-01  -6.9939583e-01  -2.7087482e-01  -9.5831979e-01  -4.1634125e-01   2.6436048e-01  -9.5180156e-01   4.8349853e-01  -7.9356690e-01  -1.5190611e-02  -3.2038145e-02  -9.5893122e-02   4.1854289e-01   2.1238109e-01  -6.6201232e-01   2.6674807e-01   5.5807141e-01   9.1915957e-01  -2.8517216e-01  -5.8106236e-01   6.5450678e-01  -2.3544663e-01  -2.1833129e-01   6.4629795e-01  -9.0518266e-01  -9.7609083e-02  -8.7884046e-01   1.8619569e-01  -5.5150721e-01  -4.2311977e-02   4.0214787e-01   3.0316638e-01   7.4259356e-01   7.2607298e-01  -7.4999647e-01   4.5238087e-01   9.8255609e-01  -7.0101777e-01  -2.7628286e-01   8.7620928e-01   7.6424224e-01   3.7589064e-01  -5.7059491e-01   1.7757041e-02  -2.8170276e-01   8.0297321e-01   9.9183042e-01   6.3111094e-01   7.4784895e-01   3.2345247e-01  -1.6303282e-02  -4.9114081e-01  -3.7538892e-01  -9.4383009e-01   1.0090677e-01  -9.6087792e-01   7.9335402e-01  -1.1673521e-01  -8.4998442e-01   2.1280433e-01  -5.6909984e-01  -5.0547895e-02  -1.6766386e-01  -7.6144658e-01  -9.8172165e-01   2.6636089e-01   3.3126164e-01  -3.9710622e-01   5.0378227e-01  -2.1507215e-01   9.3965815e-01   6.8013802e-01   7.5634360e-01  -6.0006864e-01   7.5029877e-01  -6.3209601e-02   8.0855804e-01  -9.7997442e-01   2.5943759e-01  -4.0260279e-01   6.1005817e-01  -9.4192509e-01   8.4584370e-01   4.2453050e-01   9.4827705e-01  -2.0528314e-01  -4.6107172e-01  -1.7800541e-01   8.1858793e-01  -4.4465978e-01   3.9160984e-01  -1.2215856e-01  -4.9713602e-01  -2.0349302e-02  -3.8515905e-01  -2.9609090e-01   7.0411871e-01   2.2793424e-01  -5.7394920e-01   3.6088000e-01  -9.0319380e-01  -1.9987181e-01  -5.8191430e-01   7.8307624e-01  -4.8675862e-01  -1.0440312e-02  -3.7308116e-01   5.7912287e-01  -6.8073366e-01  -3.9872414e-01  -7.2887116e-01  -8.5190892e-01  -5.2718814e-01   3.1467530e-01  -9.5383536e-01  -6.3025646e-01  -1.1465932e-01   3.3494301e-01  -6.8619510e-01   3.1399089e-01   3.6899826e-03   7.1904832e-04   7.6853521e-01   1.5510100e-01   9.2718884e-01   3.3182244e-01   3.1408090e-01  -4.7097527e-01   7.0332695e-01  -7.4101552e-01   9.7671067e-01  -1.5426386e-01   6.0345936e-01   4.0932840e-01  -3.1085091e-01  -9.1175657e-01  -2.1118256e-01   8.0701150e-01  -5.6628703e-01  -3.7172422e-01  -5.4681154e-01  -3.9407835e-01   3.6620348e-01   5.0407016e-01   6.2796220e-01   9.1034480e-01   1.9455915e-01  -2.5097131e-01   7.8284839e-01   8.8034337e-01  -7.1332359e-01   4.9107334e-01   8.9920124e-01  -8.0724926e-01   5.8966921e-01  -1.3721309e-01  -5.6249389e-01  -4.9730468e-01   1.3455427e-01   7.3115250e-01   2.6380079e-01   6.7436061e-02  -8.1121789e-01  -2.6936654e-01  -5.3604649e-01   6.6919207e-01  -4.0729702e-01   1.6198985e-01   1.1026089e-01  -9.4585420e-02  -8.4331766e-01   8.8316132e-01   9.8820018e-02   7.1851326e-01   6.5612135e-01  -7.1995997e-02   6.8590021e-01   6.7456458e-01  -3.4486441e-01  -9.7082382e-01   3.0009863e-01  -8.9353530e-01   2.2162625e-02  -9.6443027e-01  -9.0406558e-01   3.6696375e-02   9.3848399e-01  -8.6674100e-02  -3.1066110e-01  -8.7956309e-01  -9.1846426e-01   4.4878007e-01   9.3993394e-01   3.0604957e-01  -3.1371287e-01  -6.8335989e-01  -1.5529425e-01   2.8819616e-01   4.7348464e-01   6.4108672e-02   1.3056700e-01  -5.4857867e-01  -3.5964573e-01   8.2133894e-01   1.2773714e-01   6.4362213e-01  -4.5908453e-01   1.7575068e-01   4.2697093e-01   2.9391266e-01  -4.0407531e-01   5.0282405e-01  -2.4144134e-01   1.6461268e-01   4.2146792e-01  -6.9533758e-01   9.9231524e-01   7.7092522e-01  -5.7269298e-01   8.1134898e-01  -4.2732706e-01   4.0636797e-02  -9.0404767e-01   4.6454772e-01   3.0943147e-01  -5.3744499e-01   4.5962652e-01  -3.8237616e-01  -6.1397537e-01  -8.6920805e-01   3.9907176e-01  -1.2173542e-02  -1.4112803e-01   9.8393282e-01  -4.6048277e-01  -7.4651835e-01   6.3200918e-01  -5.2356269e-01   4.1529974e-01  -9.4686514e-01   1.9780249e-01  -5.5642414e-02   3.0185587e-01   8.8858217e-01   6.7150021e-01  -9.9452727e-01   9.4317755e-02  -4.6426932e-02  -1.1197385e-02   2.7410967e-01   4.5910476e-01   4.4348664e-01  -3.2051253e-01  -3.8252063e-01   2.0851805e-01   6.1442348e-01  -4.8901627e-01   6.3958639e-01   3.6088978e-01   9.7659923e-01  -9.8514863e-02   3.5655077e-01  -1.0732895e-01  -3.3016943e-01  -9.3514590e-01   2.2299977e-01  -5.2640939e-01   6.4429725e-02  -9.4140662e-01  -1.9475774e-01   6.4138424e-01   4.4024911e-01  -7.1526842e-01  -9.0535680e-01   4.8205190e-01   4.8578665e-01   4.4564098e-01   6.8000873e-01   5.0915761e-01  -4.5757006e-02   4.6427281e-01   2.6983971e-01   2.2528214e-01   6.2268330e-01   8.2287091e-01  -3.3059792e-01   7.5181943e-01   1.7976500e-01  -1.4939518e-01   9.6284430e-01   7.0495653e-01   1.0439270e-01   3.8362317e-03   9.5532646e-01  -8.8544065e-01   4.6675381e-01  -1.6415057e-01  -7.9482886e-01  -4.4393510e-01   1.4195633e-02  -6.6604286e-01   7.0430027e-01  -8.1039809e-01   7.4265045e-01  -4.2074456e-01   6.1591249e-01   3.9386119e-01   3.0380108e-01   9.3307441e-01  -9.6760747e-01   3.5784257e-01  -6.6325016e-01  -4.2614670e-01   5.3236046e-01  -2.1434826e-01  -7.5563558e-01  -9.3291373e-01   7.0998382e-02  -8.7881069e-01   7.7986287e-01   3.3950293e-01  -9.7841429e-01  -7.4037919e-01   2.2908700e-01   6.3309759e-01  -3.5660594e-01   7.1713661e-01   9.8465982e-01  -5.7544848e-01   9.3015006e-01  -6.0799300e-02   5.1766492e-01   2.2016340e-02  -8.4004299e-01  -4.9963933e-01  -2.5718997e-01  -5.9557854e-01  -2.1524611e-01   2.9402030e-01   8.3496840e-02   2.5985896e-01  -7.3489013e-01   6.8589523e-01   6.2302577e-01   7.5542187e-01  -9.5438229e-02  -1.8850844e-01  -2.1951053e-01  -2.3460601e-01   6.6141815e-01  -3.8993232e-01   2.9553367e-01   1.0814206e-01  -2.1456829e-01   8.8743973e-01  -5.2420751e-01  -6.6563917e-01   6.4476721e-02  -9.5636913e-01  -5.9610852e-01   5.9843044e-01   4.0281042e-01  -7.5074610e-01   8.3364434e-01   9.7094185e-01  -7.8944125e-01   6.5222268e-01   1.3028379e-01   1.9784193e-01   6.3064124e-01  -4.7387827e-01  -9.8824477e-01   8.9767748e-01  -7.4196663e-01   5.6485516e-01   1.6449884e-01  -2.5595760e-01  -8.4911083e-01   3.8939296e-01  -2.8107501e-01  -4.9924654e-01   5.8462242e-01   9.4486656e-02   2.1954394e-01   8.3128398e-01   6.8982768e-01  -3.4472467e-01  -4.4691646e-01   7.1016431e-01  -4.5401929e-01   3.5593102e-01  -9.1264759e-01  -3.8452299e-01   5.6300499e-01  -4.9375427e-01  -9.3074098e-01  -1.9017761e-01  -7.6682021e-01   4.4781046e-01   9.2680282e-01  -5.1575433e-01  -1.9962279e-01   3.5310178e-01   7.1595308e-02   7.8450314e-01  -9.9429458e-02   2.8594497e-01   8.1699104e-01  -1.2938507e-01   9.6577424e-01   7.6820082e-01  -7.5248505e-01   2.2931710e-01   8.2681091e-01   9.5454854e-01  -3.9211611e-01  -1.0994441e-01  -4.6599116e-02  -2.8346857e-02   6.7805391e-01   6.9783708e-01   9.2279941e-01   1.5589066e-01  -3.4989465e-01   4.4900810e-01  -4.9830808e-01  -9.8578550e-01   6.5714389e-01  -6.0995091e-01   4.6823956e-01   1.5426909e-02   7.5128280e-01   5.4792439e-03  -6.5243028e-01   2.5892986e-01  -8.0616039e-01  -3.6319461e-01  -8.9905448e-01  -6.9907727e-01   2.2228151e-01  -3.5497910e-01  -5.2250038e-01  -2.0406434e-01  -9.1163761e-01  -1.6174828e-01  -2.2748745e-01  -4.0356240e-01   1.9916597e-01   8.3533558e-01  -1.5868770e-01  -5.5704814e-01  -9.9045239e-01   5.5099510e-01  -5.9460541e-01   2.7940078e-01   1.9585845e-01  -9.0678926e-01   4.1093685e-01   7.2504368e-02  -5.2278740e-02  -4.3114990e-01   1.4598510e-01  -3.1009653e-01  -6.1293672e-01  -5.6700008e-01  -6.9218455e-02   8.1091186e-01   3.5488307e-01  -4.5783745e-01  -5.4953759e-01  -5.7976884e-01  -4.0615656e-01  -1.9737313e-01   6.1176966e-01  -3.2628283e-01  -9.2634031e-01   6.1695500e-01  -1.6606885e-01  -8.8759952e-01  -7.7395142e-02  -7.4025523e-01  -4.0583803e-02   5.0036180e-01  -5.0062599e-01  -4.6336244e-01  -1.3714782e-01   5.7417471e-01  -2.4471051e-01   5.1083444e-01  -2.1246573e-01  -1.2480962e-02  -4.1523798e-01   1.0010074e-01   9.3012503e-01   4.3080454e-01  -5.1884717e-01   1.5959622e-02   6.5850278e-01  -3.4579895e-01   9.4401103e-01   3.1566003e-01  -1.3443006e-01  -4.7798486e-01  -8.0691032e-01   1.6837740e-01  -4.6875267e-01  -5.9497081e-01  -2.4604532e-01  -6.4195270e-01  -2.8953114e-01  -5.3111531e-01   3.1041502e-01  -6.9858204e-02  -4.1011427e-02   9.3407362e-01  -7.1861001e-01   8.9756834e-01  -5.3793446e-01  -5.9994780e-01   8.6201357e-01  -6.9032371e-01  -7.1182222e-01  -8.5547762e-01  -9.3788782e-01   7.3630940e-01   6.6199981e-01   6.0695910e-01   7.6697711e-01   1.8391045e-01   7.0475509e-01  -4.7231673e-01  -4.5631784e-01   3.7470564e-01  -8.9277610e-01  -8.7155280e-01   7.9780698e-01  -5.3187234e-01  -6.8564783e-01   3.6700386e-01   4.1961273e-01  -4.2211009e-01  -5.1723807e-01   1.9183163e-01  -1.4732425e-01   6.1785828e-01   8.4062135e-01  -3.3336566e-01  -2.9475101e-03  -7.8522484e-01  -1.0362937e-01  -7.2579267e-02  -1.1528970e-01  -6.8481915e-01  -9.7275921e-01  -6.1737934e-01  -5.1524416e-02   2.2706776e-01   9.4587079e-01   4.6561499e-01  -6.6363412e-01   9.3584882e-01   6.3153825e-01  -1.9593561e-01  -6.9848749e-01  -4.1339023e-01  -5.4886886e-01   3.4839709e-02   9.5236304e-01  -7.9320452e-01   3.0717133e-01  -8.7380943e-01  -4.1444047e-01   7.6549496e-01   6.3285217e-01   3.6498353e-01   1.2731307e-01   8.3057536e-01   5.8861300e-01   8.9030336e-01   6.9343704e-01   3.8184914e-01   4.9230071e-01   9.8122424e-01   4.0279952e-01   8.4604155e-01  -4.7936523e-01  -7.1262064e-01  -7.1560042e-02   4.7876440e-02  -4.8412876e-01   9.6673750e-01  -4.2510870e-01  -9.4566758e-01  -9.0147083e-01  -5.8498928e-01   8.8638516e-02  -4.3511198e-02  -3.0157419e-01   8.8436316e-01  -3.6784442e-01  -7.1175820e-01   7.3485226e-01   9.0955177e-01   6.8659007e-02  -6.0391202e-01   5.5024659e-01   8.6861802e-03  -5.7957756e-01  -5.8038824e-03   2.4230532e-01   1.6468115e-02   2.0371042e-01  -9.3947928e-01   4.7648290e-01  -6.2713587e-01  -5.4747415e-01   3.8840922e-01  -7.2342210e-01  -5.5416928e-01   3.9804038e-01   3.2980426e-01   6.7589948e-01   3.8314094e-01  -1.8130704e-01   1.5672668e-01   7.3122356e-01   2.6596992e-01   4.4543319e-01  -9.7890511e-01  -6.2038961e-01  -8.1088225e-01   5.2109476e-01  -6.7574231e-01  -1.5326660e-01  -5.5099740e-01  -1.2318083e-01  -3.5594124e-01   4.0168659e-01   9.9835327e-01   1.5394157e-01  -4.0288783e-02  -8.9174986e-01   2.2449123e-01   7.5698781e-02  -7.4698795e-01   8.0576477e-01  -9.8609567e-01   7.7990631e-01  -3.2196509e-01  -7.9027871e-01   8.9171147e-01   3.0051499e-01  -1.0706452e-01  -9.9898613e-01  -9.6507847e-01   2.2972089e-01  -1.6564410e-01  -7.2564731e-02  -6.7581859e-01   9.3780272e-01  -1.8060777e-01  -3.6650593e-01  -9.9854801e-01   1.0226514e-01   3.9277310e-01   2.4276207e-02   3.9783536e-01   1.6756916e-01  -5.2885359e-01  -7.0914390e-01  -6.3894653e-01  -4.7474005e-01   4.4434537e-01   9.2334577e-01   2.5164136e-01   3.2083875e-01   1.7451773e-01  -1.2646145e-01   4.7015171e-01  -6.7543488e-01   9.1642557e-01  -4.7600174e-01  -1.8777707e-01   1.0764455e-01  -4.5892352e-01   2.6514205e-01   4.0065070e-01   5.9010835e-01  -7.5394336e-02  -2.7713871e-01   9.7284287e-01   3.2708568e-01   6.3165450e-01  -3.1038017e-01  -8.2515608e-01  -8.4438371e-01   8.0007328e-01  -4.5056703e-01   1.1384584e-01   9.1737496e-01   9.3936990e-01  -7.1707415e-01  -2.3112816e-01   7.4933652e-01   9.9463208e-01   8.4586696e-01   1.5484399e-01  -8.7943653e-02   1.5626253e-01  -7.9335793e-01   9.9480242e-01  -7.3718588e-01   8.6331549e-01   4.1433656e-01  -9.8579931e-01   8.7781160e-02  -7.7679228e-01  -3.6521431e-01  -2.0277548e-01  -6.2661086e-01   7.0602039e-02  -5.9228620e-01  -4.8179380e-01  -5.0859632e-01   3.9301281e-01  -9.2783012e-01   4.3184248e-02   1.8051293e-01   5.5672170e-01   3.0351891e-02   8.0877939e-01  -4.8745338e-01   8.1302799e-01   8.4142687e-01   2.9325531e-02   8.7067015e-01   4.0854831e-03  -4.5723652e-02   5.7624379e-03  -1.6450420e-01   2.7687935e-02   9.7848338e-01  -8.3540580e-02  -5.9929013e-01   5.3235865e-01  -1.7710250e-01  -2.9333493e-01   1.9661628e-01  -6.7419029e-01   8.8711048e-01  -8.0719623e-01   5.2570933e-01  -7.2220597e-01   4.3006057e-01  -1.6093949e-01  -3.7641688e-01   3.4769634e-02   1.4885564e-01  -7.4615936e-01  -2.8395505e-01  -3.8410903e-02  -3.2094056e-01  -5.3896719e-01  -3.4579269e-01  -9.6729870e-01   9.8786496e-01   3.1992272e-01  -1.5082624e-01  -4.4336082e-01   5.5547413e-01   5.9655781e-02  -6.1538307e-01  -2.9234256e-01   4.8350319e-01   9.9098178e-01   8.1875276e-01  -2.2163067e-01   4.6287080e-01  -3.6183570e-01   3.6711460e-01  -7.2224286e-01   6.8492490e-01   7.4285565e-01   4.2556724e-01  -9.3879467e-01   5.3903996e-03  -5.6993890e-01  -2.3612792e-01   9.9600215e-01   6.1233051e-01  -7.5452268e-01  -8.9921655e-02   1.2326278e-01  -8.4687729e-02  -6.1727668e-01   8.8096563e-01   1.1466373e-01   5.8843145e-01   9.8358523e-01   1.9833969e-01   9.0234912e-01  -5.5497122e-01   4.1477770e-01  -8.3542714e-01  -2.2645107e-01   8.5820809e-01   1.9202692e-01   9.8874364e-01   7.2968640e-01  -9.0137408e-02   2.4635018e-02  -3.2599875e-01   3.7966518e-01   9.3960180e-01  -4.0250553e-01  -2.4921882e-01   4.5743719e-01  -4.9361055e-01   3.6746447e-01  -6.1991356e-01   3.1188501e-01   2.8750332e-01  -7.7003270e-01   1.3347417e-01  -6.1099797e-01  -6.8888489e-01   6.0955476e-01  -4.9798762e-01   1.6915892e-01   8.7140944e-01  -1.6079309e-01  -6.7131093e-01  -9.7090923e-01   3.1976202e-01   9.5314239e-01   1.7622060e-01   6.1991574e-01   6.4622688e-01   3.9311897e-01  -6.8566664e-01   2.1064635e-01  -9.2108113e-01  -9.4320683e-01  -6.7515973e-01  -5.9488979e-01  -9.1993868e-01   8.5435853e-01   5.5628425e-01   7.8488790e-01  -8.7092713e-01  -8.8722313e-01  -7.1435655e-01  -7.0302026e-01   6.9240489e-01   1.5894880e-01  -9.9046650e-02  -5.2478594e-02   6.8754668e-01  -9.2938674e-02  -3.7263662e-01  -6.4435352e-01  -9.8026599e-01  -5.6538705e-02  -9.1029900e-01   3.3542129e-01   4.7336726e-01   4.0135431e-01   3.1499871e-01   2.8572428e-01   8.9047126e-02   6.0323970e-02   5.4173044e-01   4.5574419e-01  -7.9335375e-01   6.9659968e-01  -7.4845125e-01   2.1981469e-02   3.2312401e-01   2.8172990e-03   5.2523203e-02  -8.9482067e-01  -9.7402940e-01   6.2910521e-01  -5.8745310e-01  -8.2422229e-01   2.4328342e-01  -2.7787703e-01   1.7946844e-01  -3.8398876e-01  -5.6231969e-02   8.3336796e-01  -1.6739540e-01   7.2277561e-01  -9.0414717e-01   1.3151556e-01   5.0910175e-01  -7.8783234e-01   4.7185623e-01  -1.3135565e-01  -2.9423765e-01   5.3379916e-01   9.1642682e-01   5.6218440e-01   5.2076379e-01  -2.5627876e-01  -3.2024969e-01  -2.7437274e-01   7.3489869e-01   3.2398825e-01   3.6671750e-01   4.8998153e-03  -6.9648550e-01   7.0071366e-01   7.1960940e-01  -3.2433861e-01   3.6036280e-01   4.1706326e-01   1.2278541e-01  -6.3205831e-01   3.6226752e-01   6.0088216e-01  -8.2154478e-01   2.3209540e-01  -8.9059917e-02  -9.0185429e-01   6.4932741e-01   5.8331287e-01  -5.6682405e-01  -5.9935685e-01
   6.9765860e-02   4.9722597e-01   5.4110222e-01   5.4956426e-01   2.2256725e-01   7.9203987e-01  -8.9586681e-01   1.8013472e-01  -2.9404835e-01   3.1972945e-01  -2.3994705e-01  -1.3453749e-01  -8.1931276e-02  -8.9161310e-02  -1.1637812e-01   6.2333258e-01  -5.8187242e-02  -2.0562544e-01   5.7990069e-01   9.3910986e-01  -4.2092612e-01   9.0365585e-01  -1.3891610e-01  -6.6318849e-01  -8.9815845e-01  -8.5880894e-01   1.0767762e-01   5.1829573e-01   7.5323108e-01   3.7654520e-01   6.5089970e-01  -2.2471169e-01  -1.6498494e-01  -1.6035239e-01   7.3876975e-01   9.7338075e-01  -8.3619771e-01   9.6742047e-01   1.0765847e-01   7.7858677e-02  -7.0250007e-01   7.1960205e-01   6.0268563e-01  -2.7051247e-01  -2.3058716e-01  -5.7717325e-01   5.5087920e-03  -3.5253718e-01  -9.4667458e-01   4.7631736e-01   7.7843468e-01  -1.0983560e-01   2.3842813e-01   8.0753749e-01  -4.5758657e-01  -7.5857719e-01   9.3287362e-01  -2.6747542e-01   6.2663607e-01  -1.8260969e-01   4.9036754e-01   3.2326849e-01  -3.8004779e-01   2.6765996e-01  -3.1345193e-01  -7.5674112e-01  -6.1562665e-01  -5.5543968e-01  -7.7501647e-01  -8.1676458e-01   5.6659726e-01  -9.4386805e-01  -6.5216268e-01   9.7727459e-01   1.5710883e-02   5.9088942e-01   6.4104497e-01  -3.3382994e-02  -1.9125892e-01  -5.0259755e-01   8.2408060e-01   7.2101049e-01   8.7538416e-01   6.7870359e-01  -5.0646244e-01   4.3352337e-01   9.2746741e-01   6.2320594e-01   4.3182480e-01  -8.5565336e-01  -1.4284617e-01   6.2244856e-01   4.7710483e-01   4.5134578e-01  -9.1637132e-01   1.2056772e-01   2.9510342e-01  -9.7906643e-01  -2.1468488e-01   6.7947562e-01   1.6918240e-01  -3.2632315e-01  -6.3319152e-01  -9.8382099e-01   1.8495103e-01  -7.4171541e-01   4.9903302e-01  -4.3282611e-01  -7.2073999e-01  -4.6319260e-01   8.4600024e-01  -6.5511254e-01  -5.9621143e-01   6.5035749e-01  -1.7117345e-02  -9.1942274e-01   3.3579127e-01   8.1348857e-01   1.9641170e-01  -9.2863875e-01  -2.6297529e-02   2.2440382e-01  -2.3556735e-01  -4.2259740e-01  -3.0793234e-01  -3.8134340e-01   7.1098544e-01  -4.4722017e-01   1.2182285e-01  -7.7419123e-01   2.3594936e-01  -8.8247368e-01  -3.8509421e-01   5.5765271e-01   6.5984908e-01  -5.8586251e-02   2.0125525e-02  -1.4404315e-01  -8.3175347e-01   5.8113199e-01   1.2161362e-02   3.0046483e-01  -1.4343116e-01  -2.1546493e-01   5.0723143e-01  -2.7967255e-01   2.0232156e-01  -9.5134163e-01   8.6486742e-01  -5.8651351e-01   9.6182202e-03  -8.1623433e-01   8.8941654e-01  -2.0080278e-01  -9.4208518e-01   1.4315195e-02  -1.1699557e-01   6.9569423e-01   8.5739703e-01  -9.6452850e-01   5.4714828e-02  -5.9181373e-02  -9.8130899e-01  -7.9407229e-01   5.8370978e-01  -5.8251191e-01   1.8593478e-01   9.1003549e-01   6.6867056e-02   4.4345635e-01  -4.5405665e-01   4.1242052e-02  -8.8941230e-01   1.2809351e-01   5.3011307e-01  -1.2393066e-01   7.0034740e-02  -9.7426842e-01  -3.6801044e-01  -8.1513574e-01   2.8920341e-01  -6.8635886e-01   9.0695179e-04   1.1542927e-01   5.9097030e-01   9.8335288e-01   7.5864364e-01  -1.2717786e-02   6.9545560e-01   5.5695533e-01  -8.1437929e-01  -8.0888866e-01   5.7047667e-01  -3.9368352e-01  -4.1897521e-03  -1.0961306e-01   7.8663920e-01   5.9484862e-01   8.9493355e-01  -8.1108563e-01  -4.5759046e-01  -3.9375458e-02  -6.3836353e-01  -8.1196619e-04  -4.7624063e-01   3.4403260e-01   1.0944494e-01   1.4523373e-01  -8.8552990e-01  -5.2541380e-01  -2.6413044e-02  -9.4389338e-01  -5.0606422e-01  -1.4644473e-01  -2.8109364e-01  -1.5022559e-01   2.2846185e-01  -7.1247071e-01  -2.4706314e-01   4.8431276e-01  -8.2324803e-01   9.6928478e-01   2.5718459e-01  -8.1173305e-01   1.9820208e-01   6.2454749e-01  -7.8845963e-01  -1.9391182e-01   7.8827858e-01   7.9024705e-02   3.1190255e-01  -4.6010179e-02   4.1611970e-01  -7.2894441e-01  -7.3354543e-01   4.9162937e-01   1.4402254e-01  -3.2172224e-01   2.4724357e-01  -2.8980046e-01  -9.1082838e-01  -5.2745082e-01   2.2467636e-01   3.6055150e-01  -6.1542715e-01  -4.0654699e-01   4.2677987e-02   2.8763281e-01   7.1925861e-01  -7.8872354e-03  -2.4629472e-01   4.0028825e-01   1.0014960e-01   8.3987636e-01   7.5489197e-01  -3.7746963e-01   7.1802869e-02  -9.1769456e-01   2.8484181e-01  -6.2913945e-02  -8.1513724e-01   8.0639941e-01   6.1825350e-01  -9.8011507e-01  -5.2407620e-01   5.7733420e-01  -3.4180046e-01   6.0813360e-01  -6.7112407e-01  -8.7139864e-01   1.6984537e-01   8.1877909e-02  -6.0340024e-02   3.3493987e-01   9.9787386e-01  -5.4935950e-02   6.7206877e-01  -2.2552317e-01  -5.0037333e-01  -8.3385722e-01   5.0867768e-01  -4.4236123e-01  -3.0563690e-01  -6.0007142e-01   7.1555856e-01   1.3892696e-01   5.6114725e-01  -8.4113249e-01  -3.6793212e-01   1.1833311e-01   8.3147848e-03  -1.6410348e-01   4.8001228e-01   3.2340039e-01  -1.5591662e-01  -9.7317691e-02  -3.4485261e-01   5.9856678e-02   2.8979547e-01   5.8799065e-01   3.2743900e-01  -8.4605139e-01  -8.5739995e-01  -1.7675652e-01   8.4685463e-01  -1.7273995e-01   5.9519166e-01  -9.5847947e-01   1.3047479e-01  -3.1079709e-01  -7.6918289e-01   6.9547886e-01  -9.4756970e-01  -8.4373930e-01   2.2371138e-01  -3.0886226e-01   7.7446830e-01  -8.9895528e-01  -8.9142051e-01  -4.3688524e-01   8.5016091e-01   7.1774980e-01  -4.3423316e-01  -6.0854453e-01   7.6142005e-01   2.0844293e-01  -2.0206701e-01  -9.9859604e-01  -7.4761572e-01   2.0504643e-01   1.8625734e-01   2.1181273e-01   1.1758257e-01  -9.3280738e-02  -5.4712956e-01  -6.9612587e-01  -9.4798631e-01  -9.0371354e-01   9.2040414e-01   6.3641860e-01   1.4271069e-01  -5.4268659e-01   9.6838895e-01   1.3276514e-01  -5.8998233e-01   1.3818331e-01   6.4658706e-01   3.2515626e-01   1.8601612e-02   4.4021206e-01  -7.0516987e-01   1.8152396e-01  -6.9295163e-01  -9.7127615e-01   8.1542521e-01   1.1404371e-01  -5.5337800e-01   9.5172166e-02   3.7037197e-01  -9.4230190e-02  -5.2774389e-01  -1.1359474e-01  -6.4082122e-01  -1.7111337e-01  -8.2207227e-01  -2.0149433e-01  -1.0972155e-01  -8.6897787e-01   8.4501176e-01   1.8556817e-01   8.5833563e-01  -7.0895843e-01  -9.7292386e-03  -9.8854030e-01   5.9097148e-01  -6.2468914e-01  -7.3058062e-01   9.9791752e-01   8.1090381e-01  -5.0347706e-01  -4.5618962e-01  -7.9297380e-02   5.9451912e-01   1.3072529e-01  -2.2799964e-01  -1.6457925e-01  -5.5226228e-01   3.6295092e-02  -1.6707382e-01  -8.4582532e-01   2.3526382e-01   4.7500779e-01  -6.7315759e-03  -5.6259191e-01   5.5544888e-01  -1.7015196e-01   4.2923504e-01  -6.0603623e-01   4.6008521e-01  -5.5611556e-01  -4.4709245e-01   1.7516495e-01  -8.3973877e-01  -4.4769106e-01   2.9684636e-01   6.7956170e-01  -5.7724017e-01   9.6673588e-01   1.0937926e-01   5.1264102e-01   7.6937155e-01  -7.4756507e-01   5.9900718e-01  -7.6937050e-01  -2.0050145e-01  -3.8180334e-01   7.7222132e-01   5.4704081e-01   4.8269358e-01   9.0963816e-01  -4.0494038e-01   4.8442135e-01  -3.3261564e-01   3.6182531e-01  -4.3029906e-01  -5.6906276e-01   5.2467769e-01   5.8527926e-01   5.2379444e-01  -2.8007147e-01   3.7297367e-01   7.7954408e-01   9.2227060e-01  -3.9711411e-01  -6.4007194e-01  -4.1972174e-01   6.5331326e-01  -3.9276664e-01  -4.6428618e-01  -5.2713980e-01  -2.9316722e-01  -5.7083049e-01  -5.5942299e-01  -8.7701371e-01   2.6292534e-02  -2.9280714e-01   4.4353565e-01   8.7693048e-01   6.4599505e-01   8.3948818e-01   4.4943229e-02   5.1040457e-01  -3.2713497e-02  -7.8302144e-01  -2.3742070e-01   3.0140137e-01   2.8746852e-01  -2.8385777e-01  -7.8395630e-01   4.8401264e-01  -6.6287413e-01   4.0332970e-03  -4.8953881e-01  -5.8161180e-01   1.8887172e-01  -2.6131045e-01  -7.0809649e-01  -8.7088783e-01   6.0837072e-01  -6.2970226e-01   7.6360110e-01   5.0831416e-01   2.7269547e-01   4.1909076e-01  -6.8114781e-01  -7.6810690e-01   9.0798503e-01   7.2498835e-01   8.7245363e-01  -3.1228050e-01  -3.7231194e-01   4.2094349e-01   9.5265519e-01   4.0875023e-01  -7.5675833e-01  -6.9699086e-02   9.4609394e-01   4.7549903e-01   2.0619077e-01   8.4246435e-01   8.6125797e-01   2.4928616e-01   3.2704120e-01   3.2400766e-01   5.7595830e-02  -8.0927486e-01   4.8794227e-01   8.3351619e-01  -1.6846437e-01   5.1341573e-01   4.1706459e-02  -4.2026042e-01   9.5848897e-01   2.6394078e-01  -3.6354230e-01  -1.5033382e-01   1.8914853e-01  -3.8491628e-01  -8.9700660e-01  -5.6300594e-01  -1.7401371e-01  -8.5858668e-01   3.4285329e-01  -1.7882644e-01  -7.6013278e-01   7.8322337e-01  -7.8335150e-01   7.4717172e-01  -4.8907262e-02   5.4778718e-01  -1.8083984e-01   5.5184397e-01   3.9664719e-01   4.1093541e-01  -9.4939427e-01  -6.3808491e-01   7.0311936e-01  -3.7389238e-01  -3.5358772e-01   6.1052547e-01  -7.5572241e-01  -2.4473216e-02  -8.1813869e-02  -2.0533590e-01   2.1878032e-01   1.2485067e-01  -2.1997005e-01   4.2670314e-02  -1.2307217e-01   7.2217114e-01  -5.8720871e-01  -7.4672908e-01  -5.9211999e-01  -4.4991573e-01  -2.1380174e-01  -5.9220779e-01   5.9845685e-01   9.4617294e-01   6.9788750e-01   5.2601599e-01  -8.1399462e-01   3.2468880e-01  -4.5627149e-01  -5.6753849e-01  -8.3989988e-01   7.5322797e-01  -7.4246022e-02  -2.0116781e-01  -4.3497447e-01   9.5057433e-01   3.5739769e-01   8.6674914e-01   6.2941110e-02  -8.0022297e-01   4.2427505e-01   5.5315636e-01  -4.8918738e-01   7.0096594e-01   8.4679437e-01   9.7853699e-01  -1.4127917e-02   1.5272606e-01   7.9547366e-01   4.8001311e-01  -6.2811002e-01   6.9929165e-01  -8.5002480e-01  -5.6375803e-03   9.5810136e-01   4.7959271e-01   1.5995570e-01   6.1747721e-01  -6.1274520e-01  -7.8635642e-02  -7.0629973e-01  -4.5035121e-01  -7.9022482e-01   5.7317988e-01   2.8945806e-01  -3.4342612e-01   1.0079245e-01  -5.2945504e-01   8.4315575e-01   5.5314481e-01   8.4830950e-01   3.8174863e-01  -8.3421921e-01  -9.2990998e-01  -9.3954190e-01   4.2041562e-01   3.2663463e-01  -2.7362221e-01  -6.4749285e-01  -9.1043999e-01  -1.0537628e-01  -8.2328298e-02  -9.3585220e-01   9.6030947e-03   9.5717912e-01  -3.5018318e-02   2.7417197e-01   6.3680639e-01   6.7572470e-01  -3.0937708e-01  -2.7692733e-03  -8.1469502e-01   3.3386813e-01  -2.5969066e-01   8.0643265e-01   4.9118163e-01   9.8202945e-01  -3.8739452e-02   9.9384491e-01   3.8948599e-01  -1.6750764e-01  -2.0762634e-01  -2.1586640e-02  -5.2018458e-01   4.2352418e-01  -7.5025715e-01  -5.6226663e-01   6.6157695e-01  -3.0255017e-01   3.0126817e-01  -9.5722908e-01  -4.3473229e-01   7.5167285e-01   2.6467114e-01  -2.4029274e-01  -4.7508536e-01   3.8285866e-02  -6.5413765e-01   3.6562444e-02  -4.9250148e-01   2.7066735e-01  -3.3391292e-01  -5.5002095e-01   9.2549516e-01  -8.7469659e-01   7.2298951e-01  -4.5367604e-01  -9.6490152e-01   4.6671762e-01  -2.4099886e-01  -2.4972793e-01  -9.0616890e-01  -5.3471368e-01   2.0123920e-01  -4.6296125e-01  -2.0783870e-01  -6.1456480e-01  -1.0339416e-01   1.5587914e-01   5.1670464e-01  -2.3696578e-01  -8.2018673e-01   4.4505310e-01  -7.3510098e-01  -1.6571205e-01   7.7022297e-01   8.1736588e-01   1.2003259e-01  -2.2155699e-01   8.1286841e-01   5.0789158e-01  -3.3561837e-01  -4.9327227e-01  -7.9455455e-01   3.8916710e-01  -6.8804161e-01  -3.6412659e-01   6.0877360e-01   5.6817318e-01   5.4800872e-01  -8.6625604e-01   9.3259966e-01  -5.1811469e-01   7.1788891e-01   2.1711247e-01  -2.3613039e-01  -7.4877138e-02   5.1497192e-01   7.1119115e-01   9.4308646e-01  -5.8970058e-02   3.8311197e-01  -8.4186386e-01  -1.4526106e-01  -8.2615118e-01   4.3528185e-01  -9.7066240e-01  -1.4546163e-01   9.9062312e-02  -5.5361124e-01  -5.0453227e-01  -5.5116915e-01   2.8781204e-01   1.5289792e-01  -4.0754198e-01   7.5686267e-02  -1.6268683e-01   1.5847961e-01   7.9729829e-01   1.1624730e-01  -4.5916410e-01   5.7382144e-01  -3.5002379e-01   2.4481452e-01  -2.4026245e-01   3.0289348e-02  -6.0958872e-01   3.1388518e-01   8.0606582e-01  -7.1796779e-01  -7.2441097e-02   1.4155888e-01   6.1796783e-01  -7.1967509e-01  -2.4556580e-01   8.6137809e-01   4.9500064e-01  -9.1799085e-01   6.4274101e-01   7.6368198e-01  -6.1501898e-01  -4.0889238e-01  -6.3284167e-01   3.9510753e-01  -2.4767966e-01  -7.6060903e-01   6.6524571e-01  -5.5467269e-01   3.3295615e-01   7.4088445e-01   8.9026369e-01  -5.5444150e-02   3.4829450e-01   1.3005387e-01  -3.2410583e-02  -5.9917857e-01   7.6198229e-01   9.5653252e-01  -7.3926387e-01   9.9432038e-01   3.0675901e-01   3.6201648e-01  -7.5933351e-01   2.7591600e-01  -1.7459942e-01  -4.1447368e-01   3.9059224e-01  -3.8376781e-01  -4.5823655e-01   9.0487021e-01   9.1003854e-03  -5.8226968e-01  -8.7432770e-01  -3.6125930e-01  -9.5770040e-01   2.6958625e-01   5.2354064e-01   5.3912436e-01   1.3598397e-01  -9.6470866e-02   5.5363434e-01  -2.2963176e-01   6.3657794e-02   4.4412911e-01   7.3649280e-01  -2.9880742e-01  -4.2120242e-01   8.4081253e-01  -4.9466048e-01   6.5599129e-01   8.3075957e-01   3.7290027e-01   2.6873749e-01  -4.0504409e-01  -5.5534059e-01  -6.1370572e-01   6.3299016e-01   1.0303935e-01   9.1669427e-01  -1.4870537e-01   7.5266185e-01  -9.5528427e-01   1.4217630e-02   8.9251317e-01  -5.0066281e-02   4.9820678e-01  -6.0423192e-02  -2.5359357e-01   7.2654942e-01   4.2297627e-01  -3.2281856e-01   2.1150513e-01  -1.7812911e-02   6.0993786e-01  -7.6110632e-01   6.3667375e-01  -9.8364006e-01  -9.5672815e-01  -6.1256421e-01  -8.8795085e-01   3.7382321e-01   2.9559905e-01   9.1410514e-01   3.9314369e-01   8.0159842e-01  -6.5842485e-03   5.8201749e-01  -1.0260908e-01   9.6996685e-02   5.0431185e-01  -4.9767338e-01  -4.0997505e-01   1.3817694e-02  -9.1792681e-02  -8.8527143e-01   8.7372511e-02  -5.8852535e-01  -5.6379678e-01   9.7738982e-01   6.6661865e-01   5.5929662e-01   3.3453918e-01   8.4030347e-01  -6.9198234e-01   8.1149970e-01  -7.5203277e-01   4.1645085e-01   8.6740078e-01  -1.4868944e-01   4.4013848e-01   9.4957773e-01  -9.1065942e-01  -5.4240325e-01  -8.1758392e-01  -8.3718537e-01   5.9198047e-01  -5.8176988e-01  -3.8096129e-01   2.5927717e-01  -9.3545254e-01   3.6968485e-01   4.3547364e-01  -1.7666370e-01   8.6551690e-01  -6.4700298e-01   8.0056906e-01   5.2899359e-01  -9.9820354e-01  -5.0778285e-01  -8.8584381e-01  -4.8794547e-01   5.4805239e-01  -7.2301748e-01  -4.3802774e-01   4.2314783e-01   3.6760994e-01  -1.4653309e-01  -1.4780862e-01   7.3363168e-01  -3.8456515e-01   6.9423243e-01   3.4111773e-01  -5.6617366e-01   3.1748555e-04   5.3181698e-01   2.3032979e-01  -4.9318475e-01  -1.3846735e-01  -9.4073641e-01   5.5543478e-01   7.1424843e-01   7.6736150e-01  -6.6933559e-01   1.9451799e-02   4.1564038e-01  -8.1446319e-01  -2.7225666e-01  -8.1341927e-01   6.0972396e-02   7.4030013e-01  -1.4853738e-01   8.4794822e-01   4.4089548e-01  -3.5632199e-01  -8.1485494e-01  -9.7138956e-01  -2.8045245e-02  -3.9147625e-01  -2.1315459e-01   9.6513487e-01   9.4757948e-01  -2.3872830e-01  -6.2113135e-01   1.4680646e-01   5.6032865e-02   2.1245745e-01  -2.8814388e-01   5.0401141e-01   2.2599062e-01   2.9877197e-01  -9.1662132e-01   2.6695945e-01   8.7184521e-01   8.1203070e-01   8.3404995e-01   9.2419279e-01  -8.4997442e-01   3.7824395e-01  -3.0598993e-01  -3.4680279e-01   5.0992197e-01  -8.0454558e-01   1.6395331e-01  -5.2036954e-01  -3.5130919e-01  -9.2924814e-01  -1.9258553e-01   6.6248476e-01  -9.4775227e-01   2.7236015e-01   3.7926661e-01  -2.3631552e-01  -5.4189726e-01   2.4183756e-01  -7.8203727e-01  -3.4095534e-01   4.7442543e-01  -2.6634760e-02  -2.0725090e-01  -7.1074577e-01   2.0988678e-01  -3.4930744e-01  -8.1232882e-01   1.5522202e-01  -2.3184759e-01   7.3518299e-01  -8.8758623e-01  -6.9330642e-01   4.5143413e-01   6.9503805e-01  -3.4409753e-01   6.8190831e-01  -3.0161814e-02  -8.8857708e-01   5.5102556e-01   4.2501541e-01  -4.1645529e-01   1.3817081e-01   4.3255849e-01   9.2879468e-01   5.3357624e-02   6.1194873e-01   9.9882952e-01   6.3071938e-01  -7.1000066e-01   2.9168945e-01   7.9223720e-01  -1.3479382e-01  -4.5343063e-01   9.5117237e-01   4.1048858e-01   6.1085388e-01   4.6068979e-01  -4.2736977e-02  -5.0837363e-01  -9.8017191e-01   9.7070740e-02  -7.8144807e-01  -5.6948735e-01  -7.2086416e-01   3.2928035e-01  -5.4805713e-01   3.6089657e-01   4.7704873e-01  -2.4842722e-01  -1.4313099e-01  -1.6314396e-01  -3.7531693e-01   3.1786297e-02   8.0195829e-01   8.3022930e-01  -7.0507824e-01   3.0475996e-01   5.7453944e-01  -1.6566219e-01  -6.8239939e-01
   8.8380108e-01   1.7346004e-01   8.7261798e-01  -7.2709802e-01   3.0328475e-01   5.0211165e-01  -1.2442532e-01  -1.9313316e-01  -4.1146149e-01  -5.2089570e-01  -8.6961461e-01   2.4707592e-01  -9.2717633e-01   8.7258830e-01   4.1780472e-01   1.7326303e-01   7.4735649e-01  -5.3360339e-01   1.2325972e-01  -3.8860951e-01  -3.5233758e-01  -8.4282858e-02   3.6911244e-03  -5.9910079e-01   5.1717552e-01   4.1415474e-02   3.8211303e-01   4.6524165e-01   1.1428924e-01   5.5141950e-01   4.1960051e-01   1.6962653e-01   9.6810164e-01   5.3221509e-01  -5.9042115e-01  -9.5682840e-01  -8.0271520e-01   9.8078786e-01   5.0199837e-01   1.2475611e-01   7.3693232e-01   5.9053572e-01   9.3101317e-01   6.8819971e-01  -4.4878325e-01   2.7828100e-01  -2.3889689e-01   7.1741961e-01   6.3902481e-02  -3.8652091e-01   1.0012643e-01   6.7292820e-01  -2.2719381e-01   6.9523854e-01  -9.4765960e-01   3.9987488e-01   3.9889903e-01  -8.2763103e-01  -5.5780824e-01   9.4729415e-01  -8.5973432e-01   8.7932402e-01   2.6223976e-01  -4.6162418e-01   5.9346670e-01  -2.9974505e-01  -7.1870409e-01  -6.2607695e-01  -8.4935599e-01   7.0156646e-01  -9.6382078e-01  -3.9144915e-01   2.1982794e-01   7.0769710e-01   6.2798817e-01   8.3781055e-01   2.0415528e-01   1.7974812e-01  -3.8951247e-01  -7.4819038e-03   6.3071460e-01  -1.7223724e-01  -4.2155292e-01   5.1115611e-01   4.8576826e-01  -2.7569871e-01  -5.3796067e-02   8.2905993e-02  -4.3939019e-01   1.2687947e-01  -1.2753273e-01   7.9456375e-01   5.6250238e-01   3.3812634e-01   4.2317961e-01  -5.1620873e-02  -7.4904187e-01   3.1274689e-01   2.3902119e-01   4.1656788e-01  -6.7935109e-01  -9.5097181e-01  -8.7553122e-01   3.6681217e-02   5.9813588e-02   5.9031386e-01  -8.3341947e-01  -7.0901940e-01  -8.9252621e-01  -4.6329417e-01  -8.2774770e-01  -9.5224561e-01   9.0754846e-01   9.2668900e-01  -7.9357860e-01   7.1032419e-01   9.4941603e-01   1.7635287e-01   9.1794069e-01   3.7490756e-01  -4.4435639e-01  -1.4739210e-01  -9.5083703e-01   5.3491760e-02  -8.3580905e-01   7.1918549e-01  -3.7235631e-01  -3.5690887e-01  -8.7457821e-02   7.0424923e-01   6.9590094e-01   5.1196175e-02  -9.9501150e-01   8.0075714e-01   6.1484469e-02   8.0228165e-01   3.2027561e-01   1.6028824e-01   7.4392802e-01   7.6973056e-01  -6.0546404e-01   8.2562197e-01  -4.7128371e-01   5.0076178e-01   9.0226424e-02  -6.2212175e-01  -2.7896942e-01  -8.7308354e-01  -1.1771218e-01   6.3449809e-01   6.1294721e-02  -5.7109505e-01  -6.7010418e-01  -5.2289301e-01   5.7484562e-01  -5.3236105e-01  -9.8788180e-02   7.0781977e-01  -7.0420938e-01   5.8077650e-01   1.2152532e-01  -8.8110212e-01   5.5120221e-01   4.7753535e-01  -3.7660322e-01  -2.7574088e-01  -3.6461001e-01  -3.8146825e-01   3.3803423e-01  -3.6944852e-01   8.8629455e-01   4.5170149e-01  -4.8172913e-01   4.4525344e-01   3.4482021e-02  -6.6880268e-01   9.7335363e-01   3.5649837e-01   5.7469406e-01   1.8366470e-01  -5.9168140e-01   3.7890154e-01  -1.5148469e-01  -8.3650368e-01  -8.0862781e-01   7.7754579e-01  -4.9563084e-01  -9.6566649e-01  -7.2219446e-02   2.2725425e-01   2.3557154e-01  -7.4019507e-01   8.1662778e-01  -1.1121213e-01  -2.3642126e-01  -4.2383653e-01  -6.2102079e-01   8.3842044e-02  -3.0274308e-01   2.9449538e-01   5.7060245e-01  -5.8470302e-01  -9.0556574e-01   7.2034007e-01  -5.2565537e-01   7.0949828e-01  -2.5038330e-01   8.3048808e-01   5.8392435e-01   1.3494211e-01   8.6986390e-01  -5.7786647e-01  -3.7323053e-01  -5.7432308e-01  -7.4441773e-01  -9.2683050e-01   2.7741657e-01   9.5047986e-01  -3.3717596e-01   3.8818996e-01  -9.3350149e-01  -5.6616099e-01  -7.0015183e-01   9.0461050e-01   3.2430480e-01   3.6940953e-01  -6.3301900e-01  -5.7683554e-01   2.2023865e-01  -8.4892136e-01   9.5975436e-01   8.4522485e-01   4.0442232e-01   5.3074831e-01   5.2155982e-01   4.6761866e-01   9.0413922e-01  -5.1932325e-01  -1.9709026e-01   6.2627322e-01  -3.5999890e-01  -1.3484331e-01   6.4825388e-02   1.3631165e-01   9.1937267e-01   2.2562671e-01   8.5360026e-01   4.3313275e-01   8.7057412e-01  -1.2206485e-01  -6.6183885e-01  -1.5840415e-01  -4.5134012e-01   6.3444926e-02  -9.0439391e-01  -6.7277906e-01  -1.8635541e-01  -4.2953103e-01  -8.5433668e-01  -1.8258568e-01  -4.2224147e-01   3.5853094e-01  -6.3330779e-02   1.7461300e-01   4.2915659e-01   9.4303372e-01  -8.9434848e-01   7.8880327e-01   9.3912273e-01   4.7622575e-01  -3.5981776e-03   2.1725973e-01  -2.7204112e-01   4.4228045e-01   3.7934217e-01   9.8446147e-01   2.5816920e-01  -4.1596589e-01  -7.3946236e-01  -2.1965845e-01  -6.2834046e-01   3.2670697e-01   7.1827069e-01  -2.8686059e-01  -6.5789767e-02   5.2477234e-01  -3.9198615e-01  -4.8678757e-01  -8.0602045e-01  -8.2779899e-01   7.2193281e-01   2.0764238e-01   9.5791625e-01  -7.1993574e-01  -1.8572281e-01   1.9680874e-01   7.0325510e-01   1.5834203e-02   6.5067911e-01  -2.9161658e-01   5.6802623e-01   4.4577008e-01   1.6236164e-01   7.7590856e-01  -9.7154795e-01  -6.7733188e-01   1.7323716e-01   6.3823634e-01  -3.7803555e-01  -3.6213431e-01   5.3077157e-01  -7.9379825e-01   4.0839220e-01  -8.8008979e-01   2.2152029e-01  -7.9699591e-01   8.4243467e-01   3.1950536e-01   9.3846225e-01   9.0839454e-01   3.9338594e-01  -3.5197957e-02  -8.5197903e-02  -5.8975834e-02   6.9703415e-01  -2.6053882e-01  -2.7311807e-01   7.8601296e-01  -8.2774646e-01  -2.7343033e-01  -9.1889569e-02   9.6171154e-01   4.9711754e-01  -2.1961340e-01  -2.1956375e-01  -3.4184008e-01  -9.9294327e-01   8.6801486e-02   7.3524890e-01   6.5913099e-01  -3.5460456e-01   5.6369921e-01  -3.7754695e-01  -5.3571160e-01  -1.2826069e-01  -9.0682029e-02   3.6410448e-01   4.1035838e-01  -4.2962634e-01  -4.1843246e-01  -3.0706132e-01  -9.5528381e-01  -7.3068228e-01  -6.5964312e-01   2.4137277e-01   6.7044522e-01   3.4664843e-02  -6.3848185e-01  -5.1901030e-01  -9.5400106e-01  -1.5862008e-01  -5.6179665e-01   5.6557661e-01   8.9508290e-01   7.3819990e-01   9.9177304e-01   1.9653924e-01   8.0880959e-01  -6.3443820e-01  -5.5098494e-01   2.0122592e-01  -7.0446752e-01   4.1274609e-01   1.4475234e-01   9.8487620e-01  -5.2462489e-02  -3.7891284e-01  -4.1656189e-01  -6.4527391e-01  -4.0766927e-01  -9.6065224e-01  -3.6421461e-01   8.4525090e-01  -2.1008984e-01   4.1132431e-01   8.4198723e-01   6.9272601e-01  -3.2774953e-01   3.2352010e-01   4.6399983e-01   1.1011736e-01  -3.0881177e-01   5.3319967e-01  -1.2087914e-01   6.9267336e-01   4.6114182e-01  -1.5546532e-01   7.6812952e-01   9.1016675e-01   8.9236887e-01  -6.9710828e-01  -1.7862708e-01  -1.0285077e-01  -6.7888304e-01  -2.8897778e-01   2.4860207e-01  -8.9388979e-01  -3.5421552e-01  -4.2129143e-01  -1.1088203e-01  -5.4673244e-01   2.9055550e-01  -5.5842739e-01   9.3751804e-02   8.6058790e-01  -6.0483466e-01   6.2248115e-01   7.6493144e-01   9.6158751e-01   7.2487096e-01   1.4925416e-01   8.4128354e-01   8.6476094e-01  -9.3141933e-01  -1.1137185e-01  -8.8591765e-01  -4.2026330e-01   9.2325651e-02  -9.2393809e-01   8.3120173e-01   3.9716575e-01  -3.5980617e-01   6.1821899e-01   6.5465005e-01  -4.0916864e-01   6.2282505e-01  -9.6672180e-01   4.4843270e-02   7.6713155e-01  -3.2226286e-01   4.2959950e-01  -4.1360915e-01  -5.4353122e-01   1.9639024e-01  -4.8619179e-01   5.4118925e-01   5.2204447e-01   9.8962176e-01   3.3083066e-01   7.2629878e-01  -9.9794597e-01   4.0328733e-01  -8.0735417e-01   3.6763270e-02  -4.4392870e-01   8.3476903e-01   6.3688238e-01  -6.2228525e-01   3.1447386e-01  -8.7055884e-01  -1.0537147e-02  -1.3700727e-01   9.3884977e-01   2.4511919e-01  -2.5540366e-01  -8.3959050e-02   9.0536365e-01  -4.5739127e-01  -4.2061427e-01  -1.1726979e-01  -5.0309283e-01   8.6272073e-01  -7.4861496e-01  -8.6433944e-01   7.2881079e-01   1.6022044e-01  -6.6210192e-01   7.1379061e-01   1.9075476e-01  -3.0546257e-02   9.9159185e-01   3.1280357e-01   1.5009620e-01  -8.3634024e-01  -1.8778858e-01  -6.1607006e-01   3.1330729e-01   9.9206165e-01   2.4916835e-01  -4.5311266e-01  -5.8966370e-02   5.6697404e-01   7.9833583e-01  -9.1598835e-01  -5.9457027e-01   7.0297896e-01   5.6016550e-01   7.3243935e-01   7.3471099e-01  -6.1736768e-01   1.7588597e-01  -1.0086150e-02  -6.4035251e-01   8.5987794e-01   3.9168186e-01   8.2934749e-01  -4.8656741e-01   5.1786540e-01  -4.6576241e-01  -3.7184427e-01  -6.0690807e-02  -7.5208099e-01   6.6637130e-01  -3.2290718e-02  -2.5162694e-01   8.1666384e-01  -3.7902945e-01   2.1478061e-01   9.0415602e-01   4.7581555e-01   7.5845025e-01  -5.7405621e-01  -4.1934588e-01  -5.6403777e-01  -8.3130429e-01  -5.1785281e-01   5.3356780e-01  -9.3886039e-01   8.0358941e-01   6.7620110e-01   4.1776135e-01   4.5403939e-01  -1.4661981e-01   5.9017660e-01   3.5640430e-01  -4.7520953e-01  -4.8463813e-01  -9.6284573e-02  -7.1658250e-01  -5.5695943e-01  -2.9472599e-01   7.6018200e-02  -9.7052665e-01  -7.2575257e-01  -5.8578332e-01  -2.8257612e-01  -4.8787108e-01   3.5955950e-01   6.7874054e-02  -7.0735151e-01   9.8383899e-01  -1.4765878e-01  -1.4834196e-01  -6.9344274e-01   1.1981598e-01  -9.5809259e-01  -1.8061255e-01   3.8765090e-01  -2.4764160e-01  -5.6367757e-02   3.5961294e-01   2.0514667e-01   7.2121771e-01   4.4055512e-01  -8.6129112e-01  -3.5857765e-01  -7.4067460e-01  -2.0111013e-01   7.7692900e-01  -2.0668119e-03  -1.5341620e-01  -2.2287009e-01  -3.2246891e-01  -5.1624582e-01  -9.9958809e-01  -1.5180656e-01   2.5817704e-01   4.2653169e-01   1.6576162e-01  -7.0274652e-01  -7.1448607e-01   8.0369206e-01   6.7371969e-01   2.6713517e-01  -5.7259622e-01   6.8137292e-01   2.6567893e-01  -6.4636821e-02  -8.8993002e-01  -1.3721713e-01  -3.1764293e-01  -2.6934229e-01   5.6531453e-01  -8.5425675e-01   5.8197985e-01  -7.8260831e-01   6.1807429e-01  -8.3849621e-01   2.8528501e-01  -7.8834815e-01   6.3608971e-01   8.0583856e-01  -1.4078088e-01   6.3059710e-01   6.8836798e-01   9.3789638e-01  -4.5922403e-02   3.9311787e-01  -8.9093507e-01   4.8839701e-01  -5.6792126e-01   4.3830396e-01  -5.5257556e-02  -2.8032309e-01   6.5011024e-01  -9.3906054e-01   5.9124319e-01  -6.5921550e-01   8.8587917e-01   9.7847727e-01  -6.1657286e-01  -5.2916101e-02   5.9043960e-01   6.3362775e-01   5.4558997e-01   7.5841578e-01   5.3599946e-01   9.7645232e-01   2.0416895e-01   3.4008413e-01  -4.7275587e-01   4.3837830e-01  -4.1000676e-01   4.4185339e-01  -7.9164820e-01  -4.1427379e-01  -9.8737165e-01   5.5607651e-01   2.6194569e-01   7.2204388e-01   3.5146796e-01  -4.0215147e-01  -4.4254170e-01  -4.1422790e-02  -1.0894449e-01   3.4742338e-01  -2.0027558e-01   1.0040150e-01  -4.1511944e-01  -9.0254074e-01   1.9315220e-01   9.5751628e-01  -7.0440954e-01   9.2824833e-01   7.7836769e-01  -3.4100681e-01   5.4825184e-01   8.8186517e-01   9.8962406e-01   5.5320614e-01   5.8326943e-01   2.8536148e-02   1.5174105e-01  -9.4184573e-01   6.1706454e-01  -1.3255271e-02   7.7550414e-01  -8.9636926e-01   2.8564104e-01   2.0732074e-02  -7.1383666e-01   3.4235171e-01   3.6775988e-01   4.8253020e-01   6.5119786e-02   5.3984699e-01   9.3306161e-01  -8.2643231e-01   8.6231106e-01  -2.0512551e-01   7.0415143e-01  -9.3418726e-01   2.8002468e-01   8.3278565e-01  -6.4953440e-01   6.5668173e-01   3.3076009e-01  -5.7241906e-01   3.2064552e-01  -5.1464441e-01  -4.5731959e-01  -2.9966302e-01   3.9343692e-01   2.1041335e-01   7.6167059e-01   7.1388445e-01  -8.7968850e-01   5.5847140e-01   2.7599435e-01  -2.3798784e-01  -2.2740369e-01  -9.2068835e-01   9.4099275e-01  -9.3635216e-01   2.4095388e-01  -2.1773334e-01   3.1531092e-01  -7.9586779e-01   7.2277176e-01   6.1813850e-01  -1.5145250e-01   2.4676816e-01   3.6034459e-01   2.4942802e-02   3.8985392e-01   7.8673288e-01  -5.0480118e-01  -8.2691252e-03  -5.9157705e-01   9.9853755e-01  -1.9422903e-01  -5.7869366e-01  -3.2100998e-01  -8.3839602e-01   7.4953479e-01   1.6736413e-01  -5.0468169e-01  -8.8093594e-01   4.9852794e-01  -8.6932550e-02   1.3062318e-01  -8.8122526e-01  -9.4931245e-01   2.8229582e-01   3.8274715e-01   1.9251754e-01   8.3183164e-01   3.3430674e-01  -4.4482436e-01  -5.2814681e-02  -1.9455434e-01   2.7796294e-01   2.0904853e-01   7.2715830e-01   7.2832311e-01   7.6830102e-02  -8.3977126e-01  -5.9385534e-01   3.3549788e-01   2.9474599e-01  -8.3935032e-02   9.4759014e-01   8.3020936e-01   8.8840344e-01   5.5075467e-01   3.4700317e-02   3.4173930e-02   2.2324819e-02  -7.9663707e-01   7.9298054e-01   7.3246983e-01   1.5686226e-02  -4.4207801e-01  -9.4081830e-01   8.8516576e-01  -2.4507273e-01   6.3864093e-01  -5.0256045e-01   2.9644579e-01   4.3366565e-01   6.6079471e-01   6.7416184e-01   4.5675589e-01   7.1372084e-01   8.3686515e-01  -5.0046637e-01  -4.1106099e-01  -7.4799785e-01  -7.8985603e-01  -1.4308380e-01   5.9558823e-01  -8.2703437e-01  -3.1773921e-01   5.2992737e-01  -2.4459513e-01   5.4326245e-01  -8.3967969e-01  -3.7996214e-01  -7.2579015e-01  -4.0616331e-02   5.6095970e-01  -1.9889469e-01   2.8261015e-01  -1.9472027e-01   9.6606616e-01  -6.4266188e-01   7.8471287e-02   3.5244323e-01  -3.1286355e-01  -5.8607821e-01  -7.6406051e-01  -6.5716250e-01   2.2449689e-02   7.8758038e-01   8.8779339e-02  -9.9008854e-01   8.9594140e-01  -7.1102350e-01  -5.1047470e-01   1.5461265e-01  -1.6087966e-02   1.6517233e-02  -7.1295945e-01   1.9451014e-02   8.4815324e-03  -1.4959153e-02   5.6972771e-01   4.6296156e-01   8.1558171e-01  -9.4506378e-01   5.3111610e-01  -6.0567708e-01  -6.3043068e-01  -1.6615291e-01   7.6894704e-01   1.5568151e-02   3.3775493e-01  -3.7929245e-02   6.5208161e-01  -9.2303160e-01  -8.9104546e-01   4.1748794e-01  -3.7954150e-01  -1.7052214e-01   9.5395126e-01   6.9301488e-01   6.8708878e-02   4.3838336e-01   8.7866598e-01   5.9821070e-01   2.0816241e-01   2.2990801e-01   7.6939140e-02  -2.4912729e-01   1.2505946e-01  -3.8331495e-01   3.8848522e-01   2.6060455e-01  -2.1192811e-01   5.8953298e-01  -1.5386725e-01  -8.4084810e-01   4.3179830e-01   8.5228087e-01  -3.0162314e-01  -8.1047438e-01  -7.3119709e-01  -3.1478146e-01  -7.8702714e-01   6.6880835e-01   2.6873786e-01  -4.3395852e-01   9.5203784e-01  -1.5828347e-01  -6.2162701e-01  -1.0233917e-01  -8.2989665e-01  -7.9942002e-01   3.8686350e-01  -5.9707002e-01   7.8270886e-01  -3.7185328e-01   4.0407332e-01   5.3167512e-01   4.5973450e-01   9.4786152e-01  -7.6880477e-01  -1.5920603e-02   9.3030631e-01  -3.3744114e-01   4.1891056e-01   6.4835754e-01  -3.3329780e-01   1.7599558e-01   1.4776310e-01  -5.3575602e-01   2.7672730e-01   9.4622663e-01  -1.2586066e-01  -3.0096626e-01   9.2843559e-01   6.9300356e-01  -5.4300459e-01  -4.6841603e-01   3.7782263e-01   1.3738637e-01   6.0095877e-01  -3.8519286e-01   8.1975784e-01  -1.9859794e-01   6.1497285e-01  -4.7472518e-01   8.5905998e-01  -2.5245141e-01   4.7340113e-02   7.4523361e-01  -9.0624302e-03   8.4776773e-01   4.1380972e-01   7.6476324e-01  -1.8224241e-01   6.3163669e-02  -5.5668381e-02   2.7833607e-01  -7.5400261e-01  -6.2662802e-01  -5.1103174e-01   7.7529389e-01  -2.4304604e-01  -6.9185055e-01  -5.5582632e-01  -8.6751034e-01   7.7027206e-01  -7.5255428e-01   8.0123746e-01  -7.9076341e-01   7.4625937e-01  -4.8760792e-01   3.8737103e-01   4.0304405e-01  -9.4692117e-01  -7.4816884e-01   3.3129198e-01  -3.8867316e-01  -4.4568645e-01  -9.4026150e-01   3.4956313e-01  -7.4609522e-01  -5.2386359e-01   3.0272132e-01  -2.1766006e-01   4.1349320e-01   2.2722873e-01  -6.3466532e-01  -3.5122314e-01  -2.8333474e-01  -5.2743230e-01   7.9132077e-01  -6.7710672e-01  -1.8589060e-01  -6.3894752e-01  -6.5515943e-02   3.5230272e-01  -5.3893679e-01   2.5203216e-01  -9.7042119e-01  -2.9916797e-01  -9.5047854e-02  -4.2554128e-02  -5.2030835e-02   9.4953628e-01   8.1769600e-01  -3.9383061e-02   4.3009342e-01  -3.1503780e-01   5.8055905e-01   3.3673555e-01   2.2069429e-02   1.7691584e-01   5.9100540e-01   8.8598997e-01   3.8743268e-01   9.8521616e-01  -2.7589975e-01   9.1150475e-01   1.2203105e-01   8.3871959e-01   5.2784296e-01  -1.7167046e-01  -6.9656188e-01   3.7510827e-01   1.8470523e-02   6.4641668e-01  -5.4394013e-01   9.5574573e-01  -4.1481048e-01  -7.9869350e-02   7.7051847e-01   6.1544377e-01  -8.4441453e-02   4.5017024e-01  -4.3825444e-01  -1.2742434e-01  -9.8464865e-01   8.9194434e-02  -2.5677880e-01  -6.0328652e-01  -6.0497976e-01  -8.6155119e-01   6.8027102e-01
  -7.2247609e-01   9.8728902e-01   7.3193617e-01   2.3141791e-01  -5.4498747e-01   8.5533525e-01  -4.2951929e-02   8.2095072e-01  -5.3487839e-02   6.3436124e-01  -1.0650799e-01  -9.1069350e-01  -6.6817715e-01  -4.6115821e-01   1.4787693e-01   6.9901801e-01  -2.2991265e-01  -7.7647355e-01   3.3742244e-01   4.0243306e-01  -1.5824925e-01  -2.7845278e-01  -5.6969304e-01  -7.2981501e-01  -3.7668193e-01   2.8704133e-01   4.1399912e-01  -3.0278964e-01   6.8062400e-01  -5.7388332e-01  -7.9164559e-01   9.3202609e-02  -2.7784147e-01   4.0024537e-01  -4.9563106e-01  -2.4590251e-01  -3.7279785e-01   7.3344743e-02  -3.3706078e-01   5.5261274e-01   5.0834283e-01  -8.8810805e-01   3.3650463e-02  -8.6061370e-01  -6.5546759e-01  -7.2897401e-01  -2.6750154e-01   3.5093689e-01   9.5668926e-01   2.3352481e-01   7.6034859e-02   6.3045104e-01   4.6201905e-01   2.0690269e-01   7.4391118e-01  -2.9192262e-01  -1.2484827e-01  -6.7895985e-01  -9.5701403e-01   6.8067905e-01  -3.7368267e-01  -4.7797246e-01  -1.4361140e-01  -4.4675230e-01   5.8290641e-02  -2.4959126e-01   9.7524614e-01   6.5992234e-01   1.9245777e-01  -9.7428728e-01  -3.5399838e-02   1.6185978e-01   3.3568126e-01   5.7408680e-01  -7.7405554e-01   7.6406845e-01   6.1447238e-01  -5.9120011e-01   2.6274772e-01  -6.6905841e-01  -1.5498696e-01   9.0559412e-01   4.4326644e-01  -9.3649634e-01   6.4255504e-01   5.6815112e-01  -8.7888852e-01   5.0939021e-01  -1.4599673e-01  -4.7821498e-01  -3.5236844e-01  -8.4823664e-03  -1.2687849e-01  -2.2987956e-01  -3.6589181e-01  -6.3449165e-01  -6.1092601e-01   9.9190348e-01   9.9539023e-01   1.2236976e-01  -6.1046190e-01   7.5832368e-01  -8.1356247e-01  -9.8009199e-01  -5.4464435e-01   3.1491368e-01  -9.1811111e-02  -4.2510490e-01  -3.1865847e-01   6.6185380e-01   4.3498557e-01  -2.9195948e-01  -2.2025292e-01  -4.3439222e-02  -5.9843597e-01  -4.7222464e-01  -5.9720662e-01   3.8014942e-02  -6.4524601e-01  -6.2573195e-01  -3.3484253e-01  -3.3956439e-01   9.5894292e-01  -7.0088836e-01  -1.7768038e-01   7.9974482e-01  -9.2446107e-01  -8.4965416e-01   5.4992091e-01  -1.4363131e-01  -2.4862956e-01  -9.2527904e-01   2.5337656e-01  -5.7641535e-01  -4.7331891e-01   7.1556649e-01  -9.5283463e-02   1.4332227e-01  -5.5196026e-01   2.5238629e-01  -5.9588427e-01   3.8130697e-01  -5.6600065e-01   8.2435588e-02   3.0005344e-01   4.9657026e-01  -8.7378566e-01   3.0020316e-01   8.7058901e-01  -7.2076812e-01  -2.1008610e-01   4.3231972e-01  -6.2875765e-02  -9.4923470e-01  -2.9294065e-01  -8.4985065e-01   7.3719395e-01  -1.7454597e-01   4.9714277e-01   2.6137353e-01  -9.1607096e-01   1.2627492e-01   5.0744101e-01  -4.4179671e-01  -2.1334811e-01  -7.9403839e-02  -2.7208533e-01   4.3900214e-01   5.3756470e-02  -7.4695388e-01  -9.3326428e-02  -3.7663365e-01   8.1335083e-01  -7.0700283e-01   2.1868274e-01  -7.2048690e-02   6.5399188e-01  -3.2045751e-01   9.7096685e-01   3.3336349e-01  -3.5702329e-01  -1.9698320e-02   8.9284325e-01  -9.8681067e-01  -9.6455609e-01  -1.7458694e-02   7.5495057e-01  -1.2844699e-01   6.9107164e-01  -3.3909167e-01  -3.1896687e-01  -8.6169516e-01   3.5479288e-01  -1.6406479e-01   4.4872124e-01  -9.2235363e-01   7.6408882e-01  -1.2496044e-01  -2.0861124e-01  -8.6492141e-01  -8.7364195e-02  -3.0923276e-01   2.4493522e-01   8.7451388e-01   7.3051315e-02  -6.1842223e-01  -9.3225945e-01  -6.2786842e-01  -1.3076539e-01   1.9864706e-01   7.7460399e-01  -9.4644180e-01  -3.5762753e-02   7.2828566e-02   5.5641636e-02   9.3032587e-01  -6.6205914e-01  -7.0080621e-01   4.9119859e-01   5.9530527e-01  -2.0267932e-01  -3.4735766e-01  -2.8156915e-01  -5.4084676e-01   5.3376122e-01   3.0365498e-01  -4.3573076e-01  -5.8166583e-01  -7.7851841e-01   6.2212405e-01  -1.8007866e-02  -1.0771646e-01   4.5821335e-01  -9.4699424e-01   2.2832247e-01   8.9338344e-02   5.8818108e-01  -5.5977952e-02   8.2455288e-01   2.3038613e-01  -4.7155553e-01  -8.8047528e-01   4.4048691e-01   9.1262634e-01   2.5370443e-01  -9.1732237e-01   4.9959110e-01   5.6898460e-02   3.9087654e-02  -2.2213459e-01  -8.9108919e-01  -4.4359979e-02  -6.2110095e-01  -9.7872174e-01   4.0761134e-02  -8.5618025e-01  -9.5151792e-01  -1.3928729e-01  -6.4196785e-01   3.5168282e-01  -3.5222267e-01  -5.7619874e-01  -8.4181088e-01  -9.7931503e-01  -9.8714995e-02  -6.3903834e-01   7.2634007e-01   3.1094893e-01  -7.6242067e-01  -8.6787347e-01  -4.5593601e-01  -6.5605623e-01   6.3102026e-01   3.9765593e-01  -2.6306626e-01  -4.7961832e-01   6.9771623e-01  -5.5952951e-01  -9.2182362e-01  -3.8609274e-02  -2.4435517e-02   7.3983441e-01  -5.8442254e-01   2.2520252e-01   2.5194054e-01   1.3327074e-01   2.9571022e-01   9.3690252e-01  -7.9185598e-02   1.1361630e-01   8.1835542e-01   8.2730871e-01   8.5966126e-01   8.7117081e-01  -6.2821635e-01  -8.1393435e-01   2.9143800e-01  -5.0211557e-01   6.7151197e-01   2.2613634e-01   3.4354532e-01   8.6993224e-01  -2.1576903e-01   6.4028542e-01   5.7680118e-01   5.5677367e-01   5.4416114e-01  -7.2269255e-01  -7.3425024e-01  -7.7090674e-01   6.6271510e-01   2.5262916e-01   9.3649770e-01   9.8865620e-01   5.5852438e-01  -2.2072979e-01   7.0698312e-01   7.5871743e-01  -5.6687867e-02  -1.2718310e-01   8.4084808e-01   5.5081204e-01   1.2108419e-01   4.9079229e-02  -8.0152173e-01   3.1866035e-01   7.2048708e-01  -2.6802286e-01   9.9200610e-01   8.9762851e-01   9.7021502e-01   9.9921427e-01   3.8161103e-01   2.4173332e-02   3.8183001e-01  -8.0335475e-01   6.4380896e-01  -5.0690212e-01  -7.8380055e-01  -3.7971500e-01  -4.1726962e-01  -5.5677932e-01  -1.7009639e-02   9.0957498e-01   9.4486475e-01  -6.0497477e-01   1.9174057e-01  -1.8212072e-01   7.8788268e-01  -8.8545544e-01  -2.5395891e-02  -4.2499611e-01   2.9252325e-01   9.0535086e-01  -1.9372980e-01  -4.1727641e-01  -8.8663177e-01  -3.9323710e-01   2.0141383e-01  -1.4839935e-01   6.6200990e-01   5.5833008e-01  -2.6719038e-01   4.9006356e-02  -6.5394273e-01   5.0646535e-01   4.9666746e-01  -8.1637576e-01  -4.4678053e-01  -8.4626830e-01   5.9946878e-01  -3.6584803e-01  -1.1847686e-01  -5.4105605e-01  -1.1103286e-01  -2.4707812e-01  -8.2861533e-01   9.7004596e-01  -4.5458943e-01  -4.2250949e-03  -1.9264018e-01   8.2543833e-01  -3.3042857e-01   2.9671467e-02   5.6329397e-02  -5.8447919e-01  -4.2209230e-01  -8.1665440e-01   9.5816931e-02  -7.4745131e-01   2.1422666e-01   9.2789431e-01   3.6487196e-01   9.7667526e-01  -4.5191122e-01   2.1547788e-01  -1.8984855e-01   1.3889029e-01  -3.0352468e-01   5.2481193e-01  -9.5182277e-01   1.7916392e-01  -5.5599610e-01  -7.4882994e-01  -8.2883903e-01   4.8782254e-01  -1.1959165e-01  -6.5026394e-01   4.3226150e-01   4.4670481e-01  -3.3265107e-01  -1.4522213e-01   8.9507824e-01   1.5152444e-01  -9.0739522e-01  -2.4291784e-01   6.8039560e-01  -5.2721082e-01  -4.2444108e-01   3.2085038e-02  -5.3759444e-01   8.3630801e-01   3.9274811e-01   6.0097914e-01   8.4374069e-01  -5.1386633e-01   8.6960832e-01   6.3164844e-01  -3.4736513e-01   6.3630851e-01  -1.5938804e-01  -1.6679668e-01   4.9235773e-01   9.3081921e-01  -5.5323949e-01  -3.3594752e-01  -7.9237988e-01   2.8437197e-01  -3.6252868e-01  -9.1217628e-01  -2.7551426e-01   3.3848186e-02  -2.0498429e-01  -1.4904332e-01   2.8398346e-01   7.5304183e-01  -7.2419421e-01  -9.8197990e-01   2.6409754e-01   4.4852363e-01  -9.8984642e-01  -1.3352371e-01   7.3429328e-02   8.5113951e-01   6.4018415e-01  -9.0760632e-01  -4.1586533e-01   5.5083709e-01  -6.3382393e-01  -9.2640185e-01   5.4934890e-02  -8.1200793e-01   5.2248977e-01   9.7032537e-01  -5.2477898e-01   9.9982967e-01  -4.7468244e-01  -3.5178247e-01   3.3939903e-01   4.3811273e-01  -1.6280974e-02   6.6608010e-01   5.2741420e-02  -9.8668554e-01   1.6799105e-01   9.3972599e-01  -6.8301015e-01   6.6546324e-01  -4.2982562e-01   7.8611104e-01  -5.0060971e-01   4.6096442e-02   8.7053317e-01  -3.8901912e-01  -1.4113878e-01  -4.6036247e-01   6.7965675e-01   2.4014324e-01   7.5403075e-01  -1.4899899e-01  -8.3251344e-01  -5.1368423e-02   5.0686347e-01  -5.0316133e-02   8.6964425e-01   3.6984197e-01  -2.7510768e-01  -8.9587144e-01  -4.4459529e-01   1.7518208e-01   7.2372194e-01   2.7129507e-01   3.2061928e-01   8.0601368e-01  -6.1345642e-01   4.0710787e-02   6.6849535e-01   1.2650966e-01  -2.2500410e-01  -2.9494873e-01  -4.7221899e-01   3.1440738e-01   1.5767928e-01  -2.4180956e-03  -4.9827916e-01  -9.6948047e-02   6.0858483e-01  -4.3651511e-01  -9.6193598e-01   4.0377789e-01   7.2922365e-02   1.2301842e-01   1.1456630e-01   7.1059413e-01   4.7603197e-01  -8.0157661e-01   3.6231002e-01  -1.3187278e-01   7.7442021e-01   4.0470875e-01   8.3672595e-01  -9.0184583e-01  -3.3964635e-01  -6.1976966e-01   7.0202134e-01  -2.7452363e-01  -1.5372963e-01  -3.9844704e-01   1.5077971e-01   8.4583598e-01   8.5759033e-01   5.5975168e-02  -2.3110701e-01   8.2045587e-01   1.9090814e-01  -5.3532831e-01  -6.1871177e-01   7.4845252e-01  -7.2366683e-01  -7.2833668e-01  -2.6042303e-04   8.6822561e-01  -5.0884383e-01  -7.3256386e-01   9.7466317e-01   4.1832375e-01   7.7077440e-01   9.3124783e-01  -5.7546794e-02   1.7272008e-02   3.6615973e-01   3.5551441e-01   3.0222952e-01  -6.5192300e-01   4.5851793e-01   1.5850302e-01   3.4081102e-01  -9.1821511e-01   1.0345062e-01   2.0217445e-01   4.3717263e-01  -3.7242399e-02   6.4180045e-01  -5.1352179e-01   5.8828492e-01  -6.4664401e-01  -2.2225632e-01   8.7241037e-01   4.6113996e-01   7.1640002e-01   7.3849709e-01   6.0316531e-02  -2.0375748e-01  -4.3623405e-02   5.9966298e-01  -6.2895563e-01  -3.9705797e-01   6.0435710e-01  -7.3171550e-01   2.6099597e-02   4.9388844e-01   4.2879451e-01  -2.8071192e-01  -8.7903012e-01   6.2195508e-01  -9.9288186e-01   5.6468778e-01   8.0833019e-01  -9.0552791e-01  -4.3429236e-01  -3.7397732e-03  -8.1786762e-01   4.7996933e-01   2.3993970e-01  -8.6926235e-01   9.7518951e-01   8.7524384e-01   4.7198344e-01  -9.8508618e-01   3.4320499e-01   3.5235897e-01   3.8072209e-01   4.6165553e-01  -5.9489669e-01   5.8627370e-01   9.2831095e-02  -8.4975092e-01   9.4480578e-02  -8.2018755e-01   1.9137934e-01   4.6146659e-01   7.9536074e-01   2.8787776e-01  -8.9993877e-01   9.3040546e-01   4.0651425e-01  -3.5548202e-01   3.2545147e-01   9.4392397e-01  -2.5031947e-02  -5.7026499e-01   6.9275877e-01  -1.5444816e-01  -5.0675188e-01   1.4579193e-01   8.4681284e-01  -8.7963921e-01  -1.6860458e-01   5.2255303e-02   9.9306326e-02  -3.3437819e-01   4.4075517e-01  -8.7172795e-01   7.0100495e-01   2.3974330e-01  -4.1302657e-01  -5.1089795e-01   6.7972090e-01   1.9479768e-01  -9.8351924e-01   4.0479846e-01   9.5727092e-01  -2.5130769e-01  -2.5910071e-01  -8.2445679e-01   5.0445391e-01   1.5673517e-01  -5.7900404e-01  -6.0940618e-01  -4.4192669e-01   2.5910602e-01   8.1349390e-01   8.5123742e-02   9.7717564e-01  -1.8812474e-01  -8.8331768e-01  -8.5302481e-01  -9.3089396e-01   5.7988079e-01   1.3889973e-02   6.7656052e-01   4.5426233e-01   2.0970600e-01  -4.0759210e-01   5.2481974e-01   2.8632636e-01   7.0433875e-01   1.5039807e-01  -2.4238078e-01  -1.5789286e-02   1.8465897e-01  -7.8130174e-02   3.7201202e-01  -3.3312864e-01  -4.3968882e-02  -3.7584109e-01   8.8073998e-01   4.7348191e-01   2.5807991e-02  -1.4379966e-01   5.5684267e-01   7.4645076e-01   3.1964502e-03   5.2718580e-01  -7.5442373e-01   9.1626684e-01   5.7456258e-01  -1.4917781e-01   5.6334617e-01  -6.7636740e-02  -6.1863051e-01   9.7246841e-01   1.2171408e-01   8.3126262e-01   7.3845579e-01   2.3810642e-01   1.5978392e-01   4.1971528e-01  -8.8110649e-01   4.8354970e-01  -2.9640497e-03   2.2294567e-01   5.6210862e-01   8.1484023e-01   1.0259064e-01  -4.9874517e-01   8.0957144e-01   7.7104834e-01   8.2435181e-01  -4.1047766e-01  -1.2851333e-01   6.8858517e-01   5.7049846e-01  -3.1722220e-01  -3.5987578e-01   1.8404162e-01   5.7002076e-01   5.9383607e-01  -5.6382664e-01   4.8760420e-01   4.4520327e-01   1.9695102e-02  -1.0660067e-01   2.9341327e-01   8.3571968e-01   6.6754241e-01  -4.2273465e-01  -2.5497843e-01   2.2391563e-01   6.2704309e-01  -2.7193718e-01   6.9417910e-01  -8.9021145e-01   7.0136079e-01  -1.9609648e-02  -3.5048128e-01  -4.5280456e-01   2.2658988e-01  -8.9397667e-02   2.8290686e-01  -5.1792877e-01   8.6025384e-01   1.0295514e-01  -2.6156059e-01   5.4333502e-01   8.1857694e-01  -1.5980764e-01  -9.8399270e-01  -4.6507162e-01   2.1353702e-01  -2.8625165e-01  -8.8294280e-01  -9.0361663e-01  -7.5563178e-01  -6.4482571e-01  -1.0211603e-01  -9.5301930e-01  -8.1399831e-01   6.8945026e-01  -7.7320950e-01   2.3774404e-01   1.1184610e-01   6.6108893e-01  -8.7870770e-01  -3.0052047e-01  -1.1003313e-01   2.1155102e-01  -3.7353223e-01   2.9925673e-01  -4.7248779e-01   8.7937103e-01   2.3385169e-01   2.7720131e-02  -8.5989673e-01   1.5868422e-01  -6.1796356e-01   8.2475147e-01  -6.7624067e-02   2.9604005e-01   4.3594122e-01  -1.0599491e-01   2.4527457e-01   2.3497536e-01   9.3982437e-01  -6.2154313e-01  -6.2532925e-01   1.2801524e-01  -6.9813944e-01   5.2434438e-01  -2.7612698e-01  -8.6407613e-01   2.8336314e-01   4.7171177e-01  -6.7976745e-01   4.4145420e-01  -4.7495097e-01   2.9467009e-01  -2.4662656e-01   9.4722846e-01  -2.3490598e-01  -9.5282002e-01  -6.0111923e-01   7.7343795e-01  -6.6097798e-01  -8.5998134e-01   5.1350178e-01  -3.0917147e-01   1.8910838e-01   5.2501288e-01  -1.7801719e-01   1.7911900e-01   3.7317730e-02  -8.8260850e-01  -8.2753388e-01  -6.5776840e-02  -9.6298389e-01   2.3446275e-01  -8.1135354e-02   3.5014148e-01  -3.7793324e-01   1.6938705e-01   8.3786492e-01   7.2128877e-01  -7.1921445e-02   4.1972268e-01   5.5540229e-02   7.1206097e-01  -1.5689379e-02  -5.3984496e-02   4.8352701e-01  -3.8194125e-01   2.6966941e-01   5.6627491e-01   2.7498159e-01   2.0064259e-01   8.7475357e-01   2.5194099e-01  -8.7013571e-01  -2.5200688e-01   5.9942878e-01   8.2107007e-01  -3.8321859e-01   8.4515751e-01  -7.5924857e-01   8.5991967e-02   6.0501927e-01  -4.8011487e-01   6.8549578e-01  -8.9059111e-01   8.0011219e-01  -2.7794138e-01   7.4674727e-01  -8.4161714e-02  -2.5032885e-01   6.4782086e-01  -1.6437729e-01  -5.7454813e-01   1.4108253e-01   7.4425410e-01  -9.7399420e-01   1.5659699e-01   7.6639142e-01  -8.7423764e-01  -7.7887641e-01   9.5570467e-01  -3.0449010e-01   4.7720171e-02   2.1140049e-01  -2.2130108e-01   1.1384842e-01  -6.6356026e-01   8.1478472e-01  -3.6707212e-01  -4.9228940e-01  -3.2108696e-01  -5.8919993e-01  -4.5798941e-01  -4.5191132e-01   9.9353456e-01  -9.3661798e-01   1.8162907e-01   8.5774013e-01   7.6344032e-01  -6.3528505e-01   6.5249571e-01  -6.1964032e-01   7.7036056e-01  -8.4907214e-01  -9.5905680e-01  -9.9071189e-01  -6.2488753e-01   2.6569997e-01   3.6596035e-01  -2.2983486e-01   6.9813934e-01  -8.4180900e-01   5.5786059e-01  -6.7502078e-01  -9.7132969e-02  -1.1341967e-01   5.8563224e-01  -2.0881433e-01  -1.9533404e-01   4.0670013e-01   9.8496733e-01  -2.8225328e-01  -5.8165454e-01   2.3368007e-01   4.6287482e-01   3.6646075e-01  -1.9943240e-01  -6.6751513e-01  -5.8507692e-01   2.7013888e-02  -3.3480791e-01   5.7326681e-01   7.8627840e-01   3.1487762e-01  -2.0885301e-01   6.6497533e-01  -7.9755813e-02  -3.9994071e-01   6.7891535e-01  -4.9499364e-01   8.9249474e-01  -2.9347896e-01   6.5967352e-01  -4.0805679e-01   1.1077113e-01   5.2970174e-01  -3.4371648e-01   9.0331815e-01  -1.5044223e-01  -8.0929636e-01   8.9704341e-01  -5.6700875e-01   8.4747031e-01   5.9641608e-01  -6.7409404e-01   9.4434231e-01  -1.6918670e-01   5.6210093e-01   8.4997637e-01  -8.9021031e-01   7.4575805e-02   5.0541419e-01   4.8218918e-01  -3.3704641e-01   4.5150926e-01   1.8497866e-02   1.5521147e-01  -2.3319540e-01  -5.5457311e-01   5.3577830e-01   5.6458919e-01  -3.3573528e-01   8.2449242e-01   9.2187685e-01   5.5424559e-01  -6.0016224e-01   4.5997093e-01  -2.6650528e-01  -4.5968735e-01   3.1419431e-02  -4.4898987e-01   2.9756216e-01   6.5151374e-01  -9.4015179e-01  -1.0285701e-01  -9.3112689e-01   3.3633227e-01  -4.5179318e-01   9.9462661e-01   1.7600578e-01   3.1737928e-01   8.6191436e-01  -1.6375405e-01   6.8428865e-01   6.1608842e-02  -9.2143768e-02  -3.5228930e-01  -7.2399922e-01  -7.1304332e-02   7.7802686e-01   7.4906040e-01  -1.6100807e-01  -8.3155949e-01  -4.9730287e-02  -9.8312127e-01  -2.2452410e-01
