   2.1078995e-01   7.0420171e-01   9.8662587e-01  -7.8632007e-01   2.7218954e-01  -6.8250352e-01   7.5752539e-01   8.1952624e-01  -4.8186415e-02   2.5098501e-01   6.0923547e-01   4.4674687e-01  -9.7164665e-01   8.2905653e-01   2.1669840e-01   8.1150789e-02  -1.2096245e-01  -1.4075309e-02  -3.4324212e-02  -8.5425631e-01   3.1467781e-01  -8.3611660e-01  -9.3861275e-02   6.8187142e-01  -7.8536183e-01   7.4208894e-01  -2.6033496e-01   1.8986884e-01  -6.0858625e-01   9.8772305e-01   3.5722587e-01  -8.8857987e-01   3.6859071e-01  -6.7002082e-01   4.3466270e-01   8.6605541e-01   1.0376496e-01  -4.6355416e-01   5.2642736e-01   6.8180574e-02   9.0538033e-01   1.1896451e-01  -1.8609593e-01  -9.0228684e-01   3.7849456e-01   6.8716563e-01  -3.3556455e-02  -1.8131980e-02  -1.4043503e-01  -9.8588548e-01   8.5312720e-02   2.5765159e-01  -5.4394664e-01   4.6031907e-01  -1.6308468e-01   5.7488432e-01   8.2785320e-01   7.4162135e-02   4.7904042e-01   7.8440650e-01   1.0223741e-01   9.6996476e-01  -1.1676512e-01  -5.5694208e-02  -7.7587391e-02  -5.6162543e-01  -8.9151961e-01  -7.6421432e-01   5.7283183e-01   3.1979900e-01  -5.7357580e-02   3.7618054e-01   9.3291887e-01   9.9680431e-01   9.1440050e-01  -7.1889071e-01   4.0557079e-01  -5.0040384e-01  -3.3910223e-01  -5.8717740e-02   1.7808832e-01   3.2575399e-02  -2.9978396e-01   6.2304026e-01   1.1001587e-01  -1.1977646e-01  -1.6903388e-01   9.0928418e-02   7.7860245e-01   6.1037332e-01   7.5641565e-02  -7.0386380e-01   6.5667355e-01   3.6697751e-01   2.8728321e-01  -3.7896519e-01  -3.7914591e-01  -3.8046974e-01  -6.6567431e-01  -1.0425963e-01  -5.1236332e-01   5.2527787e-01  -6.0382273e-01  -8.3440260e-01  -8.3476031e-01   2.6569475e-01  -4.9909674e-01   4.1437761e-01  -5.6600329e-01  -9.2537907e-01  -9.5569606e-01   8.1583247e-01   6.5409789e-02  -1.3544365e-01   5.0962426e-01   6.4235478e-01  -9.4585636e-02  -4.0637273e-01   2.3294343e-01  -8.8928852e-01  -1.4985035e-01  -1.8774661e-01  -6.8785922e-01  -4.5101408e-01  -2.1868354e-01   5.0821140e-01  -9.5011824e-01   5.6698857e-01   1.3409142e-01   4.5926378e-02  -6.6955028e-01   5.4093849e-01   5.2594859e-01  -3.8982247e-01   6.9737062e-01  -5.7935136e-01   7.9036677e-01   2.3464148e-01  -6.9641089e-01  -3.9323220e-01  -6.7850074e-01  -8.9757522e-01   6.6318494e-01  -9.1512038e-01  -5.9352973e-02   3.2383779e-01   9.5938824e-01   9.4033772e-01   2.3193773e-01   1.5199973e-01   7.3053888e-01   4.3376103e-01   6.1244206e-02  -9.4740553e-01   5.7345394e-01  -5.1146598e-01  -7.7546131e-01   3.0543525e-01  -9.4475741e-01   3.1937448e-01   7.6826138e-01  -2.6309115e-01  -4.5210894e-01   6.0782398e-01   1.2740433e-01   6.1048693e-01   8.9153974e-01  -4.6219808e-01  -8.8897095e-01   3.1821041e-01   7.1709695e-02  -8.8886597e-01   8.3456637e-01   9.7258921e-01   4.7649160e-01   9.4388028e-01  -9.9434041e-02   8.9093890e-01  -8.3755844e-01   6.9482246e-01  -6.6203878e-02   8.9907057e-01  -7.7723959e-01  -8.9565403e-01  -3.1682088e-01  -8.7565367e-01   3.5848780e-01   8.3831120e-01   6.0687173e-01   9.2593015e-02  -1.8996205e-01  -8.8073682e-01  -5.4170858e-01   9.8000126e-01  -2.1188325e-01  -8.3967997e-01   8.4337383e-01   9.6065900e-01  -1.7815734e-01  -4.4227263e-01   5.5014650e-01  -3.8128259e-01   8.8257956e-02   2.7945138e-01  -1.1168672e-01  -2.5040625e-01   7.5316988e-01  -5.2663404e-01   4.4005535e-01   4.1036263e-01  -8.6309585e-01   6.9991367e-01   6.9787743e-01   6.9560421e-02  -2.9377052e-01   9.9881476e-01   1.9485379e-01   6.2794868e-01  -2.1004277e-01   3.2599558e-01   9.7439690e-01   9.5980486e-01  -8.6910457e-01   4.0339845e-01   5.8997143e-01   5.7704155e-01  -3.8812208e-01  -1.9389257e-01  -8.0125338e-01  -8.9871434e-01   4.7552331e-01  -5.2315578e-01   6.6043400e-01  -9.0526684e-01  -3.9689604e-01  -1.4138428e-01  -9.5050496e-02  -5.2890056e-01   4.7228574e-01  -9.7527112e-02  -1.8210705e-01   4.4917126e-01   3.7414369e-01   2.2575889e-01  -6.1929349e-01   3.8518300e-01  -6.6809229e-01   1.1117992e-01  -6.4692428e-01   7.6004320e-01   3.1528591e-01   6.2829173e-01  -1.6560894e-01   8.4029511e-01   6.0376759e-01  -3.5284963e-01   1.6835338e-01  -6.5262924e-01  -8.5249729e-01  -5.5929124e-01   7.7044912e-01  -4.6510899e-01  -9.1334658e-01   6.4638708e-01   4.3920395e-01  -3.7566335e-01  -7.7634295e-01  -1.9500325e-01  -3.8751220e-01   5.0682373e-02   3.4206693e-01   6.7622728e-01   2.2819991e-01   4.8050220e-01   4.9779848e-01  -6.7184615e-02   7.3875282e-01  -9.6685432e-01   1.9717105e-02   4.6829388e-01  -4.7099346e-02  -8.2558612e-02   4.9118242e-01   6.4045250e-01  -1.5604447e-01  -8.9066921e-02   3.6645003e-01   9.2991831e-01   4.5681218e-01  -9.8392965e-01  -8.4881339e-01  -3.7348278e-01  -6.8367541e-01   9.8943942e-01   9.7336616e-01   4.4947990e-01   5.0799067e-01   5.7054511e-02   4.1164484e-01   1.4704013e-01  -8.6814312e-01  -2.4001978e-01   5.2835286e-01   9.9624735e-01   4.8957453e-01   7.1247249e-01  -2.5870025e-01   9.1523980e-02  -8.4859563e-01  -5.2595089e-01   9.4220036e-01  -1.8238288e-01   3.2559589e-02  -8.1810801e-01  -1.4845808e-01  -6.1706351e-01  -9.2805354e-01   2.3521457e-01  -7.6089278e-01  -7.4730856e-01  -5.3044168e-01   6.6234080e-01  -3.7900795e-01  -1.0002432e-01   9.1906946e-01   7.8128208e-01  -8.3668052e-01   9.0922932e-01  -9.1097575e-01   7.8793841e-01   9.6591137e-01   8.6569253e-01  -4.4588317e-03  -5.9946559e-01  -4.8428883e-02   6.5024618e-02   1.2889633e-01   4.0529262e-01   9.1899779e-01   9.1824196e-01   5.3507578e-01  -1.0309093e-01  -4.2729974e-01   8.5152037e-01  -1.9872357e-02  -1.6369504e-01   8.8728185e-03   2.3851203e-01   7.2930703e-01  -7.0678162e-01  -9.4865128e-01  -7.7645460e-02   3.2540992e-01   4.4699952e-01   7.4712377e-01  -9.4137691e-02  -7.2155795e-01   5.9236103e-03  -2.9799509e-01  -1.9231762e-01  -6.1316020e-01  -2.5659339e-01   5.6637663e-01   3.2895884e-01   1.3373780e-01  -8.1651233e-01  -2.7991712e-02  -9.9007748e-02   7.0462323e-01  -8.2483121e-01   2.8303419e-01   3.8639850e-01  -6.1523967e-02  -4.7197944e-01  -7.0916872e-01   9.9017262e-01  -8.2967829e-01  -4.4007472e-01   5.4796120e-01  -6.0874010e-01  -2.8487331e-01  -6.1168218e-01   1.0687326e-01   8.8298725e-01   1.3186070e-01  -6.5924888e-01  -1.4648385e-01   7.2374409e-01  -4.0810230e-01   9.1213110e-01   3.7603622e-01   9.0689051e-01   5.0404418e-01  -7.0666705e-01  -6.9864098e-01  -6.1796088e-01  -9.2810573e-01   2.0792665e-02   4.0858364e-01   3.9707877e-01  -8.3728035e-01  -6.6619712e-02   3.0256324e-01   9.5316365e-01   4.9724296e-02  -6.8021324e-01   6.6584192e-01   7.5416735e-01  -3.8749996e-01   4.4019630e-01   3.4509797e-01   2.2677134e-01   4.1577684e-01  -3.8740433e-03   1.7745536e-01   2.8412912e-01   9.6991665e-02  -7.2131363e-01   6.0798241e-01   9.8984346e-01   8.0088879e-01   9.5405415e-01   5.1131690e-01  -9.2831594e-01  -9.0409730e-01  -5.3083682e-01  -2.4421465e-02  -7.9881860e-01   1.8602729e-01   3.0475274e-01  -9.5264298e-02  -7.6374434e-01   7.2324866e-01   5.6001160e-01   4.0030318e-01  -1.3825170e-01  -8.9596134e-02  -6.5251192e-01  -1.1332885e-01  -5.6001666e-01   5.0520942e-01   6.8942478e-01   5.4396156e-01   3.7362676e-01   4.5868435e-01   8.5621724e-01  -8.0900601e-01   3.6498230e-01  -7.6003586e-01   8.9734524e-01   2.3366880e-01  -7.0795917e-01   6.0119345e-01  -7.3659134e-01  -4.0380488e-01  -5.6999605e-01  -9.0024554e-01   5.4377777e-01   2.3117473e-02   4.0470181e-01   9.1373629e-01   2.2552004e-01   5.8651905e-01   1.1349080e-02  -9.2200130e-02   6.9321932e-01   3.5034802e-01  -4.6500152e-02  -1.3427953e-01   9.7863221e-01  -4.8918865e-01   4.5568615e-01  -3.8257326e-01  -5.3602634e-01   3.1705201e-01   8.7674601e-02  -8.8395848e-01  -7.5636337e-01   3.7911362e-02  -7.6339331e-01  -1.1194966e-01  -9.8976000e-01   8.6232511e-01  -9.2228899e-01  -8.6234510e-01  -5.1925421e-01   5.4142933e-01   3.5567142e-01   4.9413126e-01   6.2874046e-01  -2.9741279e-01  -9.0379969e-02   7.4748686e-01  -8.6814150e-01   3.6466947e-02   1.9777223e-01   8.1722373e-01   7.1109840e-01   9.7745800e-01  -4.4228123e-01   5.0005709e-01  -7.2253528e-01  -8.1925526e-01   5.0326255e-01   9.4980521e-01   7.8268660e-01   8.1742139e-01   8.0142403e-01   3.5376313e-01  -7.4322963e-01   1.3782830e-01   3.8689659e-02   5.8916086e-01  -9.0929324e-01  -2.4256398e-01   4.6867215e-01  -6.8712993e-01   1.1737171e-01   4.0067167e-01   5.2219553e-01   4.2419416e-01   1.2628228e-01   2.4144066e-01  -4.6348718e-02   2.1863580e-01   9.9988294e-01  -3.4980107e-02  -3.2348725e-02   9.1761423e-01   2.4182136e-01   2.8027913e-01  -3.5431136e-01   4.4398123e-01  -5.2320875e-01  -9.2775309e-01  -6.6236994e-01  -4.2914727e-01   1.8013701e-01   3.4390083e-01   5.4152269e-01   6.4956535e-01  -4.6353505e-01  -3.9071682e-01  -9.8407510e-01  -7.3081199e-01   6.3457452e-01  -6.7909729e-01   4.9039017e-01  -8.9694079e-01   7.8036930e-01   2.7661922e-01  -9.4793077e-01   4.8546332e-01  -6.0586644e-01  -1.2124727e-01   5.5960935e-02  -6.8055481e-01   8.0068919e-01   5.1036554e-01  -6.5430674e-01  -5.7072786e-01   4.7833367e-01   4.3387143e-01   4.7727620e-01  -9.9426215e-01  -3.6306649e-01   2.7430681e-01  -2.1356503e-01   6.7914795e-01   8.1425737e-01  -1.1720238e-01   6.4494565e-01  -1.8195961e-01   1.1408334e-01  -8.3655306e-01   7.2559954e-01   5.8354743e-01   4.5057817e-01  -1.8577818e-01  -5.5967631e-01   2.4404378e-01   5.2713790e-02   9.9718836e-01   7.0169016e-01  -4.8099543e-01  -6.9330139e-01   9.7551651e-01   4.5520403e-01   2.6603182e-01  -9.7600583e-01  -8.7156270e-01  -8.1584747e-01  -3.7258146e-02   1.2634303e-01   7.8597504e-01   2.8321674e-01   1.2802598e-02   2.8526676e-01   3.0752855e-01   2.2987182e-01   7.8460310e-01   8.0950224e-01  -2.6070502e-02   1.3188381e-01   2.9354308e-01   9.5952083e-01   6.1834348e-01  -1.4758709e-01   4.1331080e-01  -8.2645606e-01  -6.0957447e-01   2.9421091e-01  -9.7350548e-01  -8.9731032e-01   5.3890581e-01   2.2689532e-01  -2.5896360e-01   2.2367444e-01  -1.6717543e-01  -5.5276058e-01   9.5079907e-01  -1.1300997e-01   5.9546922e-01  -4.2384673e-01  -5.6519850e-01  -3.8684277e-01  -4.6281998e-01  -4.4533332e-01   5.2345477e-01  -8.3156701e-02   8.8838397e-01  -5.5627906e-01   3.1812548e-01   8.6536723e-01  -5.9030742e-01  -7.1983822e-01  -3.6968274e-01   9.7508225e-03  -8.0425214e-01   7.8623173e-01   6.5286795e-01   4.4071643e-01  -5.5125040e-01   4.8877576e-02  -1.5640686e-01   2.2242779e-01  -2.7123603e-01   9.0997281e-01   8.1647557e-01  -7.8044013e-01   9.5174370e-01   1.2166228e-01  -7.5601573e-01   5.5818787e-01  -4.5404631e-01   2.9977781e-01  -2.4410486e-01  -7.0976611e-02  -8.9595016e-01   4.0428304e-01  -6.0283787e-01  -3.6579798e-01   7.2125519e-01   4.8100961e-01   1.5271443e-01   9.6043014e-01   9.9244361e-01  -2.1780304e-01   7.8834614e-03   6.1737504e-01   1.7787434e-01  -8.4436622e-01   8.3671433e-01  -7.4830453e-02  -1.7362598e-01  -7.1848204e-01  -6.2133016e-01   5.3810255e-01  -4.2921857e-01   8.4174233e-01  -2.5344138e-02  -4.8034937e-01   6.9810536e-01   9.0673851e-01  -8.7700906e-01   7.9315271e-01  -8.6858761e-01  -4.4668385e-02   1.1020130e-01  -2.7369133e-01  -4.4269636e-01  -6.4900165e-01  -1.4389837e-02   1.8931324e-01   5.8546478e-01  -9.8191456e-01   1.0006618e-02  -7.0557209e-01   4.4709484e-01  -8.2959038e-01   1.0290827e-01  -7.7098457e-01  -6.1884889e-01   9.7574451e-01   9.5560594e-01   2.5895533e-01  -9.5044303e-01  -4.9363948e-01   3.2040921e-01  -2.0028457e-01  -8.8668767e-01   8.5404205e-02  -5.1888534e-01  -3.8671191e-01   8.7784148e-01  -6.6994326e-01   2.3177188e-01   6.2192135e-01  -8.2739039e-01  -1.8554835e-01  -4.7297876e-01   4.6757691e-01   3.4335749e-01   6.6863013e-01   5.4533228e-01  -3.2415810e-01   7.1247134e-01   8.9039728e-01  -9.0200151e-01  -4.3877080e-01  -3.7345497e-01   6.3783782e-01   8.0398008e-01   5.0977176e-01  -7.8827466e-01   5.3198751e-01  -8.4730450e-01   6.7376569e-01  -5.5438160e-01   8.2731561e-01   2.0328650e-01  -6.7028217e-01   3.0651040e-01   7.0243109e-01   2.3302158e-01   5.6237134e-01   4.2917041e-01   4.4001890e-01   7.3769970e-01  -6.8764974e-01   2.5667271e-01  -8.3123031e-01  -5.8801542e-01   5.9406142e-01  -3.3891729e-01   5.1857956e-01  -9.5944149e-01   7.7431078e-01   5.6280802e-02   5.2351229e-01   1.5503491e-01  -4.8672294e-01  -6.0955889e-01  -4.7612949e-01  -7.7866167e-01  -6.0005408e-01   9.4245938e-01   7.1402001e-01   3.0854424e-01  -1.3780033e-01   7.6625965e-01   8.2725457e-01   2.2427052e-01  -8.0925381e-01  -2.5017202e-01  -2.6695631e-01  -4.4034472e-01   6.5387639e-01   6.5440858e-04  -6.5624041e-01   1.4218191e-01   4.0301780e-01  -1.1838209e-01  -2.5108880e-01   1.8594942e-01   8.6472782e-02   8.2353810e-01  -2.4919615e-01   8.7722961e-01   2.0045457e-01   7.5749270e-01   5.5092661e-01   4.0524875e-01   6.7242978e-01  -8.7850114e-01   5.7019553e-01   9.1203643e-02  -4.6902679e-02   5.7979242e-01   3.0030911e-01  -1.4404833e-01  -2.9956353e-02  -3.7893894e-01  -4.4796178e-01   3.9148778e-01   4.0114977e-01   5.2595422e-01  -1.3179251e-01   2.6206778e-01   5.7431184e-01  -3.3032005e-01   8.9040951e-01   8.0248353e-01  -7.7459978e-02   7.9418617e-01   8.3481388e-01  -3.6510824e-01  -3.8863403e-01   3.4518268e-01   1.3310936e-01  -7.8362813e-01  -1.4159296e-02  -9.3176802e-01   9.3921813e-01   4.5843548e-01   7.6735269e-01  -4.3248120e-01  -7.8012515e-01   4.8417612e-01  -4.1362186e-01   7.8692360e-01  -7.6189620e-01  -4.9340617e-01  -4.8996954e-02  -4.6807858e-01   2.9031475e-02  -6.0009936e-02  -1.3203362e-01  -6.0380912e-01   9.5412566e-01   7.7822525e-01   2.3357516e-01   5.0462729e-01  -9.3445130e-01   4.7406887e-01  -6.0895335e-01   7.7536853e-01  -2.2283036e-01   6.4212444e-01  -5.4209953e-01  -1.3944109e-01   5.1135184e-01  -6.1108583e-01  -8.2569404e-02  -4.1641522e-01  -4.6187618e-01   5.6555128e-02   9.1619861e-01  -1.3540583e-01   7.2504871e-01   9.1704080e-02   3.0700986e-01   8.4460018e-01  -3.9240722e-01  -5.1471923e-01   1.6795644e-01  -7.6776251e-01   5.7755812e-01   9.5994503e-01  -9.3571806e-01  -8.4069869e-01  -9.9216796e-01   4.8883164e-02   9.5115136e-01  -3.6856347e-01  -4.7384908e-01   9.5156954e-01  -5.3074973e-01  -1.4476080e-01   8.5263111e-01   9.6885443e-01   9.3625032e-01   3.4894580e-01  -4.7985094e-01   3.8788209e-01  -9.3401981e-01   3.3645677e-01   9.0488551e-01  -7.9624031e-01   7.3349529e-01   6.4935980e-01   3.7791293e-01   7.6039286e-01  -3.3882548e-01   6.3993799e-01   3.8362889e-01  -1.8094999e-01   1.8470060e-01   3.9427092e-02  -9.9384212e-01   8.0164545e-01  -8.2732088e-01  -5.4898129e-01   8.6525086e-02   4.1155002e-01   4.0057386e-01  -1.8572885e-01  -6.6169148e-01  -8.1030216e-01   3.2245368e-01  -9.9065303e-01   3.7110218e-01   2.7485485e-01  -5.1743891e-01   1.8783238e-01   1.4502663e-01  -3.0477713e-01   4.2259174e-02  -7.3545149e-01  -4.5357317e-03   8.6786399e-01   7.9701827e-01  -4.0108596e-01   9.9573333e-01  -4.5085307e-01  -6.1056738e-01   4.0701385e-01  -8.7716979e-01  -2.6576384e-01  -1.9020752e-01   2.0345416e-01  -6.9105708e-01  -1.8603433e-01   8.8307812e-01   4.6345102e-01   2.1337634e-01   1.3879749e-01   9.5577069e-01   3.6840068e-01  -2.1959819e-01   4.7408015e-01   7.8399343e-01   2.0308512e-01   5.2454195e-01   1.1517151e-01  -6.2805669e-01   9.1036057e-01  -7.3672165e-01   6.2471522e-01  -4.1322796e-01  -8.0156664e-01   7.9067592e-01   4.7926510e-01  -1.5716266e-01   1.7035906e-01   6.1980055e-01   7.5666721e-01   2.8831525e-01  -2.4779577e-01  -9.2153299e-01   9.2132988e-01  -2.1102455e-01   4.0298630e-01  -8.7180974e-01   6.6372806e-01  -8.3258232e-01   3.5615326e-02  -8.4433576e-01  -6.4171292e-01  -1.0308628e-01   2.3419776e-01  -3.4010877e-01  -4.7026787e-01   5.6420377e-01  -6.8126814e-01  -5.0038731e-01   8.1900658e-01   7.4674141e-01  -4.5835431e-01   7.7775650e-01  -3.8555784e-01   4.8756989e-01  -4.4296695e-01   7.7618900e-01  -5.5004931e-01  -8.0769216e-01  -3.5877455e-01   6.3559341e-01  -1.2350478e-01   6.8692390e-01   1.8279583e-01  -4.0723230e-01  -6.8429509e-01   4.8971861e-01  -7.6638500e-02  -3.3436223e-01   2.8485530e-01   5.0585431e-01   5.5108998e-01   6.2912692e-01
  -9.6556510e-01   5.7222621e-01  -8.4620560e-01   8.7312383e-01   8.7690312e-01  -9.6327335e-02   8.1096778e-03  -6.4285918e-01   1.5185270e-01   9.4738285e-01   9.9154559e-01   9.9317248e-01   7.6075822e-01  -3.0515662e-01   5.3306679e-01  -2.2301687e-01  -3.2927421e-01   9.9402831e-01   3.4685351e-01   7.1297540e-01   2.6634760e-01  -9.7702323e-01  -6.6213193e-01   7.8809904e-01  -7.8128805e-01  -2.7184812e-01  -1.7822510e-01   4.3917568e-01   8.7578494e-01   2.0120896e-01  -9.9447799e-01   4.8704612e-01   6.9444664e-01   4.5344541e-01  -8.3092366e-01   7.8860352e-01  -1.0607054e-01  -4.0004898e-01  -3.6281062e-01   2.3207139e-01  -5.3951861e-01  -6.0132035e-01  -9.6097030e-01   7.7875508e-01  -7.5599787e-01  -6.9529366e-01  -2.5086606e-01  -5.1960885e-01   4.5054027e-01   5.2919052e-01   4.8281962e-01   3.7199790e-01   5.1286255e-01   1.1166818e-01  -9.4387132e-01  -9.6598764e-01  -1.1397417e-01  -1.3764931e-01   7.9500858e-01   9.3464210e-01  -7.8350973e-01   4.1170537e-01   7.1366640e-02  -7.5245799e-01  -9.8049460e-01  -8.4301417e-01  -6.6172291e-01  -7.0952351e-01  -1.8023322e-01   6.6298450e-01  -4.4777395e-01  -9.0108876e-01  -3.5696505e-01   8.0253679e-01  -9.0394059e-01  -1.2153835e-01   4.7087780e-02  -4.3769996e-02   6.4487228e-01  -2.2890815e-01   5.5461201e-01  -1.0572179e-01   6.5754731e-01  -1.0466081e-01   9.3591660e-01  -5.5645581e-01   7.2888311e-01  -3.0581688e-01   9.7316250e-02   8.9650599e-01  -7.5260699e-02   6.6152017e-01  -8.4280055e-01   9.4512069e-01   8.7231864e-01   8.0146522e-01  -4.1453702e-01  -1.5833006e-01  -4.3974166e-01  -7.1518324e-01  -5.2021371e-01   2.6287978e-01   2.6448977e-01  -2.4161549e-02   1.3527965e-01  -3.9253728e-01  -7.2795364e-03  -8.0682396e-01  -9.6857493e-01   4.2187363e-01  -3.0433365e-01   8.9318169e-01   3.9468853e-03   7.4477090e-01  -1.1228543e-01   5.6729558e-01   3.0264874e-01  -2.9373801e-01   5.1899198e-01   4.0850883e-01   8.6425193e-01  -2.8529251e-01  -4.3158812e-01  -7.7035891e-01  -7.7612681e-01   8.7335574e-02  -8.4367648e-01   3.4306263e-01   3.5541011e-01   7.7537212e-01   3.3026771e-01  -7.7970420e-01  -1.5588058e-01   9.3401667e-01  -4.5968423e-01   9.0308234e-01   2.7623179e-02   9.0730077e-01   3.2331480e-01  -4.7497583e-01   5.6374388e-01  -4.4001432e-01  -2.0582261e-01   7.1837277e-01   6.1424262e-01  -5.8386023e-01   6.3869268e-01  -7.1095526e-01   1.3462169e-01   1.6455297e-01   7.0939883e-01   1.1514074e-01   2.7746410e-01  -7.4275514e-01  -1.1979470e-01  -8.0992415e-01   3.8172929e-02  -1.4716242e-01   6.8502723e-01  -2.1712786e-01  -9.9434062e-02   9.1453436e-01  -2.6915334e-02  -1.4710783e-01   5.5093875e-01   1.1357944e-01  -9.6160974e-01   9.8650045e-01   9.9865843e-01  -5.1456092e-01  -7.9010979e-02  -6.8719991e-01  -4.3552338e-01   3.9760611e-01   5.3118012e-01  -5.9582323e-01  -1.1820239e-01   4.7761716e-01   2.1349062e-01   3.1429347e-01   2.3357387e-01  -2.0747501e-02   1.8652857e-01  -8.1088284e-01   4.9809958e-01   1.0411856e-01   6.4512325e-02   4.8916583e-01   7.6325286e-01   4.9633579e-01   7.5539305e-01   8.6357289e-01   2.8028556e-01  -9.0870946e-01  -8.4619080e-02  -2.4945723e-01  -8.4772257e-01  -6.3174071e-01  -8.4614922e-01  -6.1481656e-01   7.5886405e-01   5.8249517e-01   7.7345107e-01   5.5280504e-02  -2.0274772e-01   3.5460574e-01  -7.2532947e-01   3.9064379e-01  -7.0675573e-01  -3.2031247e-01  -8.7313044e-01   1.2733274e-01   9.6719719e-03  -1.5651513e-01  -8.9643723e-01  -5.0945515e-01   7.9535105e-01  -3.3975251e-01  -9.1531345e-01   5.2684550e-01   2.1518332e-01  -7.6993668e-02  -8.4871997e-01   2.2711969e-01   7.1660606e-02  -3.9947133e-01  -7.1046331e-02   5.7872071e-01  -3.7947956e-01  -7.8825354e-01   4.6127357e-01  -9.2675291e-01  -7.5782066e-01   8.7649305e-01   4.8248292e-01   8.0622823e-01  -4.2321990e-01  -7.7715457e-01  -8.6114571e-01   4.5099401e-01  -6.3742294e-01  -7.4445075e-01  -4.9248386e-01  -3.0325053e-01   5.8676366e-01  -3.7425690e-01  -8.6034185e-01  -1.9801929e-01   4.4204289e-01  -9.5259313e-01   9.7797993e-01   2.6931616e-02   8.1350363e-01  -7.7236036e-01  -2.9929451e-01  -7.6147400e-02  -4.3889048e-01  -6.5586437e-01  -9.3541162e-01   5.1778647e-01  -8.6026713e-01   8.0564701e-01   4.1303581e-01  -6.9577045e-01   4.7017441e-01   6.2210911e-01  -9.0492503e-01   2.8575319e-02  -9.6054352e-01  -3.4389040e-01   3.9289811e-01   9.2806642e-01  -4.0845001e-01   7.8287897e-01  -8.7044417e-02   7.2373441e-01   2.6680130e-01  -7.3086286e-01   7.5124492e-01  -6.5088924e-02  -6.5869978e-02  -3.6693342e-01  -6.7613262e-01  -3.6766486e-01  -8.3950429e-01  -1.9756755e-01   9.9658844e-01  -2.9314834e-01   2.3404374e-01   5.5791184e-01   6.4543685e-01  -6.3483935e-01   5.6857534e-01  -9.2563022e-01  -1.3052143e-01   7.8271179e-01   6.8036989e-01   5.5606460e-01  -5.1386445e-01  -2.7267268e-01   6.8873734e-01   8.1810300e-01  -2.7291499e-01   2.2380106e-04  -1.7015298e-01  -4.2724403e-01  -4.4492767e-01   7.5136689e-02  -8.2795895e-01   6.6912410e-01   2.3712729e-01  -8.1930652e-02  -1.5885724e-01  -5.2532255e-02  -9.8922156e-01  -3.4025730e-02   4.0419718e-01   7.7426761e-01   5.7563591e-01  -5.9037561e-01   6.4573969e-01  -3.7322836e-01   5.2733895e-01  -9.9209729e-01  -1.2727650e-01  -5.7912553e-01  -3.3382102e-02  -5.0760865e-01   1.0933291e-02   2.8001338e-01   6.8497075e-01   3.8894777e-01   3.4566372e-01  -7.1174170e-01  -5.4148691e-01  -7.0350160e-01  -3.0274793e-01   4.2933994e-01  -8.2511362e-01   1.5127748e-01  -6.0173915e-02   6.9242871e-01   5.6516383e-01  -7.5634989e-01   4.4494054e-01  -8.1508274e-01   9.9383091e-01  -7.4781314e-01  -5.1680247e-01   9.7833113e-01  -8.5442569e-01   9.3571788e-01   5.4405783e-01  -6.4964799e-01  -3.7465753e-01   7.6465916e-01  -1.3449570e-02   2.2120960e-01  -1.0109157e-02  -8.5295447e-01  -2.8991158e-01  -2.1646162e-02   5.6490136e-01  -1.8584422e-01  -8.3948042e-01   3.8316779e-01   4.4477524e-01   2.0681386e-01   6.4185374e-01   4.6088567e-02  -4.4963821e-01   9.5642930e-02  -6.7169368e-01  -7.2879564e-01   7.7858798e-01   8.5535925e-01  -9.9532618e-01   2.9557029e-01   6.3691970e-01  -4.1591110e-01   6.9543543e-02  -6.4581991e-02   6.2740539e-01   1.9423431e-01   2.5205516e-01   1.5642790e-01   9.5553109e-01  -2.8868766e-01  -5.2987914e-01  -3.6137185e-01  -7.8025268e-01   1.2308730e-01  -4.8782220e-01  -4.3976714e-01   1.5773310e-01   3.4050330e-01  -5.6081285e-02  -6.1637059e-01   5.0968128e-01  -1.4137373e-01   5.0156477e-01   2.8446217e-01  -3.1258182e-01  -9.2986412e-01  -5.4600804e-01  -5.3074851e-03  -9.2982500e-01  -1.5525525e-01  -2.0986246e-01  -1.5685498e-01  -8.2416050e-01   1.3043907e-01  -8.7928385e-01   2.6276031e-01   3.8007033e-02  -8.7295914e-01  -4.3416877e-02  -7.1450341e-01   1.7799394e-01  -4.3903173e-01   8.8016930e-01   6.0222971e-01   3.0996963e-01  -4.5032671e-01  -1.5210257e-01   3.4056825e-01   2.5424434e-01   1.4421906e-01   9.8434520e-01   7.5955403e-01   7.9029660e-02  -3.1628911e-01   7.9864597e-01  -9.8751445e-01  -1.3377121e-01  -3.6771449e-01  -9.8277608e-01  -1.1224489e-01   3.1973097e-01   3.0998801e-01  -8.7009982e-01   1.5735535e-01  -8.1321045e-01  -9.9504506e-01  -4.4252255e-01   2.8426672e-01   3.1041431e-01  -9.3828476e-01   6.4878371e-01   5.9461940e-01  -3.7285869e-01  -1.8051864e-01  -8.6547725e-01  -7.7872737e-01   4.4391352e-01  -4.2504345e-01  -2.5270048e-01   9.5273944e-01   4.6111470e-01   9.7726123e-01   7.6036457e-01   2.4321178e-01   1.4419027e-01   8.3821119e-01   8.8680287e-01   9.7461838e-01   8.4220231e-01  -9.2911816e-01  -7.0963126e-01  -2.7894741e-01   9.6214463e-01  -5.4997556e-01   2.9540567e-01   4.9154452e-01   4.1745037e-01  -2.1065243e-01   9.2840919e-01  -4.9441490e-01  -7.6056978e-01  -1.9223543e-01   2.1409757e-01   1.3060811e-01  -2.5545191e-01   3.0445648e-01  -6.8275190e-01  -2.5749937e-01  -4.8974905e-01   5.9207679e-01   5.8756055e-01   1.5220222e-01  -3.0083266e-01  -6.1159714e-01  -5.4753596e-01   8.4833346e-01   3.9968989e-02   8.8116310e-01   5.7731074e-01   9.3342959e-01   7.2757063e-01  -3.2509337e-01   8.2397519e-01   2.5187297e-01  -6.6903946e-01  -1.8157281e-01   4.7583739e-01  -9.8193362e-01   9.4473875e-01  -8.8103822e-01   3.0861452e-01  -7.3682461e-01  -8.3936665e-01  -6.0114717e-01   3.4168820e-01  -4.7717498e-01  -8.2710342e-01  -2.2833412e-01   1.5991289e-01   9.7704586e-01  -5.3046529e-04   8.7802791e-02   5.9011884e-01  -1.3070059e-01   9.6559830e-01   2.4591026e-01  -9.9367173e-01  -9.9253193e-01   2.3954413e-01  -4.5011907e-01  -6.4792908e-01  -7.4910822e-01   6.6913544e-01   6.1991266e-01   7.2842073e-01   9.1916190e-01   2.3018390e-01   8.1150309e-01  -3.4774992e-01  -7.7836006e-01   8.3762297e-01  -5.7998701e-01   4.9854362e-01   4.0002675e-02   8.4801461e-01   2.5208434e-01   6.4138746e-01  -3.1797231e-01   7.2874770e-01   6.9020365e-01   7.8894076e-01  -1.2595978e-01   4.7278783e-01  -3.1522631e-01   8.7967024e-01   4.7935487e-03   4.5370360e-01   7.2793837e-01  -8.5217349e-01   7.1149308e-01   8.2318091e-01   8.3203243e-01   8.7091875e-01  -6.9136295e-01  -6.3223619e-01  -7.8279096e-01  -7.7057462e-01  -6.7894222e-01   5.3861368e-01   1.5024040e-01   4.6885704e-01  -6.1976424e-01   7.8446508e-01   2.5104603e-01  -7.3996434e-02   7.4071023e-01   5.6380898e-01   4.7003929e-01  -7.8315781e-01   2.7351971e-01  -4.6543469e-01   5.4256699e-01   1.2559810e-01  -6.8280834e-01   3.0946928e-02  -1.3700940e-01   2.1723875e-01  -6.2359721e-01   4.0226229e-01  -6.1371547e-02   5.5245365e-02  -6.5103218e-01  -2.2542008e-01   8.4078141e-01  -9.5974282e-01  -8.6895754e-01  -7.4787768e-02   2.7221991e-01  -4.0858159e-02  -2.4131473e-01   9.6028518e-01  -9.2685052e-01  -1.8141545e-01  -5.9688643e-01   7.5319119e-01  -2.8155791e-01  -4.8626061e-01  -1.6301366e-01  -6.5388416e-01  -1.5366281e-01  -1.7667293e-01  -7.4924216e-01  -1.8143142e-01  -8.2445558e-01  -2.0363179e-01   2.1693975e-01  -8.3801295e-01  -9.7867283e-01   1.1307000e-01   7.6911432e-01  -2.5063683e-01  -6.3915088e-01  -5.1808482e-01  -2.6128805e-02  -3.1537129e-02  -7.3291661e-01  -9.3210407e-01  -3.0826214e-02   2.5942107e-01  -6.6428281e-01  -9.0791485e-01  -6.2309204e-01   9.2415012e-01   5.2046831e-01   6.7707316e-01  -1.8542079e-01   3.5380327e-01   1.2764109e-01  -1.0159613e-01   9.0554762e-01  -2.7619704e-01  -5.6307939e-01   2.2891181e-01  -9.9582461e-01   7.6401405e-01   6.9546226e-01   6.9845389e-01   6.7633126e-01  -4.9297606e-01  -5.1691853e-01   8.2364485e-01  -4.8110522e-01  -5.6165847e-01  -7.6939113e-01  -3.9703853e-01  -7.9112794e-01  -3.2969992e-01  -6.7331143e-01   7.3397276e-01  -7.8428875e-01  -2.4259148e-01   9.3898343e-01   4.1432727e-01  -8.7597236e-02  -1.6161110e-01  -5.9164222e-01  -1.7135112e-01   3.2708020e-01  -4.1327701e-01  -8.2703105e-01   9.1569288e-01  -5.4607524e-01   8.1609966e-01   1.4842000e-01  -6.6708407e-01  -7.0283511e-01  -4.9607311e-01   1.6472761e-01  -7.6596617e-01   8.0349077e-01   8.5889017e-01  -1.0010500e-01  -2.9409337e-01  -5.6489432e-01  -9.2547455e-01  -5.7114069e-01  -4.1562352e-01  -3.5226979e-01   6.4947408e-02  -4.0197283e-01  -8.0798366e-01  -4.2379710e-01   7.1354359e-01  -4.4191310e-01   9.6611767e-01   9.5006105e-02   9.6210769e-01   8.4335967e-01  -5.0202486e-01  -2.1107696e-01   1.0625949e-01  -4.4564107e-01  -5.9678867e-01   8.9231069e-01  -4.2684546e-01   4.9147497e-01  -5.2615357e-01  -2.5238027e-02  -5.4340465e-01  -3.7055215e-01   9.4731260e-01  -6.8746250e-01   7.9238592e-02  -6.1257538e-01  -4.1073440e-01  -2.1364202e-01   1.4462103e-01   2.0302119e-01   4.0355709e-01   5.1695284e-01  -4.2376073e-01   7.5660503e-01  -6.5522546e-02  -2.8050409e-01  -9.0484138e-01  -2.9523565e-01   1.3920922e-01   9.1856669e-02  -9.8310742e-02   3.1199340e-01  -8.9813574e-01  -9.3251494e-01  -7.8705589e-01   5.0941187e-02   3.4733617e-01   4.6518653e-02   7.7274642e-01  -5.1525893e-01  -6.3977167e-01   6.5929287e-01   6.0216952e-01   7.7231623e-01   6.4418169e-01   6.7768163e-01  -4.8190455e-01  -7.7453363e-01  -8.2958613e-01  -2.3208578e-01  -3.9691679e-01   9.2643567e-02  -7.0202023e-01   8.1058581e-01  -3.5893257e-01   4.4704212e-01   1.5650494e-01   1.5437813e-01   8.4008045e-01  -6.4208954e-01  -7.0622923e-02  -3.0298201e-01  -1.0553067e-01  -3.2759900e-01  -5.4195462e-01   4.5933689e-01  -1.5091797e-01   4.4086551e-01  -8.7780699e-01  -2.7819273e-01  -2.5164499e-01  -7.1507829e-01  -1.8034682e-01   8.4867166e-01  -3.3031007e-01  -8.3733388e-01  -4.3311581e-01  -7.6893958e-01   4.3317420e-01  -5.6819921e-01  -2.0109706e-01  -3.0218388e-01  -5.0559030e-01  -7.1198258e-01   6.4090503e-01  -5.8848742e-01  -4.9209477e-01  -6.0089222e-01  -8.1700662e-01   9.7174039e-01  -4.5048962e-01  -1.7147050e-01   8.2566038e-01  -6.6369004e-01  -4.3702807e-01  -5.5014398e-01   4.7372566e-01   5.7574591e-01   2.5502254e-01  -2.3497426e-01  -7.6425204e-01  -5.5370801e-01   3.3473327e-01  -6.7685900e-01   1.4828048e-01  -7.0231244e-01   6.1979965e-01   8.0642780e-01   8.5621083e-01  -5.9865160e-01  -1.5332895e-01  -7.4797840e-01   9.1707990e-01   5.8290755e-01   5.9818489e-01   8.8808902e-01  -9.7176555e-01   1.7194826e-01   6.2879321e-01   1.2849434e-01   5.5589203e-01  -7.7078330e-01  -7.4140816e-02   7.5513380e-01   1.5437516e-01   8.9346113e-01   3.7756251e-01  -8.8993400e-01   2.1561203e-01   7.8125169e-01  -2.4965740e-01  -1.7039158e-01   2.7451823e-01   2.5982184e-02   2.1228675e-01  -8.4536336e-01  -2.4193935e-01   3.3654279e-01   3.4736461e-01  -9.6837462e-01  -6.0641868e-01  -6.2561864e-01   9.4763461e-01   7.4350762e-01  -7.7876449e-01   1.8124140e-01  -2.6438863e-01  -6.8344944e-01   8.9768180e-01  -3.9749281e-01  -5.6577229e-01   4.6108639e-01   5.5669748e-01  -2.4007192e-02   1.2277455e-01   1.7151976e-01  -2.0542705e-02   8.8193174e-01   6.9873262e-01   4.2540084e-01  -4.0693086e-01  -5.5680893e-01   1.8276115e-01  -2.0247286e-01  -4.6101301e-01   5.6554994e-01  -1.3165841e-01  -1.9982123e-01  -5.1954029e-01  -2.7032574e-01   9.6719934e-01  -5.3265220e-01   7.8964398e-02   6.7111737e-02   5.9470629e-01  -7.6336970e-01  -8.7767434e-01  -5.6714681e-01   3.5296009e-02  -6.3171278e-01   7.7987599e-01  -1.6087981e-01  -8.9589078e-01  -1.8013894e-02   8.0607356e-01  -1.8388375e-01   7.2031179e-01   9.8166861e-01  -8.2216074e-01   1.8199838e-01  -4.2649189e-01  -4.1239383e-01   3.5782589e-01   8.0478552e-01  -3.8901556e-01  -1.9032814e-01  -9.7455001e-01   5.6248608e-01   9.9466757e-01   8.0039729e-01   6.8350085e-01   7.5944708e-01   8.4195997e-01  -1.9650777e-01   9.7051191e-01   8.5222162e-01  -5.2938155e-01   6.5507092e-01  -1.8076858e-01  -4.7792174e-01  -5.5736096e-01  -4.9227845e-01  -1.4791117e-02  -1.5413197e-01   1.3764948e-01   7.1604431e-01  -2.9465686e-01   8.6438653e-01   4.4532391e-01  -1.5215036e-01  -3.6906958e-01   4.4776629e-01  -6.9796752e-01   3.1641799e-01   1.5009668e-01  -9.2584023e-01   9.4661713e-01  -9.9501179e-01   9.3485514e-01  -6.6337852e-01   1.3809152e-01   2.3011024e-01   7.1124605e-01   3.2913166e-01  -3.0251706e-01  -7.9076365e-01  -1.5976355e-01  -8.6296861e-01  -5.8530585e-01   6.6618091e-02  -6.1461189e-02   7.7012420e-01  -4.2199103e-01  -1.6565841e-01  -6.6775010e-01   4.0893686e-01   9.9881845e-01   1.9386475e-01   9.6791159e-02  -9.5998824e-01  -1.9218639e-01   3.4549352e-01  -3.2693964e-01   2.9529354e-01  -3.8496534e-01   1.5118454e-01  -9.1204979e-01   4.6795882e-02   2.2189882e-01   6.5085938e-01  -2.1319149e-01   6.9376766e-01   6.4941075e-01  -6.1538949e-01   9.5062899e-01   5.8414861e-01   6.8574258e-01  -7.9873565e-01  -6.3399615e-01  -2.8110217e-01  -1.0869250e-01  -6.0590162e-02   5.0672021e-01  -2.4338751e-01  -5.1449211e-01  -2.5436566e-01  -6.7609473e-02  -2.7061530e-01   2.5891075e-01   2.4746425e-01  -8.1520723e-01   9.4810853e-01   2.1437999e-03  -3.6842928e-01   1.2687908e-01  -5.4960885e-01   3.3912833e-01  -3.2346235e-01   8.6363860e-01  -3.2536202e-01   2.8548064e-02  -9.0389839e-01   6.2637452e-01   1.3726864e-01  -1.8745548e-01  -5.4370547e-02  -2.8618992e-01   4.5941157e-01   1.1843392e-01   4.1398969e-01  -7.2522677e-01   4.1460212e-01  -3.0694529e-01  -6.9087422e-01
   1.6764328e-01  -7.0584883e-01  -4.4968707e-01  -1.1155502e-02  -2.9219207e-01   7.2070128e-01   5.0640489e-02  -2.2669491e-03   4.7978839e-01  -3.3195337e-01  -8.2067024e-01  -7.1430553e-01   4.9997200e-01   8.2434147e-01  -4.6663790e-01  -9.3546498e-01  -9.9372277e-01   8.2933714e-01   7.3503280e-01   8.6321072e-02  -4.9051860e-01  -8.9491363e-01   1.6949588e-01   2.1491627e-01   4.5540697e-01  -4.8641607e-01  -6.4129225e-01  -9.7120871e-01  -9.5158061e-01   8.2730344e-01  -2.3167382e-01  -9.4877746e-01  -5.5795582e-01  -1.2175844e-01   9.8118262e-02   4.9051558e-01  -9.2652084e-01  -7.0531727e-01   6.7471257e-01   2.0119807e-02   6.9092377e-01  -8.8793541e-01   4.9896529e-01   8.5754149e-01  -3.8125928e-01  -3.5143110e-01   3.6679931e-01   1.8291409e-01   8.7612958e-01   5.5329254e-01  -9.8015148e-02  -1.6644968e-01  -7.0870023e-01  -3.1385298e-01  -2.0422801e-01   5.6040706e-01   3.3383513e-01   2.7626863e-01  -6.7273689e-01   6.1472012e-01  -5.9205738e-01   6.4416968e-01  -4.9797823e-01  -1.7007788e-01   4.2649560e-02   8.6610636e-01  -6.6876843e-01  -4.8346542e-01   8.3051739e-01   2.6867773e-03   1.5958097e-01  -8.9417407e-01   1.0855466e-01   6.0360313e-01  -3.0261982e-01   2.9701225e-01   3.0146238e-01  -1.3568069e-01  -9.8092931e-01  -1.0809727e-01   3.2680753e-01  -7.9591894e-01   1.6160584e-01   2.4803657e-01   8.1117684e-01  -2.6271074e-01   5.1272319e-01   2.8404623e-01  -4.0261186e-01  -2.5826581e-01  -8.1647496e-01  -6.9652774e-01  -3.1312294e-01   1.2033880e-01  -4.8607865e-01  -1.6967155e-01  -2.4882080e-01  -6.5532010e-01   6.2599025e-01   5.2837817e-01   9.8001973e-01   4.0861792e-01  -6.8169855e-02  -9.0049088e-01  -9.5340879e-02   1.2922791e-01  -1.7369599e-01   7.0381267e-01   7.6451109e-01   7.8631203e-02  -4.1922362e-01   7.8436774e-02  -4.4680354e-01  -1.3199103e-01   2.4101883e-01  -6.2589410e-01   5.6483156e-01  -2.9605842e-02  -5.0137003e-01  -2.7955437e-01   8.8081926e-01  -8.7647809e-01   9.6642563e-01  -2.1027542e-01  -4.9678860e-01  -1.9237696e-03  -4.6323664e-01   2.3961127e-01   8.5685057e-01  -3.3428917e-01  -9.4546303e-01   8.4651888e-01  -3.9756591e-01  -6.7726605e-01  -8.1733494e-01  -4.0116003e-01   7.7668959e-01   5.8516542e-02  -3.7452877e-02   5.9449652e-01  -3.9184490e-01  -9.2924094e-01   9.4582650e-01  -4.9094437e-01  -8.1756088e-01  -7.3239129e-01   4.2398030e-01   9.0995873e-01   1.7360888e-01   7.5652577e-01   1.6736987e-01  -1.4468901e-01   6.0368531e-01   9.9895985e-01   5.5126413e-01  -1.5929067e-01  -1.7736367e-01   5.5803169e-01   2.0001685e-01   6.1212175e-01   4.8943579e-01   6.2277316e-01  -7.3784033e-02  -9.4139917e-02   2.6250031e-01   4.5533048e-01  -8.4785644e-01   6.9231765e-01   4.2890139e-01  -6.3600457e-01   4.9742953e-01  -6.3179039e-01   5.1201853e-01  -7.0837019e-01  -3.6673342e-01   4.7688079e-01   3.8461636e-01  -6.2542406e-01  -5.7998357e-01  -3.0672536e-01  -2.9278148e-01   2.0232670e-01  -5.9182718e-01   6.8357846e-01  -3.0423247e-01   4.5526072e-01  -3.6440059e-01   3.4769569e-01   9.8208542e-01  -2.0784071e-01  -5.2150565e-01  -7.4968402e-01  -2.5735651e-01   1.9795367e-01  -2.4771365e-02   5.8611667e-01   3.7266919e-01   9.4449760e-02   5.7061713e-01   2.0728938e-01   4.4962634e-01   4.3070287e-01  -3.8214443e-01  -3.8758588e-01   8.5775299e-01  -2.4726434e-01   5.4550343e-01  -1.9291994e-01   2.3935899e-01  -9.6718175e-01  -4.9402345e-01   5.9599385e-01  -8.3474355e-01  -5.5854421e-01   7.7568015e-01  -6.5303176e-01   9.1646168e-01  -2.2139886e-02  -6.1956943e-01  -3.7666540e-01  -4.9714286e-01   6.2355766e-02  -2.2516919e-01   6.0306379e-01   7.8141682e-01   5.7488433e-01   2.9334259e-01   6.5277837e-01   2.8962799e-01  -9.3862086e-01  -1.1990046e-01  -5.8465691e-01   3.4901759e-01   3.4776025e-01   2.8711355e-01   3.0962632e-02   4.3127491e-01  -4.1284423e-01  -3.9081193e-01   7.5877249e-01  -5.9871611e-01  -9.2647468e-01   9.6598793e-01   7.7219544e-01   7.3357804e-01   1.4581662e-01  -9.3939215e-02   2.8600698e-02  -8.6993065e-01   7.9001778e-01  -6.1402295e-01   5.9753380e-01  -5.8361951e-01   6.3566553e-01   3.0692278e-01  -3.4048682e-01   2.6879217e-01  -4.8219293e-01  -1.3306296e-01  -4.2364088e-01   6.7638211e-01  -3.5824654e-01  -8.9601794e-01  -5.9874782e-01  -2.4323877e-01  -2.2859761e-01   1.8451464e-02  -5.1513632e-01  -6.4675966e-02   3.5533462e-01  -4.1981312e-01  -1.3876840e-01  -4.8106214e-01   1.2414042e-01   9.2057254e-02   4.3588702e-01  -5.0791469e-01   6.6376176e-01  -6.0457929e-01  -5.0335361e-01   7.2677400e-01  -4.0117944e-01  -5.3729372e-01  -4.6306765e-01  -5.5916246e-02   3.0037700e-01   7.2535191e-01  -1.0261070e-01   3.2687454e-01  -9.1407012e-01  -4.7421811e-01  -3.9024096e-01  -4.7706903e-01  -7.7233070e-02   1.0651201e-01  -7.1667327e-01  -5.4566766e-01  -4.5756404e-01   8.8380731e-01  -4.0820970e-01  -8.1759106e-01   5.1454154e-01  -7.9087205e-01  -7.1811965e-01   2.3308488e-01  -6.4464120e-01  -2.1056078e-01  -1.6315767e-01  -5.4923699e-01  -1.0637170e-01   3.7824409e-01   6.7581452e-01  -2.8160362e-01   4.9921733e-01  -4.4669757e-01  -5.4396787e-01   9.4558309e-01   7.2838532e-01   9.0022053e-01  -9.4073668e-01   8.2220607e-01  -3.4101759e-01  -3.3813539e-01  -4.8071507e-01   3.4929934e-01  -1.0329955e-01   7.0470260e-01   2.7239779e-01   7.2197668e-01   1.3930513e-01   3.7247346e-01   6.9618212e-02  -3.4700201e-01   8.1323454e-01  -2.9798212e-01  -7.3596224e-01   3.0730728e-01   8.3022092e-01  -4.2898044e-01   5.8483790e-01  -8.8785940e-01  -6.5229749e-01   2.1962881e-01   1.5129216e-01  -2.2658882e-01  -4.6177985e-01   8.9166764e-01   6.1445754e-01  -7.1305942e-01  -7.1245895e-01  -9.6402991e-01   2.1508847e-01   4.4703806e-01  -7.9612894e-01   1.6224448e-01  -2.5529059e-02   2.5941485e-02  -2.7758240e-01   8.7097637e-02   4.1561584e-01  -6.2689988e-01  -2.3559436e-01   6.5767149e-02  -5.7716119e-02   8.1129075e-01  -2.8030258e-01   2.9364619e-01  -1.0664926e-03   4.0405779e-02  -1.3156974e-01  -3.7683089e-01   3.0274186e-02  -9.9178588e-01  -4.6255880e-01  -2.2928398e-01  -4.9129279e-01   1.6782610e-01  -7.4870850e-01   4.8866378e-01   2.3473527e-01  -2.4094503e-01  -9.0981919e-01  -2.8732751e-01   3.8312487e-01  -2.8609348e-01   6.2317209e-01  -9.2586408e-01  -5.5776965e-01   8.8616240e-01   8.1499189e-01  -8.1752483e-01   3.3247582e-01   3.2637999e-01  -3.4965983e-01  -2.1695452e-01  -9.6902715e-01  -5.7297160e-01   1.9058986e-01  -8.8551548e-02  -3.9581298e-01  -4.8183835e-01  -6.6533441e-01  -8.4071039e-01   3.2459008e-01  -1.0577162e-01  -6.3534635e-02  -4.7982524e-01  -3.5184615e-01  -8.4637615e-01   1.5430088e-03  -7.7750304e-01   7.6095793e-02  -4.5961899e-01   7.4889226e-01  -8.0377489e-01   7.0573503e-01   2.5974476e-01  -2.0765061e-01  -7.3910198e-02   5.8085176e-01  -6.6288577e-01  -7.5617162e-02   5.5937563e-01   7.8847824e-01  -9.1780624e-01  -5.5588298e-01  -3.0561541e-01   8.3846128e-01  -5.9328782e-01   2.4221491e-01  -3.2089287e-01   1.8029604e-01  -8.4182812e-01   5.4675070e-01  -8.7423280e-01   7.9695113e-02   3.0036949e-01   8.0607545e-01   3.2998986e-01   6.6544004e-01  -9.0559446e-01  -2.8957029e-01  -2.0163687e-01   7.8570989e-01   2.3113353e-01   5.0128357e-01   7.9793434e-01  -5.2531366e-01  -3.4525211e-01  -3.6506117e-01   7.8200382e-01  -4.7846647e-01  -5.0400879e-01   5.4857079e-01  -4.1661022e-01   2.5671891e-01   5.2154662e-01  -9.4486092e-01   9.5725709e-01   9.3468875e-02   7.4120779e-01  -4.9287371e-03   6.2247559e-01   5.3848053e-01   1.7696202e-01  -5.5281393e-01   8.2302797e-01   3.2622074e-01   8.0815568e-01  -6.2193567e-01  -3.3824123e-01   9.8419162e-01  -4.3751325e-01  -5.0515809e-01  -4.3968076e-01  -4.1202186e-01   9.1006391e-01   2.1459952e-02   3.9355494e-01  -1.4205386e-01   3.2275839e-01  -4.8383916e-02   2.6111782e-01  -9.6782798e-01  -4.4006074e-01   9.2201938e-02  -1.8994260e-01  -8.4418908e-01  -9.6437836e-02  -8.1392469e-01   1.4329427e-01  -5.9060088e-01   9.0158216e-01   5.8524976e-01   2.0169696e-01  -4.7318282e-01   8.9980215e-01  -4.3744256e-01   9.2154081e-01   5.4237057e-01  -3.0425932e-01  -2.0546641e-01  -5.8501362e-01   9.3475098e-01   9.7144552e-02   2.4097770e-01   1.9677735e-01  -9.7363566e-01  -5.6433357e-01   2.3467948e-01  -5.4092658e-01   7.1179058e-01   9.0659832e-02  -3.0521034e-01   3.8631939e-01  -5.1761462e-01  -3.7096637e-01  -3.4990116e-01   5.5893356e-01  -4.0632072e-01   7.5764323e-02  -4.9615412e-01   2.6395628e-01  -3.5566802e-01  -2.1538958e-01   7.7337628e-01  -8.0370456e-01   2.0952921e-01   4.7945332e-01  -8.1737893e-01  -5.7480177e-02  -4.1217407e-01  -6.1075670e-01   4.2357304e-01   8.6708134e-01   7.6381363e-01  -4.8376740e-02   7.9406670e-01   3.5700293e-01   9.8866553e-01  -4.7645539e-01  -6.2983260e-01  -6.3671357e-01  -2.5246384e-01  -3.5552492e-01   1.5239472e-01   4.5429078e-02   4.0555908e-01   6.2898025e-01  -4.5544552e-01  -4.5166222e-01   8.6016463e-01   9.7670865e-02  -4.2657296e-01   3.1412834e-01   7.9400197e-02   8.2548608e-01   8.8025769e-01   2.0340851e-01  -7.2895810e-01   8.8373079e-01   4.6432802e-01   9.9510505e-02  -1.1439383e-01   2.6884074e-01   8.0535988e-01   8.0436471e-01  -1.8371948e-01  -8.4529814e-01   3.5321983e-01  -2.1617931e-01   2.1574481e-02   7.4346690e-01  -9.7230221e-01  -4.9395467e-01  -2.5794313e-01   4.6115720e-01   5.4058238e-01  -4.2137562e-01  -6.4205972e-01  -4.7440732e-01  -3.9597963e-01   1.5335448e-01   8.8231893e-01  -2.7063489e-01   5.3864242e-02  -2.0921312e-01   5.5433535e-02  -1.5331075e-01  -4.7062095e-01   4.6893973e-01  -8.7557907e-01   2.2383268e-01  -1.0559330e-01  -7.0087188e-01   1.8345832e-02   8.4589074e-02  -3.3577824e-01   8.2076153e-01  -3.5870236e-01  -1.1590634e-01  -6.6045485e-01  -3.5668036e-01   9.5032317e-01   8.1219651e-01  -8.1786910e-01   2.9793334e-01   5.4637696e-01   2.4885957e-01   8.3219684e-01  -4.7202397e-01   8.1168066e-01  -5.2138526e-01  -2.5159016e-01   3.8933906e-01  -6.6260316e-01   1.1331607e-01  -9.1897618e-02  -4.5142208e-01  -2.4141912e-01   4.8986342e-01   9.2999783e-01   4.9897030e-01   4.0962750e-01  -3.9422625e-01   3.7284660e-01   4.2208829e-01  -7.4897124e-02   5.5552348e-01   7.6689426e-01  -2.6097452e-01   8.8017010e-01   5.1741573e-01  -7.1504519e-02   4.6522663e-03   5.9043728e-02   8.4403306e-01  -8.4948267e-01   8.2802411e-01   9.0677311e-01  -2.0807165e-01   7.8056988e-01  -9.6422878e-01   2.3854515e-01   4.5667578e-01  -9.1764123e-01  -7.9879764e-01  -9.0453295e-01  -4.9193377e-01   8.9401006e-01   7.0092008e-01   1.6843518e-01  -5.9802334e-01  -1.6140392e-01  -8.1626286e-01   3.0060737e-01   1.3563862e-01   2.0669270e-01   7.6205445e-01  -1.4154144e-01  -7.4518620e-01   8.5664320e-01  -8.3632050e-01  -9.1610572e-01   5.2367065e-01   9.3112659e-01   2.0456332e-01  -7.1626712e-01   8.8477950e-01   5.6617556e-01  -3.7273266e-01   5.0900815e-01  -7.0176375e-01  -8.8561762e-01  -4.6115995e-01  -8.6007907e-01  -6.5968878e-01  -2.0406461e-01   8.5317306e-01  -7.5973672e-01   3.6657258e-01  -1.0258379e-01  -8.5502854e-01  -7.0669182e-01   7.0703851e-01   1.4422911e-01  -5.8049824e-01   9.3206968e-01   3.0358298e-01  -2.3118634e-01  -5.0500527e-01   4.2673182e-01   3.0549418e-01  -2.3098777e-01  -7.5432284e-01  -9.3334263e-01   4.1765326e-02   1.6849735e-01  -4.6833756e-01  -4.4513042e-01   9.9538004e-01  -4.1225432e-01   1.3970966e-01   5.3491291e-01   9.8336054e-01  -5.9455117e-01  -4.5859560e-01  -3.7497245e-01  -6.6960515e-01  -6.9024486e-01  -1.8043495e-01  -1.1204086e-01  -8.0064662e-01  -9.7416868e-01   8.7748723e-01   7.2505815e-01  -2.4325072e-01   7.8247911e-01  -5.2759325e-01   3.6781608e-01   6.1247644e-01  -8.3616011e-01   8.3400472e-01   9.8233494e-01  -9.6742926e-01  -8.1479667e-01   9.2109854e-01   4.5839327e-01   3.8533531e-01   5.4349450e-01  -1.1510263e-02  -9.6158768e-01  -6.1751973e-02   7.8087114e-01  -4.3910705e-01   2.7931993e-01   3.2815232e-01  -4.7730711e-01  -4.3803837e-01  -8.7633379e-01  -9.0635232e-01   6.4831692e-01   8.8834223e-01  -3.2824078e-01   8.9734912e-01  -8.2846583e-01  -7.7857221e-01   9.8733651e-01   8.0120675e-01   6.9897211e-01   6.0648198e-01  -7.7696733e-01   1.7158283e-01   6.5072271e-02  -6.1573094e-01  -8.3664593e-01   5.0821944e-01   2.9216619e-01   6.7747645e-01  -9.3893483e-01   5.3266122e-01  -6.0903104e-01   4.7601618e-01   1.5344690e-01  -4.4496478e-01  -9.1982116e-01  -9.2716456e-01   9.2222783e-01   7.1943070e-01   8.5582173e-01  -4.7317305e-01  -5.4393333e-01   9.3343972e-01   8.5118624e-01   8.0397500e-01  -8.2881405e-01   6.6608985e-01  -7.5710937e-01   1.2897814e-01   3.0607732e-01  -2.4269741e-01  -9.4225884e-01  -1.1124670e-01  -2.4449116e-01   8.4104128e-02  -5.9763656e-01   7.7824660e-01  -2.6717597e-01  -2.4924775e-01  -9.5835122e-01   5.4040709e-01  -8.0876893e-01  -6.4112831e-01   9.2736413e-01   2.1074291e-01  -4.6538394e-01  -4.2985504e-01  -1.0372294e-01   3.9918095e-01   4.9924473e-02  -8.8486644e-01   9.8933981e-01  -6.2461341e-01   4.2452997e-01   1.1497073e-01  -8.1596120e-01  -1.5379628e-01  -9.1259950e-01  -5.4891202e-02  -3.6281412e-01   2.0811296e-01   7.4504783e-01  -1.9792247e-01  -9.9371364e-01  -4.0230031e-02  -6.5422446e-01  -1.2619979e-01  -7.5509919e-01   9.3517296e-01  -7.7555792e-01   6.7567456e-01   1.8845861e-01   9.6909606e-01  -7.0667004e-01   4.7992225e-01   9.8348833e-01  -5.1443159e-01  -1.2757907e-01  -5.7002662e-01   9.1137652e-01   1.4524475e-02  -4.4338334e-01  -2.9936718e-01   4.8393960e-02  -2.9792518e-01  -1.2857373e-01  -9.3781732e-02   9.4428341e-01   5.1733387e-01  -5.5995118e-01  -8.9412488e-01  -5.4497888e-01  -1.8330776e-01   9.0821711e-01   3.8067248e-02   7.6499945e-02   4.5630286e-01  -4.3366691e-01   6.1351365e-01   7.8876413e-02  -7.9910426e-01   9.8569147e-01  -2.7242329e-01   5.5400554e-01  -8.8092809e-01  -5.6732148e-01   2.0106876e-01   7.0463348e-01   7.5317622e-01   3.5869266e-01   5.1172793e-01  -4.4777119e-01  -9.2485338e-01   1.6045309e-01   6.4382986e-01   5.0126355e-01  -7.5993367e-01  -7.8190597e-01   2.1166420e-03  -8.2457482e-01  -8.5217473e-01   6.3443112e-01   8.2476318e-01   1.1646741e-01  -8.3119022e-01   9.3422660e-01   4.8388146e-01   1.2406241e-01  -3.1739674e-01  -3.5349292e-01   1.5492156e-01   9.8347880e-01  -1.5519315e-02   4.2669829e-01  -3.6475888e-01  -7.0798140e-01   9.6864299e-01   2.5745497e-01   4.3696762e-01   1.4302389e-01  -3.7796279e-01   4.9545308e-01   3.6568054e-01   9.6308191e-01   1.8187953e-01   2.5290258e-01   8.3111734e-01   8.2338109e-01  -7.1500837e-01   5.6787502e-01  -6.7905241e-01  -7.6213275e-01  -6.8622005e-01  -6.7992952e-01   5.4111231e-01   4.8942952e-01  -2.2640301e-02  -7.6600033e-01   4.6681878e-01  -9.7620668e-02  -7.8836866e-01   3.2703622e-01  -7.2102453e-01   2.1322329e-01  -1.4256182e-01  -5.1515891e-01  -6.6298441e-01   5.9910725e-01  -4.5717208e-01  -3.9088200e-02   8.4113050e-02   4.3210231e-02  -9.0593967e-01   2.1953958e-01  -7.2856239e-01  -9.4358644e-01   9.5506758e-01  -9.7155531e-01  -4.2655519e-01   3.0020927e-01  -3.2703997e-01  -1.5509877e-01   3.0582560e-01   8.8211928e-02   7.4186920e-01  -2.8924281e-01  -3.9656028e-02  -4.8132051e-01   5.5892833e-01  -2.1014883e-02  -2.4839180e-01  -3.5839910e-01  -1.0126958e-01  -3.9579888e-02   8.5881268e-01   4.0309491e-01  -9.3244223e-01  -3.1572590e-01  -8.6954922e-01  -7.5127352e-01   1.5881991e-01   2.2457363e-01  -1.0396158e-01   7.2171167e-01  -3.6698006e-01  -6.3054628e-01   5.2121700e-01  -3.3588298e-01   2.6601088e-01  -5.0280509e-01  -2.9295219e-01   1.2423963e-01  -2.9897423e-01  -2.7972991e-01  -5.1056968e-01  -3.0795458e-01  -5.9411506e-01  -8.4731160e-01  -2.5284323e-01  -2.3441472e-01  -2.4766153e-01  -1.7537954e-01   5.4577488e-01  -5.3421364e-01   7.8388871e-01   1.5741354e-01   5.9039135e-01  -3.0230923e-01   4.9320125e-01   8.0608680e-01   2.8544907e-01   2.4587899e-01   2.3425259e-01  -4.2726082e-01  -2.6607023e-01   7.2967179e-01   1.1821830e-01  -7.7696105e-01   7.7305332e-01   1.8149955e-01   5.9247336e-01   1.4607245e-01   5.8930749e-01  -7.5266823e-01   9.9045801e-01  -9.3333329e-01   5.2720459e-01   4.0721169e-01   2.4987124e-01  -4.2149621e-01
   4.0792954e-01   5.2170064e-01   6.1050673e-01   7.9967359e-01   8.3977448e-01   5.5095898e-01   8.7546220e-01  -3.2591294e-01  -5.4612129e-01   3.2134130e-01   9.0453125e-01  -3.1756410e-01   5.2015613e-01   7.2909268e-01   2.8431290e-01   9.7460263e-01  -4.0371011e-01  -5.1280642e-01   8.2804918e-01   2.8579096e-01   4.5468236e-01  -4.2549811e-01  -5.4504104e-01   8.0141799e-01  -3.5536787e-01   3.3536753e-01  -1.4804197e-01   3.5846052e-01   5.6345822e-01   7.9955256e-01  -5.4135485e-01  -3.8588426e-01   6.2895586e-01  -5.2747991e-01  -3.1494651e-02   5.5197760e-01   7.6461740e-02   9.5641158e-01  -1.0756278e-01   5.9495441e-01  -6.7800992e-01  -8.9759356e-01  -5.5532521e-02  -1.9418665e-01  -6.7994260e-01   3.9489489e-01  -9.8757557e-01   4.5083451e-02   5.1917148e-01   5.8534089e-02   9.0024167e-01   8.8881243e-01  -4.5507494e-01  -3.9540881e-01   9.8856499e-02   9.9388197e-01  -8.1917327e-01   3.4142427e-01  -8.8758205e-01  -8.0589778e-01   3.5667779e-01  -8.2756196e-01   6.3055867e-01  -6.4549558e-01  -4.9370590e-01   8.9325119e-01  -5.2200491e-01   9.9187119e-01  -2.5377325e-03  -5.8156132e-01   2.9231404e-01  -2.8138980e-01  -8.0147442e-01  -7.0848026e-01  -3.9030417e-01  -2.4175229e-01  -6.9275445e-01   7.9195624e-01   9.0741488e-01   1.4069941e-01   3.8747055e-01   8.8057954e-01  -7.6457894e-01  -1.2752868e-01   6.8717810e-01   2.8653830e-03  -2.9777693e-01   7.0743075e-01   3.3496854e-01   8.4599608e-01  -8.2979849e-01   5.2212035e-01   9.2922122e-01   1.6746509e-01  -9.3073509e-01   2.2661488e-01  -3.2123735e-01   1.7302857e-01  -5.7807779e-01   6.6162696e-01  -1.4274749e-01   2.7217830e-01   3.5348027e-01  -8.3523899e-01   8.1237188e-01   2.8435534e-01  -3.4300801e-01   6.8344709e-01   3.7647231e-01  -5.3005824e-01   6.9484145e-01  -5.2749760e-01   1.8101415e-01  -6.1406953e-02   5.4507714e-01   4.6372854e-01  -8.6840827e-01  -6.8164021e-01  -2.2552682e-01   5.7276462e-01  -9.9202796e-01   5.2073626e-01  -4.9110480e-01  -8.5724608e-01  -4.9861045e-01  -1.1568230e-01   2.2791046e-01   1.7189275e-01  -4.6297554e-01  -2.1943334e-01   3.3849100e-02   9.5141926e-01   7.1498106e-01  -1.5486266e-01   8.8274491e-01  -9.9493279e-01   1.9267807e-01  -2.3981278e-01   5.4169208e-01   8.6988385e-01   5.4709641e-01   1.9585286e-01  -1.8885248e-01   7.1057996e-01   2.9737617e-01  -6.2640189e-01   2.4578194e-01   4.9344914e-01   5.1778323e-02  -5.9516601e-01   9.1071864e-01   4.7278702e-01  -6.7163472e-01   1.1436736e-01   4.6439420e-01  -1.3509568e-01  -4.7739994e-01   5.1619547e-01  -1.9742962e-02  -7.4431092e-01   6.8766923e-01  -1.3219056e-01  -2.6644947e-01   2.1603878e-01   4.1361178e-01  -6.7517992e-01   7.7271981e-02  -8.8737699e-01   5.3365717e-01   3.9871861e-01   8.8184891e-01  -6.4056054e-01   2.3701917e-02  -8.9587044e-01   2.9556538e-01  -8.6356738e-01  -2.1646592e-01   3.6791265e-01  -1.7377862e-01  -5.7921156e-01  -3.0765697e-01  -5.3758110e-01   5.8784560e-01   7.6356639e-01   9.3799641e-01  -9.8214245e-01  -8.2977945e-01   2.2949071e-01  -5.1744293e-01  -7.4209060e-01   7.5936750e-01  -7.0380394e-01   5.2729511e-01  -6.4582162e-01  -3.0068858e-01  -5.3470503e-01  -6.3790191e-01   1.0565253e-01  -6.1285506e-01   7.1543255e-01   9.1196525e-01   2.9623781e-01  -6.5033311e-01   1.5884834e-02  -4.1614345e-01  -9.8759195e-01   6.1300965e-01   9.9652286e-01  -8.2332090e-01  -1.3856146e-01  -5.2967858e-01  -5.7634912e-01  -6.1971150e-02  -1.7971119e-01   7.5193127e-01  -5.8635700e-01  -8.7430683e-01   3.2215478e-01  -4.3099991e-01  -8.9286500e-02  -2.0697983e-01  -7.2957312e-02   9.3544239e-01  -5.6266929e-01  -8.6371638e-01  -8.3225310e-01  -4.1431139e-01   2.3804811e-01  -6.3677212e-01  -6.4063274e-01  -2.8817622e-01   3.2392096e-02  -5.4655826e-02  -5.4071332e-01   8.9905241e-01   3.1106457e-01   7.3222815e-01   3.9149725e-01  -7.0100918e-01  -9.9376364e-01   7.2895582e-01  -7.1239445e-02   7.5870061e-01   7.0192444e-01  -9.6979830e-01   3.0523458e-01   7.6241961e-01  -5.0470111e-01   2.7064920e-01   4.2289333e-01   1.7344678e-01  -1.6407690e-01   8.0117899e-01   4.3521556e-01  -6.0307469e-02  -4.5592704e-01  -2.3516170e-02  -2.4622846e-01   2.5377031e-02   4.2786284e-01   9.4090922e-01  -3.8983916e-01   3.6018340e-01   1.9014739e-01   9.5971050e-01  -8.9551268e-01  -2.2718222e-01  -9.5266307e-01   4.4156463e-01  -7.2585192e-01  -7.9746947e-02  -1.9722821e-01   1.9293389e-02   1.6979548e-01   6.4231914e-02  -8.4492263e-01   2.0448945e-01   5.3156574e-02  -9.3835360e-01  -3.0053391e-01   5.2037169e-01   4.4527320e-01  -6.7306846e-01  -2.1656173e-01  -5.6647345e-01  -7.1842468e-01  -5.8034904e-01   2.6619570e-01   1.8365586e-01  -8.8647447e-01  -7.7398702e-01   7.7709477e-01   7.2512258e-01   8.3944698e-01   3.7651982e-01   9.1798848e-01   8.0036018e-01  -3.1981774e-01  -8.0554988e-01   7.2762629e-02   4.0989082e-01  -1.4080160e-02   6.0031621e-01   3.6387799e-01   1.6135432e-01   6.6606691e-01  -3.3127844e-01  -2.9308283e-01  -6.9448420e-02  -1.3997011e-01   8.7407095e-01  -4.5244161e-01  -6.6970713e-01  -9.7768189e-01   4.8620280e-01  -9.4863568e-01  -4.1242474e-01  -9.1296718e-01   9.0770615e-02   9.8060109e-01   8.4094367e-01  -9.8082246e-01   8.1960181e-01  -3.3144614e-01  -8.8851141e-01  -6.8714994e-01   8.7122158e-01  -8.8207672e-01   9.7063162e-01  -5.7938719e-01  -2.3758215e-01   4.1709172e-01  -4.2690863e-01   5.4760959e-01  -7.8789440e-01  -8.3171381e-01   5.3038303e-02  -4.6383309e-01   1.3784058e-01   6.9576682e-01  -4.0296509e-01  -2.5520833e-01   2.8056758e-01   2.4546953e-01  -5.9485712e-01   9.6936378e-01   9.9968258e-01  -7.5884776e-01   1.8028425e-02  -5.0498934e-01   3.4847531e-01   5.8415315e-01  -3.6971364e-02   5.0396370e-01  -6.4848583e-01   1.0782643e-01   5.2916418e-02  -3.6876844e-01  -1.5976950e-01   5.1681907e-01  -8.6872947e-01  -8.9024924e-02   9.3017231e-01   5.3448549e-02  -5.7317009e-01  -4.6283054e-01  -3.5380440e-01  -8.9279896e-01   1.3039837e-01  -2.1658360e-01   3.5518330e-01  -2.6361691e-01  -6.4126944e-01  -1.3393354e-01  -5.2271034e-01  -7.7498256e-01   2.3881633e-01  -5.9406494e-01   8.8844593e-01   6.3772314e-01   7.4695975e-01   7.7544956e-01  -6.8849409e-01  -6.4184426e-02  -1.7213743e-01  -1.0037046e-01  -8.8525534e-01  -6.9701753e-01   8.5711403e-01   3.4785971e-01   4.2545022e-01   2.4944546e-01  -7.7414564e-01   4.3836369e-01   2.9246803e-01   4.6963158e-01   6.2643165e-01  -1.1995620e-02   2.9093211e-01   6.3513206e-01   4.5286781e-01   1.5352154e-01  -1.6491723e-02  -7.1335946e-01  -2.1730836e-01  -1.5328233e-01   4.1173878e-01   5.6715662e-01   6.7156611e-02   6.9573196e-01   6.2081755e-01   3.5545251e-01  -9.2462468e-01   6.7281715e-02   1.1505609e-01   8.5039429e-01  -1.8509136e-01  -3.6160838e-01   3.1678511e-01  -8.5536472e-01  -7.3934757e-01  -8.5243755e-01  -3.2851557e-02   8.3508851e-01   6.5352119e-01   1.8487695e-01   5.8147961e-01  -1.4699666e-01  -7.4003608e-01   9.4446924e-01  -3.4104665e-01  -6.1960393e-01   3.9102247e-01   6.5913487e-01   7.3283450e-01   8.1103751e-01   1.8347564e-01   9.4624584e-01  -8.1831060e-01  -7.9796811e-02  -8.7525192e-01  -1.6870446e-01   4.7213556e-01  -6.5304203e-01  -5.3280992e-01  -9.2792359e-01  -3.6663423e-01  -4.7204571e-01   4.8620261e-01   6.5565790e-01   1.8552009e-01   1.2307645e-01   4.6137480e-01  -3.1833638e-01   2.6684156e-01   6.0207494e-01  -2.6886734e-01   4.6123058e-01   6.4198717e-01  -7.1260707e-01   6.5792666e-01   8.9416104e-01  -1.5304632e-02  -1.0923983e-01   9.9719778e-02   8.8113786e-01  -3.7585704e-01   9.1695460e-01   5.7779753e-01   2.9987957e-01  -1.2325742e-02  -8.7924461e-03   7.6085200e-01  -9.9923113e-01   4.1536249e-01   7.0080169e-01  -7.3313045e-01  -3.1072632e-01   6.9943656e-01  -6.7281418e-01   9.5574824e-01   3.2506705e-01   1.6792265e-01   8.1714813e-01  -8.7188118e-01   5.3735060e-02  -7.5636265e-01  -8.9406789e-01   1.2424612e-01   4.3263942e-02   1.0476828e-01  -8.2480498e-01  -4.2783155e-02  -4.8897596e-01   1.7331395e-01  -2.0764619e-01  -7.6587098e-01   8.8307582e-01   3.8915224e-01   4.9176642e-01  -9.1042864e-01  -5.0675164e-01  -1.0428021e-02   6.0638043e-01  -2.5166648e-01  -8.4615117e-01  -9.3621418e-01   3.5496019e-02   9.5133111e-01  -5.1957230e-01   4.9195783e-02   8.8661565e-01   4.8404595e-01   5.3920663e-01  -5.8527137e-01   6.8430818e-01  -8.5807740e-01  -2.2766064e-01  -4.0141599e-01   9.3496603e-01   7.8725765e-01   1.9156466e-01  -2.9639699e-01   8.5456164e-01   7.0697755e-01  -4.2888574e-01  -4.4535357e-01   6.2168771e-01   3.0717188e-01   1.7464779e-01  -6.6170459e-01  -4.8604548e-01   4.8135740e-01   6.0089364e-01   1.9231927e-01  -2.1504475e-01   8.2345784e-02   1.4895605e-01  -4.5253194e-01  -5.2459487e-01  -2.0974494e-01  -4.7957411e-03  -3.9610275e-01  -4.9903162e-01   1.6789264e-01   7.7231877e-01  -6.9252085e-01   7.0993349e-01   3.8075799e-01  -7.1018003e-01  -3.7229124e-01   5.3169065e-01   3.0577110e-01   2.0994636e-01   9.5306788e-01  -5.8792443e-01  -9.0910656e-01  -2.6503225e-01  -3.5752996e-01  -8.4638872e-01   3.0374687e-02   3.1071762e-02   1.3318854e-01  -6.5777274e-01   5.1332846e-01  -9.1177808e-01   4.6319307e-02   7.1378748e-01  -7.0559863e-01  -1.6600539e-01   6.3428825e-01   9.1782335e-01   9.9734175e-01   6.5770099e-02   6.3283934e-01   7.8485391e-01  -3.7995945e-01  -2.5131333e-01  -1.4609057e-01   9.0718915e-01  -7.7328957e-01  -4.0112748e-01  -1.9028010e-03  -1.8646428e-01  -6.8576751e-01   7.9614079e-01   8.3693031e-01  -8.7659146e-01  -3.5742953e-01  -5.3369605e-01  -5.7791857e-01   7.6731047e-01   3.6961298e-01  -5.3895527e-01   2.3238311e-01   7.0466372e-01   8.5774366e-01   2.1087759e-01   9.3785609e-01  -1.4497784e-02   9.7525810e-02  -1.7157312e-01   5.5794263e-01  -1.9058028e-01  -5.6319811e-01  -8.6657970e-01  -3.5637449e-01  -9.2301536e-01   5.9332317e-01   9.3825167e-01  -9.7862785e-01   7.7136641e-02   1.5092624e-01   4.8953166e-01   4.4063825e-01   3.7381944e-01   5.8079341e-01  -2.0940084e-02  -9.2517096e-02   7.5799272e-01   2.3374563e-01  -3.3470656e-01   9.9904905e-01   4.4241766e-01   2.1184106e-01  -9.4157138e-01  -1.8803183e-01   6.5286503e-01  -5.7827646e-01  -5.0820506e-01  -7.9000119e-01   5.7310063e-01  -9.7320176e-01   4.4222175e-01   8.2637555e-01   2.6702749e-01   9.4145722e-01   4.6380070e-01  -2.6972961e-01   1.4705122e-01   7.7027103e-01  -4.2040790e-02   5.2047834e-01  -8.2026294e-01  -4.7924899e-01   5.4471161e-01   1.5207526e-01   2.0696152e-01   9.6115262e-02  -3.7567620e-01   7.3415175e-01   1.9677324e-01   1.2616713e-01   1.1648287e-01   4.9464580e-01  -6.5932084e-01  -6.5151282e-01  -9.5219061e-01   8.4626276e-01  -7.7895552e-01  -2.1571234e-01  -2.2813424e-01  -9.1406512e-01   3.7505777e-01  -3.3601625e-01  -4.3304289e-01  -8.9865763e-01   9.0910044e-01  -2.8102609e-01   5.1460153e-01   1.8668468e-01   5.6317749e-01   9.9606711e-01   7.9675489e-01  -9.7853909e-01  -1.9425403e-01   2.4630883e-01   4.0408127e-01   1.5579860e-01  -7.8671927e-01  -3.2578122e-02  -8.6229222e-01  -7.6628922e-01   9.1897603e-01  -9.1181088e-01   9.3829015e-01   2.1177831e-01  -9.3158991e-01  -7.6789119e-01  -5.3171108e-01  -2.9065572e-01  -8.9137155e-01   1.9342062e-01  -2.8829402e-01  -2.5494605e-01  -6.7751482e-01  -1.1846335e-01  -7.5050145e-01   4.7686650e-01  -3.5946433e-01  -5.1331872e-01  -6.4245625e-01  -5.3791698e-01  -9.2059408e-01  -3.9510414e-01   8.2722620e-02   6.6477018e-01   6.3190190e-01  -4.4783197e-01  -5.2845585e-01   3.5052317e-01  -9.9205805e-01   4.4040586e-01   8.5085270e-01  -4.6566606e-01  -5.8416855e-01  -5.9726404e-01  -8.2078759e-01   2.8480111e-01  -7.4302966e-02   5.9454991e-02   3.3393982e-01   6.4867486e-01   4.6711130e-01  -2.7314709e-01   6.3754696e-01  -7.9019223e-01  -4.5175185e-01   7.6813703e-01   5.8342186e-02   8.9799599e-01  -8.9034270e-01   7.4714875e-01  -3.7909244e-01   5.0139096e-01   5.7549001e-01   8.8999386e-01  -5.9705649e-01  -3.7241816e-01  -5.7848820e-01   3.5680859e-01  -5.0737433e-01   6.6494597e-01  -2.6539121e-02   4.1235617e-01  -9.0250201e-01   4.8233460e-01  -5.8655247e-01  -9.1717679e-01   2.0231073e-01   1.9195141e-01   4.1391627e-02   9.8604044e-01   1.9753810e-01  -6.8480805e-02  -3.7058946e-01  -8.0896011e-01   1.2575061e-01  -4.8050134e-01   4.9794760e-01   4.0777940e-01   4.6946688e-02  -9.8341961e-01  -3.1702120e-01  -9.3824478e-01  -6.9568430e-01   1.1921825e-01   5.6257043e-01  -6.0777756e-01  -2.2249231e-01  -6.6926729e-01   8.1143100e-01  -5.8815136e-01  -1.4696610e-02   2.0123036e-01  -8.6358292e-02   3.2233777e-01  -6.2955058e-01   3.8346343e-01   1.7257801e-01  -4.4561562e-01  -7.6669289e-01  -6.3139284e-01  -5.6042924e-01  -4.9325170e-01  -1.3391644e-01  -9.2821772e-01  -5.6386047e-02   6.2732848e-01   9.6779830e-01  -8.1343636e-01  -7.2315354e-01  -9.2512300e-02  -8.0528226e-01   5.9468341e-01  -1.9744669e-01  -5.6550239e-01  -5.3308559e-01   2.4126908e-01   7.1677482e-01   7.3924419e-01  -5.1713629e-01   3.7689690e-01   4.2993521e-01  -2.9121814e-01   6.6753449e-01  -8.6153699e-01  -8.5469448e-01   9.0188456e-01  -8.5172489e-01  -3.5865320e-01   5.9344450e-02   8.8490214e-01  -4.0362207e-01  -4.8111176e-01   1.4774206e-02   5.5540492e-01   1.2714647e-01  -3.9493862e-01   8.0577259e-02  -6.8563946e-02  -5.5619266e-01   9.9034061e-01  -7.4057006e-02   2.2765897e-01   2.0557470e-01   6.5522313e-01   4.0728906e-01  -3.2703306e-01   6.7678357e-01  -3.5235329e-01   7.6382332e-01   3.0510681e-01   9.1605161e-01   9.6658169e-01   2.5545320e-01   7.0043755e-01  -3.8132182e-01  -6.4830575e-01  -6.7298396e-01  -2.9530951e-01   7.6442440e-01  -2.9721168e-01  -9.1775898e-01   2.9859605e-01  -8.1924132e-01  -1.3548155e-01  -9.4487950e-01  -6.7504437e-01  -3.6271426e-01   4.2891882e-02   2.8050401e-01  -4.3584807e-01  -2.4615513e-01   1.4284152e-01   8.3504348e-01   9.0200175e-01  -7.6392366e-01  -6.9464253e-02   3.9702102e-02   8.5687315e-01  -6.2573692e-01   9.9601461e-01   7.9443956e-02  -2.1792298e-01  -8.1294934e-01  -2.8042549e-02  -4.6085666e-01  -8.9610395e-01  -3.2781353e-01   2.4703208e-01  -1.1179436e-01  -6.4832505e-01   3.8014449e-01   8.4378870e-01  -5.4996338e-01  -3.1827226e-01  -3.1499119e-01  -1.8240426e-01  -2.6244317e-01  -1.4532125e-01  -8.1433960e-01  -8.5803203e-01  -9.9326311e-01   2.6334385e-01  -8.6833488e-01  -5.8400552e-01   2.5185077e-01  -4.8484634e-01   6.0269697e-01   8.5664835e-01   9.0074585e-01   4.4715617e-01   6.8575465e-01  -2.4366123e-01  -6.7164087e-02  -6.8421142e-01  -1.6419480e-01   9.8340250e-01   3.1186924e-01  -3.8128460e-02  -4.7241303e-01   5.0339912e-01  -1.6579161e-01   1.4587113e-01  -5.0215993e-01  -9.1346984e-01  -5.6652855e-01  -1.3065974e-01   8.1832777e-01   8.8775854e-01   6.7372712e-02   3.9827855e-01  -5.4990227e-01   7.4185150e-01   6.8249082e-01  -1.5925399e-01  -4.9747920e-01  -8.3225844e-01  -3.8915986e-01   7.7995535e-01   7.8448552e-02   6.9991515e-01   6.2051337e-01   6.8720343e-01  -4.9053798e-02  -3.4710924e-01  -3.0640040e-01  -9.7881241e-01   2.9505115e-01  -3.6712363e-01  -8.2180645e-01  -5.8396189e-01   3.4518688e-02   4.7801828e-01  -7.2390179e-02   8.6932204e-01  -1.7664683e-01   3.6971502e-01  -2.4685491e-01   5.6699754e-01  -4.4791605e-01   1.3052282e-01  -8.8494424e-01   1.9612823e-01   9.1608027e-01   6.2352727e-01   3.6162030e-01  -2.0612921e-01  -2.2657560e-01   6.5133984e-01  -3.4390191e-01  -2.0438798e-01   6.3724537e-01  -2.9677370e-01  -7.5248303e-01   8.8729948e-01   2.2191067e-02  -5.0580073e-01   7.1043599e-01   9.3374477e-01  -3.5930432e-01  -5.4972777e-01  -6.9805008e-01  -1.2585558e-01  -4.4021734e-02   8.5993632e-01  -2.1074141e-01   9.1305706e-01   2.3254822e-02  -8.2018492e-01  -6.7938340e-02   4.5575201e-03   4.7266267e-01  -4.2302846e-01  -3.4309569e-01   4.6709381e-02   1.0494810e-01   2.4134202e-02   3.9080447e-01   8.2338363e-01   5.8083536e-01  -2.1746756e-01   7.6553151e-01   4.2814037e-01   8.4715703e-02   9.9775532e-01  -1.5625515e-01  -3.4770379e-01  -2.4766979e-01   6.0598783e-01   5.5165408e-01  -6.8652951e-01   5.4377416e-01  -4.5596090e-01   3.3086931e-01   5.0531520e-02   8.6184947e-01   8.2363003e-01  -8.5142161e-02
  -1.8639195e-01  -3.9523524e-01   6.4342166e-01   4.8502828e-01  -8.5823412e-01  -1.7144541e-01  -2.3593519e-01   5.6258672e-01  -4.6893172e-02  -5.4020965e-02   6.9861635e-01   9.4923954e-01  -7.5093453e-01  -5.6250654e-01  -8.2355752e-01  -8.1989908e-01  -7.4363254e-01  -2.2510233e-01   1.3729169e-01   7.4309841e-01   7.4425089e-01  -3.0500990e-01   6.2928270e-02   1.6499474e-01  -3.2166245e-02  -6.1048791e-01  -6.9894210e-01  -8.4608861e-01  -9.1311620e-01   2.8821882e-01  -3.5529487e-01   5.4242572e-01   4.6443719e-01   6.6224904e-01   3.5151752e-01   8.1475692e-02  -9.0620121e-01  -8.1239320e-01   9.0406430e-01   8.9381221e-01   1.6005319e-01   4.5475817e-01  -5.9385122e-01  -1.9776771e-01  -1.3316951e-01  -9.2263818e-01  -8.3060234e-01   5.9355085e-01  -2.7943904e-01   4.5996359e-02  -3.7452336e-01  -4.0160021e-01  -9.8349298e-02  -9.4083732e-01  -8.4849436e-02  -4.0944600e-01   2.0164797e-01   1.2617591e-01   2.7640789e-01   5.2289156e-01  -3.7991478e-01  -8.3276673e-01   4.0661767e-02  -7.5498001e-01   5.1466838e-01  -7.9730142e-01   2.4797745e-01   8.0717318e-01  -5.4698238e-01   5.3782222e-01   5.8719067e-02   1.6276632e-01   4.2527265e-01   8.8944511e-01  -7.6864256e-01  -1.6881922e-01  -3.5043343e-01   8.3466059e-01  -3.3723974e-01  -2.5014321e-01   8.9426841e-01   7.4631859e-01   8.6665102e-01   9.7226705e-01   3.6338717e-01  -4.0636385e-01  -2.3531081e-01   5.8585358e-01   3.1953530e-01  -1.8401753e-01  -8.3263456e-01  -8.6368258e-01  -8.0002651e-01  -7.4850717e-01  -8.9085975e-01   5.7347792e-01   3.6146617e-01   8.3943290e-01  -2.6789310e-01   9.4803914e-01   4.1459015e-02   6.4058514e-01  -3.1363770e-01  -1.9649579e-01  -8.7603733e-01  -7.6984837e-01   9.0979052e-01  -4.0126529e-01   5.1059561e-01  -8.1300582e-03  -2.5648301e-01  -5.9652491e-01  -4.3446874e-01   8.4981373e-01  -8.0849300e-01   4.8712381e-01  -2.8843952e-01   8.6879315e-01  -8.5182050e-02   8.0198735e-01  -3.6169695e-02  -1.7256762e-01   4.1608432e-01  -9.1459315e-01  -5.7144944e-01   2.3974961e-01  -7.1399144e-01   9.8501964e-01   1.5965069e-01   3.2772926e-01   1.6291965e-01   9.8026783e-01   9.6873243e-02  -5.3701362e-01   4.2166722e-01   2.7298071e-01   2.1365426e-01  -6.4024117e-01   1.3373966e-01   9.2174611e-01  -8.4813693e-01  -1.4913202e-01  -4.7872264e-01  -6.2365662e-02  -1.7073536e-01   6.7727282e-01   8.0912122e-01   9.2394257e-02  -5.1866007e-03   6.8148316e-01   4.6741085e-01   8.6409832e-01  -7.5028233e-01   5.1107788e-02   3.8815390e-01   7.8066432e-01  -9.0630861e-01  -5.0681332e-01   7.2901869e-01   4.8191046e-01  -4.1392171e-01   6.8968321e-02   8.8919140e-01  -5.7161798e-01  -1.7407920e-02  -1.0291912e-01  -6.0268428e-01   7.5239202e-01   5.9606434e-01  -9.5559409e-01  -1.4941672e-01   8.9419514e-01   9.4670340e-01  -1.7306500e-01  -1.2041744e-01  -6.8312634e-01   3.4632942e-01  -7.3267144e-02  -1.7574297e-01   3.7744610e-01  -4.8825415e-01   7.9019533e-01   6.3115150e-01   6.7294998e-01   8.1202351e-02  -7.8240269e-01   9.7521431e-01  -7.0124949e-02  -7.2155604e-01  -2.0235032e-02   4.6685035e-01   7.6401955e-01  -2.4779409e-01   3.3157179e-02   8.7123230e-01  -4.3508765e-02   1.4813288e-01  -5.0036313e-01  -3.1379917e-01  -4.7658665e-02   2.0540451e-01  -7.2502857e-02   9.0894349e-01   3.7008571e-01   8.7553160e-01  -9.6971198e-01  -9.3704101e-01   3.4748802e-01  -2.8172851e-01   4.8932477e-01   7.5898013e-01   6.2610033e-01   5.1655397e-02  -5.6650807e-01   8.8580013e-01   1.6511990e-02  -5.4926958e-01   1.7980482e-01   6.6456136e-01  -8.3997655e-01   5.7697103e-01   4.2995982e-01   6.5831267e-02   6.2488675e-01   5.9724245e-01  -1.6204256e-01  -3.5133101e-01  -8.4248078e-01   4.1511350e-01   2.3636406e-01   7.2699004e-01   2.6212844e-01  -4.7721208e-01  -9.4405999e-01   2.7166264e-01   5.1693599e-01  -2.7001978e-01  -5.7553725e-02  -8.6589100e-01   4.1115841e-01   6.3353711e-01   6.5884959e-01  -9.9055652e-03   1.8597232e-01  -4.0822773e-01   4.5370889e-01   4.8214519e-01  -9.2088240e-01  -7.7334170e-02  -3.9128376e-01   3.1760880e-02   2.1594622e-01  -6.5609927e-01  -3.8606569e-02   4.1376746e-01   8.0502456e-01  -9.6030404e-01   8.4097759e-01   3.9075691e-01  -6.0538138e-01   9.9808027e-01  -4.0195073e-01  -1.4981896e-02   2.2447230e-01   4.8401808e-02  -4.3304050e-01   1.5955168e-01   1.2641415e-01   5.9956101e-01  -6.6314744e-02   1.7575817e-01  -9.9841515e-01   4.5917879e-01  -5.4264494e-02   5.5689202e-01  -9.2414205e-01  -6.2555926e-01  -4.7569292e-01   9.2558144e-01   3.8822279e-01  -4.7674111e-01   7.9369828e-01   4.0563711e-01  -5.2085198e-02   2.5812728e-01  -7.5926164e-01   9.5383470e-01   9.8164648e-02   3.0888087e-01   1.1192948e-01   5.4333819e-02   8.4644769e-01  -1.1094592e-01  -7.2698043e-01   2.6236630e-01  -2.5410800e-01  -4.2903299e-01  -7.2131228e-03  -3.2700791e-01   5.1567972e-01  -3.2530978e-01  -1.1710900e-01   9.5390141e-01   6.5968495e-01   1.8665410e-01   5.6697875e-01  -3.9327750e-01  -4.5100034e-01  -9.6488190e-03   8.2327639e-02   6.5562199e-01   9.5741827e-02  -1.6241168e-01  -3.8010673e-01   5.9603864e-01   2.2097537e-03   9.6860342e-01  -7.3812987e-01   2.2804549e-01  -3.1023087e-01  -6.7985452e-01   1.2184614e-01  -2.3872866e-01   8.0496533e-01  -1.1358366e-01  -8.6305510e-02   5.3091052e-01   7.3537109e-01  -9.6853000e-01   9.7399780e-03   5.0330097e-01  -1.5466104e-01  -4.5308896e-02   5.8600945e-02   8.8561757e-01   7.0950301e-01  -3.0317863e-01  -3.5731473e-01  -3.4377918e-01   9.2292366e-01   2.1282760e-01  -4.0161840e-02  -3.0625049e-01   7.8499406e-01  -5.2985542e-01  -4.4551015e-01  -4.3094943e-01   5.3944634e-01   5.6124429e-01  -6.1098550e-01   6.4851946e-02  -1.1975931e-01   5.3902156e-01   7.3569364e-01  -2.0913489e-01   5.8636363e-01  -2.9085190e-02  -7.5039100e-02  -9.1201039e-01   7.7608372e-01  -3.7268008e-01   7.1790872e-01   1.3648495e-02  -7.9212742e-01   1.0832556e-01  -8.7800198e-01  -6.8558681e-01  -6.7247562e-01   4.7820962e-01   1.5987615e-01  -7.1527111e-01  -9.9206962e-01  -9.8164381e-02  -8.4975279e-01  -5.1989023e-01  -3.3519782e-01   1.9116839e-01  -2.4185096e-01   3.1242210e-01   8.0448325e-01  -7.0109758e-01  -5.6603056e-01  -9.0958009e-01  -8.7753740e-01   2.1508638e-01  -5.0168022e-01   9.6330729e-01  -2.3699600e-01   6.5881176e-01   7.0224597e-01   3.3956012e-01   9.5878470e-02  -6.5476696e-01  -7.1819984e-01   8.0561153e-01  -1.2343479e-02  -5.9411542e-01  -2.2584526e-01  -9.8195325e-01   8.0520895e-01  -4.2621807e-01   5.6435876e-01   2.0920990e-01   9.0964872e-01   5.1962596e-01   4.7598306e-01  -3.0351027e-01  -1.2161219e-01  -4.0600403e-01   2.0411160e-01  -6.7210302e-01   2.6137615e-01  -1.0931009e-01   8.2944023e-01   9.1653526e-01  -1.3055712e-01  -5.4262947e-01   3.9954237e-01   9.0587529e-01  -1.4902700e-01   5.5611739e-01   8.7652719e-01  -7.4176788e-01  -1.7974878e-01  -5.4257427e-01  -4.9776771e-01  -7.3686573e-01   3.4467729e-01   5.4207020e-01  -8.4201906e-01   5.6325345e-01  -2.8159096e-01  -4.6440419e-01  -3.8738375e-02  -7.2838266e-02  -7.0792818e-01  -5.6678656e-01   6.3682746e-01  -9.9621852e-01   3.7366142e-01  -5.5355462e-01  -8.7191571e-01   6.4351448e-01  -7.9616725e-01  -6.0219351e-01  -1.6477449e-01  -7.9902812e-01   6.7489387e-01  -3.1462451e-01  -4.4797928e-01  -6.0445155e-01   3.4029776e-01  -4.1207768e-01  -9.0740906e-01  -4.9282380e-01  -9.0720486e-01   3.5398221e-02   6.5190850e-01  -6.6681296e-01  -5.5139939e-01   5.3770480e-01  -6.4235678e-01   7.9062150e-02  -4.5441019e-01   4.4784081e-01   6.5551989e-01   7.6994885e-01  -8.7112884e-01  -4.9692318e-01   7.3678841e-01  -2.9116344e-02   3.4592451e-01   7.1886424e-01  -3.9141795e-01   3.3480152e-02  -1.9672482e-01   5.5983175e-01   7.6462300e-01   8.7962292e-01   9.9070813e-01  -7.0556053e-01  -2.4362141e-01  -4.8085534e-01   2.8990888e-03   8.7929681e-01  -8.1744851e-01  -1.3631961e-01   8.5055692e-01  -6.9579288e-01  -2.8350254e-01   4.8841494e-01  -9.2255902e-01   9.1891295e-01  -1.0706739e-02   6.4718086e-01  -9.6264384e-01  -4.0470898e-01  -9.5505663e-01   9.7641903e-01  -9.7395155e-01  -4.1729538e-01   1.6797706e-02  -4.9600464e-02   6.1789720e-01   7.9680576e-01  -1.1043124e-01  -4.7981743e-01  -4.3121951e-01  -4.1850655e-01  -3.0847661e-01   2.2618896e-01  -2.6446856e-01  -9.3703855e-01   4.8188783e-01   8.2867381e-01   7.5859753e-01   8.0277108e-01   5.7180168e-01  -6.6678256e-01   7.0921585e-01   8.2699842e-01  -3.9018599e-02  -2.1359664e-01  -2.5725078e-01   6.9425400e-01   5.7699162e-01   1.4400502e-01  -4.6130838e-01  -2.1462919e-01  -4.3744525e-01   9.8406872e-01  -5.8139157e-01  -7.9356322e-01   4.4352285e-01   7.6632402e-01   1.9799685e-01  -1.9622397e-01   2.4291238e-02   6.7181705e-01   7.4822212e-01   8.9074928e-01   2.8228978e-01  -2.9394512e-01  -5.8465680e-01  -9.3330839e-01  -3.6720603e-01  -8.6316981e-01  -9.6728727e-03  -4.8534233e-01   6.0943907e-01  -9.8931039e-01  -6.0080924e-01  -6.6835236e-01   1.8831348e-01  -5.6393934e-01  -7.5378802e-01  -3.2978152e-01   1.8663476e-01  -3.8331686e-01   1.5307042e-01  -9.8827017e-01   6.4721632e-01  -8.8809572e-01   4.8964010e-01   2.7977151e-01   1.9861138e-01  -1.8202227e-01   8.9956225e-01   7.5085540e-01   2.1962549e-01   7.2368730e-01  -6.1595791e-03   9.0808129e-01   1.8022824e-01   7.5951298e-01  -3.5254778e-01  -3.3485703e-01  -4.7778221e-02   2.6322083e-01  -3.7267240e-01   8.6859964e-01   4.7396803e-01   9.0105952e-01  -1.3791502e-01  -4.1143324e-01   3.6697323e-01  -5.6147356e-01   4.5893101e-01  -6.7380969e-01   6.4313458e-01  -4.5425076e-01  -3.3658318e-01   6.2712478e-01  -7.6677486e-01   6.1287059e-01   7.3967843e-01   5.0443956e-01  -1.9911087e-01  -1.8747630e-01   1.5923778e-01   2.3078695e-01   5.5010234e-01   7.5034727e-01   9.6893908e-01   2.6803647e-01   4.2475025e-01  -9.8586726e-01   7.8142361e-01   3.6756251e-01  -4.8415161e-01  -1.4077644e-01  -4.0325995e-02  -7.4936103e-01   4.3628275e-01   6.7792766e-02  -4.5124850e-01   8.9625892e-01   5.0960891e-01   7.0575743e-01  -9.7518084e-01   8.8066016e-01   7.8751957e-01  -4.8443079e-01  -9.0315056e-01   1.2529498e-01   6.9452562e-01  -8.9973802e-01   7.2678484e-01  -8.2256994e-01  -5.3205207e-02  -6.3075178e-01  -3.6034034e-01   7.3296847e-01  -4.3416084e-01   1.1748866e-01   7.6639036e-01   4.7842611e-01  -5.4912587e-01   8.7995483e-01  -9.4833133e-01  -5.4226356e-01   7.4402719e-01  -6.0585149e-01  -9.4737924e-01   1.9159011e-01  -8.6901327e-01   8.3038387e-01  -9.7157396e-01   5.9068236e-01   2.9878139e-01   4.6192001e-01  -2.0098000e-01  -9.9091955e-01  -7.9095460e-01   7.5180910e-01  -4.8066737e-01  -5.0414514e-01  -4.6796107e-01  -8.5761863e-01   9.9805020e-01  -7.1477952e-01  -4.0596566e-01   3.5515846e-02  -3.3023524e-01   9.0428761e-01   3.9844111e-01  -7.5167061e-01  -3.9850410e-01   2.0247839e-01  -1.3277922e-02  -3.3901895e-01   4.2433416e-01  -3.5002431e-03   2.7946125e-01   5.2176569e-01   7.9833763e-01  -3.6325381e-01  -4.5839457e-01  -2.0356451e-02  -9.0096609e-01  -8.3933950e-01  -2.2809837e-02  -5.1703370e-01  -1.7672237e-01   9.8518921e-01  -4.3043004e-01   5.8398483e-01  -6.2867071e-01   9.2569696e-01   2.2886743e-01   1.2045621e-01   4.4006179e-01  -2.3028390e-01   8.2915958e-01   1.0137022e-01   6.0812997e-01   7.1997846e-02  -1.9876085e-01  -4.6472747e-01   2.5912913e-01  -4.4613440e-01   9.4683734e-01  -3.8455991e-01   9.7360667e-01  -5.0042520e-01   9.4611859e-01  -1.7668065e-01  -9.3325877e-01   3.6555003e-01  -3.0216061e-01   2.6357227e-01   3.2703458e-01  -8.0800110e-02   7.5556467e-01  -9.6247389e-01   7.5593700e-01  -6.5146642e-01   3.8683664e-01   5.6772676e-01  -1.5773214e-01  -2.6571538e-02   5.0351977e-01  -1.4344824e-01   5.2753706e-01  -8.3002711e-01   3.5595171e-02   2.6073987e-01   5.0098173e-01  -7.0262096e-01  -1.2226464e-01  -6.5187220e-01   9.8618650e-01  -9.6433076e-01   9.9986198e-01  -8.0519482e-01  -9.4154822e-01  -4.1958591e-02   5.5577839e-01  -6.3808139e-01   8.1155965e-02  -7.8556767e-01  -8.6913632e-01  -2.9438409e-01  -3.6754806e-01  -7.1763159e-01   7.6587434e-01  -3.4825724e-01   3.1742759e-02   6.9963901e-01  -3.4089132e-01  -4.6795596e-01   7.7006391e-01   4.4135275e-01  -4.2724622e-02   1.3900900e-01   2.9042702e-01   7.8223907e-01   8.3745487e-01   9.1299997e-01   5.1637460e-01   6.4826731e-01   9.7643407e-01  -6.1809660e-01   7.0570246e-01   5.2602983e-01   1.4459725e-01   2.6195270e-01   2.5711526e-01   6.5949446e-01   3.4882605e-01   2.7058759e-01   9.2418598e-01  -9.1013905e-01  -2.4177210e-01   8.9212904e-01  -7.3919122e-01  -7.5074975e-01   8.1789004e-01   8.9480384e-01   2.3908193e-01  -9.1361994e-01   1.1571588e-03  -8.9085611e-01  -5.8832210e-01  -3.4701272e-01   3.2758586e-01  -7.3040880e-01  -1.2671306e-01  -1.0256582e-01  -4.1078819e-02  -6.7883198e-02  -6.2795866e-01   3.0023424e-01  -9.9216173e-01   7.8004909e-01  -3.0727569e-01   9.1088212e-02  -7.5034042e-01  -5.8282353e-01  -8.7620683e-01  -7.7874724e-01  -2.5947674e-01  -8.7508421e-01   3.8534448e-01  -1.5143827e-01   7.3060509e-01  -5.0522273e-01  -9.3446479e-01  -6.5384512e-01   8.0786013e-01   9.8459727e-01   4.1374645e-01   2.1427934e-01   4.6507275e-01  -3.7306343e-01   6.6666689e-01  -6.5855273e-01   9.7792465e-01  -8.8430472e-01   1.5731627e-01  -3.0939481e-01   5.0205961e-01  -5.8184680e-01   4.6261854e-01  -2.3301028e-01   7.1176162e-01  -4.2892504e-01   7.9782494e-01  -4.0110380e-01  -1.3010786e-02   1.8287236e-01  -3.5426287e-01   9.2211641e-02  -3.8409789e-01  -3.2536850e-02   5.1504253e-01   1.0080694e-01  -9.5729603e-01  -6.8091339e-01  -1.0039448e-01  -2.9207966e-03   1.4611078e-01   9.8165375e-01   5.2117726e-02  -7.2667481e-02  -9.4309751e-01   4.8228609e-01  -4.5224623e-01  -1.0662736e-01   5.8795903e-01   3.6715086e-01   5.2126855e-01  -5.3758212e-01   4.4968324e-01   5.2060253e-01   9.0360891e-01  -6.2539007e-01  -2.9871940e-01   3.6457624e-01  -6.3315821e-01  -5.1049669e-01  -9.1834375e-01  -4.2872370e-01   4.0601940e-01   1.5702354e-01   7.4429747e-01  -7.4086791e-02  -1.2039322e-01   2.7688424e-01  -3.6474398e-01   7.1973944e-02  -3.0172618e-01   2.7103178e-01  -4.8764816e-01  -3.2421473e-01  -3.0248931e-01   8.1140196e-01  -8.7005236e-01  -1.0085118e-01   8.5855314e-01  -8.6080107e-01   6.6360658e-01   2.7565754e-01   9.7178237e-01   5.3236246e-01   1.7950505e-01  -3.6275664e-01   4.4619000e-03  -6.2714747e-01  -5.0509902e-01  -1.6972457e-01   1.3731369e-01  -4.7808142e-01  -4.8729559e-02  -7.9642444e-01  -9.8099209e-01   2.2388591e-01  -9.6966050e-01  -2.7646679e-02  -3.4405043e-02  -8.3009473e-01  -9.2316970e-01  -1.9137636e-01   3.0704268e-01  -4.2015057e-01   2.8086332e-01   9.4222059e-01   7.3212740e-01  -9.5504794e-01   9.2564030e-01  -9.0854743e-01   6.2149388e-02  -4.7977077e-01  -2.8138987e-01  -2.2720313e-01   7.6195936e-01  -8.3162299e-01   6.9143279e-01  -3.1770937e-01  -1.5144461e-01  -4.3324562e-01   2.1785625e-01  -6.8118490e-01  -6.1369445e-01  -5.0478553e-01  -4.1881228e-01  -1.8285024e-01   6.2283238e-01   2.4998694e-01  -8.2056804e-01   3.6775502e-01   6.7225333e-02  -7.8136076e-02  -9.8438541e-01   9.5872974e-01  -2.9381958e-01   9.3607277e-01   9.2001163e-01  -8.9660649e-01   5.2970835e-01   6.2420166e-01   8.9519547e-01   7.2847563e-01  -3.3022124e-01  -8.8150473e-01  -4.9742832e-01  -4.4700600e-01   3.0848798e-01  -3.2439690e-01   9.8313946e-01   7.2431582e-01  -5.1247618e-01   7.6429340e-02  -2.4073924e-01   1.3376257e-01   8.2299581e-02  -3.3280598e-01   3.1522885e-01  -8.4008404e-01   1.5893602e-01   4.2672551e-01   2.6326666e-03  -6.9480486e-01  -1.5211000e-01   9.1771237e-01  -6.5225203e-01  -7.9278159e-01   9.3958963e-01   4.6886230e-02  -9.4108004e-01   4.5642343e-01  -8.7912204e-01   5.9960524e-02   9.1574725e-02   8.6182302e-01   6.4954985e-01  -2.6927422e-01  -6.1135476e-01  -9.0231561e-01   4.8999960e-01  -7.6664591e-01   2.3488558e-01   9.6736212e-01   1.2593247e-01  -3.6975150e-01   4.9764576e-01  -4.7164330e-01  -8.5425388e-01  -4.7370933e-01   3.4847038e-01   3.5173712e-01  -6.0352424e-01  -8.2800966e-01   7.3394809e-01  -9.8482008e-02   3.7044953e-01  -2.2360745e-02  -7.8226431e-01  -7.1383355e-01  -9.9089139e-01
  -6.2852131e-01   4.9753505e-01   2.6338266e-01   3.9447705e-01  -8.1505281e-01  -6.9750727e-01  -1.5561405e-01  -3.9689048e-01   3.9626769e-01   3.2606931e-01  -5.3997442e-02   7.7231275e-01  -3.3524998e-01  -4.3767812e-01   1.5388040e-01   7.2213855e-01   5.4941923e-01   3.3705438e-01  -6.2452265e-03  -5.1389875e-01   3.2627105e-01   5.3070772e-01   7.7129227e-01  -4.2585937e-01  -2.1062476e-01  -6.3124408e-01  -6.0549234e-01   9.9943966e-01   4.3107435e-01   9.8061184e-01   3.8777576e-02  -7.8193428e-01   7.6484379e-01  -7.4779847e-01   1.5655453e-01   5.5193223e-01   8.0714183e-01   8.5111660e-01   3.8546259e-01  -7.8168281e-01  -7.8300052e-01  -6.9959107e-01  -4.0486734e-01  -3.7956875e-01  -1.9978232e-01   6.1041802e-01  -3.1891549e-01  -5.7258004e-03   4.2524501e-01  -4.3377652e-01   1.6149946e-01   7.3472778e-01   2.0642599e-01  -4.5298842e-01  -6.7328062e-01  -8.1382383e-01   4.0226751e-01   1.1362374e-01  -5.7845288e-01  -3.8606354e-02   3.2384207e-02   3.1723848e-01  -1.8412658e-01  -9.3899238e-01   2.8013758e-01  -8.9967543e-01   1.2425536e-01   1.5583203e-01   4.6682261e-02   2.1027581e-01   4.2756033e-01  -9.2890202e-01  -4.8227512e-01   1.1356812e-01   5.5009908e-01  -7.3792819e-01   1.9750300e-01  -1.8236376e-01   6.3148834e-01  -5.2854859e-01  -8.4939985e-01   8.1749299e-01  -3.5927750e-01   7.7948019e-01  -3.6195018e-01  -4.5761902e-01   2.5302935e-01  -2.9256323e-01  -7.9092951e-02  -6.9128930e-01   9.7455690e-01   8.4826696e-01   4.4541515e-01  -7.7307170e-01  -1.7146123e-01   4.3083887e-01  -8.5709438e-01  -9.0030576e-01  -4.3009446e-01   1.8439895e-01  -9.7421083e-01   4.8229400e-01   5.7844766e-01  -5.1745288e-01  -4.6841349e-01  -1.5511963e-01   1.4900172e-01   2.6325041e-01  -5.4341371e-01   3.0994729e-01  -1.1870259e-03   3.5702242e-01   6.6234117e-02  -2.0877648e-01  -3.2090284e-01   7.2943057e-01   2.5644706e-01  -3.2816752e-01  -8.3032336e-01   2.2011902e-01   9.7770032e-01  -3.5381723e-02   1.2350847e-01  -3.2941560e-02  -7.9208876e-01   3.7346530e-01  -6.7269956e-01  -8.5341876e-01  -6.4925117e-01  -2.7398607e-01  -9.0799385e-01  -4.0846286e-01  -4.3069488e-01  -8.8932216e-01  -9.9156116e-01  -2.5462639e-01   7.0090105e-01   4.8503552e-02  -5.2003424e-01  -9.1833382e-01   8.1549770e-01   3.5058152e-01   7.1000989e-02  -4.8650482e-01  -4.9873399e-01  -6.2721900e-01  -5.9724982e-01  -6.9458866e-01   9.7429586e-01   1.8241727e-01   1.6163558e-01   6.9015691e-01  -7.6528034e-01  -6.5451825e-01  -1.7730893e-01  -5.4284206e-01   6.4646949e-01  -9.2944744e-01   5.2742468e-01  -6.7382199e-02   5.0817544e-01  -1.3962306e-01   9.9305523e-01  -6.3073149e-01   8.3535897e-01  -4.0624617e-01  -8.7223582e-01  -9.8057563e-01  -7.7870648e-01   7.5454746e-01  -7.9550467e-01   6.9773246e-01  -3.4144061e-01   1.6229135e-01   7.0447662e-01   8.0109165e-01  -5.6645638e-01   5.0909394e-01   9.6546767e-01  -3.7044922e-01   9.1540402e-01   8.2227834e-01  -4.4343781e-01   5.6653910e-01   5.3447612e-01  -6.7472647e-01   7.6843466e-02   8.3464813e-01  -7.7319901e-01   4.9176316e-01  -3.6988378e-01  -8.5568283e-01  -2.0331574e-01  -7.4243021e-01   9.3216220e-01  -2.7627289e-01   2.5095412e-01  -5.2341701e-01   5.4145930e-02  -4.8394565e-01   2.1264136e-01   3.5802792e-01  -4.9628093e-01  -2.3888969e-01  -1.4547300e-01   2.2234509e-01   2.8725987e-01  -1.3145363e-01  -9.2813579e-01  -6.8307828e-01   9.4146513e-01  -4.8175053e-01   6.0946423e-01  -4.2272391e-01   8.8187323e-01  -9.1597192e-01   5.0464053e-01  -7.2652764e-01   9.0306581e-01  -6.7760069e-01   7.0581083e-01   2.5199224e-01   5.5907478e-01   9.6818434e-01   7.3891466e-01   9.0699804e-01   8.7414602e-01   2.1242930e-02   7.5167670e-01  -3.9630578e-01   2.1419516e-01  -8.1901186e-01   9.5038982e-01   7.7425326e-01   4.7584041e-01  -2.6303938e-01  -8.9950432e-01  -4.4125526e-01   1.6022440e-01  -5.8562545e-01  -9.5404184e-01   4.5620486e-01  -3.7356793e-01   1.6848506e-01  -4.5677739e-01  -5.4748719e-01   3.7143001e-02  -5.0285061e-01   3.7568891e-01  -4.2451761e-02   2.1469765e-01   5.2012059e-01   5.2754315e-01   7.1210607e-01   6.8148782e-01  -3.8369177e-01   6.1822699e-01  -6.3143402e-01   2.1022574e-01   6.6077395e-01   7.5869463e-01  -1.0400297e-01  -1.8295431e-01  -6.3386878e-01   6.9740289e-01  -8.6287048e-01   6.4981370e-01   4.1947657e-01  -3.1283785e-02   6.9234775e-01  -2.0005406e-01  -5.7864759e-01  -2.0259847e-01   7.7593420e-01  -7.6627446e-01   5.9506819e-02   7.4829794e-01   3.1030256e-01   1.6385984e-01   6.2005545e-01  -8.9188997e-01   3.0053960e-01   8.4136229e-01  -8.9195220e-01  -4.7185074e-01  -3.9823753e-02  -6.9041387e-01   4.3983838e-01  -6.7140984e-01   1.4058732e-01   8.3974883e-01  -1.1520077e-02   8.1989304e-01  -9.7677913e-01   7.7645454e-01  -7.3477335e-01   9.7963688e-01   5.0115578e-01  -5.3871605e-01   9.4773579e-01   1.0022137e-01   9.6301553e-01   7.8086534e-01   1.2332854e-01  -1.9805190e-01  -2.9965121e-01  -9.0026280e-01   6.2887654e-01   5.5801457e-01  -9.7639952e-01   6.9406799e-01  -9.0269295e-01   9.5110931e-01  -1.4342483e-01  -2.5122916e-01   8.4197443e-01  -5.4715028e-01  -3.4606602e-01  -7.7138078e-01  -9.8012811e-01   4.2077534e-01   6.4998230e-01  -6.1791919e-02  -5.4227880e-01   8.4573152e-01   5.1158179e-01   7.8585368e-01   7.5569443e-01  -9.6724425e-01   3.1684185e-01   3.4131665e-01   5.7048946e-01  -6.6204644e-01   6.5633537e-01   1.1475157e-01   3.5186828e-02   1.2202586e-01  -7.4284079e-01   8.0752951e-01  -8.3439890e-01   1.3964340e-01  -6.1856043e-01  -2.8828800e-01   4.4156035e-02   5.0232946e-01  -7.8830330e-01   5.9155314e-01   8.8656162e-02   3.3637562e-01  -8.9573965e-01  -9.4201990e-01  -6.5300629e-01   6.7005593e-01  -4.1394156e-01  -6.6488173e-01   3.8827787e-01   1.9885836e-01   1.1079952e-01   2.3584927e-01  -2.9619346e-01   8.2771324e-01   8.0608935e-01  -3.8092530e-01  -5.9435395e-01  -8.6717787e-01   8.4411823e-01  -6.3974804e-01   4.8558305e-01  -4.8111397e-01  -7.0443237e-01  -8.9192693e-01   2.9334812e-01  -6.2568074e-01   5.7951694e-02  -4.0969430e-01  -6.5322468e-01  -7.4345140e-01  -9.9321837e-01   7.8830186e-01   7.0872444e-01  -6.1345918e-01   1.5130225e-01  -8.0401546e-01   4.6607596e-01  -3.8852597e-01  -1.3015616e-01  -6.9534223e-01  -2.2385687e-01   4.4215074e-01   5.1077374e-01  -6.4482893e-01   7.8137119e-01   3.5263849e-01   5.3570023e-02  -5.2610627e-01   6.5977182e-01  -6.0344973e-01   6.7420921e-01  -6.8248559e-01   1.5224466e-01  -8.6066006e-01   4.2379161e-01   2.2729232e-02  -8.2931585e-01  -1.5726782e-01  -4.3712542e-01  -8.1680602e-01  -9.5526653e-01   4.5311262e-01  -3.3198482e-01   7.4276457e-01  -8.9256132e-01   3.7499973e-01  -7.2056646e-02   9.4659270e-01   9.9471310e-01   2.4378366e-01  -3.4251076e-01  -1.0412790e-01   9.1670055e-01   2.7565593e-01   2.6308951e-01   1.5716130e-01   8.0722485e-01  -8.0186085e-01   1.2953981e-01   2.9392535e-01  -5.3194584e-01   8.1422533e-01  -6.3912924e-01   9.7021274e-01   7.3580484e-01   4.6268629e-01   9.3790370e-01  -8.5731800e-01  -1.2122448e-01   9.4341677e-01  -7.7346403e-01   6.0956179e-01  -3.7109846e-01  -7.2576801e-01   7.0662750e-01   1.5471184e-01  -1.5832439e-02  -5.5688229e-01   2.7190167e-01  -7.3049279e-01   3.0065666e-01   5.0881828e-02   5.0778830e-01   9.4388082e-01  -8.5697713e-01   3.8706217e-02   9.9159808e-01   7.7729770e-02   4.1376388e-01   7.5228231e-01  -1.1784999e-01  -5.2845911e-01  -8.3979989e-01   1.4029181e-01  -4.0592406e-01  -6.8558404e-01  -7.0041408e-01  -7.7338045e-01   3.9821706e-01  -2.0061119e-01   9.1993079e-01   9.5286091e-01   4.1201715e-01   8.5473673e-01   8.1423860e-01  -8.4570387e-01   8.8697274e-01  -8.8374766e-01  -1.8958914e-01   9.1515854e-01  -5.2016978e-01   8.5992684e-01  -6.3452523e-01   6.8313710e-01  -9.2716526e-01   3.1431796e-02  -3.7404569e-01   9.5539074e-01   4.5139660e-01  -7.6740894e-01  -1.4179817e-01   9.4399311e-01  -7.8443699e-01  -8.8456044e-01  -3.1611842e-01   5.6026198e-01   2.7850513e-01  -1.7416579e-01   4.1442971e-01  -9.1543529e-01  -4.4266091e-01  -4.1154107e-01   5.9448089e-01  -1.5309873e-02  -1.1184882e-02   5.2485138e-01  -4.0347180e-02  -5.3609667e-02  -2.1572355e-01   7.7352990e-01   5.1901219e-01   5.5741043e-01  -7.1668685e-01  -1.7441320e-01   9.6548489e-01   6.9166352e-02  -1.6911420e-01  -2.5145037e-01  -1.5527749e-01  -9.1931732e-01   7.6157438e-01  -6.1561665e-01   7.1460363e-01  -3.1181298e-01   9.0848055e-01  -6.1790533e-01   9.4110237e-01  -7.4329393e-01   5.7646637e-01   7.9376388e-01   3.0723413e-01   8.0484481e-01  -8.3172452e-01  -5.9427712e-01   5.5435288e-01  -8.0724027e-01   6.2989990e-01  -2.6443787e-01  -9.8785362e-01  -2.7680203e-02  -9.2962932e-01   9.1297802e-01  -1.0447375e-02  -2.7338381e-01  -6.4358090e-01   3.6602711e-01   2.8992244e-01  -8.9182724e-01   8.8097824e-01  -2.5600607e-02  -2.7378618e-01  -4.9745117e-01   2.1647012e-01  -1.3985377e-01  -8.4388058e-01  -6.6089447e-01   2.4897201e-01  -9.1657546e-01  -9.7338359e-01  -7.0934093e-01   5.8651539e-01  -5.4470489e-03   4.9304626e-01  -2.0000299e-01  -8.1120222e-01  -8.1206573e-01   4.8583232e-01  -1.0990135e-02   8.0309428e-01  -7.2607993e-01   5.9184831e-02  -6.5552764e-01   2.3871711e-01   9.1047578e-01   5.7917204e-01   9.0594892e-03   7.6074719e-01  -3.5842520e-01   3.2890584e-01  -5.8187305e-01  -8.8292499e-01   1.2119074e-01  -7.5863614e-01  -5.8361391e-01   2.2401852e-01   6.4460534e-01  -4.2334569e-01  -7.7946835e-01   2.6586548e-01  -6.5347848e-01   1.3011636e-01   5.4146867e-01  -5.0611887e-01   6.0951471e-01   8.6861512e-01  -8.0713102e-01   3.3304296e-01   4.0756948e-01   2.0583706e-02   5.2861480e-01   3.4672178e-01  -6.5130584e-01   6.5480713e-01  -9.5795608e-01   8.4432881e-01   1.5416839e-02   2.8591892e-01   4.1444280e-01   3.4933835e-01   8.6033732e-01  -6.9748039e-01   8.5747182e-01  -2.0706580e-01  -9.8022449e-01  -1.2752922e-01   6.3539717e-01   3.0785698e-01   8.9081271e-01  -3.2682332e-01  -5.6042432e-01   5.3099423e-01   6.0043271e-01   7.6475815e-01  -5.2170792e-01  -5.8663554e-01  -2.1263780e-01  -4.5885020e-01  -9.4773214e-01  -2.8773748e-01   8.9994280e-01   4.3438532e-01   9.7713931e-01   7.4284323e-01  -7.5053102e-02  -5.0328017e-01  -1.0803125e-01  -4.8364668e-02  -5.5052937e-01   2.4946367e-01   5.8493818e-01  -8.1981004e-01  -1.0482604e-01   1.9624325e-02  -4.3780956e-02   9.9410214e-01  -9.6356036e-01  -9.4464646e-01  -9.4430492e-01   2.5967165e-01  -7.9817210e-01   4.8896838e-01   7.1566020e-01  -1.6604693e-01   4.0675891e-01  -8.8537571e-01  -9.9163647e-02  -6.8793868e-01  -1.5763987e-01  -4.9769897e-01  -1.1579902e-02   5.3968216e-01  -3.6994024e-01   6.8779371e-01   4.4334057e-01  -2.9819474e-01  -1.6552109e-01  -1.9450676e-01   8.7781394e-01  -5.3010038e-01  -6.0733221e-01  -6.5086365e-01  -5.3826679e-01   2.3869373e-01  -9.9221629e-01   8.6397169e-01  -2.5761740e-01   4.0341521e-01   5.1684850e-01  -6.6823070e-01  -4.5163320e-01  -7.5101077e-01  -1.1125863e-03   4.4573986e-01   5.3971789e-01  -8.0435748e-01   2.4574572e-01   8.6028789e-01  -6.7066819e-01   7.6207882e-02   2.0874685e-01  -8.9552126e-01   4.6200186e-01  -3.6642411e-01   4.0189310e-01   2.9552573e-01  -7.9417720e-01   5.5537487e-01  -2.7584173e-01   3.1205509e-01   8.5593794e-01  -4.3213693e-01   2.7993722e-01   7.1091843e-01   7.4085756e-01  -3.8972411e-01  -7.3431631e-01   2.6442358e-01   2.9119102e-01  -9.7042953e-02   8.6887400e-01  -5.1102795e-01  -1.3558500e-01   7.5130593e-01  -6.0808524e-01   1.3938558e-01   9.4463989e-01  -8.4127784e-01   1.1816591e-02  -8.5790245e-01  -1.7840462e-01   4.7529748e-01  -4.2479730e-01  -4.1578478e-01   1.0570328e-01  -3.1488206e-01   4.3298963e-01  -4.6742716e-01  -2.9045197e-01   1.8066203e-01  -3.6375566e-01  -9.5867927e-01   4.0432382e-01   1.3988391e-01  -9.3828172e-01  -2.8005661e-01   2.8478513e-01   7.9870606e-01   7.0004127e-01   2.9862172e-01   4.5907941e-02   5.9010791e-02   9.4962844e-01   5.7159381e-01   1.4549441e-01   4.4179979e-01   9.9875943e-01  -8.6248340e-02  -1.9258678e-01   5.0783004e-01  -5.0302043e-01  -5.1383748e-01  -4.1201216e-01  -9.3893721e-01  -5.9505332e-01   3.4509602e-01  -7.9778349e-01   3.1764096e-01   5.7052324e-01   8.4237618e-01  -8.7424668e-01  -9.0387533e-01  -1.5546531e-01  -2.3129935e-01  -9.8994151e-01   3.6953168e-02  -2.8248657e-01  -3.9795946e-01  -9.1528775e-01   9.2660292e-03   5.5495065e-01   8.5958483e-01   7.6065605e-01   7.9606312e-01   4.2284923e-01   3.6095239e-01   7.4171098e-01  -3.2317350e-01   5.9540447e-01   3.7646820e-01  -6.6495612e-01  -7.8285791e-01  -7.6266189e-01  -2.2764783e-01   9.4393618e-01  -5.7880715e-01   5.9692377e-01  -4.6744905e-01  -4.4422179e-01   9.4234807e-01  -6.2047539e-01  -2.3943544e-01  -2.9119078e-01  -4.4271978e-01   8.7114791e-01   8.5189784e-01  -5.3930943e-01  -6.0960643e-01   6.6537379e-01  -9.3283423e-01   6.0485801e-01  -4.1174913e-01   6.0677235e-01   2.7480935e-02   5.4992831e-01  -2.7533083e-01   1.3103755e-01   1.8488702e-01   8.3855395e-01  -2.1881912e-01   7.6549807e-01   3.4991572e-01  -7.3258516e-01  -5.6618455e-02  -6.9331636e-01  -9.9354534e-01   9.0944890e-01   6.6586845e-01  -8.1566167e-01   8.4774233e-01   5.5588511e-01  -5.4479677e-01   8.3932680e-01  -6.8445483e-01  -8.4157574e-01  -1.8924332e-01   9.5327906e-01   5.6472294e-01   7.4609003e-01   6.7495142e-01  -3.5932214e-01  -2.4708491e-01  -4.9245471e-01  -8.2394857e-01  -2.9085221e-01  -6.4758906e-01   4.2302017e-01   3.4178656e-01  -8.5354735e-01   2.8855931e-01   4.3791241e-01  -9.5589700e-01   1.5008612e-01  -4.3789175e-01   2.3761158e-01   8.2964113e-01  -7.0595734e-01  -6.9108983e-01   8.8755110e-01   8.8220167e-01  -3.1373898e-01  -7.5331590e-01  -9.1536544e-01  -3.7841121e-02   1.2945485e-01  -1.5161727e-01   5.6804380e-01  -8.0695333e-01   5.7887162e-01  -5.5843121e-01  -8.6357352e-01   8.1736511e-01   3.1653737e-02  -2.6373214e-01   2.6097522e-01   8.3409615e-02  -4.9176647e-01   8.0984291e-01   6.0609447e-01  -6.5116682e-01   5.5919382e-02   4.6336151e-02   9.8380176e-02   7.6374216e-01   3.9490691e-01   9.6358746e-01   3.5473656e-01  -3.2256070e-01   5.3953601e-01   8.9097621e-01   8.3013413e-01   7.7307526e-01   3.7360891e-01  -6.4547656e-02  -6.4620360e-01  -7.3929978e-01  -9.0418246e-01  -5.7159354e-01  -1.0689021e-01  -5.5350499e-01  -2.4683371e-01  -6.5762090e-01  -1.1650590e-01  -8.5066420e-01   4.3219780e-01  -6.1798682e-01   7.1920685e-01  -2.0678327e-01  -7.3619928e-01  -3.1318420e-01  -8.2237995e-01   3.5189599e-01  -5.3425596e-01  -7.5048380e-02   5.8225793e-01   6.5842708e-01   6.5178156e-01   2.2284348e-01   1.9831746e-01   3.4081990e-01   7.5715793e-02  -9.5679427e-01   4.3519383e-02   3.6786208e-02  -6.3485419e-01   8.0301330e-01   4.4696813e-01  -5.9742574e-01   2.9899117e-01  -1.1791803e-01   2.1374308e-01   8.0779013e-01   1.0245550e-01   8.3460443e-02  -6.8135079e-01   5.9306567e-01  -3.7662523e-01   9.6581282e-01   2.8493541e-01   3.5703190e-02   4.4832291e-01  -7.5806122e-01   5.8759037e-01  -6.7664389e-01   2.1735999e-01  -1.9402776e-01  -3.5226154e-01  -4.0257281e-01   1.9091776e-02  -2.4887212e-01  -7.2480675e-01  -6.0248972e-01  -9.8913758e-01  -8.4081824e-01  -1.5737205e-01   6.0456590e-02   4.9786336e-01  -1.5866970e-01  -8.6345795e-01  -8.6565774e-01  -2.0964745e-01  -3.6271427e-01   8.3149380e-01  -7.6168217e-01  -4.8036762e-01  -5.3114678e-01  -4.3092289e-01   5.4183652e-01   5.9196225e-01   1.3145415e-01  -9.6947326e-01   1.7367996e-01   9.9109802e-02  -6.8847163e-01  -4.2683829e-01   4.1098229e-01  -1.4376638e-01   6.9109966e-01  -9.3302812e-02   9.0405713e-01  -8.5684982e-01  -5.3639608e-01   7.7804649e-01   1.6228712e-01   1.6689000e-01  -2.0900199e-01  -1.1719963e-01   9.1455745e-01   2.5839210e-01   4.5404995e-01   7.7714219e-01  -3.1563742e-01   3.4875716e-02  -2.5110961e-01  -8.2536513e-01  -3.7401847e-01   6.9428925e-01   3.5018081e-01  -2.5771548e-01   8.6488993e-01  -2.0750244e-01  -2.2918225e-01   1.6841003e-01   5.9826009e-02   8.0444443e-02   5.5679696e-01  -6.6421042e-01   5.1343935e-01   9.2993845e-01   2.9292814e-01   8.9086391e-01   8.6653530e-01   4.8468200e-01   9.6902639e-01
   6.4521797e-01  -4.1660996e-01   5.7682092e-01  -1.4109900e-01  -3.6436577e-01   4.0161733e-01  -3.1341719e-01   5.8288760e-01  -2.8025671e-01  -6.5387992e-01   9.4808775e-01  -8.1950535e-01   3.0101522e-01  -5.7620699e-02  -1.7111615e-01  -5.3327135e-01   1.9269960e-01   6.2409657e-01   4.4184200e-02   2.9054044e-01   8.0058911e-01  -5.5365421e-02   5.9611891e-01  -8.9041324e-01   1.0950883e-01   1.6139066e-01  -9.2371157e-01   8.7129764e-01  -5.9053205e-01   5.4308496e-01   4.0577010e-02  -5.2212295e-01   8.5888677e-01  -9.5911079e-01  -1.6445656e-01   9.9670579e-01  -4.0074740e-01   1.1312406e-01  -7.8687222e-01  -4.5431425e-01  -4.7694744e-01  -8.9466281e-01  -8.3193014e-01   9.5012979e-01   9.7391920e-01   6.9999401e-01   5.6251966e-01   1.5266565e-01  -5.3168363e-01  -9.4208529e-01   5.8939620e-01  -3.2469538e-01  -7.1871432e-02  -6.5274879e-01  -3.0526146e-01  -7.1154761e-01   3.6094359e-01  -1.3308290e-01   9.7071812e-01   1.6723473e-01  -6.0414644e-01  -3.6579069e-01  -2.8106045e-01   4.7621489e-02   9.4258424e-01  -5.6608167e-01   5.9005242e-01   1.9646517e-01  -1.9631341e-01   8.9979866e-01  -9.6409456e-01  -6.3792903e-01  -9.0024204e-01  -5.8972332e-01   6.4792493e-01  -9.0309959e-01  -8.6056428e-01  -8.8595794e-01   4.1230819e-01  -8.3010460e-01  -1.9382122e-02  -3.7942165e-01   4.0028558e-01   8.9096387e-01  -5.8118842e-01   1.7461501e-01   4.8391092e-01   3.4126350e-01  -1.7676217e-01  -4.3024155e-01   3.5525321e-01  -6.4640762e-01   3.5873700e-01   8.1392063e-01   5.6129489e-03   5.5996129e-01   8.5498370e-01  -5.3080863e-01   2.6370776e-01  -2.6473054e-01  -6.3416344e-01  -7.5530981e-01   1.1024991e-01  -5.7465133e-01   9.0554201e-01  -7.2446442e-01  -9.2512063e-01  -7.3024927e-01   2.0933562e-01  -8.7804150e-01   7.5864460e-01   4.3371756e-01  -1.2294517e-01   6.5703233e-01  -9.8909138e-01  -4.0629255e-01   3.0925475e-01   9.1614132e-01  -7.4843041e-01  -9.4436198e-01   7.7886444e-01  -8.1148870e-02  -7.8670142e-01  -1.4821867e-02   6.2245105e-01   1.4767515e-01  -2.9051541e-01  -7.8444874e-01   4.3759648e-01  -5.0836698e-01   5.6832239e-01  -2.3848494e-01  -2.1309638e-01   2.9377709e-01   2.2956431e-01  -4.8449084e-02  -9.9240458e-02  -8.9143773e-01   5.2354546e-01  -4.5533653e-01   4.1132318e-01  -8.5292647e-01   2.5716300e-01   9.9342821e-01  -1.3268992e-02   5.9686388e-01   1.0866488e-01  -7.6944224e-01  -6.6839478e-02   9.1638002e-01   8.4296159e-02   4.7938508e-01   6.7588507e-01   7.9378208e-01  -9.9792785e-01  -5.6875723e-01   9.7221594e-01  -3.7874373e-01   8.9164190e-01  -7.2062150e-01   2.0793428e-01  -3.8323946e-01   4.3134104e-01  -4.4009653e-01  -9.9560868e-03   6.2181369e-01  -2.4297712e-01   5.8297110e-02   5.3245123e-01  -1.1534538e-01   7.9254383e-01   7.9204686e-01   2.3560863e-01  -9.9880133e-01   3.8075878e-01   7.5150219e-01  -1.9121450e-01  -1.3415775e-01  -4.2253739e-01  -2.4839097e-01   7.1395963e-01  -7.2686760e-01  -6.5030963e-01  -9.7765403e-01   9.8486373e-01  -5.7996216e-02   4.0630838e-01  -3.5319190e-01  -2.8371788e-02   2.8996810e-01   7.4443714e-01   7.5169319e-01  -5.0007391e-01  -4.9471638e-02   3.4405791e-02  -1.4559715e-01   6.4749337e-01   1.5168401e-01  -6.7451958e-01   1.8472938e-01   1.9935117e-01  -2.0980114e-01  -7.0669899e-01  -6.6276158e-03  -4.1158818e-02  -7.9043502e-01   8.3926518e-01   3.2780891e-01   5.7025031e-01  -1.1434170e-01   5.8567998e-01  -6.8587444e-01   9.2481119e-02  -9.9876756e-01   4.8813752e-01  -5.7885603e-01  -4.2300209e-01  -2.9034122e-01   8.2892784e-01   4.7126111e-01   1.8100799e-01  -9.1494584e-01   5.3890102e-01   7.6474863e-01   3.4111657e-01  -1.7793193e-01  -1.4503229e-01   4.7914977e-01   1.6107642e-01   4.5201524e-01   2.3109405e-01  -3.4829011e-01  -3.4368055e-01   9.3756579e-01  -4.6005684e-01  -6.6021239e-01   6.4085618e-01  -3.0080445e-01   5.3728768e-01   2.3026721e-02  -3.7742549e-01   4.4165816e-01  -9.6424901e-01   9.1034755e-01   6.8405657e-01  -1.9196831e-01  -2.6000877e-01  -3.7123705e-01   1.9489467e-01   8.0670054e-01  -8.4924592e-01   7.8746036e-01   7.7811028e-01  -5.0167508e-01  -7.9416431e-01   7.3577331e-01   8.6609845e-01   9.1733923e-01  -7.3997501e-01   4.1996026e-01  -7.9116549e-01   2.8395002e-01   6.0365893e-01   2.7593312e-01   4.4757471e-01   4.6693841e-01   3.9548355e-01  -8.5532462e-01   9.4303292e-01  -6.3757257e-01   2.2626080e-01  -5.1131060e-01  -3.1214403e-01   6.3097508e-01   9.4656779e-01   8.0901973e-01  -6.4843604e-01   2.3940408e-01   9.4310193e-01   3.6071037e-01   1.5708409e-01   9.9667879e-01   8.8799709e-01   3.8398582e-01   9.6452800e-01  -8.5721989e-01  -6.9229022e-01  -1.1012798e-01  -5.1992149e-01   7.8254218e-01   9.1147269e-02  -3.6556540e-02   6.6559408e-01   7.2102829e-01  -2.2307864e-01   9.6699198e-01   3.5303731e-01   2.1728086e-01  -4.8033366e-01   8.0990503e-01   7.2195365e-01   3.8069022e-02   9.4071248e-01  -5.8710091e-01  -5.5901458e-01   7.2051405e-02  -3.8883566e-01   4.8392574e-01   2.5252940e-01  -5.2239975e-01  -7.1624453e-01  -6.1086462e-01   8.6120192e-01   7.5237991e-01   4.1689411e-01  -6.1088147e-01  -8.2410902e-01  -1.2109413e-01   8.0249927e-01  -9.6612093e-01  -8.9028364e-01   1.6262536e-01  -5.2831548e-01   5.4228911e-01  -3.6063598e-01  -4.1746977e-02  -7.3322677e-01  -3.7145482e-01   7.3936662e-01  -7.2019557e-01  -6.5629972e-01   1.1094719e-01  -2.6456996e-01   8.3445384e-01   8.7704100e-05   3.4184271e-01  -5.7291931e-01  -1.9464918e-01   7.9898159e-01  -9.4172916e-01  -2.3154244e-01  -1.2972040e-01  -4.4547749e-01   1.8909975e-01   8.3836184e-01  -1.6115028e-01   5.4791085e-01  -1.0585770e-02  -1.0534425e-01   9.9609560e-01  -4.4803640e-01   4.5621963e-01  -9.1762042e-02   4.2774932e-01   1.8747752e-01   1.4885539e-01   2.5686279e-01   6.0049067e-01  -1.0266217e-01  -8.7258665e-01  -3.7680076e-01   3.4692190e-01   9.5361277e-01   2.6177932e-01  -4.6736680e-01  -7.6831244e-01   8.6129136e-01   8.8593118e-01   9.2724702e-01  -4.3679228e-01  -6.9206674e-01   8.6388836e-01  -3.9657617e-01   3.4015511e-01   2.8255366e-01   6.8248225e-01  -2.4234672e-01  -8.5433272e-01  -1.3930397e-01   9.5583633e-01  -6.3502708e-01   9.0759790e-01   1.0188172e-02  -9.7211251e-01  -3.0937361e-01   8.0423363e-01   5.1027298e-01  -4.6559723e-01   4.9930670e-01  -7.6305722e-01  -8.2314530e-01  -8.7794440e-01   7.1333983e-01   8.5059626e-01  -2.0976223e-01  -6.5109779e-01  -9.8780956e-01   1.3130489e-01  -8.9472322e-01  -5.7524854e-01   6.3562301e-01   4.6106014e-01  -7.4109253e-01  -3.6750824e-02  -9.0322388e-01  -9.9699234e-01  -9.7988679e-01  -3.8599352e-01   9.9712099e-01  -1.7684374e-01  -1.8567475e-01   3.8648118e-01  -5.4562107e-01   8.0094334e-01  -4.1839627e-01  -8.7546296e-01   7.3246368e-01  -8.3562920e-01   4.2436970e-01  -9.5254195e-01   6.3257043e-01   4.5584195e-01   2.1648784e-01   1.7864416e-01  -7.6177620e-01   9.0020838e-01   4.3480461e-01  -3.9794128e-01  -6.3543881e-02  -9.5879991e-01  -1.6691391e-01  -5.6115609e-01  -5.2857592e-01  -7.3387573e-01  -4.6895634e-01  -1.8445811e-01  -8.2010604e-01  -9.7886450e-01  -5.5575576e-01   9.8729970e-01   8.4716422e-01   7.1884413e-01  -8.9499799e-01  -5.9247864e-01  -8.9099553e-02  -6.0629724e-01   1.7897665e-01  -8.0212665e-01   7.6634019e-01   6.0464886e-01  -5.7508777e-01  -4.0948747e-01  -2.0019911e-01   7.6639217e-02   2.4964000e-01   7.8949053e-01  -1.3933010e-01   2.9097358e-01  -3.5571151e-01  -1.7612118e-01  -7.8221367e-01   1.0457670e-01  -4.1592564e-01   2.3963995e-01   5.6869475e-01  -6.8106774e-01  -5.2284396e-01  -4.9863415e-01  -1.2282738e-01  -8.1883832e-01  -2.1756885e-01  -6.4463748e-01   9.3446362e-01  -4.0283060e-01   9.1206905e-02   4.2972571e-01  -5.7321000e-01   3.9351413e-01   8.8845153e-01   7.1949247e-01  -7.9808215e-01   6.1468403e-01   3.4902822e-01   1.0860140e-01   7.3462902e-01  -9.3141883e-01   4.7371897e-01   5.1148662e-01   4.4562512e-01  -8.6400286e-02  -9.6416575e-01  -2.0090801e-01   9.0816621e-01   8.2085940e-02  -8.7881408e-01  -6.3367890e-02  -5.0903124e-01  -9.8004488e-01  -1.3449209e-01  -4.0585186e-01   9.0471662e-01   6.5219779e-01   3.1975397e-01  -9.3935692e-01  -6.6055779e-01  -2.8785891e-01   3.2353615e-01   1.8023216e-01  -7.3235705e-01   2.0696427e-01  -4.8064145e-01   4.4334779e-01  -4.8334020e-01  -1.1200220e-01   6.2425948e-01  -5.1399403e-01  -2.7193479e-01   4.7796361e-01  -3.3478667e-02  -2.2385850e-01  -6.8118241e-01  -9.6546425e-01  -9.9713353e-01  -2.9265510e-01  -1.3245460e-01   8.2722613e-01  -4.0057893e-01   1.9114575e-02   3.1754689e-01   8.5977645e-01   6.9162946e-01   6.0230186e-01  -1.5900201e-02  -9.7061665e-01   5.2393784e-01  -3.8635026e-01   7.5040305e-01   3.1247101e-01  -9.2661099e-01   2.3049266e-01  -1.8283075e-01  -6.8650783e-01   9.3087043e-02  -2.5114444e-01  -2.8982347e-01   3.9493800e-01   4.2724125e-01  -5.3173766e-01  -3.5830908e-01   7.0644097e-01  -6.2120159e-01   9.7973227e-01  -5.5278392e-02  -7.5789421e-01  -5.8693357e-01  -1.7454223e-01  -6.4827522e-02   8.5738287e-01   1.0571133e-01   1.3395128e-01   6.1580551e-01   7.5572400e-01   7.9738492e-01   5.7551930e-01   6.5596771e-01   2.3558347e-01  -7.9711863e-02   9.9036164e-01   4.3127740e-01   6.7436946e-01   3.7794008e-01  -1.4678894e-02   7.6666973e-01   8.2653056e-01   7.5917889e-01  -4.1364617e-01  -7.4057541e-02  -1.0976041e-02  -9.8256958e-01  -5.3542442e-01   4.0452153e-01  -1.2742071e-01   9.7071933e-01   2.0933167e-01  -9.9988124e-01  -2.0533314e-01  -5.2741967e-01   4.6979509e-01   4.4299411e-01  -9.5788248e-01  -6.7989173e-01   6.5962310e-01  -6.1381093e-01  -2.5970091e-01   2.0474633e-03   7.2792847e-02  -9.9587571e-01  -3.9022304e-01  -7.9877519e-01  -4.2637564e-01  -9.4318507e-01  -8.0389015e-01  -6.6201664e-01  -4.9247062e-01  -4.8870695e-01  -4.4057173e-01   4.5480587e-01   9.0527410e-01  -8.5355365e-01  -3.1935802e-01  -8.9823257e-01   6.6613847e-01  -4.2256053e-01  -6.9968449e-01  -9.7973695e-01   5.7974349e-02   1.0484896e-01   5.7233397e-01  -8.2000359e-01   5.4333906e-01  -8.9063687e-01   8.6561892e-01   8.1722794e-01  -8.9738487e-01   1.3834773e-01   3.8546915e-01  -1.1526505e-01  -1.3079043e-01   2.5975918e-01  -1.4249473e-01  -9.1122266e-01  -1.6793137e-01   4.8778671e-01   6.5969664e-01   8.5203709e-01  -7.9741023e-01  -7.1701971e-01   9.6124664e-01   3.9947363e-01  -5.6610527e-01   1.8475255e-01  -3.1319457e-01  -1.1704946e-01   8.2691217e-01   6.5770348e-02  -9.5729544e-01  -6.4342947e-01   9.1078746e-01  -8.8075520e-01  -3.2469174e-01  -1.9322596e-01  -2.8893512e-01   9.9775518e-01   2.5219594e-01  -3.8754119e-01   4.4619021e-02  -5.8749601e-01  -6.0088530e-01  -8.7525286e-01  -1.7208794e-01   2.7133680e-01   4.1081889e-02   5.7356993e-01   7.1367645e-01  -2.4654530e-01  -8.7472566e-02   2.3496215e-01  -5.9653227e-02   9.8712151e-01  -2.3050821e-01   9.8564272e-01   8.9730711e-01   1.2518727e-01  -2.9932178e-03   2.9722796e-01   2.6803720e-01   2.6995283e-01  -7.7867826e-02  -6.5222067e-01   4.6456829e-02  -6.7114071e-01   6.5305925e-01  -5.0052225e-01  -6.9515059e-01   9.6857624e-01  -7.3443138e-01  -7.3861133e-01  -1.0368219e-01  -6.0953353e-01   6.0208693e-01   6.7868138e-01  -7.3634803e-01   9.9304681e-01  -6.8246875e-01  -8.2329687e-01  -2.1863559e-01  -4.7521620e-01  -5.6797315e-01  -2.8680863e-01  -8.6581380e-01   1.0302534e-01   5.1654000e-01  -2.6729603e-01  -5.6019473e-01   8.0498143e-01   3.9439877e-01   6.9388345e-01  -6.8005463e-01  -6.0133392e-01   3.6800327e-01  -6.9571280e-01   8.9985549e-01  -9.0813618e-01  -5.8526959e-01   1.3119689e-01  -6.7453859e-01   5.4913303e-01  -4.6549666e-02   8.8537063e-01  -8.5983635e-01   8.1283402e-01   1.7206134e-01   9.9020857e-01  -3.8584640e-01   9.8739010e-01   9.6637026e-01   6.0415116e-01   9.5886448e-01  -3.5777841e-02  -5.1909945e-01  -8.5638710e-01   1.0119423e-01   3.8293095e-01  -2.9266249e-01   3.1472567e-01  -2.8495148e-01  -1.4492620e-01   3.4317361e-01  -8.7846449e-02  -6.5336629e-01  -6.1484542e-01  -9.5478265e-01   9.0431206e-01   5.8030545e-01   2.4397450e-01  -8.9349017e-01   3.5316710e-01  -4.3255559e-01   6.3803314e-01  -4.7622629e-01  -9.0100663e-01  -8.4788229e-02  -9.3572968e-01  -5.7340169e-01   3.0939011e-01   3.1535687e-01  -2.2150069e-01   9.4018029e-01  -6.8484221e-01   6.8663214e-01  -2.5878548e-01  -3.0668231e-01  -3.8936022e-02   3.1618829e-01  -6.6645046e-01   4.3821104e-01  -2.2733570e-02  -9.9452652e-01   2.6311392e-01  -4.2618342e-01  -8.5658771e-01   9.6459131e-01  -7.1190471e-01   9.3872510e-01  -1.7556282e-01   9.5534765e-01  -4.7154580e-01   3.6163572e-01  -9.5313805e-01  -6.2344988e-01  -8.7319271e-01  -6.0388846e-01  -9.8828192e-01  -8.5072691e-01   2.9433894e-01   4.5520348e-01  -8.2091493e-01   8.4761776e-01   5.8596480e-01  -6.2245426e-01  -8.4432868e-01   1.5890056e-01   8.7446723e-02  -6.3644064e-01  -5.3283086e-01  -4.4432516e-01  -2.3755150e-01  -1.5179424e-02   7.1990179e-01   2.6482585e-01  -4.7730083e-01  -6.6081169e-01  -6.4567241e-01  -8.9901142e-01   8.4919557e-01   2.3259345e-02  -3.6349109e-01   2.7708904e-01   4.3054111e-01  -8.2552244e-01   7.2880967e-01   1.2091495e-01  -1.6636737e-01  -1.1737286e-01   1.6185512e-01  -2.3401164e-01   1.1935595e-01   1.5450418e-01   9.2042456e-01  -2.9303548e-01   9.8479539e-02  -9.2339244e-01   1.3877744e-01  -7.2583985e-01   2.5803694e-01  -5.3407821e-01   6.5719442e-01  -7.7607339e-01  -7.7351350e-01   8.2201464e-01   6.3251530e-01  -4.4329332e-01  -3.1845606e-01  -9.3985026e-01  -4.0518967e-01   5.7309065e-01   4.5726130e-01  -7.9790380e-01   9.8979503e-01  -9.0840986e-01  -2.8202186e-01  -9.9095925e-01  -1.1268609e-02   4.3125003e-01  -5.9720568e-01   5.9306838e-01   3.6206469e-02  -3.5712470e-01   1.7606535e-01  -6.7439083e-02   2.9915596e-01  -1.1680109e-02  -2.3613032e-01   5.5124257e-01   6.5341495e-01  -2.3796044e-01  -5.7506029e-01   7.6395607e-01  -1.3637582e-01   2.4929741e-01  -3.4675492e-02  -5.0026934e-01  -1.3613423e-01   7.6044584e-01   9.2951510e-01  -3.5960865e-01  -7.1998123e-01   9.5725460e-01   1.9412039e-01  -5.6282400e-01  -6.0855550e-01  -6.5038186e-01  -8.2103542e-01   5.3867152e-01   8.2138748e-01   3.7523237e-01  -4.3301961e-02  -8.4750476e-01   1.3210279e-01   1.5073454e-01   6.9147061e-01  -6.8221420e-01   8.4985181e-01  -5.7567127e-01   4.1942202e-01   1.3310449e-01  -6.1580201e-01   1.5001944e-01  -9.7396639e-01  -2.9636087e-02  -8.0447147e-01  -5.4460238e-01  -9.8632693e-02   5.0651943e-01  -5.3283526e-01   1.0006484e-01   6.6474182e-01  -4.4740807e-01  -1.7342115e-01  -9.4337769e-01   3.3100980e-01  -6.4823549e-01   6.6065920e-01  -2.5778899e-01   6.9033706e-02   9.7005495e-01   2.3676679e-01   2.2542311e-01   1.6068293e-02  -1.1868544e-01   5.2662316e-01   1.5225425e-01   5.3914501e-01  -3.0666298e-01   5.0085740e-01   8.2428485e-02   6.3750560e-01  -9.8938721e-01   5.7068362e-01   2.0553921e-01  -3.9268015e-01   3.7313289e-02  -7.9635866e-01   5.4849616e-01   8.3738070e-02  -8.3687674e-01   6.2335319e-01  -1.7938465e-02  -9.9402703e-01  -9.5588506e-01  -5.8675887e-02   4.7309111e-01   8.6019377e-02  -3.9087889e-01   8.2264311e-01  -9.1793695e-01   2.8129605e-01  -1.2927351e-01   8.2808001e-01  -3.0913904e-01  -8.6919051e-01  -9.1241760e-01   7.8488383e-01  -6.8333659e-01   9.8460271e-01   4.9635380e-01  -8.2807454e-01   3.7318874e-01  -9.6468522e-01  -1.0790355e-01   9.9315762e-01  -6.6895884e-01   8.8086781e-03   4.4903534e-01   7.8609923e-01  -9.5607397e-01  -9.2425172e-01   5.7255159e-01   2.1997560e-02   8.1540934e-01  -5.7644154e-01  -8.9514305e-01   3.2203009e-01  -2.7207032e-01  -2.2797927e-01   2.5584203e-01  -8.6247754e-01   4.6658523e-01  -7.3274903e-01  -3.1473097e-01   4.1367550e-01   8.5815630e-02   6.1583769e-01   8.5438331e-01  -5.3519186e-01  -2.4473142e-01  -5.0890234e-01  -5.5368614e-02   9.6959998e-01   1.4962306e-01  -6.5479051e-01   1.7396373e-01   2.0117319e-01   4.8238225e-01   1.2624597e-01  -9.9549180e-01   1.5583671e-01  -2.9639701e-01   9.1621370e-01  -9.4550157e-01   7.8865568e-01   6.1372356e-02   3.5141727e-01  -3.5092208e-01   8.2203693e-01   5.4191073e-01  -6.8532612e-02   6.5651577e-01   8.1281392e-01   5.0844513e-01
