  -5.1201592e-01   9.9440781e-01   7.1068170e-01   1.1228370e-01   4.0523114e-01  -6.7262518e-01  -2.2107005e-01   2.6172066e-02   1.1553461e-01   2.6960633e-01  -9.5280538e-01   9.5901790e-01  -9.5880674e-02   9.4967730e-01  -1.1633663e-01   9.5602453e-01  -2.1631870e-01  -7.3083145e-01  -4.9758893e-01  -8.8211608e-01  -9.4027940e-01  -8.6357828e-01   7.5795077e-01   8.2506591e-01  -6.9729459e-01   8.6213372e-01  -1.5951169e-01   7.3426368e-02   1.9421926e-01  -2.6981465e-01   5.2421657e-01   1.7327924e-01   5.9569852e-01  -7.5163091e-01  -3.0873623e-01   2.7808830e-01   7.1973949e-01   2.6957329e-01  -4.3926559e-01  -2.7391200e-01   2.8877061e-01  -6.8090782e-01  -8.6364641e-01  -8.3794362e-01   6.0689693e-01  -6.0212158e-01   8.7298868e-02  -6.5288841e-01   9.2021391e-01   3.5026279e-01  -1.6374170e-01  -5.9401758e-01   1.4353640e-01  -4.0573205e-03  -4.7887693e-01   6.4996173e-02   3.2170464e-01  -8.0592863e-01  -9.0976313e-01  -2.5333042e-01   8.5150035e-01   7.0176887e-01  -2.6441155e-02   9.4135447e-01   5.8188031e-01  -7.0518127e-01   4.7690075e-03   5.1800682e-01   4.4922279e-01  -7.3615775e-01   9.1633043e-01   3.7312378e-01   4.2335743e-01   3.9651832e-01   5.6901460e-01   4.1881850e-01  -3.6074798e-01  -7.7914040e-01  -3.6078313e-01   4.3794762e-01   4.9177773e-02   8.6019935e-01   4.2676637e-01   8.7532533e-01  -2.4057131e-01   1.7102749e-02   5.1855476e-01  -5.0782458e-01  -5.2927059e-01  -5.2943949e-01  -4.8098068e-01   5.3040369e-01   4.6423515e-01   1.6651159e-01   5.8854655e-01   6.5196788e-01  -9.1624384e-01   4.9607620e-01  -7.6942025e-01   3.5213026e-01  -3.9056546e-01   3.6269765e-01  -7.3262531e-01  -5.7433766e-01   3.5630570e-01   9.4598470e-01   8.4503762e-01   4.6377523e-02  -1.4643402e-01  -9.0080470e-01  -7.9840840e-01   9.3734022e-02   1.0540111e-01   5.4484238e-01  -3.9372834e-01  -7.6177916e-02  -1.3926878e-01   4.2604835e-02   7.5321014e-02   1.1126313e-01   7.6353434e-01  -6.5079448e-01  -1.3094871e-02   1.4283080e-01   4.3281181e-01   5.9047736e-01   5.5162438e-01  -9.2964490e-01  -5.4159363e-01  -4.8166925e-01  -5.4679493e-01   6.1985164e-02  -7.8609512e-02  -5.6616446e-01  -8.3851382e-01   5.8386133e-01  -7.3168994e-01   5.3124749e-01  -2.9752367e-01   5.8072175e-01  -7.7498037e-01   4.4061625e-01  -7.2301145e-01  -9.5582078e-01   5.2264054e-01   4.3216862e-01  -4.9758000e-01  -5.4109704e-01   5.6806684e-01   4.7209800e-01  -3.3693915e-01  -1.3369291e-01  -7.7810688e-02   6.2863653e-01   8.7545765e-01  -8.8708333e-01   1.6629427e-01  -6.1472741e-01  -8.8284939e-01   8.0352779e-01  -2.0492367e-01  -4.6297554e-01   9.4762799e-01   6.7947662e-01  -9.1540895e-01   5.6279658e-01   7.0979037e-01  -6.9483825e-01  -2.2485980e-01  -9.5333035e-01   4.8294538e-01   3.2396386e-01  -5.2699842e-02  -4.4843295e-01   3.3047441e-02  -8.8792673e-01  -7.8086683e-01  -9.5831679e-01   2.1977752e-01   9.0712325e-01  -2.8822380e-01  -6.4796353e-01   4.5041172e-01  -3.4991140e-01  -1.9307247e-01   8.9152751e-01   8.5521113e-02   9.3664222e-01   4.3055271e-01  -9.3231630e-01  -9.5454948e-01   9.1361436e-01   8.3470912e-01   8.1621173e-02   3.6278339e-01  -2.8347509e-01   8.1952493e-01   4.0420002e-01  -9.1350335e-01  -6.1068986e-01  -6.3174008e-01  -3.4153769e-01  -6.5837720e-01  -6.2929217e-01   5.1012354e-01  -3.1692044e-01   2.9589793e-01  -2.2821534e-01  -4.3315372e-03   7.8146647e-01  -6.3544207e-01   2.8999250e-01   7.7800449e-01  -6.4866792e-02   7.2588612e-01  -4.6961858e-01   3.7385817e-01   1.7469678e-01   3.4494829e-02   3.8890380e-01   1.0553477e-01   6.0538351e-01   2.4373649e-01   6.4995219e-01   7.8545944e-01  -2.2469967e-01  -3.5010381e-01   7.1869774e-01   6.8916024e-01  -9.8117225e-01  -7.5161149e-01   1.5427813e-01  -8.2063614e-01   7.5378185e-01   6.8750637e-01  -1.5269498e-01  -4.2070552e-01  -6.4543589e-01   3.9609016e-01  -2.2165649e-01   1.8469877e-01  -3.6493493e-01  -6.3835705e-01   9.4106518e-01   9.8050380e-02  -4.7966536e-01  -1.6515965e-01   5.6668116e-01  -4.2918796e-01   7.1205859e-01   8.1268445e-01  -6.1654675e-01   2.0277576e-01   2.7920904e-01   2.5862106e-01  -9.2913830e-01  -3.2059231e-01  -3.6360346e-01   7.5188272e-01  -4.7909984e-01  -5.3277539e-01   6.2300111e-01   1.6773404e-01   7.0185423e-02   2.0696633e-01   2.6061593e-01   1.7680397e-01   9.3310275e-01   7.1238741e-01   9.6159270e-01   5.5508537e-01   1.9123350e-01  -6.8533263e-01   9.8198775e-01   9.5375391e-01   4.9867845e-01  -5.8985920e-01   6.4815296e-01   6.5261356e-01  -5.7555325e-01  -7.3202193e-01   9.3541443e-01   7.9552125e-01   6.5348635e-01   9.7806445e-01  -3.3462355e-01  -6.0023490e-01  -9.7715269e-01  -8.5593282e-01  -3.0224531e-01  -4.9320079e-02  -5.4584484e-01   2.6282333e-01   9.6440416e-01   7.0338980e-01  -1.1200610e-01   1.8719803e-01   7.4613944e-01   9.5727913e-01  -1.5258369e-01  -8.4176267e-01   6.8179256e-01  -3.4543640e-01   2.0090580e-01   8.9702430e-01   2.2785873e-01  -8.8629370e-01  -5.8427641e-01   6.1154996e-01   8.7575203e-01   1.0043532e-01   3.4278684e-01   6.1774044e-01  -2.8515277e-01  -5.1385025e-01  -4.1167239e-01   3.7191121e-01   6.1337694e-01   7.9128516e-01   9.4648157e-01   4.6528898e-01  -5.7461419e-01  -9.4968944e-01   1.7031648e-01  -2.0301401e-01   6.3234504e-02   8.9924904e-02  -1.3080322e-01  -9.4612927e-01   9.6464823e-01   7.2336699e-01  -5.2582982e-02  -8.7715710e-04   5.3127285e-02   7.5488905e-01  -9.6735405e-01   5.1955571e-01   5.1539889e-01  -5.6340718e-01  -9.7668734e-01  -8.5425267e-01  -8.4379397e-01   7.2869333e-01  -7.6026936e-01   3.5879682e-01   8.1523374e-01   3.8937084e-01  -8.1346230e-01   6.2753767e-01   2.7277640e-01  -6.8823219e-01   4.4750124e-01  -2.2107425e-01  -6.4614742e-01  -8.3801549e-02  -6.6792119e-01   2.5030010e-01   5.8688094e-01  -6.8053890e-01   9.1608256e-01   6.0134537e-01  -9.1676796e-01  -1.2816457e-01  -4.5649457e-01  -9.9326792e-01  -8.6166622e-01   6.8800833e-01   1.3168886e-01   5.8291045e-02   7.6762368e-01  -1.3713357e-01   2.5440490e-01   1.8159537e-01   7.8900615e-01   5.4763013e-01  -3.7686404e-02  -2.4323411e-01   6.0921264e-01  -9.7816749e-01   8.1922769e-01  -2.0330457e-02  -1.7425178e-01   6.9043246e-01   5.8962079e-01  -1.0072932e-01   3.0799090e-01  -6.8799882e-01   6.6556694e-01   8.5673481e-01  -7.6207461e-01  -5.9253991e-01   9.6074418e-01   2.6084484e-01  -6.6129108e-01   8.6775615e-01  -2.7648216e-01  -9.4773488e-01   4.0414734e-01  -9.7665538e-01   5.1901497e-02   9.6993018e-01  -4.3025875e-01  -3.2890193e-01  -4.0883451e-01  -3.4366319e-01  -8.8988871e-01  -4.8256295e-01   3.9089420e-01   7.0958370e-01   1.1432411e-01  -6.3614772e-01   7.5999949e-01  -1.9728373e-01   3.7946489e-03   1.6206306e-01   5.8328624e-01   7.8592075e-01  -7.9212800e-01   3.5468997e-01   5.0376400e-01   2.7856459e-01   1.2128091e-01   6.4113700e-02   1.7617368e-01  -6.7351651e-01  -1.2679752e-01   5.1600451e-02   7.8037594e-02  -4.5713688e-01  -7.1974362e-01   4.7454789e-01  -5.8180500e-03  -2.6198664e-01  -6.1278394e-01   2.4564856e-02   2.6731661e-01   5.4220033e-01  -9.0489140e-01   6.6304761e-01   1.8622293e-01  -9.8033929e-01  -2.7529224e-01  -4.0300263e-01  -5.3766979e-01   9.8667351e-01   3.0737328e-01  -1.7634483e-01   2.9974540e-01  -9.0497601e-01  -9.8433944e-01  -6.3800928e-01  -3.4885123e-01  -1.0143577e-01  -5.8018204e-01  -9.7378780e-01  -7.2225538e-01   8.8960585e-01   3.5819114e-01   8.6948141e-01  -3.9724553e-01   2.6378416e-01   6.0573959e-01  -1.7856588e-01   2.9610928e-01   4.1938833e-01  -7.0948754e-01  -5.1602032e-01  -5.1560609e-01  -6.8125715e-02  -4.3510692e-01   4.7165115e-01  -6.8296369e-01  -4.8295850e-01   1.9852881e-02  -1.5422351e-01  -8.6489901e-01  -7.0171654e-01   1.2682521e-01   8.6582911e-01  -5.1465251e-01   5.9614647e-01  -9.4968081e-01   1.5809527e-01  -8.8091345e-01  -2.2794376e-01  -5.4923257e-01   4.9484540e-01   2.4709958e-01  -2.2805448e-01  -2.7935638e-01  -7.3677395e-01   5.0741952e-01   8.2985338e-01  -4.1619009e-03   6.9471297e-01   7.7257722e-01   3.1745996e-01   5.9249573e-01   5.3103525e-01   2.7801825e-01  -5.6296435e-01   9.6249488e-01   6.7794050e-01   8.5025072e-02  -8.1963006e-01  -6.5452909e-01   6.2131530e-01   7.0214855e-01   8.7991760e-01   1.5687614e-01   1.0067506e-01   5.2476020e-01  -2.8389207e-01   3.9887677e-02  -9.0387483e-01   5.9933344e-01  -5.9815933e-01  -2.1918348e-01  -9.3293325e-01   8.5929581e-01  -5.8093310e-01   2.9915816e-01   3.3426876e-01   3.9711800e-01   5.8949475e-01  -1.3335977e-01   8.2882883e-01   3.3212380e-01  -4.0357098e-01   2.3336180e-01   9.1048014e-01   6.7035216e-01  -8.8616848e-01  -3.5469526e-01  -3.5817201e-01  -1.3836599e-01   4.8749025e-01  -9.5928137e-02   1.5642086e-01  -2.6089746e-01   3.2620606e-01  -7.2318493e-01  -1.4448157e-01  -3.4977562e-01  -8.0383162e-01  -2.4301751e-02  -1.7463716e-01  -5.6762499e-02  -9.7222657e-01   1.0393626e-01  -2.8179692e-02  -3.2587338e-01  -6.0351517e-01  -4.4210980e-01  -1.4773495e-01  -9.6649732e-02   5.3024831e-01   4.4065845e-02   2.1060310e-01   4.3672636e-01   1.1059306e-01   9.3633996e-02  -6.8848215e-01   5.6777771e-01   8.8874973e-01   4.6318285e-01   2.5725610e-02   4.8812949e-01  -1.4369963e-01  -4.5359646e-01  -3.8568386e-02  -4.6484165e-01   6.2897727e-01  -2.6166150e-01  -1.5648446e-01  -9.7073618e-01   4.5447122e-01  -5.3211289e-01  -2.9745287e-01  -3.4321339e-01   6.1852291e-03   6.6185105e-01   1.6068438e-01  -2.8826706e-01  -7.7858362e-01   2.3635088e-01  -6.5546977e-01  -1.9488689e-01   8.0571651e-01   5.9010514e-01  -7.7997673e-01   9.2476523e-01  -2.6775231e-01   5.5763464e-01  -9.4887198e-01   4.1051846e-01  -9.4828743e-01  -8.7616628e-01   9.3673356e-01  -1.5344172e-01   6.7648758e-01   2.8226090e-01  -5.2718610e-01  -6.1639560e-01   6.4189717e-01  -1.1913116e-01  -8.9923772e-01  -9.2401472e-01   8.8694348e-01   7.2776392e-01  -1.9834137e-01   7.5187843e-01   6.9684347e-01   4.6543289e-01   8.3769502e-02  -2.4872458e-01   8.1835949e-01   9.0847458e-01  -9.3347530e-01   1.5012461e-01  -3.5640486e-01   9.0763815e-01  -2.8587607e-01  -8.7499159e-01  -2.7874707e-01  -5.9412173e-01  -1.2702026e-01  -2.3644912e-02  -5.8666958e-01  -4.8177801e-03   6.4246576e-01   3.6022199e-01  -4.3848711e-01   5.8030777e-01   4.3728028e-01  -3.7312154e-01  -8.2471258e-01   1.8793939e-01   1.7439032e-01   3.0183213e-01  -7.0698767e-01   8.8441150e-01   7.1314892e-01   1.6789101e-01   8.4235274e-01  -9.4236901e-01   2.7473908e-01  -6.5878422e-01  -4.4942718e-02   1.1432765e-02  -6.0222859e-01  -4.0749829e-02   2.1595171e-01  -6.9830997e-01   1.0723606e-01  -3.7867160e-03   2.3179340e-01   6.3068473e-02   3.7928679e-01   7.2036236e-01   1.8659932e-01   9.4795084e-01  -2.9766780e-01   3.2272495e-01   5.7182953e-01  -8.4411342e-01  -7.0544908e-01   4.9571632e-01   6.2068874e-01  -7.9456486e-02  -7.7579105e-01   3.0025382e-01   6.5159124e-01   2.8164792e-01  -5.6604282e-01   7.7713959e-01   8.0660429e-01  -8.3902603e-02   2.8196788e-01  -3.2556763e-01   2.4163633e-01  -3.3608663e-01   3.6207436e-01   7.9809491e-01   6.4196253e-01  -3.9239387e-02   1.1132368e-03   3.1299237e-01   5.3745797e-01   8.3151952e-01  -5.8840168e-01   1.0299263e-01  -6.3765226e-01  -8.8627528e-01  -3.7642992e-01   1.5128064e-01  -8.1158596e-01  -8.8812316e-01   3.9803274e-01   2.6371168e-01  -5.7991240e-01   5.8603367e-01   5.2611265e-01   2.3098094e-01   9.9862092e-01   4.2754976e-01  -2.0142572e-01   2.3913384e-01   5.9497777e-01   3.4703689e-01  -7.8500078e-01   2.5624497e-01   1.9455265e-01  -4.3190382e-01   9.2940237e-01  -7.9073724e-01  -9.8236082e-01   6.1925803e-01   1.6670165e-01   7.0765954e-01   1.4016370e-01  -2.3758507e-01   3.0029783e-01  -6.9764633e-01   4.9069279e-01  -8.5477169e-02   2.3126348e-01  -6.4372901e-01  -6.2658173e-01   9.8116758e-02   7.5354495e-01   7.5023820e-01   1.8174316e-01   9.0523249e-01   3.3414813e-01   1.5663468e-01  -8.4716207e-01  -6.4829755e-01   4.7134468e-03  -5.7907974e-01  -1.7173035e-01  -5.4664433e-01   1.7716360e-01   2.9179941e-02  -2.8614275e-01   9.1077423e-02  -3.4151992e-01   2.3485066e-01  -8.2874874e-01  -8.9741179e-01   2.0906888e-01  -6.7364782e-01  -9.3760161e-01  -4.8947854e-01   7.8801878e-01   1.9338827e-01   3.1837099e-01   2.5691028e-01  -8.3868843e-01   9.3040696e-01  -8.1393708e-01  -9.9082776e-01  -6.2438032e-01   7.4259529e-01   9.9476944e-01  -2.3448961e-01  -8.8388672e-01  -1.2556179e-01  -8.4605520e-01   6.2879513e-01  -8.9963982e-01   2.4862222e-02  -1.2819523e-01  -8.9031381e-01  -8.8358954e-01   9.3006274e-02  -5.5928266e-01   9.5985027e-01  -5.0616372e-01  -3.8176503e-02  -9.6918268e-01   8.6775218e-01   5.4182393e-01  -1.2625867e-01   1.2070407e-01   9.5630644e-01  -1.3902132e-01   2.4058020e-01  -1.5954134e-01  -9.0483050e-01   8.1911499e-01  -2.6724915e-01  -2.0530139e-01  -7.3447058e-01   8.1643630e-01   9.4572445e-01   1.0465275e-01  -3.1072879e-01  -2.2233408e-01  -4.3114946e-01  -6.1647762e-01  -7.9695256e-01  -4.2693200e-01  -4.9459297e-01  -9.5226418e-02  -6.0721505e-01   4.1003828e-01  -5.3189648e-01  -2.1343969e-01  -8.8430359e-01   3.9331871e-01   7.6246623e-02   5.5239341e-01   7.8711469e-02   6.8982308e-01  -4.7770716e-01  -2.5773321e-01  -3.6714556e-01   1.8154806e-01  -1.2792152e-01  -9.4171800e-01   2.2918610e-01   8.1583854e-01  -8.7183929e-01   7.8047701e-01  -7.6324233e-01  -2.2390658e-01  -2.9638714e-01   8.4454014e-01  -6.8200441e-01   5.3530861e-01  -2.4829697e-01  -9.5923321e-01   9.8112490e-01   5.5439819e-01   8.8561045e-01  -3.5525817e-01  -6.0787893e-01   1.7841754e-01  -1.9647235e-01  -7.0698837e-01  -9.1509021e-01  -5.2424126e-01   3.2645778e-01  -4.0750524e-01   9.7960622e-01   2.2877305e-01  -9.2084660e-01   6.1137290e-01  -9.3646934e-01   9.2424649e-01   1.9229049e-01   6.3263732e-01   8.8782953e-01   3.7836492e-01  -3.0103804e-01  -7.1937382e-01  -3.4282872e-01   1.7953638e-01   2.5881056e-02  -8.1498985e-01  -6.2504862e-01  -8.9950798e-01  -6.8902289e-01   8.2624200e-01   7.0953064e-01   1.2152171e-01   1.0729914e-01   1.1371440e-01  -5.6344507e-01   8.5780877e-01  -7.1466824e-01  -8.2492037e-01  -9.5754316e-02   4.9294207e-01  -6.0932431e-01   2.6759039e-01   8.6372417e-01  -4.9632156e-01  -8.8171993e-01  -8.9625265e-01   8.4693957e-01   4.0285234e-01  -4.8014620e-01  -4.6352714e-01  -5.0687405e-01  -3.3397462e-01   1.8189563e-01   7.6833585e-01   4.1748307e-01   9.5483323e-01  -3.7282065e-01  -9.8103031e-01  -4.1272710e-01   4.4998162e-02  -4.4649248e-01  -6.0036252e-02  -2.1516994e-01   9.6033549e-01  -2.5355830e-01  -5.1596002e-01  -9.5785316e-01  -3.5408337e-01  -2.1899989e-02   7.4915695e-01   4.5503197e-01   5.7144792e-01   5.5498185e-01  -9.1466210e-01   1.0068656e-01   6.8262056e-01   5.8166250e-01  -8.7353517e-01  -5.8507556e-01  -7.2681680e-01  -7.4913569e-01  -9.6949156e-01  -3.8994686e-01   5.2092522e-01  -7.9461223e-01   9.5718199e-01   7.2073488e-01  -4.8102131e-02  -8.9277161e-01   4.6641973e-01   8.9697624e-01   8.6413048e-01   4.4531365e-02   5.3806160e-01  -7.5736389e-01  -5.2134813e-01  -8.2870641e-01   9.6947086e-01   2.2277970e-01  -2.1813941e-01  -4.6824441e-01   3.9645209e-01   1.7397135e-01   9.1821787e-01   4.7314971e-01  -7.5691396e-01  -9.3369343e-01   3.2193625e-01   8.5189999e-01  -2.9706105e-01  -8.4307559e-02  -4.7222876e-01  -1.1094000e-01  -8.7318376e-01   3.2908698e-02  -6.8270232e-01  -7.8694980e-01  -9.8945953e-01  -1.4164137e-01   9.5751478e-02  -1.5159824e-01  -4.8441757e-01  -3.2686494e-01   7.5198791e-01   7.8337583e-01   4.7190193e-01   1.9134669e-01   2.6297403e-01  -1.3053893e-01  -4.6099438e-01  -3.9911762e-01   2.6134389e-04   8.6288766e-01   5.0892020e-01  -7.5750472e-01  -7.3548789e-01  -5.1867092e-01  -3.1726484e-01  -2.3453184e-01  -5.0300343e-01   1.2844219e-01  -8.2508534e-01  -6.0438288e-01  -2.2543300e-01  -8.3469329e-01  -3.1751603e-01   1.3971263e-01   2.4311518e-01   8.1777558e-01  -9.2329051e-01  -1.9748353e-01   9.3745382e-01   8.6083696e-01   9.5380601e-01   3.4179977e-01   4.5606334e-01   1.4985348e-02   3.0024925e-01   5.1727694e-01   7.0211474e-01  -2.0404967e-02  -8.2482265e-01   3.1426319e-01  -9.3618621e-01  -3.0849734e-01
