  -4.3952097e-01   9.1421821e-01  -1.6807799e-02  -4.6641899e-01  -1.2510670e-01  -5.4413522e-01  -2.7677871e-01  -5.1937671e-01   6.9354535e-01  -7.2131970e-01   7.2042543e-01  -5.5115566e-01  -1.4333670e-02   9.0852343e-01   8.2497942e-01   8.3457892e-01  -8.2078802e-01   4.1542716e-01   4.8318553e-01   5.9253726e-01   9.1107766e-01   7.4990246e-01   3.5305147e-01  -5.5560158e-01   1.2970053e-01  -9.3131372e-01  -3.5848431e-01  -2.1093818e-01   1.6953915e-01  -1.4223415e-01  -6.5199566e-01   8.1245169e-01   5.5161159e-01   6.1115013e-03  -4.4336605e-01   3.4503996e-01   6.6736982e-01  -2.1196087e-01   6.1803688e-01   8.1559972e-01   4.7079288e-01   6.2743528e-01  -6.6642519e-01   4.4964660e-01  -8.0834257e-01   5.8260749e-01   9.2478191e-01  -5.5214285e-01   1.5775105e-01  -4.6079697e-01  -8.3031636e-01  -8.2979760e-01   3.0177511e-01   7.4573011e-03  -7.5091699e-02  -3.0591355e-01   2.4159147e-02   2.9608251e-01   8.1817032e-01  -2.7364899e-01  -8.3600035e-01  -6.0132928e-01  -5.0051866e-01   7.4683069e-01   7.2087180e-01   5.3735270e-01   5.4126750e-02  -8.6824291e-01  -3.7025956e-01  -1.9184562e-01  -1.4375878e-01   4.8641445e-01   6.5199523e-01  -2.1560276e-01   5.2341242e-01  -6.3161286e-01  -2.1412487e-01  -6.8152789e-01  -3.5729507e-01  -9.5158039e-01   5.6192794e-01  -4.0531768e-01  -1.0400623e-02   9.6997424e-01  -7.3171179e-01  -2.7658680e-01  -8.9090609e-01  -4.8582639e-01  -9.2995290e-01   6.9013164e-01  -6.2868689e-01   6.5247422e-01  -4.8008773e-01   8.5214425e-01   1.5134685e-01   7.8781576e-01   4.4689629e-01   2.1710884e-01   1.7341690e-01  -6.1951724e-01  -2.9631826e-01  -1.5986895e-02  -2.1151099e-01  -9.5961531e-01   3.5651845e-01   2.6826858e-01   7.1838847e-01  -7.4422018e-01   4.2355314e-01  -2.4755439e-01  -7.2699458e-01   2.4208060e-01   4.0104230e-02   1.5390830e-01  -9.6253854e-01  -5.1075491e-01   2.5589923e-01   3.4975955e-01   1.7898917e-01   9.6373701e-01   6.3236322e-01  -3.1446703e-01  -9.6264163e-01  -2.5460299e-01  -4.4622609e-01  -1.1717621e-01  -3.2825347e-01  -2.6324207e-01   9.6968658e-01   6.0977974e-01   2.3638885e-01  -8.2243865e-01  -2.6829816e-01   4.5731706e-01  -3.7601428e-01  -6.0686198e-01  -4.1526649e-01  -3.4280090e-01  -6.4564739e-01  -3.6246061e-01   6.6350512e-01   4.9948540e-01   4.4837034e-01  -1.4640597e-01   4.1613337e-01  -5.1330731e-01  -2.8854528e-01  -1.2341989e-01  -1.2995729e-01   2.1574808e-01   6.5611413e-01   9.6854600e-01   8.1827321e-01   5.1423998e-01   1.3667498e-01   9.1869641e-01  -2.7727895e-01   3.3569964e-01   7.9008561e-01  -8.3934339e-02  -2.4815697e-01  -4.5311419e-01  -6.0738928e-01  -4.6485441e-01   3.5274715e-01  -4.4268562e-01   8.1771594e-01  -3.7808823e-01  -5.7925172e-01   4.7938652e-02  -7.6257090e-01  -5.6342443e-02  -7.1834369e-02   9.7347205e-01   4.1562351e-01   3.0076350e-01  -1.8150422e-01   4.8365719e-01   7.5157132e-01   2.3410526e-01   5.9493942e-01   1.2813413e-01  -6.7707920e-01  -7.5956695e-01   8.0039776e-01  -4.5908641e-01  -4.2307694e-01  -8.8625415e-01  -6.7924190e-01  -1.5938785e-02   1.5408820e-01  -7.0428259e-01   2.1221793e-01   8.7136553e-01   1.9082050e-01  -3.2803432e-01   7.4380051e-01   6.8760439e-01   1.0919270e-01   5.5527513e-01   1.6850828e-01  -3.4645461e-01   5.7658489e-01  -7.7170452e-01  -4.2748451e-02   7.3672730e-01   8.7301988e-01   1.1991538e-01  -7.3240058e-01  -1.3592197e-02   3.5101906e-01   5.6281150e-01  -3.4938701e-01  -2.7326409e-01  -1.1510239e-02   1.4347121e-01   8.0809798e-01   1.3305302e-01  -6.2587003e-01  -9.5418951e-01   7.6167061e-01   5.7728043e-02   9.3524099e-01  -9.0609279e-01   4.9367329e-01   7.2435072e-01   7.9211433e-01  -6.3869527e-01   2.6589496e-01  -2.2566914e-01  -9.5746821e-01   7.8328266e-02   4.7444256e-02  -8.2519879e-01   8.4351758e-01   2.2102007e-01  -9.7082327e-01  -7.7304397e-01   7.3603546e-02  -1.4684219e-01  -8.1331943e-01  -3.6547085e-01   3.9197247e-01  -3.8572605e-01  -3.9660267e-01   4.0006298e-01  -2.5955712e-01   6.2423503e-01  -5.2405189e-01  -7.0463957e-01   7.5105423e-01   3.5653489e-01   7.6167096e-01   7.5548155e-01   2.2258208e-01  -4.4695475e-01  -4.4226669e-01   8.3601540e-01   1.8173484e-01  -4.2648496e-02   8.2129598e-01  -9.6375809e-01  -9.9707351e-01   8.8924021e-01  -9.9837621e-02  -2.2069471e-01   7.6588015e-01  -4.3063372e-02  -7.3692736e-01   6.6652332e-01  -8.2224527e-01   8.2548584e-01  -4.8706770e-01  -4.4156679e-01   1.7716291e-01  -2.2799885e-01   2.1473295e-01   9.3631678e-01  -7.4487427e-02  -9.9060968e-01  -7.6378623e-02   9.3201188e-01   4.0839855e-01  -8.4971581e-01  -9.1001200e-01   3.6731759e-01  -9.0766677e-01  -9.4665239e-01   3.0386073e-01  -3.4174796e-01  -1.0478245e-01   2.4976714e-01  -6.2950617e-01  -9.4667268e-02   2.8709437e-02   8.8781259e-01  -1.0074696e-01  -2.6569673e-01   1.6027642e-01  -8.1231517e-01  -8.2529163e-01  -3.1873672e-01   5.0994864e-02   9.4225873e-01   5.2823801e-01   8.1981186e-01  -9.0966935e-01  -4.7231122e-01  -4.7880488e-01  -6.4926445e-01  -3.3508424e-01   4.9723477e-01   1.4785896e-01   8.2585256e-01   1.0519440e-01  -9.1552491e-01   6.8422101e-01  -7.6948156e-01  -1.7531731e-01  -1.1121189e-01   7.7031314e-01   1.6938633e-02   4.1876833e-01   2.6630252e-01  -9.9671183e-01  -7.2400408e-01   7.3138767e-01  -1.1868751e-01  -6.5687773e-01   7.6995011e-01  -8.5801095e-02  -8.8067648e-02   1.3660117e-02   4.5808790e-01  -3.9270291e-01  -9.8774291e-01  -2.0016860e-01  -5.3863524e-01  -5.6003539e-01   5.6881434e-01   5.3689669e-01  -9.3258528e-01   8.0374118e-01  -2.7841853e-01   7.9510580e-01  -1.4561521e-01   3.4104498e-02   9.2931260e-01  -1.8730606e-01   4.6399322e-02   9.9424596e-01   7.3767953e-01  -9.3256636e-01   1.8379109e-02   2.8259546e-01  -1.7986986e-01   6.3495268e-01  -5.0999388e-01   6.3169384e-01   4.5517317e-01  -7.0682233e-01   5.6950628e-01  -3.9486155e-01  -4.0517858e-01   9.6457273e-01  -7.2030438e-01  -9.0951801e-01   2.7208660e-01   1.1795877e-02   4.3838395e-01   1.5796836e-01   9.9778396e-01  -8.4681212e-01  -1.3185314e-01  -7.1609284e-01  -3.8598938e-01  -7.5315675e-01   9.3609424e-02   5.3460860e-01   7.4636772e-01   1.3338324e-01   9.2898477e-01  -9.9923021e-01  -5.6380256e-01   9.7601593e-01   6.6722384e-02   9.2569607e-01   3.3695465e-01  -1.5450985e-01   7.1535437e-01  -7.6305133e-01   7.6277865e-01   3.8963749e-01   9.9386771e-01   1.1261837e-01  -6.2228556e-01  -7.7287564e-02   1.5018445e-01  -3.4314725e-01   8.6825370e-01   9.5139699e-01   9.5941152e-01   5.5030950e-01   1.1224470e-01  -7.9962925e-01   1.5817368e-01  -7.1694790e-01  -5.3452677e-01   8.9250741e-01  -6.1992063e-01   9.2225923e-01   1.5137814e-01  -7.5983967e-01  -9.6571512e-01   7.3398615e-01  -5.8614476e-01   8.9500380e-01  -3.5066761e-02   9.7980380e-01   8.1262930e-01   6.1568167e-01   7.6091475e-01  -8.7945637e-01   8.8668602e-01  -5.9837545e-03  -3.2754075e-01  -2.8442945e-01   8.7005885e-01  -2.0833388e-01  -1.7139576e-01   6.9284036e-02   8.2511014e-01  -6.3838502e-01   4.3544998e-01   6.9490227e-01   9.2115845e-02  -9.4114413e-01  -2.5341220e-01   5.4820790e-02  -4.3711372e-01   2.9492045e-01   2.7328640e-02  -1.9188594e-01  -8.1829803e-01  -1.5866880e-01   2.8229408e-01  -2.4198654e-01  -4.4717161e-02  -8.9290878e-01   6.4202923e-01  -6.6461352e-01   6.9641860e-01  -9.0622079e-01  -1.5860418e-01   5.4527663e-01  -9.5035021e-01  -6.9851641e-01   7.6706637e-01   9.0382760e-01  -7.4890220e-01   6.4546717e-01  -7.7757852e-01  -7.4205665e-01  -9.6432669e-01   6.1417306e-01  -9.4524596e-01  -7.2511686e-01  -5.2700894e-01   4.8757364e-01  -4.4869622e-02   1.3541756e-01   5.7785423e-01  -5.1721179e-01   5.4670294e-01  -1.1312565e-01   6.4899496e-01  -8.4340401e-01   3.7464659e-01   1.3330138e-01   1.6456233e-01  -1.7003317e-01  -7.9281744e-01  -3.1187806e-01  -3.9023292e-01  -4.8001463e-01   8.1784828e-01  -6.5539706e-01   5.8409131e-01  -8.0091548e-01  -9.0799601e-01   8.0522090e-01   9.0517143e-01   8.7961454e-01  -8.9293361e-01   7.6562902e-01   2.6189876e-01  -4.5464478e-01  -1.3994236e-01  -8.3431763e-02  -3.8169416e-01   5.3138586e-01  -2.9727851e-01  -1.2334325e-01  -7.1347893e-01   1.2415325e-01   7.0435999e-02   4.7183008e-01  -4.4895209e-01   7.9882203e-04   1.0370001e-01   5.7021079e-01   7.1829698e-01  -9.4972817e-01   3.9987753e-01   9.9996736e-01  -7.7602618e-01  -2.5630011e-03   4.8340288e-01   5.6120895e-01  -4.6283094e-01   1.3078427e-01  -5.4128309e-02   1.0905468e-01  -2.9891762e-01   9.1713544e-01   5.1849173e-01   3.8840234e-04   7.9150961e-01   4.0558376e-01   3.4558723e-01  -3.2631247e-01   8.7516702e-01   2.5228687e-01  -5.7546097e-01   1.6745728e-01  -6.4390497e-01  -4.6151980e-01  -8.9007493e-01   8.4759965e-01  -4.1803223e-01   3.9979016e-01   7.7776913e-01  -7.6761793e-01  -6.2654418e-01   3.8264850e-01   6.0912646e-01   6.2949177e-01   1.1426820e-01  -9.8994482e-01   7.7780239e-01  -6.6887913e-02  -6.7469147e-01   5.7306257e-01   3.5581582e-01  -4.2242374e-01  -5.8672211e-01   5.7412577e-01   4.6984961e-01   7.0740032e-01  -1.2904085e-01  -1.9981283e-02   5.3134182e-01  -7.3240122e-01  -7.0318473e-01  -6.2081173e-01  -9.5756015e-01  -6.3919558e-01  -1.1511855e-01  -5.3845555e-01   7.1921498e-01   8.9005786e-01  -9.1482987e-01   8.9013352e-01   4.9053876e-01   6.1302243e-01   4.6679725e-01   1.8691220e-01  -8.2061286e-01   4.2930300e-01   6.3818728e-01  -4.5204804e-01   9.4848538e-01   2.4875894e-01  -2.3899795e-01  -6.5648004e-01   2.4529392e-01  -1.9856709e-01   1.6952048e-01   1.4337343e-01  -3.1037443e-01   8.3320686e-02  -5.5179204e-01  -6.3081871e-01   3.8592916e-01   2.2199195e-02   7.1802104e-01   4.5059261e-01  -3.6313442e-01  -9.0520581e-01  -2.4186966e-01   9.1966200e-01   7.5199901e-01   2.3644924e-01  -7.9998368e-01  -9.9998249e-01   8.8917630e-01   9.3642011e-01  -6.9671524e-01  -6.1824478e-01  -8.0191943e-01   1.6413301e-02  -2.2138178e-01  -4.0377801e-01  -7.3766709e-01  -8.1145015e-01   5.0410611e-01   4.9288100e-01   1.2287525e-01   1.8637772e-01  -1.1249128e-01   2.0445598e-01   1.4141640e-01  -8.4201227e-01   1.7741513e-01  -3.0287511e-01  -3.5305411e-01   1.9864093e-01   2.0225271e-01   1.3582760e-01  -9.8413020e-01  -5.0877900e-01   7.2664290e-01   9.1594962e-01   2.6170068e-01  -4.0059446e-01   6.7929246e-01  -7.8349086e-01   3.2360932e-01  -8.6051508e-02   4.4336279e-01   3.7420056e-02   8.8005896e-01  -6.2943159e-01   1.2676396e-02  -9.3804071e-01   3.7046015e-01  -7.0046436e-01  -2.9608402e-01  -4.5888668e-02   1.3120176e-01  -4.6095930e-01   2.9066243e-01   7.1820942e-01  -3.0738250e-01  -5.8564623e-01   5.7076361e-01   7.0757376e-01  -6.2517335e-01  -6.4145540e-01   4.9452308e-01  -2.0127161e-02  -1.9147715e-02  -7.2369087e-01  -8.2948800e-01   3.5319195e-01   3.3942004e-01   7.6587997e-01  -9.8506197e-01   4.0345252e-01   5.4807272e-01   3.7606671e-01  -3.7278634e-01   7.5304146e-03   2.0017453e-01  -3.1296981e-02   3.3164182e-01  -6.1415187e-01  -1.6960066e-02   7.8855535e-01   8.2616873e-01   3.6967249e-01  -2.2055778e-01  -2.0958839e-02   5.9779962e-02  -8.1631712e-01  -8.5056665e-01   8.1002596e-01   5.7575578e-01  -1.3650518e-01  -1.3624997e-01  -4.2246741e-01  -4.1909274e-01   9.3440448e-01  -3.6755194e-02  -7.4161792e-01   9.6173632e-01  -6.6311400e-01   9.0110137e-02  -8.1281186e-01  -9.7052452e-01   9.1194407e-01   8.5130988e-01  -5.2940580e-01   3.6496990e-01   5.2176710e-01   2.9802965e-01   2.8484815e-01  -5.6804914e-01  -2.4184186e-01  -9.7163412e-01   2.7297077e-01  -6.3682687e-01  -7.3122160e-01   8.6183790e-01   4.7569850e-01   7.9929418e-01  -4.3730994e-01  -8.3375658e-01   8.1324113e-01   2.3002475e-01   9.1153762e-01   7.3482953e-01  -9.3550334e-01   6.9112258e-02  -7.0341652e-01  -2.2002649e-01  -3.3465435e-01  -1.5352805e-02   2.4221384e-01   1.5748365e-01  -6.6887450e-01  -3.6512680e-01   7.3622936e-01  -5.2283389e-01   9.9079595e-01  -4.8877404e-01  -7.9559404e-02   2.5068006e-01  -8.8308533e-01   2.3197853e-01  -5.7347218e-01  -7.3397557e-01  -3.4198934e-01   3.1250541e-01   3.6156164e-01  -4.7657978e-01   1.2384924e-01   6.4262011e-01   2.0058805e-01   8.6457149e-01  -5.3407673e-01   2.3559975e-01   5.1395253e-01   9.7038460e-01  -6.8488788e-01   6.8224678e-01   8.0505513e-01   4.9750179e-01  -3.4041144e-01   8.7480147e-01  -4.7946252e-01  -7.6208621e-01  -4.7581323e-01  -9.0639057e-01   7.6854759e-01  -1.0941345e-01   5.4091339e-01  -1.9001893e-01   5.5334766e-01   1.6984208e-01  -4.3824993e-01   6.7417169e-01   8.9128250e-01  -1.5116266e-01  -1.2946096e-01  -9.4738352e-01   5.0156503e-01   8.8113498e-01  -6.9577959e-01   1.7501038e-01  -9.0321561e-01  -5.8527040e-01   5.3206992e-01   7.8455704e-01   3.3457349e-01  -3.1451579e-01   6.9630641e-01  -7.8395625e-01  -5.6810872e-02   1.1589981e-01  -5.6010857e-01   9.8136011e-01   5.0179294e-01   5.9026918e-01  -3.2922562e-01  -8.7855830e-01  -5.1110233e-01   7.3895034e-01   2.7848560e-01   4.3969707e-01  -6.3032239e-01   7.5424952e-01   1.6727149e-01   6.5462242e-01  -6.2106692e-01   2.4059611e-01  -4.6197214e-01   8.2597333e-01  -9.4076155e-02  -3.9681363e-01  -4.9120603e-01  -1.2785661e-01   4.4072123e-02   9.7209871e-01   6.1025649e-01  -8.8725503e-01   3.8231273e-01  -4.6059536e-01  -1.5371379e-01   2.7419751e-01  -6.3250965e-01   4.1816229e-01  -5.0781611e-01  -4.3044480e-02  -2.9374942e-01   1.7146077e-01  -8.4679560e-01   6.7910825e-01   9.5028418e-01   9.8021902e-01  -4.8864513e-01   8.5240191e-03   6.0782987e-02   5.6557635e-01   4.7569472e-02   9.3666157e-01  -8.6328488e-02   2.3620275e-01  -4.9244050e-02   6.6189727e-01  -7.4894678e-01   4.2093175e-01  -2.9096611e-01  -9.0515980e-01  -8.4034205e-01  -6.0102351e-01  -4.3102235e-01   4.3228852e-02  -7.7551936e-02   2.7837189e-01  -9.6819009e-01  -2.2060962e-01   7.0535228e-01   8.0866732e-01  -8.7428370e-01   5.4437368e-01   1.8264339e-01   6.0931996e-01  -2.9866273e-01  -9.0054958e-01  -4.7459125e-01   4.4341577e-01   7.6150147e-01   5.7316666e-01  -9.0153554e-01  -1.2004786e-01   8.2906148e-01  -8.2955157e-01   8.5873327e-01   4.9703295e-01  -5.8308978e-01   5.3103510e-02  -2.2456498e-01  -2.2926819e-01  -4.2854324e-01   9.5389630e-02   3.6424693e-01  -7.1559181e-01  -7.7929368e-01  -1.8643346e-01   7.5893423e-01  -4.7100026e-01   7.4571089e-01   3.5852638e-01  -2.4639026e-01   6.9714683e-01  -9.6189585e-01   1.3324243e-01   1.2571980e-01   1.3749489e-01   8.8053206e-01   2.9294450e-01  -2.7340833e-02   7.6879424e-01   8.9929348e-01   8.8041586e-01   8.5093902e-01  -4.6380731e-01   3.0356116e-01  -1.2001410e-01   1.7303160e-01   1.5907715e-01  -7.5542237e-01   4.6557928e-01   4.7003709e-01   5.1874492e-01   4.9665240e-01  -9.1775818e-01   8.9928602e-01   7.1270787e-01   5.5460744e-01  -5.0326947e-01  -9.3095349e-01  -9.6119271e-01   1.7216418e-01   9.4238663e-01   7.2618663e-01  -5.3269915e-01   8.4141820e-01   9.7004544e-01   8.2408182e-01   2.7913321e-01  -4.3433109e-01  -4.7098935e-01   4.8802811e-01   6.5613159e-01  -1.6733359e-01   4.6365706e-01  -2.8962760e-01  -8.1629400e-01   1.1233431e-01  -6.0593084e-01   3.1889296e-01   9.9619406e-01  -5.2238038e-01   6.8784314e-01  -5.5543125e-01  -5.3162358e-01  -8.3222720e-01   5.2655357e-01   6.7489093e-01   7.1327703e-02  -8.7704487e-01   7.0991150e-01   2.1389711e-01  -6.5718905e-01  -6.9419502e-03  -1.1975709e-01   8.9007537e-01   9.2005299e-01  -7.2542101e-01   4.0893667e-01   5.9631182e-02  -2.9550381e-01  -4.2975466e-01   3.2441945e-01  -3.9127494e-01   5.6171965e-01   7.6248513e-01   2.8517186e-01   7.9953921e-01   9.9628529e-01  -3.0760549e-01   7.7029257e-01   9.3681341e-01  -8.8771595e-01   3.3380557e-01   5.7884577e-01  -6.6491653e-01  -7.0448132e-01   3.6955796e-01   2.9585611e-01   8.0161648e-01   7.5102049e-03  -2.0453306e-01   3.7521152e-01  -2.4983666e-01  -9.8063885e-01  -4.7252675e-01  -4.3470966e-01  -4.4822459e-01  -5.8402814e-01  -2.0380837e-01   1.9107897e-01   6.8769114e-01  -6.7559579e-02   6.5421393e-01   8.1574481e-01  -9.0120018e-01  -2.6916940e-01  -5.7051469e-01   8.8462164e-01   2.6963867e-01  -2.2646980e-01   8.8481299e-01   5.6075234e-01  -6.3900031e-01  -4.7364662e-01  -6.7514603e-01  -2.7662760e-01
  -2.4623994e-01   9.7431784e-01  -7.9529725e-01  -6.6291980e-01  -7.5163442e-01  -5.5368822e-01  -6.0632257e-01   1.9453529e-02  -6.8605252e-01   6.0618376e-01  -4.4007242e-01   5.8345926e-01  -1.1187209e-02  -9.4768685e-02  -2.0496647e-02   3.5396822e-01  -5.1759314e-01   5.4294722e-01   2.1866743e-01   9.3428675e-01  -8.1479212e-01  -6.2271605e-01  -1.9088568e-01  -7.6535046e-01   2.3925381e-01  -8.7030604e-02  -9.9215076e-02  -3.9485042e-01  -7.1248941e-01  -2.4751620e-02   4.3929827e-01   8.2567561e-01  -2.4543534e-01  -4.9829734e-01  -3.6605029e-01  -6.1840739e-01   5.0200755e-02  -2.4982096e-02  -1.8001585e-01   1.4212244e-01   4.9814958e-01  -4.8824818e-01  -7.1934303e-02   8.5926496e-01  -8.8303574e-01   2.2600071e-01   5.7003002e-01   1.5647796e-01   4.5425893e-01   5.3791007e-01  -5.1186653e-01  -9.6631063e-01  -5.1538044e-02  -7.6421623e-01   7.0924484e-01  -6.5788094e-01   1.8090861e-01   8.5939187e-01   2.6186569e-02   3.8786387e-01  -3.8419839e-01  -7.9028660e-01  -6.5109690e-01   8.6628364e-01   8.3350406e-01   1.0683762e-01   5.2274290e-01  -6.0862329e-01  -8.4167901e-01   1.1039148e-01   1.7531210e-01  -7.9088056e-01  -9.4485673e-01  -2.8900922e-02   1.1351194e-04  -3.5923232e-01   4.8792275e-01   1.9031653e-02  -7.2951274e-01  -9.8289632e-01   1.2120129e-01   2.8953263e-02   8.4389125e-01   6.1198838e-01   4.0526172e-01  -8.0063580e-01   3.1132944e-01   6.3352163e-01  -7.4020870e-01  -9.6351432e-01   3.2697892e-01   9.7058323e-02  -6.2484677e-01  -5.9778279e-01   7.7856411e-01  -8.1450649e-01  -6.5156697e-01   2.7629578e-01  -8.8303901e-01   3.0468244e-01  -7.2090508e-01   9.5427305e-01   1.0681551e-01  -1.8976517e-01  -4.3142562e-01  -3.4673391e-01   5.1467683e-02   5.8751674e-01   1.0257959e-01  -2.3855012e-01  -3.0926729e-01  -6.4159264e-01   7.7071744e-01  -4.9949794e-01  -2.5060905e-01   2.8959429e-01  -2.8641211e-01   1.3262827e-01   4.4374986e-01  -8.2874236e-02  -1.1016912e-01   1.7277540e-02   2.0696925e-01   5.3459869e-01   3.2386672e-01  -9.4549049e-01  -8.5521663e-01  -2.5238768e-01   2.7218000e-01   8.4252624e-01  -3.8963475e-01   9.3114325e-01   8.5051068e-01   7.9083258e-01  -4.7728199e-01   4.1393188e-01  -3.8718357e-01   1.5752965e-01  -6.2821133e-04   1.5362292e-01  -3.4064302e-01   7.4370820e-01   3.6922584e-01   8.9372457e-01   5.1380453e-01  -3.3716106e-01  -8.2130694e-01   3.4319113e-01   8.8993306e-01   7.8297894e-01   5.4188386e-01   2.6319271e-01   5.5920887e-01   5.1345168e-01   2.5540892e-01  -4.0201139e-01  -2.6672175e-01   8.8085677e-01   8.5380313e-02  -6.9776450e-01   5.9972874e-01  -1.3095556e-01  -4.6991877e-01   3.3156312e-01  -4.7346717e-01   9.4769433e-01  -1.7287447e-01   6.0031537e-01   4.6479688e-01   9.8534953e-01   5.2312371e-01  -9.2591243e-01   1.9860916e-01  -1.0626336e-01   7.2569464e-01   3.5436952e-01  -1.7116767e-01   8.8724120e-01  -5.8459055e-02  -8.4267563e-01   6.3532440e-01  -9.6492070e-01  -3.9149182e-01  -8.2067902e-01  -6.5463705e-01   9.8344609e-01  -9.4760532e-01   1.0322795e-02  -4.7339611e-01  -8.8297564e-01   2.3877420e-01  -8.7126893e-01   1.7192137e-01  -7.9187530e-01   2.6816020e-02  -3.1986443e-01   7.5115066e-01  -2.7675536e-01   5.8692660e-02  -3.9724968e-01   7.2557750e-01   4.9170223e-01  -6.9077848e-01   7.4012469e-01   1.4184517e-02   7.5509597e-01   7.7732686e-01  -7.8520978e-02   8.1467858e-01   2.1739522e-01  -9.3453727e-01  -9.1236978e-02  -1.1634643e-01  -9.0027058e-01   1.4953205e-01   8.4606020e-01   3.6088747e-03   9.9693111e-01   1.0184763e-01  -8.0059727e-01  -2.5833350e-01  -3.2303986e-01  -9.0061876e-01  -4.7057240e-01   8.0623716e-01  -1.7965421e-01  -3.8223445e-01  -3.6177465e-02   4.3307671e-01   1.2476622e-01   5.2511594e-01   8.4744488e-01  -7.1239109e-01  -1.6703505e-01   6.6181510e-01  -3.1606676e-02  -8.5641190e-01  -4.5562754e-02   1.5764358e-02   6.5252995e-01   9.9717070e-01  -9.9518543e-01   7.7216486e-01   6.4241320e-01   1.8421175e-02   4.9272534e-01   8.6455824e-01   1.0485124e-01   6.6621089e-01   3.3589676e-01   5.2633348e-01  -1.6988122e-02  -7.3007229e-01   7.7812789e-01  -6.3621997e-01   7.3499206e-01  -9.7275172e-01  -3.5605480e-01   8.1701803e-01   1.2285968e-01  -9.5143990e-01   9.8599699e-01  -8.0353399e-01   7.4473677e-01  -7.3649173e-01  -5.2496254e-01  -9.7395633e-01  -8.3978678e-01  -6.1872198e-01  -2.0033388e-01   1.1881863e-01   3.4901840e-01  -7.1213025e-01  -5.2776089e-01   3.5543425e-01  -4.4525767e-01   1.8277156e-01   1.5232300e-01  -9.3181866e-01  -2.0317774e-01  -2.3445435e-01  -4.6666554e-01  -1.4451029e-01  -9.6337463e-01   4.8363812e-01  -8.7017368e-01  -1.9261649e-01   6.2108711e-02  -2.4301417e-01  -1.1239999e-01   8.4251959e-02  -3.7856479e-01   5.4671826e-01  -4.1269902e-01   6.6410113e-01  -3.2656986e-02  -8.3876920e-03   8.4289501e-01   7.2343026e-01  -8.1964894e-01   2.1929081e-01   2.3252397e-01  -9.1739481e-01   1.2418881e-01   3.2163656e-01  -8.5284160e-01   4.6023506e-01  -2.5281709e-02   6.2570352e-01   4.9196374e-01  -5.6720831e-01  -8.4725021e-01   2.8372929e-01  -5.5638100e-01   4.8559699e-01  -2.0177334e-02   1.8934226e-01  -1.4763542e-01   6.3728872e-01  -8.6348654e-01   2.5610598e-01  -2.6303548e-01  -2.1980411e-01  -8.8189457e-01   7.6351418e-01  -8.5909306e-01  -9.9769816e-01   6.0593709e-01   3.5911995e-02  -4.5889889e-01   3.1650470e-01  -3.9076963e-02  -1.6573119e-01  -7.1451719e-01  -1.9812186e-01  -7.4051003e-01  -3.1163791e-01  -9.5310781e-01   5.2620273e-01  -1.2172975e-01  -8.2731730e-01  -7.4994514e-01   8.4833057e-01   7.8830101e-01   1.8070224e-01  -2.3781494e-01  -1.5203101e-01  -8.7622343e-01   4.5625114e-01   7.4694643e-02  -7.8228852e-01   2.4921333e-01  -3.6204729e-01   6.8687969e-01   8.0243609e-01  -6.3496059e-01  -9.4755642e-03   2.6667597e-01   9.4414885e-01  -9.1992860e-01  -6.3180401e-01  -3.5409470e-01   5.3602915e-01   8.0743069e-01  -9.5617249e-01  -7.9124325e-01  -3.1682202e-01  -2.1847033e-01   2.6283606e-03  -2.3123171e-01  -4.9785667e-01  -7.6484179e-01  -6.6174698e-01  -6.4552350e-01  -6.5760053e-01  -4.4399605e-01   8.5884598e-01  -7.0127756e-01   8.3982699e-01  -6.2898141e-01  -3.9146618e-01   6.8867412e-01  -7.8418449e-01  -3.7697024e-02  -2.4031789e-01  -5.2740764e-01  -9.7975955e-01  -7.9026243e-01   5.1256273e-01   3.6978988e-01   2.2036494e-02  -5.7989467e-01   1.7694741e-01  -3.8703706e-01   6.4354771e-01  -6.7394986e-01  -9.2767380e-01   6.6265577e-01   1.9623478e-02   5.8151541e-01   4.6792743e-01   7.8411322e-01   1.4099806e-02   1.5501707e-02  -8.6991998e-01  -1.7551734e-01   1.9800957e-01   3.4782585e-01   5.3548821e-01   4.3256252e-01  -7.5169715e-01  -5.6673031e-02  -1.9860090e-01   8.3460350e-01   2.5873969e-01   8.0025181e-01  -8.1617703e-02  -8.6867333e-01   8.1902806e-01   4.7413388e-01   7.2180230e-01  -1.6460162e-01  -2.0937830e-01   9.4669198e-01   9.6355332e-02   1.1744734e-01   6.5200865e-01   3.7929816e-01  -7.4494437e-01   5.1724498e-01   8.2083779e-02   1.3289734e-01   5.1182618e-01   5.4961516e-01   9.6521795e-01  -6.6112011e-01  -3.5212170e-01  -7.4587867e-01   2.8632157e-01   7.7029672e-01  -9.7937283e-01  -7.7738419e-01  -6.3218578e-01  -4.4796507e-01  -5.7149836e-01   7.4017991e-02   2.1109919e-01   8.7341460e-01  -3.7021513e-01  -1.9982915e-01  -9.1021895e-01  -7.5593978e-01   5.3652887e-01  -1.8445708e-01  -7.4904968e-01   8.0118138e-01   2.8773723e-01   9.8932809e-02   2.6891177e-01  -5.6620548e-01  -7.8785890e-01  -9.4394861e-01   6.2457611e-02   7.6502069e-01   3.8823840e-01  -2.7308351e-01  -4.4153426e-01   1.2918383e-01  -9.6373056e-01   6.6440420e-01  -9.4306364e-01  -2.5297795e-01  -3.1443634e-01   1.0825076e-01  -6.7678886e-01   9.4113186e-01   2.3369711e-01  -1.8332967e-01   5.8695523e-01  -8.5200795e-01  -2.3352490e-01   8.8247199e-01   3.0198382e-01  -3.1401255e-01  -6.1119870e-02   5.1505466e-01  -7.9208798e-02  -3.8508535e-01  -3.8760238e-01  -6.6717320e-01  -1.5398796e-01   7.5005946e-01   6.8705078e-01   8.8683886e-02  -1.0698498e-03  -1.0217201e-01   9.4510192e-01   2.1862350e-01  -3.8162648e-01   1.6761106e-01   9.3591685e-01  -6.0299532e-01  -8.0988485e-01  -2.9072326e-01  -9.3360820e-01   9.1183732e-01   1.0100649e-01   5.4200360e-01  -6.7953976e-01  -8.7332944e-01   2.4750930e-01  -6.3614092e-01   9.9149300e-01   4.4662594e-01  -3.7877634e-01  -6.0367104e-01   7.4451719e-01  -8.1598853e-01  -2.0335691e-01  -5.2382912e-01  -5.0016921e-01   9.0319407e-01   4.1806338e-01   9.5898749e-01  -2.7854528e-01   1.7204800e-01   8.8814122e-01  -3.7553051e-01  -5.3364484e-01  -4.1170312e-01  -1.3723200e-02  -8.5438320e-01  -8.4095522e-01   3.9761054e-02   1.0560266e-01  -1.5714532e-01  -7.7424259e-01  -1.9730402e-01   2.8918669e-01   2.6858364e-01   8.3929261e-01   3.8905314e-01  -8.3327425e-01  -3.4614835e-01   9.6902474e-01  -9.5006091e-01  -8.9381475e-01  -1.9294678e-01   1.9101261e-01  -1.8920434e-02  -2.4131704e-01   7.4371579e-02   1.9499458e-02   2.6823310e-02   9.7014658e-01   3.8964132e-01  -7.8441249e-01  -6.3191167e-01  -1.6290837e-01   2.9230466e-01  -4.0074014e-01  -6.2313351e-01   2.5343639e-02  -9.6243958e-01  -3.1724202e-01   6.3750034e-01  -8.8267167e-01   4.0174836e-02   9.0386836e-01  -4.6987311e-01   7.6192737e-01  -6.6994691e-01  -2.8318244e-01  -1.8954689e-01   9.4424871e-01  -8.4793401e-01   8.6413164e-01   3.0008736e-01   9.3128604e-01   6.5075071e-01   3.8925459e-01  -9.7979538e-01   5.1866569e-01   6.0503578e-02   4.8653871e-01  -6.8702868e-01  -9.5455059e-01   4.1912053e-02   7.8378591e-01  -7.4406256e-01  -7.8415079e-01   5.9019233e-01   6.6056576e-01  -1.6495651e-01   9.7658813e-01   1.8237120e-01  -3.0710188e-01  -9.5010994e-01   2.6917567e-01   7.5643406e-01   6.6436190e-01   3.7536242e-02   4.1302582e-01  -5.4961143e-01  -1.8121004e-01   3.1381913e-01   3.6167963e-01  -5.7918040e-01  -7.7192217e-01   8.8928097e-01   1.7437999e-01   6.0825301e-01  -9.2585864e-02   5.4697252e-01   2.6065320e-01   4.2720134e-01   6.4031663e-01   4.0978509e-01  -6.0102939e-04   6.9958232e-01   1.2374221e-01   3.9554123e-01  -3.4874627e-01   6.4727571e-01   6.9532947e-01  -3.6055299e-02   5.2998406e-01   6.7476063e-02   9.4643163e-01   4.6942067e-01  -8.3861225e-01   2.2029608e-01  -8.5725228e-01  -4.0696143e-01  -6.8048225e-01  -4.3332984e-01  -7.3269211e-01   8.8880558e-02  -9.3195625e-01  -6.4100390e-01   3.1674896e-01  -7.5076635e-02   8.6007139e-01  -8.9196155e-01  -1.2482855e-01  -4.5958955e-01  -4.7828436e-01   5.2851965e-01   1.0750668e-01  -4.5143546e-01  -9.6264121e-01  -1.0369578e-01  -6.8443541e-01   1.8131431e-01  -7.7298605e-01   5.3635476e-01  -7.5031803e-01  -6.5674010e-01   7.6868716e-01   7.1001375e-01  -7.0442139e-01  -1.4342843e-01   6.2345234e-01  -1.5277577e-01  -5.3289512e-01   8.7973821e-01  -8.9341433e-01  -8.4760370e-01  -8.1733490e-01  -3.1047938e-01   2.3066871e-01  -9.4177633e-01   4.7393599e-01   2.7536295e-01  -1.6260020e-01  -4.3723697e-01  -7.5980230e-01  -5.2268148e-01  -1.0472614e-01   9.3272758e-02  -7.2751195e-01   9.1608594e-01   1.0859853e-01  -5.1552391e-01   3.9270279e-01   7.0025123e-01   1.3061224e-01   2.2266228e-01   8.1147788e-02   4.9293795e-01  -9.1610595e-01  -8.1049276e-01  -8.9320421e-01   5.6757315e-01  -5.1329132e-02   6.9661608e-01  -4.6291622e-01  -9.0373317e-01   6.6009207e-01   3.2044621e-01   7.1442511e-01   6.9496273e-01   7.6534021e-01   8.4728043e-01   7.9741332e-01   1.6091025e-01  -1.0017334e-01   9.6728569e-03   7.8441150e-01   9.7255280e-01  -5.2351119e-01   7.0255489e-01   7.2377979e-02  -7.5173801e-01  -7.0009227e-02   7.2597916e-02  -9.9983915e-01  -6.2998866e-01  -6.7185245e-01   1.5291564e-01   2.0128157e-01  -4.6081094e-01  -1.9072429e-01   5.8762709e-01   6.3853154e-01  -4.5312003e-01  -5.0983114e-01  -8.1969904e-01   8.8009226e-01   6.8873958e-01  -2.3258244e-02   2.3366126e-01  -9.1250734e-01   1.2478585e-01  -4.8087410e-01   9.6404033e-01  -5.0231127e-01  -7.4678558e-01  -2.7057731e-01   7.8447535e-01  -2.3331062e-01   3.9822793e-01  -5.7705299e-01  -6.5219729e-01   9.3655207e-01   4.6044037e-01   3.3827974e-01   3.1470571e-01  -6.6894862e-01  -7.7257359e-01  -8.8318494e-02   8.9684026e-01  -8.7882818e-02  -9.3370319e-02  -5.7811791e-01  -2.9817084e-02  -3.7358827e-01   9.9731307e-01   3.2456197e-01   6.1897016e-01   7.5776877e-01   5.8363033e-01  -9.7137271e-02  -2.9290978e-01  -3.7105530e-01  -7.6234379e-01  -5.2682241e-01  -8.9703599e-01  -7.2371293e-01   2.0736493e-01  -2.1696508e-01  -9.6817773e-01   7.6021725e-01   2.3453136e-01  -9.1864387e-01  -6.0451473e-01  -5.3973128e-01   5.5907170e-01   5.1336803e-01   3.1362937e-01  -3.5422834e-01   2.0563216e-01   3.6924239e-01   1.2291895e-01   1.0789828e-01   1.9059182e-01  -9.9700770e-01  -4.9612181e-01   1.2848620e-01  -2.3297570e-01   7.9894264e-01   3.2966664e-02  -5.3143705e-01   7.1405360e-01   1.5440050e-01  -4.9666747e-01  -5.1713982e-01  -9.5854162e-01   9.2025568e-01   7.3899142e-01  -8.6019404e-02  -8.4810446e-01   7.5238715e-01   7.7497864e-01  -7.4197172e-01   8.5839387e-01  -7.8205655e-01  -4.9848445e-01  -6.9683021e-01  -9.7463804e-01  -4.4068398e-01   1.8787630e-01   8.2921099e-01   6.6327306e-01   6.6629458e-01  -5.2088163e-01   2.8702236e-01   5.7557883e-01   2.0778093e-01  -6.2633286e-01  -6.8622508e-02  -7.0981303e-01   1.9408898e-01   2.6969298e-01  -9.1084007e-01   1.6804650e-01  -1.2128651e-01  -5.8376869e-01  -9.9760246e-01   3.6064614e-01  -5.9171475e-01   7.0517335e-01  -2.9428830e-02   7.2412717e-01  -1.6855934e-01  -4.8169808e-01   3.3724316e-02   1.5872040e-01  -6.9164104e-01  -9.6042939e-01  -7.6533969e-01  -8.4428917e-01   8.5593505e-01  -2.8699389e-01   3.2893326e-01  -7.0763546e-01  -1.4887171e-01  -9.5232170e-01   7.9145186e-01   7.8771522e-01  -4.1875891e-01  -5.1311565e-01  -6.7970764e-01   1.4778894e-01   2.1958878e-01  -4.3751932e-01   4.1886551e-01   8.1312124e-01  -5.3801838e-01  -4.5009516e-01  -2.8556874e-02  -5.0575849e-01   1.8250498e-01   7.2072036e-01   4.9794296e-01   3.5221028e-01  -1.0004277e-01  -4.0701155e-01  -7.5392707e-02   9.6801987e-01  -8.0783790e-01  -6.8023426e-01  -5.2680066e-01   5.8280679e-01  -1.6481059e-01   2.1577460e-01   5.0968344e-01  -8.2449870e-01   2.0774785e-01   6.1326826e-01   2.5495541e-01   3.4608153e-01  -5.5045599e-01  -6.0232992e-01  -6.7124312e-01   4.0629990e-01  -9.3931995e-01  -4.5251795e-01   8.7267807e-01  -5.8543601e-01   7.5872055e-01  -2.5214677e-01  -1.0404936e-01  -3.3502891e-02  -9.3030119e-01  -8.0417624e-01  -8.3154693e-01  -1.8830796e-01  -4.5181236e-01   2.6497317e-01  -2.9599242e-01   8.1169583e-01  -4.5838672e-01  -3.9980804e-01  -7.4926348e-01   9.3997481e-01  -7.2855193e-02   2.1930417e-01  -2.1115781e-01   2.9532567e-03  -7.7763653e-01   8.7063470e-01  -1.0572808e-03  -2.0599725e-01  -6.9303224e-01  -3.2689476e-01  -9.8068827e-01  -1.1561713e-01   4.3612626e-01   7.3845221e-01  -1.4989160e-01   9.2262608e-01   6.7180834e-01   1.7239324e-01  -1.4734561e-01  -3.2528265e-01   4.1604553e-01   9.0271111e-01   5.3760459e-01  -7.8960191e-01  -7.5695437e-01  -1.4584693e-01  -3.4908648e-02   8.4229441e-01  -6.8350338e-01   8.0152055e-01  -2.9700525e-01   2.8570118e-01   6.6121155e-01   6.7821461e-01  -5.0194866e-01  -7.1841396e-01   8.4616192e-01  -3.9192007e-01   3.2241559e-02   5.7342344e-01  -1.4117485e-01   1.5211266e-01  -4.9963740e-01   5.7809049e-01  -8.8925496e-01  -6.3349429e-01   2.2955839e-01  -9.4986210e-01   6.2950716e-01   8.3821345e-01  -2.8070176e-02   8.6978277e-01  -3.4502627e-01  -1.0155255e-01  -1.8571861e-01   6.9069014e-01   2.5066592e-01  -5.7749258e-01   4.4195564e-01  -3.4090910e-01   6.3252921e-01   1.0529028e-01  -1.6230997e-01   6.2246382e-01  -3.8802684e-01  -9.2335388e-02   6.5304961e-01  -6.7255931e-01   3.5606482e-01  -6.2531738e-01   1.1764893e-01   9.9476496e-01   7.8839640e-01   7.2790841e-01   9.6266165e-01   2.3550232e-01  -2.5807350e-01  -2.5392230e-01  -7.4745245e-02  -3.3335409e-01  -6.1844193e-01   6.2025545e-01  -9.7096801e-01   2.5597017e-01  -8.1422530e-01  -2.3712771e-01  -2.1242503e-01  -6.9895756e-01  -2.7721834e-01   4.1363428e-01  -6.4549724e-01  -3.3304974e-01   1.5028253e-01   2.2048010e-01
   3.0000302e-01  -9.1324452e-02   8.2851044e-01   6.5759384e-01   1.3285403e-01   3.3664521e-01  -3.0517369e-01  -1.6886044e-01   4.4193653e-02  -4.6616764e-01  -5.4914784e-01  -8.0936588e-01   9.9802197e-01   7.6274553e-01   7.3443000e-01  -1.5198980e-01  -9.7114959e-01  -3.3372127e-01   4.8572062e-01  -2.1088603e-01   9.6559904e-01  -6.5113702e-01  -2.9534860e-02  -9.5918898e-01  -8.9472412e-03  -8.9583066e-01   8.9624576e-01  -7.4076887e-01   9.6779957e-01   4.4184821e-01  -7.9623570e-01   1.1494797e-01   7.5961666e-01   6.4699242e-01   4.8856438e-01   3.0836622e-01   3.7240707e-01  -7.7859575e-01   4.6915969e-01  -8.8098880e-01  -2.8020570e-01   4.8455492e-01  -8.7551077e-02   8.3009351e-01   9.1992827e-01   6.5396700e-01  -8.0397428e-01  -9.7711911e-01   5.3794475e-01   8.0819160e-02  -7.2431434e-01  -9.9262964e-01  -3.8006522e-01   8.6969922e-02  -1.4914100e-02  -3.5576386e-01  -2.1866366e-02   3.9368531e-01   8.0925904e-01  -4.7901476e-01  -1.8712506e-01  -7.5970405e-01  -4.0344471e-01  -4.0738707e-01  -8.7096294e-01   3.9494196e-01  -4.8528488e-01   2.9964840e-01   3.5362549e-01   6.0255846e-01  -8.8092737e-02   9.1838109e-01  -2.6856991e-01  -2.6450032e-01   6.5981230e-01   5.0541967e-01  -1.3025228e-01   9.6508823e-01  -1.5851350e-01   5.2844109e-01  -7.2505870e-01  -8.1440648e-01  -6.2537038e-01  -2.8752823e-01  -3.4826044e-01  -8.7634995e-01  -8.3467537e-01   8.8329501e-01   4.1895804e-02  -9.0677126e-01  -5.4792601e-01   2.5709483e-01  -3.1627095e-01  -7.9927849e-01   3.6429320e-01   4.2975643e-01  -5.8386463e-01   4.0777307e-01  -5.3985524e-01   9.2637947e-01  -9.8608714e-01   3.5284194e-01  -1.1275024e-01  -1.8552841e-01   9.0249713e-01  -6.6072825e-01   4.1858941e-01  -5.2390422e-01  -2.1910335e-01   9.2941419e-01  -7.2925325e-01   8.5481536e-01  -3.3278519e-01   7.4170597e-01   7.7701981e-02   9.6201005e-01  -9.6110269e-02   5.5650634e-01  -8.7988764e-02   8.7777268e-01  -6.2898120e-01  -3.0865183e-01  -9.7840684e-01   4.8658206e-01  -8.7107990e-02   4.7171273e-01   6.3781386e-01  -2.9888727e-01   6.1235675e-02   6.2171521e-01  -5.0533272e-01   3.5356972e-01   3.1249305e-01  -8.2885439e-01  -6.5903525e-02  -5.6645649e-01   7.1048654e-01  -2.1552975e-01  -1.4236462e-01  -6.7802811e-01  -5.2109606e-01   9.9388355e-01   9.6016263e-01  -7.0235067e-01   8.9089331e-01  -5.7765207e-01  -9.9389823e-01   9.6999938e-01  -4.5889312e-01  -6.6149227e-01  -2.5679983e-01   8.5671714e-01  -3.5947105e-02  -1.2613745e-01   8.4191642e-01   2.1182342e-01  -3.8425854e-01  -5.6348581e-01   9.9787380e-01  -2.8751112e-01   2.7739021e-01   4.3762308e-01   6.2150461e-01  -5.0588300e-01  -8.8025557e-01  -5.4275565e-01   3.1594973e-01   3.3727942e-01  -3.5447442e-01   6.2094459e-02   7.9367487e-01  -8.0818491e-01  -6.0654974e-01   3.2748091e-01  -7.9271769e-01   6.6612747e-02   7.9304306e-01  -4.6181514e-01  -7.9863076e-01  -8.7360679e-02   2.5918261e-01  -2.9952843e-01   1.1478582e-01  -1.7376844e-01   6.0461004e-01   4.1248053e-01   4.5194755e-01   5.9696435e-01   8.6830122e-01  -2.9054291e-01   7.8021031e-01  -9.7696385e-01   4.4318617e-01  -1.9802698e-01  -1.8335054e-01   9.4831462e-01  -2.7518471e-01  -8.1163214e-01   6.2061451e-01  -2.1028628e-01  -4.1093355e-01   5.7543088e-01  -9.0900187e-01  -8.6833830e-01   4.1277805e-01  -8.5792891e-01  -8.2425294e-01  -3.4968694e-02   5.1045203e-01   4.0974506e-01   4.2451771e-01  -6.5794823e-01   9.8495345e-02  -8.7566160e-01  -5.3313953e-01  -4.2948005e-01  -2.4412015e-01  -1.9878131e-01  -5.0254200e-01   7.4419959e-01   9.1152829e-01   6.3751209e-01   1.2369224e-01  -7.5826877e-02   3.2836222e-01   5.4883299e-01   2.6075077e-01  -2.5520298e-01  -3.1816840e-01  -5.0946580e-01  -8.1565998e-01  -9.1644671e-01   4.3791285e-01   3.4501804e-01   1.0139913e-01  -7.9480909e-01  -5.8413998e-01  -9.6306153e-01  -6.3396873e-01  -3.8813283e-01  -2.4382775e-01  -1.6132317e-01  -4.9418980e-01  -2.1693997e-01   1.0866684e-01  -5.1394556e-01  -3.0075515e-01   4.0218023e-01  -1.1258690e-01   9.4275085e-01  -2.8976540e-01   3.8344516e-01  -7.3114614e-01   1.2100549e-01   9.3842973e-01   8.3492308e-01  -7.3699950e-01   5.0048962e-01  -3.9788134e-01   2.7433305e-01   3.7733128e-01  -9.7826855e-01   3.5593603e-01  -1.3277882e-01   9.7885366e-02  -6.9728763e-01   8.7177983e-01   2.6044273e-01   8.4573730e-01   4.0178940e-01   3.7736706e-01  -7.2545785e-01  -4.4988036e-01  -9.0653605e-01   1.0300792e-01   8.4212113e-01  -2.7309773e-01  -7.1369193e-01   3.7091068e-01  -6.2278128e-01  -8.4273903e-01   2.2361563e-01   2.8693788e-01   7.4898721e-01   6.4290457e-01  -8.5478388e-01   8.0643957e-01  -7.9743970e-02   8.5205588e-01   2.1462080e-01  -3.7243177e-01   9.6132985e-01  -2.4083302e-01   4.5793635e-01   2.3359216e-01  -4.8493802e-01  -8.0095078e-01  -4.1195851e-01   9.1047517e-01   4.9405875e-01   1.9258469e-01  -3.2331643e-01  -3.6619134e-01  -3.2613026e-01   3.5646679e-01   9.0309111e-01   6.8035218e-01   7.6900260e-01  -1.6617938e-01   2.0262583e-01  -8.9519453e-01  -6.5445191e-01   3.3139489e-01  -2.5452153e-01  -4.2344008e-01   1.5251956e-01  -9.5494354e-01  -1.1009998e-01  -5.2293678e-01   4.2405248e-02  -3.0738243e-01   9.8229664e-01  -8.1446877e-01   8.5338655e-02  -5.1668346e-01  -9.8764703e-01  -9.6822020e-01  -7.5277960e-01   9.7173503e-01  -2.2551723e-01  -1.4301445e-01  -7.7251039e-01  -7.4919517e-02  -3.5768884e-02   4.4798197e-01   7.2751767e-01   3.9485812e-01   1.1623984e-01   3.4309704e-01  -9.7881202e-01   6.4594922e-01   9.8117259e-01  -9.9570747e-01   4.5046827e-01   5.9673650e-01   8.5487896e-01  -7.4463929e-01  -5.4074921e-01  -8.0839306e-01  -8.9512365e-01   3.6215441e-01  -7.0542647e-01  -9.4566953e-01   4.1554965e-01   1.4274251e-01   5.1959671e-01  -9.0144565e-01  -5.4088880e-01   1.8737826e-01  -4.4306213e-01   4.6438461e-02   1.6732752e-01  -3.2433914e-02  -3.5588067e-01  -7.8990248e-01   5.1014734e-01  -5.7155947e-01  -6.4408107e-01   3.0866042e-01   1.4308128e-01  -7.4246586e-01  -5.8597140e-01   5.8288322e-01  -8.1760753e-01   3.4452501e-01   6.2138121e-01  -2.2147651e-01   5.3048303e-01  -7.8468265e-01   2.9257666e-01  -6.8414922e-02   9.3928146e-01   6.0024946e-01  -4.3130525e-01  -7.2649691e-01   5.2370186e-01   5.9613461e-01   3.5012028e-02   1.7502305e-03   8.9108841e-01  -3.5561843e-02  -2.7693172e-01   9.9136457e-01  -4.4973189e-01   1.2612474e-01  -4.3073918e-01   4.8095997e-01  -7.2316687e-01  -3.3266975e-02  -9.4258941e-01   6.9892205e-01  -4.8370564e-01   2.0679116e-01  -9.6215413e-01  -3.7522071e-01  -5.1117347e-01  -7.1944600e-01  -8.6511826e-01   8.9798478e-01  -9.5876087e-01   2.2288973e-01   5.7605837e-01  -9.5736639e-01  -5.4071178e-01  -2.3938592e-01   5.0670336e-01   1.9531691e-01  -7.6683151e-01   1.5088440e-01  -7.3028438e-01  -7.0025281e-02  -8.7250862e-01   6.7295411e-01   3.0143349e-01   9.5703638e-01  -6.1219804e-01  -3.6307300e-01  -3.2801325e-01  -8.9919622e-01   4.3008965e-01  -1.8191304e-01   2.9536843e-01   6.7137100e-01  -1.5041402e-01  -9.9378521e-01  -2.6684000e-01  -1.2238743e-02  -6.0577755e-01   7.5741184e-01   2.6712286e-01   4.5566155e-01   9.5449202e-01  -4.1375371e-01  -5.7313240e-01  -5.5163231e-01  -8.8759879e-01   3.9012265e-01  -1.0704258e-01   3.9572921e-01  -8.6520212e-01   4.1924682e-01   7.2851933e-01  -3.4958491e-01   6.0024314e-01   6.5534018e-02   2.9063381e-01   9.6893108e-01   7.9709208e-01  -5.5798873e-01   2.7728893e-01   1.4234984e-01   2.3364822e-01  -2.2744107e-01   4.5828016e-01   1.4074571e-01   4.0918414e-02  -6.2252049e-01   1.8691753e-01  -2.0203306e-01   3.0039977e-01   3.4594601e-01   4.8393307e-01  -9.3489076e-01   7.7484803e-01  -2.0340002e-01  -7.8383943e-01   2.3662232e-01  -9.3819617e-01   7.5103612e-01  -3.1366963e-01  -3.1850110e-01  -2.6184766e-01  -6.2365720e-01   2.1911365e-01   1.3405881e-01   7.2698283e-01   2.8099769e-01  -5.1584093e-01   3.1369612e-01   5.9526422e-01  -4.9791521e-01  -6.5969311e-01  -9.3005329e-01   5.0175723e-01   8.3706050e-01   6.5844857e-01   6.5694794e-01  -7.9880142e-01   7.8981667e-01   5.0425397e-01   4.9093822e-01  -4.4888215e-01   2.5137313e-01  -7.7205332e-01  -1.2521764e-01  -9.0177533e-01  -3.1644799e-01  -4.1370355e-02  -3.4220416e-01   5.5019361e-01   1.5127097e-01  -5.1528390e-01   2.6982442e-01  -2.2154334e-01  -4.6307967e-01   5.0999795e-01   1.3885468e-02   1.0542348e-02  -8.6522293e-01   4.8485409e-01   7.8887678e-01  -7.2738856e-03   3.3263598e-01   5.3272824e-01   2.4856481e-01   5.1349083e-01   2.9067201e-01  -5.8971142e-01   7.2372894e-01   3.9522609e-01  -6.6364985e-01   8.6594466e-01  -4.1438320e-02   3.7438365e-01  -6.0176251e-01   6.5577657e-01   5.9544707e-01   6.8906477e-01  -1.1834993e-03   4.5288910e-01   3.0877388e-01   9.0315283e-01  -8.5562710e-01   2.5834189e-01   4.7716679e-01  -2.0656241e-01  -5.9936632e-01  -6.5804498e-01  -2.0279494e-01  -8.2950856e-01   1.6426551e-01   2.6000372e-01  -8.4529686e-01  -4.3392668e-01   6.7374475e-01  -4.5347685e-01  -1.5522216e-01  -6.0679401e-01   5.9034837e-01   6.4531786e-01  -5.5399842e-01  -9.2707809e-01   8.7248067e-01  -5.8591777e-01  -3.7844066e-01  -9.5484306e-01  -8.0975828e-01   6.5171658e-02  -1.4682432e-01   7.8652049e-01   6.7681288e-01  -7.3251947e-01   8.7878102e-01   8.6140643e-02  -7.0359494e-01  -5.2021832e-01  -1.7365410e-01   1.9219265e-01  -7.4533550e-01   7.3519484e-01   3.7285734e-01   6.6664066e-01  -2.3912203e-01   8.8367559e-01  -7.0995785e-01  -7.0272110e-01   4.0513156e-01   1.1135975e-01   5.8953109e-02   9.9803064e-01   3.2728631e-01  -7.4395593e-01   5.1340276e-01   1.2195941e-01   5.6271739e-01   2.7528772e-01   4.2947759e-01  -8.3507497e-01  -6.6015713e-01   6.9218114e-01   7.6805564e-01  -1.4399720e-01   3.2226659e-01  -6.5431530e-01   8.4338252e-01   4.4910398e-01  -9.4746326e-01  -8.8924785e-01  -6.7368425e-01  -2.9448334e-01   5.9909701e-01   2.2308714e-01   6.7313198e-03  -4.5193600e-02   6.0338233e-02   8.2875266e-01  -6.8936271e-01   2.9550436e-01   1.1408644e-01  -3.1367692e-01   3.2796625e-01  -9.8208782e-01  -3.4582482e-01  -7.6714959e-01   8.4589329e-01   7.8144250e-01   9.6138722e-01   1.3169909e-01  -6.9410083e-01   7.9840020e-01  -1.6617597e-01  -9.4944469e-01   5.9395753e-01   2.1286268e-01   2.9769130e-01   1.2795870e-01  -9.0160871e-01   3.7512568e-01   7.0702855e-01   6.1070031e-01   3.9774793e-01  -5.9221847e-02  -6.2376121e-01   7.9207152e-01   3.2104447e-03   4.4338962e-01  -8.3828460e-01   1.6185116e-02  -9.0886656e-01   4.0805684e-01   6.2499562e-01   3.5469975e-01   2.6431787e-01   3.8229475e-01  -4.6025635e-01  -7.5597400e-01   6.5515941e-01   1.4965355e-01   7.9449208e-01   6.4525096e-01  -3.3028662e-01  -8.4123424e-01  -2.6412113e-01   1.0553682e-01   5.1892221e-01  -5.5747112e-01   3.2801194e-01   4.8762551e-01  -2.2668007e-01   7.8727069e-01   5.4245058e-01   5.6324745e-01   5.1676392e-01  -3.5413044e-01   2.9753719e-02  -4.7517387e-01   2.7017122e-01  -8.7026677e-01  -1.4915963e-01   8.0749111e-01  -5.2776552e-01   3.4926937e-01  -8.8044656e-01   6.8224750e-01  -8.7388827e-02  -6.9131186e-01   9.2400119e-01  -3.7231389e-01  -8.5194096e-01  -4.9046902e-01  -6.2448751e-01   3.0302701e-01   1.9162957e-01   7.8547504e-01   3.6752365e-01  -4.2508068e-01  -2.4806004e-02  -8.8011503e-01  -7.2915335e-01   9.9545181e-01  -2.2745006e-01   7.2383934e-01   5.8756405e-01   6.4832293e-02   9.1178561e-02   8.1299823e-01  -7.5119403e-01   9.9423493e-01  -9.9535458e-01  -6.7600515e-01   4.2932728e-02  -4.1497377e-01   8.4417097e-02  -6.4477387e-01   5.3453168e-02  -6.1609618e-01  -7.5459555e-01   5.1794039e-01   3.0154194e-01  -5.6671028e-01   6.1124127e-01  -9.2040662e-01   4.6091356e-02  -7.2550993e-01  -7.3657952e-01  -7.0639040e-01  -7.4872549e-01  -6.2013855e-01  -9.8788354e-01  -4.7296296e-01   7.2143605e-01  -9.7274865e-01   1.0484953e-01  -8.6083138e-01  -7.3138932e-01  -2.1757769e-01   3.5767157e-01   5.5084708e-04   3.9824333e-02  -8.5008370e-01  -8.3056705e-01   3.1620522e-01  -1.2038070e-01   1.8692428e-01  -5.9541822e-01   4.4019821e-01   2.3668000e-01  -3.0917109e-01  -7.8695128e-01   9.4114006e-01   5.1209250e-01   2.7432119e-01   9.2108801e-01   7.5480460e-01   7.9181945e-01   5.4800226e-01  -3.4311049e-01   4.2475513e-02   7.0876676e-01  -4.5038459e-01  -8.6832805e-01  -3.0543628e-01   2.6065638e-01  -3.3428403e-01   6.7816928e-01   5.9586412e-01   4.9601374e-01  -7.9399668e-01  -2.8051589e-01  -5.1541931e-01  -1.1924668e-01  -9.5232056e-01   8.5373497e-01   7.1434693e-01   9.5313573e-01  -8.6406637e-01  -3.3151312e-01   7.6892354e-01  -4.7986151e-01  -8.9044550e-01  -3.4727451e-01  -4.9662739e-02   3.9370230e-01   9.0534958e-02  -9.4307240e-01  -9.4569751e-01  -9.7826580e-01   4.5879203e-01   1.9767062e-01  -1.9281833e-02   5.5245567e-01  -4.8886812e-01   7.6375994e-01   4.3766229e-01   8.0081067e-01   3.1540753e-01  -7.9598443e-01  -9.9465819e-02  -9.7625251e-01  -8.1558498e-01   5.8375701e-01  -9.8325129e-01   3.1168297e-01  -6.0219134e-01  -3.5790002e-01   9.7879531e-01   1.1692345e-01   8.4062844e-01   5.3092110e-01   6.8931591e-01  -8.1412925e-02   3.9278080e-01  -2.2348679e-01   6.1671576e-01   2.8817850e-01  -3.9589963e-01   5.5780365e-01   1.6136723e-01  -2.8817437e-03  -2.8229029e-02  -4.8163084e-01  -1.0643420e-01   3.1131528e-01   8.2564868e-01   5.3720086e-01  -2.3826896e-01  -2.5640324e-01   2.3479609e-03  -6.7128259e-01   8.6865642e-01  -4.4758363e-01  -4.1369471e-01   5.3879583e-02  -7.6792674e-01  -8.0590719e-01   3.6592239e-02   4.1176392e-01   1.1334475e-01  -6.7349442e-03   5.1183716e-01   9.9004245e-01  -5.6920619e-01  -6.0418314e-01  -9.7001986e-01  -2.6893057e-01   6.3123026e-01   6.4909268e-01   4.7904066e-01  -1.8597006e-01  -4.1976875e-01   8.4137022e-01  -2.4415593e-01   2.4168215e-01   3.8277986e-01  -5.5088053e-01   7.4539715e-03  -7.0276289e-01  -7.3300482e-01  -2.8681312e-01  -7.7402562e-01   8.9082822e-01   8.9255957e-01   3.5871097e-02   2.4033500e-01  -4.8581890e-01  -1.4894857e-01  -5.7030054e-01  -6.2843312e-01   6.9126489e-01   6.8878769e-01   4.9067087e-01  -2.6425245e-01  -9.8455692e-01  -7.8751098e-01   7.5135069e-01   2.6630327e-02   7.1168083e-01  -9.0057023e-01   6.1316731e-01  -3.4315690e-01   2.9022379e-02  -4.0039022e-03   1.5973162e-01   1.5373870e-01  -5.1682948e-01   6.0747595e-01   7.2260395e-01  -5.4264624e-01   5.0707625e-02  -3.9586211e-01  -8.0284856e-01  -7.8865705e-03  -4.0199451e-01   5.8665939e-01   6.8899507e-01  -1.2275062e-01   8.8984666e-02  -6.9878095e-01  -9.1385144e-01   3.7598456e-01   2.4486618e-02  -1.5783168e-01  -5.3227464e-02  -8.7951244e-01  -6.0002257e-01   6.7459355e-01  -2.1016717e-02  -2.8224516e-01  -3.4876733e-01  -3.4975651e-02   3.7044960e-01   7.2108843e-01   9.5717807e-01  -7.2024057e-01  -3.0225988e-01   4.5369346e-01  -7.2336578e-01   1.8258559e-01  -2.3897163e-01  -8.8025331e-01   5.1314906e-01   7.5431411e-01   3.3886248e-01  -9.8874971e-01  -6.0921050e-01  -8.7657463e-01  -3.9869368e-01  -5.9655446e-01   5.5098079e-02   6.4343246e-01   4.9215186e-01  -9.9036851e-01  -3.7037669e-01  -1.4560449e-02  -5.0502800e-01   8.0499256e-02   2.4813345e-01  -9.0677839e-01  -6.6258441e-01  -5.3097508e-01  -7.6040357e-01  -9.2879252e-01   9.1505653e-01  -5.7808574e-01  -9.7894759e-01   4.3921213e-02   8.3519690e-01   7.6001495e-01  -7.8476435e-01   2.0622744e-01  -4.4109045e-01   8.9163894e-01  -9.5477647e-01  -8.2548588e-01  -8.8490130e-01  -7.5524416e-01  -3.7578188e-01   6.3624513e-01   3.7026050e-01  -6.4515344e-01   5.0337141e-01  -1.0895553e-01  -1.4958368e-01   3.5237074e-01   3.9317826e-01   2.0551560e-01  -9.3333978e-01   1.4350571e-01  -4.7644557e-01   5.3026483e-01   5.5676077e-01  -3.9576422e-01  -6.6544374e-01  -5.1236222e-01   2.3260257e-01   2.3684278e-01   1.9840030e-01  -2.3453932e-01   6.5353207e-01  -6.8569006e-01   6.6079590e-01   7.9246867e-01   3.8284793e-01   7.8270634e-01  -2.5544184e-01  -7.9266026e-01   3.2737094e-01   1.8162508e-01  -2.3715265e-01  -3.8219114e-01  -3.7266550e-01  -4.6755373e-02  -1.9238066e-01   5.3892125e-01   3.4607439e-01   1.5164881e-01  -9.0972289e-01   6.1415879e-01   3.4453828e-01   3.2541681e-02
   4.5090139e-01   9.9559382e-01  -4.0659836e-01   5.6563580e-01  -6.3231858e-01  -8.1740493e-01   6.7027370e-01  -5.8472126e-01  -6.0816836e-01  -2.7105846e-01   5.7664450e-01  -2.1202301e-01   2.4136970e-02  -6.9048319e-01   2.8843896e-01   1.4495852e-01  -8.7726930e-01   5.2652722e-01  -5.1700884e-01   6.8837035e-02   3.7790296e-01   9.3891205e-01  -8.2904689e-01  -7.6477613e-01   2.6608613e-01   8.4672181e-01  -1.2045836e-01   3.4399591e-01  -7.0427337e-01  -7.5501030e-01   5.8120584e-01   1.8693481e-01   2.4806253e-01   5.5501303e-01  -2.7081186e-01  -9.9301808e-01  -8.4998216e-01  -4.3305106e-01  -6.8133646e-01  -4.4323445e-01  -6.0174116e-01  -6.8106213e-01   2.2184463e-02  -2.8810768e-01  -6.0230164e-02  -2.7363672e-01  -7.8258693e-01   1.8292866e-01  -5.7274213e-01   9.1245636e-01  -8.3991210e-01  -5.9833534e-01   2.7425475e-01   7.1024920e-01   6.6676239e-01  -8.2533276e-01   3.2918808e-02   3.7921428e-02  -4.0286216e-01   6.1077046e-01  -4.4180064e-01   2.3649895e-02  -8.5275271e-01  -7.7490288e-01   7.1895956e-01   5.3095964e-01  -1.7252728e-03   9.1686871e-01  -5.7868247e-01  -5.9674541e-01   3.0600182e-01  -7.2984567e-01  -5.4721445e-01  -7.5212635e-02   9.5204958e-01  -9.5309010e-03   7.0907469e-01  -3.5349616e-01   9.3708731e-01   9.2875127e-01  -9.7862356e-01  -4.0249317e-01  -9.8132522e-01  -3.9693328e-01   4.0976625e-01   4.3626184e-01  -9.8943439e-01  -5.2709779e-01  -5.4248474e-01  -9.3241851e-01   7.8831116e-01   7.5916491e-01  -4.8954930e-01  -6.7435462e-01  -9.8520753e-01   3.0316128e-01   6.0955722e-01  -6.9922646e-01  -6.9772815e-01  -4.8978526e-01  -1.2458794e-01  -5.2364366e-01   6.2597956e-01   9.7265018e-01  -1.1967085e-01  -7.0411109e-01  -2.8819594e-01  -8.3790319e-01   5.3279849e-02  -9.7375043e-02   3.7273653e-02  -9.1972912e-01   6.3974461e-01   2.8308092e-01   3.0692805e-01  -5.3521837e-01  -1.9879948e-01   9.8137982e-01  -1.2329354e-01   1.2480146e-01  -4.7994674e-01   6.2840131e-01   7.9315722e-01  -5.7409707e-01  -7.9705233e-02   3.6713543e-01   9.7423282e-01   3.2630233e-01   4.2082655e-02   9.7204098e-01   7.3839596e-01  -3.5225648e-01  -6.8688500e-02   1.8829263e-02  -5.7815151e-01  -9.4293096e-01   6.3442579e-02   6.3785148e-01   4.8110271e-03  -3.4861189e-01   6.2839612e-01   2.6532383e-01  -9.8462544e-01   2.7203765e-01   3.9086492e-01  -1.7783069e-01  -7.4859391e-01   1.3157452e-01   2.3760318e-01   7.3354940e-01  -1.0113350e-01  -9.7841708e-01   1.9018110e-01  -1.7241665e-01  -8.3307271e-01   1.3448074e-01   7.9848442e-01   4.9128661e-01  -4.8612456e-01   9.8640378e-01  -5.1598321e-01   8.6697502e-01  -8.0808059e-01  -3.2484211e-01  -9.0238697e-01   4.3251647e-01  -9.7933454e-01  -4.0137453e-01  -5.1055644e-01  -2.8866133e-01  -1.7509006e-01   9.9655960e-01   9.2300444e-01  -2.9097644e-01  -4.6920215e-01   6.5836896e-01   7.4720874e-01   5.2868864e-01  -6.6376298e-01   7.1017115e-01  -6.8362456e-01  -6.7186840e-01  -1.0885788e-01   1.2620927e-01  -1.1268949e-01   1.5451249e-01   6.4062969e-02  -7.5055012e-01   7.2268391e-01   9.6146642e-01  -3.2892576e-01   3.7262287e-01  -4.6466639e-02   7.8812059e-01   6.7150549e-01   8.5755318e-02  -5.2132657e-01   4.8021171e-01  -9.3061905e-01   8.0211973e-01   3.5340586e-01  -5.1734717e-01  -5.3610597e-01   8.7600064e-01   1.1201980e-01  -3.5990148e-01  -3.6047553e-01   3.1354127e-01   6.3866637e-01  -4.7614752e-01  -5.1415594e-01  -4.6913896e-02  -7.9030423e-01   2.1613322e-01  -2.7925676e-01  -9.7804076e-01   6.7099097e-02   9.1136546e-01   6.4387127e-02  -2.0692349e-01  -3.1102686e-01   9.7659381e-01  -6.9876841e-01   1.6944637e-01  -9.2536745e-01   5.9224592e-01   4.7075521e-01   4.2090960e-01   7.0867670e-01   3.2293327e-01  -1.5712003e-01  -7.3368573e-01  -9.3005308e-01  -2.9289971e-01   1.6940000e-01   4.8725720e-01   1.8750625e-01  -5.4818095e-01   3.4347823e-01   6.0883067e-01  -2.0205773e-01  -4.6311758e-01  -3.4712528e-01   5.4771193e-01  -4.4478692e-01   7.3458423e-01  -4.9492550e-03   8.6973532e-01   9.4627867e-01  -7.6346611e-01  -3.7129666e-01   4.3549558e-01  -8.5908627e-02  -3.9166260e-01   5.6657834e-01  -3.0151144e-01  -6.0498576e-01   2.2760866e-01  -4.7561600e-01   3.0003701e-01   3.5257406e-01  -2.9182931e-01  -2.8733609e-01   8.8590625e-01   2.9320894e-01   4.1679133e-01   9.3993637e-01  -5.2188671e-01  -6.1995108e-01   3.2546258e-01   9.9396866e-01  -3.2472279e-01   8.6319235e-01   7.1909220e-01  -5.9480358e-01  -9.6301898e-01   4.8495012e-01  -6.3969252e-02   4.2062395e-01   9.8908746e-01   2.4239427e-01  -2.4756984e-01  -8.5285644e-01   8.7644843e-01   7.1824412e-01  -8.8295762e-03  -4.5546467e-01  -4.9339198e-01   7.7040843e-01   5.4095102e-01   7.3050717e-01  -5.0816942e-01   4.1421501e-01  -7.1927056e-01   6.9308130e-01   8.0308090e-01   2.0039649e-01  -3.0991475e-01  -5.2557855e-01  -7.4537988e-01   2.2675464e-01  -7.3626797e-01  -4.5870464e-01   8.5217315e-01   7.3774489e-01  -9.3222700e-01   1.4312120e-01  -1.4059550e-01  -1.3206073e-01  -9.7206897e-01   7.1132629e-01  -4.8819567e-01   6.9875271e-01   9.5313795e-01  -3.4736829e-01   6.2980347e-01   1.2139475e-01   3.2078126e-01  -7.4266695e-01   5.0818036e-01  -8.6116713e-01  -4.2768877e-01   1.6586844e-01   2.7040838e-01   9.4697836e-01  -3.3188959e-02   3.3724811e-01   6.9649786e-02   4.6348389e-01  -1.0957713e-01   8.8812100e-01   9.3486575e-01   6.5549317e-01  -4.8182645e-01  -9.6016782e-01   5.1516440e-01   8.3240935e-01   4.3606291e-01  -1.7544826e-01  -9.1094394e-01   2.9363119e-01  -7.1180504e-02  -2.4585070e-01  -1.4399960e-01  -3.1717018e-01  -2.5002292e-01  -8.5906807e-01   7.2919043e-01   9.3602914e-01  -6.7957665e-01  -8.7027110e-01  -7.0811746e-01   7.9395688e-01  -5.7807481e-01   4.7930160e-01   8.3031560e-02  -3.7334773e-01  -1.7916164e-01  -3.3993224e-01   8.3283822e-01  -2.7118437e-01  -5.9458233e-01   6.1644717e-01  -5.1529631e-01   1.8476958e-01   7.7443832e-02   1.1642027e-01   5.8410784e-01  -3.5603901e-01   3.0214321e-02  -1.5464537e-01   1.7858766e-01   3.3764822e-01   7.4354396e-01  -5.2210092e-01  -5.4765936e-01  -2.6866786e-01   7.1789338e-01   5.0484869e-01   1.0175230e-01   2.5527520e-02   3.4852455e-02  -4.4476324e-01   3.9693227e-01  -7.7120535e-01   9.7738316e-01   7.5844926e-01   1.4041128e-01  -1.8701224e-01  -5.2967889e-01   2.2320050e-01   7.6998062e-01   1.5100968e-01  -9.2353148e-01   8.1017552e-01  -6.2877355e-01   6.4671851e-01  -7.3039461e-02  -6.5818017e-01  -4.7849929e-01   8.2536184e-01  -4.3926210e-02  -1.4416050e-01   1.3852489e-01  -9.0394598e-01   6.8162402e-01  -8.2698847e-01   8.4308407e-01  -6.9735656e-01   6.1807966e-01  -2.8659725e-01   7.3389661e-01   3.0175370e-01   8.4335720e-02   3.4827696e-01  -2.1365533e-01   2.2836418e-01   3.9192859e-01   1.1847578e-01   4.9260731e-01   7.6520312e-01  -3.8789298e-01   9.1221367e-01   8.6720331e-01  -8.8724232e-01   7.9521354e-01  -1.7703902e-01  -6.9583224e-01  -8.8437807e-01   7.2017794e-01   9.6870790e-01   1.8468824e-01   5.3509647e-01   2.1376957e-01  -5.0781525e-01   8.1992847e-01  -1.0356934e-01   5.0410178e-01   5.2290647e-01  -2.7309667e-01   5.2318617e-02  -8.0533569e-01   5.0090141e-02  -1.9568093e-01   8.4584228e-01   1.3619223e-02  -7.7281623e-01  -5.3207026e-01  -5.4120162e-01  -2.7392128e-01  -2.1597024e-01   3.9519171e-01  -3.8780081e-01  -8.9197005e-01  -3.8840548e-02   7.4121715e-03   1.8031604e-01   9.4943894e-01  -6.8469482e-01  -3.8370435e-01  -9.4834449e-01  -6.1892843e-01   3.9754149e-01   7.8285005e-01  -7.7182958e-01   5.9885918e-01  -7.8354854e-01  -1.9558933e-02  -9.0919024e-01  -3.0132976e-01  -7.1793087e-01   3.7247342e-01   3.8154887e-01  -9.8416844e-01   2.7347429e-01   6.0109226e-01   3.1645098e-01   6.0483454e-01  -4.2615692e-01   6.7973607e-02  -5.9049405e-01   5.3751344e-01  -2.2919283e-01  -1.8604191e-01   8.8229233e-01  -7.0609688e-01  -9.8245756e-01   5.3532759e-01  -4.3073437e-01   5.4671251e-01   2.3286684e-02  -5.4423881e-01   8.1063425e-01  -7.9676439e-02  -8.0701658e-01   6.5920791e-01   3.6007652e-01   9.5374597e-01  -7.7438298e-01  -9.4110747e-01   3.8612206e-01   1.5924368e-02   9.3575820e-01   8.2493824e-01  -7.5749854e-01   2.8766607e-01   7.1287097e-01  -9.0545785e-01   5.5281535e-01  -1.9033263e-01  -6.0550928e-01  -1.8197040e-01  -5.0637318e-01  -5.1429207e-01   4.2809206e-01  -9.4565771e-01  -1.5852701e-01   6.1153924e-01  -2.4603837e-01   6.2560814e-01   8.6629383e-01   2.1425339e-01   5.4552345e-02  -1.8968108e-01  -6.8136268e-01   9.9019689e-01   7.0204608e-01  -8.1253205e-01   8.0747321e-01  -9.8686157e-02  -9.6368230e-01   5.7911769e-01  -6.6593112e-01  -3.3164283e-01  -3.2731122e-01  -2.5429026e-01   4.7391078e-02  -4.0074922e-01   1.4940571e-01  -6.5027223e-01   2.3349155e-01   8.9156101e-01  -9.0087425e-01   4.6940504e-01  -9.6718421e-01  -2.2603876e-02  -8.3502943e-01  -6.2869835e-02  -2.8636978e-02  -5.4947011e-01  -1.6692470e-01   8.3587285e-02  -1.4396494e-01  -9.4082209e-01   3.3245839e-01   7.8284431e-01  -4.8911326e-01  -7.5307827e-01   2.6875889e-01   9.0630348e-01   4.5771675e-01   5.4148000e-01   5.0469408e-01   8.9146447e-01   9.5389291e-01   7.1424700e-01  -6.7217715e-01   5.7020125e-01   8.3824201e-02  -8.4879083e-03   6.1397238e-04  -3.2957052e-01  -8.4358108e-01  -5.8272666e-01   1.3044596e-01  -7.5692948e-02   6.7877983e-02   9.8672090e-01  -6.6624137e-01  -5.2708065e-02  -7.4688861e-01   3.9321054e-01   5.2556361e-01   9.0122000e-02  -6.2585003e-01   8.3550327e-01  -6.8884358e-01   1.2526356e-01  -9.0744072e-01  -9.5744565e-01   4.4156159e-01   3.6699095e-01   9.4359751e-01  -7.7198140e-01   6.4248171e-01  -9.4713062e-01  -1.0590061e-01  -8.6914842e-01   9.7650806e-01  -3.2931951e-01  -4.3795088e-02  -5.7708693e-01  -6.9419615e-01  -2.0353637e-01  -9.5008949e-01  -3.7426262e-01  -1.7444714e-01   3.5741826e-01  -9.5702545e-01  -5.5252843e-01  -7.9628645e-01  -1.8179915e-01   8.5378385e-01   5.5870667e-01   4.3910217e-01   4.2334542e-01   3.7754878e-01   7.4445434e-01   7.2706214e-02  -2.2889007e-01  -7.9772452e-01   1.2530233e-01   3.6077062e-02  -4.2752861e-01  -9.5701401e-01  -7.9373735e-01   2.9125106e-02  -5.3281968e-01  -9.4145248e-01   9.7567350e-01  -6.3341539e-01   5.7764970e-01  -8.1331924e-01   1.3567209e-01   2.7063579e-01   3.0426125e-01   1.6207311e-01  -6.4279671e-01   3.7746572e-01  -2.5469028e-01   9.5993094e-01   3.6633766e-01  -2.8431166e-01   4.2146576e-01   5.5484166e-01  -2.8487157e-01   1.4782587e-01  -1.8047680e-01  -8.1328052e-02  -2.1663451e-01  -1.7689864e-01   8.0328739e-01  -5.6563111e-01   9.7180936e-01  -2.0868374e-01   6.8127530e-01   9.2087568e-01  -3.3589506e-01  -1.6379658e-01  -7.3237430e-01   4.5076960e-01  -9.4938514e-01  -8.6129429e-01  -5.6596722e-01   4.9764595e-01   8.7475823e-01   2.4288716e-01  -6.1741979e-02   2.4081915e-01   2.7554089e-01   3.3100384e-01  -9.1040857e-01   3.8002840e-01   8.8910295e-01   6.4976363e-01  -4.9281265e-01   6.2558141e-01   7.2807582e-01  -6.5758611e-01  -3.5426627e-01   2.8250711e-01   5.3053193e-01   3.2731241e-01   4.7776428e-01   9.2056655e-01   7.4868715e-01   3.1695880e-02   4.0221232e-01  -7.9470784e-01  -4.0034138e-01   2.1546772e-01   2.9821530e-01  -8.6928337e-01  -8.4613224e-01   3.3137282e-02  -4.3815297e-01  -7.8625208e-01   6.0591261e-01   1.0853924e-01   5.6116922e-01  -5.3173948e-01   7.8638437e-01  -5.2479467e-01   7.1569834e-01  -4.9625838e-01  -6.2500513e-01  -7.0629935e-01   6.1337179e-01  -9.0404196e-01  -7.0080597e-01   1.8368932e-01  -1.2182497e-01  -5.3249749e-01  -4.7498030e-01   5.9530302e-01  -5.4383232e-01  -9.7639444e-02   7.7081981e-01  -4.1296319e-02  -6.7509202e-01  -2.8548710e-02   9.5443650e-01  -8.3393940e-01  -9.7181997e-01   9.7847965e-01   5.6615035e-01   4.7851006e-01  -4.3303422e-01   4.3718386e-02  -5.8737698e-01   1.0994588e-02   5.5847963e-01  -2.9737129e-01   3.2286546e-01   4.1046895e-01   6.8148182e-01  -1.0597160e-01   5.3737116e-01  -1.6571380e-01   1.2174089e-01  -6.4897325e-01  -9.8834710e-01  -2.1448717e-01   8.9867966e-01  -9.1811430e-01   3.9616814e-01   8.4267417e-01  -9.7297184e-01  -7.6674202e-01   7.5895452e-02   3.8209102e-01  -2.5519697e-02   7.6877299e-02  -1.1410170e-02  -7.9729077e-01  -9.6943334e-01  -6.6910025e-01  -1.0483419e-01   1.2499456e-01  -4.5495909e-01  -2.2403238e-01  -3.4394274e-01   6.3001981e-01   1.8784756e-01  -5.5407902e-01   4.2874374e-01  -7.5617162e-02  -9.3716486e-01   8.7577514e-01   7.1282820e-01   2.4061754e-01   8.0711587e-01   9.4794390e-01  -6.5647346e-01   2.7520492e-01   6.5312895e-02   8.5392501e-01   3.2947233e-01   1.8982474e-01  -7.8531840e-01   1.9964929e-01  -4.8044796e-01  -7.9400014e-01   3.8460323e-01  -9.0757362e-03  -9.8758009e-01  -4.4903060e-01   6.5785292e-01  -8.1446219e-01  -2.6079036e-02   5.7918458e-01   7.4453492e-01  -1.6324719e-01   3.7357209e-01   6.8479242e-01  -6.8540464e-01  -6.7973121e-01   1.0034135e-01  -2.1634978e-01   4.3097322e-01  -9.3369347e-01  -1.2392122e-01   7.4105883e-01  -1.6742978e-01   2.8192953e-01   4.7565474e-01  -3.9946155e-02   2.9743966e-01  -1.7545142e-01  -5.7993402e-01   9.2466303e-01   5.5616586e-01  -7.4202029e-01   7.5048532e-01   7.5812453e-01   3.4117666e-01   6.7973391e-01  -7.3330110e-01   6.3898408e-01   1.6815705e-01  -6.5697513e-01  -7.1935288e-01   9.6369738e-01  -3.3895049e-01   3.8924219e-01  -5.4303539e-01  -6.3952333e-01  -8.0438487e-01  -9.5343706e-01   4.2431008e-01   4.3569743e-01  -3.8931209e-01  -1.9625128e-01   7.8900488e-01  -9.3620169e-01   4.8246151e-01   2.4329747e-01   6.9365171e-01  -1.8818595e-01   4.0881194e-01  -2.2848394e-01  -1.4041774e-01  -6.5113123e-01  -1.4109714e-02   4.1188606e-01   2.2340136e-01   2.4821941e-01  -1.5212655e-01  -5.6687879e-01   6.0659466e-01   7.7075135e-01   8.2616468e-01   8.7529762e-01  -1.9393617e-01   4.3733318e-01   2.8482671e-01   3.8427121e-01   1.4209615e-01   9.7012749e-01  -7.6500036e-02  -8.9323515e-01  -8.1682576e-01   4.5040209e-01   5.7808689e-01  -4.0414356e-01   2.7376392e-01   1.7718618e-01  -3.3486972e-01   6.1837993e-01  -1.0516222e-01  -6.2217845e-01  -9.7366917e-01   1.4931359e-01   7.8327728e-01   2.0643938e-01  -9.5264504e-01   6.3316700e-01   1.1139128e-01  -8.8936153e-01   8.0283651e-01  -2.8717014e-01  -8.2482929e-01   7.7343066e-01  -1.9521617e-01  -5.4850424e-01  -4.1856261e-01  -8.1756711e-01  -1.3260696e-02  -7.8547349e-01  -9.1982863e-01  -3.5522303e-01  -2.9289778e-01  -6.1754170e-01   1.7942162e-01  -1.0852988e-01   3.2649352e-01  -2.4415917e-02   6.2549277e-01   5.9710486e-01  -1.0260004e-01  -6.6194782e-01  -5.0690461e-01  -5.0857828e-01  -4.6781505e-01   7.2102835e-01   7.9400123e-01   9.2292791e-01   1.3148342e-01   9.9631116e-01   3.7462504e-01  -7.1139088e-01  -3.0688121e-01  -9.5299083e-01   4.2394830e-01   1.4845325e-01   7.1575577e-01  -7.5269123e-01  -8.4983292e-01  -5.9507020e-01  -4.3165684e-01   3.1652781e-01   8.6884447e-01   9.1894746e-01  -7.7450129e-01   7.1718740e-01   2.9023056e-01  -2.8060289e-01  -3.5498714e-01   1.2372857e-01  -3.3206302e-01   6.6151020e-01   2.8589211e-01   5.2045517e-01  -4.1422608e-02   3.6424348e-02   2.4906806e-02  -5.2531999e-01  -3.8794753e-01   8.9444815e-01   7.4183727e-01  -4.5895676e-01  -4.8286044e-03  -4.6263774e-01   1.3005717e-01  -4.7470721e-01   3.5620124e-01  -4.1730760e-01   8.6951906e-01   5.2837919e-01   2.8444833e-01   4.5294627e-01   5.4595664e-01  -1.4996961e-01   6.3640248e-02  -2.8742878e-01   6.4747277e-01   4.2581533e-01  -8.5596905e-02   1.2986047e-01  -7.0275788e-01  -7.2952273e-01   6.5450013e-01   5.9019489e-01   4.3517970e-01   8.8695344e-01   7.4158639e-03   8.9577684e-01   8.6694975e-01  -5.6640323e-01   9.2208119e-01  -5.0925531e-02   3.8148483e-01  -2.9297841e-01   9.7430668e-01  -3.4410287e-01  -7.6180089e-01  -9.7595075e-01   7.4891860e-01   4.1209213e-01  -6.0210461e-01  -9.4721389e-01  -1.4702521e-02   1.2658584e-01  -3.3054393e-01  -5.3427313e-01   9.2973908e-01  -2.3523729e-01  -6.0676980e-01  -4.2234975e-01   6.0428241e-01   9.2623296e-02  -3.1587482e-01   9.6729856e-01   4.8011598e-01  -4.0835604e-02   5.3608851e-01  -6.7253951e-01   5.5862465e-01   2.3012097e-01   1.1939135e-01
  -6.0015963e-02   2.4908139e-01   5.9594782e-01  -8.6253114e-01   8.2649603e-01  -8.0614221e-01  -5.3524055e-01   3.9290461e-01   4.9493678e-01   1.1203765e-01  -8.2397553e-01   2.8598700e-01  -8.0407698e-01  -4.0158687e-01  -1.6919333e-01  -3.5206810e-01   4.0438159e-01  -4.2965281e-01   9.8068679e-01  -6.9296186e-01  -1.2812336e-01  -7.8011752e-02  -4.3596247e-01   8.3599917e-01   4.5964519e-01   3.3935149e-01  -6.1690560e-01   1.7438849e-01  -1.3098659e-01  -2.9912634e-01   6.4246713e-01  -5.7398858e-01   8.3511376e-02   3.4396663e-01   2.7680482e-01   3.3603341e-02  -7.3732816e-01   5.0156924e-01  -4.8418722e-01  -7.5880349e-01  -5.3743690e-01   2.8887551e-01  -6.4097844e-02   2.8134404e-01   9.7676624e-01   8.1830166e-01   4.1944895e-01  -1.2291680e-02   8.6889435e-01  -1.3905443e-01  -6.0045669e-01  -2.6162002e-01  -5.4002832e-01   6.1838578e-01   2.5127671e-01   1.2643719e-01   8.7660475e-01   5.5672113e-01  -5.0493594e-01  -9.2402690e-01   8.8161652e-01  -6.8229046e-01  -2.0955465e-01   9.1098328e-01   6.9799142e-01   8.5436840e-01  -7.0978284e-01   8.6906085e-01  -8.8177573e-01  -2.5088690e-01  -7.7120083e-01  -5.7875314e-01   6.4600488e-01  -4.3808802e-01  -4.8889980e-01  -6.5671571e-02  -3.7724144e-01   1.1823662e-01   9.6190681e-01   5.7466560e-03  -4.3727759e-01   5.2288454e-01  -1.0331838e-02  -4.2484846e-01   5.4897384e-01   6.1121739e-01   8.2268363e-01  -5.3904652e-01  -8.1410094e-01   6.7500128e-01  -1.6794292e-01  -5.1200834e-01  -2.1623374e-02   7.0182007e-01  -3.2693512e-01  -4.2721042e-01  -2.8864151e-01  -4.9026101e-01   3.3213006e-01  -2.9688276e-01   7.3863557e-01   7.4968462e-01   7.4169176e-01   3.3769443e-01  -9.3078876e-01  -2.6050229e-01  -7.1544059e-01   3.4312471e-01   8.2066203e-01  -9.0701172e-01  -1.6374686e-01  -8.3400169e-01   7.6979979e-01   2.9840125e-01   4.7766050e-01  -7.3865712e-01   6.5771880e-01  -4.2648585e-01   7.4285432e-01   1.8166838e-01  -5.5435111e-01  -4.4950365e-01  -8.8686227e-02  -5.0113606e-01   1.1911216e-01  -2.6125377e-01  -1.3008246e-01  -6.8587433e-01   6.4790670e-01  -8.8303268e-01  -2.1070193e-01  -2.8147961e-02   7.4620714e-01   2.6245320e-03   3.2970059e-01   4.7487283e-01  -4.1019216e-01   8.8793412e-01   4.4697005e-01  -4.6330669e-01  -8.2402230e-01  -4.2929904e-02   7.9330220e-01  -4.2676754e-01  -6.5791988e-01   7.5188584e-02  -1.9799806e-01  -2.1563879e-01   4.9342321e-01   4.4491948e-01   4.1493340e-01   8.3908627e-01  -3.2153555e-01  -6.2025296e-02   9.0574183e-01  -4.1718636e-01   1.8158778e-01  -3.7376001e-01  -8.4098334e-01  -9.5325698e-02  -1.4186016e-01  -9.7867575e-02  -3.1883520e-01   7.0732700e-01  -3.6853888e-01   2.5299350e-01   2.4827346e-01   8.4350148e-01   8.0785389e-01   2.9490923e-01   6.0781350e-02  -5.6091336e-01  -7.0678658e-01  -8.8840565e-01  -4.9887182e-01   7.8935212e-01  -2.8019999e-01   8.4120504e-02   4.1166339e-01   6.5055798e-01   2.2712928e-01  -3.6583122e-01  -7.0370815e-01   4.1006196e-01  -9.0988190e-02  -2.3779749e-01  -5.7605608e-01   2.2032508e-01   5.7274854e-01  -8.1692839e-01  -6.8988590e-01   5.2690766e-02  -4.7538379e-01   2.1967222e-02   5.7689607e-01   8.6870890e-01   1.9301269e-01   3.2085328e-01   5.9250440e-01  -3.2978181e-01  -8.3022996e-01   8.5592725e-01  -2.1942638e-01  -8.7141906e-01   7.4579360e-01   1.1619771e-01  -6.7315108e-01   8.2223546e-01   1.7951406e-01  -1.0067587e-01  -9.1473654e-02  -3.6691028e-01  -1.0181077e-01  -9.7610913e-01  -3.0650222e-01  -5.5759302e-01  -6.7445931e-01   7.1054304e-01   6.1413585e-01  -1.5656423e-01   5.5182436e-01  -5.7406399e-01  -7.6505086e-01  -8.5583801e-01  -1.3180031e-02   3.8363398e-01   9.4177165e-01  -4.2884249e-01  -1.7621984e-01  -1.2848796e-01  -8.5680791e-01   6.3624596e-01  -4.9921154e-01   6.2395972e-01   9.5213456e-01   8.6825307e-01  -4.1313247e-01   1.5335853e-01  -2.7901345e-01   2.1291518e-02   7.7995347e-01   8.5416866e-01   5.9091596e-01   5.5332420e-01  -4.5780224e-01   5.1648579e-01  -6.8040081e-01  -9.5160114e-01   5.8169088e-01   8.2303568e-01  -7.1109621e-01   8.6856578e-01  -3.3408376e-01   1.6219461e-02  -7.0679356e-01   1.4760412e-01   8.3736839e-01  -3.2715911e-01  -5.6289223e-01  -3.8218987e-01  -3.9138734e-01  -3.0459372e-01  -4.3382120e-01  -8.1895284e-02  -8.9602265e-01   7.8144600e-01  -1.0574382e-01  -5.6582867e-01  -3.7269308e-01  -9.8055304e-01   7.0946610e-01   9.5796792e-01  -8.8691308e-01  -5.8595195e-01  -5.5583029e-01  -5.1499061e-01  -5.5230494e-02  -8.8972810e-01   8.3059315e-01   9.8841808e-01  -5.7243918e-01  -5.4286710e-01   5.2908027e-01  -4.6347317e-01  -1.3629157e-01  -9.1072658e-01   3.2723727e-01   5.8169576e-02  -2.6115253e-01  -6.0496951e-01   8.8278695e-01   1.8031390e-01  -7.6598991e-01   2.8699282e-01  -3.9165138e-01  -2.5892819e-01  -4.0522263e-01   7.1224427e-01  -2.7997446e-01   6.1320117e-01  -2.7183108e-01  -8.4631318e-01  -4.2290348e-01   6.2491125e-01  -2.2008672e-01  -9.1094386e-02   5.7230035e-01  -8.1619887e-01  -5.8366759e-01  -6.8239947e-01   1.7147497e-01   4.6473108e-01  -5.2354036e-01   4.3669143e-01   7.4348258e-01   3.2609137e-01  -3.3310600e-02  -4.2039645e-01   7.1632916e-01  -1.1701905e-01   6.2449391e-01  -9.4098547e-01  -2.3948939e-01   7.0009139e-01   8.8713873e-01   6.9992187e-01   1.8154247e-01  -6.1326375e-01  -1.8651591e-01  -2.3964209e-01   5.8915389e-01  -9.0322036e-01   8.0714075e-01  -6.9141239e-01  -5.7623963e-01  -4.1500613e-01  -1.1519513e-01   9.8090410e-02   7.4097512e-01  -2.8473440e-01  -7.6863615e-01  -8.8642593e-01  -1.9625860e-01  -2.2605192e-01   5.4334627e-01  -7.0779924e-01   2.8315286e-01   9.0102600e-01   5.0828136e-01  -7.1739275e-01   6.1830165e-01   8.1348597e-01  -1.7903977e-01  -4.2596662e-01  -6.3968433e-01   9.1416279e-01  -9.8417247e-01  -1.4130557e-01  -8.0329966e-01  -9.2113269e-01   4.8716254e-02  -4.3700819e-01   8.2901195e-01   7.0491077e-02  -2.1290432e-01  -4.6969792e-01   9.9274539e-01  -7.4777957e-02  -4.8606526e-01   2.5399904e-01   2.2712755e-01  -4.5693257e-01  -6.2132378e-01   1.7694606e-01  -3.5681128e-01   3.1937294e-01  -9.7937867e-01   9.9500714e-02   5.3176782e-01   7.4997318e-01   3.1113893e-01   1.2134079e-01  -9.7048410e-01   4.0802130e-01   4.3378896e-01  -1.6695300e-01  -4.7814698e-01  -3.0700634e-01  -7.6614699e-01  -3.5203443e-01  -3.4490857e-01   8.5921006e-01  -2.1908366e-01   9.8279915e-01  -4.2654100e-01   5.7262023e-01  -6.0075361e-01  -1.9200605e-01  -9.0924676e-01   4.2094057e-01  -2.6882848e-01  -8.8632524e-01  -2.2791761e-01   5.0273049e-01   7.8762813e-01   8.2239318e-01   6.6741831e-01   4.7504179e-01  -9.1052899e-01   4.7181168e-01   3.2504530e-01  -7.0170877e-02  -5.9225699e-01   2.5484985e-01   6.4529282e-01   2.8151109e-01   4.0566872e-01   2.3045347e-01   1.9370014e-01  -2.6417221e-01  -5.5143878e-01  -6.4044974e-01  -5.1364479e-01   6.4957477e-01   1.8371822e-01  -7.1881306e-02   2.7863935e-01   6.8243464e-01   1.1030837e-01   7.1318030e-01   7.0694883e-01   2.7354067e-01  -8.0482680e-01  -4.4947034e-02   2.7192939e-01  -4.6895052e-01   7.1789442e-01  -7.8645941e-01   1.3865020e-01  -3.7646469e-01  -8.3400353e-01  -2.2528447e-01   5.8865168e-01   7.9790918e-02   4.9392796e-02  -4.1376528e-01  -3.3570375e-01  -9.4275287e-01   1.5274818e-01   5.7960893e-01  -6.7702690e-01   9.5253077e-01   2.1567794e-02  -2.6053353e-01  -8.4019831e-01   3.3436260e-01   1.8274843e-01   9.0272626e-01   1.6819482e-01   2.8672533e-01  -9.5338876e-01  -3.9861993e-01  -4.7363912e-01  -5.2975496e-01   9.7472253e-01  -5.0527164e-01  -1.5217839e-01   8.9064700e-01   4.6923208e-01  -4.8952866e-01   3.2292485e-02   5.8976236e-01  -4.7769063e-02  -9.4746868e-01   9.6073170e-01   7.2208583e-01   4.5449949e-01   4.7488082e-01  -8.2995541e-01  -3.1850019e-01   1.3616025e-01  -4.3835662e-01   7.8128317e-01   1.7293622e-01   1.0334015e-02   5.3430502e-01  -2.1889813e-01  -2.1120668e-03  -3.3875092e-01  -1.4812137e-01   8.9968263e-01   8.2742152e-03  -4.3987627e-01  -4.5022146e-01  -9.4945691e-01   1.6199185e-01   1.9336175e-01   5.2096202e-01  -8.1645691e-01  -7.8241933e-01  -7.5407246e-01   4.3862088e-01  -9.3445742e-01   9.3139193e-02   4.5741788e-01   1.7956395e-01   4.4839138e-01   9.8138775e-01  -8.7149966e-01   6.8980093e-01   9.2307907e-01  -8.9598459e-01  -6.2958429e-01  -1.6429405e-01  -2.8379736e-03  -3.9200060e-01  -6.8720053e-01  -7.8920805e-01  -8.8308950e-01  -2.6680564e-01  -3.5681418e-01  -5.4280797e-01   9.3728265e-02   1.5156089e-01   4.3037814e-01  -6.1398519e-01   2.7140045e-03   8.0345637e-01  -2.1808053e-01   7.5267959e-01   6.8997992e-01  -2.0089958e-01  -7.8433631e-01  -7.1229811e-01  -8.1351043e-01   4.4177947e-01  -1.9667476e-01   6.1929513e-01  -9.5538686e-01  -3.4709055e-02  -8.5191708e-01   3.3535632e-02   3.4442993e-01   5.5957896e-01  -3.4556710e-02  -9.8295941e-01  -8.2161199e-01  -1.0131549e-01   5.8759603e-01  -4.6301124e-01  -5.1479604e-01   5.3994260e-02  -1.0999818e-01  -7.2630791e-01   3.7581425e-01   2.5229830e-01  -1.8253595e-01  -8.2364704e-01  -8.2503372e-01  -7.2370062e-01  -5.1510253e-02   9.9316952e-01  -1.9367549e-02  -9.1542588e-01  -5.2885931e-01   4.1489736e-01   9.0966030e-01   9.8970926e-01   9.5210481e-01   7.0200201e-01   1.0812383e-01   2.9479255e-01   9.4122980e-01  -8.1012804e-01  -7.9014456e-01   4.9700057e-01  -8.0834250e-01  -6.1007595e-01   6.5134816e-01   1.7652407e-01  -9.0742702e-01   4.4921093e-01  -2.0069713e-01   6.2833384e-01   7.0308333e-01   9.9580674e-01   1.5130714e-01   5.6614129e-01   3.4637428e-01   5.5841937e-01  -4.5952556e-01  -5.1272835e-01   1.3748050e-01  -6.5962475e-02   3.5533658e-01   9.2155724e-01  -8.2034387e-01  -3.5975718e-01   7.3153008e-01   7.3651096e-01  -4.3753096e-01   9.8084200e-01   9.6697213e-01  -8.2776123e-01  -5.4956444e-01   4.4165128e-01   1.4350701e-01   1.0162910e-01   2.3587448e-02  -5.0174414e-01  -6.0013685e-01  -8.8467700e-01   4.1578045e-01  -6.2623231e-01  -4.7584355e-01  -5.3123829e-02   6.5723530e-01   1.4290215e-01  -1.4448340e-01  -3.6957550e-02   5.3061127e-01  -3.6778817e-01   7.1594799e-01   2.5721039e-01   7.7225948e-01   6.6062525e-01  -9.2710550e-02   8.7599881e-01  -8.7981945e-01   1.8180218e-01   5.0023339e-01  -2.9216967e-02  -6.2717208e-01  -2.8212691e-01  -5.8297129e-01   9.3203052e-01   9.9929862e-01  -6.2484459e-02  -6.5721375e-01   6.4085935e-01   2.2547416e-01  -1.6968323e-01   9.2297420e-01   5.0855662e-01   2.5967312e-01   1.9285614e-01   6.1896863e-01   2.6358203e-01  -4.2242255e-01   7.6395867e-01  -9.2790410e-01  -8.5125853e-02   1.1060327e-01   8.7882242e-01   1.0740593e-01   9.1206001e-01   6.5230358e-01  -2.1897267e-02   6.3491013e-01   4.8141280e-01   2.0847203e-01   2.8060510e-01  -5.1135651e-01   9.6247904e-01   1.6428738e-01   4.0043540e-01  -4.0669616e-01  -3.3360932e-01  -6.5244022e-01   4.6018720e-02  -8.1699414e-01  -3.0852515e-01   5.7850846e-01   1.0157258e-01   9.1486152e-01   4.5615575e-01   4.9994670e-01   7.4067751e-01   8.2500197e-01  -9.6570308e-01  -2.7795214e-01   1.4615977e-01  -4.7678542e-01  -7.2767597e-01  -2.5335732e-01  -3.8782789e-01   6.5989466e-01  -6.3748676e-01  -7.0354341e-01   4.6475144e-01   3.1818014e-01  -7.5306097e-01   9.0311494e-01  -3.5648325e-01  -1.5306625e-01   6.8358076e-01  -5.2735701e-01  -8.6910799e-01  -8.6157837e-01  -9.3294323e-01  -7.4257674e-02  -1.0843583e-01  -7.1282767e-01  -6.2937382e-01   9.4088255e-01   2.4441450e-01   4.0140730e-01  -7.6349907e-01   6.7584501e-01  -7.6069915e-01  -4.9408461e-01  -7.4940257e-01   9.2071884e-01   5.8506695e-01   5.3309332e-01   6.2025049e-01  -7.6673420e-01   5.7946748e-01   1.7394553e-01  -8.8864944e-01  -7.2798204e-01  -6.6230175e-01  -9.9206679e-01  -1.8157928e-01   3.6768329e-01  -8.2334225e-01  -9.1292352e-01   6.7841662e-01  -4.3282129e-01  -6.2213555e-01   3.8629195e-01   4.6814217e-01  -5.6878013e-01  -6.7792645e-01  -2.7082961e-01   8.4083737e-01   4.1368345e-01  -9.9821965e-01   9.0335124e-01   2.0261177e-02  -9.9040769e-01   2.8933790e-01  -3.7929597e-01  -7.2475887e-01   3.2510954e-01   1.5591421e-01  -9.7656282e-01   2.1720482e-01  -7.9786492e-01  -6.8824947e-01   6.5059078e-02  -6.5538019e-01  -5.5613991e-01  -3.4713566e-01  -4.8377266e-01   2.4831992e-02  -3.6564541e-01  -9.3811962e-01   6.6145027e-01   1.2729184e-01   2.3443114e-01  -2.1620278e-01   9.9673726e-01   7.1318932e-01  -6.2573670e-01   6.7022855e-01   2.7455520e-01   9.9625425e-01   3.3197609e-01   9.5926173e-01   7.4771589e-01   2.0595438e-01   6.6096413e-02  -1.7544959e-02  -4.4389608e-01  -5.5736003e-01   7.4866077e-01  -1.1037933e-01  -6.6730762e-01  -2.7059494e-01  -3.0854146e-01   9.5254032e-01   4.0480880e-01  -8.7096632e-01   3.8668074e-02   3.6555929e-01   1.3313350e-02   2.2630991e-01  -4.9226570e-02  -9.1886993e-01  -5.7300150e-01   9.9986904e-01  -1.2360647e-01   7.6792239e-01  -5.4051977e-01   1.5479854e-01  -9.1786842e-01   1.7634532e-01  -8.1758571e-01   2.9655001e-01   9.1073145e-01  -8.2567453e-01   3.5161610e-01   5.5148762e-02  -1.9955467e-01   6.2363900e-01  -4.3199747e-01  -5.1132041e-01  -9.4160597e-01  -1.6261381e-01  -4.1990853e-01   5.6204217e-01   1.5208196e-01  -8.9072462e-01   5.6909888e-01   2.0316812e-01   5.3156642e-01   1.6361283e-01  -8.9823386e-02   6.4518298e-01   1.3413206e-01  -7.7540197e-01   9.6420332e-02  -2.0964771e-01   2.2107592e-01  -2.6457850e-01   5.0715847e-01  -3.3368127e-01   3.0779560e-01   7.6819736e-01   5.0122713e-01   6.4820832e-01  -1.7945619e-02  -9.9218045e-01   3.8050383e-02  -6.5270888e-01   1.4130138e-01   9.8189488e-01   7.7321743e-01   1.5693400e-01  -6.7243756e-01   5.5160968e-01  -9.1172925e-02  -6.1298032e-01  -7.5281649e-01  -9.0788451e-01  -2.4570639e-03  -7.0295030e-01  -8.9653180e-01   1.4593899e-01   6.7969727e-01   4.2738916e-02   3.6206408e-01  -2.9781382e-01  -1.8261933e-01  -9.6091729e-01  -3.9961782e-01   9.5109650e-01   5.5694802e-01   4.0614216e-01  -8.5806858e-01   1.2879685e-01   1.0134533e-01  -6.3747522e-01   3.6872390e-01   9.5228973e-01  -4.0712120e-01  -1.1156954e-01  -7.2609944e-01   1.1700991e-01   9.6026570e-01   9.5959426e-01  -3.5653094e-01   3.8469750e-01  -9.5765530e-01   6.9059188e-01   5.1334861e-01   6.5550681e-01   4.0433796e-01   9.8593455e-01   4.6932103e-01   5.1275359e-01   5.2716413e-01  -7.3275717e-01   7.6909867e-02  -9.9814582e-01   7.1807951e-01   3.3875538e-01   6.9287767e-01  -4.5160807e-01  -2.5583644e-01  -4.7963073e-01  -6.2631080e-01   4.3378040e-01  -7.1698549e-01   9.2826887e-01  -7.7279426e-01  -7.7149847e-01   2.1712778e-01   7.3642728e-03  -5.1448207e-01  -8.1021397e-01  -3.3011312e-01   2.6355307e-01  -6.3369625e-01  -6.5603885e-01  -9.6143914e-01   5.1948929e-01   2.6710417e-01  -2.9784544e-01   7.6376707e-01   2.3173628e-01  -3.3063849e-01   9.3765865e-01   4.7955337e-01  -7.4983267e-01  -5.9453648e-01  -4.1486284e-01  -6.6165174e-02  -6.7741808e-01   5.7369422e-01   3.7859407e-01  -8.8117898e-01   4.0301311e-01  -5.1157146e-01   3.5217081e-03   4.8198363e-01  -3.0510975e-02   5.4881859e-01  -1.2883983e-02  -2.4613691e-01   3.2358034e-01  -9.2280469e-01   2.6314601e-01  -4.5960794e-02   8.9357466e-01   6.1209992e-01  -6.8481442e-01  -5.4357464e-01  -9.8849506e-01  -6.0612269e-01   1.5126440e-01   5.4404189e-01  -6.9257083e-01  -3.0127733e-02  -7.3102526e-01   2.1004502e-01   6.3439521e-01   2.2621385e-01  -3.0318668e-01  -6.3666846e-01   4.0223942e-01  -6.8196501e-01  -6.7030429e-02   3.6320778e-01   8.1034980e-01  -1.1636881e-02   1.5273093e-01  -2.6948024e-01   4.9663917e-01  -7.5375341e-02  -5.5390826e-01  -9.3052036e-01  -5.1893530e-01   1.1933977e-01  -6.5502353e-01  -5.0287772e-01   6.5564940e-02   8.5884432e-01   3.4493106e-01   5.6836958e-01  -3.6299893e-01   1.2603973e-01  -6.5587565e-01  -1.0608697e-01  -3.6719237e-01   1.1964358e-01  -6.6016935e-01   8.5483525e-01  -6.3111109e-02   9.8306311e-01   2.7517684e-02   7.2319021e-01   1.1403688e-01  -5.1895425e-01   3.1584947e-01   7.1282648e-02  -3.8943370e-01   5.7414736e-01  -8.6471411e-01  -7.5432349e-01   7.2027290e-01  -4.1172724e-01  -3.4923690e-01   3.1751268e-01  -5.4182829e-01  -3.6328122e-01  -2.2213607e-01   3.5080133e-02   2.5335834e-01
   1.5934293e-01  -6.6459893e-01  -3.3668700e-01  -4.6583768e-01  -4.9677471e-01  -6.5765368e-01   7.5932164e-01  -4.0513625e-01   5.6162219e-01   1.8051611e-01   2.9419366e-01   7.1408599e-01  -4.0714587e-02  -1.8882137e-01  -4.8254580e-01   8.2205816e-01   2.1709651e-01   7.3234293e-01   2.0450793e-02   4.5318531e-01  -7.6107731e-01   6.4088658e-01  -8.8723229e-01  -3.8367774e-01   6.2996071e-01  -4.6928580e-01  -9.8870310e-01   6.5102364e-01  -3.5227418e-01  -5.1239704e-01   7.8274352e-01  -9.5778285e-01   5.5336127e-01   1.7490024e-02  -5.6715439e-01   7.8306337e-01  -3.5224890e-01  -8.1454260e-01   2.6644780e-01  -8.7222529e-01  -7.3823849e-01  -2.8093671e-01   4.2246210e-01   8.0878127e-01  -8.0416293e-01   3.9211556e-01   3.1657186e-02   1.9693876e-01   2.8149588e-02   4.9082210e-01   8.0187840e-01   9.1403847e-01   9.3387148e-01   3.3166887e-01  -2.2411276e-01   3.6658407e-01  -9.3022016e-01   2.9021241e-01   1.8829012e-01  -5.2292199e-01   2.8735089e-01  -8.6494917e-01   9.2802912e-01   9.5169481e-01  -4.6894935e-01   2.7302369e-01   6.6737725e-02   4.2426440e-02   2.7669662e-01  -4.6512172e-01  -7.2892975e-01  -8.9212939e-01   1.8221908e-01   5.5167278e-01   3.6151850e-01  -1.8605429e-02   3.4469059e-02   6.8743859e-01  -9.1917354e-02   6.8884903e-01  -4.3724874e-01   7.0866788e-01  -6.6341772e-01   6.9365917e-01   5.4924550e-01  -2.7736056e-01   6.8456357e-01   9.9968997e-01   2.0093520e-02   5.5854769e-01  -6.5756774e-01   8.7306991e-01   3.5897868e-02  -6.0756130e-01   9.4650850e-01   9.4438648e-01   5.1954271e-01  -5.6037743e-02   8.7160290e-01  -4.3158319e-01  -4.4124726e-01   5.6042072e-01   6.1593300e-01   5.0863746e-01   3.8094973e-02  -4.5720029e-01   8.6044523e-02  -9.1337743e-01   3.4849523e-01   1.6051160e-01   5.9955515e-02  -9.9494977e-01  -8.0053020e-01   9.0166187e-01   1.7964846e-01   8.4743207e-01  -2.0985383e-01  -4.8664502e-01   7.2147045e-01   5.1285923e-01   8.9676128e-01  -6.0706179e-01  -2.7328528e-01  -8.9507721e-02  -4.2262831e-01   2.6561327e-01   7.5125143e-01  -8.3284608e-01  -9.2630542e-01   9.6580516e-01  -3.5393925e-01  -3.0574802e-01  -6.4266121e-01  -3.9763118e-01   8.6747869e-01  -7.8735868e-01   9.0309216e-01  -6.5302444e-01   9.9072699e-01  -6.4458978e-01  -9.0187886e-01   8.2810782e-01  -9.5054628e-01  -3.9797291e-01   4.9398898e-01   7.7364953e-01  -5.9896528e-01  -4.8762357e-01   6.1363795e-01   1.4690463e-01   2.8285999e-01   9.6557631e-01   4.2148397e-01  -4.9907390e-01  -2.4150762e-01  -4.3394529e-01   5.1940488e-01   9.8219298e-01   6.5221933e-01   5.4519924e-02  -5.5306130e-01  -3.9920314e-01  -7.8928475e-02  -3.7273545e-01   9.4135139e-01   9.2743362e-02   1.2453372e-02  -2.6554411e-01  -9.0204523e-01   3.5859007e-01  -6.6428430e-01  -1.8202397e-01   6.5745578e-02  -7.5314069e-01  -3.9777063e-01  -2.5836485e-02  -6.4708650e-02   6.4520763e-01  -9.6209116e-01   4.6749157e-01   8.0547897e-01  -4.8754917e-01   5.9173458e-01   6.7449390e-01  -2.6251762e-01   2.2725994e-01  -7.8339990e-01   2.6831281e-01   4.8833292e-02   3.5996203e-01   9.4140690e-01   6.1722626e-01  -8.9089966e-01   2.6859918e-01  -4.5024004e-01   2.8004233e-01   4.2693384e-01   6.9739590e-01   6.8779525e-01   4.7626103e-01  -3.3218380e-01   4.6841320e-01  -1.8655672e-01   2.2545483e-01  -7.0935388e-01   7.6128352e-01  -3.6057789e-01  -2.2100020e-01  -5.1530118e-01  -1.9003910e-01  -2.1171154e-01  -4.7854389e-01  -8.4664807e-01   1.3487510e-01   3.8423434e-01   4.2547228e-01  -2.2373397e-01   6.1340866e-02  -6.5702996e-01  -9.3103944e-01  -3.1608372e-01  -8.6372331e-01   9.1965226e-01   2.8190109e-01   3.9590394e-01   5.3015232e-01  -9.2489186e-01   5.0145843e-01  -2.8578632e-01   9.8198594e-01  -2.7544977e-01   2.5537097e-01   2.2122858e-01  -4.4936908e-01   4.2058763e-01  -3.3056484e-01   8.0457035e-01  -5.8751072e-01   4.6861435e-01   1.8064328e-01   1.1770888e-01   9.4180788e-01   3.9305462e-01  -7.1269911e-01   3.8429184e-01  -3.6075711e-01  -2.0477444e-01   2.2899452e-01  -7.5611662e-01   7.5736178e-01  -4.1101227e-01   1.7618452e-01   2.5472248e-01  -5.5963580e-01   2.7155945e-02   8.1635972e-03  -5.7954089e-01  -4.2882184e-01   7.7199039e-01  -9.0544206e-01  -9.7655828e-01  -6.6086374e-01   4.6685320e-01   1.7204449e-01  -1.1731825e-01  -9.4331531e-01  -3.1500118e-01  -4.3812609e-01   5.4928197e-01   4.6758960e-01  -6.8287732e-01  -8.9397817e-01  -4.1926080e-01   6.7310622e-01  -6.8891508e-01  -9.8945373e-01   1.3874919e-01   2.9954798e-01  -8.4548108e-01  -8.9836013e-01  -2.2209180e-01  -2.9548136e-01  -5.8969285e-01   8.7189092e-01   5.2549458e-02   8.4246165e-01  -8.4177838e-01  -3.2522849e-01  -8.9443648e-01  -5.9074849e-01   8.0158587e-01  -1.8578491e-01  -7.0681298e-01   5.5112575e-01  -8.7326308e-01  -4.3001421e-02  -5.4095314e-02  -7.0684328e-01  -3.6018626e-01   8.8509395e-01   4.8973811e-01  -7.3347766e-01   9.7530321e-01   7.5143432e-01   4.8147611e-01  -6.0319257e-01   1.8316455e-01   2.5971447e-01  -5.4812101e-01  -5.0754936e-01   3.3943319e-01  -3.8028605e-01   3.3126227e-01  -2.8863606e-01   1.7783631e-01  -2.3905769e-01  -6.1827312e-01  -1.1973041e-01  -7.2517703e-01  -5.5425426e-01  -9.0476188e-01  -7.7412676e-01  -3.7372613e-01   8.9715713e-01   9.9435205e-01  -1.1064148e-01  -1.4238360e-01  -8.8497312e-01   5.0475196e-01   3.3066598e-01   6.9942447e-01  -6.9355851e-01  -3.2993265e-01   2.0256510e-02  -3.3495354e-01  -7.6260365e-01   7.6983970e-03   4.1162913e-01  -6.3120341e-01   2.4603013e-01  -3.9726503e-01  -5.4082051e-01   9.8988263e-01  -3.5871679e-01  -9.1421755e-02  -6.4265829e-02  -5.6998852e-01  -8.1450830e-01  -5.7294372e-01  -6.3110538e-01   3.1851830e-01  -6.6905112e-01  -2.4327100e-01  -3.8631546e-01   9.1508046e-01   1.5018101e-01   6.5859343e-01  -1.8527611e-01  -1.0730319e-01  -2.6097207e-01  -8.6823256e-01   3.6298641e-01  -8.8430251e-01  -9.6415498e-01  -5.7649619e-01   9.7441033e-01  -3.2031464e-01   9.7778019e-01  -3.8249772e-01  -7.5352915e-01   1.4355298e-01   7.2552563e-01  -1.6693277e-01  -9.7921149e-01   4.5161646e-01  -9.5570874e-01   6.9279596e-01  -4.4310651e-01   2.8479715e-01  -9.5230688e-01  -9.7036098e-01  -4.2988207e-01  -5.8711884e-01  -4.0737990e-01   5.3171331e-01  -2.7885853e-01   5.4183366e-01   9.3011939e-01  -2.6937481e-01  -4.9354582e-01   4.9592892e-01   6.7865519e-01   6.5615615e-01   4.4935700e-01  -2.8276707e-01  -5.5284236e-02  -8.3857704e-01  -9.0130308e-01  -5.1401690e-01  -7.6252898e-02  -5.1930895e-01   5.7361261e-01   2.9349216e-01  -5.8178277e-01  -5.4003835e-01   8.7890466e-01   4.4137980e-01  -9.2682477e-01  -7.3760000e-01   9.2627163e-01  -8.5937179e-01  -8.2293376e-02  -6.3590975e-02  -6.7859751e-01   6.1277045e-01   8.5675093e-01  -1.7911225e-01   5.6072484e-02   2.9063575e-01   1.2518991e-01   8.7536745e-01  -7.7598791e-01   5.1670785e-01  -5.1462995e-01  -3.6652072e-01  -4.2695754e-02  -4.4375842e-01  -5.5770522e-01  -3.9660055e-02  -8.6524640e-02  -5.5946670e-01  -5.2639273e-01  -4.0014236e-01   3.9239534e-01  -2.2679596e-01  -8.6323949e-01   2.0001304e-01  -4.8335490e-01   5.8576643e-02  -3.3839629e-01   2.1775503e-01   4.1899441e-01   6.5527893e-02  -8.5969809e-01   1.9099243e-01  -8.8386383e-01   2.6966048e-01  -1.0004813e-01  -7.3700803e-01  -5.8151406e-01  -7.9362342e-01   1.8574808e-01   8.3599015e-01   2.2173952e-01  -3.9907275e-01   2.2043172e-01  -2.0699404e-01   1.9721168e-01  -6.5468836e-01   5.3941766e-01  -9.6311734e-01  -6.9800920e-02   8.9673374e-01  -8.8834458e-01   3.9421494e-01  -3.0729179e-01   2.8173519e-02  -9.8386071e-01   4.7588541e-01  -6.7146461e-01  -7.3401258e-01   5.9557694e-01  -6.0727443e-01   1.4807933e-01   2.8168543e-01   9.9066069e-01   1.5113185e-01  -2.2204978e-01   2.9167332e-01   1.3134346e-01   7.4878672e-01   3.7820988e-01  -6.0886586e-01  -4.8741915e-01   2.1929505e-01   9.5604796e-01   3.5744647e-01   1.8626794e-01  -7.1608847e-01   2.6012108e-01  -1.2915031e-01  -8.7999337e-01   6.6458239e-01   1.1961364e-01   2.6973334e-01   8.8554234e-01  -4.5186760e-01  -4.7381543e-01   2.0468669e-01  -8.0782849e-01  -3.1397890e-01  -6.3366475e-01  -1.1251037e-01   9.5227441e-02   7.5664626e-02  -7.5086602e-01   7.9323224e-01  -1.7239423e-01   5.7458249e-01  -3.3676539e-01  -5.2655051e-01  -1.2368230e-01  -3.4553958e-01  -6.0080294e-02  -8.4494353e-01   4.6723655e-01  -1.4269724e-01   5.4068456e-01  -3.5891217e-01   1.4621229e-01  -7.7228105e-01  -4.2916811e-02   3.9209372e-01   2.2490590e-01  -7.3406982e-01  -6.5568823e-01  -2.1455049e-01  -3.7514001e-02  -6.1165888e-01  -5.6053837e-01   9.6873446e-01   4.3790484e-01   2.9057852e-01  -3.6629393e-01  -7.5151515e-01   2.4685898e-01   3.7327398e-01  -1.6740973e-01  -6.8220005e-01  -2.5623273e-01   6.2339804e-01   5.3865239e-01   1.0933356e-01  -9.5185693e-01   9.2448970e-01  -1.8586127e-01  -8.8062837e-01  -5.6540108e-02   4.8258039e-01  -4.6162546e-01   1.3868693e-01  -6.9846243e-01  -2.6313123e-01  -3.6793131e-01   7.7039738e-01  -9.4023703e-01  -7.8529388e-01   8.8554694e-01  -2.6712562e-01  -3.5480135e-01   4.3654436e-01   2.9838667e-01  -2.8511010e-01   2.9358097e-01  -7.0681807e-01  -4.5155751e-01   1.1855663e-01   2.7201191e-01   9.6265606e-01   1.2985566e-02  -2.9799602e-01   5.0350138e-01  -1.4806781e-01  -3.5921024e-01  -7.3228049e-01   4.7862463e-01   6.7749609e-01   5.7452141e-01   2.6146532e-01  -6.2285775e-01   4.2922844e-01   4.6852172e-01  -4.1735615e-01   3.1287018e-01  -2.6286312e-01  -3.8462034e-01  -2.0244522e-01   2.3763891e-01   5.6441042e-01  -8.9988375e-01   1.0907567e-01  -2.3376562e-01   5.5798582e-01  -2.6416315e-01   4.4077178e-01   6.8233905e-01  -4.3347158e-01   2.7606437e-01  -3.4860900e-01   3.5043591e-01  -4.0045319e-01   8.0455279e-01  -8.3034632e-01   9.7343435e-01  -5.7403674e-01  -6.5362762e-01  -9.3939582e-01   4.3431827e-01  -8.5347706e-01   4.3427173e-01   4.7130801e-02   9.6500025e-01   5.8174800e-01  -8.7944626e-01   3.5403751e-01   9.1489286e-01  -5.6287171e-01  -1.6559371e-01  -6.4206315e-02  -9.7318412e-01  -1.7823290e-01  -4.3731955e-02   8.1077497e-01  -7.2639941e-02  -7.0382685e-01   2.3843335e-01   6.0015932e-01   7.7166741e-01   5.9019151e-01  -1.5420726e-01   6.9580701e-01  -2.9335964e-01   2.1904270e-01   9.9667797e-01   2.3445870e-01   3.2393359e-01  -7.5670658e-01  -9.5841284e-01  -1.6807982e-01  -9.0094281e-01  -7.7672450e-01  -6.3499625e-02   8.3612727e-01  -4.8704606e-01  -4.5741609e-01  -9.2252873e-01   4.6288815e-01   6.5735078e-02  -8.7354541e-01  -7.0411509e-01   6.1230191e-01  -5.2298859e-01   6.3313698e-01   8.7865351e-01  -7.2592625e-02  -8.1359548e-01  -2.0170714e-01   9.9212279e-01  -9.9740591e-02   4.8690019e-01   7.4645315e-01  -5.1329625e-01  -8.8745187e-01  -5.9023892e-01   8.6588377e-01   6.0097221e-02  -6.8764044e-01  -2.3539447e-01  -3.5242801e-01  -4.2961082e-01  -4.6194088e-01  -9.0288122e-01   5.8940763e-01  -1.5170688e-01  -6.9024571e-01  -1.5985073e-01  -3.7984733e-02   4.0747555e-01   5.6826929e-01   9.9684665e-01   8.7585343e-01   1.8467187e-01  -9.6668889e-01   6.8557631e-01   4.6012037e-01   6.1261484e-01   2.9819458e-01  -6.9041079e-01  -6.9119335e-01  -9.0385170e-01  -7.8722275e-01   2.5654207e-02  -7.4427904e-01  -2.6975875e-01   4.4492403e-01  -7.9126498e-01   1.3612982e-01   4.6800637e-01  -2.7475397e-01  -4.8293099e-02   5.2362622e-01  -8.2731978e-01   7.4105216e-01   1.1140138e-01   4.1218460e-02  -5.0826601e-01  -2.9699584e-01  -8.8682653e-01  -2.8609218e-01  -2.4621379e-01   9.6740161e-01  -5.5895951e-01   4.4293200e-02   2.5537049e-01  -1.9273539e-01  -8.8516061e-01   7.0767398e-01   3.1873190e-01  -1.3329415e-01   7.2182198e-01   5.5995163e-01  -1.0048795e-01   1.4899812e-01  -6.7043182e-01   4.2215574e-01  -3.5182417e-01   9.6393220e-02  -8.5059513e-01  -9.0988493e-01  -6.4209482e-01   9.0583233e-01   4.5344667e-01  -2.8272477e-01   6.4825697e-01   5.2725998e-01   9.4847672e-01  -9.5598034e-01   9.1228910e-01  -8.1584050e-01  -4.6818697e-01  -6.1715748e-01  -4.3675285e-01   5.2825507e-01   6.0093677e-01   5.3408788e-01  -9.7782871e-01   3.9854528e-01  -3.1044696e-01   8.5821441e-01  -1.8006751e-01  -3.7114759e-01  -8.5878327e-01  -5.4710381e-01  -2.5192918e-01  -9.5551487e-01   4.7160810e-01   7.4571315e-01   2.0613883e-01   6.2943410e-01  -6.3852200e-01  -4.2275456e-01  -8.4121755e-01  -3.6623098e-01   4.6649158e-01   5.0699161e-02  -8.2182976e-01  -2.9901395e-01  -1.4010527e-01   6.2903684e-01   7.6099909e-01   9.5109867e-01  -4.6760326e-01  -3.0775208e-01  -7.0829867e-01  -2.5143541e-01  -3.2824858e-01   3.6350011e-01   6.0281453e-01  -1.1404176e-01  -7.4536243e-01  -2.5405122e-01  -7.9772466e-01   7.6738957e-01  -6.9407780e-01   2.4722157e-01  -7.3539134e-01  -7.0117678e-02  -4.2462013e-01  -3.4057918e-01  -8.1067342e-01  -4.2031033e-01  -9.4051832e-01  -8.6780800e-01  -5.5368080e-01   9.2977216e-01   5.1798138e-01  -1.5732919e-01  -8.6411400e-01  -9.3528716e-01   8.3897996e-01   2.6604395e-01  -2.1379025e-01   5.8844154e-01  -7.8792123e-01   4.5433882e-01  -2.7767938e-01   4.1966255e-01  -2.8524121e-01  -9.0813030e-01  -9.1363746e-01  -9.1297733e-01  -5.8230821e-01  -1.1668773e-01   4.4167610e-01  -5.5546423e-01   2.8387792e-02  -5.6169886e-01  -3.5287153e-01   4.7410169e-01   1.3541506e-02   2.5090479e-01  -6.7534642e-01   9.1613563e-02   1.2304969e-01  -7.0985853e-01  -5.8399772e-01  -5.7044028e-01  -5.6310145e-01   9.0804625e-01   6.8181203e-01   6.1106112e-01  -6.8241516e-01  -4.3484189e-01  -5.9494998e-01  -1.4485150e-01  -5.5172647e-01  -5.6766905e-01  -4.2372607e-01   4.9950562e-01   8.2630827e-01   5.4340968e-01   9.3094506e-01   2.0208775e-01   1.7770512e-01  -7.2230674e-01  -6.2186003e-01   2.6555501e-01  -7.9628006e-01   6.9007280e-01   1.8842298e-01  -8.9734670e-01   7.8439813e-01  -5.2664070e-01   6.9412258e-01   7.2589718e-01   5.6583530e-01  -2.4143774e-01   9.4272224e-01  -9.5083573e-01  -2.9310317e-01  -7.9427170e-01   2.6498699e-01  -8.3302036e-01  -8.5692232e-01  -7.1322873e-01   6.1837672e-03   3.2076612e-01   4.5100057e-01  -6.9619369e-01  -7.2948271e-01   9.9673875e-01  -6.7107468e-01   8.0264764e-01  -2.1461455e-01  -4.2248647e-02   6.8834088e-01   1.0790781e-01   5.6128945e-01  -8.7284250e-01   8.6372060e-01   9.8646198e-01   3.5265360e-01  -8.9936541e-02   5.0626868e-01   4.9362430e-01  -5.0278417e-01   5.2405112e-01   9.3796629e-01   2.9324052e-01   7.9677232e-01   7.4985789e-02   6.9739983e-01   3.7772525e-01  -4.2736695e-01   3.6983555e-01  -3.2658717e-02  -1.2290529e-01  -8.7578146e-01  -8.2804434e-01  -6.6822552e-01   7.0976141e-01  -5.7878539e-01  -9.4694538e-01  -1.7719097e-01   4.8243999e-01   6.1064095e-01  -9.3226170e-01   5.4026030e-01  -7.4534223e-01  -7.0550908e-01  -6.5708958e-01   7.8294532e-01   7.7856881e-02   1.1662201e-01  -3.5787473e-02   7.2324522e-02   1.2617667e-01  -8.9923929e-01   4.5170263e-01   3.8686627e-02   2.1727141e-01  -6.6724887e-01   5.3610741e-01   1.4363784e-02   3.0564769e-01  -7.0226304e-01   7.6915973e-01   7.8067409e-01  -4.0158444e-01  -4.8423415e-01  -9.6075003e-01  -1.3865951e-01   6.3817007e-01   5.1008650e-01   9.3189545e-01   8.2368957e-02  -8.6829110e-01   1.7819776e-01  -5.8014598e-01  -8.2931031e-01  -6.7020612e-01  -4.2473054e-01  -5.7612135e-01   5.1129436e-01   7.3474075e-01   1.0051583e-01   3.1484343e-01  -8.6607419e-01  -6.5326971e-02  -4.7683141e-01  -2.2324069e-01  -7.3551381e-01   8.7565725e-01   5.7095882e-01   1.9352472e-02  -3.0248500e-01   9.5233924e-01  -9.9726966e-02   5.7552456e-01   6.3736786e-01   4.5148054e-01  -5.3839003e-01   8.2791987e-01   1.1533907e-01   5.9288444e-01   4.1236758e-01  -2.8280703e-01  -3.0502848e-01  -5.9034093e-01   7.5387934e-01  -2.0246131e-01   8.8531682e-01   2.7332466e-01  -9.7473689e-01   6.4258553e-01   1.7382575e-01  -4.6962956e-01   7.6384757e-01   6.6132931e-01  -6.8498063e-01   3.2659315e-01  -9.1276277e-01   1.7880541e-01  -7.7708104e-01   4.2470349e-01  -1.4443390e-01  -7.4678014e-01   1.2770416e-01   1.2057398e-01  -8.8733628e-01  -2.7610626e-01   1.8506976e-01   7.7113808e-01  -7.9452179e-01   4.3276508e-01  -7.5624917e-01  -5.2275941e-02   9.7490253e-02   5.5636553e-02   5.8053900e-02
   3.4519353e-01   7.7655461e-01   3.6187222e-02   6.6961705e-01  -2.6998206e-01   7.6840046e-01  -8.1864564e-02   7.1091782e-01  -1.0345169e-01   5.7280859e-01  -6.3797852e-01  -2.9340507e-01  -8.2540774e-02   5.1082760e-01  -6.9930016e-01  -4.1908432e-01   4.7408039e-01   8.4752287e-02   9.5676578e-01  -9.3503489e-01   5.3158248e-01   7.3860144e-01  -3.8521748e-01   6.0998732e-01   3.7841867e-01  -6.0481747e-01   8.8068437e-01  -8.0665508e-01   3.5898304e-01  -6.6138870e-01  -4.1662182e-01   5.7633650e-01  -9.9654871e-01   5.8070596e-01   2.2507157e-01   5.0689870e-02   2.6820683e-01  -5.1817181e-01   8.3922896e-01   7.0977922e-01   6.0834910e-01  -3.1147223e-01  -3.7381197e-01  -5.2250226e-01  -2.2578631e-01  -2.1388989e-01   1.1241142e-01  -5.1410218e-01  -9.4596543e-01   9.8410034e-01  -9.9876978e-01   3.9967211e-01   9.1371963e-01   5.2197515e-01  -5.0306703e-01   3.0947606e-01   9.9894679e-01  -2.0896414e-01  -9.4326375e-01  -1.6474875e-02  -1.6202883e-01   4.4579146e-01   8.3200049e-01   3.7318861e-01  -5.2766337e-01   4.7036974e-01  -1.7963547e-02   6.5759086e-01  -9.2960256e-01  -5.9659648e-01  -1.2382510e-01  -5.1969509e-01   2.9953279e-01   5.5897876e-01  -8.0998448e-03  -8.9060574e-01   6.9709375e-01   8.3115922e-01  -9.1405365e-01  -2.3630263e-01   2.5775948e-02   7.5144331e-01  -6.8080001e-01   3.6834117e-01  -6.1141313e-01  -3.3672300e-01   7.9434703e-01   6.1841002e-01   3.1078177e-02  -2.6620249e-02   3.1626464e-01  -9.2330194e-02   5.3115239e-01  -2.1228822e-01   7.0568742e-02   8.4296208e-02  -4.8603798e-01   9.3855869e-01  -8.7574754e-01   9.3447028e-01  -7.7743818e-01   7.7734809e-01  -2.6992773e-01  -2.4757559e-01   2.6273974e-01   5.4264018e-01  -3.5691630e-01  -6.5779362e-01  -3.1778365e-01  -3.9776374e-01  -6.1942782e-01  -2.8224993e-01  -8.3588376e-02  -2.9174737e-02   2.3032878e-01   6.1176793e-01   5.8298772e-01  -6.5854377e-01   3.6927364e-01   5.6376794e-01  -6.2694710e-01  -2.9195935e-01   6.3868142e-01  -8.6602244e-01   9.9624144e-01   4.0267032e-01   5.3182737e-01  -4.4847816e-01  -6.1777602e-01   6.3239828e-01  -6.0382684e-02   2.5805778e-01  -6.5428125e-01  -2.1636448e-01  -4.1829089e-01   7.4435139e-01  -4.0092985e-02  -9.4512989e-01  -2.1216995e-01  -3.6143847e-01  -5.6201854e-01  -4.3873834e-01   1.3407551e-01  -7.3391820e-01   6.3267777e-01  -3.6893617e-01  -9.9650000e-01  -8.3169010e-01   8.0570683e-01  -6.1892411e-01  -6.1251990e-02   8.6793988e-01   6.9372234e-01  -5.8748184e-01  -8.2869413e-01  -5.2852407e-01  -1.5947360e-02  -5.4313372e-01   7.2603349e-01   5.2539067e-01  -7.0466425e-01  -6.6500980e-01   7.5961340e-01  -7.1493109e-01   9.4688290e-01   6.7046227e-01  -5.5360737e-02  -6.5258823e-01  -2.7294218e-01  -5.1191834e-01  -1.0017449e-01  -9.8502094e-01   4.4946703e-01   5.4968151e-01  -5.2089954e-01   1.6844899e-01  -3.5212029e-01   5.6155950e-01  -5.4114004e-01  -1.6988943e-01   7.4661269e-01  -7.0255888e-01  -7.5207278e-01   2.5596471e-01   9.0505681e-01  -6.4180400e-01  -1.4121835e-01   4.8076319e-01  -8.1445081e-01  -1.9430294e-01   5.1572736e-01   8.8267578e-01   9.2615967e-01   4.9422261e-01   9.4399721e-01   4.7061990e-01   3.9930740e-01  -1.4024656e-01   4.3053533e-01   9.2255874e-01  -6.6646952e-01  -9.2565738e-01   9.3370489e-01   6.9057292e-01  -7.8576471e-01  -3.5420794e-01   9.5716662e-01   5.5376008e-01   4.5432242e-01   7.6872144e-01   1.8559663e-01   2.6643377e-02   4.1760883e-01  -7.0347361e-01   7.9624444e-02   2.4833511e-01   4.3088217e-01  -4.9153372e-01  -7.2852379e-01  -8.0717024e-01  -4.7071829e-01   1.4326776e-01  -5.1176889e-01  -6.2705267e-01  -3.7481601e-01  -8.2356802e-01  -8.5766018e-01   6.6349272e-01   3.7987629e-01  -6.9962616e-01  -7.1344118e-01   6.4347342e-02   5.0052493e-01  -8.9542432e-01   5.9049835e-01  -1.0995597e-01   6.6307949e-01   2.9350131e-01  -3.0415411e-01   7.8708685e-01  -6.7788301e-01   7.2653841e-01  -9.7125456e-01  -4.0372161e-01   1.9612506e-01   6.9494374e-01   7.2127590e-01  -8.0799618e-01   5.4626886e-01   3.2498462e-02   3.9575565e-01  -8.6229803e-01   3.3221335e-01  -8.9417685e-01   8.9716794e-01   4.1396879e-01   1.0004992e-01   8.9050035e-02  -4.0155996e-05   5.8585303e-01  -5.6643895e-01   7.3681306e-01   4.2601805e-01  -9.7456402e-01   1.5136481e-01   3.8039943e-01  -7.9586773e-01   8.8399624e-01   8.1331829e-01  -2.5847141e-01   3.2233409e-01   3.5995060e-01   8.7341680e-01  -6.2702375e-01   2.1879282e-01   3.5123724e-01  -9.5562612e-02  -4.9774281e-01  -4.7268405e-01  -6.5182212e-01  -2.7743241e-01   8.2033596e-01   3.1654110e-01   3.1762813e-01  -9.6750359e-02   7.1620851e-01  -6.4542526e-01   5.1032004e-01  -3.7403728e-01  -9.1045876e-01  -1.7880787e-01   5.0657633e-01  -6.4064119e-01  -4.5383465e-01   1.2714636e-01  -7.9032977e-01   1.8497135e-01  -3.0870028e-01  -9.9150995e-01  -9.9796747e-01   1.2641926e-01  -3.4205997e-01   8.9509132e-01   9.8383955e-01  -9.3848177e-01  -3.4815689e-01   8.5134374e-01   7.9349580e-02   3.1163220e-01   8.0148124e-01  -4.7001415e-01  -9.0063815e-01   2.8512649e-01  -8.6689433e-02   5.3767652e-01  -5.3484353e-01   2.6469509e-01  -8.0337464e-02   2.7778277e-01   3.7245222e-01  -7.3864584e-01   4.2707998e-01  -3.8962516e-01  -9.4967733e-01   7.0297356e-01  -3.5407033e-01   9.8116369e-01  -3.0010731e-01  -9.9581603e-01  -3.9975779e-01   8.8587498e-01   6.9547404e-01   4.3007165e-01  -3.2202497e-02   9.9877076e-01  -7.6378952e-02   7.5834002e-01  -9.2158028e-01  -9.2633359e-01   9.4192126e-01   8.6655070e-01  -9.1362192e-01  -6.7519595e-01   5.4447010e-01  -3.4609074e-01  -7.8872147e-01  -3.4075146e-01   6.2383074e-01  -2.7585471e-01  -4.6756739e-01   5.8381431e-01   4.5941114e-01   6.1242393e-01  -5.6847233e-01  -4.5484120e-01  -3.2198979e-01   9.1669668e-01   6.3686562e-02   2.2385032e-01   4.4463986e-01  -3.1373167e-01   3.0522719e-01   6.9994019e-01  -1.3986871e-02   8.1967591e-02   9.1304453e-01   4.6124709e-01  -6.0568764e-01  -1.2110043e-01   5.5255059e-01  -7.7154822e-01   7.8582020e-01   2.9089412e-02  -1.3168061e-01   9.6223702e-01  -4.0473641e-01   1.8541470e-01   7.4100708e-01   3.9320228e-01  -2.9266398e-01  -9.6570432e-01  -2.5150942e-01   9.2179320e-01  -5.7503661e-01   6.4337269e-01   3.0769516e-01   8.0815309e-01   8.3601752e-01  -6.0917039e-01   3.8580855e-01  -9.8363424e-01  -8.5789346e-02   2.8669899e-01   6.7262328e-01  -4.5700662e-01   6.2088015e-01  -8.3844487e-01  -8.5419077e-01   2.7511011e-01   2.1689723e-01  -1.1282616e-01   4.4187130e-01   5.6255979e-01  -4.6314961e-03  -1.6073343e-01   8.6078222e-01   3.8679792e-01   5.2491474e-01   3.9711942e-02   4.2706498e-01  -6.2241056e-01   5.7151164e-01   3.8765528e-01  -8.8298847e-01   6.0223594e-01   1.0188279e-01   2.5578333e-01  -8.0048259e-01   8.3032324e-01  -4.4464675e-01  -6.4016164e-01  -9.2788854e-01  -2.5776540e-01  -7.8635111e-01  -9.6598333e-01   9.7247215e-02  -3.2130720e-01   6.0848689e-01   9.5912208e-02  -3.1029617e-01  -4.5097780e-01   6.0867561e-01  -1.4588518e-01   2.0827347e-01  -4.4486694e-01  -1.1206036e-01   4.3677922e-01  -3.1227232e-01  -9.3819331e-01   9.5273227e-01   4.0761594e-02   9.6166406e-01  -6.3929289e-01   7.8157904e-01   8.0575472e-01   8.6813871e-01   1.3311309e-01  -1.8962409e-01   7.2188326e-02   6.3694450e-01   8.0228946e-01   5.0974046e-01  -4.7686521e-01   9.3763281e-01   1.8340029e-01  -1.1052754e-01  -4.9578915e-01   3.2260198e-01   8.1634362e-01   4.4400501e-01  -9.7236912e-01   4.8091251e-01  -6.8724527e-01  -3.8941049e-01  -2.9530993e-01  -5.8085033e-01   2.3377232e-01   9.0690935e-01  -7.4931815e-01   8.5130952e-01   5.5471830e-01   4.4984519e-01   1.2207560e-01   9.5480203e-01   3.8698191e-01   8.8260266e-01   9.0723930e-01   1.7624863e-01   6.2896308e-01  -4.3454485e-01  -2.9351904e-01  -1.1314692e-01  -4.9072471e-01  -3.3941224e-01   8.4805855e-02   8.1051228e-01  -7.5312590e-01   2.7579309e-02  -3.9757312e-01   1.9392896e-01   8.1445434e-01   3.8765760e-01   4.5155770e-01   5.3757714e-02   1.0210632e-01   8.5138013e-01   8.0561644e-01  -1.0143247e-02   8.6239786e-01  -7.1974898e-01  -9.5857904e-01   8.3839093e-01  -2.7156313e-01   5.0878557e-01  -9.9478082e-01   3.0286759e-01  -7.6626714e-01  -5.1017317e-01   8.6662333e-01   2.5145934e-01   2.9352511e-01  -5.2475644e-01   9.1096060e-01   2.0734313e-01  -2.5809283e-01   7.7016310e-01  -2.1636637e-01  -1.5643351e-01   7.7714756e-01  -4.0354075e-01   4.9301844e-02  -8.5251133e-01   7.9018969e-01  -5.8158184e-01   5.0978621e-02  -1.0612497e-01  -2.2643900e-01   3.4855643e-01  -1.2153951e-01   4.9531691e-01  -2.2319897e-01   5.2019879e-01   7.9392168e-01   3.1621673e-01  -3.9072922e-01   1.8715611e-02   4.4365655e-01  -7.5828957e-01   5.7845113e-01  -8.3789287e-01   6.0117240e-01   7.0733006e-01  -2.7120055e-01  -1.3358948e-01  -4.5590126e-01   6.5843981e-01   7.0539298e-01  -5.9919973e-02  -4.5645587e-01   5.8136571e-01   3.6023851e-01   7.5972827e-02  -3.7459495e-01   9.7973307e-01  -7.5150657e-01   5.0928051e-01  -9.6905585e-01   8.5425837e-02   3.1446603e-01   6.2750771e-01  -5.7882380e-01   5.3981859e-01  -9.0523133e-02  -7.4955811e-01  -5.2671917e-01   3.2777906e-01   8.7215525e-01   7.1065320e-02   8.6557464e-01   8.4299936e-01  -2.6546709e-02   8.0029068e-01   3.7514630e-01   4.5124088e-02  -2.1400996e-01   7.4569129e-02  -5.6487544e-01  -2.5584885e-01   9.8629285e-03  -2.7442022e-01  -4.6031366e-01   1.3011475e-01  -5.9670680e-01  -7.5753645e-01  -7.3209785e-01  -8.5944718e-01   7.4442679e-01   4.1607501e-01  -6.3731743e-01  -2.1074693e-01  -1.2931501e-01  -4.8405941e-01   3.2959217e-02  -8.0661623e-01  -3.2876554e-01  -5.2857750e-02   4.2854348e-01   5.2795333e-01   3.4754336e-01  -5.0419385e-01   4.0277766e-01   9.1247557e-01   8.0710617e-01  -7.5019453e-01  -5.0481559e-01   7.5003642e-02   7.7006351e-01   7.3712866e-01   5.5847880e-01  -8.4824922e-01   8.3909137e-01   8.7844628e-01   7.3544929e-03   2.9968728e-01  -5.3627440e-01  -9.1914499e-01  -9.8638279e-01  -3.4774777e-01  -1.4017398e-02  -3.2896171e-01  -5.1610484e-02  -8.0915156e-01  -9.3247109e-01  -3.6752565e-01   6.0375461e-01  -1.3732665e-01   4.5396146e-01   9.9320414e-01   9.1644507e-01  -3.8505324e-01  -4.5870161e-01   7.9258067e-01  -7.9705489e-01   2.9758966e-01   3.0583040e-01   9.5103208e-01  -7.9081307e-01   4.4649411e-01  -3.4527405e-01  -9.6242310e-01  -5.0350293e-01  -6.4490242e-01   9.3838144e-01  -9.0084626e-01  -6.4951715e-01  -3.3084491e-01   3.5480398e-01  -3.6128150e-02   6.1386818e-01  -1.0329953e-01   9.6258065e-02   9.5657789e-01   3.9104292e-01   2.8021131e-01   4.0494731e-01   9.8623395e-01   5.1570268e-01  -6.1447606e-01  -1.6703879e-01   4.9418274e-01  -5.4176158e-01   1.1373686e-01  -1.9943743e-01   7.2501015e-01   4.3655388e-01  -4.7695347e-01   2.8865050e-01   7.4817668e-01  -8.9255658e-01  -9.4906084e-01   8.1637050e-01   6.5816915e-02   8.3579635e-01   5.1784787e-01   2.8939864e-01  -5.0722102e-01   4.4288414e-01  -7.7461592e-01  -5.2532008e-01  -9.6941862e-02   5.5202861e-01  -4.3740384e-01   4.5535942e-01  -4.3630434e-01   3.4210573e-01  -7.5296646e-01  -1.7828902e-02  -3.8999741e-01  -9.2046704e-01  -5.3877716e-01  -6.5519214e-01   6.3313226e-01  -3.2984520e-01   4.8782282e-01   7.4811622e-01  -5.0836057e-01   5.4371252e-01   3.8558829e-01   3.9766937e-01   9.5033382e-01  -9.1848085e-01  -1.7356220e-02  -2.6821676e-01  -4.3621158e-01   7.6086869e-01   7.2495012e-01   7.5096603e-01  -7.7082222e-03  -9.0977681e-02  -7.0155893e-01   6.6607152e-01  -3.1605364e-01  -9.2222265e-02   4.2117651e-01  -5.6714088e-02  -9.8388478e-02   2.3705584e-01   6.1415264e-01  -1.9657284e-01  -3.2043912e-01   8.0121848e-01  -4.4836102e-02  -1.9966821e-01   1.8315214e-02   5.0302715e-01  -2.8603474e-01   9.7908499e-02  -6.9612613e-01  -2.6073566e-01   3.9223925e-02   4.5757675e-01  -8.4923260e-01  -7.2123010e-01   8.1889272e-01  -7.1184326e-01  -2.2157091e-02   8.3325552e-01   7.8036306e-01  -6.4218448e-01  -5.2476071e-02   9.4950755e-01   3.4457962e-01  -2.2235459e-01  -3.4236133e-01  -3.1795514e-01  -7.9902898e-01   4.7751053e-01  -6.7605747e-01   1.2205479e-01  -9.7431461e-02   9.1886857e-01  -3.1127015e-01  -5.0818780e-01   4.6047931e-03   1.7337810e-01   7.6319137e-01   1.2364999e-01  -9.5511164e-01  -1.1584109e-01   9.6042062e-01  -8.5504876e-02   6.8474151e-01   3.2240737e-01   9.7318637e-01  -2.9356001e-01   3.1067049e-01  -5.4392707e-01   5.8255445e-01   2.7843547e-01  -5.2651528e-01  -3.4425808e-01   3.0305595e-01  -7.0067688e-01  -1.9058492e-01   4.9673941e-01  -5.6784343e-01   5.1527724e-01  -3.8168584e-01  -3.4968100e-01  -1.4327869e-01  -5.0493935e-01  -9.4540619e-01   8.0268881e-01   8.0219611e-01  -4.4910335e-01   6.4050074e-01  -2.6466428e-01  -6.4351247e-02   6.2169647e-01   7.3786564e-01   1.8395894e-01   4.8606678e-01   4.1264163e-01  -6.3800072e-01   7.4599421e-01  -5.1129964e-01   9.7321152e-01  -5.6983877e-01  -9.4565146e-01   6.7734361e-01  -8.1547520e-02   8.3755555e-01   6.9906069e-01   6.7857255e-01   8.9884349e-01  -9.3613043e-01  -1.7943983e-01  -7.7188468e-01  -5.6874446e-01   5.2041463e-01  -3.8010895e-02  -6.9988700e-01   8.0019248e-01   1.9577240e-01   3.2755969e-02   2.3510807e-02  -2.0700799e-01  -5.0476009e-01   7.4697252e-01   8.1721195e-01  -6.7562060e-01  -5.3662589e-01  -4.8610017e-01  -3.7472779e-01  -6.2442395e-01   5.4692008e-01  -6.9220570e-01   6.4357102e-01  -4.7614574e-01   5.6627941e-01  -6.0431363e-01  -5.9857279e-01   3.3894992e-01   1.5690207e-01   8.2928515e-01   4.5645962e-01   2.2984830e-01  -2.2085295e-01  -7.9692815e-01  -5.1823304e-01  -8.0970269e-01  -4.6991419e-01  -7.7585536e-01  -1.1787541e-01  -8.3236209e-01   5.4465990e-01  -6.6893111e-01  -1.0973263e-01   5.0672661e-01  -3.7305694e-01  -9.7248248e-01  -9.8818034e-01   2.3597568e-01   3.7432725e-01   9.5720705e-01   5.3978719e-01   7.0049401e-01   6.0213224e-01   6.1001753e-01  -9.4788650e-01   5.2799643e-01  -3.5277964e-01   7.0467737e-01  -9.7474679e-01  -6.3009004e-02   8.7426335e-01  -7.3791314e-01  -6.3780236e-01  -8.5993070e-01   4.9261216e-01  -3.0909992e-01   3.6764862e-01  -7.7096308e-01   1.9662328e-02   2.6840265e-01   7.8037774e-01  -2.1542799e-01   8.3420105e-01  -7.3116908e-01   5.1164817e-02  -3.4011729e-01  -7.5729465e-01  -6.7857047e-01  -7.8972953e-02   4.2985922e-01   1.1463167e-01   7.5243845e-01   6.9778431e-01   7.9936943e-01  -5.6278121e-01  -1.4504645e-01  -5.2281249e-01  -6.0515197e-01  -4.7210064e-01   7.4537763e-02  -1.5252709e-02   7.1107454e-02  -5.9605104e-01  -1.8993631e-01   7.3229147e-01   3.2502864e-02   5.9764221e-01  -9.4031432e-01  -3.4623493e-01   2.1978049e-01  -8.1220530e-01  -1.5992387e-01  -9.3019058e-01   2.0917041e-01   2.6073133e-01  -9.5937646e-01  -4.8113871e-01  -4.8879184e-01   6.5345487e-01   1.6746052e-01   7.8176114e-01  -5.8781735e-01   7.4237753e-01  -8.6652011e-01   6.0114775e-02  -3.0814589e-01   4.9666193e-01   1.3267627e-01  -1.9206272e-02  -5.1095345e-02   1.9799451e-01  -6.7490252e-01   6.0214129e-01   8.8841112e-01   1.3614406e-01  -4.0126202e-01   1.2647015e-01  -3.1230146e-01  -7.9828990e-01  -6.1946683e-01   9.2437220e-01  -1.5201498e-01  -8.8287948e-01  -6.7655571e-01  -7.1941392e-01   3.2983692e-01   7.2955517e-01  -8.4094990e-01   8.0997853e-01  -5.7711085e-01   7.2897583e-02   9.6782766e-02   5.5091093e-02   5.6054513e-02  -3.9773284e-01   6.5774763e-01   4.2168046e-01   5.2030276e-02   5.7193951e-01  -4.8386917e-01  -6.8944065e-01   2.1860786e-02   7.6148598e-01   1.9882748e-01  -9.9773790e-01   9.5672561e-01   4.0945105e-01   4.5176371e-01   8.4114703e-01   8.9139506e-01  -1.8259180e-01   3.5757378e-01   4.7001848e-01   6.0431536e-02   3.5163870e-01  -3.5266178e-01   7.6853280e-01  -3.6890094e-01  -4.9750518e-01  -9.2612661e-01   3.4873642e-01   2.9106489e-01  -7.1129233e-01   9.6254263e-01  -6.3963145e-01   3.4128090e-01  -6.7049499e-01  -5.3278738e-01   4.6250431e-01  -6.6362693e-01  -9.3437319e-01   6.2338402e-01   1.5511296e-01  -3.6856464e-01   9.0115555e-01  -4.2812900e-01  -7.1465700e-01   3.2902798e-02  -5.6078598e-01   9.4177460e-01   1.8624305e-01   2.7310753e-01  -4.6774439e-01  -8.0134988e-02   8.8440232e-01
