  -5.8250197e-01  -7.9625168e-01  -6.0099276e-01  -4.1346743e-01   9.7904714e-01   4.5940309e-01   6.6802181e-01   2.2580722e-01  -4.7548054e-01  -9.2783095e-01   8.1641559e-01   9.0752133e-01  -8.8617307e-01  -3.0625729e-01  -1.3366304e-01   1.1684388e-01  -2.4347015e-01  -8.1080009e-01  -4.7898065e-01   1.3587763e-02  -3.3935697e-01  -5.3398752e-01  -1.1469115e-02  -1.8480688e-01   6.0333854e-01   9.5884884e-01   9.4421271e-01   2.9702386e-01   9.8159118e-01   1.5508398e-01   8.9272108e-01  -9.8688780e-01  -8.0465426e-01  -5.0003355e-01  -4.1805996e-01  -8.1182818e-01  -4.9428160e-01   5.0942178e-01  -7.8729262e-01  -6.2895639e-01   2.0434712e-01  -9.3178507e-01   9.0623542e-01  -1.0884947e-01  -7.4675813e-01   4.7896432e-01  -3.2287879e-02  -1.6183424e-01   2.6744364e-01   7.9650094e-02   9.4484891e-01  -1.6913384e-01   7.8032519e-01   5.1577159e-01   4.5021675e-01   3.5914442e-01  -1.4888313e-01  -1.0997177e-01  -1.4795399e-01   4.3741633e-01  -8.8745859e-02   3.3111979e-01  -7.2049693e-01   3.2250060e-01  -9.3194111e-01  -3.7788428e-02   5.3720643e-01   6.2571162e-01   1.9335606e-01   7.1217959e-01  -8.6804818e-01  -1.6920540e-01   4.7049050e-01  -6.2295263e-01  -5.7242105e-02  -3.8871449e-01   6.8771884e-02  -7.3425070e-01  -8.8927757e-01  -4.2825181e-01   2.3760401e-02  -2.5536004e-01  -7.0107632e-01   3.3345061e-01  -2.9578516e-01  -7.8087984e-01  -6.1900124e-02  -9.6725197e-01   2.7609515e-01  -5.3035664e-01  -3.6641840e-01  -1.8850364e-01  -1.9019785e-02  -8.3268136e-01  -7.4206360e-01  -7.8513875e-01  -8.9494642e-02   9.2214936e-01   6.6332518e-01  -4.5161776e-01   6.5892151e-01  -2.6979606e-01   8.3217499e-01  -6.3202920e-01  -5.7453554e-01  -6.6608305e-01  -1.0285154e-01  -8.8737002e-01  -3.5809743e-01   2.7316456e-01  -9.2819509e-01   3.5848453e-01  -2.4860784e-01  -3.2783724e-01  -8.3067262e-01   7.8711917e-01  -2.2941841e-01  -9.4115600e-01  -9.6123049e-02   3.4852461e-01  -7.6171533e-01  -1.6156348e-02   2.2596981e-01   2.3526147e-01  -6.0449676e-01   5.1093620e-01   8.7772294e-01   6.4869098e-01   9.7216673e-01  -1.1261586e-01  -4.2603638e-01   1.0944653e-01   2.1727235e-01   5.1344851e-02   2.4582043e-01   9.8285489e-01  -5.3719842e-01  -5.6949799e-01   6.6297976e-01  -3.9235039e-01   7.2937092e-01   5.0815228e-01  -3.3944692e-01   8.2519391e-01  -8.6606416e-01  -3.4625083e-01   7.4289200e-01   2.1000429e-01   1.5111298e-01   1.9312993e-01   5.5863934e-01  -4.7497702e-01  -5.4834197e-02  -7.8343417e-01  -7.1358048e-01   1.7458015e-01   4.6086825e-01   8.6090433e-01  -5.3219705e-01   6.0927140e-01  -7.6231082e-02  -6.4012023e-01   9.2575640e-01  -8.2250619e-01   1.7801532e-01  -8.6734866e-01   4.9751243e-02   9.2614858e-01  -3.1846091e-01   5.3234755e-01  -4.1371273e-01  -7.6193145e-01   9.8995016e-01   2.0327295e-01  -2.4492244e-01   4.0555246e-02  -9.6798056e-01   5.6103121e-01   7.6122765e-01  -4.9912354e-01   9.0356675e-01   7.6031411e-01   6.9516207e-01   1.3924168e-01  -1.6558097e-01   9.7795574e-01   1.1391727e-01  -4.3554639e-01   8.5804488e-01  -6.0354691e-01  -7.2769623e-02   8.7785160e-01  -9.0013528e-01   5.3911998e-01  -2.6726422e-01  -5.2259493e-01   5.5983064e-01   3.5410162e-01   1.1985304e-02  -4.3734070e-01   1.1227465e-01   9.1003237e-01  -1.2676066e-01  -4.8880139e-01  -8.5542675e-01  -8.7175115e-01  -5.3001832e-01  -9.5520679e-01   2.6302112e-01   1.6924660e-01   9.4913173e-01  -1.9304855e-01   9.0633241e-01   5.8979859e-01   9.3502455e-01  -6.8565272e-01  -5.2091834e-01   5.6614910e-01   8.4625379e-01   4.0149779e-01   9.3822196e-01   7.5007967e-01   4.0920054e-01   1.1261298e-02   4.2695019e-02  -4.2860676e-01  -2.9942649e-01   8.2383073e-01  -6.5661964e-02   2.8954873e-01  -2.8853791e-01   1.5535028e-01   7.1005296e-01   2.7007314e-01  -5.9433650e-01  -5.6610584e-01   3.1771557e-01   6.5776485e-01  -2.1552495e-01  -6.3117323e-01  -8.7867406e-01   2.6925485e-01   2.4226173e-01  -4.0867312e-01   5.6370264e-01   1.2248374e-01  -1.5128709e-01   6.1929218e-01   5.5728192e-01  -3.4025924e-02   8.7073847e-01  -9.1911371e-01   5.5727288e-01   8.5481966e-02   5.0576099e-01  -3.7876192e-01  -5.6673191e-01  -2.5243336e-01   4.7925044e-01   1.3380568e-01  -9.1263185e-01  -4.3512994e-01   1.9627776e-01  -3.4621842e-01  -9.6946558e-01   5.1904281e-01  -3.2337849e-01  -8.2391900e-02  -2.6251071e-01  -1.2632539e-01  -4.6780365e-01   3.6090575e-01  -2.1040199e-01   6.3964640e-01   7.1374783e-01   9.8270664e-01   2.4088252e-01   5.8405985e-01  -8.8306269e-01  -9.7919062e-01   8.9759468e-01   3.3557784e-02   1.0009428e-01  -4.7812450e-01  -8.2425980e-01   8.5218544e-01  -3.0381112e-01   6.2295310e-01   9.3706881e-01   8.2005996e-01   9.2401934e-01   6.4099986e-01  -9.1921055e-01   6.2436062e-01   6.0000674e-01  -8.6730909e-01  -8.4871328e-01  -5.4341399e-02  -9.0548765e-01   4.2655268e-01  -4.9879459e-01   7.2483397e-01  -4.8559378e-03   1.0293735e-01  -8.1782592e-01   7.1704832e-01   3.3555961e-01   5.1519615e-01  -7.0251290e-01   3.0219540e-01   5.9299037e-01   4.8857318e-01   7.3980792e-01   4.5493460e-02  -3.3394441e-01  -6.2102622e-01   8.6002298e-01   8.2634144e-01  -4.0060093e-01   6.4300906e-01  -6.1097618e-01   3.0051621e-01   2.5274559e-01   4.4628483e-01   3.4442778e-01  -7.0662535e-01   4.4508485e-01  -7.9985116e-01  -8.3162881e-04   3.3616178e-01  -5.9764050e-01   7.5456751e-01  -2.3165869e-01  -6.8467234e-01  -5.8033253e-01   5.1957420e-02  -5.7211074e-01  -5.7836308e-01   3.0177089e-01   4.8867948e-01  -3.6095142e-01  -9.8183638e-01  -5.2732009e-02   6.5151166e-02   1.5630456e-01   4.1164400e-02   9.3579185e-01  -2.1544902e-01   7.6551565e-01   1.1343228e-01   7.1166417e-01  -5.4315295e-01   3.6299065e-02  -5.7524084e-01  -1.5067460e-01   4.5446329e-01   4.7064803e-01   4.7170852e-01   1.7423183e-01   4.1821237e-01  -3.6179373e-01   5.8785331e-01  -4.0668519e-01   1.5312130e-01  -5.7814467e-01   9.1901896e-01   8.7519525e-01  -2.1752267e-01   5.2384693e-01  -6.7150941e-01  -1.4849366e-01  -2.7617194e-02   6.5219239e-01  -9.4706208e-02   5.6563762e-01   1.1003604e-01   4.8928480e-01   2.0591645e-02  -4.8189491e-01  -2.3105554e-02   1.9428524e-01   4.2505977e-02  -1.3749700e-02  -3.4696927e-01  -4.7294373e-01   5.5545193e-01   9.6118442e-01  -6.1965120e-01   8.7010512e-01  -4.7849167e-01   3.9279038e-01  -6.5836459e-01  -2.8257296e-02  -6.8948106e-01   9.6171294e-02  -6.0958838e-01  -3.2613068e-01   6.9502352e-02  -9.3774216e-01  -3.1973169e-02  -1.4458507e-01   8.6951479e-01   4.4065359e-01  -5.3632702e-01   2.6826624e-01   6.0704552e-01   3.2420916e-01   9.4409761e-01  -7.1575556e-01  -1.4338202e-01   2.2163645e-01   7.9787017e-01  -2.0894867e-01   9.9486153e-01   9.0568978e-01   4.1329789e-01  -3.2325102e-01  -1.7585298e-01  -7.8014115e-01  -5.3998697e-01   8.6854496e-01   7.1033053e-01  -4.0923104e-01  -5.8810206e-01   8.8412658e-01  -3.9981193e-01   7.8020266e-01  -6.5072386e-01  -2.0874611e-01  -5.0953588e-01  -9.7578829e-01  -2.9742896e-01  -5.7502931e-01  -9.7912622e-01   8.8510214e-01  -1.2761384e-01  -6.6165123e-01   5.0635509e-01   4.2401377e-01   2.9255933e-01   6.8479540e-01  -7.4094193e-01  -5.2113970e-01  -5.0760192e-01   8.5814230e-01  -6.3355808e-01   2.0015170e-01  -1.4166056e-04  -4.9107609e-01   3.3157885e-01  -8.8972184e-01  -7.1743278e-01   8.9721691e-01   8.1291017e-01  -3.9333532e-01   3.7699298e-01   7.7526362e-01  -4.9800554e-01  -3.1164595e-01   9.6931418e-01  -2.1715678e-01   1.7902218e-01  -7.5122671e-01  -4.5160885e-03   3.6101271e-01  -5.5779749e-01   1.9193143e-01   7.6929948e-01  -8.8509977e-01   4.3934254e-01   9.9666271e-01   4.8056323e-01  -2.8720658e-01   9.7976428e-01  -7.5698904e-01   1.0638110e-01   2.4828051e-01   8.1864510e-01   9.2856796e-01   9.8375984e-01   3.7404805e-01  -5.9006325e-01   6.9427828e-01  -9.5654230e-01   7.2647790e-02   5.0510395e-01   9.2054444e-01  -2.1216188e-01   4.7287779e-01  -2.3962837e-01  -4.8979182e-01   8.6850085e-01   3.7524960e-01  -2.7424713e-01  -3.8618516e-01   7.6638887e-01   1.1352440e-01  -2.4834079e-01  -2.8278494e-01   1.7067545e-01  -9.4355160e-01   6.9629036e-02  -7.2518720e-01  -8.5567039e-01   8.4923834e-01   5.3254291e-01  -4.6443181e-01   7.2616679e-01  -4.6921048e-01   7.4119717e-01   7.8803657e-01  -6.7205363e-01  -6.2583045e-01  -8.8225770e-01  -3.6836920e-01  -7.2337432e-01  -6.1775464e-01   4.9343950e-02   4.0126605e-02  -8.4846004e-01  -2.2966586e-01  -4.4404873e-01   2.7304323e-01   8.3278553e-01  -8.4980866e-02   3.0479692e-01   5.4293925e-01   1.3482500e-01  -6.0039904e-01  -5.3742750e-01   7.3731739e-01  -1.4317601e-01  -5.3144740e-01  -8.1764915e-01   1.2436391e-01  -3.5915107e-01  -6.7700909e-01  -7.0829875e-01  -3.4721867e-01  -7.7438787e-01  -4.8304688e-01  -9.4557907e-02  -6.4982662e-01  -6.6947258e-01   4.9375291e-01  -5.4082792e-01   5.8008637e-01  -8.4390484e-01   1.3115129e-01  -9.3879967e-01   8.3983896e-01  -7.1780264e-01  -7.3146413e-01  -6.0361855e-01  -7.6039125e-02  -3.7265477e-01   3.6931048e-01  -6.3678472e-01   7.6411978e-01   1.8069738e-01  -9.3211290e-01  -4.3092577e-01  -1.1200611e-01  -7.9458528e-01  -2.8844328e-01   3.2366483e-01   4.5128147e-01   1.4437990e-01   4.7988630e-01  -6.6167436e-01  -5.6942117e-01   7.5920840e-01   6.4529822e-02  -9.6246104e-01  -6.0115247e-01  -2.9402614e-01   6.7398812e-01  -7.3689015e-01  -1.4006336e-01   6.5941639e-01  -7.1889836e-01   5.9206784e-01   3.0791235e-01  -2.3585384e-01   1.5775120e-01  -2.0684387e-01  -2.1568293e-01   8.6648648e-01  -9.2016569e-02  -6.5708032e-01  -7.4851453e-01  -6.5524274e-01  -9.8850618e-01  -3.9099825e-01  -2.3239703e-01  -1.4837899e-01   1.2554713e-01   5.6707643e-01   3.3209349e-01  -8.9863705e-02  -1.1927820e-01  -6.1722230e-01  -1.9791903e-01  -3.5011728e-01   1.6336604e-01  -3.7493526e-01   4.6999721e-01   5.4892120e-01   9.7525580e-01   2.0704740e-02   2.6470352e-01   3.1241972e-01  -7.1242335e-01  -5.7228704e-01   4.4347449e-03  -7.9458822e-02  -7.8060091e-01  -7.8006461e-01   9.1092304e-01   6.8046552e-01  -4.1703090e-02   8.2331374e-01   1.1524987e-01  -2.8903472e-01   8.5773978e-01   4.6774328e-01   2.4844256e-01  -4.9428134e-01   2.9102952e-01   8.2153703e-01  -8.7533943e-02  -7.4725422e-01  -7.4301914e-01  -4.7690360e-01   3.1958322e-01  -8.1917593e-01   4.0778912e-01   8.5373820e-01  -8.5722678e-02   3.5759594e-01  -1.8281549e-01   4.3917855e-01   2.9821587e-01   1.9276243e-01   7.0645151e-01  -6.1034312e-01  -9.8359442e-02   8.8724274e-01   7.6512724e-01  -2.5873234e-03   7.2161390e-01  -3.0048412e-02  -7.6585111e-01   1.4984971e-02  -7.2458907e-01   3.3841335e-01  -1.3003051e-01  -3.4679953e-03   7.4824304e-01   4.5671876e-01   7.6982728e-01  -9.9011659e-01   5.4921659e-02  -4.4559414e-01   8.3196731e-02   1.6592989e-01   3.9206739e-01  -4.5812933e-01  -9.8633850e-01   4.7843394e-01   2.5025522e-01  -6.8775573e-01   9.8058667e-01   6.9731133e-01   7.8480540e-01   4.4655498e-01  -3.9138986e-02   7.3277386e-01  -4.8080717e-01  -7.6401536e-01  -8.3757521e-01   4.0559356e-01   4.9519625e-01   1.0209602e-01   1.1542261e-01   1.0747450e-01  -9.6303841e-01  -7.3931989e-01  -1.0492146e-01   2.2165373e-01  -8.7786622e-01   3.7060842e-01   1.9290299e-01  -3.3755629e-01   7.0873738e-01   6.5299745e-01   6.2422058e-01   9.0968134e-01  -7.5591377e-02   3.3689221e-01  -6.1118243e-01  -8.4044162e-01   9.0671856e-02   1.6359027e-01  -2.1019117e-01   1.7887136e-01   9.6355392e-01  -4.3507035e-02  -4.2358150e-01  -5.7940467e-01   1.5487385e-01   2.1354093e-01  -3.0531198e-01  -9.5815196e-01  -8.1428859e-01   8.3289990e-01   3.2745449e-01   9.4173301e-01  -3.9725918e-01   7.4641822e-01   2.9888838e-01  -8.7509671e-01  -6.1541193e-01  -1.2561254e-01   5.0551273e-01   5.8946152e-01  -2.6789261e-01   2.9517031e-01   4.0470635e-01  -1.2056252e-01   2.2959009e-01  -9.1793761e-02  -4.6139140e-01   7.8552139e-01  -5.8496855e-01  -8.6225680e-01  -6.6443101e-01  -4.6419999e-02  -6.0479646e-02  -2.0108732e-01   6.8677775e-01  -5.5960070e-01   8.6927122e-01   3.2608409e-01  -8.5833170e-01   2.3522732e-01  -1.2610158e-01  -9.5107474e-01  -9.3919722e-01   6.8393031e-01   3.1420004e-01   5.0908864e-01  -5.4073233e-01  -7.8314570e-02  -6.1707945e-01   2.6881413e-01   3.5837953e-01  -9.5458184e-01   7.4769662e-01   8.1523968e-02   9.4626760e-01  -8.7057829e-01   6.6359945e-02   6.0723715e-01  -1.6404177e-01  -3.8103964e-01  -9.8607767e-01   1.9489453e-01  -1.1088411e-01   9.8409354e-01  -5.3405839e-01  -4.0926065e-01  -7.8788337e-01  -8.9344175e-01  -6.2230457e-04  -9.8569816e-01  -7.7322751e-01  -6.8443579e-01  -5.2122859e-01  -2.4307969e-01  -4.9108217e-01   2.4427162e-01  -6.6640053e-01   2.9305606e-02   3.8853797e-01   4.0117341e-01   4.7530397e-01   4.9396923e-01  -5.1213184e-02   7.5888792e-01  -2.8336012e-01  -4.8503486e-01   8.2939674e-01  -7.7998525e-01   2.5843286e-01  -4.9114468e-01   5.0859411e-01  -4.7449594e-01   5.4124652e-02  -1.7760054e-01  -7.2948029e-02  -4.2532235e-01  -8.0111017e-01   7.8084987e-01   7.3428450e-02  -9.4684726e-01   7.7068889e-01  -7.7142638e-02  -5.0494522e-01  -8.4228690e-01  -7.4985409e-01   7.9406667e-01   7.8677182e-01  -1.3847948e-01   3.7636888e-01  -2.6836819e-01  -4.4877689e-02   6.1831968e-01   9.5401374e-01  -7.9465435e-02   4.8505897e-03   8.0801631e-01   5.3373785e-01   9.6110294e-01   6.0645418e-01   4.1921237e-01  -8.4191206e-01   8.9995793e-01   4.2352072e-01   2.8102861e-01   3.5050485e-01   9.3741637e-01   6.1807467e-01   7.6769612e-02   3.8564729e-03  -4.1574206e-01   9.0048986e-01   4.6330842e-01  -7.4214706e-01   5.1149264e-01  -8.9147508e-01   1.3212618e-01   7.8931953e-01   3.2943257e-01   8.6392390e-01   1.9499512e-01  -3.3902596e-01  -1.8753883e-01   1.9572727e-01  -4.5647977e-02  -7.9035490e-01   5.2661095e-01   9.6324563e-01   6.3458934e-01   5.7248447e-01  -2.0690867e-01  -8.9495279e-01   1.9739169e-01  -5.8070261e-01  -9.9246019e-01   8.2138885e-01  -2.0984306e-01  -7.2677544e-01  -6.4127408e-01   7.2225646e-01   8.0517271e-01  -4.9936107e-01  -5.0589742e-01   9.7434878e-01   1.3566170e-01  -1.9492683e-03  -4.9253260e-01  -3.6136347e-01   2.0028709e-01  -4.6026597e-01   3.8484317e-01   9.7085818e-01  -9.8437360e-01  -9.8652662e-01   5.5267223e-01  -3.9987560e-01   1.0368353e-01  -6.2394004e-01  -9.6046977e-01  -9.3414430e-01   7.5869259e-01  -1.9698430e-01  -8.4742936e-01   8.5112272e-01   7.5696787e-01  -1.5156543e-01  -9.8972071e-01  -2.2230780e-03   4.4623903e-01   1.9410453e-01   4.8899789e-01   1.3087867e-01   4.7036112e-01  -9.5187367e-01  -6.8145181e-01  -6.6007792e-01  -2.9252392e-01  -3.9152789e-01   1.6101435e-01  -7.5054908e-01  -2.8961082e-01  -4.7125982e-01  -1.6423891e-01   9.7018234e-01  -5.5551714e-01   3.7520167e-01   9.3558517e-01  -7.1539487e-01  -8.6512239e-01  -6.3235487e-01   1.8993601e-01   8.7729602e-01  -7.0718951e-01  -8.3575553e-01   9.2198255e-01  -4.5822265e-01   9.0756354e-01   7.5891571e-01  -8.0458553e-01  -8.6460019e-01  -8.1099757e-01  -6.8670726e-01   6.3603762e-01  -1.8623403e-02   1.9457606e-02   2.7702247e-01   5.3053285e-03  -7.6544480e-01  -7.4900774e-01  -7.6187457e-01   2.2895619e-01  -5.2310527e-01   4.1874593e-01   5.9566301e-02   7.0667724e-01  -1.5548992e-01   7.6394054e-01   1.7582349e-01   6.5359267e-01  -1.3507604e-01  -9.3944909e-01  -7.0268322e-01   7.1917606e-01   1.3262744e-01   9.1725065e-02   5.4361872e-01   6.5560342e-01   2.6720910e-01  -6.9171131e-01   6.6462141e-01  -5.6459519e-01  -2.5296432e-01   2.8139109e-01   3.4739259e-01  -7.2524520e-01   6.1642188e-01   7.0289416e-02  -2.5736895e-01   2.7182361e-01  -4.3553369e-01  -3.5706664e-01   7.0304140e-01   1.2200861e-01   6.2285922e-01   4.7647206e-01   7.8392041e-01   6.8797421e-01   9.2485207e-01   5.1116169e-01  -4.0234186e-01  -8.8799515e-01   7.0050483e-01   2.3171376e-01  -3.9252145e-01  -7.3709052e-01   6.3904104e-01   6.4948222e-01  -2.7918936e-01   9.9959937e-01  -9.4639776e-01  -5.1215199e-01  -2.5121295e-02   3.7133133e-01   8.6488714e-01   1.7549610e-01  -2.0062640e-01   2.5466230e-01   6.1166726e-01  -9.7600747e-01  -7.3357671e-01   7.6955380e-01  -9.0398155e-01   6.2670813e-01  -3.9177830e-01   8.5431570e-01
