  -1.0252441e-01  -8.5319920e-01  -9.4066681e-01   8.6444611e-01   1.0689990e-01   1.9117156e-01   6.5464375e-01  -4.0911341e-01   9.7896757e-01   4.5105103e-01  -5.0962868e-01  -4.6906898e-01   5.8852945e-01  -3.3690442e-01   5.2927853e-01  -2.3145117e-01  -4.5513327e-01   9.2445774e-01  -5.0680730e-01  -6.7625935e-01   5.6694663e-02  -3.6641168e-01  -2.4209718e-01  -9.8833081e-01   5.7952481e-02   7.8356614e-02  -3.7076254e-01  -1.0785677e-01   8.0474385e-01  -2.1769582e-02  -7.2154573e-01  -9.8959757e-01   9.1347401e-01   8.2646463e-01  -1.0770961e-02   2.9484955e-01   8.9524232e-01  -5.1686164e-01  -3.2565303e-01   9.0939149e-01  -7.6290041e-01  -7.6468693e-01   3.6200816e-01  -5.7441486e-01  -2.3843554e-02   7.2578713e-01  -6.2321212e-01   9.9865813e-01   3.3030580e-01   6.9994416e-01   9.9309697e-01  -1.6532068e-02  -6.5559321e-01  -4.6187634e-01   4.0401705e-01  -2.4380840e-01  -2.2166487e-01  -4.8497936e-01  -3.0981259e-01  -1.6197998e-01  -3.4958036e-01  -7.6981535e-01  -8.6945277e-02  -5.5207876e-01  -6.3503891e-01  -7.0342852e-02   2.2896124e-01  -5.2911217e-03  -5.5727933e-02  -6.0552219e-01  -7.8735178e-01   6.8213163e-01  -2.0826508e-01   4.7039288e-01   7.1483276e-01   9.4466717e-01   7.3352413e-01  -3.2133076e-01  -7.9968132e-01  -9.5530520e-01  -1.9370589e-01  -7.2956722e-01   9.4773115e-01  -9.8355048e-01   5.3184690e-01   1.0314220e-01   9.5181663e-01  -4.9163509e-01   3.0826091e-01  -4.9259825e-01  -4.8610013e-01  -6.7580802e-01  -7.5696920e-01   2.0846578e-01   8.0031151e-01  -3.8251544e-01   1.8682101e-01  -9.8990842e-01  -4.4517945e-01   7.5985050e-01  -3.5651336e-01   5.5362945e-01  -6.7423888e-01  -4.1182959e-01  -1.8698045e-01   5.0776127e-01  -6.0515260e-01   2.4414069e-01   1.7592282e-03  -7.1577342e-01   3.8381711e-01  -5.9189541e-01  -8.3446763e-01  -4.8002017e-01   5.9058877e-01  -2.5729507e-01   4.6913516e-01  -4.9544464e-01  -4.2066589e-02   7.3299756e-02  -1.9833008e-01  -1.9568545e-01   6.5398253e-01   7.1482396e-01   1.1455363e-01   2.6305716e-01   6.4815988e-01   8.8657260e-02  -4.9987181e-01  -1.8006810e-01   1.0854824e-01   4.5386317e-01   9.7147312e-01   9.7183296e-01   1.3703329e-01  -3.6227083e-01   4.4776243e-01   8.9473249e-01   8.7743056e-01  -5.1770770e-01   8.8345569e-02   3.3614956e-01   2.6519740e-01  -7.3318824e-01   8.8215113e-02   3.7741988e-01   6.5078260e-01  -9.6501097e-01  -1.0285931e-04  -5.1114758e-02   3.7491495e-01  -9.9467833e-01   7.5575743e-01   1.0685870e-01   4.6461731e-01   6.0272163e-01  -1.5903912e-02   7.2078917e-01  -9.2157216e-01  -3.0498839e-01   2.5498733e-01  -6.9933152e-01   8.8254852e-01  -6.0590198e-01  -3.4754878e-01   1.4483673e-01  -6.0858937e-01  -9.7427921e-01   4.1406521e-01   9.5470008e-01   1.8169075e-01  -2.6763245e-01   8.2973608e-01   6.9927652e-01   4.7668587e-01   8.1369016e-01   5.4001401e-01  -4.6144308e-01  -4.7786031e-02   8.6101245e-01   6.6455561e-01  -3.8696374e-01  -4.7429496e-01   3.0096423e-01  -3.5426245e-01   1.1348161e-01   6.8944134e-02   3.6964647e-02   8.2285079e-01   3.1489814e-01   2.6277775e-01  -6.5572279e-01  -6.0327640e-02  -1.1594403e-01   3.1584551e-01   7.7159149e-01  -5.7947915e-01  -3.3482679e-01   3.3146397e-01  -7.8689728e-01   5.2673382e-02   7.9507949e-01   6.4968434e-01   3.3307870e-01   2.6380149e-01   7.5889236e-01   5.4159219e-01  -9.9876789e-01  -9.1858401e-01  -4.0310792e-01  -2.8059295e-01  -7.2105217e-01  -5.3066072e-01  -6.2553892e-01  -2.2891380e-01   8.6695182e-01  -2.5123887e-04   8.7789978e-01  -4.3251494e-01   5.6126783e-01   3.7750741e-01  -5.2886008e-01  -1.7007045e-01   5.1779595e-01   3.7524584e-01  -5.4865903e-01  -7.5035316e-01   5.6632945e-01  -8.7596388e-01   4.8960739e-01  -4.1995329e-01   5.4085012e-02  -6.4264117e-01   5.3992458e-01  -2.7421228e-01   2.6961671e-01   4.8094967e-01  -9.0693194e-01   5.6325832e-01   7.5628968e-01   1.9098518e-01   8.2130135e-02   6.1572483e-01   8.6817557e-01   5.4977956e-01  -5.4406363e-01  -3.8446206e-02   9.5828271e-01  -7.7589596e-01  -7.2369348e-01  -8.6216733e-02  -2.1612740e-01  -8.1939434e-01  -2.0484994e-01  -6.8310700e-01   6.7290381e-01  -9.1511413e-01  -1.2591108e-01  -6.9385615e-01  -6.2167702e-01   7.2708023e-01   9.8700154e-01  -9.4738963e-02  -6.2950484e-01   7.0239041e-01   8.1089616e-01   6.4787734e-01  -6.7889914e-01   1.2492827e-01   5.9716506e-01   6.9186202e-01   9.5630677e-01   8.5039167e-01  -4.9202000e-01  -3.9042744e-01   9.4041574e-01   4.5935519e-01   3.5134521e-01  -7.0923827e-01  -5.7733093e-01   1.6490604e-01   7.7624502e-01   5.0708268e-01  -3.7437939e-01   3.3622472e-01   1.3102925e-01   3.7863914e-01   3.6213147e-01  -3.5348407e-01  -8.4881526e-01  -7.8441473e-01   5.9003387e-01   8.1830455e-01  -5.7774923e-02   4.9894954e-01   6.4615064e-01   8.2892894e-01   9.1737339e-01  -8.1657358e-01   4.5030194e-01  -9.5200759e-01   7.9586674e-01   9.4250625e-01   1.5363063e-01  -8.9878480e-01   7.8165500e-01   9.4561366e-01   5.0330232e-01  -4.1598530e-01   5.3792494e-01  -8.4759397e-01   6.3079594e-01   1.5430596e-01  -4.6539163e-01   6.2507210e-02   6.4063169e-01   2.5823273e-02  -8.3409557e-01  -1.9492281e-01  -6.1183718e-01  -8.9012705e-01  -6.8979351e-01  -4.0937120e-02   9.3381484e-01   6.8682729e-01   1.3395061e-01  -2.2870171e-01  -1.7396409e-01   3.3695682e-01   8.8857703e-01   5.2949219e-01   6.1939257e-01   6.9778978e-01  -1.9444277e-01   3.3647449e-01   2.8475449e-01   7.0158151e-01   6.8670046e-01   3.1806539e-01   8.8723747e-02  -9.2882451e-01  -1.1971235e-01  -3.9620174e-01  -5.3995911e-01  -1.3924396e-01  -6.0520658e-01  -3.4089233e-01   4.2245352e-02  -8.9080275e-01  -3.9385290e-01   4.0592209e-01  -4.8395613e-01   5.4728452e-01  -1.8014895e-01   8.6271699e-01  -9.4453677e-01  -1.8583249e-01   7.4205091e-01  -2.9123438e-01  -1.7251297e-01  -3.9030345e-01  -6.1397209e-01  -4.2437030e-01   7.6731552e-01   5.6989855e-01   3.3014105e-01  -7.8512875e-01  -1.9627290e-01   8.7507283e-01  -1.7295540e-01  -4.3462760e-01  -3.3942345e-01  -8.1403629e-01  -2.7145559e-01   1.9801751e-01  -8.4028981e-01  -3.2699378e-02  -9.4863151e-01   3.6594539e-01   6.0307171e-01   1.5243055e-01   9.7044222e-01   3.1946227e-01   5.1931504e-01  -6.9841792e-01   5.3632269e-01   7.6930534e-01  -3.8400116e-01  -8.1713763e-02   1.8384062e-01  -2.0627179e-01  -1.5049097e-01   8.5773707e-01  -6.7269004e-01  -5.9366642e-01   3.7158695e-01  -3.7655351e-01   3.1007790e-01   1.7389116e-01  -4.4541609e-02  -7.5964447e-01  -3.9834334e-01  -3.3479037e-01   2.9212411e-01   5.2125407e-01  -3.8480157e-01  -2.4063673e-01  -2.4864181e-01  -2.5480561e-01   7.7299069e-01   3.0249990e-01  -6.5167920e-01  -3.4232669e-01   2.5280986e-01   2.2683725e-01  -1.3578700e-01   7.7168525e-01  -2.8618305e-01  -8.2573689e-01  -1.0774944e-01   3.2476977e-01  -6.1616295e-01   5.2570027e-02  -4.5235158e-01   4.5186510e-01  -6.6772771e-01  -3.2091570e-01   2.4580994e-01   9.9555360e-01  -1.2362304e-01   8.5588405e-01  -9.8202994e-01   9.7730687e-01   1.6278324e-01  -5.9523216e-01   6.4118111e-01   7.3434823e-01  -8.5671387e-02  -8.2502079e-01  -4.3700306e-01   2.8909326e-01  -8.0932601e-01   7.6419311e-01  -8.6525096e-02  -8.1011916e-01   5.7303233e-01  -2.6234526e-01   5.0749669e-01  -3.5783143e-01   9.7158322e-01  -2.9834299e-01  -6.1592515e-01   1.4312775e-02   3.8415661e-01  -5.9886991e-01   4.9612625e-01  -2.8933986e-01  -1.5811450e-01  -6.6123480e-01  -8.7846585e-01   8.8845909e-01   7.1466465e-01   5.2767883e-01   4.1822748e-02  -6.1028744e-01  -2.4443068e-01  -5.9886661e-01  -2.4494798e-01  -6.2080416e-01  -5.8803858e-01   6.6122962e-01   3.6073007e-01   4.2260503e-01  -1.3196073e-01  -9.1406817e-01  -3.8376301e-02   8.6379799e-01  -4.6683655e-01  -6.5058622e-01   6.0718772e-01  -9.7504067e-01  -4.0876569e-01  -8.3191120e-01  -3.1380218e-01  -6.3328611e-01  -1.2559799e-01   9.6573880e-01   2.2252285e-01   8.0941045e-01  -2.8416397e-02   3.0186011e-01   1.7218058e-01  -6.5014992e-01  -5.4389266e-01  -5.9192972e-01   1.4044543e-01  -6.9889777e-01   3.7642047e-01   7.5468579e-01  -6.8035633e-01   2.3187586e-01  -7.7496115e-02  -2.8542319e-01   3.0766895e-01   1.4035930e-01   6.4576753e-01  -6.3060957e-01   7.5098572e-01  -9.9244762e-01   1.4274150e-01  -1.2674210e-01  -9.9329996e-01  -2.8055025e-01  -9.1025832e-01   5.8788913e-01   1.1726650e-01   5.6697013e-01  -2.7919720e-01   8.0790413e-01  -4.7991562e-01  -2.9658104e-01  -8.1158009e-01  -7.9622619e-01   6.6174237e-01   2.2158727e-01   3.2263233e-01  -4.6144921e-01  -1.7705985e-01   3.6373360e-01   3.3125420e-01  -4.6036139e-01  -1.6538810e-01   9.4238344e-01   8.3311376e-01   8.1362292e-02  -9.8161513e-01   8.3350466e-01  -1.2612104e-01  -7.6081494e-01   1.7872126e-01  -6.2807483e-01   8.0787151e-01   8.0546741e-01  -6.0763875e-01  -7.8807108e-01   9.6581081e-01   9.5109648e-01   4.2338711e-01  -6.5261614e-01  -4.8722910e-01  -7.6096482e-01   3.3480745e-01   2.6608142e-01  -7.1097584e-01  -3.1819844e-02   7.2055260e-01  -2.1140314e-01  -5.0108569e-01   4.9077633e-01   6.4969808e-01  -7.8456431e-01   2.0590460e-01  -6.7544053e-01   4.2566702e-01   3.9504583e-01  -7.6254302e-02  -9.9705733e-01   2.9372941e-01   4.5659861e-01  -4.7544668e-01  -7.4763882e-01   1.8073694e-01   9.0580945e-01   1.4119114e-02   7.1669873e-01  -9.0505069e-01   6.6652431e-01  -1.5614659e-01  -3.4095303e-01  -5.0269206e-01   6.9065617e-01   9.0522523e-01  -8.8774224e-01   3.4017285e-01  -3.5795838e-01   6.3843915e-02   4.5125923e-01   4.8328105e-01  -1.5506384e-01   6.7091193e-04   3.2795265e-01   6.1286915e-01   9.2294356e-01  -3.4479802e-01  -1.9615348e-01   9.8521931e-02  -6.1833252e-01   9.8139682e-02   1.2370283e-02   3.3772290e-01   7.5822068e-01   3.6382957e-01  -1.9801330e-01   7.4948478e-01   6.4117159e-01  -8.3277540e-01  -1.0843851e-01  -9.9857085e-01  -2.7237867e-01  -8.6923253e-01  -9.0325806e-02   9.3898995e-01   8.7591449e-01  -9.3790815e-01   3.5538017e-01   6.1673914e-01   7.6314935e-01  -9.9450469e-01   3.6828372e-01  -4.8241586e-01  -7.4126134e-01  -6.7452574e-02   6.1865168e-01  -6.2286926e-01   3.9602386e-01   3.7060892e-01   3.7606054e-01   4.3962034e-01  -8.6941195e-01   6.4165923e-01   8.5329766e-01  -2.0691773e-01   1.0680057e-01   2.6863074e-01  -8.9201514e-01  -3.9311594e-01   8.5081855e-01   9.3161090e-01  -3.3994371e-01  -6.0441864e-01  -5.5386272e-01   2.5009882e-01   7.8491689e-01   8.1895831e-01   1.7708975e-01  -5.1635287e-01   3.0240589e-01   5.3434400e-01   8.0280404e-01   1.4937312e-01  -3.0487426e-01   9.5330951e-01   8.6693967e-01   2.3572769e-01  -7.7188142e-01  -9.2123947e-01   4.4464877e-02  -5.8869447e-01   6.0686860e-01  -5.9603665e-01   6.6314264e-01  -3.8216748e-01   1.6226442e-01  -4.1544345e-01   4.0266240e-01   2.1892037e-01  -6.3336408e-01   4.7003744e-01   6.2342424e-01   3.0208227e-01  -5.8324045e-01   8.4071860e-01   5.7123501e-01  -2.5594754e-01   5.1504189e-01   8.0398563e-01   2.5396920e-01   3.5614517e-01   6.8722808e-01  -2.9603192e-01  -5.2476836e-01  -6.8708944e-01   8.8302076e-01  -3.8302453e-01  -3.8757290e-01   1.8065367e-01  -9.2784142e-01  -7.4408965e-01   1.1354044e-01   9.0140711e-01  -9.0848074e-01   5.1243610e-01  -1.5236705e-01   4.3418763e-01  -1.3481584e-01  -2.4169830e-01   1.8008112e-01   7.5984620e-02   1.1116357e-01   8.9734362e-01  -1.7715378e-01   4.1415402e-01   5.5206749e-01   1.7468381e-01   5.8567620e-01   3.8750080e-01  -3.8200540e-01  -2.4432545e-01  -4.8657537e-01   3.1022758e-01  -4.8074284e-01  -3.5691857e-01   9.2833249e-02  -7.1855371e-01   3.4390071e-01   8.8102643e-02  -2.1261268e-01  -7.6235832e-01   8.2966245e-01   3.1208608e-02  -7.9871127e-01  -9.7088736e-01   9.0264687e-01   1.7109000e-01  -2.7471927e-01   1.4199481e-01  -1.7079788e-01   9.9482172e-01   8.1246006e-01  -9.1040585e-02  -9.4014400e-01  -4.0397410e-01  -7.9849958e-01   7.7935668e-01   5.4072999e-01   6.5227105e-01   1.9989770e-01  -5.1265866e-01   6.6576406e-01   4.9527662e-01   9.7227723e-01   5.5651247e-01  -5.2897435e-01  -8.9722838e-01   4.4036460e-01   8.9583732e-01   4.0907834e-01  -5.9293771e-01   2.9544612e-01   8.0686551e-01   7.2306697e-01  -5.5176513e-01  -5.7323983e-01   3.2083110e-01   1.5600381e-01  -2.0678175e-01   5.8656443e-01   5.2022044e-01  -6.0541198e-01  -9.9985121e-01   1.1116594e-02  -6.8911431e-01   1.2705017e-01  -5.5011422e-01   1.3720854e-01   9.6826243e-02  -9.9645762e-02  -4.6939733e-01  -6.0585835e-01  -1.9242615e-01   1.0886901e-01  -6.9822626e-01   6.1233487e-01   6.2082512e-02  -9.3959056e-02  -7.9575698e-01  -9.1830399e-01  -1.9866873e-01  -5.3829543e-01  -4.5253762e-01   5.5262725e-01   2.6529005e-01  -3.5231271e-01   8.5701372e-02   7.1312092e-01  -7.4153446e-01  -3.3531865e-01   9.8976845e-01  -3.8035738e-01   2.9517855e-01  -2.4533601e-01   2.5536393e-02   7.5687553e-01  -2.8452781e-01  -6.2947712e-01  -7.2506196e-02   9.8308799e-01  -9.2475779e-01   2.8305877e-01  -4.0295023e-01  -5.8295175e-01  -2.6062185e-01   3.2480645e-02  -3.5786277e-01   5.7821363e-01  -7.6731964e-01   4.7022214e-02  -1.3842871e-01   2.4719462e-01   7.7646039e-01  -8.8917669e-01   8.6351787e-01  -1.3682485e-01   5.1001418e-01  -6.7567215e-01   4.2030845e-01  -2.0388899e-01  -9.5544074e-01   7.8677552e-01  -9.5969554e-02   4.4362189e-01   7.7912422e-01  -3.4352552e-01   9.6821124e-01  -2.9721367e-01  -8.0145207e-01  -6.3533189e-01   7.1292104e-01  -5.0059421e-01   8.1550688e-02   6.8754157e-01   8.5061881e-01   9.4568228e-02  -7.4032457e-01  -7.3943477e-01   8.8393627e-01  -6.6935268e-01  -7.8819087e-01   1.4136814e-01   8.0688581e-01  -7.9233090e-01  -1.0316480e-01   9.2543677e-02   5.1061210e-01   1.5069244e-01  -7.9912223e-01   6.9020145e-01  -3.9677960e-01   6.1318090e-01   1.4263759e-02  -1.7121870e-01   8.4211450e-01   6.0370845e-01   5.5785945e-01  -7.3758350e-01   2.7469960e-01  -5.6328436e-01  -6.1866729e-01  -4.0401261e-01   1.7507189e-01  -8.8601924e-01  -8.0211381e-01   5.7862942e-01  -9.4631326e-01  -4.1169797e-01   5.1539855e-01   3.6857092e-01  -9.2444445e-02   6.9275363e-01  -6.7413194e-01  -8.6667547e-01  -7.8074302e-01   2.2422817e-01   7.6864850e-01   3.6176388e-01  -1.6633674e-02   5.4722558e-01   6.9177001e-01   5.2981251e-01   5.9057814e-01  -4.1706850e-01   1.1763704e-01   5.8044448e-01  -2.8475016e-01   6.5885463e-01  -8.9400641e-02  -7.0766186e-01   3.9295838e-01  -5.9779595e-01   3.3059535e-01  -5.2342956e-01  -4.9004833e-02   5.1248884e-01  -4.3627122e-01   3.4356584e-01   9.1326538e-01  -3.0796711e-01   1.1336002e-01  -9.9261630e-01  -2.8607594e-01  -7.4949199e-01  -8.7056868e-01  -3.6898500e-02  -2.7150682e-01   4.2432776e-01   6.2104654e-02  -1.0321237e-01  -3.7430617e-01  -9.0998470e-01  -4.7782992e-01  -7.6256981e-01   9.8155204e-01  -1.8312686e-01   6.5754714e-01  -8.0372902e-01  -5.4821399e-01   4.7009659e-01   1.7359821e-01  -1.3067207e-01   9.9253327e-01   3.4266292e-01  -9.2807834e-01   9.9604582e-01   6.9601512e-01  -3.7332752e-01  -8.8640660e-01  -9.5434394e-01  -1.9780177e-01   6.7636740e-01   8.5482954e-01   9.5993468e-02  -9.4008746e-01  -3.6364970e-01   5.7278024e-01   9.0809439e-01   5.9207251e-01   8.5124529e-02   9.8831567e-01  -8.6743498e-01  -4.6416254e-01   6.9598606e-01  -3.7815257e-01  -1.5949952e-01   1.7991349e-01   1.4918478e-02  -4.7005485e-01   7.3715824e-01  -6.3572732e-01  -8.5297549e-01   9.0096348e-01   3.1020780e-01  -1.0280613e-01  -6.4930302e-01  -8.2858869e-01   4.3373986e-01   6.8710752e-01   5.9069041e-01   2.6042331e-01   6.7608752e-01  -3.2036274e-01  -5.9441692e-01  -7.1379025e-01  -2.8596503e-01  -6.4670538e-01  -7.8835382e-02   1.0198359e-01   9.4612286e-01   1.8140718e-01   3.9685591e-01   2.4159522e-01  -4.2440528e-01   5.4933276e-02   9.8291112e-01  -1.2114880e-02   2.1096933e-01   7.1880301e-01   9.7004437e-01  -8.8198281e-01  -6.3170251e-02  -7.0414840e-01  -3.5232633e-01  -1.9344393e-01  -1.9561108e-01   9.5502250e-01   3.8910891e-01  -6.5354717e-01  -5.2893293e-01   6.5963801e-01  -3.7324373e-01   3.5910215e-01  -8.1257246e-01  -2.4193881e-01  -5.8976711e-01   2.8205658e-01   7.3714476e-01  -1.3255991e-01  -7.6587186e-02   4.8002305e-03  -5.4815646e-01   4.1523211e-01
