  -5.5684882e-01   8.6862473e-01  -9.4110595e-01  -2.6802870e-01   3.2087202e-01   2.6312950e-03  -9.2157439e-01  -5.6381152e-01   7.4346831e-01  -2.9010548e-01  -6.1175016e-01  -9.3649789e-01  -5.5417779e-01   1.9045515e-01   2.2428239e-01   2.1438679e-01   7.5941001e-01   2.2248099e-01   4.8691295e-01   8.3238133e-01   6.1286068e-01   5.3392091e-01   5.1898523e-01  -4.6646732e-01  -4.8553535e-01  -5.5296893e-01   7.4966015e-01  -2.8137253e-01  -2.7978161e-01  -6.8850959e-01  -9.2255479e-01  -3.1640873e-01   7.4188957e-01   1.1106038e-01   6.7785145e-02   5.9007556e-01   6.6372662e-01   9.2925292e-01   2.0949425e-01  -7.7335317e-02   7.6240993e-01   1.3582317e-01   2.2037030e-01   6.2906411e-01  -6.5018785e-01   7.8328503e-01  -3.6508356e-01  -3.5872329e-01   3.3760031e-01  -6.2779344e-01   3.5518964e-01   3.3865463e-02   5.2423449e-01  -2.8232902e-01  -9.0438176e-02   9.4054735e-01  -8.9271965e-01   2.0607442e-01   3.7507593e-01  -9.9435554e-01  -3.4597540e-01   2.4920820e-01  -8.6754239e-01   2.2066316e-01  -4.1171957e-01  -2.4497762e-01  -9.3156545e-01  -6.5735270e-01   3.2048883e-01   4.6733181e-01  -8.2311577e-01   3.0251600e-01  -2.2734214e-01  -2.8244857e-01   7.9976275e-01  -4.9165719e-01   7.0590644e-01  -7.6794491e-01   2.6030457e-01   8.7764705e-01   6.7472081e-01  -6.3422290e-01   4.0341007e-01  -6.0669343e-01  -5.5140097e-01  -6.4913492e-01   1.3013970e-01   9.1055003e-01  -9.0851849e-01   1.5316572e-01   1.4895632e-01  -3.1847294e-01  -1.3306705e-01  -1.9444779e-01   3.1744732e-02   4.1433491e-01   8.8155241e-01   5.8821339e-01   6.6382300e-01   6.8214001e-01  -4.8616616e-01  -9.9990739e-01  -9.4948711e-02   4.2867961e-01   7.8399338e-01  -2.7402856e-01  -5.0339026e-01  -5.0727836e-01   3.7730772e-01  -1.3764120e-01  -6.9993673e-01  -9.0441193e-01   3.7064345e-02   3.8353181e-01   3.1667919e-01   8.3999788e-01   6.0828867e-01  -3.2844231e-01  -8.8408588e-01   5.3042177e-01  -8.1426822e-01   5.0188919e-01  -8.2278804e-01  -8.3737283e-01   1.5740299e-01   2.5272710e-01   3.5804639e-01   3.3930291e-01  -1.8949339e-02  -1.2764973e-01   1.2153514e-01  -3.6285829e-01   1.0781169e-01   5.5341404e-01   7.2170366e-01  -1.7962722e-01   3.8480068e-01  -1.0907087e-01   8.0796180e-01   4.5436561e-02  -8.1533018e-01  -8.0672845e-01   3.8931752e-01   3.2165732e-01   8.3546701e-01   5.3988365e-01  -6.6558419e-02   6.3915693e-01   3.4423630e-01   3.6838847e-01   2.9358993e-01   8.1670243e-01  -3.1985455e-01   1.6582701e-01   9.3952140e-01  -4.6220294e-01  -1.6773516e-01   7.2800458e-01   7.2150531e-01   6.6780260e-01   6.1313025e-01  -7.9919574e-01   9.1560824e-01  -4.3000215e-02  -6.9005733e-01   3.9691455e-01   4.9640142e-01   8.3703108e-01  -1.3488970e-01  -4.7942868e-01   2.3508241e-01  -1.1944568e-01  -7.1982214e-01   4.8096945e-01   6.2510997e-01   9.5079180e-01  -4.8635107e-02   9.6054990e-01  -5.3166774e-01   1.0647374e-01   7.3624000e-01   3.5398365e-01  -4.3478114e-01  -7.7748175e-01   2.4142258e-01   9.3961754e-01   3.6036416e-01  -1.5179108e-02  -8.2692862e-01  -5.7352995e-01  -2.7800860e-01   1.8563263e-01  -8.3028957e-01  -8.8525631e-01   9.2349268e-01   8.2662258e-01  -2.2991589e-01   2.5215994e-01  -7.1480214e-02   9.4231654e-01   1.7739340e-01  -6.5051797e-01   7.6539717e-01   7.3947663e-01  -3.1105861e-02  -4.1633792e-01  -5.4893492e-02  -6.7957211e-01  -7.5329130e-01   8.0028827e-01  -2.5179474e-01   9.8004294e-01   7.7949491e-01   1.6841194e-01   9.7344403e-01   8.5246116e-01  -7.4054579e-01   7.5362837e-01   9.9768937e-01   1.4151073e-01  -9.8700714e-01  -5.4421926e-01   7.2670384e-01   3.5985451e-01   6.7132591e-01  -3.4685269e-01   7.7301699e-01   9.7818203e-01  -3.6022602e-01   9.7463280e-01  -7.3672059e-01   1.4352946e-01   6.8405653e-01   3.2033624e-01  -9.5851270e-01  -6.0284606e-01   3.6581136e-01   5.4717943e-01  -3.2564430e-01   7.4031938e-01   7.7707280e-01  -2.5929127e-01   2.9696462e-01  -6.0195663e-01  -5.1141360e-01  -9.9139846e-01   2.7677722e-01  -4.0281809e-01  -9.6488792e-01   5.4237193e-02   1.4190131e-01   9.1176075e-01   6.6026109e-01  -9.3160513e-01   5.5843796e-01  -6.0174969e-01   3.6170692e-01  -7.0923558e-01  -6.2480589e-01  -3.3702843e-01  -9.7511981e-03   8.7310786e-01  -4.3096420e-01  -1.8161741e-01   5.4786237e-01  -6.1567654e-01   7.7779771e-01  -1.9776204e-01   7.1426426e-02  -9.4367203e-01  -9.4620442e-01  -1.2812913e-01  -7.0763427e-01  -9.7901614e-01   6.1096231e-01   6.1773039e-01   1.4039879e-01  -2.4928828e-01  -3.6021936e-01   7.2284858e-01   4.0793702e-01   7.7448772e-04   2.5000499e-01   6.8206362e-01   5.2077168e-01   7.9082534e-01   6.7878139e-01   2.5869222e-01  -5.0305489e-01  -7.3544948e-01   5.5780208e-01   5.1589249e-01  -9.5591189e-01  -7.5209682e-02  -6.8700966e-01   3.4721098e-01   8.4207061e-01   2.7422108e-02   2.1208792e-02  -6.0666763e-01   5.8872862e-01  -2.5919278e-01  -5.5096260e-01  -9.2507865e-01   6.0916987e-01  -3.5420686e-01   6.9888070e-01  -7.0238917e-01   9.9962114e-01  -3.2173299e-01   5.8705813e-01   5.4967267e-01  -1.1136296e-01   1.0548348e-01  -4.2163612e-01   2.2493704e-02  -8.3100554e-01  -5.2015864e-01  -2.7302351e-02   5.8780011e-01   2.4729101e-01   4.5825054e-01  -9.6931644e-02   5.2107903e-01  -3.9081257e-01   6.3450007e-01  -6.5133815e-01  -1.5672434e-02   2.5692944e-01   3.5774221e-01   7.7373149e-01  -6.8146254e-01  -1.7447119e-01   4.4538383e-01   1.0142766e-01  -9.8877014e-01   3.3578230e-01   7.0871823e-01   3.2034531e-01   9.0345072e-01   3.9615136e-01   3.8472646e-01   3.5461143e-01  -7.8932149e-03  -4.1089585e-01   9.3097797e-01  -5.4068595e-01  -8.0232777e-01   3.2450033e-01  -6.1728654e-01  -8.7895458e-01   9.7687651e-01  -1.0967893e-01   1.5684981e-02  -2.0792947e-01  -1.3928358e-01   1.8147919e-01  -8.0145717e-01  -4.3166167e-01   3.4978783e-01   2.4227402e-01  -7.8118269e-01  -2.1470017e-01  -6.6591602e-03  -3.5312307e-01   6.5882774e-01   1.5598956e-01  -2.5403932e-01  -5.7159432e-01   9.3931024e-01   1.9531375e-02   6.0432141e-01  -6.8720799e-01  -8.0912715e-01  -5.6238872e-01  -4.6685606e-01  -1.0493584e-02   2.2998073e-01   6.2088024e-01  -4.1864482e-01   6.1901005e-01   4.1523691e-02  -7.8066326e-01   9.1453542e-01  -6.7203317e-01  -9.8613286e-01   8.2988095e-01  -1.5590062e-01  -5.9818139e-01   2.7321441e-01   7.1523135e-01   7.3738589e-01  -3.2978708e-01   9.7117802e-01   9.5951117e-01   3.7438715e-01  -4.6881092e-01  -9.1509515e-01  -9.3369520e-01   7.3403232e-01  -6.9456673e-01  -4.3370093e-01   6.1824578e-01   2.5766090e-01   9.5126745e-01   4.6552377e-02  -7.3686695e-01  -6.0204852e-01  -3.7492738e-01   2.7427576e-01  -6.9279720e-01   7.0225691e-01   8.2717382e-01   4.1342811e-01   8.6176637e-01  -7.6696862e-02  -6.4314135e-01   3.4089123e-01   2.6094138e-01  -2.6845265e-02   3.5822370e-01   7.2421783e-01   3.2218048e-02   6.7822250e-01  -5.7415053e-01   1.1385161e-01   3.0341475e-02  -9.0820505e-01   1.8716124e-01   1.1874946e-01  -2.3933845e-01  -8.2593933e-01  -8.7289617e-01   8.7061290e-02   8.6643322e-01   9.3670644e-01  -1.1310715e-01  -4.3561418e-01  -6.9681752e-02  -1.5175878e-01   8.2261456e-01   3.0753623e-01  -3.8537302e-01   3.6267326e-01   3.6329577e-02  -2.2824503e-01   8.4671162e-01  -4.8195608e-02  -8.0751447e-02   8.3242888e-01  -4.7754101e-01   3.2324779e-01   1.6104331e-01   8.0003218e-01   5.4536035e-01   7.6295695e-01  -1.9605188e-01   5.9661550e-01   7.9997745e-01   6.7656997e-01   5.5647283e-01   1.0861727e-01   3.6157223e-01   2.9601606e-01  -2.3497329e-01  -3.8253446e-01   6.2332250e-01  -3.1476975e-01  -1.1088701e-01  -8.3260878e-01   8.4188297e-01   4.9218347e-01   6.4320196e-01  -7.0173472e-01   5.3169353e-01  -7.5125787e-01   4.9243210e-01  -3.3096284e-01   2.1092276e-01  -9.7244670e-01  -2.2076279e-02   7.2417374e-01   3.0953521e-01   7.4026167e-02   2.1923120e-02  -8.3534925e-01  -5.0579261e-01   5.0699378e-01  -8.1910409e-01   6.9968020e-01   7.2540375e-01   9.6166467e-01  -7.9803328e-01  -7.6585508e-01  -9.0373197e-01   2.8616803e-01  -5.0449786e-02   6.4992573e-01  -5.2618521e-01  -8.0308061e-01   3.8680799e-01   4.2663657e-01   7.1844689e-01  -5.4868574e-01  -5.8434628e-01   9.7671635e-01   3.4305547e-01  -6.6722565e-01  -6.5804365e-01   1.5791015e-01   3.4346367e-01  -9.4799122e-02  -3.3971710e-01  -1.4215516e-01   4.9803370e-01   6.5849707e-02  -1.9791086e-01  -3.6630871e-01  -8.7360225e-01   4.2972280e-01  -4.6797631e-01   1.1575204e-01  -4.5584299e-01   5.4100879e-01  -6.9194253e-01  -4.4324320e-01   5.3522008e-01  -5.3834730e-01   1.7886815e-02  -2.5674981e-01   1.3417815e-01   4.3224647e-01   1.5952363e-01  -1.7656649e-01   9.2593887e-01   6.0455249e-02  -1.5952116e-01   7.8719350e-01   6.2206064e-01   8.3556349e-01   2.4736305e-02   7.0214786e-01   5.3088790e-01   7.4119472e-01   3.0578928e-01   2.0583353e-01   2.6760140e-01  -2.6044900e-01  -1.3222317e-01  -7.5439082e-01   4.3808016e-01   5.9076815e-01  -6.1107333e-01  -8.1914932e-01   6.3111382e-01  -1.7441944e-01  -5.2668181e-01   4.8428939e-01  -5.2059845e-02   7.6735809e-02   6.0566858e-01   3.4249145e-01  -8.9316554e-02   2.9750486e-01   8.4329253e-01   2.2168336e-03  -2.3692572e-01  -1.9415220e-01  -2.0255144e-01  -6.8597334e-01   3.5607802e-02  -5.0654064e-01  -4.3824942e-01   6.0080560e-01   5.5748712e-01   2.3513749e-01  -2.8474079e-01  -4.7713534e-01   3.0474877e-01   4.3654549e-01   6.3345423e-01  -4.6326277e-01  -2.3197467e-01   4.3718312e-01   9.7443398e-01  -5.6085808e-01   1.0137908e-01   6.6516585e-01  -6.5197120e-01   4.7589035e-01  -3.0151349e-01  -8.3565760e-01   5.9177293e-01  -7.7678017e-01   3.8631131e-01   5.9690539e-01   7.5206603e-01   9.3180191e-01   2.6724410e-01   2.2986688e-02  -2.9487301e-01  -2.4679004e-01  -5.2799029e-03  -3.4537494e-01  -4.9315158e-01  -3.5675265e-01  -1.0770053e-01  -8.9464532e-01   8.0847379e-01  -5.6818499e-01  -9.7922951e-01  -9.2531352e-01  -6.3211057e-01   5.2108378e-01  -9.6022360e-01   9.8881423e-01   4.2298080e-01   9.8736093e-01  -6.6423530e-01   4.8201790e-01  -6.1881433e-01   5.1759144e-01   5.5651423e-01  -2.9806960e-01  -1.7455658e-01  -7.8454398e-01  -9.0337431e-01  -8.1631792e-01  -3.3937247e-01  -9.3213932e-01  -6.1882855e-01   7.7996347e-01   9.4249736e-01  -2.2886504e-01  -2.4915557e-01   5.8928666e-01  -7.0721690e-01   1.0463969e-01   9.1266031e-01  -7.8449515e-01   6.3908189e-01   1.5867777e-01   9.8189502e-01  -8.2363323e-02   1.5439824e-02  -6.4951547e-01   1.5245301e-01  -6.4477348e-01  -3.8530577e-01   4.0987552e-01   9.7058142e-01   9.1063216e-01  -8.0944942e-01  -1.9224909e-01   3.9401861e-01  -4.1368765e-01  -1.6247417e-01  -9.3774411e-01  -5.4103245e-01  -9.6666507e-01   9.9803143e-01   7.3583609e-01  -2.5462389e-01   1.6275466e-01   9.9115222e-01  -5.5043410e-01  -1.4573117e-01  -1.7120390e-01   7.1928308e-01   3.2368741e-01  -2.1325147e-02   1.0090304e-01  -6.5641098e-02   7.5807059e-01  -1.5464527e-01   1.4088050e-01   5.6448151e-01   4.1433347e-01   6.9211161e-01  -8.1207285e-01  -4.2589120e-01   9.5919272e-01   4.2398463e-01   1.1908551e-01   4.3655991e-01  -6.2517508e-01  -1.5165736e-03   7.3272553e-01   5.2276102e-01   7.2893972e-01  -8.4204567e-01   1.2048017e-01  -1.7387630e-01   6.9543692e-01  -4.8697983e-01  -9.5544680e-01  -7.0191538e-01   8.8188788e-01   2.5124709e-01  -5.5563790e-01   5.3759878e-02   7.7503906e-01   8.5100062e-01  -9.5255593e-01   4.8660614e-01  -1.0062277e-01  -3.3235207e-01   5.3451694e-01  -1.8785513e-01  -1.1355432e-02   1.6389769e-01  -2.2231471e-01   3.6372668e-01  -5.9304416e-01   5.0330913e-01  -4.0590767e-01   4.7258296e-01  -4.1351327e-01  -5.2997974e-01   3.9134217e-01   7.9700106e-01   2.0680904e-01  -4.2230756e-01  -5.5718224e-01   5.1245403e-01   9.4785220e-01  -1.4990669e-01  -6.9368249e-02   2.4342971e-01  -6.3921095e-01   9.3472909e-02   3.4824917e-01  -5.4150237e-01   9.3999392e-01   3.9294184e-01  -5.2514389e-01  -1.5725076e-01  -2.2070900e-01  -4.5293308e-01   5.4909056e-01   4.6991335e-01   6.3327903e-03   5.2903426e-01  -6.0402415e-01  -8.4316337e-01  -5.9150717e-01  -3.3386326e-01   6.9081208e-01  -3.8762053e-02   3.4481858e-01   4.6112101e-02  -6.2693142e-01  -6.6879876e-01  -4.8303314e-01  -6.6708817e-01  -3.0712027e-01   7.3374036e-01   7.3632284e-01   3.9954299e-03  -8.7563517e-01   4.4976281e-01   9.0516550e-01  -5.6948911e-01   3.7837172e-01   3.7255052e-02   4.7469916e-01  -1.2157273e-01   4.1196434e-01  -9.1509625e-01  -6.2483670e-01   8.2908057e-01  -4.4253479e-01  -9.2736133e-01   7.1103929e-01  -8.4642055e-01  -7.3797338e-01   2.6095086e-01   2.2241313e-02   4.2998937e-01  -6.4548809e-01   3.8520430e-02   1.4475432e-01  -5.9603164e-01  -8.4755034e-01   2.7551346e-01  -8.7558340e-01   7.1213080e-01  -3.6392500e-01  -2.8515108e-01  -7.9006004e-01   5.5018006e-01  -5.3591808e-01   9.9079789e-01   2.3024246e-01   5.6539348e-02   3.2696044e-01  -4.5545802e-01  -5.1015156e-01   2.5121785e-01  -3.8750565e-01   1.4385008e-01   8.0301367e-01   6.8185826e-02  -2.5169876e-01  -8.3692412e-01   8.1934440e-02  -8.9604016e-02  -9.3607828e-01  -3.1078207e-01   9.2253944e-01   3.1507730e-02   2.7361472e-01   3.3911316e-01  -5.8360886e-01  -8.6870594e-02  -9.0150642e-02   2.3472034e-01  -7.9516987e-01   3.7216141e-01   5.7933429e-01  -2.5290448e-01   1.8094982e-01   1.6133223e-01   1.9689246e-01  -5.7239265e-01  -9.8299317e-01   4.6128828e-01   3.7461109e-01  -3.9577030e-01   2.5938623e-01   8.8750780e-01  -7.6113965e-01  -7.0174189e-01  -3.4770736e-01   8.2559730e-01   7.4304463e-01  -4.6124902e-02   9.1892351e-01   7.4605499e-01  -6.0076478e-01  -1.1584867e-01   2.0486589e-01  -8.9629624e-02  -8.3079651e-01   6.2185702e-01   7.4463678e-01  -5.0761042e-01   1.2513911e-01  -3.5491147e-02   2.4495231e-01   4.0228231e-01  -4.2183239e-01  -7.2968426e-01  -1.0948275e-01   8.6679013e-02  -5.7101519e-01   2.8508544e-02   7.8747030e-01  -9.5475575e-01  -7.9014514e-01   1.9381226e-01   7.9443474e-01  -1.9840258e-01  -6.2361320e-01   2.6454055e-01   8.9462790e-01   3.0240917e-01   5.0261727e-01  -5.8483061e-01   6.8198141e-01   1.7054708e-01  -2.8788852e-01  -2.2721171e-01  -8.6697337e-01  -2.5373410e-01   1.1053961e-01   7.7400947e-02   9.5876187e-01  -9.7783553e-01  -4.6290766e-02   7.9478277e-01   9.5508342e-01   1.7513614e-02   9.5354122e-01   3.4262335e-01  -8.4958009e-01   7.9382531e-01  -5.3950345e-01  -5.7124454e-01  -3.7712576e-01  -5.7284027e-01  -5.9439002e-01   2.9949695e-02  -9.7741583e-01  -8.5166230e-01   7.7307079e-01   5.7860556e-01  -2.8589670e-01  -8.9157257e-02  -7.1912391e-01   5.1342717e-01   3.4054499e-01   6.1800709e-01  -3.3457855e-01  -2.4870848e-01   9.8969664e-02   3.9816669e-01   1.8569884e-01   4.7254178e-01   6.7998491e-01  -6.7644512e-01  -5.1549709e-01   2.5652531e-01  -6.1721434e-01   3.1295888e-01  -9.3383241e-02  -4.0155281e-01  -3.5440026e-01  -6.0793742e-01   8.1460350e-01   7.6259443e-01   6.2393779e-01  -9.1918129e-01  -3.4342541e-01  -7.4658478e-01   9.9725551e-02  -8.6262287e-01   1.6258390e-01   9.8474667e-01   7.8407227e-01  -5.2186022e-01  -1.3813761e-01   7.5079149e-01  -9.0416638e-01  -1.1485230e-03  -9.9771332e-01  -7.8682275e-01   7.7981355e-01   2.1563753e-01   5.0081393e-01  -6.6041142e-02   8.0092267e-02   5.8253825e-02   7.0202003e-01   8.9351475e-01   9.1798530e-01  -3.3530866e-01   7.0111961e-01   3.5050708e-01   6.2972633e-01   8.5532184e-01   8.3161516e-01  -6.3142845e-01  -8.1329480e-01   5.6992099e-01   3.0101887e-01   7.3496941e-01   5.4298444e-01   4.5297480e-01   6.5624575e-01   7.4800818e-01   3.1549765e-01  -7.3984351e-01   9.8170553e-01  -8.5335895e-01   7.1628796e-01  -9.2437938e-01   8.1054669e-01  -9.1366089e-01   6.6526226e-01  -9.1619104e-01   3.2890542e-01  -6.2094433e-02   6.4560987e-01   3.2774473e-01   5.6180282e-01   7.5474510e-01  -4.7212069e-03   4.1022232e-01   9.7602450e-01   2.2171495e-03   5.1393806e-01   8.0930654e-01  -1.6587094e-01  -4.9013606e-01  -1.5327757e-01   9.1664892e-02   4.4526615e-01  -9.9343550e-01   8.5306980e-02  -5.5318693e-01  -6.1161477e-01   8.6868103e-01   7.3242842e-01   6.5611743e-01   4.2359603e-01   3.9757069e-01   4.3678033e-02   8.1149267e-01  -8.3494857e-01
