  -3.0086796e-01  -5.2447979e-01   1.7147913e-01  -3.8023232e-02   1.7239342e-01  -9.7668794e-01   7.8740324e-01   8.8169792e-01  -6.8691036e-01  -9.2446899e-01   3.4772064e-01   4.9726719e-01   4.4365533e-02  -1.9026221e-01  -6.6407081e-01  -1.8204524e-01   3.1508539e-01   3.3068225e-01  -7.5981070e-01  -3.7163840e-01   6.1294804e-01   1.1270154e-01   4.0287879e-02   1.1139901e-01   2.7705543e-01  -3.8123696e-01   9.0546616e-01  -5.7718363e-01  -9.3706782e-01  -8.3251952e-01  -8.7032556e-01   8.2785857e-01  -8.8567008e-01  -3.5091864e-01   1.6490303e-01   2.8373136e-01   3.4356656e-01   3.9120316e-01  -9.5522906e-01  -9.6336360e-01   6.0650095e-01   1.3952353e-01  -1.4145584e-01   8.8391282e-03   6.1705296e-01  -9.7251276e-01   3.9467637e-01   6.1637850e-01  -7.3728089e-01   6.5501661e-01   9.6904252e-01  -3.7524563e-02   9.4744098e-01  -3.4598481e-01   4.3370462e-01  -6.5705988e-01   7.1772764e-01  -9.4793668e-01  -9.9654123e-01  -7.4013746e-02  -2.5419611e-01  -8.3473597e-01  -5.0901092e-01  -7.8324592e-01   2.3480561e-01  -6.6153789e-01   9.0216919e-01   3.9221387e-01   4.1892736e-02  -5.3674891e-01  -8.9062905e-01  -5.1182432e-01   2.2884514e-01   5.6691153e-01  -6.0660733e-01  -5.9674867e-01  -4.3083868e-01  -3.1793084e-01  -9.9051182e-01   6.0451875e-01  -6.4925932e-01  -4.7455202e-01   6.5394157e-01  -2.9092951e-01  -4.1034622e-01  -9.4736426e-01   6.4747997e-01   6.0684444e-02  -9.5379032e-01  -5.4954936e-01   5.3004455e-01  -4.1453587e-02  -7.5032016e-01  -3.2957744e-01  -9.3587776e-01  -2.6502242e-01   8.5483055e-01  -2.7924984e-01   5.6288500e-01   6.0209460e-01   6.0546463e-01   4.2672401e-01  -4.1928405e-01   5.3938764e-01   1.1330906e-01   6.1410109e-01   3.8873301e-02  -5.7893501e-01  -6.2536221e-01  -5.3768981e-02  -9.2294291e-01  -4.9876232e-02  -2.1664193e-01  -7.0043358e-01  -6.8233571e-01   4.1996474e-02  -8.9580490e-01   6.3291340e-01  -9.9718960e-01  -4.7824320e-01   9.0906776e-01   1.8170923e-01   2.9314763e-02   1.5047287e-01   3.1683706e-01  -8.4693919e-01  -7.5268298e-01   1.7647759e-01   2.2207634e-01  -5.2303073e-01   8.9842506e-01  -9.7546952e-01   2.5944261e-01  -5.4945967e-01   5.5998486e-03  -3.6086147e-01   9.9977934e-01   8.6384593e-01   8.1748839e-01   2.7274925e-01  -1.1776408e-01  -6.5370431e-01   9.4103606e-01  -4.6766476e-01   3.4300847e-01  -8.2338118e-01   3.0422304e-01  -8.8883423e-01  -7.4041759e-01  -3.1050680e-01  -9.9786514e-01  -1.2035507e-01  -4.3809524e-01   5.6511750e-01   9.7275468e-01   6.0561789e-01  -2.8221688e-01   8.0743116e-01  -7.6485459e-01  -9.0646724e-01   8.1009952e-01  -6.9919804e-01   8.9753826e-01   1.7512704e-01   8.4650562e-01  -8.0068463e-01   8.3501742e-01  -7.9860171e-01   4.6672217e-01  -1.9351812e-01   5.7287868e-01   8.6643901e-02  -1.3302913e-01  -4.4124005e-01  -6.8491965e-01  -5.0748121e-01  -9.9978649e-01   7.4059698e-01  -8.3016888e-01  -3.5020010e-01  -2.0153165e-01  -1.6244077e-01  -5.2556487e-01   6.8000198e-01   3.2724644e-01   9.2813184e-01  -9.8030353e-01   4.2120536e-02  -7.4178824e-01   5.9061439e-01   6.7411403e-01   2.5229360e-01   6.7849172e-01   1.9336677e-01   5.0305095e-01  -5.5093169e-01   2.0657458e-01   2.9871737e-01  -2.4893509e-01   9.4814749e-01   1.9966775e-01   7.2961230e-01   8.7489360e-01   3.6857736e-01  -2.0708769e-01  -9.3423641e-01  -4.5872420e-01  -7.0928012e-02  -9.7660025e-01  -3.0814532e-01  -6.0805881e-02   5.3332397e-01   1.5997417e-01   9.5317218e-02  -1.6049333e-01   9.5834326e-01  -5.8460859e-01  -4.4777333e-01   5.6193063e-03   7.8696842e-01  -8.4561810e-01   5.5430329e-02  -4.0012700e-01  -3.2666933e-01   2.6027122e-01   8.0283092e-01  -8.3680989e-01   5.4993011e-01  -8.5478975e-02  -5.5930023e-01   3.8004503e-01  -8.9539246e-01  -4.2009226e-01  -1.0729452e-01  -4.0323494e-02   8.9263559e-02  -4.1717106e-01   9.3368047e-02   7.0429779e-01   3.4336945e-01   4.9059821e-02   9.4749561e-01   5.2401560e-02   3.0452345e-01  -5.3902447e-01   2.2032896e-01  -1.2269987e-01   4.6273315e-01   7.4461235e-01   8.3899653e-01   9.4298455e-01  -6.1524023e-01   2.7090773e-01  -6.7383672e-01   4.9730576e-01   2.7224690e-02  -9.3261405e-01   3.6346214e-01  -3.3416995e-01  -8.9579295e-01  -1.6018168e-01   3.6980480e-01  -2.1469763e-01   7.4900341e-01  -8.6769244e-01   6.1193027e-01  -8.9907579e-01   1.3388138e-01   2.5286676e-02   9.6564357e-01   2.3229143e-01   2.4963366e-01   7.0594209e-01   9.4536428e-01  -9.1261758e-01   5.1559801e-01  -3.4893607e-01   3.8343769e-01  -5.5286065e-01   4.1268225e-01   4.2840476e-01  -7.9062752e-01   8.1727152e-01  -7.3426686e-01  -1.5923327e-03  -7.0629668e-01  -2.6094530e-01   8.0471849e-01  -5.9305939e-01  -4.3299841e-01  -1.2416449e-01  -1.8145316e-01  -5.6316410e-01  -3.0180528e-01  -2.1604596e-01   5.7198235e-01   4.4586491e-01   1.6927907e-01  -6.0751652e-01   9.3544221e-01   9.3694500e-01   6.0836312e-01  -5.8428840e-01  -2.9446392e-01  -3.0357336e-01   6.4369875e-02  -7.8509411e-01   1.0558788e-01   5.9871202e-01   9.1122704e-02  -9.3752027e-01   1.0512166e-01   1.2478484e-01  -4.9419263e-01   2.0741596e-01  -9.5522478e-01  -2.5513846e-01  -5.7940085e-01  -3.0503951e-02   8.7601407e-01   2.6269651e-01  -9.3888570e-01   6.0487130e-01  -3.7464272e-01   7.7903436e-01   5.0756705e-01  -6.8160823e-02  -4.6788347e-01   9.2435592e-01  -5.4849705e-01   1.9884936e-02   6.5839108e-01   5.2991356e-01   5.1122398e-01  -9.4191139e-02   7.5685716e-01   4.7185854e-01  -5.1429200e-01  -7.9155302e-01  -2.0846132e-01  -1.3131774e-01   9.5201337e-01  -2.6043923e-01   5.5017845e-01   7.6090403e-01   9.0035402e-01   5.6286897e-01   4.3047695e-01   6.8027831e-01  -8.6533033e-01  -8.6985055e-01   5.5816457e-01  -3.9328872e-01  -3.8961738e-01   8.0103874e-01  -3.2617852e-01   6.9069032e-01   9.8015425e-02   9.9438320e-01   9.9443730e-01  -1.9375644e-01  -6.4395667e-01  -4.0127000e-01   7.8738772e-01  -8.5606400e-01  -6.0326383e-01  -6.7135576e-01   8.6246389e-01  -5.1247425e-01  -3.3950987e-02   6.7688913e-01   5.1392457e-01  -6.0687926e-01  -2.6036550e-02   5.2758398e-01  -4.9912222e-01   6.0657862e-02  -8.4828498e-01   4.4796909e-01   2.5894738e-01  -8.9054640e-01   3.0631293e-01  -8.2759009e-01  -3.1054183e-01  -4.8401479e-01   8.8516573e-01   7.6052199e-01   7.5339326e-01  -3.3521879e-02  -9.1474783e-02  -2.4205134e-01   9.0108264e-01  -8.9251441e-01   1.1947956e-01   7.7889497e-01   8.0137482e-01   4.1696271e-01  -1.4456824e-01  -4.8219578e-01  -3.6699701e-01  -2.7942597e-01   5.2554366e-01   7.6563781e-02  -1.1753177e-01  -9.9495894e-01   5.7209166e-01  -5.2886736e-01   2.1028788e-02   7.4256142e-01   1.8038070e-01  -3.5266322e-01  -6.7666012e-04  -1.6776191e-01  -2.8654400e-01  -2.7269767e-02   6.1260075e-01  -8.9449339e-01  -7.2497826e-01  -8.7811110e-01   3.9012739e-01   2.2875370e-01   2.6122800e-01   8.1905902e-01  -6.0229504e-01  -6.8825042e-01   7.7966903e-01  -1.2740312e-01   6.8223497e-01  -8.2358378e-01  -2.4074252e-01  -9.9236364e-01  -6.5086784e-01   7.0349622e-01  -4.8174691e-01   8.7437611e-01   2.5313862e-01  -6.6012632e-01  -6.3325103e-01   1.2309876e-01   4.6963157e-01  -7.7758972e-01  -6.1327407e-01   9.6686925e-01   9.8312298e-01  -1.1019033e-01  -4.2448716e-01  -7.0143945e-01  -2.3232282e-02  -2.9782681e-01   3.3551025e-01   4.3371590e-01  -6.7992159e-01   6.8771576e-01   8.9235073e-01  -5.6677625e-02   5.2136658e-01   7.5060517e-01  -3.9363914e-01   2.2902425e-01   3.0142596e-02  -4.7448247e-03   5.9736153e-01   5.8931325e-01   6.1238383e-01  -4.0445145e-01  -5.4957850e-01  -9.8341744e-01   9.5300652e-01   1.2534771e-01  -6.1972527e-01  -1.7730131e-01  -8.4607290e-01  -6.8075003e-01   7.4398879e-01  -1.4032570e-01  -8.7492176e-01   1.5434426e-01  -4.1164303e-01  -4.5409228e-01   5.4676198e-02   5.4427221e-01  -3.0008968e-01   5.7472252e-01  -7.1390904e-01   3.9932301e-03   8.4405426e-02   7.1320515e-01  -9.0789696e-01   8.7168738e-01  -7.1632648e-01  -8.5664335e-01   3.7148050e-01   8.4567580e-01  -8.0308976e-01   6.0282353e-01  -7.5668109e-01  -8.7507015e-01   8.2413039e-01  -6.0068822e-01  -9.7738116e-02  -5.3233013e-01   7.5881857e-01  -9.7794524e-01  -7.7938629e-03  -2.9552818e-01  -5.0262439e-01   7.7257627e-01   1.5411273e-01   8.2427356e-02   6.4500662e-01  -8.4669958e-01  -5.8310989e-01   2.4879002e-02   1.1735833e-01  -7.2259473e-01   7.5075005e-01  -7.7512253e-01   2.6012129e-01   7.7096370e-01   8.6061181e-01   1.9469656e-01   6.6929925e-01   9.1335036e-01   4.5050484e-01  -8.6198398e-01   1.7894461e-01   7.6675630e-01  -4.1549744e-01   1.4397602e-01   9.0499677e-01  -4.6316100e-01  -4.7446333e-01   5.1120733e-01   1.7896442e-01  -2.2845494e-01  -2.9249605e-01  -7.6222501e-01   2.0783921e-01   7.2855467e-01   5.5728128e-01  -7.1662924e-01  -2.5846900e-01  -7.5675773e-01  -1.0637355e-02   7.0065366e-01   7.3676084e-01  -5.6822226e-01  -6.5357013e-01  -8.3822923e-01  -9.6466457e-01   9.6920694e-02  -2.8519072e-01   5.0269074e-01   9.6811152e-01  -1.4805640e-01   4.1096311e-01   7.9788338e-01  -9.3758407e-01  -5.2457480e-01   7.7008793e-02   2.6163130e-01  -6.3645040e-01   5.0672459e-02  -6.1293509e-01  -5.8560681e-01   7.8173944e-01   6.2840948e-01  -3.5910171e-01  -9.7835003e-01  -1.0635683e-01  -2.2000227e-01  -4.0335455e-01  -8.3197414e-01   2.6760726e-02  -2.2041235e-01   3.3549617e-01   6.1421096e-01   8.2284728e-01  -9.3581534e-01  -6.4085268e-01   9.4520138e-01   8.2840625e-01  -4.9283944e-01  -4.6699578e-01   5.8000724e-01  -8.1862611e-01  -6.5756009e-01   3.3717351e-01  -6.6813649e-01   4.7071264e-01  -6.5612831e-01  -4.7730490e-01   6.4646313e-01  -5.7302582e-01   7.8037460e-02   4.4232754e-01   3.5128647e-01   9.2406005e-01  -2.0807413e-01   8.6759846e-01   8.7565342e-01   5.9112128e-01   9.1293371e-02  -1.6190604e-01  -3.6186896e-01  -4.2925620e-01  -4.2613661e-01  -1.5718646e-01   3.5095807e-01  -8.3186430e-01  -1.9906469e-02  -3.1574349e-01  -4.9162241e-01  -9.6635943e-01   5.6600631e-01   6.8462949e-01  -1.8671649e-01   2.6093634e-02   1.9837271e-03   4.3748819e-01  -8.7175420e-01  -1.6523864e-01   5.8277197e-01   8.9681066e-02   1.9383433e-01  -4.9977762e-01   8.0897972e-01  -7.8054017e-01   9.3589902e-01  -2.6080551e-01   6.0310859e-01   9.9365219e-01  -9.9458618e-01  -1.1334963e-01  -8.5385098e-01   4.8254791e-01  -1.6758448e-01   5.3674767e-01   4.4560248e-01  -8.0197418e-01   9.2391383e-01  -3.3721474e-01   4.5458984e-01  -2.8529494e-01   2.6541577e-01   9.8609183e-01  -1.7961475e-01  -1.6432215e-01  -9.6300434e-01   7.4739718e-01   7.4378538e-01  -5.0735699e-02   6.4840466e-01  -9.2449634e-01   9.0685435e-01   9.8480696e-01   6.9039027e-01  -9.5522413e-01  -9.1098513e-01   3.0355784e-01   3.3717548e-01   1.9246235e-01   1.0300464e-01   9.0122856e-01  -8.2559923e-01   4.2971420e-01  -4.0018906e-01   5.6125316e-01  -9.9096839e-02   9.3896436e-01  -5.2827309e-01   8.2053250e-01  -9.4034657e-01   5.9310840e-01  -6.1662114e-01   8.3062095e-01   7.2449787e-01  -2.6630731e-01  -2.3985987e-01   7.2584349e-01  -5.8379587e-01   5.6282069e-01  -3.1580574e-03  -4.5428684e-01  -6.1576294e-01   8.7485930e-01  -4.2735935e-01  -8.5392876e-01   1.8598728e-01   4.4365192e-01   2.4971278e-02  -7.4217251e-01  -2.5425455e-01  -1.9640758e-01  -9.3070608e-01   9.7765768e-01   2.1019621e-01  -1.8644736e-01   3.4385954e-01  -7.6420411e-01  -8.0064758e-01  -9.3924542e-01   3.3377072e-01   3.9313375e-01   5.9382697e-02   8.5593923e-01  -3.5409294e-01  -3.6330467e-01   8.2691122e-02  -7.4845967e-01  -7.5602481e-01  -4.0483052e-02  -8.9119504e-01   8.8114948e-01  -1.0340558e-02  -8.4168707e-01   4.2828543e-01   5.4698680e-01   2.1146750e-02   8.3339960e-01  -7.9021093e-01   6.4088123e-01   1.9256575e-01   1.5467945e-01  -9.3757567e-01  -6.3383900e-01   1.7003533e-01   1.8653138e-01   7.1069867e-01   3.7916751e-01   7.0188911e-01  -1.8230165e-01   4.3685856e-01  -4.8936492e-01   2.9298740e-01  -1.9178062e-01   8.4847196e-01   6.7620722e-01  -9.7192641e-01   2.1404692e-01  -4.2570721e-01   5.9247912e-02  -8.6455481e-01  -8.8571177e-01   2.9525089e-01  -2.1500704e-01  -3.0812333e-01   5.2679646e-01   3.2765768e-01   7.6984759e-01  -7.4824914e-02   5.4477251e-01  -9.2265237e-01  -1.8559344e-02   4.5922040e-01  -6.9093967e-01  -5.9846847e-01   3.9104488e-01   4.9748313e-01   1.4327879e-01  -1.1966120e-01  -9.6672161e-01  -9.4983228e-01   9.6089116e-02  -5.8327345e-01   9.5036531e-01   3.1061313e-01   9.6152923e-01   8.2094067e-01  -6.6243055e-03  -5.9401762e-01   8.3290108e-01  -2.6078970e-01  -4.8512281e-01  -9.9867063e-01  -8.1139953e-01   6.4382601e-02  -3.0538763e-01   7.6350102e-01   3.3676003e-01   9.8827565e-01  -3.1039866e-01  -1.3570150e-01   8.9354462e-01  -9.5104307e-01   2.0976380e-01   3.7257071e-01  -2.2485161e-01  -8.7377082e-01   7.7831387e-01  -5.4136514e-01   7.2041587e-01  -4.5486049e-01   8.1180407e-01  -8.2687148e-03   4.8055032e-01   6.4037844e-01   5.8611189e-01   1.1105988e-01  -5.9040614e-02  -3.0393793e-01   9.0956067e-02   2.6408817e-01  -8.1926723e-01  -3.7739076e-01   9.5763173e-01  -5.6807816e-02   7.4520295e-01  -5.5385376e-01  -9.8837862e-01  -6.8586606e-01   5.3091734e-01  -7.1984917e-01   1.8292329e-02   7.0533011e-01   1.8179221e-02   9.1469371e-02   7.3455331e-02  -7.4482461e-02  -2.2454751e-01  -6.2002997e-01  -7.0643262e-01   2.8392421e-01   7.2993095e-01  -4.3708902e-01  -8.4363095e-01  -6.3575313e-01   2.1592515e-02   1.2539763e-01   4.5643842e-01  -7.9972210e-01  -8.5983817e-01  -4.1459567e-01   2.7205005e-01   1.9445976e-01   4.1540013e-01   8.6028495e-02   5.2550935e-01  -7.8114640e-01  -8.9921665e-01  -4.8849483e-01  -5.2213138e-01   2.6740636e-01  -1.7580068e-01   2.8530139e-01   8.4877178e-02  -7.4649859e-01  -7.1001138e-01   6.0894237e-01   6.4302544e-01  -1.8822693e-01  -5.6016156e-01   5.1200468e-01  -8.4862343e-01  -1.4559508e-01  -4.1172798e-01  -7.9715724e-01   5.9245075e-01  -8.9512439e-01  -8.4523081e-02  -1.6533756e-01   6.0770071e-01  -5.7252689e-01  -8.5148528e-01   9.5802147e-01  -8.7635434e-01   4.8602600e-02   5.1041086e-01  -8.1171164e-02  -2.7488927e-01   2.6950662e-01  -7.6555170e-01  -2.3954380e-01   7.7516993e-02   2.3312051e-01  -2.7734055e-01   7.0200328e-01  -9.6972139e-01   4.0957639e-01   1.3865065e-01  -8.3157410e-01  -8.3556112e-01   5.9482922e-01  -1.8461776e-01  -4.7220533e-01   9.3908350e-01  -8.5897515e-01  -8.9698759e-01  -4.9562147e-01   9.1119576e-01   1.7820991e-01   5.4996248e-01  -9.8606814e-01   1.8151528e-01   3.2690580e-01   8.9032576e-02   2.0493148e-01   3.5962477e-01   8.3191140e-01   3.2419805e-01   4.0861433e-02  -9.5618401e-02  -3.6837174e-01  -9.8601235e-01   2.7573791e-01   5.9190176e-01  -6.0897041e-01   5.5925111e-01   6.1007208e-01   3.4462335e-01   5.3757389e-01   1.4223741e-02  -7.3248481e-01  -8.5094703e-01   8.5715309e-01   3.5532781e-01  -3.3797200e-01   3.5932582e-03   8.8499073e-01   2.2667862e-01  -8.0234868e-01   5.1130477e-01   8.8751600e-01   7.0333645e-01   1.5346261e-01  -3.2394088e-01  -6.4165760e-01  -1.3733278e-01   1.4815099e-01   3.2628041e-01   1.7427551e-01  -1.2145592e-01   8.2530666e-01  -6.8840298e-01  -4.5179008e-02  -3.2848200e-01   3.6501803e-01  -5.2132097e-01  -9.0596588e-01   2.5606907e-01   3.3892429e-01  -9.6455321e-02  -8.7789514e-01  -7.0449273e-01   4.5862145e-01   5.1744663e-02   3.5235628e-01  -4.2411912e-01  -5.8467906e-01  -2.6522767e-01   6.8858076e-01   8.3630476e-01  -4.8689536e-01   9.0028193e-01  -1.6133446e-01  -7.3917354e-01  -8.1742001e-01   5.0987965e-01  -6.7096010e-01   3.7372333e-01   6.1754427e-01   8.0546541e-01   2.8395854e-01  -4.9772127e-01  -2.5714208e-01   1.4347246e-01  -4.7213948e-01   5.1885841e-02   9.1633759e-01   1.1214022e-01  -5.4706347e-01   8.8644783e-01  -6.8470509e-01   9.1264068e-01  -5.0623501e-01  -1.5175915e-01   8.0558406e-01  -9.4897510e-01  -7.4248453e-02  -9.3030199e-01   6.9628954e-01  -2.1237787e-02  -2.9139857e-01  -3.1957651e-01  -3.1955999e-01   9.8014854e-01  -2.3978704e-01   4.5122324e-01  -3.4800742e-02   8.6430696e-01  -7.8587017e-01  -8.5409009e-01   7.3747917e-02  -7.5857355e-01   5.0493072e-01  -9.9789890e-01   2.4782049e-01   7.5889050e-01  -5.5343627e-02  -1.9911376e-01
  -9.6255542e-01  -3.5508160e-01  -3.3313553e-01  -9.9502689e-01   9.5801564e-01  -6.2623375e-01  -7.0978581e-01  -8.3593366e-02   6.2589083e-01   7.8764446e-01   1.4484307e-01   5.0994170e-01   6.5641795e-01   1.1341068e-01  -4.7919797e-01  -7.0363311e-01  -9.3650918e-01  -6.8753260e-01  -2.0628511e-01   1.6226477e-01   6.8037934e-01  -2.2027880e-01  -6.2444743e-01   5.3060584e-01  -1.0954296e-01  -3.1541310e-01   1.7715225e-01  -4.1811732e-01   9.0635738e-01   3.1244727e-01  -4.8672746e-02   8.2142158e-01  -5.5700919e-01   1.6185455e-01  -1.8119635e-01  -4.0189942e-01   1.7042164e-01   8.2470558e-01  -1.5900116e-02   3.3384988e-01   8.5267147e-01  -2.2303027e-01   7.2904326e-01   6.3562112e-01  -4.1113174e-01   7.7758889e-01  -4.6117098e-01   6.7018060e-01   3.9524191e-01   2.5136263e-01  -9.0043893e-01  -6.8645962e-01   9.2551600e-01  -6.8515427e-01  -9.5046263e-01   7.2132138e-01  -5.6503738e-01  -2.2220755e-01  -5.6244462e-01   8.3770601e-01   6.5758180e-01   5.3441773e-01   3.4698586e-01  -2.9310286e-01   2.0934727e-01  -9.5204459e-01   6.3010334e-01   7.7158552e-01   6.2955625e-01   4.6359198e-01   8.0460654e-01   6.2166147e-01  -4.4780661e-01  -5.1028446e-02   6.9487197e-01  -1.1800406e-01  -1.6946962e-01  -8.4590595e-01   1.6798683e-01  -6.9808618e-01  -7.2848595e-01  -9.9958421e-01  -7.9905634e-01   2.9446461e-01   6.6385108e-01  -3.0968646e-01   4.0341549e-01  -5.5904005e-01  -8.3211326e-01  -8.2100149e-01   7.7775503e-02  -9.2756578e-01  -5.2941984e-01  -7.1895139e-01  -2.5474828e-01   8.1249351e-01   2.4132261e-01  -7.6014382e-01   6.0890828e-03   1.5483745e-01  -1.8144293e-01  -1.9865894e-01   8.1512598e-01  -7.2528555e-01   5.9879044e-01  -6.6822706e-01  -8.2276178e-01  -2.7698512e-01  -8.0674030e-01   7.5728565e-01   5.7767771e-01  -5.0670394e-01   9.5695143e-01  -3.6417962e-01  -2.9288625e-01   4.4321203e-01   5.8671292e-01  -9.1027920e-01  -9.4379607e-01  -7.7309846e-01  -8.9907809e-01  -7.8074103e-01  -2.9894378e-01   4.9003204e-01  -6.3520213e-01  -7.7831417e-01  -2.1524478e-01  -5.1649982e-01  -1.0456181e-01   7.3305699e-01  -7.5349522e-01  -5.8984992e-01   1.1648645e-01  -2.9538893e-01  -7.2465789e-02  -2.9683245e-02  -9.3756477e-01  -1.9017457e-01   7.6580548e-02   7.1872274e-01  -1.2371398e-02   6.6879345e-01  -6.4105559e-01   2.7964782e-01  -9.7402563e-02   7.6008584e-01   5.5078879e-01  -8.2165402e-01   2.8351909e-01   6.9667102e-01   4.7050694e-01   1.4519668e-01   3.0389214e-01   1.5160487e-01  -1.4441490e-01  -1.2387050e-01   1.0883911e-02   3.8337913e-01   4.0184659e-01   9.8340445e-01   9.8283024e-01   4.0264123e-01  -8.0718231e-01  -8.7296439e-01   8.0983574e-01  -8.9542699e-01  -1.2828576e-01   6.6999471e-01  -9.7917914e-01  -8.9651497e-01  -7.0367716e-01  -6.5322693e-01  -1.3116438e-02  -6.5235661e-01   6.4509785e-01  -7.2811575e-01  -4.3171591e-01  -3.6087540e-01   6.3686839e-01   3.1110405e-01  -2.5527783e-01   5.8399198e-01  -4.1086036e-02   6.8771441e-01  -7.1110190e-01  -2.5882496e-01  -1.9479791e-01   9.0851152e-01  -3.3248887e-01   8.1972036e-01   7.8735912e-01   8.3665002e-01   1.0954564e-01  -7.0620786e-01   4.5824095e-01   3.5118909e-02  -8.2049005e-01  -1.8872860e-01  -9.5565125e-01  -9.9924854e-01  -4.8568652e-01   2.9502721e-01  -3.8929466e-01   6.6309948e-01  -7.2553174e-01   9.0780843e-01   7.0095550e-01   9.0417806e-01  -5.6397896e-01   1.7186124e-01  -9.8851632e-01  -6.6843191e-01  -1.7891763e-01  -7.8895144e-01  -3.7806691e-01   1.8834068e-01   6.0937187e-01   9.8487914e-01   3.7475799e-01  -6.8519836e-01  -6.3652467e-01   7.5041716e-01  -3.6922571e-01   4.3470457e-01  -9.0897788e-02   9.7139448e-02  -2.4998915e-01  -1.8015157e-01   7.9927526e-01  -9.4945824e-01  -6.9796511e-01  -8.2974726e-01   2.1621541e-01   9.8035040e-01   5.8952045e-01  -1.7299602e-01   9.4342444e-01   9.3715417e-01   6.7979619e-01   9.9190014e-01  -9.4401502e-01  -4.2702695e-01  -9.6970474e-01   3.4238694e-01   2.8430415e-02  -1.6915718e-01  -1.3647998e-01   3.7120164e-02   9.9045845e-01   1.7891022e-01   3.1064446e-01   8.5316645e-01   6.7707120e-01  -6.6615848e-01  -5.8609938e-01   5.1001365e-01   8.0597667e-02  -3.8842202e-01  -7.4735425e-01  -8.6752100e-01  -8.3121699e-01   9.6130650e-01   6.5129089e-01   2.4557064e-01  -5.4753193e-01   1.9203416e-02  -9.1865471e-01  -7.7754362e-01  -1.2667106e-01  -2.1128009e-02   8.8857408e-01   4.5200912e-01  -6.5890944e-01   1.3047244e-02  -3.9400938e-01  -7.2093449e-01   5.7952282e-01  -4.8991740e-01   3.0648608e-01   6.3297044e-01   8.6007414e-01  -5.5245608e-01  -9.1061972e-01   1.0421017e-01  -9.7484453e-01   5.6805131e-01   3.2074498e-01  -2.5931783e-01   5.7737724e-01  -7.2231266e-01   9.3987275e-01   7.1906533e-01   9.8822995e-01  -3.3695410e-01  -9.2168929e-01  -9.0609033e-01  -7.8266756e-01   2.0023795e-01   9.2394508e-01   3.4397733e-02   6.2613315e-01  -6.2453504e-01   4.8449849e-01  -7.4023599e-01  -7.6344421e-01   9.2296642e-01  -7.7209458e-01   6.4297046e-01  -4.1564179e-01   9.4462929e-01  -7.4554180e-01   5.7219340e-02  -3.1629183e-01   4.7104014e-01  -7.3060061e-01   9.2482414e-01   2.4860376e-01   5.9245570e-01  -4.3353447e-01  -4.3982435e-01   2.2712664e-01   4.0186256e-01   6.3332624e-01   9.1242760e-01  -5.5684513e-01   6.4198638e-01  -4.2551261e-01  -2.2959275e-01  -4.2420313e-01   6.5963739e-01  -5.9772081e-01   3.8601156e-01   7.7312071e-01  -9.5949592e-01   7.0757788e-01   3.8891348e-01  -4.6586947e-01  -7.1212804e-01  -9.1563311e-01   4.6306658e-01   6.4251254e-01  -3.6507076e-01   1.4625069e-01  -3.8158568e-01   6.0844684e-01   1.3215063e-01  -9.6028986e-01  -2.4706585e-02  -2.0676587e-01   7.5333375e-01  -3.2665111e-01   1.8653376e-01   3.6861932e-01   6.2721331e-01   5.5350616e-01  -1.5640127e-01   9.5149613e-01   8.4931186e-01   2.4968243e-01  -9.8319218e-01   9.8430241e-01  -4.4372476e-01   2.0763672e-01  -2.5693660e-01  -3.1551313e-01   1.9620921e-01  -3.9269894e-02   3.2047186e-01  -1.5732620e-01   9.6068985e-01   9.0821171e-01   8.6786743e-01  -8.1775588e-01   3.8057959e-02   6.0566297e-01   7.5906706e-01  -1.8611157e-01  -1.0380616e-01   8.1200943e-01  -6.5623878e-01   1.1403558e-01   9.5697517e-01   3.1203373e-01   7.0689765e-01   8.8527442e-01  -6.2929145e-01   8.8389582e-01  -1.9724406e-02  -7.9991998e-01   4.7446056e-01   1.4384098e-02   3.6698744e-01   7.1776541e-01  -6.4745163e-01  -8.9586275e-01   9.5949553e-01  -1.7528952e-01   7.6269123e-01  -8.5797222e-01  -1.8139315e-01  -8.5788146e-01   4.6273000e-01   8.8322084e-01  -1.2418309e-01   3.4774094e-01   9.6791364e-01  -4.3779608e-01  -9.2908741e-01   4.8844749e-01  -8.2958974e-01  -4.3275516e-01   4.9477389e-01  -3.2486292e-02  -2.6897370e-01   6.1440762e-01   1.2527559e-01   2.6447598e-01  -1.6556090e-01  -3.5788166e-01   9.1639706e-01   6.5572816e-01  -7.4883411e-02  -8.5195887e-01   2.7262072e-02   2.2655817e-01   4.1642942e-01   8.7226669e-01   6.8676346e-01  -3.1765612e-01   1.4366609e-01   7.2564122e-01  -3.6532110e-01  -6.2292446e-01  -2.9431376e-01  -6.1182795e-01  -7.6194383e-01  -6.2594921e-03   1.5132391e-01  -9.7823571e-02  -4.0054985e-01  -4.8258367e-01  -6.2055304e-01  -3.4209453e-01   2.6369959e-01  -5.4332512e-01  -2.7219615e-01   1.4606001e-01  -9.2056903e-01  -4.4481334e-01   4.2063411e-01  -7.7526439e-01  -1.2167616e-01   4.5243784e-01  -7.8022445e-01  -3.4041668e-01   2.3359717e-01   5.5212293e-01   6.9034951e-01   2.2267004e-01  -8.7892640e-01   9.7859885e-01  -1.5591156e-01   7.3642364e-02  -5.5102106e-01  -5.5324245e-01  -3.4761342e-01  -4.8125332e-01  -3.5334289e-01   2.8196371e-01  -9.5347458e-01   6.2684839e-02   4.6737656e-01   3.4235754e-01   2.3920889e-01   4.6028102e-01   9.1440966e-01  -4.8887482e-01  -4.2524918e-01   5.6243542e-01   3.9867962e-01  -9.6955661e-01   2.0796631e-01   5.2682773e-01   6.1940670e-01  -1.3827375e-01  -9.2727380e-01   8.6829862e-01  -5.6514514e-01   8.0820539e-01   7.9231351e-01  -8.7205914e-01   9.4883021e-01   8.8218786e-01   3.8093917e-01  -7.6774414e-02   9.7260164e-01  -5.3534576e-01  -3.9164522e-01  -2.2676682e-01   2.5164413e-02   6.6299196e-01  -9.1374342e-01  -3.5827220e-01  -7.9803238e-01   9.9239842e-01   5.2700297e-01   3.9747191e-02  -7.5154542e-01  -8.2653875e-01  -4.0852046e-02   4.8805268e-02  -7.5743435e-02  -6.8481472e-01  -7.6595123e-01   4.2611028e-01   1.3498678e-01   1.3877284e-01  -6.8796447e-03   9.9425281e-01  -4.7287035e-01  -5.0435122e-01   5.8392705e-01  -5.8225409e-01   8.4162813e-01   5.1037073e-01   2.5354946e-01   2.2800726e-01  -7.5468584e-01   4.2017963e-01   5.7743151e-01  -2.9198688e-01  -8.1633822e-01  -8.9385391e-01  -1.1437944e-01  -1.3650500e-01   3.3860398e-01   5.4241489e-01  -2.1866975e-01  -7.2559345e-01  -4.0453760e-01   6.5386733e-01   7.7155178e-01  -2.1810054e-01  -6.3904581e-01   6.9365806e-01   6.9283882e-01  -2.7551037e-01  -1.5859818e-01  -8.7918022e-02   8.6030085e-01   6.5668846e-01  -6.3805243e-01   9.9732500e-01   3.8670040e-01   5.3030212e-01  -7.7927811e-01  -9.8277797e-01   8.3386527e-01   6.2979526e-02   6.7100858e-01  -5.5827188e-01   5.8374497e-01   3.5804261e-02  -5.4989411e-01   4.9905200e-01  -1.2635934e-01   6.2740711e-01  -5.9135335e-01  -7.5560730e-01  -3.5954021e-01  -8.0477302e-01   2.6237618e-01   7.7863321e-01   1.6691868e-01  -9.0621117e-01  -6.6234676e-02  -7.7278442e-02   3.5953328e-01   3.5030947e-01  -1.6805152e-01  -1.2511833e-01   4.0530185e-01   7.7032154e-01   9.6629183e-01   9.5758331e-01  -7.1080038e-01   3.4747599e-01   4.7316880e-01  -7.8757427e-01   5.5071128e-01  -7.0244171e-01   5.0378404e-02  -4.1256001e-01  -9.8771902e-01  -6.0866176e-01  -8.1294629e-01  -3.2187355e-01   3.7316281e-01  -9.2929148e-02   2.7363408e-01  -4.2924970e-01   6.8514933e-01  -8.8962613e-01   5.3257704e-01  -1.7350725e-01  -9.1865000e-01   2.7527320e-01   3.2116086e-01   6.6720633e-01   4.4026608e-01  -8.3491990e-01   9.8274880e-01  -2.4454237e-01  -2.1055064e-02   5.7934292e-01  -6.6507605e-01   8.2965522e-01  -8.5233570e-01  -3.0869281e-01  -3.2056203e-01  -2.7435495e-01   3.0969236e-01  -2.3994059e-01   6.7637045e-01  -3.8360428e-01  -4.6338548e-01  -4.7325316e-02   9.9184986e-01  -1.4043731e-01   7.4732084e-01  -1.3186311e-01   7.3161294e-01   1.1041095e-02   1.3250160e-01   2.9477614e-01  -6.2833656e-01   3.1866765e-02  -4.0201720e-01  -3.4210534e-01   7.2120221e-02  -3.9679100e-01  -4.7364227e-01   1.3759364e-01   8.6893655e-01  -5.9964910e-02   4.9830818e-01  -2.0859864e-01   6.3262429e-01  -2.2580856e-01  -5.5622660e-01  -9.6634148e-01   1.0688955e-01  -3.6163941e-01   8.4462981e-01   1.8728183e-01  -7.2145675e-01   3.9700316e-01  -8.2206141e-01   4.2001395e-01   6.0691891e-01  -6.8555259e-01  -2.7191501e-01  -8.2744161e-01  -5.1322794e-01  -5.4899449e-01   2.8964216e-01  -6.1222819e-01   1.1158814e-01  -1.5577850e-01   6.9005558e-01  -8.8660263e-01  -5.5559384e-01  -3.4699979e-01  -2.2869039e-01  -6.3750937e-01  -9.3865021e-01  -8.4562114e-01  -9.5624402e-01   2.0980653e-01  -6.1548183e-01  -8.8191530e-02  -6.0983922e-01   9.0645134e-01   5.6814030e-01  -1.8884466e-01  -9.4293579e-02  -7.7226808e-01  -3.0045845e-01  -2.7271303e-01  -2.9559292e-01  -8.7717777e-01  -9.6999948e-03  -4.4545168e-01   4.3984616e-02  -6.0472735e-01  -1.6057555e-01  -1.9968972e-01  -7.5970783e-01   5.6313016e-01  -7.4950649e-01   8.4492213e-01   2.5490786e-01  -2.7285059e-01   3.4762552e-01  -9.1639647e-01  -8.2146749e-01   7.1934471e-01   5.8869761e-01   2.4138703e-01   5.4428788e-01  -4.5518673e-01  -8.6526880e-01   4.5139290e-01   9.3606327e-01   5.8057548e-01  -4.1049767e-01  -3.3096537e-01   2.4821507e-02   7.6948841e-01  -8.8961211e-02  -2.2106462e-01  -2.1594799e-01   2.4757423e-02   2.9658060e-01  -5.2203219e-01  -1.4414649e-01   1.5967201e-01  -8.3779932e-01   2.0569565e-01   5.7612084e-01  -8.2964743e-01  -3.6718129e-01  -8.2170768e-01  -2.3622859e-01   3.5214880e-01  -1.5582673e-01  -6.7625211e-01   5.8093179e-01   9.0455529e-01  -9.0682915e-01  -4.9848104e-01   8.8657828e-01  -1.9159243e-01  -6.3077762e-01  -4.8716824e-01  -7.8180928e-01   6.2147269e-01   5.0487088e-02   9.1325062e-01   5.6767808e-01   1.7756995e-01   4.1258235e-01  -4.6869191e-01   1.8447449e-02  -8.5099393e-01  -6.1683382e-01  -9.3507693e-01  -9.6443224e-02  -9.7124995e-01   1.7091438e-01   6.8972075e-01  -5.6505074e-01   7.7981446e-01   8.9043455e-01   4.7231791e-01  -2.5198530e-01  -3.2450123e-01  -9.2911955e-01  -2.6902834e-01  -2.4391719e-01  -9.9228845e-01  -5.3885894e-01  -5.8873920e-01  -6.7347478e-01  -9.5119218e-01  -3.5000157e-01  -2.4009864e-01   4.9798747e-01  -9.4574658e-01  -3.2592609e-02   8.7113048e-02  -1.8856662e-01   5.8401229e-01  -3.1870066e-02  -7.3627426e-02  -5.1421034e-01  -9.9393914e-01   9.7726462e-01  -1.6487479e-01  -2.0140301e-01  -6.0812375e-01   9.3583866e-01  -4.6568933e-01  -2.6675556e-01  -4.1622915e-01   9.3666744e-01  -3.5054339e-01  -1.2302807e-01   5.0292028e-01   1.7794423e-01  -2.5686835e-01   8.8378845e-01   2.9509353e-01   6.5970586e-02   1.1443236e-01   6.2511785e-01  -6.8306540e-01  -7.3283561e-01   7.2637080e-01   8.2193772e-01  -5.5218404e-01  -3.5886794e-01  -4.1364897e-01   8.3223246e-02  -5.7151359e-01  -1.0946585e-01  -3.8353116e-01   9.2750774e-02   8.7774066e-01  -4.1935159e-01   7.1597997e-01  -3.8085507e-01   5.8722130e-01   5.8171510e-01   7.5236136e-01   2.2574791e-01   8.0666906e-01   4.1471057e-01  -1.2952129e-01  -8.3485246e-01  -9.6239943e-01   9.7784302e-01  -5.4852667e-01  -2.2046470e-01  -4.2788449e-01  -9.5655835e-01  -4.1879908e-02   4.5440971e-01   9.1666626e-01  -4.3250455e-01  -4.8728709e-01   1.2929906e-01  -5.2021708e-01  -8.6549917e-02  -5.5220938e-01  -1.7129757e-01  -3.2991132e-01  -6.9239375e-01  -1.1211727e-01   4.0788305e-01   3.1041622e-01  -1.9102540e-03   5.1864860e-01  -2.2517580e-01   4.4100079e-02   4.3514266e-01   2.3451514e-01   9.5081517e-01  -9.2972144e-01  -5.2688609e-01  -7.5460204e-01  -2.2389770e-01  -9.7719615e-01   5.3522263e-01   5.5322761e-01  -4.0329646e-01   4.1164356e-01  -6.3593462e-01   3.5326078e-01  -7.9707830e-01  -7.9540936e-01  -8.6310103e-01  -7.5169352e-01   9.9099318e-01   1.8427363e-01  -6.1154575e-01   3.3263666e-01  -3.3813948e-01   5.9191766e-01  -5.4479188e-01   4.8342722e-01   9.3109621e-01  -3.6220484e-01  -2.4094398e-01  -8.4773803e-01   1.4217911e-01  -4.2373816e-01  -5.4585571e-01   2.9036973e-01   5.4644963e-01  -6.4735049e-01   9.0227543e-01  -8.0699808e-01   5.7884613e-01   2.0816201e-01  -2.5031810e-01   1.1600862e-01  -6.3416057e-01  -7.4680429e-01   9.7029320e-01   3.4207101e-01   2.1823821e-01   4.1763259e-02  -2.6032523e-01   2.2538590e-02  -2.4290269e-02   8.4896472e-01  -8.2288813e-01  -4.9849175e-01  -3.6875498e-01   1.0784673e-01  -6.5560047e-01   3.9325530e-01   8.8535895e-01   6.3243049e-01   3.3807090e-01  -5.0771320e-01   3.1576680e-01  -3.6187283e-01  -3.9675433e-01   4.1514624e-01   9.4820099e-01  -6.5026506e-01   7.2636788e-01   2.4541506e-01  -3.7711513e-01   4.0029556e-01  -6.3486774e-01   8.0511066e-01  -8.0321172e-01   5.9719786e-01   9.3573498e-01  -8.4984359e-01   7.0026504e-01   6.1772066e-01  -1.0373566e-01   6.1623219e-01   1.5815455e-01   4.7813581e-01   3.1409214e-01  -4.0499643e-01   3.4080919e-01  -3.7574340e-02   5.4566341e-01  -5.4279606e-01   8.1967376e-01  -5.6751333e-01   1.4829862e-01   1.4344440e-01  -6.8483962e-01  -9.2906086e-01   2.7502840e-01  -1.3363712e-01  -3.9773153e-01   6.6299046e-01  -3.0119575e-02   9.1271386e-01   8.1139902e-01   1.6484891e-01  -5.2923568e-01  -6.7118579e-01  -1.1902028e-01   6.7424287e-01  -9.2395579e-02   6.1165465e-01  -9.6801856e-01   9.4469671e-01  -7.0466429e-01   1.9709468e-01  -7.0503616e-01   7.0415200e-01  -5.0166160e-01  -9.2308484e-01   7.8880645e-01   6.7124658e-01  -6.1573717e-01  -4.6251102e-01   4.6854705e-01   5.2576552e-01  -8.4484934e-01  -6.4427215e-01  -7.2308745e-01   9.1688532e-01   4.3422967e-01   9.5885368e-01  -3.0466107e-01  -8.0513725e-01   8.3722786e-01   3.4741632e-01  -3.7782648e-01   3.8888841e-01   3.5000659e-01  -8.5530561e-01   5.7757288e-01  -3.1154386e-01   4.1654825e-01   2.5557139e-01   8.9450654e-01   4.9751079e-01  -8.6653239e-01
   9.7780141e-01  -5.5151049e-01   7.5140168e-01   1.1134632e-02  -6.9534336e-01  -6.1427250e-01   5.0536925e-01   8.1138070e-01  -5.3674235e-01  -5.4157101e-01  -9.5504081e-01  -5.7191538e-02  -3.0014869e-01   9.5450477e-02   3.4776823e-01   2.0876574e-01   1.1363828e-01  -4.5591574e-01   9.9373661e-01   4.5479511e-01   2.7961760e-01   8.8966594e-01   4.0733974e-02   1.0536750e-01   6.7880379e-01   8.8731457e-01  -2.9951754e-01   1.1457367e-01   4.4184583e-01  -1.6305260e-01   2.0004183e-01   3.1810066e-01   2.0786001e-01   1.5811140e-01  -4.5752486e-01   5.5681293e-01  -7.3764358e-01   2.9456597e-01  -3.3775335e-01   7.9051453e-01   9.3538030e-02   9.7241322e-01  -9.5637370e-01   4.2526487e-01   6.0874617e-01   7.5428369e-01  -5.2436202e-01   2.5750013e-01  -9.7187331e-01  -8.7906542e-01  -3.0917221e-01   7.7743724e-01   1.8490963e-01  -7.4072566e-01   2.4946193e-02  -3.9828235e-01  -7.6223561e-01  -3.2272982e-01   5.4264639e-02   3.8637284e-01  -9.4607162e-01   9.9048205e-01  -3.8251194e-01   9.6227273e-01  -9.0050937e-02  -1.4863987e-01   2.7856048e-01  -6.3815207e-01   9.5087913e-01   4.2842859e-01  -1.4760178e-01  -3.5739478e-01  -8.5854484e-01   2.5523285e-01  -2.1859274e-01   2.0999531e-01  -4.7605891e-01   9.2043132e-01   1.3157942e-01   9.8414554e-02  -8.5474751e-01  -8.9925969e-02   1.2146751e-01  -5.6010077e-01  -3.0273757e-01   5.5226460e-01  -3.9497176e-01  -7.3425055e-01   4.3419904e-01   4.7216144e-01   2.3820704e-01  -8.2660053e-01   8.2040455e-01   2.5973915e-01   7.0903111e-01  -1.8195096e-01  -5.5857765e-01  -8.4330558e-02  -6.5398495e-01   6.3079020e-01   7.0773751e-01  -3.0495336e-01  -2.4912600e-01   5.1400977e-01   8.8450516e-01  -3.7136436e-01   4.6112920e-01   2.2842180e-01   5.8056670e-01   5.8465802e-01  -8.7981469e-01  -4.1627796e-01   1.0298461e-01  -4.9314677e-01   4.9579422e-02   1.5565690e-02   7.1842163e-01  -4.7929070e-01   5.1130027e-01   8.7131634e-01  -4.8532889e-01   2.0941314e-01   5.3981828e-01  -7.5190143e-01  -9.5479377e-02   9.9728461e-01   1.2105650e-01  -2.5233023e-01  -8.0727825e-03  -4.3052265e-01   9.1476110e-01  -1.4252025e-01   2.6264790e-01  -2.6122342e-01   7.0321931e-01   5.0764984e-01   3.3886069e-02  -6.0650978e-01   7.3689463e-01   6.0587610e-01   2.2536828e-01  -1.0896249e-01  -8.6690484e-01  -5.4546704e-01  -8.5963580e-01   3.0101313e-01  -5.8394721e-01  -5.8707344e-02   8.4649331e-01   2.0904963e-01  -8.6841531e-01   9.9730164e-01  -4.4292012e-01   7.9884804e-01   7.8205067e-01  -5.9050586e-01   7.3453631e-01  -3.2931620e-01   3.9111935e-01  -1.5993358e-01  -2.8185493e-01   5.7252130e-01  -7.9723439e-01  -4.4484389e-01  -2.8652105e-01  -6.1299498e-01  -3.3201529e-01  -2.0681779e-01   2.8070545e-02  -6.9454328e-02  -4.9517401e-01  -1.5503119e-01   7.8571807e-01   2.9360200e-01  -7.8228868e-01  -1.6025516e-01   8.8280999e-01  -7.1569217e-01   7.3844336e-01  -8.4616464e-01   7.5932764e-01   1.4039074e-01   2.3872519e-01  -6.5184186e-01  -4.7360482e-01   7.8778637e-01  -8.1673965e-01  -6.1215305e-01  -5.0531047e-01  -5.6637607e-01   2.3046806e-01   3.3237226e-01   6.8731156e-01  -2.0049663e-01  -2.1425047e-01  -5.2080192e-01   1.1366546e-01   5.2033264e-01  -5.7064044e-01  -4.5654030e-01   8.1362292e-01   8.3385169e-01  -6.0032206e-01  -5.1459234e-01   5.4435422e-01  -1.4729903e-02  -7.4677586e-01  -8.6830988e-01   4.5276358e-01  -2.6067310e-01  -9.9399866e-01  -3.0547585e-01   4.8171157e-02   8.5925030e-02   6.0620543e-01   8.7670858e-01  -9.7717428e-01  -9.0705628e-01   5.1307562e-02  -8.0240617e-01  -4.1029552e-01  -5.9204748e-01   5.4155414e-01  -4.4882671e-01   5.6740299e-01  -7.0420468e-01   5.8521016e-01   7.2869997e-01  -1.9824783e-01   4.2677300e-01  -1.2546254e-01  -2.3460487e-04  -4.3931001e-01   4.1610439e-01   6.0698555e-01   4.0537675e-01   2.8567271e-01  -3.5180741e-02  -1.9456945e-01  -7.0483669e-01   4.4965806e-01  -6.2199118e-01   5.7288118e-03  -8.9520177e-01   3.9613253e-01   2.3313279e-01  -4.5438845e-02  -1.0988303e-01   7.6351093e-01   6.9962791e-01   2.2206570e-01   3.6977002e-01   8.6595432e-01  -9.5915947e-01   3.5706869e-01   8.2690598e-01   2.3758972e-01   6.8484407e-01   5.1728292e-02   3.4105103e-01  -1.1742285e-02   1.7218467e-01   5.1614465e-01   5.6594882e-01   4.7577601e-01  -5.0795714e-01  -6.1919377e-01  -9.1826521e-01   6.5630725e-01  -6.6871396e-02   6.4987004e-01   1.2845285e-01   3.2961290e-01  -8.7341977e-02   8.3010674e-01  -6.1923951e-02  -9.3228616e-01   3.4857886e-01  -1.2925379e-01  -2.5466982e-02  -8.7552568e-01   5.2706961e-01   5.7431718e-01   3.2281254e-01  -3.8192594e-01  -5.6954675e-01   2.7929445e-02  -6.7952016e-01   6.9249584e-01   2.8725171e-01  -9.1293252e-01   1.1154815e-04  -8.1193925e-01  -4.5748670e-01   9.2186002e-01  -5.3760149e-01   2.2534808e-01  -6.0944596e-01  -3.9567391e-01   3.5441733e-01   9.3173680e-01   2.8904193e-01  -4.0903529e-01  -1.7083891e-01   5.0359647e-01   1.7502950e-01   7.5847386e-01  -9.7884953e-01  -6.4401420e-01  -6.7239721e-01   3.3240175e-01  -6.9583646e-01   9.9005288e-01   6.5585538e-01  -3.7526022e-02  -7.5596045e-01   5.1291516e-01  -7.3435476e-01   2.0777404e-01   5.5331724e-01   2.4409685e-01   1.8672200e-01  -8.2806973e-01  -6.6387699e-01   7.1927389e-01  -9.1914500e-01  -6.6242882e-01   8.4192686e-01   5.2787340e-01   6.8446214e-01   1.3777933e-01   7.6486809e-01   7.1854169e-01  -5.5102438e-01   1.6511252e-01  -6.0847301e-01   7.4687190e-01  -1.9665791e-01   6.5965477e-01   4.4562521e-01   2.1827858e-01   1.4405873e-01  -5.1198612e-01  -4.5396478e-01   1.4709435e-02   7.5172923e-01  -8.7758857e-01  -3.4684477e-01  -1.8314871e-02  -2.5903125e-01   7.3899441e-01   8.2475665e-01  -3.5898283e-01   9.7532097e-01  -1.3345422e-01   8.3880585e-01   2.4936566e-01  -4.0182920e-01   8.1033392e-01  -3.5548858e-01   9.8298942e-01  -8.8985370e-01  -6.1992113e-01   1.9457527e-03   7.2502068e-01   5.2681715e-01   3.9704601e-01  -2.9609205e-01   6.2244994e-01  -7.0337058e-01  -7.4987149e-01  -2.7240569e-01   9.9395501e-01  -2.6173065e-01  -2.0910813e-02  -5.0162480e-01   8.5903869e-01  -8.0597682e-01  -1.3106288e-01  -7.6664774e-01  -2.1156199e-01   8.1076990e-01  -4.9274036e-01   1.3512333e-01   5.3472856e-01  -8.8611245e-01  -4.8783693e-01   6.4604914e-01  -3.8221831e-01   9.2947522e-01  -9.1703736e-01   9.7801908e-01  -2.7968760e-01   1.6474296e-01  -9.3721528e-01  -1.3765601e-01   4.4867997e-01  -4.9869547e-01  -6.7366551e-01  -6.0469849e-01   7.1319116e-01   1.0852122e-01  -2.0417054e-01   6.7782510e-02  -5.5880018e-01   6.1003500e-01   7.4359810e-01   1.4324407e-01   8.7770191e-01  -7.1169752e-02  -6.5649617e-01   8.1254977e-01   4.3491883e-01  -3.6871882e-01   2.9317786e-02   6.5726836e-01   5.1792723e-02  -6.5669788e-01   2.5188461e-01  -3.9508264e-01   4.6002656e-03  -4.5848913e-01  -4.7882625e-01  -1.8204123e-01   7.1749403e-01   4.9651227e-01   5.9321023e-01  -8.3055680e-01  -8.0175363e-01  -4.3370158e-01   9.0261215e-01  -6.7857338e-01  -4.8518533e-01  -7.3368382e-01  -6.2785483e-01  -1.0840165e-01  -8.7277622e-01  -4.9050763e-01  -6.1597542e-01   6.3392691e-01   5.7698680e-01  -5.3264666e-01   6.6360164e-01   9.1111229e-01  -6.1233321e-01   9.0241339e-01   9.6838418e-01  -8.2356849e-02  -9.0991833e-01   4.0355986e-01   8.5587034e-01  -7.3409212e-02  -1.6067311e-01   3.4542587e-01  -3.2139741e-01   9.9038660e-01   6.8460144e-01   4.6413527e-01  -1.6197006e-01   8.3929089e-01  -5.2609321e-01  -3.5426164e-01  -2.0625220e-01   6.2570687e-01  -8.7719514e-01  -6.1430760e-01   1.7488185e-01   9.0395221e-02   8.9308982e-01   3.4245864e-01   5.8612504e-01  -4.5264386e-02  -5.6955954e-01   6.5302473e-01  -3.0417960e-02   7.3393007e-01   1.9231853e-01  -8.8921675e-02   7.6426603e-01  -4.3091928e-01   3.7873745e-01   2.9578488e-01  -5.3800421e-01  -2.8435890e-01   8.5221239e-01   4.9172786e-01   2.0111220e-01   7.2824842e-01  -8.8167824e-01   9.6125866e-01   3.8904095e-02  -3.0403053e-01   6.9853604e-02   1.4357082e-01  -4.7932774e-01  -1.9862178e-02   9.5214885e-01  -9.4495038e-01   9.1287203e-01   6.0741069e-01   1.0655586e-01  -9.6417232e-01  -3.5626159e-01  -2.8585044e-01   6.6346924e-01  -8.8914966e-01  -5.0701813e-01  -3.9343926e-01   9.8115809e-01  -2.4546644e-01   9.1768445e-01   4.8149852e-01   4.5112072e-01   5.1794752e-01   6.3554991e-01  -5.8420691e-01  -8.1112113e-01  -8.3348021e-03  -2.4413791e-01  -4.7968107e-02   9.3041110e-01   1.8092740e-01   2.7029327e-01  -7.2139290e-02  -4.6318525e-01  -7.0015204e-01   3.4901608e-01  -9.4541528e-01   5.8732672e-01   5.5293968e-01   3.1206147e-01  -9.7144458e-02   1.0972553e-01  -8.7849441e-01   2.7200952e-01   3.8172603e-02  -5.8127114e-02  -7.8680011e-01   3.3531823e-01  -9.6753219e-01   3.7541904e-02   9.2154439e-01   3.3644477e-01  -8.0790728e-03  -9.2955048e-01   1.3838982e-01   2.6394002e-01   5.7296803e-01   7.5545496e-01  -9.0690017e-01   3.0519314e-01  -7.5905151e-01   3.9175414e-01   2.8582834e-01  -2.2954747e-01   1.3595113e-01  -6.0818077e-02   6.0205179e-01   7.4715049e-01  -3.2646837e-01  -2.7978200e-01  -2.1791464e-01  -8.6597488e-02   6.5276215e-01  -7.1831262e-01   2.2879419e-01  -8.4121859e-01  -2.8342484e-01   3.0120755e-01   6.7690985e-01   3.0476100e-01   4.7562756e-01  -4.5300161e-01   1.6282147e-01   1.8185379e-01  -1.3949888e-01  -1.0336214e-01   6.6459095e-01   2.1323524e-01  -8.8042618e-01   4.6094994e-01   6.0716820e-01  -3.1581436e-01  -6.6120736e-01   6.0409491e-01   8.2072688e-01   9.4676593e-01   1.1568835e-01   6.0789860e-01   1.1069462e-01  -1.4230906e-01   4.1017229e-01   9.9086648e-01   5.4168712e-01   9.1493504e-01   8.5517975e-01   4.2449287e-01  -1.4208426e-02  -4.4710913e-01   6.1972779e-01  -5.1009209e-01   6.7284272e-02   5.9818306e-01   6.8781819e-01  -9.5412749e-01   3.6839426e-01  -2.0421147e-02  -2.9859906e-01   1.1772817e-01   8.0559615e-01   1.7749477e-01   7.4177433e-02  -8.8498358e-01   6.2730582e-01  -6.3681840e-01   3.1271172e-01   9.7173658e-02   9.2777688e-01  -4.7184031e-01   8.8154659e-01   5.1404460e-01   7.9839618e-01   1.9593620e-01  -3.8493618e-01   3.0282970e-01  -8.2487062e-01   5.4655819e-01   5.0695626e-01  -2.3136370e-01   1.7371579e-01  -3.9312626e-01   5.8164498e-02  -6.1080329e-01   3.5827129e-01  -2.6757588e-01   1.4269108e-01   5.0743441e-01   6.5900121e-01  -7.3199985e-01  -7.9072619e-01   1.7963585e-01  -5.0289666e-01   1.8961741e-01  -9.7670902e-02  -4.3980065e-01   1.4582101e-01  -6.2001451e-01   2.4589629e-01   7.0843266e-02  -2.9680083e-01  -3.2012580e-01   1.4678504e-01  -4.1146952e-01  -3.8195231e-02   4.4699821e-01  -9.6842068e-01  -6.2471515e-01  -1.8424132e-02   8.1076227e-01   1.6045081e-02  -3.6390254e-03  -4.2044296e-01  -1.0526767e-01   6.9005067e-01   6.1297373e-01  -4.9582043e-01  -8.2919941e-01   3.4135436e-01   8.5322617e-01  -4.6659597e-01   1.7921781e-01   1.8538619e-01  -9.9187223e-01  -3.6081948e-01   6.9016814e-01   6.0451035e-01   4.0783910e-02  -5.8007972e-01  -7.4711302e-01  -3.4333591e-01   9.4784374e-01  -6.1894660e-01  -6.5081245e-01   7.6931685e-01  -8.5335547e-01   9.8110268e-01   6.1725122e-01  -3.5111921e-01  -2.5162077e-01  -3.0070792e-01  -4.4110017e-01  -7.8637846e-01   9.5241122e-01   7.4250525e-01  -6.9206889e-02   7.6082800e-01  -1.9965017e-01   6.4415889e-01   5.5925136e-01   8.5642833e-01   5.4708621e-01   6.6025867e-01  -8.6681178e-01  -5.4200526e-01   8.4748326e-01  -8.7389954e-01   2.3360329e-01   1.7848863e-01  -5.9687082e-01  -4.1907963e-01   5.7303142e-01  -9.8382689e-01   1.1690058e-01  -6.8334506e-01  -8.9877074e-01  -3.3723328e-01  -6.6525393e-01   1.9876451e-01  -6.3527896e-01  -2.8161535e-01   7.6714096e-01   1.2263878e-02   5.0445255e-02   4.8241548e-01  -3.7202886e-01  -9.4563443e-01   3.9985249e-01   3.5405924e-01   6.3077876e-01   6.3717717e-01   8.5346495e-01  -8.1672428e-01   1.2457450e-01  -5.3656926e-01  -4.7347487e-01  -5.6764681e-01   5.6424127e-01  -1.0311917e-01  -6.8045394e-01  -5.8559111e-01  -9.3091556e-01  -5.5746505e-01  -7.7802828e-01  -7.3267783e-01  -2.5743560e-01  -2.7437019e-01  -6.3448100e-01   4.5197908e-01  -8.9707924e-01   3.7444046e-01   5.8434954e-01   6.2750885e-01   3.6919803e-01   6.0185701e-01  -9.6840942e-01  -9.8471746e-01   1.8587146e-01  -4.4300187e-01   2.5052076e-01  -6.7270235e-01   8.6051368e-01  -6.1699013e-01   7.5295635e-01   3.9977430e-01   5.4899121e-01   9.5977470e-01  -5.4336693e-01   2.3306903e-01  -6.3114886e-01   3.6471096e-01   9.6220623e-01   3.0004425e-01   6.4836417e-01   6.7357042e-01  -3.3937426e-01  -3.3702159e-01  -5.9318899e-01   8.8529396e-01  -5.8817564e-01  -5.5319352e-01   2.7336835e-01  -1.6499427e-01   2.2900841e-03   6.4553765e-01  -3.8804952e-01   7.2193186e-01   7.9357507e-01   2.2825181e-01   7.5119751e-01  -6.4676197e-01  -3.3323617e-01  -8.1887301e-01   6.3347154e-01   1.0101931e-03  -9.3201316e-01  -7.9478448e-01   8.4657365e-01   6.5366057e-02  -3.3835019e-01   9.2851014e-01   2.4446279e-01  -7.9303093e-01  -3.9023703e-01  -1.6601201e-01  -4.8496737e-01  -7.3857248e-01  -4.9176654e-01   1.3732558e-01   9.4690493e-01   7.8110709e-01  -8.2949019e-01  -4.7342873e-01   7.9935864e-01   5.5610254e-01   1.4427403e-01   2.5585331e-01   6.0296787e-02  -5.2698986e-02   4.0672401e-01  -2.2195205e-01  -4.6045922e-02   1.5709189e-01  -4.2371186e-01  -9.5472653e-01  -8.4941277e-01   8.6745427e-01   3.7829656e-01  -4.6476952e-01   4.8363520e-01   6.2772410e-01  -1.1823757e-01   2.0989239e-01  -1.9968471e-02  -5.2873887e-01  -2.2818901e-01  -5.8462222e-01   2.1415631e-01  -3.1407024e-01   5.3596599e-01   1.4624192e-01   4.3057247e-01   8.6537836e-01   2.1877187e-02  -5.2853585e-01  -2.8654768e-01  -6.7608370e-01  -7.5750218e-02  -7.7809492e-01   9.3545865e-01   3.4819975e-01   1.0771518e-01  -9.3493537e-01   9.3069404e-02  -9.5215057e-01  -7.5685237e-01  -9.5784922e-01  -1.5144525e-01   1.8848590e-01   5.0029015e-01   9.5899562e-01   9.4654119e-01   8.5437474e-01  -4.9386599e-01  -9.5795866e-01  -4.8404492e-01  -8.0950689e-01   9.3404863e-01  -8.5314420e-02   8.6801208e-01   4.7163624e-01   1.4293491e-01  -4.9637697e-02   6.5573654e-02  -1.0415752e-01   7.2999342e-01  -6.3931410e-01   5.8481338e-01  -2.4484461e-02   4.8902999e-01   2.4852042e-01   9.5550038e-01  -5.1111657e-01   9.1130068e-01  -1.4391067e-01   9.5411945e-01  -3.1915864e-01   9.4800370e-01  -8.3528765e-01  -1.4339146e-02   4.2694102e-01   6.7511694e-01  -2.2671700e-01  -6.8670960e-01  -6.4007249e-02  -4.1744530e-02   8.0284794e-01   8.5244050e-02  -4.0232811e-01   6.4369747e-01  -9.4059546e-01  -3.8746514e-02   2.9943672e-01  -7.0072498e-01   2.3078182e-01   3.1588781e-01  -8.3516839e-01   2.3168470e-01  -3.9153116e-01  -9.0429412e-01   2.3076252e-01   1.7639719e-01  -4.1100038e-01  -7.4810122e-01  -2.4114320e-01  -9.7218469e-02  -5.3377888e-01   9.9430272e-01   3.4961362e-01   7.3920274e-01  -8.4406089e-01   4.4650444e-01   1.7727406e-01   3.7388325e-01  -6.3826872e-01   4.4565996e-01   6.6952287e-01   8.1209398e-01  -5.8127207e-03  -5.8402432e-01  -3.6365957e-02   5.9403197e-01   4.8515396e-01   2.5531666e-01   9.7163489e-01  -6.1695871e-01  -9.6782736e-01  -6.8875047e-01  -7.4835405e-01  -9.7409074e-01  -9.1538262e-01   2.3685943e-01  -7.2249001e-01   3.3941697e-01   5.5576442e-01  -7.0565872e-02  -5.5821641e-01  -4.7889704e-02   9.7991343e-01   6.7756872e-01   7.0964118e-01   8.9616524e-01   8.1015248e-01   3.9281897e-01   8.5209762e-01  -2.4212239e-01   8.4595808e-02   5.2514469e-03  -5.5069200e-01  -5.7440154e-01  -9.7654719e-01   7.5832157e-01  -3.3344114e-01  -3.1867475e-02  -7.3016470e-01  -7.7779542e-01  -5.0384658e-01  -2.2186821e-01  -1.8983592e-01   2.0435624e-01   1.4999212e-01  -6.8091236e-01  -2.2953169e-01  -7.3354123e-02   3.6639673e-01   5.0367835e-01   1.6341454e-01  -1.2824057e-01  -4.0936007e-01  -5.0092837e-02  -6.7964420e-01   6.6102578e-01   6.1735081e-01  -3.6338243e-02  -8.1083282e-01  -3.7961085e-01   5.5923250e-02  -2.7105406e-01   1.4518691e-01   9.9735146e-01   4.8444828e-01   6.8970007e-02  -1.3297380e-02   3.5396246e-01  -6.9609771e-01   7.2801578e-01  -2.1285366e-01   3.2705489e-01  -3.8362010e-01  -2.2806130e-01  -8.9477664e-01
   1.7346728e-02  -1.9714080e-03   1.3591390e-01  -1.7666152e-01   1.4408207e-03  -7.6797994e-02  -4.2158615e-01  -1.7909090e-01   9.3785847e-01   3.8033314e-01   5.0805167e-03   9.9787307e-01   7.9452388e-01  -4.1692305e-02  -2.0509328e-01   9.4385442e-01   9.5501098e-01   4.9679400e-01   7.5411919e-01  -5.8135559e-01   1.4979452e-01  -6.4925589e-01  -4.8888220e-01   6.0345094e-01   6.5402369e-02   5.4223058e-01  -6.8600415e-01  -2.9401836e-02  -5.3219257e-01   7.4476376e-01  -8.3198894e-01  -6.0207652e-02   6.2836307e-01   6.6580232e-01  -8.7282894e-02  -8.0682345e-02  -2.4675725e-01  -9.7605300e-01  -9.9225675e-02  -6.1023957e-01   2.3724505e-01  -5.9860904e-03  -2.7949028e-01   2.9579237e-02  -7.4044365e-01   4.7917043e-01   5.0539128e-02  -6.7583302e-01   4.8119259e-01   3.6641430e-01   6.2402022e-01   6.1974741e-01  -4.8561381e-01   8.8428804e-01   6.7979374e-01   4.9211901e-01  -4.4061116e-01  -4.0462852e-01  -5.2022041e-01   5.5588928e-01  -1.5777232e-01   9.0422755e-01   7.2760998e-01  -7.7110050e-01   8.4087898e-02  -7.2656600e-01  -5.1436081e-01   8.3974995e-01   3.2290733e-01  -5.7017070e-01  -4.9865245e-01  -1.1822946e-01  -8.3526579e-01  -9.1045492e-01  -5.6811241e-01   8.9109952e-01   2.1180528e-01  -1.4469228e-01   6.6194700e-01  -4.1735913e-01   4.3369821e-01   1.7599522e-01  -8.3927719e-01  -3.1801944e-01  -1.3395049e-01   6.0506655e-02  -7.2890219e-01  -6.2451275e-01   1.0568280e-01  -3.6060466e-01  -5.9572425e-01  -7.2771200e-01  -9.1990585e-01  -5.0610529e-01   5.8030723e-01  -5.7176655e-01  -3.0698291e-01  -7.3921639e-01   5.7780476e-01   4.6042754e-01  -9.5731327e-01  -5.8015805e-01   5.5605868e-02   5.2053568e-01  -1.2946856e-01   2.7522513e-01  -8.7171544e-01   9.5376929e-01  -2.5593652e-01  -2.2654521e-02  -3.1245000e-01  -2.6164121e-01  -1.3411799e-01  -1.8110542e-01  -9.8534064e-01  -8.6070430e-01   3.5107953e-01   7.5323359e-01  -1.2591035e-01  -7.3974578e-01   4.8569229e-01  -7.2686427e-01  -1.2995901e-01   8.0167813e-01   1.9817961e-01  -5.4344765e-02  -6.2242236e-01   3.5865683e-01   3.9931005e-01  -8.4011098e-02   6.9252024e-01  -1.1678406e-01   5.5389635e-01   7.7400105e-01  -4.7545784e-01  -2.3137459e-01  -4.2918258e-01  -7.5208664e-01   3.2631028e-01  -1.8796910e-01   9.9802350e-01   7.8383616e-01   7.0993735e-01  -2.6094752e-01  -4.2616427e-01   7.6807240e-02   3.1310745e-01  -6.1791223e-02  -9.2973543e-01   4.9345308e-01  -1.5758006e-01   4.0486961e-01  -1.2114528e-01  -3.4104546e-01  -7.1552287e-01  -5.7688410e-01  -1.9492268e-01  -7.5627065e-01  -9.4173420e-01   4.2947705e-01   3.0290263e-01   9.9053905e-01   4.3728698e-01   4.8437064e-01   4.9122964e-01  -5.5619662e-01  -5.2333259e-01   7.2207330e-01  -7.2930762e-01  -3.7692402e-01   8.3948275e-01  -1.6489185e-02   3.1912554e-01  -2.3135424e-01  -1.7256220e-01   1.5769158e-01   2.7298353e-01  -4.0318117e-01  -7.2608319e-01   1.3733726e-01   2.0421958e-01  -7.2985499e-01  -9.2237324e-01   3.1847067e-01  -9.5737555e-01  -7.4987766e-01   1.7008958e-02  -1.5600382e-01   6.4382879e-01   7.3774244e-01  -3.3112331e-01   2.0504220e-01   9.4785074e-01   1.6904785e-01  -2.3927806e-01   3.0740446e-01   3.6212175e-01   4.2926511e-01   8.4009179e-01  -6.1752249e-01  -4.0892549e-01   6.3071727e-01   6.8678306e-01   5.6484394e-01   5.3329769e-02  -8.9866133e-01   7.9939563e-01  -2.4750600e-01  -7.4063250e-01  -9.3492646e-01   9.6306191e-01   7.2420981e-01   1.0324329e-01  -9.2588426e-01   6.2336004e-01   3.6125460e-01   1.3672530e-01  -7.4352698e-01   8.1977743e-01  -4.2146865e-01  -2.8477930e-01   6.4496926e-01  -9.3131516e-01  -8.9395217e-01   9.0761152e-01  -8.3272773e-01  -4.8261378e-01  -7.3598891e-01  -2.4026932e-01  -6.4989802e-01  -9.5547833e-01  -7.8293797e-01  -8.0650680e-01  -9.2766306e-02  -8.9653516e-01   8.1796994e-01   4.4243630e-01  -4.7161409e-01  -3.1897961e-01  -5.6213087e-01   1.3038958e-01  -6.9134884e-01  -8.6563559e-01   8.4154336e-01   8.9269592e-01  -3.9108041e-01  -7.7871582e-01  -1.5882556e-01  -5.9973257e-01  -1.3758085e-01  -3.0454906e-01  -5.4345337e-01  -8.5173692e-03   8.2209714e-03  -9.5970524e-01   3.2104974e-01   4.8787923e-02  -9.0713537e-01  -9.0094602e-01   9.4934205e-01   8.7122736e-01  -8.9778809e-01   9.9365064e-01  -5.9595863e-01   2.0999647e-01  -7.3628758e-01   9.2939403e-01   1.5212750e-01   4.1539653e-01  -9.4594211e-01  -1.0451241e-01   6.8746972e-01   7.0608495e-01   8.7262569e-01   2.0883748e-01  -5.0134120e-01   4.0076366e-01   5.6078664e-01  -1.6311216e-01  -6.5176177e-01   1.5140525e-01   3.0436585e-01   9.6201717e-01  -4.3420618e-01   5.0906915e-01  -1.1533748e-01   2.1336605e-01   2.4871445e-01   3.9057921e-01  -4.2487165e-01  -1.4114469e-02   4.2064027e-01  -8.5284720e-02  -7.8372150e-01   8.8290508e-01  -4.1280452e-01   8.8054971e-02  -5.8061059e-01   3.3604475e-01   6.0759710e-01   7.0125674e-01   3.7379116e-01  -6.0168745e-01  -2.1642211e-01  -5.9006531e-01  -8.4569352e-01   6.5160350e-01   4.3085350e-01   2.9062763e-01   9.9960098e-01   9.4969615e-01   7.3059916e-01  -4.7448790e-01  -3.2097190e-01   2.0276917e-01   3.7330120e-01   4.5652817e-01   1.8314908e-01  -5.2558452e-01  -8.4709897e-01   5.5441464e-01   6.7566467e-01   3.4479164e-01  -5.5194925e-01  -6.0969357e-01   8.0183742e-01  -9.5218909e-01  -9.2033880e-01  -1.1309156e-01  -8.6646106e-01  -1.1665836e-01  -5.5961923e-02  -3.8930391e-01   2.0496506e-01   1.3545845e-01  -3.7309979e-01   7.5728713e-01  -6.2862809e-01   5.8632681e-01  -2.1803601e-01  -4.8704353e-01   7.7741513e-01  -9.5373698e-01  -7.8220110e-01   6.4351058e-01   6.2227958e-01   6.0687340e-01  -9.6121386e-01   9.8063115e-01   7.5594257e-01  -5.8160712e-01   3.4999401e-01   7.1440897e-01  -4.1241374e-01   8.8092734e-01  -9.2794751e-01   7.9055182e-01   5.1404684e-01   5.4260869e-01  -8.1037581e-01   4.1328930e-01   5.1580346e-01   6.5062301e-01  -3.9704401e-02   6.6322780e-01   9.2178285e-01  -6.1740683e-01   1.7640607e-01   4.5410185e-02   2.4417124e-01  -1.1095513e-01   9.4696566e-01   9.9373402e-02  -8.8740563e-01  -7.2180073e-01  -4.9218091e-01  -2.7079608e-01   3.6158598e-01  -4.9047160e-01  -4.1703506e-01  -2.9304129e-01  -4.6678508e-02  -6.6888700e-01  -1.9758709e-02  -7.5790566e-01   5.2151375e-01   3.5378757e-01   4.1107265e-01  -1.8695008e-01  -3.6530402e-01  -3.7512620e-01   6.8387462e-01  -4.5888926e-01   9.4777042e-01   2.3996349e-01  -2.5411930e-01  -4.7026384e-02   3.6774623e-01   8.6736416e-02   5.0478861e-01   7.2895961e-01  -4.5747965e-01   9.3131003e-01   1.9778242e-01   3.8788910e-01  -3.0165198e-01   1.5999370e-01  -7.2394679e-01   5.0761819e-01  -6.8310810e-01   6.9341206e-01   9.5462200e-01  -2.4474188e-01   2.0481142e-01  -3.9173068e-01   7.9994848e-02   5.8231410e-01  -1.4332886e-01   8.7115126e-01  -8.6347316e-01  -6.9551905e-01  -1.1343920e-01   9.8490625e-01  -4.7279005e-01   2.8286690e-01  -9.2994670e-01  -6.8915237e-01   7.8513497e-01  -4.8409884e-01   2.9462254e-01  -1.2737079e-02   4.2100854e-01   5.5074189e-01   6.7342375e-01  -5.3560697e-02  -3.6689366e-01   4.7174049e-01   3.1644478e-01  -9.0913899e-01  -8.6983090e-01   7.2141398e-01   9.5073504e-01  -7.5181083e-01   5.0100286e-01  -7.2756831e-01  -3.0501030e-01   9.2800693e-01   7.6509665e-01  -8.3397124e-01  -4.7578501e-01   3.5461911e-01  -4.1206036e-01   5.8458979e-01  -8.0814253e-01   1.9870942e-01   3.5773605e-02   5.9482493e-02  -9.0138923e-01   7.4475126e-01  -7.8678601e-01  -7.8597340e-01  -8.2871512e-01   7.8393191e-01  -6.0463883e-01   3.2940439e-01   2.7322674e-01   9.4498758e-01   7.7736370e-02   1.9280959e-01  -1.8675344e-01  -4.0197913e-01   2.7049172e-01  -2.5427103e-01  -3.3968583e-01  -1.1367163e-01   7.0664386e-01   3.4901742e-01  -9.3372868e-01   7.8968678e-01  -7.1223605e-01   4.9696312e-01   3.0241435e-01   1.6397589e-01  -5.0370034e-01   4.2451917e-01  -3.9952740e-01  -1.0767087e-01   1.8527920e-01   8.4355377e-01  -8.9866580e-02   5.2978317e-01   7.5781723e-01  -5.7922190e-01   6.0940512e-01   7.0745368e-01  -3.7976965e-01   1.8960542e-02  -1.5940819e-01   6.0946884e-01   1.2573143e-01   8.6109250e-01  -5.2595631e-01  -2.1141799e-01   3.4731224e-01   6.1269576e-01  -7.6732128e-01  -9.3715600e-01  -4.3855890e-01  -7.8116186e-01   8.3864972e-01  -5.3323774e-01  -4.3872937e-01  -7.1073885e-01   2.6216955e-01   6.6973355e-01   4.0864416e-01  -6.1096320e-01  -4.2011392e-01  -6.5149429e-01   5.8256854e-01   2.9663256e-01  -8.1708942e-01  -1.2733757e-01   2.3747093e-01   7.8463217e-01   8.4940907e-01   1.2145320e-01   2.8761062e-01  -9.1346133e-01   2.2918635e-01  -9.6707321e-01   5.0377976e-01  -5.2780135e-01  -6.4099173e-01  -6.4840648e-01  -5.2217710e-01  -6.6857439e-01  -9.4309539e-01  -6.6271719e-01  -4.8955185e-01   7.8968226e-01  -2.7940203e-01   9.6154052e-01   2.1075891e-01   5.8806062e-01  -7.6781079e-01   5.7037427e-01  -5.1508650e-03   3.7710088e-01   1.9244490e-01  -4.1640562e-01  -2.4309092e-02  -8.1449738e-01   9.4562882e-01   3.5577633e-01  -3.0368750e-01  -7.3109329e-01   7.0006682e-01  -2.1230692e-01  -5.9044305e-01  -9.4432972e-01  -5.7518674e-01   3.1029927e-02   7.0908987e-01   9.1035195e-02  -3.6234494e-01  -6.3014339e-01   2.8700580e-01  -9.6390965e-01  -7.7507026e-01  -5.2278173e-01  -5.0443355e-01   6.3393034e-02  -8.6872636e-01   6.4078258e-01  -9.5721796e-01  -9.9800377e-01   5.7860133e-01   1.3452793e-01   5.6991536e-01   7.0192971e-02  -3.7237668e-01  -3.4363254e-01  -6.0262638e-01   2.1779942e-01  -2.4294422e-02  -7.2885491e-02  -9.2697976e-01  -5.0078440e-01   3.5883164e-01   9.1129368e-01  -7.4491078e-01   6.2153876e-01  -5.1311839e-02  -4.0593752e-01   8.2373134e-02   3.0799612e-01   8.2189307e-01  -2.2033642e-01  -7.9319967e-01  -8.5157725e-01  -3.7756951e-01  -2.7856634e-01   4.8888178e-01  -4.4128291e-01  -2.5380908e-01  -7.6229452e-01  -3.9363392e-01   3.1136968e-01  -1.1431443e-01   3.8624590e-01   8.6845478e-01  -8.1746529e-01  -2.9947928e-01   2.2868104e-01   7.1458543e-01   6.2779290e-01   8.4795458e-01  -1.9354045e-01   8.4938928e-01  -1.4774931e-01   3.0368388e-01   1.4860178e-01   8.3666048e-01  -5.9531023e-01   5.1080902e-01  -3.3982307e-01  -8.7823997e-01  -7.5896926e-01  -8.0961790e-01  -4.4128859e-01  -3.4100984e-01   2.7991120e-01   9.9747160e-01   5.3036961e-01   2.0514534e-01  -2.8837849e-01  -7.2086447e-01   4.8611020e-01   9.4720568e-01  -5.8837037e-02   5.1118411e-01   1.4162168e-01   6.3519725e-01  -2.0258997e-02   7.6590722e-01  -6.1947634e-01   6.6004006e-01  -5.3870092e-01   6.8076792e-01   2.2184807e-01  -3.8073636e-01  -7.2351524e-01  -8.1885993e-01   6.0802555e-01  -1.7106023e-01  -6.2930182e-01   2.4412710e-01  -2.5207194e-01   2.4395934e-01   7.6123045e-01  -2.7632459e-02  -3.9473830e-01   4.6429035e-01  -9.7206979e-01  -1.2979084e-01  -9.7037276e-01  -9.8093014e-01   2.9619361e-01  -1.6237698e-01   4.0271211e-01  -2.1695102e-02   6.9238676e-01   6.1860585e-01   8.1495448e-01   7.9330253e-01  -8.5894133e-01   5.9214133e-01  -6.6603968e-01   7.2591212e-01  -6.0936229e-01   4.8868547e-01   2.3766269e-01  -1.4150692e-01  -4.1340153e-01   1.3971935e-01  -4.0598861e-01  -1.9381554e-01  -8.5014959e-01  -3.8120147e-01  -3.9934882e-01   7.4536752e-01   8.5834280e-01  -1.3116546e-01   8.7421101e-01  -5.8929835e-01  -7.9099823e-01  -3.3822432e-01  -9.5871211e-01   8.5180167e-01  -4.9854167e-01  -4.6636282e-02  -2.5458955e-01   2.9905704e-01  -3.3191867e-01  -5.6425330e-01   7.7959447e-01   5.2011350e-02  -9.7894656e-01  -1.2268769e-01  -8.9384156e-01   5.2138251e-01   3.1377982e-02   4.6362819e-01  -6.7077788e-02   5.5536457e-01   9.3652698e-01  -4.3073047e-02  -1.0850950e-01   3.6959275e-01  -3.5025320e-01   2.1520247e-01  -6.9443159e-01   8.3777815e-01  -7.6643465e-01   2.8368064e-01   2.6164651e-01   5.2045225e-01   2.9612105e-01   3.0825819e-01   5.1838270e-01  -7.4731193e-01  -2.8667236e-01  -8.8558882e-02  -9.9834329e-02  -2.5923120e-01  -3.7808468e-02   9.2617592e-02   5.3063592e-01  -9.2797570e-01   2.2339675e-01   6.3663794e-01  -8.9988876e-01   3.7611197e-01   6.8470091e-01   8.9070956e-01  -9.3069753e-01   7.8277568e-01  -6.9722046e-01   9.1032932e-01   7.8888236e-01  -4.6888522e-01  -4.7888709e-01   1.3531606e-01   4.9490877e-01  -3.5403209e-01  -9.1326660e-01  -3.6363548e-01   6.8571905e-01  -3.8872199e-01   1.3149329e-01  -9.2885488e-01   3.6193497e-01   7.2846310e-01  -5.8794940e-01  -2.9429598e-01  -5.4530679e-01   1.2860174e-01   6.0845851e-01   6.2088804e-01   8.7701288e-01  -9.8713627e-01   7.4155283e-01   8.8428403e-01  -5.9915260e-01  -3.5307372e-01   2.9961908e-01  -2.4699578e-01   5.6181027e-01   7.6979608e-01  -8.1460065e-01  -8.5711177e-01   5.3027126e-01   5.5987459e-01   2.9207796e-01   5.4292528e-01   4.3570927e-01  -8.7827979e-02  -6.6090326e-01   6.5249892e-01  -7.3441392e-01   6.8721568e-01   2.0367395e-01  -5.0484154e-01   3.2320093e-01  -1.6154387e-01  -6.9672098e-01  -9.3592206e-01   2.3857555e-01  -4.8814471e-03  -7.0357887e-01   2.2327617e-01   4.5681728e-01   5.5401163e-01  -4.1603062e-01  -5.7353992e-01  -9.1627329e-01   9.6549999e-01   9.1916502e-01   5.1175489e-01  -5.1004714e-01   9.3067038e-02   3.1568541e-02   5.4990885e-01   1.3323340e-01  -7.1842517e-01   6.3592658e-02   2.2316196e-01   8.7971023e-01  -5.1000334e-01   8.4555151e-01  -5.0119391e-01  -8.5743815e-01   4.6041085e-01  -4.1284247e-01   5.4106497e-01   1.5879543e-01   7.6834802e-03   9.5826288e-01   9.6870775e-01  -5.6233224e-01   2.9159071e-01  -6.2202170e-01  -4.2604205e-01   6.6959568e-01  -1.9395713e-01  -8.3868858e-01   5.5763261e-04  -4.9494589e-01   7.8164919e-01   3.0443318e-01   7.0162352e-01   9.9021762e-02   1.5578893e-01  -2.7408364e-01  -4.7760226e-01   2.0732642e-01  -3.9508003e-01  -4.6916476e-01   8.6886956e-03   1.0676637e-01  -2.7209406e-01   3.4430013e-01   5.6890424e-01   5.2249453e-01  -9.7854060e-01  -6.8506418e-01  -6.3344675e-01  -5.9626961e-01  -1.8412847e-01  -9.5712637e-01  -1.9204649e-01  -7.7019341e-01  -4.5892604e-02  -1.6474949e-01   1.2606533e-01  -6.6412228e-01   6.2209051e-01   7.9328598e-02  -7.1963721e-01  -6.1844342e-01  -1.6456740e-01   7.0244431e-01   5.7499909e-02   8.8007348e-01  -1.4819291e-01   5.0201788e-01   6.7137548e-01   5.3182372e-02  -1.4792341e-01  -2.8857536e-01  -6.7502418e-01  -5.7521246e-01  -7.2439772e-01   8.7335152e-01  -5.2176500e-01  -6.6694797e-01   2.1916697e-01  -9.7253088e-01  -8.6663348e-03   2.9152260e-01  -4.9567696e-01  -5.9396073e-01   9.0183837e-02   2.8278440e-01  -8.6695143e-01  -3.8577974e-01   4.6268882e-01  -4.6173701e-02   5.4020819e-01  -2.0423107e-01   5.7671227e-02   9.8717087e-01   3.0043792e-01  -9.7106201e-01   4.8063466e-01  -6.3048217e-02  -9.8563490e-01   3.8422832e-01  -5.5283409e-01   4.7356771e-01  -5.9416931e-01   3.0996801e-01   7.9736596e-01   8.1725553e-01  -6.5501095e-01   7.8151363e-01  -7.4594632e-01  -9.9178539e-01  -3.8226262e-01   8.5836746e-01   1.9068513e-01   9.8958338e-02   3.0209319e-01  -5.7125310e-01   6.8502340e-01  -7.4405276e-01   1.6896242e-01   1.4384069e-01  -7.0645557e-01   7.6218439e-01  -4.2137528e-01   1.5359282e-01   8.9130754e-01  -1.4884531e-01  -2.5593602e-01   6.9794913e-01  -8.4217656e-01  -3.1500049e-01   2.0249263e-01  -8.4885358e-01   4.4007892e-01  -6.8204990e-01   7.3861244e-01  -3.4378440e-01   3.3531191e-01  -9.8903972e-01  -3.2827012e-01   3.8092447e-01  -4.8572936e-01  -1.4185782e-02   9.1620790e-01  -6.9465134e-01  -8.7443407e-01   7.7847762e-01  -7.7271700e-01   4.5306990e-01  -2.8714553e-01  -9.3689700e-01   2.2852873e-02   6.0846579e-01   1.6770678e-01  -5.0498687e-01  -5.0513733e-02   7.4361783e-01   8.6447748e-01  -2.6614699e-01   4.9048909e-01   9.2388213e-02   9.3286759e-01  -4.9350756e-01   4.2412691e-01   5.0272696e-01  -4.2846128e-02  -9.6384849e-01  -9.1196630e-01   3.0683788e-01   6.2309245e-01  -3.7225367e-01  -6.7506179e-01  -1.6156684e-01   7.6660535e-01  -2.8505891e-01  -2.0678845e-01   2.8172151e-01  -1.7165490e-01  -2.0938163e-01  -2.1151393e-01   9.4871133e-01  -5.0247875e-01   9.6267765e-01   9.3745168e-01  -7.5096599e-01  -4.8594289e-01  -3.5641364e-01   8.3171319e-01  -7.7238079e-01  -7.9606309e-01   9.6052714e-01  -9.9564592e-01
   8.1487753e-02   3.8896035e-01   8.0872394e-01  -5.9268929e-01  -9.4214833e-02   7.8354183e-01   1.7602694e-01   9.5882913e-01  -9.8430726e-02   4.4190078e-01   3.3814532e-01   8.9202887e-01  -6.7029245e-01  -8.2670518e-01  -3.2462155e-01  -1.1322586e-01   9.6876696e-02   7.8014988e-01  -4.2979944e-02   1.8082212e-01  -3.1834836e-01   3.6914196e-01  -7.9319773e-01   8.4540516e-02  -3.9760952e-01   9.6123018e-01   5.5880147e-01  -8.5594196e-01  -4.4475498e-01  -4.6342697e-01   2.2610049e-01  -8.2965632e-02  -5.3114634e-02   7.0892253e-01   8.4929050e-01  -6.8568269e-01  -3.3468032e-01  -7.1384380e-01   2.7473470e-01  -7.0459345e-01   8.5637599e-01  -3.5191112e-01  -5.9410776e-01  -2.5145089e-01   9.3691510e-01   1.2264570e-01  -7.7071523e-01  -8.2116088e-01  -5.0581073e-01  -5.9348363e-01   6.3200109e-01  -2.9088156e-01  -4.3703930e-01   9.4442866e-01  -6.2644503e-01  -5.9526454e-01  -1.2595064e-01   6.9872994e-01   8.1752169e-01  -2.0098868e-01   1.1835465e-01   7.4912135e-01  -9.3461924e-01   8.2125424e-01   5.5804398e-01  -2.8192313e-01   4.2055721e-01  -9.7020109e-01  -4.7565857e-01  -2.8210545e-01   1.6788299e-01   1.1615158e-01  -5.2169894e-01   2.9414336e-01   9.9521659e-01   7.9463703e-01  -5.2860733e-01   3.6674901e-01  -6.3589157e-01  -3.4584819e-02  -3.3952956e-02  -4.6393209e-01   2.8872658e-01   6.3207066e-01  -6.3669221e-01   5.4296081e-01  -2.1063030e-01   2.3883330e-01   3.1868859e-01  -6.3834344e-01  -8.7726097e-01  -1.7533631e-02   8.2646941e-02  -4.5996456e-01  -2.8932793e-01  -8.1150890e-01  -5.3583214e-01   1.5479046e-01  -9.1094640e-01   1.8038633e-01  -4.2579472e-01   7.8350808e-01   8.4698261e-01  -3.6430513e-01   9.8211492e-01   6.5326147e-01  -9.5651428e-01  -3.6525066e-02  -2.9186946e-01  -9.7588955e-01  -5.3584336e-01   4.5906840e-01   1.4234996e-02  -9.7239127e-01   9.9845261e-01  -6.8816133e-01  -8.7001367e-01  -9.6240194e-01  -7.6965265e-01   6.6418345e-01   1.8886215e-01   2.1807251e-01  -4.4819119e-02  -4.6264080e-01   8.9760433e-01   6.2869790e-01  -3.1974767e-01   8.5190924e-01  -4.3965366e-01   2.1684328e-01   2.6136760e-01  -8.5602417e-01   3.4563206e-01  -5.3071190e-01  -1.5247889e-01  -7.0364481e-02   4.1157557e-01   3.3879804e-01  -9.2005621e-01  -3.6916563e-01   5.7082259e-01  -3.6305785e-02  -9.3504133e-01   2.3883791e-01   4.1542795e-01  -2.8716683e-01  -4.9488118e-01  -7.0705642e-01   3.0119973e-02   3.1321439e-01  -2.2049948e-01   5.6586072e-01   3.0292247e-01  -1.9801534e-01  -6.8634148e-01  -7.0867057e-01  -3.9933839e-01  -7.9771496e-01   7.2172309e-02   2.4588473e-02  -8.5013820e-01  -3.3452142e-01   7.6457868e-02   5.3063143e-01   9.1218241e-02   4.8544518e-01  -7.7399850e-01   1.9612339e-01   9.0678821e-03   8.2801288e-01   5.0141169e-01  -9.1377587e-02   8.3798071e-01  -1.7384940e-01  -7.1111892e-01   7.1277340e-02  -6.1503198e-01  -8.1671026e-01   2.2239917e-02   7.5808052e-01  -5.8713892e-01  -7.1130828e-01   6.0719628e-01  -2.1332585e-01   6.2253595e-01  -4.1338617e-01  -6.1228550e-01  -4.1124103e-01  -3.9263280e-01   7.3849787e-01   7.0108443e-01  -8.4814527e-01   9.4614278e-01  -1.0159306e-01   5.2880166e-01  -7.1297108e-01  -7.7403832e-01   9.1871450e-01  -7.0234162e-01  -3.9486138e-01  -7.3585880e-01  -9.4272285e-01   5.3991816e-01  -7.4567383e-01  -7.1682821e-02   6.8673359e-01   5.8324173e-01  -8.6391571e-01   9.5828728e-01   8.7863708e-01   8.7195873e-01   4.7163740e-02   5.1694869e-01   7.5486153e-02   3.2205418e-01   3.3863082e-01   2.6752124e-01  -8.2122206e-01   2.6631800e-01  -7.0645237e-01  -5.1235585e-01   5.9406433e-01   1.7959654e-01   4.4330473e-01   9.5145043e-01   6.8850855e-01  -2.7533960e-01  -7.6104978e-01   6.9569344e-02   3.5944459e-01   1.6939698e-02  -7.4998145e-01   5.1501938e-01  -7.9759576e-02  -8.6185427e-01  -9.5336276e-01   6.0948393e-01  -8.7496041e-01   5.3325875e-01  -3.2889858e-01   2.6939473e-01  -8.5508520e-01   8.8178848e-01   3.6119019e-02   2.7855616e-01  -2.9240238e-01   1.4002311e-01   7.3413898e-01   4.6402891e-01   1.1864683e-01  -6.8187046e-01   5.7913747e-01   9.9128579e-01   3.8792711e-01   2.8470470e-01  -9.6997398e-01   2.1824055e-01  -7.3899816e-01   7.0898958e-01   8.8776082e-01  -3.6642643e-01  -7.2781304e-01  -3.6630782e-01  -8.1495817e-01   1.4260885e-01   7.7947717e-01  -8.9209295e-01   8.7522109e-01   2.5774628e-01  -9.5551786e-01  -6.3902604e-01  -1.3260378e-02  -5.4750165e-01  -7.5078646e-01  -6.1472519e-01   1.4084766e-01   1.4269523e-01  -1.4062283e-01   9.1911444e-01   3.3445523e-01  -1.0546283e-02  -7.1448011e-01  -4.1118656e-01   1.0168627e-02   7.9831119e-01  -8.0240744e-01  -3.0341659e-01   2.8538292e-01  -6.5020570e-01  -5.3036765e-02   2.2920028e-01  -7.4263563e-01  -6.4598022e-01  -8.7087903e-01   9.0113057e-01  -3.4735973e-02  -4.5726031e-01   3.2333576e-01   4.2182864e-01  -7.0854359e-01   1.0376017e-01   1.4453846e-01   3.1323452e-01   2.7703302e-01   1.3012574e-01   1.9660759e-01  -6.0960095e-01   3.8501046e-02   3.2182886e-01  -2.3541800e-01   2.8465102e-01   1.6108944e-01   9.7534037e-01   6.3653633e-02   1.5317334e-01   7.4763403e-01   3.3631350e-02  -9.4543343e-01  -7.8830399e-02  -8.0271213e-01   1.7162915e-01   2.8752347e-01   6.0272081e-01  -7.4654005e-01   8.3115067e-01  -8.8371053e-01  -1.0004706e-01   8.1466707e-01   4.8637447e-01  -9.3834102e-01   5.0645117e-01  -5.7453594e-01  -8.5742242e-01  -7.3128787e-01  -5.4015757e-01   3.8432026e-01  -5.5642660e-01  -8.7510383e-01   7.4166429e-01  -2.4181949e-01  -2.5292298e-01   7.3665916e-01  -7.8158669e-01  -2.3662854e-01  -7.9194659e-01   7.4540513e-01   5.8265473e-01  -4.8406098e-01   6.3921203e-02  -5.2120935e-01  -2.5284555e-01   8.9267802e-01  -6.3835028e-01   4.4645376e-01   2.4282220e-01  -7.4189130e-01  -3.6801765e-01  -4.3618697e-01  -4.3239724e-01  -2.8034174e-03  -7.1478607e-03   6.7544095e-01   5.8228798e-01   6.4006545e-02   7.0051031e-01   7.0997455e-02   9.3165402e-01   9.3866326e-01  -8.8667714e-01   4.6978275e-01   1.7877819e-01   5.0295675e-01  -5.1545426e-01   4.5063604e-01  -1.3063886e-01  -3.6625271e-01  -7.7728068e-01   4.4511643e-01  -3.6926100e-01  -2.7685718e-01  -5.4433959e-01  -4.9864594e-01  -1.0097452e-01   7.4160521e-03   9.7058684e-01  -6.8281093e-01  -5.0244381e-01  -1.3803458e-01   8.7792415e-01   9.8923279e-01  -9.8337597e-01   2.8187303e-02   9.4770722e-01  -2.7920193e-01   4.2100592e-01  -7.7763367e-01  -3.7492110e-02  -2.8886591e-01   3.8462376e-01  -6.5181873e-01  -6.6251590e-01   2.5526251e-01  -7.4035119e-01  -7.4491448e-01  -6.8183873e-01   6.7241952e-01  -1.2611441e-01   4.0366137e-01  -4.8882274e-01   7.5855985e-01  -8.5108592e-01  -8.5269404e-01   1.9784603e-01  -7.4098525e-01  -5.0097456e-01   9.1105362e-01  -8.4319515e-01   3.7859220e-01  -9.1473981e-01  -7.2117434e-01   8.8407446e-01   8.3432306e-01  -3.2627023e-01  -1.9713623e-01   4.0958079e-01   2.6565187e-01   7.4951778e-01  -5.6106457e-01  -7.1790635e-01   3.6150525e-01  -9.0040920e-01  -6.3590771e-01   3.8107281e-01  -2.9197829e-01  -7.3422498e-01   9.3226695e-01   1.1711982e-01  -7.3836599e-01  -3.8242159e-01   5.8159058e-01  -5.5783540e-01   7.5151411e-01  -4.7017485e-01   3.3607247e-01   7.8101865e-01   3.3964590e-01   4.7101903e-01   4.0236688e-01  -7.1851169e-03   6.2785758e-01  -2.8921358e-01  -8.0811034e-01  -6.5681035e-01   9.8800737e-02   4.9877758e-01  -2.0251688e-01   5.8539061e-01   4.1488157e-01  -9.8216185e-01  -4.0267599e-01  -6.9457568e-01   5.5006748e-01   1.5774339e-01   7.5431063e-01   8.9621667e-01  -2.0391748e-01   1.1392377e-01  -5.7283717e-01  -1.1044905e-01  -2.7846202e-01   8.0903385e-01  -1.8202652e-01   1.1099077e-01   1.1239641e-01   8.8040164e-01   1.1866225e-01   1.9438703e-01   8.8190555e-01  -4.2529026e-01   6.0128831e-01   2.3927565e-01   1.9648487e-01   7.5151223e-01   2.8960207e-01  -5.3895687e-01   2.2231360e-01   8.1224847e-01   1.9673699e-02   1.2577910e-01  -3.0061523e-01  -7.5385590e-01   1.0238030e-01  -3.6119805e-01   3.2277041e-01  -9.5369983e-01   5.9482432e-01  -3.2057188e-01  -6.4337484e-01  -1.0137176e-02  -2.3789354e-01  -9.4106337e-01   4.8410377e-01  -1.1846919e-01   5.6525866e-01   5.1508575e-02  -1.9042985e-01  -7.4358335e-01   5.6821144e-01   4.0030995e-01  -4.4867104e-02   6.9625560e-01   2.9392966e-01   3.0540858e-02   4.4263198e-02  -5.9002201e-01  -8.2486519e-01  -8.1309038e-01   8.3276665e-01  -1.1381359e-01  -5.9225841e-01  -6.2383410e-01  -7.7303295e-01   5.7122109e-01  -2.9528183e-02  -3.2933067e-02  -8.2852885e-01   5.0210681e-02  -5.4839596e-01  -8.8380995e-01   8.1429076e-01  -5.1395224e-01   9.4103173e-01   2.4341504e-01   3.8273716e-01  -9.9208835e-01  -8.6372254e-01  -6.9809372e-02   3.3783343e-01  -4.8538175e-01   5.3787966e-01   2.2540911e-01   6.1911323e-01   8.3081566e-01  -1.5621759e-01  -3.4934681e-01   2.1897994e-02   7.0835839e-01  -3.0975844e-01  -9.5493872e-01   9.6176155e-01   7.7957881e-02   1.0553603e-01   8.8138050e-01  -6.1085722e-01  -5.8090667e-01   5.9796166e-01  -8.3212794e-01  -7.6695728e-01   6.8653351e-01  -4.4140602e-01   5.3494108e-01   3.7558179e-01   3.0214737e-01  -9.7815254e-01   8.6292790e-01   8.8710188e-01   9.7637476e-03  -2.1949833e-01  -9.9280670e-01  -2.1125417e-02  -4.0339569e-02   7.1679004e-01   8.4313003e-01   7.5484425e-01  -2.2891062e-01   4.6967301e-01  -9.8340360e-01   6.4130336e-01  -7.9417251e-01  -1.5454476e-01   3.4206519e-01  -9.0776095e-01  -6.3790256e-01  -2.0192224e-01   1.9225293e-01   7.4454555e-01  -3.0626842e-01   9.6365306e-02   1.2970556e-02  -7.8849543e-01   9.0257059e-01  -7.0016634e-01   8.2682791e-01  -4.1606436e-01   7.4604870e-01   8.1353551e-01  -5.5690789e-01   5.9030438e-01  -3.6227348e-01   6.9402471e-01  -9.3054915e-01  -6.2924654e-01   3.2680873e-01   8.6148715e-01   7.5408990e-01  -5.1574787e-01   9.3632200e-01   5.1422363e-01  -3.0158634e-01   1.1309240e-01   6.4979868e-01  -9.0984656e-02  -9.3010594e-01  -8.6708149e-01  -6.5232758e-01   8.5525619e-01  -8.8624010e-01  -1.6072183e-03   3.6723278e-02   1.3493566e-01  -8.6473963e-01   3.9865400e-01   9.6786554e-01   5.9118760e-02   5.6432067e-01   7.5063011e-01  -4.6173138e-01   7.9747029e-01   9.0913218e-01   9.6591241e-01   7.4998708e-02   4.9097503e-01  -6.7592255e-01  -7.3948640e-01   6.5037837e-01   1.7940715e-01   5.3985059e-01   2.0744357e-01   2.7984500e-01   5.1418854e-01   2.2984394e-01   2.3440497e-01  -9.3211714e-01  -8.0297269e-01   7.3478198e-01  -3.1489435e-01  -1.3147485e-01   1.7235712e-01  -8.5350906e-01   9.2132131e-01  -2.4761218e-01  -9.1564613e-01   3.0563970e-01  -9.1011398e-02   4.7593862e-01  -4.7959834e-02  -2.6062901e-01   5.6926962e-01   9.7896165e-01   3.4922817e-01  -9.9713303e-01   2.6379507e-01  -9.6453104e-01  -5.7108064e-01  -3.6284178e-01  -5.7882229e-01   6.1645130e-01  -5.0161725e-01  -4.1746406e-03  -7.2803187e-01  -3.5290459e-01   8.5824290e-01  -4.7262076e-01   8.5202773e-01  -2.4683592e-01  -5.8462859e-01  -3.2886249e-01   8.0331699e-01   7.6871045e-01  -8.5885419e-01   5.5099523e-01  -6.6846760e-01   9.9014369e-01  -9.9921532e-01   5.9164670e-01  -2.7130778e-01   8.6800558e-01  -4.2350497e-01   2.7711120e-01   1.2866814e-01   9.7398086e-01  -5.0905252e-01  -1.4120901e-01   7.0650719e-01  -9.1923453e-01  -9.7113055e-01   8.1005923e-01  -2.6829165e-01   5.3792701e-01  -8.4658916e-01  -2.4994345e-02  -1.5383876e-01  -4.1816715e-02   5.5264903e-01  -5.0755400e-01   4.3681125e-01   7.1387246e-02   7.4736214e-01   9.9014900e-01   9.8163481e-01  -3.0613060e-01  -4.2192448e-01   8.0141382e-01   6.0622145e-01  -7.2875365e-01  -7.0729484e-01  -6.3399409e-01   1.5815243e-01  -8.4952365e-01  -4.9396227e-01   1.4222513e-02   4.3704301e-02  -5.4983385e-01  -2.1565683e-01   2.4270894e-01   4.2464560e-01  -3.7981327e-01   6.5951493e-01   4.4665512e-01   8.3231378e-01  -5.0412822e-01   6.7967029e-01   3.7186761e-02   5.1541071e-01   3.4818654e-01  -6.9244783e-01  -9.2229880e-01   8.1941384e-02  -2.7211644e-01  -2.8862601e-01   1.0174507e-01   1.1048069e-01  -9.9269295e-01  -2.0918018e-01  -6.6905271e-01   9.4584514e-01  -8.9028986e-01   2.0937847e-01   2.3281758e-02   5.3498640e-01   6.2041666e-01   1.3734820e-01  -9.0735225e-02  -8.5062032e-02  -8.9449500e-01  -5.1564609e-01  -5.6148713e-01  -1.7828020e-01  -4.7536299e-01  -5.1734945e-01  -3.2845413e-01  -5.7752414e-01  -6.1467879e-01   7.3744277e-01   6.7111625e-02  -6.2566544e-01  -7.5343777e-01  -3.7850419e-01   5.4769109e-01  -5.1622678e-02  -4.2520080e-01  -8.8166486e-01   5.9703286e-01   9.3946577e-02   3.4119496e-01  -6.0920348e-01  -7.3041360e-01  -8.5060492e-01  -1.1047576e-01   1.0334351e-01  -4.1024794e-01   7.4250942e-01  -2.7664974e-01  -4.9640920e-01   1.6510391e-01  -5.0008670e-01  -7.4173873e-01  -3.4488035e-01  -3.6692615e-01  -1.0505832e-01   6.2232359e-01  -5.9603836e-01  -8.9756241e-01  -1.4401230e-01  -5.6933860e-01   4.6961636e-01  -2.9611485e-01  -7.6372832e-01   3.8227379e-01  -2.5328486e-01   3.1193535e-01  -7.3408362e-01   7.9662407e-01  -2.2650760e-01  -8.2026314e-01   4.4150656e-01  -3.7845203e-01  -5.8582015e-01   8.7671140e-01  -5.8309052e-02  -4.1207102e-01   3.4784153e-01   6.7243456e-01  -3.2601015e-01   8.8998186e-01   4.7552108e-01   9.8677969e-02   6.1237614e-01   5.2928540e-01   1.3562822e-01  -3.4154106e-01   4.2215927e-01   2.3450817e-01   9.3685470e-02   2.8206066e-01  -1.6446180e-01   3.3669432e-01   5.7833020e-01  -1.7300683e-01   3.5878134e-01   4.5430430e-02  -3.0742733e-01   2.2579857e-01  -3.8196807e-01  -5.3949963e-01   7.6029596e-01   3.8963312e-01  -8.2074204e-01  -2.5703662e-01  -9.4950122e-01   5.4825934e-01  -3.1123493e-01   9.5893588e-01   2.4746034e-01   3.0024339e-01  -8.7112933e-01  -4.5734859e-01   4.0087225e-01  -2.4270009e-01   9.4473181e-01   4.5292629e-01  -9.9453415e-01   5.1223619e-01   7.2622430e-01   1.5172669e-01   1.2220005e-01   6.4642214e-01   7.2167181e-01  -6.6876578e-01   1.6689572e-01  -3.4098264e-01   5.7185224e-01   9.0294103e-01  -4.9213575e-01   6.3957869e-01   4.0493732e-01  -6.9386737e-01   7.9171275e-01  -6.4477483e-01   7.0749183e-01   2.3854717e-01   7.0715098e-01   8.1095234e-01  -3.2707840e-01   7.8498999e-01  -9.9363182e-01  -6.7084331e-01   4.5668074e-01   9.5706086e-01  -4.7321055e-01  -9.4817467e-01   4.5378616e-02  -2.7827920e-02  -6.6759330e-01   1.5896712e-02   5.3961802e-01   5.1022840e-01  -2.1471794e-01  -9.1054891e-01   5.0693588e-01  -4.1249284e-01   7.8392229e-01  -5.1057667e-01   6.6930426e-01  -8.6759164e-01   4.0434634e-01  -4.8378271e-01   7.9635083e-01   7.3695083e-01  -8.1708120e-01   1.3595321e-01  -1.6425744e-02   1.2247234e-02   1.9291241e-01   4.3126298e-02   8.9805980e-01  -2.1942278e-01  -7.4467321e-01   7.1885664e-01  -2.1085064e-01  -9.5603182e-01  -5.4401929e-01   6.3598733e-01   8.5460471e-01   4.6761642e-02   1.9151972e-01   1.0362945e-01   4.5331357e-01   4.3676261e-01  -2.4274648e-01  -8.7926592e-01  -8.1629407e-01   1.9304757e-01  -1.8166919e-01   6.6683615e-01  -1.8792056e-01  -2.4182158e-01  -7.2774014e-01  -9.9076336e-01  -6.9885121e-01   7.7903865e-01   7.7621641e-02   1.8219038e-01  -1.7169122e-01   8.3200956e-01  -5.0120890e-01  -3.2869515e-01  -3.3626670e-01   8.0015161e-01  -2.5488237e-02  -7.9190047e-01   9.4531168e-02   6.1012328e-01  -8.4315468e-01  -2.1237069e-01   2.6160107e-01   6.1694874e-01  -4.3547966e-01   2.4740368e-01   5.9666773e-01  -5.9872779e-01  -9.5461980e-02  -8.8922526e-01  -7.8508562e-01  -3.5758678e-01   8.9738716e-01   3.1809179e-01   8.9772259e-01  -8.6790143e-01   9.5605978e-01   1.1403469e-01  -6.8431621e-01  -9.2274592e-01  -4.4037334e-01   6.8779923e-01  -3.6604631e-01  -5.6055692e-01   4.6496421e-01  -6.8673689e-01   9.1710910e-01  -2.2425227e-01   4.1205540e-01   4.7722233e-01   2.1291799e-01  -7.4323812e-01   2.8080993e-01   3.6880921e-01   1.4145482e-01   1.0387743e-02  -7.7602627e-01  -3.8179387e-01   5.7986881e-01   8.4160674e-01  -5.5204800e-01  -4.0612534e-01   1.2189552e-01  -8.2877947e-01  -2.3594438e-02   1.9863999e-01  -4.3313216e-02   1.7526148e-01   2.8181622e-03  -3.1881848e-01   8.8388176e-01   8.9506020e-01  -2.1278830e-01   3.2602159e-01  -6.2940635e-01  -5.6656403e-01   7.4165861e-02
   4.0004194e-01   8.7600569e-01   4.3895204e-01  -6.5921683e-01  -2.4126410e-01   6.3414445e-01  -9.8106819e-01   8.7655897e-01  -3.0302190e-01   8.1849253e-01   9.3049572e-01  -7.1904637e-01  -6.1498255e-01  -2.1667790e-01  -5.8597261e-01  -2.2553821e-01  -1.3413795e-01  -8.3288838e-01  -4.4890927e-01  -3.6298415e-01  -9.3893247e-01   3.3540990e-01   9.8368989e-01   2.9983928e-01   1.6101785e-01   1.2472767e-01  -7.6203923e-01   8.1031373e-02   3.3150295e-01   2.2491303e-01  -3.2326071e-01   4.8365895e-01   6.1884864e-01  -6.7747480e-01  -2.7023290e-02   3.6271757e-01   6.2435101e-01   6.2006284e-01   4.0159416e-01  -1.1920025e-01   1.4651045e-01  -5.5673248e-01  -5.8099648e-01   2.3660749e-01  -7.7770455e-01   8.0114054e-01   2.2622829e-01  -5.5441008e-01   9.6012388e-01   3.4043475e-01   3.6109087e-01  -9.0908072e-01  -4.1984320e-01   5.4547249e-01   3.3919066e-01   4.0848132e-01  -6.8776234e-01  -4.3504980e-02   5.5756088e-01  -4.3612230e-01   7.6301793e-01   8.1784607e-01   4.9779219e-01   7.0878374e-01  -1.0057554e-01  -9.3298007e-02  -1.4273364e-01  -4.4401681e-01  -5.6147696e-01   3.7418932e-02   8.3045605e-01   7.1446722e-01   4.2656819e-01   3.9095858e-01   5.8815745e-01  -5.1136667e-02  -9.0180158e-01  -2.0534108e-01   5.7975720e-01  -2.6274790e-01  -3.1398138e-01  -8.6733381e-01   5.4789050e-01   5.4097276e-01   8.6825043e-01   9.4761389e-01   9.8118702e-01   2.8543210e-01  -1.9338118e-01  -7.9734544e-01   3.1920161e-01   3.0771141e-01  -3.2514640e-01   2.8695509e-01   6.3935713e-01   2.0144874e-01  -7.9984463e-01   8.6347498e-01   5.1718426e-01  -1.6604995e-01  -7.1540169e-01   6.7365243e-02   2.6395823e-01   8.7571987e-01   2.3816902e-01  -6.6456163e-01   8.5547737e-01  -9.0485836e-01   4.7933480e-01  -6.5149988e-01   6.0109043e-01   1.8423899e-01  -3.5498296e-01  -2.0021924e-01  -8.2092131e-01   8.4193100e-01  -6.8047035e-01  -5.0999082e-01  -9.2415519e-02   7.8918338e-01   5.9350660e-01   6.3815649e-02   2.7214487e-01  -6.3088349e-01  -5.6937021e-01   2.9658825e-01   8.3664323e-01  -7.6291889e-02   8.7828579e-01  -7.4580268e-01  -2.8203498e-01  -8.7105155e-01   5.7742187e-02   2.8128628e-01   5.6616660e-01  -2.1593862e-02   2.0777670e-01   6.1396177e-01   9.3993550e-01  -1.0322485e-01  -4.0251195e-01  -9.9849625e-01   5.7623357e-01  -4.6912489e-01  -7.2077604e-01   8.5325568e-02   8.6348449e-01   3.5093095e-01  -3.3688273e-02   5.4734299e-01   6.4840686e-01   9.4855458e-01   7.1912864e-01   7.7991632e-01  -5.8528001e-02   4.5454491e-01  -4.0776323e-01  -8.8691508e-01   4.4709711e-01  -9.0047513e-01   8.2192823e-01  -5.3970911e-01   5.7052974e-01  -5.2742181e-01  -6.1233730e-01   4.5633689e-01  -3.7966115e-01   8.5103023e-01   7.2726860e-01  -7.7965177e-01   6.4795877e-01   7.5992256e-01  -6.2737779e-01   8.2006664e-01  -5.9029697e-01  -4.2278376e-01  -9.1264914e-01   6.8877385e-01   6.6870013e-01  -9.8946522e-02  -6.4652369e-01   9.2565413e-01  -3.2239247e-01   1.6764103e-01  -4.1457384e-01  -4.7392290e-01  -3.9076360e-01   7.0980688e-01   3.7858441e-01  -8.7715887e-01   8.9501237e-01  -9.6905792e-01  -4.2244782e-01   9.9480713e-01   8.9717410e-01  -1.9681912e-01   6.7085810e-01  -5.8440753e-01  -8.3533417e-01   8.4420889e-01  -3.6243872e-01   4.2398256e-01   9.6964793e-01  -8.0718202e-01  -6.6807129e-01  -3.4318769e-01  -1.3081784e-01  -7.3128252e-01   7.4471067e-01  -9.6772682e-01  -8.7201150e-02  -9.5153849e-01   6.2866025e-02  -1.7207333e-01   8.3278226e-01   1.7469869e-01  -1.4824368e-01  -7.2803696e-02  -3.7294948e-01   5.9824870e-01   5.9851608e-02  -7.2891804e-01   3.3685603e-01  -7.2561701e-01  -5.7444325e-01  -1.3286985e-01   3.2781779e-01   3.3077037e-01   2.7176429e-01   1.9977914e-01  -8.9549366e-01  -6.7241565e-02  -6.9975535e-01   3.1190106e-01  -7.3495743e-01  -3.7881548e-01  -1.0360091e-01  -2.2877440e-01  -5.7032755e-01  -2.4505206e-01   2.7567041e-02  -3.5126792e-01   7.0480589e-01  -1.7628488e-01   1.6593128e-01   9.7281014e-01  -7.0016485e-01  -2.5109121e-01   9.6183697e-01   4.6116747e-01   9.1470941e-01   4.1242078e-02   6.0214458e-01  -8.8690796e-01   2.9818604e-01  -2.2148104e-02  -7.5033171e-01  -7.2351280e-01  -3.5505829e-01  -5.2320695e-01  -9.3855679e-01   2.0001655e-01   7.0505815e-01   5.3716993e-01   4.6774801e-01   2.2980407e-01   6.5545057e-01  -2.0817210e-03  -7.9122200e-01   5.4684478e-01   1.0563269e-01  -7.3261703e-01  -8.0587031e-01   3.5134113e-01   5.3152800e-01  -7.9188387e-01   5.3161979e-01   3.6087748e-01  -9.5492188e-01  -4.2329852e-01   5.5716135e-01  -5.1585474e-01  -6.3928937e-01   7.6196461e-01   1.1018191e-01   4.3412624e-01   1.7360483e-01  -1.3233911e-01  -3.5550644e-01   5.0432280e-01   9.9308122e-01   7.8266421e-01   1.5078221e-01  -4.2963652e-01  -3.3893968e-02  -4.6874544e-01   3.6015945e-01   9.4594546e-01   7.1186325e-01  -9.4854532e-01  -4.5076237e-01  -3.1509382e-01  -2.1065645e-01   9.2727814e-01  -8.0214958e-01  -8.2004285e-01   3.5753689e-01  -5.8309785e-01   5.6227956e-01   6.6042385e-01   6.5585889e-01  -5.5962104e-01  -5.6480809e-01  -3.2032430e-01  -5.6076010e-01  -1.0230014e-01  -2.1044159e-02  -1.0491922e-01   3.1841931e-01   4.9843599e-01  -1.9682098e-01  -4.4296321e-01  -3.5887739e-01  -7.9156156e-01   3.7880503e-01   6.9392659e-01   6.6400430e-01   3.6518637e-01  -8.5013560e-01  -9.4623673e-02  -9.9039280e-01   2.7312395e-01   9.2958661e-01   6.7444766e-01  -9.2390707e-01   7.2906719e-01  -9.8723583e-01   9.5815780e-02  -3.2366151e-01  -2.3240794e-01  -8.2583518e-01  -9.6453769e-02   1.3539700e-01   9.1973506e-01   8.9001117e-01   9.5033682e-01  -2.0283225e-01   2.7361085e-01  -6.4663061e-01  -7.7667822e-01   2.3407006e-01   8.4005407e-01   5.6848545e-01   2.4976639e-01   5.1872462e-01   1.7294591e-01  -4.0413072e-01   3.0012874e-02   8.8950767e-01   4.1190387e-01   3.3507847e-01   5.0576792e-01   8.2763330e-02  -2.1913178e-02   2.1266557e-01   7.8568328e-01   1.5647111e-02  -1.6200886e-01   9.7772615e-01  -2.8552804e-01   2.7315097e-01   5.0053453e-01  -3.5915116e-01  -1.1255132e-01   3.8069883e-01  -8.0052364e-01  -5.7088600e-01   8.1663898e-01  -6.4912853e-01   7.7042502e-02   7.5193126e-01   3.8322504e-01   2.7366726e-01   4.4780417e-01  -8.7185251e-01   2.5220281e-01  -2.6685248e-01  -4.7047324e-01  -8.8254336e-01   4.6720905e-01   1.1363972e-01  -4.6595700e-01  -5.0918310e-01  -4.2888577e-01   4.4838121e-02   8.5644485e-01  -6.9568257e-01   3.4793456e-01  -6.3565496e-01  -3.4474543e-01   2.6883536e-01  -5.4151921e-01  -5.7193842e-01  -4.6677411e-01  -7.8660190e-01  -2.9870368e-01   8.4549134e-01   8.2566803e-01  -6.6254898e-02   1.5845003e-01  -7.7936965e-01  -2.3001282e-01   6.0964813e-01  -7.5664315e-01   7.9803352e-01  -1.8553955e-01  -5.4221504e-01  -5.5614175e-01   1.3770579e-01   7.1125527e-01   8.8211073e-01  -3.8648991e-01   4.2324386e-01   7.8665464e-01  -4.4335098e-01  -7.4953301e-01  -5.8907749e-01   2.1999964e-01  -8.2193047e-01  -8.1343814e-01   7.3873997e-01  -8.1751527e-01   6.7131535e-01  -8.8223330e-01   3.4682718e-01  -4.3865879e-01   4.4507863e-01  -2.2589237e-01   4.8819393e-01  -8.9721787e-01   3.0443669e-02  -7.2510714e-01   3.8073687e-02   9.6357315e-01   4.4347483e-01  -7.4660165e-01  -7.8375585e-01   5.9242198e-01   3.8249751e-01  -5.4097734e-01  -1.2433553e-01   6.3410187e-01   1.9001997e-01   2.8550765e-01  -2.4248225e-01   2.4968825e-01  -6.8981074e-01   6.1089091e-01   2.4100342e-01   6.2767454e-01  -5.6933640e-01   4.3432907e-01   1.0237760e-01   2.7243110e-01  -1.7609794e-01   4.5940363e-01   2.6330668e-01   3.4359534e-02   6.1381607e-01   9.2474388e-01   4.8388451e-01   5.4224864e-01  -5.3281528e-01  -7.3027933e-02   5.4274150e-01   3.8292213e-01   6.9646394e-01   8.6483045e-01   8.0706776e-01   1.0851363e-01  -8.3927836e-01   7.9512372e-01   7.8829493e-01  -4.1037982e-01   6.8487738e-01  -4.2509446e-01   2.1158132e-01   2.9328265e-01  -3.0535675e-01  -2.9473773e-01  -7.1528093e-01  -1.9715532e-01   5.2203561e-01  -3.3312598e-01   5.7224143e-01   7.8507247e-01  -4.2349640e-01  -8.8832797e-01  -1.0209654e-02   9.8552827e-01   3.1609609e-01  -1.8110927e-01  -3.8375864e-01   2.3870427e-01   2.8689322e-01   9.7064111e-01   3.1856390e-01   1.3997633e-01   9.2941311e-01  -6.8905649e-01   6.6931936e-01   2.5139016e-01   9.1782846e-01   9.9935525e-01   6.9951908e-01   8.5372686e-01   6.2486236e-01  -7.8752282e-01   3.8264773e-01  -9.1976880e-02   9.9639515e-01   9.0041342e-01   4.3183723e-01   7.7032257e-01   1.7153663e-01   6.2929169e-01  -9.5877778e-01  -1.3261899e-01  -6.7272782e-01   6.9745314e-01   1.5662542e-01   4.9416843e-01   1.0419031e-01  -8.5017119e-01  -6.3839586e-01   7.5145966e-01  -2.7992893e-01  -3.4558255e-01  -7.6327591e-02   4.6654130e-01  -7.3514789e-01  -1.6812174e-01   1.4166466e-01  -4.8368671e-01  -6.3749308e-01   5.3478629e-01  -6.7221365e-01  -1.4063665e-02  -3.3854110e-01   8.7150673e-01  -1.7469450e-01  -2.5966224e-01  -3.4056441e-01   9.4235132e-01  -3.9767013e-01  -2.0459901e-01   7.0702688e-01  -5.8977577e-01   1.5064673e-01  -4.9548449e-02  -6.6341676e-01   1.8038543e-01  -4.2257844e-01   7.3691403e-01   7.5385531e-01  -7.6827387e-01  -8.4742774e-02   6.5447894e-01  -8.4257038e-01   1.1699449e-02  -9.6824164e-01   9.7893096e-01  -9.3818296e-01   6.1116857e-01  -3.0320913e-01   6.2839422e-01  -6.3892900e-01   8.5442703e-01   7.6940805e-01  -2.6758148e-01   7.6051063e-01  -3.8737076e-01  -7.6600069e-02  -2.0301947e-02  -9.8577838e-01   2.8549236e-01   4.9733050e-02  -8.0533818e-01  -1.3947064e-01   9.9995503e-01  -2.3304180e-01   3.0715732e-01  -7.6384282e-02   4.5656128e-01  -6.8539064e-01   3.4614801e-01   7.1354197e-01   9.6120413e-02  -5.9876581e-01  -5.8825775e-01  -8.8950133e-01  -2.5588839e-01  -9.5366523e-01   7.8772890e-01  -6.5871047e-01   1.5103597e-01   5.8238161e-01  -2.9845739e-01  -3.3900250e-01  -6.4253665e-01  -3.3609202e-01  -1.9088274e-01  -8.7439309e-01  -6.2457145e-03   2.7370279e-01   9.9216486e-01  -2.0100380e-01  -7.9885953e-02  -6.4921102e-01  -1.3351029e-01  -9.3442365e-01   4.2786959e-01  -4.3818068e-01  -6.2444479e-01  -6.2402393e-01  -3.5479839e-01   7.3186501e-01   6.4059533e-01   7.9513305e-01   2.6015557e-01  -2.1589828e-01  -2.0944915e-01  -9.5043644e-01  -4.2209160e-01  -3.4753643e-01   2.6500559e-01  -8.7792453e-01  -9.4449465e-01  -6.3764742e-01  -4.2776010e-01  -5.4143876e-01   2.0987850e-01  -2.0908527e-01   2.7202958e-01  -8.5396536e-01   7.7016626e-01  -7.5311905e-01  -6.7592017e-01  -1.8141837e-01   1.3395248e-01  -1.7599065e-01   2.2398611e-01  -9.5066319e-01  -2.3729288e-01  -7.0753720e-01   6.6644940e-02   6.8243090e-01  -6.4663383e-01  -6.9754511e-01   4.5796492e-01   8.1846813e-01  -1.5332578e-01   9.8641041e-01   8.2424793e-01   1.1974487e-01   3.1339408e-01  -4.8968040e-01  -5.8917167e-01   5.9621830e-02  -1.5201114e-01  -3.7263484e-01   9.5239919e-01   5.5167670e-01  -7.3361389e-01  -4.5303535e-01  -6.1891346e-01   7.4241515e-01  -6.9810460e-01  -5.8229154e-01  -9.1857766e-01  -1.7911022e-01   5.8564416e-01   4.3670240e-01  -2.1526104e-01  -2.6486094e-02  -6.3543839e-01   5.8425537e-01   6.8418571e-01  -5.8253935e-01  -8.9589038e-02  -8.0716880e-01  -3.9118784e-01  -8.8277340e-01   4.2608797e-01   2.6346425e-01   4.7993593e-01   3.1182634e-01  -7.6090240e-01   2.1076792e-01   1.7871909e-01  -4.6330375e-01  -8.0468174e-01  -4.2902886e-01  -2.5855639e-01  -4.4974220e-01   1.8719982e-01   7.3205663e-01  -1.1231644e-01  -8.3955282e-01  -6.1219994e-01  -6.6733063e-01   2.1016723e-01  -1.1495377e-01   1.6362280e-02  -2.8081870e-01  -9.2017621e-01  -9.7884814e-01  -6.1418889e-01   5.8165541e-01  -7.3417655e-01   8.4309840e-02   8.7283720e-01  -3.1233333e-01  -7.2528085e-01  -9.1801482e-01  -5.3179888e-01   8.6081808e-01  -9.4889500e-01  -8.4573006e-01  -5.4931711e-01  -2.3898528e-01   4.3816509e-01   5.1191357e-01  -1.3578806e-01  -7.9060102e-01  -4.2954609e-01   6.3441864e-01  -4.7122099e-01   4.2585594e-01   1.4053198e-01  -9.4481772e-01  -9.9457939e-01   5.4664112e-01  -5.5442874e-01  -5.8649431e-01   5.7738277e-02   8.4003317e-01  -3.1775385e-02  -5.5980598e-01   7.6984218e-01  -9.7650019e-01  -8.9739475e-01  -1.6945055e-02   6.9471383e-01   7.8051740e-01  -6.4499547e-01   1.1483528e-01   2.5506476e-01   8.0753310e-01   1.1153156e-01  -9.5557556e-01  -8.3772042e-01  -9.5739238e-01   5.7237482e-01  -3.7041701e-01  -6.2728981e-01   6.3725971e-01  -6.3707832e-01   8.4704240e-01   6.8138170e-01   9.5258326e-01   8.6732785e-01  -4.8142032e-01  -2.0350655e-01   5.9819302e-01   4.4700159e-01   5.0565351e-01  -2.9184845e-01  -1.2740730e-01   6.1667478e-01   1.2841230e-01  -1.7143970e-01   7.3446269e-01   2.4257739e-01  -2.2235952e-01   2.8794430e-01  -3.9280040e-01   9.9085504e-01  -2.1817983e-01  -1.5524875e-01   6.7258811e-01  -4.9764790e-02  -4.0138479e-02   9.3602632e-01  -1.5423929e-01   7.6647383e-01  -4.2896700e-01   8.7692619e-01  -7.6578265e-01   7.5043761e-01   4.9010493e-01   1.2582140e-01  -4.0673171e-01   5.0454835e-01  -8.4118170e-01   3.0811850e-01  -9.4137097e-01  -8.5651115e-01  -3.0912497e-01  -9.0555920e-01   8.7319294e-01   1.4934582e-01  -3.7692544e-01   3.0910113e-01   4.6555937e-01   8.2466557e-01   6.0703224e-01   3.7349469e-01  -6.7560934e-01   6.4413737e-01   4.3268072e-01  -6.0648470e-01   3.9950133e-01  -6.5411125e-01  -7.0523698e-01  -8.5352850e-01  -9.5343527e-01   3.8858265e-02   6.6910755e-01  -3.3143708e-01  -1.0614167e-01  -6.8683031e-01  -9.0487417e-01   2.6020466e-01  -5.3714645e-01  -6.0482565e-01   2.2800447e-01   4.0736018e-02  -9.3287785e-01  -5.9407299e-01  -2.8188746e-01  -5.1466379e-01  -7.9347160e-01   1.8848867e-01  -6.3334636e-01  -1.2980916e-01  -9.7889652e-01  -5.3277880e-01   6.7442358e-01  -5.1313292e-01  -7.2129719e-01   2.6500310e-01   2.5111485e-01  -1.5288514e-01   1.4660004e-01   5.1876173e-01  -4.9351523e-01   3.1397168e-01  -7.0752625e-01  -8.8940291e-01  -3.6976564e-01  -5.2919597e-02  -5.3985075e-01  -1.9637267e-01   6.2609072e-01  -8.5618601e-01  -6.9887303e-02  -8.1440998e-01  -3.6310287e-01   4.6953654e-01   5.8696635e-01  -3.9637710e-01   1.2971825e-01   2.3871918e-01   1.7338642e-01  -3.6742170e-01   1.3908937e-01  -3.0692137e-01   1.5631919e-01  -9.5131158e-01   1.0817374e-01   9.0058249e-01  -7.1636645e-01   4.1406763e-01   5.2938102e-01   6.4175390e-01   8.3741020e-01  -6.4330185e-01  -5.7084565e-01   9.8268736e-01  -2.3026630e-01  -4.5054399e-01  -7.5802347e-01  -5.9558704e-01   2.7603680e-01  -3.7682404e-01  -2.5944173e-01   2.3103085e-01  -9.4344082e-01   9.4563337e-01   4.2562378e-01   2.0648020e-01   5.0599851e-02  -9.3256883e-01   8.2544712e-01  -1.9652476e-01   1.9740068e-01   3.2688546e-02  -7.3205318e-01   1.3213485e-01  -3.0196737e-01   5.2400005e-01   7.3603435e-01   4.5318854e-01   9.1305381e-01  -4.6358647e-01   9.7479365e-01  -7.0095826e-01  -4.9677959e-02   2.0546037e-01  -5.8753432e-01   9.9475881e-01  -6.8002260e-01   1.0576133e-01   6.4593074e-01   5.1662633e-01   7.7507303e-01  -5.1468635e-01  -8.3302883e-01  -1.7704183e-02  -1.0093639e-01  -9.3379880e-01  -9.6370536e-01  -7.1001012e-01  -4.4807637e-01   6.2211160e-01   8.5603942e-01  -8.2655832e-01  -6.1832461e-01   6.7700058e-02  -3.4529875e-01  -2.0549628e-01   9.3513742e-01   6.0452472e-01   2.4269018e-01  -9.2934528e-01  -3.1499289e-01   4.2306085e-01  -5.5562355e-01  -2.3787539e-01  -8.7299260e-02  -2.8875483e-01   1.7261085e-02  -5.7223361e-01   6.4898916e-01  -1.1660509e-01  -1.7581781e-01  -9.1935190e-01  -8.6564340e-01  -8.4854596e-01  -1.1816056e-01  -4.7008364e-01  -1.8292127e-01   4.6373839e-02  -7.6555779e-01  -1.6688963e-01  -2.8590514e-01  -1.7400623e-01   7.2112214e-01  -3.2681863e-01   9.1525446e-01  -4.1900311e-01  -7.9830832e-01  -2.5121130e-01   3.7726937e-01  -6.0723494e-01  -6.9864989e-01   1.7645009e-01   5.0157523e-01   4.3916238e-01  -6.0775370e-01  -6.0278671e-01   3.5175990e-01  -9.4218615e-01   6.4791050e-01   3.9834655e-01  -3.9840992e-01  -2.8445431e-01  -8.2485617e-01   1.0588892e-01  -2.9748929e-01   5.1503599e-01   6.4709512e-01   8.5697793e-01  -1.6099138e-01  -1.2200581e-02   4.6779670e-01   5.1134950e-01   5.8172233e-01   8.5256487e-01
  -1.3489613e-01   5.2846046e-01   3.0799754e-01   3.4130413e-01   4.0963549e-01   5.1718811e-01  -8.1513141e-01   3.3100234e-01   6.5656217e-01   5.5270715e-01  -1.2844301e-01  -7.3173867e-01  -5.7127527e-01  -9.8615521e-01  -7.6846792e-01   3.3229477e-01   1.3569158e-02   2.3138321e-01  -1.1204269e-01  -1.5093675e-01   2.9007073e-01  -8.0054973e-01   9.6687197e-01  -8.9452316e-01  -7.8366312e-01  -3.5587469e-01  -4.1463123e-01   5.4173072e-01  -3.1009202e-01   4.6716799e-01  -2.2920118e-01  -9.5777625e-01   4.9631009e-01  -2.0043444e-01  -5.1406325e-01   1.0054866e-01   1.9343149e-01   8.4232127e-02   3.0466576e-02  -8.4741596e-02  -5.5625646e-01   7.1670177e-01  -6.5367834e-01  -2.1771897e-01   9.1234803e-01  -7.1430965e-02   7.7763621e-01  -3.3494189e-01  -4.9310157e-01   4.8883442e-01   4.5118513e-01   5.7616030e-02   8.8843807e-02   1.9721601e-02  -7.4454307e-01  -9.3311526e-01   1.7149435e-01   8.0500023e-01  -9.1963059e-01  -4.1531796e-01   3.1766188e-01   2.9006425e-01  -1.6517607e-01   4.5323062e-01   2.1204057e-01   2.6910232e-02  -7.5394812e-02  -6.2097362e-01  -5.2533084e-01  -7.3908708e-01  -5.8270435e-01  -6.0605005e-01   1.8228126e-01  -9.7878809e-01  -6.3327034e-01  -1.5262687e-01  -5.4839770e-01  -4.2445163e-01   2.1232884e-01   7.5459461e-01   5.1945296e-01  -1.9324725e-01  -3.9811466e-01   2.8599321e-02   5.5766434e-01  -7.9770593e-04  -9.3879983e-01   3.6784858e-04   3.3307899e-01   6.6212977e-01   4.7324466e-01  -7.8676797e-01   9.1187206e-01   8.4147082e-01  -3.0300913e-01   7.3927786e-01   1.3715969e-01   3.5420668e-01   7.5143332e-01   5.6365653e-01  -8.0318711e-01  -2.1289699e-01   1.4347649e-01   8.9183302e-02  -1.1564477e-02  -9.7435589e-01   3.5293373e-01  -1.7218340e-01   9.2469470e-01  -9.9380824e-01   7.4218344e-01  -7.0649543e-01   6.6924939e-01   7.4712056e-01   2.0643191e-01  -1.2455005e-01   4.8315245e-01   9.5260345e-01   4.9416842e-01  -1.3005084e-01  -5.6002225e-01  -4.0012274e-01   3.0149884e-01   7.1830569e-01  -9.1541381e-01  -6.5716724e-01  -3.2115666e-01   7.4017000e-02  -4.7583019e-01   4.7994311e-01  -1.4489300e-01  -5.9254936e-01  -7.3121926e-01  -1.0192043e-01  -9.3854595e-01   7.9271549e-01   7.7379515e-01   9.2258317e-01   3.0033661e-01  -9.8119281e-02   9.9179978e-01   7.1764301e-01   4.5437757e-01  -3.2636965e-03  -2.1331038e-01  -1.9930148e-01   3.2527329e-01  -2.3171351e-03   9.9556330e-01  -1.8702281e-01  -8.2503652e-02   8.1459037e-01  -4.3572456e-01  -9.6883621e-01  -6.9685377e-01   8.4619975e-01  -2.3037026e-02   4.6998775e-01  -1.3291021e-02   5.4960504e-01   7.3938972e-01  -9.8065425e-01   2.8501774e-01  -1.0461067e-03  -3.2425941e-01   8.1398290e-01  -8.0511197e-01  -4.5182402e-01   8.6387761e-01  -9.4158905e-01   9.5458811e-01  -6.8816301e-01   4.5571741e-01   9.5788893e-01  -9.8077332e-01   5.8630930e-01   9.9354197e-01   9.9588130e-03  -7.9846927e-01  -9.3688534e-01  -5.5677642e-01   3.8038888e-01  -1.1893713e-01  -1.0861649e-01   9.0726228e-01  -5.1438396e-01   1.1671618e-01   1.2931532e-01  -1.2980314e-01  -9.4465952e-01  -1.2865111e-01   5.0321027e-02   3.4467379e-01  -9.2701118e-01   7.6302823e-02   8.4684844e-01  -1.2442083e-03   5.7371709e-01   9.2100470e-01  -6.9614554e-01   1.5112746e-01   8.9390338e-01  -4.8910175e-01  -5.0650328e-01  -2.8802049e-03   2.8075251e-01   5.7880619e-01  -2.4935135e-01   4.6669755e-01   1.5019175e-01  -3.8353002e-02   1.2060843e-01  -2.7971293e-01   5.8930831e-01   3.8802638e-01  -2.5201965e-01  -9.7619045e-01  -2.0277293e-01  -7.9197201e-01  -1.0860422e-01   7.8991808e-01   3.9912466e-02   9.6701853e-01  -4.5675463e-01   5.1422227e-01   3.8917914e-01  -4.3507693e-02   9.8139631e-01  -9.0908252e-01   3.9552852e-02   2.6544511e-01  -2.6090999e-01  -2.1316116e-01  -2.9267887e-01   1.9968852e-01  -1.5240699e-01  -6.9128869e-01  -6.2788156e-02  -2.4833966e-01   1.3984046e-01  -5.8610528e-01  -8.5504171e-01  -4.9935584e-01  -5.6981984e-01   6.0974312e-01   5.4105241e-01   1.0805779e-02   8.1564255e-01  -7.4163950e-01   9.3321495e-01  -1.2249651e-01  -8.5670459e-01   3.2962881e-01  -2.7215909e-01   3.8768010e-01   7.0026921e-02   6.0871789e-01   6.6818067e-01  -9.0331751e-01  -1.3465552e-01   5.5616751e-01   3.3636586e-01  -5.5408700e-01  -2.7494658e-01  -4.7547207e-01   9.2782781e-01  -2.0494722e-01   9.9374359e-02  -8.6685777e-01  -7.1328106e-01  -5.5035649e-02  -9.4265335e-01   2.8522272e-01   2.8544781e-01   9.6705750e-01   8.9091108e-01   1.1193376e-01   2.7369014e-01   1.6306688e-01  -3.9074322e-01   1.8012213e-01  -3.4941276e-03   1.1001404e-01   2.5091558e-01  -4.7259720e-01  -4.4027688e-01   1.9687152e-03   3.9983888e-01   8.5317737e-01  -4.7120830e-01  -3.7307981e-03   7.4222769e-01  -2.8894381e-01  -8.2437079e-01  -2.0554514e-01   9.1788689e-01  -5.7220066e-01   6.9759142e-01  -6.1400459e-01  -4.8564345e-01   5.3541571e-01  -4.4063406e-01  -4.8715379e-01  -5.5079627e-01  -3.6684510e-01  -6.8990806e-01  -8.0550945e-01  -6.0778898e-01  -5.2382224e-01   5.4445071e-01   6.0724362e-01  -4.9197540e-01   6.4406666e-01  -3.1238670e-01  -1.0128573e-01   8.2819377e-01  -7.6736829e-01   4.0865336e-01   5.1761986e-01  -2.5192065e-02  -9.0085525e-01   6.7139485e-01  -3.4366830e-01   2.0123519e-01   7.2772226e-01   8.5333356e-02   1.8274366e-01   6.6233750e-01  -5.4809539e-01  -4.7893136e-01   5.7054092e-02   2.7802643e-01   3.5125754e-01  -7.5507756e-01   5.2973214e-01  -4.8434408e-01   2.4249213e-01  -1.5402270e-01   2.6559928e-01  -3.7011649e-01   8.5728542e-02   6.5507699e-01   8.2230384e-01   6.0628652e-01   4.2276079e-01   4.5291189e-02  -1.2695426e-01  -4.2099621e-01  -5.1786856e-01   5.8424660e-01  -2.4108442e-01   5.7906399e-01   6.7247971e-01  -1.7765303e-02  -4.8264640e-01   2.2652459e-01   1.0876075e-01  -6.4867132e-01  -9.7938974e-01   5.8692088e-01   1.5201858e-01   1.7063809e-01  -2.0249803e-01   5.9751200e-01  -8.5665888e-01  -2.0240671e-01   8.1244798e-01  -6.6102709e-01  -9.3198113e-01  -1.7587679e-01  -3.1424684e-01   6.8673909e-01  -6.9164897e-01  -1.2806664e-01   4.8334102e-01   2.2361241e-01   8.5523546e-01  -9.0728315e-01   1.7360015e-01  -5.7116495e-03  -7.6342020e-01  -1.9201908e-01   9.6464179e-01   1.8682181e-01  -6.8366156e-01  -2.7324361e-02   8.2090578e-01   5.0862822e-01   9.4807252e-01   3.1075651e-01   6.8036472e-01   2.2303647e-01  -8.5381522e-01  -5.2985523e-01  -9.7432921e-01   9.3234955e-02  -4.4627864e-01   9.2582497e-01  -2.0903428e-01   7.5929769e-01  -4.8152607e-01   6.3095770e-01  -9.6999565e-01   7.0726286e-01  -2.9033237e-01  -7.7635875e-01   6.6359584e-01  -5.5784921e-01   9.0355964e-01   5.0567549e-01   4.4659144e-01  -7.1324484e-01  -8.2981961e-03   2.6144680e-01  -3.5842108e-01  -7.6327232e-01   4.0308325e-01  -3.2835004e-01   4.9906230e-03  -1.3771712e-01   7.8638013e-01  -9.3113913e-01   7.2417818e-01  -3.5490931e-01  -7.3248282e-01   9.9680460e-01  -2.1846491e-01  -6.6165914e-01  -8.2943882e-01  -9.2396997e-01   8.3674091e-01   4.2171857e-01   7.2874938e-01  -8.8150402e-01  -4.5914824e-01  -3.2225331e-01  -7.7771695e-01   9.4592548e-01   4.2991710e-01  -5.2441301e-01  -9.6605695e-01  -2.5782132e-01  -1.5025461e-01  -9.2391672e-01  -9.0258358e-01  -3.1412798e-01   4.9805466e-01   4.2365849e-01  -6.6474463e-01  -3.3383982e-01   2.7902157e-01  -8.2905491e-01   4.6164523e-01  -5.0456589e-01   5.9956292e-01  -6.6398257e-01   8.5136608e-01   2.9245663e-01  -6.3298355e-01   5.9334910e-01   8.2813980e-01   2.3538776e-01  -7.9563552e-01  -7.7169711e-01   1.4803266e-01  -6.3058393e-02   4.0639247e-01  -2.7861685e-01   9.2927141e-01  -7.8613352e-01   7.8558282e-01   7.3606946e-01   1.3610008e-01   7.0558581e-01  -9.0462650e-01  -5.1459636e-01  -6.9013604e-01  -4.4660752e-01  -7.6579590e-01  -7.6016422e-02   1.8018648e-01   9.5571802e-01   2.9778540e-04  -5.6055459e-01   5.9629016e-01  -6.2079913e-02   6.1746529e-01   3.8751053e-01   5.1002307e-01   7.2526820e-01   6.6961655e-01   3.5762527e-02  -1.6856644e-01   3.4234721e-01  -5.2978028e-01  -5.2024967e-01  -9.6845616e-01  -4.3915246e-01   5.4127516e-01  -1.9441297e-01  -8.9359083e-01   5.6508169e-01   1.0716224e-01   4.8476502e-01   7.6521317e-01  -5.8319658e-01  -4.3849347e-01  -2.2375500e-01   1.8430355e-01  -4.3789565e-01  -2.8443978e-01   1.8142643e-01   3.5355053e-01  -2.6235122e-01   2.0470789e-01  -4.3649270e-01   1.1312624e-01  -1.4771409e-01  -8.9995495e-01  -3.5654847e-01   4.5631846e-01   4.0933614e-01   5.5809341e-01   1.0267018e-01   7.9238045e-03  -5.3657986e-01  -3.8959533e-01   6.9811401e-02  -9.8796220e-01   1.4539195e-01  -1.2210766e-01  -2.6969051e-01   6.9972048e-01  -8.4425124e-01   7.1539436e-01   3.2296406e-02   8.0539544e-01   8.2388136e-02   5.4379306e-02   9.9229641e-01  -8.7445843e-01   1.4228998e-01  -7.3538457e-01  -6.1663083e-01  -9.3397619e-01  -1.2198276e-01   2.9409629e-01  -8.3281183e-01   8.9136305e-01   6.3452401e-01   1.9187306e-01   6.4481415e-01  -9.9521602e-01  -4.1553991e-01  -4.8319517e-02   9.2658972e-01  -4.9822190e-01   6.7656866e-01   7.0512496e-01   1.5991820e-01   2.9215136e-02   6.2208584e-01  -4.1376474e-01  -7.4670647e-01   3.7854603e-01   7.0037266e-01  -9.6500070e-01   6.7039326e-01   1.9246279e-01  -7.0504747e-01  -8.5739500e-02  -7.2708020e-01   9.8434953e-01   4.8977602e-01  -7.2239770e-01  -8.9866081e-01  -9.9896884e-01   7.9426840e-02   3.1616666e-01   7.7854317e-01   5.0126958e-02   1.4140395e-01   8.4369506e-01  -8.7842972e-02   8.9970222e-01   3.8188112e-01   4.3616751e-01   4.3601009e-02  -3.2982071e-01  -3.3591527e-01   8.3460940e-01   7.3957025e-01   8.9751799e-01  -6.2843882e-02   8.6822807e-01   2.2888930e-01  -1.9541033e-01  -2.7622112e-01   1.9662739e-02   8.3014373e-01  -6.0694682e-01   5.2974873e-01   5.7354141e-01   1.1330189e-01  -7.8260112e-01   3.9272324e-01   6.2815472e-01  -8.4006009e-01  -8.9733770e-01   4.8980582e-01   2.3662012e-01  -9.0326070e-01  -5.0568292e-01  -8.7904766e-01   6.6422853e-01  -8.8249609e-01   5.9546208e-01  -2.0986810e-01  -5.2592066e-03   3.5137993e-01  -4.9770613e-01   4.2431253e-01  -8.8891792e-01  -3.8794608e-01  -9.4931174e-01   9.4139413e-01  -1.4795569e-01  -1.3146055e-01  -6.3189043e-02  -5.0000919e-01  -7.2741669e-01  -3.2433860e-01   1.2164615e-01  -3.4154689e-01   2.8426013e-01  -6.5083515e-01   9.0713906e-01  -5.5855305e-01  -7.5187577e-01   8.9450636e-01  -8.4695500e-01   4.2323812e-01   1.2389385e-01   5.5255343e-01   8.9141485e-01   9.7814539e-01   6.6810364e-01  -8.9577369e-01  -2.3508765e-01  -7.5911167e-01  -9.3486120e-01   7.4985407e-01  -4.1500219e-01   2.2140263e-01  -9.1013294e-01   2.4860620e-01   3.2742298e-01  -9.8567813e-01  -5.2813074e-01   3.3826142e-03  -8.1292118e-01  -6.9429740e-01   8.5294245e-01  -3.5354501e-01   3.1330326e-01   1.0951985e-01  -8.9154468e-01  -4.8776899e-01   7.1249696e-01  -8.5981945e-01   7.1767202e-01  -8.7496077e-01  -6.2183158e-01   6.5862237e-01   7.5368574e-01   2.4651000e-01   9.6894494e-01   4.1109734e-01  -8.4987835e-01   8.0260905e-01  -5.0228909e-01  -7.5973320e-02  -8.8684589e-01  -9.4213382e-01   1.6746980e-02  -3.0779384e-01   8.0141622e-01   4.8869992e-01   4.4768834e-01  -2.6413489e-01   6.8611249e-02  -4.2149665e-01  -7.4366956e-01  -8.1440233e-03   4.5827432e-01   5.8617668e-01   2.8648766e-01   4.0425627e-01   4.3515938e-02   6.2323054e-01   4.0261906e-02   5.3142311e-01   2.1913609e-01  -2.7092520e-01  -8.2850266e-01   8.3577638e-01   2.5879624e-01   3.4011359e-01   4.7344934e-01  -5.1274957e-01   6.9442725e-01  -7.1199900e-01   3.9456122e-01  -8.8144374e-02  -4.1089191e-01  -6.8758280e-01   7.8774517e-01   7.9455609e-01   7.7384891e-01  -5.0583496e-01   1.6469906e-01   2.4078796e-01   9.4833228e-01   2.0998360e-01  -1.7674518e-01  -4.2552926e-01   1.6796422e-01  -3.8484782e-01  -4.6492463e-01  -7.5038526e-01   9.2537465e-01   5.6386969e-01   2.6785563e-01  -7.5636417e-02  -7.5397142e-01   3.6783856e-01   7.0749392e-01  -4.9862516e-01  -8.4649369e-01   1.0181920e-01  -8.2821043e-01   9.1529707e-01   9.1248561e-01   4.1415532e-02   2.8252212e-01  -4.9665500e-01   2.1512909e-01   9.8259939e-01   1.2326042e-02  -8.4163326e-01   7.8709076e-01  -1.0115043e-01  -8.7091595e-02   3.2296269e-01   8.2629057e-02   1.8118404e-01  -4.8167697e-01  -5.5539920e-01  -5.1874750e-01   4.3805461e-01   4.3788091e-01   6.5415961e-01  -1.4714345e-01  -6.3591827e-01  -3.7170958e-01  -7.5003256e-01  -1.5293642e-01  -8.2965941e-01  -8.0118500e-01  -3.2188213e-01   7.2574186e-01   5.4469173e-01   4.3785208e-01   8.7186955e-01   1.7533499e-01   7.4850124e-01  -5.0318163e-02   5.4261349e-01   3.7395366e-01   5.7489150e-01  -9.3059241e-01   1.2681361e-01  -3.2891324e-01  -1.7654492e-01   5.2827457e-01  -5.2106160e-01  -9.1707990e-01  -3.2103468e-01  -8.9077220e-01   4.2159015e-03   1.7766420e-01   7.1428186e-01  -2.2766920e-01   8.7611831e-01  -2.6154434e-01  -9.2282775e-02   1.3559727e-01   5.4734499e-01   5.2447130e-01   4.8834710e-01  -9.0218544e-01   7.1501817e-01  -3.4096798e-01   3.8033447e-01  -9.4445848e-01   8.9659454e-01   7.0190180e-01   1.1920814e-01  -2.9096633e-01  -2.4191473e-03   7.5806912e-01  -6.3651866e-01   5.4734697e-01   8.2099278e-01   2.5385488e-01   5.5591610e-01  -6.5796219e-01  -7.7345863e-01  -2.4336000e-01  -5.8185621e-01   1.7875650e-01  -4.9713210e-01   6.6388482e-01   9.5882419e-01  -2.1053247e-01   8.9696869e-01   4.5803730e-01   2.6188748e-02  -2.7217920e-01   3.1189452e-01   9.1319968e-01  -6.7373921e-01  -7.6770437e-01   6.5514384e-02  -2.7751595e-01   7.2135768e-02   1.8483172e-01   6.7590144e-01  -8.8261409e-01  -6.1032792e-01   1.0994678e-02   2.3307030e-01   4.2897724e-01   2.2376900e-01  -4.3336686e-01  -2.8608692e-01  -7.4338588e-01   8.9873862e-01   6.8715792e-01   8.7681249e-01  -8.9504136e-01  -3.2688604e-02   9.1538312e-01   3.2025042e-01  -3.8240415e-01   3.4180392e-02   5.4067750e-01   9.1830264e-02   5.0851286e-01   7.7116261e-01  -5.2649450e-02   3.7957647e-01   3.4166204e-02   6.3111533e-01   9.0735242e-01  -3.5182090e-01  -5.1889988e-01   8.5587523e-01  -4.3027885e-01  -1.8826989e-01  -4.8666148e-01   1.6584351e-01  -7.9972355e-01   6.9012208e-02   2.0082772e-01  -7.4380513e-01  -9.0014997e-02   2.3886521e-02   8.1977164e-01  -3.0698843e-01  -4.3296050e-01   9.1817418e-01  -3.8503708e-01   9.1316985e-01  -7.9755129e-01   6.8777454e-01   8.6457218e-01  -3.9254053e-01  -1.0097168e-01   4.6453301e-01  -4.9437676e-01  -6.8291439e-01  -9.7936453e-01   1.1716801e-01   2.7911375e-01   9.3292054e-01   8.8613253e-01  -5.3986099e-01  -3.8397169e-01  -3.2651315e-01   9.0238028e-02  -2.2708727e-01   7.2076355e-01  -4.3396976e-01  -4.4644741e-01   4.2562502e-01  -6.7972696e-03   4.8913953e-02   6.8716362e-01  -9.3869464e-02   5.6828306e-01  -2.5174824e-01   2.0363778e-01   6.9684817e-01   8.7601443e-01   1.4173889e-03   4.6414935e-01   8.5358985e-01   5.9755167e-01   5.9815312e-01   2.4120378e-01   2.6037068e-01  -3.1740305e-01  -1.8879335e-01   9.5698477e-01   4.1321408e-01   2.2611786e-02   8.7969089e-01   6.4903454e-02   8.8759283e-01   1.4035923e-01   3.2623813e-01  -4.2689104e-02   8.4678151e-01   9.8069834e-01   9.1567514e-01   9.7011969e-01  -5.5722990e-01  -2.5488128e-03  -7.0917989e-02   1.8542812e-02  -4.7208593e-01   3.8855305e-03   2.8873055e-01   6.4205041e-01  -1.6335285e-01  -9.7782820e-01   4.5725948e-01   4.5982027e-01  -6.8145084e-01  -1.4250668e-01   7.9065767e-01   8.2752083e-01   7.3433564e-02   9.0398772e-01  -5.6790672e-01   8.2425233e-01  -5.0302023e-01   6.0268396e-01   1.6045880e-01   3.1630866e-01  -5.7969291e-01   6.3838319e-01  -6.4644082e-01  -7.0216712e-01  -4.2554084e-02  -4.0209699e-01  -4.3298380e-03  -5.7277218e-01   2.2303287e-01   5.2061314e-01   2.6218007e-01   5.6737375e-01  -4.7781391e-01   5.2783319e-01  -3.7233395e-01  -5.6801683e-01   3.9937158e-01   4.3071640e-01   7.5408414e-01   6.2818721e-01   1.7282514e-01  -1.4211138e-01  -3.2381331e-01   5.6059622e-01   3.4872432e-02   7.2658700e-01   8.4488168e-01   9.4100480e-01  -7.7953056e-01  -2.2838018e-01  -4.7856275e-01  -9.8798152e-01   7.6499312e-01  -3.8066802e-01  -3.5168105e-01  -4.4046203e-01  -5.5098970e-01  -9.0296306e-01   5.5480080e-01
