  -4.4642716e-01   1.6833809e-01  -4.9095100e-01  -4.1716629e-01   3.1227741e-02   4.9216799e-01  -2.9747452e-01  -4.5147519e-01  -2.4478369e-01   7.1558514e-01  -2.7483325e-01   1.4815164e-01   5.1241163e-03   9.3331157e-01   2.5574116e-01  -5.5775588e-02  -1.5633654e-01   2.6122912e-01   8.5497576e-01  -8.2474366e-01  -2.5237664e-02  -1.5728967e-01   9.8326637e-01   3.8432045e-01   9.8648297e-01   1.8731184e-01   7.5487023e-01  -6.9834626e-01  -8.2520179e-01   3.5684656e-01   5.5523856e-01   9.1293675e-01  -5.9012246e-01  -7.2155614e-01   9.8303444e-01   9.0998076e-02   5.9113445e-01   4.1686606e-01  -9.3283395e-01  -7.5029362e-01   4.3274888e-02   7.7708309e-01   4.7875740e-01   6.4504679e-01   3.3224578e-01   4.9583886e-01  -9.2417616e-02  -4.3516745e-01   4.0183736e-01  -3.2462689e-01  -9.6341799e-01  -2.4721096e-01   3.7137550e-01   6.9088086e-01  -4.6745220e-01  -6.7726402e-01   6.8548589e-01  -8.9785871e-01  -5.9222945e-01  -3.9795837e-01   6.3596500e-01   8.2536845e-01   3.7716552e-01   7.3803379e-01  -2.7877444e-01   5.9512059e-01   3.4228394e-01  -3.2957182e-01  -1.6471064e-01   4.6026100e-01   1.8253543e-01   8.0567317e-01  -3.2721481e-01  -5.2212839e-02  -7.6346194e-01  -3.4851666e-01   2.7990413e-01  -8.5474338e-02   6.5070590e-01  -3.5929703e-01  -1.9504503e-01   5.4454991e-01   5.6095515e-01   4.3441873e-01  -3.8959648e-01  -6.5809880e-01  -3.3870937e-01  -7.9845738e-01  -3.6533116e-01  -2.3781895e-01  -5.3410519e-01   6.0458802e-01   6.3839384e-01  -1.9802143e-01  -6.8693954e-01   5.0681459e-01   7.1440234e-01   7.4764784e-02   3.4631916e-02  -4.7034949e-02  -1.2827178e-01   5.9153147e-01  -2.3143895e-01  -3.1077105e-01  -2.0981429e-02   5.8765587e-02  -3.6766274e-01   2.1734986e-02   4.3954088e-01   7.8139714e-01  -1.6395623e-01  -2.4322416e-01  -4.9931315e-01  -2.7164308e-01   5.3117419e-01  -3.3259811e-01  -6.8298194e-01   2.8463050e-01  -2.8252304e-01   3.6312055e-01   9.9992276e-01   8.3669541e-01   1.9583814e-01  -6.6944235e-01   5.1428086e-01   6.2135359e-01   6.8590441e-01   7.8030512e-01  -2.8575287e-01  -4.2636266e-02   6.9968314e-01   8.9601614e-01  -2.3826223e-01   5.0873669e-01  -8.3944990e-01  -8.6901780e-01   1.7126456e-01  -6.1830680e-01   2.2739828e-01   5.3879684e-01  -9.7665864e-01   4.7868806e-01  -6.4069773e-01   6.4082651e-01   9.6595327e-01  -5.5028548e-01   9.5700983e-01  -9.7479533e-01   8.2099771e-01  -7.1326178e-01   3.7363730e-01  -9.0071484e-01   8.9760291e-04   5.4165130e-01  -3.4196898e-01  -1.1546570e-01  -6.9643032e-01   5.9085202e-01   3.3581175e-01   7.0240663e-01   6.4822154e-01   4.5578226e-01   6.4206161e-01   2.1251107e-02  -7.3167369e-01  -4.1484066e-01   1.2583388e-01  -9.9274668e-01   5.7786935e-01   6.3155797e-01   3.3205368e-01   2.0476447e-01   9.6614145e-01  -5.2125248e-01   9.1993682e-01  -1.0655169e-01  -5.9299742e-01   2.0470454e-01  -7.1442269e-01  -1.7981412e-03   7.8911782e-01  -2.9233787e-01   2.3342912e-01   9.6277740e-02   4.7102526e-01  -1.2661933e-01  -5.4006633e-01  -8.8742877e-01   2.7441423e-01   2.0246670e-01  -8.8570752e-01  -2.9138946e-01   8.5054241e-01   6.9902347e-01  -6.1726662e-01  -6.9844658e-01   2.6138722e-01  -4.5123761e-01  -5.6095575e-01   3.8910637e-01   7.1574484e-01   5.5255781e-01  -7.8334541e-01  -8.4871493e-01  -2.2011198e-01   4.2828207e-01   4.1535937e-01   6.6119848e-01   7.5956253e-01   9.0248161e-02   9.1262986e-01   6.7196161e-01  -9.7528009e-01  -2.7178405e-01  -7.3468196e-01   6.5750892e-01   9.4708321e-01  -4.0415978e-01  -7.3173656e-01   6.9373854e-02   4.1762955e-01   2.6138394e-01   6.5033051e-01   4.3146347e-01  -6.8653381e-01  -6.0932898e-01  -4.0097116e-01   3.9492541e-01   4.3963445e-01   9.0566527e-01   7.6064117e-01  -7.2371044e-01  -4.4878870e-01  -5.2665498e-02  -3.7690804e-01  -3.0672603e-01  -1.1256256e-01   1.5729802e-01  -5.2477311e-01  -1.0012751e-01  -7.7003290e-01  -9.3107851e-01  -8.3295442e-01   5.8982559e-01  -9.9977660e-01   3.8901113e-01   1.5118063e-01  -6.6218222e-01   4.3762921e-01   4.3010245e-01   9.8348148e-01  -2.7927528e-01  -1.5691018e-02  -1.6064884e-01   8.5577677e-01   1.4722032e-01  -2.6069972e-01  -6.0685505e-01  -6.4232622e-01   8.8960013e-01  -1.3364121e-01   4.1411581e-01   5.2887852e-01   1.4277938e-01  -4.7435315e-01  -9.9678478e-01   5.3226661e-01   5.5118290e-01  -4.3339042e-01   8.2091943e-01  -2.9442682e-01   9.6503911e-01  -7.2310223e-02   3.4302287e-01  -8.9433034e-01   1.1206162e-01  -4.0760153e-01   9.3252975e-01   1.3215255e-01   4.1605237e-01   2.9416175e-01   8.5996555e-01  -7.7405922e-02   6.9650152e-01   4.7622784e-01  -4.8913353e-01  -6.2863116e-01  -9.1883592e-01   9.0316272e-01   8.5103360e-01   6.7442331e-01   4.2929504e-01  -9.0782983e-01   5.8781010e-01   9.8060238e-01  -7.9891589e-01   3.4398542e-01   5.3754936e-01   3.2782544e-01  -3.7371748e-01  -4.6576277e-01  -7.5641764e-01   6.4984152e-02   2.5871126e-01  -5.5106787e-01   7.8565921e-01   4.8302809e-02   6.9343984e-01   9.6913004e-01  -8.3059888e-01   4.3805655e-01   5.7482174e-01   6.8943281e-01  -2.7256922e-01   3.1680161e-01   5.0215327e-01  -1.2197752e-01   3.9293126e-01  -7.7844055e-02  -2.8643261e-01  -6.0272451e-01   1.3739789e-02  -1.3750332e-01  -1.2526112e-01  -8.3094594e-01   1.3045576e-01  -1.6795633e-01   3.8863771e-01   4.5241159e-01   8.5715275e-02   6.8850281e-03   9.5182889e-01  -7.2913120e-01   4.4981616e-01   9.2230598e-01  -1.3451019e-02   6.8641658e-01  -6.9641221e-01  -8.5018105e-01   3.8077344e-01   4.0893027e-01   6.0732571e-01  -3.1676347e-02  -9.0606157e-01   1.4705624e-01  -5.3413518e-01  -4.8867688e-01  -2.7425482e-01  -4.3476197e-01   8.4251791e-01   9.3386433e-01  -3.5890892e-01   6.5765588e-01  -8.8942724e-01   1.8059930e-01  -2.5960246e-01  -7.2750443e-01   8.8007448e-01  -7.8319660e-01  -4.3529782e-01  -9.3227678e-01  -9.3340919e-01   7.2117180e-01   2.1980254e-01   5.9522298e-01   5.4074819e-01   1.7153618e-01   4.7414425e-01   1.2953229e-02  -8.4772629e-02   6.6521297e-01   3.2945824e-01  -1.1167563e-01  -6.6898392e-04  -3.4119076e-01   1.0860298e-01  -7.6925898e-01  -8.4505825e-01  -5.9302562e-02   7.6113934e-01  -4.6052627e-01   8.9225747e-02   2.9737719e-01   1.7504316e-01   1.3020254e-01   5.2807047e-01  -4.2734961e-01   3.0295426e-01   8.2655073e-01   8.0313798e-01   2.5345040e-01   9.7823096e-01   1.0618260e-01  -5.5199206e-01   5.8214994e-01   8.9607555e-01   6.3767686e-01  -3.1358417e-01  -9.5917764e-01   3.2925205e-01   7.5326768e-01   9.5147986e-01  -1.9428257e-01   8.7383329e-01   3.7002398e-01   8.7002643e-01  -1.5902713e-01  -3.7559774e-01   4.4323294e-01   1.2532531e-01  -3.4748540e-01   9.6209744e-01  -2.8314169e-02  -4.1126144e-01  -5.0540256e-01   3.6909588e-01  -6.2181875e-01  -3.9582711e-01   8.4261005e-01   9.6685491e-01   6.7623463e-01   4.3723209e-01  -7.4038426e-01  -5.1272596e-01   2.3655091e-01  -4.6936125e-01   9.8712317e-02   3.9308013e-01  -7.5477753e-01  -8.3053459e-01   4.8525197e-01  -3.6257647e-01  -8.0151666e-01   6.2211825e-01  -9.0501812e-01   6.2112207e-01  -1.5643307e-01  -6.1024692e-01  -8.8446998e-01  -2.7551242e-01   6.5890075e-01  -8.3650939e-01   4.2292332e-01  -1.7255477e-01   8.5488479e-01  -2.5024607e-01  -3.9021281e-01  -2.4537051e-01   4.8094828e-01   9.6328643e-01   7.4793387e-02   4.6355393e-01  -1.2534507e-01  -1.7511116e-01  -5.1327969e-01  -9.0612426e-01   4.5821647e-01  -7.6986185e-01  -5.7809341e-01  -8.2173275e-01  -7.0193886e-01   3.2809298e-01  -4.2576323e-01   9.3360388e-01   8.4563307e-01  -5.2345473e-01  -4.8448055e-01   9.4621612e-01  -4.3536205e-01  -9.4620855e-01  -9.4407229e-01   8.2758840e-01  -9.0588377e-01   6.2947863e-01   6.2636886e-01   7.6092846e-01  -4.7238572e-01  -3.3228578e-01  -5.9246854e-02  -4.3787632e-01   7.1207289e-01  -4.1108989e-03  -1.3923184e-01   5.2955908e-01   4.8292793e-01  -9.5081569e-01   8.8957208e-01   9.0349114e-01   2.6493695e-01   1.7615081e-01  -4.5245312e-01  -1.7258956e-01  -4.3516516e-01   7.2097128e-01   5.0936885e-01   5.3878827e-01   3.3349930e-01   8.2575512e-01  -2.1201836e-01   9.0419697e-01   8.6187245e-01   6.8080153e-02   4.8519719e-01  -9.2991412e-01   2.0475531e-01  -4.3981138e-03   4.6634134e-01   6.5301874e-01   6.7420101e-02   5.0540472e-01  -1.3314243e-02   2.7497412e-01   8.6805639e-01  -4.3798310e-01   1.7107489e-01  -6.6738940e-01  -3.7587705e-01   9.9866175e-02   1.4116110e-01  -9.6925184e-01  -8.1517866e-01  -6.3942791e-01   9.8060935e-01  -5.9886998e-01  -8.8885559e-01  -1.2893727e-01  -7.1200243e-01   5.9868343e-01   4.4601658e-01   3.4340094e-01  -1.6118685e-01  -1.1239155e-01   2.8750149e-01  -3.8925888e-01  -5.0448569e-01   6.3275349e-01  -1.6701388e-01   3.4916310e-01   7.0624022e-01   5.9683026e-01  -3.7716999e-03  -2.6543579e-01   5.1742994e-01   6.0652077e-02   6.0010437e-01  -6.4736935e-01   1.0608723e-02  -4.0873944e-01  -2.4194107e-01   4.4023456e-01   2.1258534e-01  -3.1536538e-01  -5.2894123e-01   5.3842149e-01   3.1730555e-01   1.0232907e-01   4.9644777e-01  -3.8719440e-02   3.7228090e-01  -4.0346857e-01   9.2123358e-01   6.4079887e-01   4.8382752e-02   9.9378069e-01   9.0959471e-01  -3.9703208e-01  -3.8157156e-02   4.4764164e-01   7.2361275e-01   6.0196588e-02  -2.1405152e-01  -3.8533633e-01   9.6717894e-01  -4.3494367e-01   3.2257190e-01  -9.8791125e-02   5.8498231e-01   9.5335451e-01   1.4154843e-01  -1.8229036e-01   1.2554581e-01   8.7759913e-01  -3.4087875e-01  -2.2203595e-02  -2.4172921e-01   9.3427661e-02  -5.9955207e-01  -2.7157657e-01  -7.4890684e-02   6.9715893e-01  -9.3619322e-01  -7.0315488e-01  -2.6645967e-01   8.1860170e-01  -6.5533704e-02   9.6715312e-01  -9.2218381e-01  -2.1107046e-01   9.7454167e-01   8.9102739e-01   6.3476635e-02   4.6631057e-01   1.0647436e-01  -7.6058527e-01   5.6397956e-01   5.2835861e-01  -7.9678345e-01   6.6618103e-01   6.8364432e-01   6.9137491e-01  -2.7098506e-01   9.6452903e-01   6.9154029e-01  -8.2298135e-01  -2.2332016e-01  -5.7791351e-01   5.9087656e-01  -6.5475200e-01   6.7874976e-01   7.1988625e-01   1.8512239e-01  -5.9621080e-04  -8.1737963e-01  -2.9373883e-01   3.5846802e-01   1.7958027e-01  -4.5632787e-01  -2.1946131e-01   1.3680406e-01  -4.6083401e-01   8.0396432e-01   6.2450595e-01   8.4435443e-01   8.8548605e-01  -6.8646881e-01   5.1894793e-01  -7.7338500e-01  -5.9891324e-01   7.9040074e-01  -1.2513958e-01  -6.4724114e-01   5.3154733e-01  -2.2851448e-01  -6.7550041e-01  -2.7403510e-01  -3.4315838e-01  -5.7603220e-01   5.8526158e-01  -9.7660867e-01   7.5417375e-01  -2.0525859e-01  -1.8374713e-03   6.1534370e-01   1.1450378e-01  -3.5912933e-01   9.8016793e-01  -9.6655110e-01  -2.0238449e-01   3.3419805e-01   5.2513302e-01   3.6517285e-01   3.8367664e-01  -4.9420422e-02  -1.2268063e-01   2.9682336e-01   3.5908341e-01   6.2514510e-01   1.2101838e-02  -7.9548118e-01  -7.8007406e-01   9.9168414e-01  -3.7341439e-02   4.2598505e-01  -4.5359401e-01   9.0570960e-01  -4.4786589e-01  -5.2399672e-01  -6.7019510e-01   4.3515495e-02  -3.3545954e-01  -9.5268170e-01   9.6559377e-01   3.6864831e-01   8.2534153e-01  -1.9531789e-01   9.8477419e-01  -7.7214651e-01  -5.5681459e-01   1.3221357e-01  -5.9150092e-03   3.5532021e-01   2.6319488e-01   3.0720392e-01   5.9600753e-01  -7.0139647e-01  -7.2677143e-01  -3.6059765e-02  -6.2826160e-01   1.8732634e-01   2.3400406e-01   6.7699750e-01   5.7795794e-01  -3.4646549e-01   9.1064814e-02  -6.6567036e-01  -7.5750712e-01  -4.9666663e-01  -7.7509526e-01  -8.3525746e-01   8.0626050e-01  -5.1470287e-01  -4.9686182e-01  -9.1813390e-02   4.1802947e-01   7.0563553e-01  -1.6224834e-01   2.4049637e-01   4.6240616e-02   3.7134202e-01   2.7626041e-01  -6.8890937e-01   6.2765861e-01   5.9041227e-01   6.1264676e-01   2.5719764e-02   1.0146013e-01  -7.6842836e-01  -4.6699784e-01   4.8595075e-01   9.8821102e-01   4.4039862e-01  -6.0680484e-01  -7.7755567e-01  -5.5433040e-01  -4.2817974e-01  -3.5288500e-01   2.3275839e-02   3.4514540e-01   7.2108723e-01  -8.5769605e-01   2.3685441e-01   9.4009480e-01   9.6708423e-01  -1.8687261e-01   8.8130452e-01   5.2244614e-01  -6.2597195e-01  -9.5851653e-01   4.8180113e-01   6.2687713e-02  -4.3930220e-01   9.2611050e-01   8.9629989e-01   5.4597579e-03   2.9340369e-01  -7.2266090e-01   9.1224264e-01   8.0874584e-01  -3.1479714e-01  -1.8395922e-01   6.2489741e-01   2.6241716e-01   5.3508353e-01  -3.7495578e-01   7.3363617e-01  -3.9171308e-01  -5.4487733e-01   6.0131930e-01   1.1498380e-01  -5.4032821e-01  -4.7441233e-01   8.2741182e-01  -2.0485081e-01   7.3782326e-01   4.2178414e-01   4.9281202e-01  -9.4401389e-01   4.7978367e-02  -2.7022972e-01   1.6671141e-02  -8.1885922e-01   3.6527349e-01  -2.8747906e-01  -1.5204598e-01   2.5293198e-01  -9.7402600e-01   7.7639910e-01  -1.1252716e-01  -4.2413526e-02  -6.1826905e-01  -9.8209731e-01  -5.5904854e-01  -4.0303916e-01   5.6145258e-01  -9.0020714e-01  -9.3048849e-01  -8.3839831e-01   4.5756882e-01  -5.5969346e-01   7.5729216e-01  -1.6935812e-01  -6.3979862e-01  -1.5546964e-01  -8.1428818e-01   5.5447826e-01  -4.0307145e-01   7.3835607e-01  -5.9756531e-01  -2.0560537e-01   1.5698632e-02   3.0542528e-01  -6.6593702e-01  -1.8593297e-01  -3.7817474e-01   2.3588282e-01  -2.0899943e-01   9.6554484e-02   4.8814091e-01  -3.2673542e-01   5.6541716e-01  -9.5802527e-01   3.3065868e-01   9.8200197e-01   1.6982220e-02  -5.6486694e-01   9.8497214e-01   2.0790311e-03  -9.1829101e-01  -4.1973640e-02   8.0310559e-01   9.6907314e-01  -5.7621703e-01   2.9718198e-01  -8.1815364e-01   7.5826318e-01   9.8304551e-01  -4.4617100e-01   3.3827288e-01  -9.3591760e-01   9.7429318e-01  -3.0474483e-01   5.0932409e-01  -4.0345864e-01  -7.6493786e-01   7.5550027e-01  -3.6127714e-01   5.6990621e-01   5.4810156e-01   3.6591750e-01  -4.2034485e-01  -2.9219179e-01   8.4144997e-01  -5.5599305e-01  -1.6699510e-01  -4.9355628e-01  -9.8390539e-01  -3.6834812e-01   3.3545808e-01   6.7534951e-01  -5.1334013e-01   8.3508463e-01   5.9850755e-01   8.5942734e-01  -4.0990960e-01   9.8557251e-01  -3.3771204e-01  -9.7532996e-01  -1.0099357e-01   6.5479432e-02  -2.8950560e-01   6.7123894e-01  -8.7480447e-01   9.4616387e-01  -3.0121437e-02  -4.9632062e-01  -4.5093194e-01  -4.3520951e-01  -7.2230356e-01  -8.5945044e-01   3.9033784e-01   5.8021181e-02  -7.5543968e-01  -5.7342519e-01   8.3523908e-01  -7.5044343e-01  -9.2279182e-01  -6.5127400e-01  -4.0935936e-01   9.0134466e-01  -7.8796018e-01   9.5209933e-01  -1.2972026e-01   5.8602365e-01  -6.0610977e-01  -6.6308009e-01   2.1362259e-01   7.2432571e-01   7.0233785e-01   9.8101334e-01  -8.7163916e-01  -9.0767870e-01  -9.3658014e-01   8.2327037e-01   6.7297538e-01  -9.2263580e-01   1.8296319e-01   3.9462704e-01  -3.3222773e-01  -3.3094154e-01   8.7815987e-01   5.2141269e-01  -1.6903698e-01  -4.0465185e-01  -2.7815557e-01   3.3431071e-01   9.2900194e-01   6.1894252e-01   5.0653480e-01   6.5602229e-01  -7.5399926e-01   2.8102019e-01   5.5860141e-01  -3.6717288e-03   1.1758410e-01   3.4649891e-01   4.3646503e-01   2.6928738e-01  -7.4460413e-01  -9.7561173e-01   9.1424093e-01   9.9909773e-01  -4.9797788e-01   9.2748265e-01  -2.6343670e-01  -7.3261333e-02  -9.7267623e-01   7.1130450e-01  -1.9176472e-01  -8.0221194e-03   5.4519268e-01   6.4111384e-01   1.4997901e-01  -8.4048678e-01  -1.5645238e-01  -5.3240750e-01   8.5031115e-01   2.5789484e-02  -9.7713217e-02   6.4353940e-01  -9.9041198e-02   8.8401165e-01   3.1224451e-01  -3.8198861e-01   6.8147890e-01  -2.5525415e-01  -2.1515767e-01   9.4365040e-01   6.4913899e-01  -6.6812224e-01   7.1867585e-02  -8.3753367e-02  -7.0954273e-01  -7.6765501e-01  -7.3134102e-01  -5.1928250e-01  -5.7805639e-01   1.7266758e-01   8.2183450e-01   5.4281618e-01   1.6980535e-01  -6.1796207e-01   3.0181089e-01  -7.8130224e-01  -6.8007423e-01  -5.1000957e-01  -9.0232607e-01   8.6168418e-01  -2.8719950e-01  -1.7395056e-01   7.7183177e-01  -8.9641811e-02   7.9004775e-01   1.5023705e-01   9.6759184e-01   8.7827284e-01   2.6259216e-01   8.8031410e-01   3.7633297e-01  -3.3315900e-01  -8.0911763e-01  -6.7353548e-01   7.9356708e-02  -2.7718146e-01  -2.7916387e-01   4.4827051e-01  -1.9554548e-01  -5.3565106e-01  -4.4306731e-01   3.8170711e-01   7.8893050e-02
