   9.0069557e-01   9.2752281e-01   7.4594781e-01  -3.4263992e-01  -4.4571882e-01  -1.8295688e-01   1.3504515e-01  -9.2080836e-02  -8.5246831e-02   6.1391769e-01   5.3344079e-01   4.1719402e-01  -4.2217529e-01   5.9353619e-01  -5.1525691e-01   6.6324346e-01   7.3239553e-01  -8.2120207e-01  -5.5376428e-01   7.0485726e-01  -5.1897576e-01   3.7806083e-01   5.1832022e-01   9.1355067e-01   9.0800697e-01  -7.0332592e-01  -5.3914703e-01   5.5157145e-01  -4.8898388e-01  -3.3895121e-01  -2.5094961e-01  -4.1411385e-01  -6.4719106e-01  -9.9499274e-01   9.0797534e-01  -6.1763370e-01  -8.6606517e-01   8.9842547e-01   6.7961122e-01  -2.1730395e-01  -9.9780446e-01   4.4238185e-01  -8.4926925e-01   2.2939885e-01   1.1848868e-01  -1.9884650e-01   1.5138824e-01   6.7940787e-03  -7.7099663e-01   4.6808342e-01  -6.1311872e-01  -6.1136866e-01   6.6226212e-01   1.7347603e-01   7.3311022e-01   9.1583750e-01  -8.7942193e-02  -6.4097250e-01  -8.5437734e-01   2.2663109e-01   1.6723989e-01   6.2967525e-01  -2.1277757e-01   8.8836591e-01  -5.8966107e-01   4.7961783e-01   4.5549056e-01   6.6163121e-01  -2.3706923e-01  -9.1684531e-01  -6.9702892e-02  -1.3422880e-01   2.2726346e-01   8.1932539e-01  -3.0969739e-01  -8.9609013e-01   3.2081373e-01  -9.7107969e-01   5.6215115e-01  -6.2428302e-01   6.2747483e-01   8.4533784e-02  -1.6166077e-02  -2.5992121e-01  -9.3882403e-01   1.0089453e-01   5.2083855e-01  -9.6605708e-01   8.0454128e-01  -7.8256221e-01   2.4633922e-01   6.4452015e-01  -6.0769814e-01  -9.7652326e-01  -3.2419725e-01  -9.1869600e-01  -4.8614966e-01   6.4705691e-02  -7.1958944e-01  -9.3039820e-01  -5.7218537e-01   2.3275146e-01   3.1171716e-01   7.9095192e-01   4.1600940e-01  -8.1716108e-01  -4.2835363e-01  -5.2967728e-01   2.9521431e-01  -3.8449934e-01   8.5056849e-01   6.8579687e-01  -3.8896001e-01  -5.0767397e-01  -1.5062255e-01  -7.4337857e-01  -1.5082972e-02   4.8261438e-01   2.0219113e-01   5.1266160e-01  -2.2669416e-01  -1.0114578e-01   2.0365592e-03  -8.7592040e-01  -8.3517851e-01  -4.9830308e-01  -7.0688743e-01  -1.7179490e-01  -6.3507810e-01   1.2724687e-01   7.0141356e-01  -9.4144891e-01  -4.9888502e-01   7.3475271e-01  -6.3082481e-01  -1.2886631e-01   4.7625304e-01   2.1930340e-03  -6.6594193e-01  -6.9480843e-01   3.9721779e-01   1.5039324e-01   9.6749072e-01   4.9276150e-01  -7.4072639e-01  -7.8430210e-01  -4.8749017e-01  -8.2564776e-01   3.7127263e-01  -3.4679434e-01  -6.9056138e-02   5.9801383e-01  -5.8077282e-01   6.2376729e-01   8.4130850e-01  -6.9841501e-01  -5.5031164e-01  -9.9467572e-01   3.0409537e-01   2.7366460e-01   1.2791474e-01   1.6606005e-01  -5.7303058e-02  -1.8861494e-01   4.6738810e-01  -2.3415862e-01  -4.3060235e-01   3.4264299e-01  -9.0290333e-02   6.8948392e-01   9.4013831e-01   4.7231087e-02   9.9021525e-01  -5.1473771e-01   5.6198658e-01   6.4854245e-01  -8.3883450e-01   4.2973113e-01  -4.7397080e-01  -3.8353594e-01  -1.4071610e-01   4.1955852e-01   2.5083417e-01   8.2127336e-01   3.3952272e-01   2.2732582e-01  -3.2396380e-01  -6.0193356e-01  -2.4187047e-01   1.5624448e-01   8.5626875e-01  -5.3517443e-01   5.5790659e-01  -3.0812766e-01  -5.8390606e-01   6.9334361e-01   4.4034597e-01   7.3512062e-01   3.0444278e-01   5.3035828e-01   4.9127005e-01   4.7648279e-01  -4.8638917e-02  -3.4654372e-01  -7.5005019e-01  -6.8040564e-01  -4.2893441e-01  -5.1946088e-01  -9.7441859e-02   1.6091787e-01  -9.2317455e-01   3.4959708e-01  -3.7973915e-01  -1.5831704e-01  -6.4367040e-01  -7.5746269e-01   1.1881257e-01   3.3950850e-02   4.5331821e-01  -5.7793443e-01  -8.3251246e-01   6.0504109e-01   4.5811335e-01   9.6204560e-01   4.6320168e-01  -7.5824356e-02  -2.9332539e-01   2.4336692e-01  -6.6828786e-01  -2.9015453e-01  -2.4643959e-01   5.3982248e-01   5.6695376e-01   7.6065431e-01  -5.9511706e-01   5.8548380e-01  -5.6651640e-01  -6.5286584e-01   2.9966942e-01  -7.8025558e-01  -3.2165277e-02   3.9778556e-01   6.3423491e-01   9.7167092e-01  -2.7330079e-01  -2.5802281e-01  -6.4757031e-01   6.4295949e-01  -5.0791612e-01   2.1087713e-01   9.8191222e-01   8.3338862e-01   7.6972845e-01  -7.0309742e-01   3.7756801e-01  -7.0553661e-01   6.6445781e-01  -9.7620382e-01   6.9927606e-01  -7.6680252e-01  -2.8086340e-01  -5.7981080e-01  -2.9694436e-01  -9.5946106e-01   1.4030508e-01  -5.8787389e-01   1.1600316e-01  -1.3007854e-01  -7.7206524e-01   3.3094619e-01   4.8420395e-01   7.1268172e-01  -2.0128157e-01   6.5722127e-01  -4.0394559e-01   2.4643697e-02   4.4652690e-01   5.8268253e-01   6.9711887e-01  -5.7336655e-01   4.0380063e-01   9.1199552e-01  -2.2630780e-01  -3.4643663e-01  -5.3208929e-01   6.3079528e-01   7.6903408e-01   6.5018393e-01  -5.8272757e-01  -4.1872918e-01  -9.7923556e-01  -6.6293809e-01   7.7790964e-01  -5.1399635e-01  -5.1034339e-01   3.0464971e-02  -9.0139211e-01   8.9863161e-01  -5.1721916e-01  -2.7581360e-01  -9.3648564e-01   8.0734042e-01   5.7460631e-02   4.6387910e-01   6.2478283e-01   8.0284602e-02   9.2036746e-01   5.3840361e-01   2.1130746e-02   6.9494643e-01  -3.9748752e-01   9.2090177e-01   7.1369618e-01   5.9475397e-01   6.9850732e-02   1.7029319e-01   3.7823991e-01  -9.1035258e-01   7.4439515e-01   3.0349341e-01   6.2483789e-01  -2.6864086e-02   8.9132164e-01   4.1182149e-01  -8.8465937e-01   1.0167114e-02  -6.1222618e-01   3.4638119e-01   5.3163997e-01  -8.6059418e-01   1.6582649e-01  -3.2248921e-01  -5.7533633e-01   4.2400085e-01  -9.2868591e-02   6.0469366e-03  -7.4649532e-01  -9.9198695e-01  -4.0558753e-01   3.4506286e-01  -9.5652235e-01  -7.4184491e-01   9.3254232e-01  -7.6534426e-01  -2.0507726e-01  -7.1061298e-01   8.6725423e-01   1.9694266e-02   3.0819861e-02   8.8695441e-01  -9.0686775e-01   4.9577238e-01   5.9772357e-02  -2.5517209e-01   1.6730959e-01  -8.3673340e-01  -5.1380000e-01  -2.1772214e-02   9.7694825e-01  -1.8352510e-01  -4.6890629e-01  -2.3344152e-01   9.6512855e-01  -2.5522843e-01   6.6869224e-01  -4.9045584e-01   7.3789956e-01   2.0926218e-01   4.0628328e-01  -8.8912997e-01   7.0202223e-01  -3.8012128e-01   6.7945938e-01  -3.6938160e-02  -2.0314615e-01  -6.6711496e-02   7.6741256e-01  -4.9663293e-01   9.5153740e-01  -9.7773207e-02  -8.6570471e-01   3.3067244e-01   4.8617076e-01   9.4253323e-01   9.1531276e-01   8.8780354e-01   5.6156216e-01  -6.6041343e-01  -3.1433422e-01  -6.3515014e-01  -4.7374348e-01  -2.2993735e-01  -5.4350779e-02  -5.9189383e-01  -1.1739856e-01  -3.9116973e-01  -8.6874880e-01   2.2499913e-01  -2.4886862e-01  -7.3660461e-02   5.6366777e-01  -6.2364581e-01  -7.9315008e-01  -5.3215078e-01   8.4665017e-01  -3.6140123e-01   6.7771801e-01  -2.5978643e-01  -1.5032985e-01  -9.1970498e-01   5.9687965e-01  -9.0156944e-02  -4.8769069e-01   1.4160546e-01   7.5356860e-01   5.9214646e-01   1.6378063e-01  -9.1546734e-01   4.9169462e-01   2.7152726e-01  -4.8638522e-01  -2.9257238e-01  -1.4716204e-01   8.1164109e-01  -3.4558764e-01   9.6362878e-02  -2.1259284e-01  -7.3595032e-01   7.1958991e-01  -5.4360324e-01  -3.9179778e-01   2.0159910e-01   1.9418861e-01   9.2069457e-01   5.3734510e-01   7.2521752e-01  -2.0034198e-01   8.5984041e-02  -8.4028080e-01  -9.2405148e-01   4.1710180e-01  -7.4247364e-01   1.5348081e-01   2.0107392e-01   4.2603554e-01  -7.6867790e-01   2.2329124e-01   6.0223931e-02   5.7719652e-01   8.8763794e-01   9.0303030e-01  -1.0123534e-01  -5.4630207e-01   8.9393622e-01   1.4670663e-01   4.0839896e-01  -4.7492054e-01   9.9267398e-01   6.7659507e-01  -6.6350645e-01   6.2003650e-01   1.7488491e-01   8.5564798e-01  -9.6426241e-01  -9.2281036e-01  -4.7137266e-01   5.2563628e-01   8.2468550e-01   7.7859576e-01  -5.9961606e-01   4.4512111e-02  -4.7786285e-01  -1.8025194e-01  -1.1367677e-01  -8.5821733e-01   7.6638037e-01  -4.9403287e-01   5.9141523e-01  -8.6620695e-01  -7.3813085e-01  -8.3130554e-01   4.6472848e-01  -3.8014240e-01  -9.6275863e-01  -7.0449136e-01   6.8734850e-01  -7.7558003e-01   6.4591963e-01  -6.9042123e-01  -3.0043239e-01   8.7024300e-01   6.7051462e-01   9.7368421e-02   1.8690121e-01   6.3891324e-01   7.2273455e-01  -7.1670289e-01  -7.2606093e-01  -4.5387515e-01   2.2014029e-01   2.0087287e-01  -7.9589259e-01  -5.1055971e-01   6.9607921e-01  -8.2806024e-01  -3.0779220e-01  -1.4246137e-01  -9.4117019e-01   9.4669050e-01  -5.9748199e-01  -7.8894760e-01   1.3741561e-01  -3.8374885e-01   3.1726716e-01  -9.1559844e-01   4.7863398e-01   8.2869878e-01  -8.6193605e-03   9.8981935e-01  -9.9004476e-01   3.5220099e-01  -2.9978012e-01  -5.6626478e-01   7.1003305e-01  -8.9370975e-01  -6.2278000e-01  -6.2752175e-02   5.2763495e-01  -6.9417223e-01  -9.3090666e-01   3.2066919e-01  -9.0877277e-01  -1.5248077e-01  -6.1958046e-01   1.7399071e-01  -3.2425368e-01   3.1392462e-01   6.6737781e-01  -1.7077792e-01  -2.7067860e-01  -5.1264783e-01   3.4017452e-01   2.9254901e-01   3.8138015e-01   4.9440180e-01  -8.5370828e-01   6.3471896e-01  -2.6189852e-01  -7.8505784e-01  -8.7898472e-01   3.6487731e-01   8.5924669e-01   1.8079734e-01   1.2664884e-01   6.7172399e-01  -3.9646453e-01  -8.2543988e-01  -9.2460051e-03   2.4715687e-01   4.0875779e-01   6.7344818e-01  -7.3893848e-01   1.9015653e-02  -8.5379317e-02   9.0473950e-01  -5.2461927e-01  -1.0786330e-01  -2.7352657e-01  -6.2270439e-01  -9.8250962e-01  -8.6881493e-01   5.3594477e-01  -4.2078457e-01  -8.5924287e-01  -4.7406793e-01   1.5302702e-02   6.2138317e-01   8.3461094e-01   7.7915715e-01  -2.7771126e-01  -8.4677166e-01  -4.6369791e-01  -8.3381554e-01  -7.7871135e-01   3.2442807e-01   7.6661578e-01  -6.6366302e-01  -5.3714212e-01   9.3368032e-01   2.6516934e-01  -6.3053701e-01  -4.2762018e-02   4.7013524e-01  -9.3954764e-01  -6.5124482e-01   5.2944981e-01   4.9177516e-01   1.6062679e-01  -8.6745328e-01   1.9243207e-01   9.1218526e-01  -1.3334812e-04  -7.6524833e-01   4.6297008e-01   2.4789015e-01   3.2653613e-01  -1.9360387e-02   4.4252640e-01  -2.8546537e-01  -4.1493942e-01  -8.9019512e-01  -3.8429969e-01  -7.3069468e-01  -1.0537925e-01   6.0788236e-03  -7.3875090e-01   2.1482443e-01  -6.0550468e-02  -2.7417596e-01  -7.0523635e-01   1.8185561e-02   4.7162110e-01   9.4342228e-01  -2.8247332e-01  -6.5963815e-01  -5.4167141e-01   4.4167967e-02   7.8398586e-02  -9.8919429e-01  -2.3164998e-01   1.5092746e-01   4.2096374e-01   7.5887712e-01   3.0305373e-01  -9.8357740e-01  -8.4279337e-01   2.8391523e-01   5.7015570e-01   1.7933984e-01   3.7771285e-01  -7.9788866e-01   5.3885863e-01   3.8373952e-01   7.9515321e-02   2.1557168e-01   6.3639029e-02   8.1175738e-02   8.5114300e-03  -8.0662281e-01  -1.0504844e-01   5.3541898e-01  -8.5314474e-01   5.9574954e-01   4.9978104e-01   9.7355769e-01   6.4729804e-01   3.3000393e-01  -5.3261235e-01   5.4340702e-01  -4.8544143e-01  -4.9987728e-01  -3.1810880e-01   5.6564153e-01   9.7058594e-01  -2.5814696e-01  -6.1483632e-01   6.9655110e-01  -3.2747381e-01  -8.4264795e-01  -5.2474372e-01  -1.7583099e-01   6.5443284e-01  -5.2248499e-01   6.0632806e-01   4.3274242e-01  -9.8063101e-01  -1.2400563e-02   2.7275197e-01  -2.7284798e-01  -8.6349854e-01  -2.2874803e-01   9.1238562e-01   2.4071295e-02   1.6632922e-01   3.7072749e-01   1.1093105e-01  -3.1228359e-01   3.3817384e-02  -9.2577711e-01  -9.4519775e-02   2.7264829e-01   3.9030465e-01   5.2916046e-01  -7.3020995e-01  -6.9856033e-01  -9.8573622e-01  -7.7052849e-01  -7.4763080e-01  -9.1333340e-01   1.6847586e-01   2.1692977e-01   6.3526282e-01   1.9459253e-01  -8.8509217e-01  -1.4604911e-01  -4.7123029e-01  -9.7756342e-01   2.8105105e-01  -3.4013361e-01   6.7838029e-01  -1.0740897e-01   7.3006013e-01   5.1911752e-01   1.9023600e-01   8.2792610e-01   9.0509452e-01  -6.0321793e-01   7.3169931e-01   7.5833743e-01  -7.5603561e-02   6.3771728e-01   8.1143080e-01   6.0099759e-01  -2.0628142e-01  -7.3529949e-01  -5.4492787e-01   4.5253940e-01  -3.2871673e-01  -3.8759422e-02  -5.5836600e-01   8.7612979e-01  -4.3467826e-01   2.2798922e-01  -8.5706109e-01  -8.6822063e-01   9.0995460e-01  -6.2241169e-01   9.3809083e-01  -5.9778255e-01  -8.0023062e-01  -4.5387529e-01   1.5442221e-01  -8.7002130e-02  -2.3690087e-01   5.5689183e-01   8.9931427e-01   2.4922625e-01  -1.4746091e-01   3.2980202e-01  -7.4562098e-02   4.6817355e-01   6.9516461e-01  -8.4121181e-02  -7.0689948e-01  -7.9691721e-01  -7.7102550e-01   9.5250685e-01   6.2741545e-01   1.0486416e-01  -8.5710932e-01  -9.6434512e-01  -2.0993145e-01   6.0198770e-01  -8.4467480e-01  -4.3972007e-02   9.9900602e-01  -1.9023206e-01  -2.8562188e-01  -8.6788743e-01  -1.8637886e-01  -6.6692824e-01   2.0534938e-01  -6.2839350e-01   7.7401356e-01   1.9635668e-01  -2.9469224e-01  -7.9738562e-02  -3.1382785e-01  -1.8932417e-01  -5.0703943e-01  -8.6154938e-01   8.0371815e-01  -2.9921396e-02  -3.8568089e-01  -2.3149506e-01  -6.1785371e-01  -8.8532736e-01  -6.6556286e-01  -7.0142648e-03  -8.1663479e-01   5.9138250e-02   7.8540417e-01   1.7592170e-01   7.6877911e-02  -2.0560436e-01  -8.4803985e-01   8.8567967e-02   9.1761506e-01  -6.7765095e-01  -4.8906739e-01  -2.1471973e-01   1.3880948e-01   1.0100461e-01  -6.2523608e-02  -1.6214511e-01  -8.2080118e-02  -6.3681535e-01  -1.7342453e-01  -9.6634484e-01   8.3116623e-01   3.0215024e-01  -5.7097640e-01  -8.9862641e-02   6.2237698e-01  -9.4484757e-01  -9.7484083e-01   9.6878248e-01   7.7786051e-02   5.4090065e-01   8.9207276e-01  -6.2323890e-01   7.4703339e-01   8.1525031e-01  -9.1542824e-01  -8.6874884e-01   2.4171621e-01  -1.5808422e-01   2.7175151e-02   6.5168565e-01   9.6419313e-01   7.5578712e-02  -5.7304470e-01   5.8652497e-01  -8.8555961e-01   5.0298971e-01  -8.9704017e-01   9.7276287e-01  -1.4222938e-01   1.8880469e-01   8.9311894e-01  -7.2324827e-01   6.5569855e-01   1.7522829e-01  -5.3948594e-01   2.0492184e-01  -3.1065359e-01   7.5931703e-01  -5.5422731e-01   6.3456243e-01  -9.7541003e-01   8.5417852e-01  -1.7686780e-01   4.7470748e-01  -4.2964638e-01  -2.6478215e-01  -4.5024107e-01  -2.7313712e-01  -5.8262669e-01   6.6569737e-01  -9.4878040e-01  -6.8110687e-01  -8.1790959e-01   4.6391327e-01  -8.1366723e-01   9.6381235e-01  -1.0769020e-02  -8.9072519e-01  -5.4313990e-01  -9.1340936e-01  -7.6097788e-01  -4.8837090e-01   8.7162482e-01   1.4814309e-01   3.7008054e-01  -1.4278829e-01  -7.4126676e-01   9.8822478e-01  -9.3789767e-01  -4.1760517e-01  -1.5709189e-01  -9.5305561e-01  -2.4628874e-01   7.8395544e-01  -2.6348852e-01  -6.5027811e-01  -6.3555765e-02  -7.1395574e-01   1.9917226e-01   8.7887933e-01   1.5328935e-01   4.6760270e-01   7.5382683e-01   4.2026766e-01   8.1808850e-01  -6.9864366e-01   8.5052377e-01   8.1711282e-01   8.4314950e-01  -1.5804998e-01   9.3581489e-01   1.4705268e-01   2.1861481e-01  -8.1960396e-01   4.0519349e-01   2.5101368e-01   7.4913189e-01   2.2995251e-01  -2.5463223e-01  -5.7469318e-01   8.4207376e-01  -4.9217954e-01   1.2593767e-01   2.8417786e-01   7.9262711e-01   6.1843126e-01  -8.8192576e-01   4.3613421e-01  -2.5751167e-01  -7.6710672e-01   7.5398408e-01  -9.4187904e-01   1.7121067e-02   9.0982502e-01  -5.6103455e-01   2.3995020e-01   9.2153290e-02   5.4796578e-01   1.3844292e-01  -2.9996453e-01  -8.8402558e-01   3.9519324e-01  -3.7867976e-01  -7.3326532e-01   7.4978234e-02  -4.8132049e-01   7.4012162e-01   7.7378554e-02   7.6590498e-01   4.4861253e-02  -4.4382112e-01  -9.3302318e-01  -5.3165999e-01   4.9936377e-01  -5.1439458e-02   5.1749623e-01   6.0578935e-01  -9.0243261e-01   2.1404254e-01  -4.3038342e-01   2.5802304e-01  -6.6289225e-02  -7.7282928e-03  -7.4413489e-02   9.1930720e-03   8.3149909e-01   2.9893695e-02  -8.3441081e-01   2.6388261e-01   9.6054803e-01   2.5430353e-01   9.5811044e-01   1.6370340e-01   8.2684713e-01   6.0090831e-01  -8.1867276e-01   7.3304278e-01  -1.3470773e-02   2.2268046e-01  -8.1377997e-01   7.0241173e-01   4.9916041e-01  -6.9652450e-01   1.5227455e-01   7.0744599e-01  -7.1010850e-01  -1.7142461e-03   6.1480859e-01   1.1159281e-01  -5.8059909e-01  -1.3631864e-01   7.1091283e-01   3.0153861e-01  -5.4221396e-01   4.3342523e-01   8.8976448e-01  -1.2427638e-01   9.4454828e-01  -6.0538960e-01  -2.2279115e-01   9.3821383e-01  -3.8753747e-01  -1.1905284e-01   8.4774955e-01   4.4763177e-01  -4.8581079e-02   7.3242587e-01  -3.0092885e-01  -8.9775770e-01   7.6054130e-01   1.4589142e-01
   6.0167078e-01   1.8345960e-01   7.0675013e-01  -3.0347222e-01   4.9916607e-01   2.4498406e-01   4.0722091e-01   7.6256721e-01   9.6819096e-01  -8.8262419e-01  -6.8713764e-01  -8.4613176e-02  -6.1770122e-01   8.9509486e-01   1.1258735e-01   2.1609749e-01   1.7544498e-01   8.7284505e-01  -1.8098473e-01  -6.0662793e-01   6.0167622e-01   2.5603225e-01  -8.5728140e-01   7.9728888e-01  -8.9634663e-01  -4.6271858e-01   9.1958189e-01  -1.6203600e-01  -3.1119551e-01  -5.8574302e-01  -3.4198466e-01   8.2723297e-01   5.0038218e-02  -1.3761302e-01  -5.1569703e-01  -1.9745338e-01   7.4776055e-01  -1.1521802e-01   7.1430127e-01   7.8444977e-01   7.7683925e-01   6.9540877e-01  -7.1540469e-01   7.0160877e-01   3.7863466e-01   6.7932137e-04  -9.2349567e-01  -5.8978098e-01   4.4487481e-01  -5.8338825e-01  -9.1809187e-01  -7.0056495e-01  -4.5037870e-01   2.5403757e-01   9.0088346e-01   2.9415316e-01   7.3540523e-01  -8.6223562e-01  -2.5768512e-01   1.5953679e-01  -2.0591936e-01   3.0455744e-01  -9.7716040e-01  -7.1980759e-01  -7.3858970e-01   5.7857227e-01   3.8387970e-01   1.4873873e-01  -9.5751787e-01  -7.7527204e-01   3.2983723e-01  -6.5065272e-01  -7.0129140e-01   6.6486831e-01  -3.7636997e-01   4.3809124e-01   6.2238757e-01  -9.4218488e-01  -6.5739547e-01   4.6224439e-01   6.9110208e-01  -9.7040208e-01   2.2653926e-01  -5.5367125e-01  -1.8116233e-01  -4.5802958e-01  -3.3965327e-01  -8.1403127e-01  -7.5736278e-01  -2.7334314e-01   6.8562038e-01  -3.7068830e-01  -7.3131353e-02   5.1472073e-01   7.8333593e-01  -3.5409093e-01   4.5402098e-01   1.7491512e-01  -1.7244802e-01   3.9481072e-01   2.5159513e-01   4.9966811e-01   1.7653157e-01  -3.5543630e-01  -2.8578300e-01   1.5276629e-01  -9.5049611e-01  -3.7394855e-01  -5.4608449e-01   8.3716543e-01   5.9815060e-01   6.5877672e-02   3.2273957e-01  -8.1836002e-01   9.5978662e-01  -5.1746318e-01  -7.2159886e-01   7.6861489e-01  -9.1181409e-01   2.9572687e-01  -2.9154804e-01   1.3107121e-01  -7.7452536e-01  -3.9521925e-01  -3.5778814e-01  -1.1897660e-01   3.4883821e-01   6.4023531e-01  -8.9533916e-01   7.4460904e-01  -3.4726709e-01  -6.1126212e-01   6.2067017e-01   2.3302474e-01  -1.3751123e-01   7.7064494e-01  -6.2842534e-01  -8.7681659e-01  -2.0993125e-01  -3.9505556e-02   6.5662298e-01  -5.5695156e-01   7.3430865e-01  -7.6938746e-01   2.0044838e-01  -2.2828112e-01  -5.8459464e-01  -2.5896530e-01   1.4481402e-01  -6.2614877e-01  -1.7861513e-01   7.2709706e-01  -2.4019234e-02  -1.6558257e-01  -1.0475452e-01  -6.0021029e-01  -9.6493064e-01  -1.2969571e-01   2.2249001e-01  -3.8544734e-01  -7.7452352e-01  -2.4350876e-01   5.2918133e-01  -2.8620570e-01   7.2175749e-01   2.0187232e-01  -8.9345678e-01  -1.4787738e-01   7.3096139e-01  -7.1348489e-01   3.1167979e-01   5.3560932e-01   5.9343229e-02  -1.4879701e-02  -3.1042395e-02   2.1355781e-01   1.7835930e-01  -8.0305731e-01  -4.4180522e-01  -7.9937935e-01  -6.2470233e-01   4.0559811e-01  -4.7807240e-01   6.6431462e-02  -1.2457937e-01  -5.2384139e-01  -2.5515509e-01  -6.4564746e-01  -3.5507548e-02  -2.8787618e-01  -9.5745110e-01  -8.7302559e-01   7.1344286e-01  -7.2515824e-01  -9.5216521e-01  -6.3150084e-02  -5.4574123e-01   1.7248452e-01  -9.7280380e-01   2.4983050e-01  -6.9916550e-01  -1.2676524e-01  -6.4216416e-01   9.6200606e-01   5.9974221e-02  -9.3261327e-01   3.5773275e-01  -5.5787561e-01  -8.4948182e-02  -3.3214522e-01  -9.8794953e-01  -9.6310476e-01  -2.3186388e-02  -5.7893749e-01  -8.7292917e-01   9.1298268e-01   3.0632605e-01  -9.7327550e-01  -8.8536602e-01   5.1697221e-01  -2.9493301e-02  -3.0287866e-01   9.0182787e-01  -1.3342078e-01  -5.6802703e-01   8.7199529e-01   8.7848570e-01   4.1011526e-01  -5.4278543e-02   7.8041383e-01   6.2898601e-01  -9.8906005e-02  -1.4059308e-01  -6.1855834e-02   2.1359429e-01  -5.3980397e-01   8.5731905e-02   2.5733982e-01  -8.0662195e-01   4.7792099e-02   2.0912209e-01  -4.8779980e-01   2.2221075e-01  -2.3228242e-01   4.6657076e-01  -8.1142339e-01   8.1403681e-01  -9.4431252e-01  -2.6847140e-01   3.2447707e-01  -4.4111666e-01  -7.7193955e-01   3.6033785e-01   8.2048904e-02  -8.7324239e-01   3.6492195e-01   1.5148632e-01  -8.4029365e-02   4.2113663e-01  -5.5747219e-01  -2.8777611e-01   5.7931421e-03  -4.8158950e-01   5.1519373e-01   8.9386447e-01  -5.0860839e-01   2.0512270e-01  -2.4425060e-01   4.2800957e-01  -3.9511672e-02  -2.7462371e-01  -5.5191171e-01  -2.2055404e-01  -6.8782508e-01   6.1033314e-01  -6.0191159e-01   8.1445992e-01  -2.4837054e-01  -6.1741648e-01   8.1957020e-01  -2.7995887e-01   3.9502607e-02   4.2360884e-01   9.5154909e-01   7.1868342e-02  -7.4187259e-02   8.8476547e-01   1.2561040e-01   8.2374125e-01   1.4437966e-01   2.2583550e-01  -7.7652293e-01   6.4540730e-02   1.9897328e-02   9.0561763e-02  -1.4122576e-01  -9.7929104e-01   9.1148739e-01  -7.6325824e-01   9.2676259e-01  -5.2086775e-01   1.7130824e-01  -1.0170204e-01   9.3741976e-01  -3.0471124e-01   7.0820052e-01   5.3704075e-01  -8.8079460e-01   8.7817110e-03   1.0022867e-01   7.8971255e-01   3.1992529e-01  -6.2714733e-01   6.7205606e-01   3.6187241e-01  -2.9744975e-01   9.4591679e-01   5.6761607e-01   8.3610438e-01   3.2452351e-01  -8.4112025e-01   2.5190352e-01   1.0810113e-01   1.0568302e-01   5.1750586e-01   1.4045592e-01  -2.2221322e-01   7.0003232e-01  -3.2195240e-01   8.7498969e-01  -8.4646061e-01   2.1077349e-03   6.2840512e-01   1.0017374e-01   7.7661080e-01  -4.2699467e-01  -2.0208996e-01  -6.6973604e-01   6.6904094e-01  -2.4994198e-01  -3.8793674e-01  -1.3053675e-01   5.6693233e-01  -7.5280970e-02   6.8240514e-01  -6.7695016e-01   6.1245888e-01  -6.2527329e-01   4.2946738e-01  -2.4955036e-02   7.2548381e-02   8.3505402e-01  -6.9894733e-01   4.4152015e-01  -1.6902868e-01   5.4680925e-01  -5.4823154e-01  -9.9208466e-01  -8.4125998e-01  -2.3769139e-01  -9.7583922e-01  -6.9848437e-01  -5.1657717e-01   8.0412904e-01  -5.5437775e-02   2.4078079e-01  -5.6814052e-02  -3.1867939e-01  -2.6375579e-01   8.0417138e-01   6.9305268e-01  -9.3618388e-01   1.0000303e-01  -7.9122607e-01   8.8310772e-01   9.0465827e-02   2.9550249e-01   5.0071164e-01   6.3993772e-01   8.9796008e-01  -3.5549992e-01  -5.7675855e-01   4.1692942e-01  -9.7974699e-01  -7.7879117e-01  -6.3452265e-01  -4.9667281e-01   2.6603771e-02   4.1895942e-01  -9.2373570e-01   3.1139832e-01   7.8436233e-02  -7.4685100e-01   1.1698756e-01   1.0350431e-01   3.7041707e-01  -1.1415060e-01  -9.5175212e-01  -3.6468570e-01  -2.0111846e-01   8.4877050e-01  -5.2336160e-01   1.3603876e-01  -4.2429130e-01  -8.3579899e-01   5.6666144e-01   6.9705825e-02  -6.3781583e-01   4.1280449e-01  -4.8450540e-01   9.2262951e-01   2.2818084e-01  -4.9727920e-01   9.0865170e-01  -4.5385691e-01  -4.7440450e-01  -4.6171015e-01  -1.8781963e-02   3.8971773e-01  -2.8291014e-01  -8.8232939e-01   3.8871268e-01   4.8840030e-01   6.6449884e-01   4.6082808e-01  -1.5204483e-01  -7.3912165e-01  -1.3240312e-01  -8.7818823e-01  -3.3756887e-02  -7.3352475e-01  -5.6101977e-01   5.8247003e-01   6.3728202e-01   2.1353030e-01  -2.8818225e-01   1.8016461e-01  -6.6936468e-01  -1.6195026e-01  -1.5029743e-02   4.0461964e-01   5.0524504e-01  -3.4159964e-01   1.1040150e-01   3.4961296e-01  -9.9677157e-01   2.3941960e-01   4.8183165e-01   2.8930307e-01   9.8916136e-01   2.9379148e-01   5.9450359e-01  -7.1695167e-01   8.2022677e-01  -7.6868452e-01   3.7252734e-01  -8.6292615e-01   2.6122904e-01  -9.2462359e-01  -9.4821466e-01   4.9369895e-01  -2.9291776e-01  -5.9405557e-01   2.1210854e-01   9.4478926e-01   2.6297615e-01  -7.4989595e-01  -3.0147411e-01   1.3954051e-01   5.9532666e-01   9.8639620e-01  -3.9858942e-01   5.2404926e-01  -7.8128026e-01  -3.2344990e-01  -5.2233520e-01  -8.9911104e-01   9.0688261e-01   8.7806048e-02  -7.4132363e-01   1.6239639e-01   9.8041851e-01   5.2389968e-01  -7.4753805e-01  -8.7564907e-01   1.0364037e-02   4.5913982e-01  -7.6854230e-01  -9.9595200e-01  -1.4846317e-01  -2.8351103e-01   6.9656321e-02   3.8394074e-02   5.9847461e-01  -6.4247667e-01   3.3132725e-01   5.6148492e-01  -5.9038264e-01   3.4799392e-01  -7.2524725e-01  -9.4204422e-01  -1.0535054e-01  -2.7348506e-01   2.3074245e-01   7.5283801e-01  -7.7338006e-01  -5.0275127e-01   4.1803591e-01  -9.0374728e-01  -1.2840485e-01   9.8346969e-01  -2.9877222e-01   3.5381810e-01   4.1308427e-01  -6.2340030e-01   9.6368092e-01   6.2116405e-01  -3.9789666e-01  -5.5263432e-01  -8.9643351e-02   4.8329158e-01  -8.9314702e-03   3.9685248e-01   2.6606094e-01  -2.3689090e-01   2.9384777e-01  -8.1907265e-01  -6.2201113e-01  -3.8240394e-01  -9.1420818e-01  -4.1692210e-01   8.2321348e-01   5.8187191e-01  -2.5839132e-01   6.2884452e-03  -7.1409430e-01   3.6755370e-01   3.2007944e-01   6.3703407e-01  -1.2776305e-01  -8.4655479e-02   4.5403155e-01  -6.4960670e-01   9.0140550e-01  -8.9062747e-01   7.5023815e-01   2.5168399e-02   9.5537191e-01  -3.8396828e-01   4.9595542e-01  -5.4417825e-01  -3.0812844e-01   8.1596075e-01   8.0370650e-01  -4.4417488e-01   8.7417254e-01  -8.1746012e-02  -6.3901788e-01  -5.2244530e-01  -1.2099238e-01   6.5709390e-01  -7.1971764e-01   2.7125523e-01  -7.8050444e-01  -2.4215668e-01   1.8832408e-01   3.3740103e-03   2.3637909e-01  -3.9158883e-01   1.0501228e-02   5.8898641e-01   1.2719839e-01   3.8164898e-01  -4.6559950e-02  -9.3855436e-01  -7.4509072e-01   7.5831383e-01  -1.0221679e-01  -7.0420887e-01   9.7891162e-01   8.3926573e-01  -3.1086046e-01   2.6523668e-01   1.4307627e-02   1.1780106e-01   6.5542272e-01  -8.2933682e-01  -2.7160975e-01   2.7359734e-01   7.5782350e-01  -9.4135501e-01   1.0439217e-01  -5.3234583e-01  -9.0127666e-01  -2.8814506e-01  -8.4469668e-02  -8.8271178e-01  -4.8600353e-01   4.6975855e-01   6.9454897e-02  -9.1854913e-01  -7.5787577e-01   7.9972798e-01   1.2163867e-01   1.7831166e-01   1.2304712e-01  -1.3693941e-01   7.1763701e-01  -5.2327139e-01   2.6433355e-01  -2.5980332e-01  -3.5665928e-01   9.9606617e-01   2.5445707e-01   7.3613862e-02   6.7985222e-01   9.3791021e-01   8.3872462e-01   2.9770284e-01  -2.5206832e-01   8.2982107e-01  -9.6475090e-01   5.2991461e-01  -9.8279135e-01  -4.8929623e-01  -4.9121168e-01   6.4771818e-01  -8.1986391e-01   4.5380018e-01   7.8163441e-01   1.4433222e-01   5.0704990e-01  -5.3327960e-01   1.9643879e-01  -3.2092435e-01   1.0694147e-01   3.7726622e-01  -2.5548159e-01  -7.6032866e-01   3.1712816e-01   3.7578957e-01  -2.9432141e-01   1.0613478e-01  -5.1751882e-01  -4.6327708e-01   8.0744838e-01  -9.0034933e-01   1.4158942e-01  -6.4062949e-01   3.4426005e-01   9.1008675e-01   7.0457219e-03  -3.4084711e-01   4.6835042e-01  -8.1384758e-01   8.3194830e-01  -5.4089398e-02  -7.6836063e-01   7.8203318e-01  -2.4251095e-01   9.4587874e-01  -4.5294497e-01  -9.8994401e-01  -3.2192060e-01   9.4535208e-01  -4.2598854e-01   3.1383609e-01   1.1377312e-01   8.3147529e-01  -2.7910212e-01  -1.4437042e-02   1.9265688e-01  -3.4669573e-01  -4.5673336e-01   3.7525732e-01  -4.3397011e-02   5.7881267e-01   3.5039882e-01  -1.4962086e-02  -3.3309258e-01   6.4303743e-01   1.6295272e-01   2.5233979e-01  -4.1289213e-02   7.4563904e-01  -6.4267075e-01  -5.4690685e-01   5.5446727e-01  -6.6622560e-01   6.2164216e-01  -2.6573603e-01  -7.1989864e-01  -8.9634222e-01  -9.5979019e-01  -4.2117743e-01   2.9131519e-01  -4.9177027e-01  -1.9553674e-02  -3.4828093e-01  -1.7598197e-01   1.2257725e-02  -8.8820514e-02  -6.6806173e-01   3.8089281e-01  -9.8832122e-01   5.6875621e-01   4.6677664e-03  -6.9811311e-01   1.8669793e-01   2.2101166e-01  -1.0308496e-01  -3.6315613e-02  -6.0183568e-01  -4.3303059e-01  -3.1278470e-01   8.4110912e-01   7.6797086e-01  -9.7797205e-01  -7.6937974e-01   6.4756551e-01   8.3061743e-01   2.0308374e-01   1.0221543e-02  -2.2001367e-01  -5.1456712e-02  -8.4076305e-01  -9.1478473e-01  -8.2459118e-01  -5.7060625e-01   3.3166614e-01   8.0497631e-01   6.5686667e-01  -9.6588928e-01  -5.9727246e-01  -1.9063561e-01   3.7048607e-01  -4.0828723e-01  -9.8385315e-01   7.8690307e-01   2.1853807e-01  -1.8663788e-01  -9.0425072e-02   8.8422838e-01  -7.9766287e-01  -3.7023406e-01   2.1441273e-01   7.8800625e-01   5.5462684e-01  -9.1371583e-01   1.6355249e-01  -1.6009003e-01   7.9777315e-01  -6.4876359e-01  -6.8885926e-01   6.0393658e-01   5.5568511e-01   2.1933126e-01  -4.1399431e-01   1.4112969e-01  -1.4006066e-01  -9.4859148e-01  -9.6517912e-01  -3.8967463e-01   6.1179562e-01  -3.9959823e-01  -8.6536909e-01   6.9252523e-01   4.5884749e-01  -8.2048106e-01  -4.5714983e-01  -2.8964358e-01   3.4399341e-01   4.6163215e-01  -6.1999880e-01  -5.7612692e-01   9.0786124e-01   9.8665413e-01   2.5665547e-01  -7.9694321e-01   1.4929827e-01   7.4102387e-01  -7.6416045e-01   7.3478353e-01   6.5600549e-01   1.1143028e-01   9.2611966e-01   4.8805576e-01   2.6681145e-01  -3.6048879e-01  -8.0131957e-02   3.7848426e-01   8.8607780e-02   2.6594652e-01   9.3671318e-01  -9.1150757e-01   3.3113915e-01  -2.3902439e-02   5.5897999e-02   6.4319472e-01  -2.2550014e-01  -3.7315737e-01   8.7474592e-01   9.4927678e-01  -3.3112294e-03   9.1185203e-01  -4.1594769e-02  -8.6551790e-02  -1.6469234e-01   9.0952504e-01  -5.9267160e-01  -4.5446039e-01   6.3272331e-01  -4.5119162e-01   4.9114937e-01   8.2848625e-01   2.8930954e-02  -2.6542991e-01  -8.5642666e-02  -5.2830060e-02  -5.9832250e-01  -8.8096682e-01   4.4685747e-01  -2.1466949e-01   7.9802291e-01   6.9688164e-01  -7.9356982e-01   8.4183961e-01   4.2314875e-01   7.9040008e-01  -2.5660341e-02  -1.0252280e-01   8.8831849e-01   7.4701299e-02  -6.1800332e-01   9.0353510e-01  -3.9203131e-01   6.5367456e-01   2.9584877e-01  -6.0625392e-01  -8.7769656e-01  -7.7605008e-01   9.2203552e-02  -8.4593210e-01  -2.8890446e-01   2.6246598e-01  -5.3441098e-01  -6.6110947e-01   6.9566730e-01  -9.4296647e-02  -1.5361275e-01  -8.6961528e-01   1.6866316e-01   5.8807950e-01   1.8415510e-01   6.0173076e-01  -6.1062986e-01   3.4216406e-01   3.0696115e-01   9.2672060e-01  -4.6674979e-01  -8.4301333e-01   4.5380685e-01   2.7875788e-01   3.0012979e-01  -4.8207386e-01   8.2259770e-01   8.6071976e-01   5.9309924e-01  -3.7340317e-01  -8.4958613e-01   6.2537075e-01  -4.9611951e-01   6.7099008e-01   8.4020220e-01  -8.6748667e-01  -5.8587031e-03   8.2753614e-02  -3.0195710e-01  -6.5891675e-01  -7.6268217e-01  -1.6716249e-02  -5.6234092e-01   5.5308645e-01   1.6611286e-01  -4.9236275e-01  -4.1396400e-01  -2.2715826e-01   8.1562167e-01  -8.0814839e-02   4.9591453e-01   1.8751957e-01  -5.3010034e-02  -6.7133702e-01   9.7614621e-02   5.1565637e-01  -1.6028795e-01   9.5951107e-01  -9.4874254e-01  -4.9117620e-01  -1.6984888e-01   9.0058257e-01   7.5717218e-01   9.5674319e-01   9.0845855e-01   6.5861265e-01  -2.5370790e-01   3.3572548e-01  -2.0533537e-01   5.3405253e-01   2.6723185e-01   8.3966798e-01   9.7803175e-01  -2.8186048e-01   3.1830876e-01  -8.5589146e-01   2.9707159e-01   5.5505837e-01   4.4831849e-01  -6.0842300e-01   7.4759714e-01  -4.8364004e-01   7.9715797e-01  -6.9849858e-01  -4.1337294e-01   4.8606846e-01  -7.5801149e-01  -6.7591809e-01  -1.1096379e-01  -5.8703180e-01  -9.8952207e-01  -4.1435421e-01  -2.3990866e-01  -8.3666400e-01  -9.8258370e-01   2.8038074e-01  -8.6970788e-01   2.2467675e-01  -9.7195097e-01   3.4689194e-02  -7.0996225e-02  -3.5479224e-03  -7.0517418e-01   1.6139261e-01   4.1728481e-01  -8.7793889e-01   7.8522464e-01   3.0201250e-02  -5.9653686e-01  -7.9336760e-01   7.8437625e-01   2.8033379e-01   5.8868153e-01   9.9419577e-01  -1.8516130e-01   9.6319562e-01   1.9690849e-01   5.5117862e-01  -5.8878665e-01   2.7839782e-01   2.4036630e-01   4.8633822e-01   2.6422400e-01  -7.3993021e-01  -3.3117234e-01  -2.6196197e-01  -5.1798243e-01   6.4742110e-01  -6.4688826e-01  -8.8508485e-01   1.8097516e-01   8.5069607e-01   2.5321959e-01   1.3464474e-01   6.6782434e-01   5.2996453e-01  -3.8057872e-01  -9.4528167e-01  -1.7890235e-01  -5.8828717e-01  -1.1883457e-01  -8.4994201e-01  -3.6010720e-01  -3.7831830e-01   1.5145147e-02  -9.5534106e-01   4.9840333e-01  -9.2953995e-01  -3.1551341e-03  -7.8835629e-01   5.7417222e-01   9.8315236e-01  -7.9736809e-02   3.1059747e-01   6.2535569e-01   6.2516991e-01   9.9674353e-01   7.0922780e-01   5.3019798e-01  -1.6888128e-01   9.6089359e-01
  -9.9350659e-01  -8.2078337e-01  -9.7023240e-01   7.1629967e-01   1.8813720e-01  -8.5584445e-01  -1.9626523e-01   1.9079143e-01  -7.2775599e-01  -5.0186079e-01  -2.6557914e-01   2.5507164e-01  -3.7431288e-01   2.8916123e-01  -9.8896848e-01   2.1653294e-02   4.2167164e-01  -8.5242420e-01  -5.6838289e-01   7.7611937e-01  -9.1439177e-01   6.3218047e-01   1.5082301e-01  -4.5772464e-01  -4.6553096e-02  -8.3591348e-01   5.6063358e-01  -1.4325213e-01  -3.1813896e-01   4.7651380e-02  -2.0014294e-01  -5.3851170e-01   5.1017497e-01  -8.9779137e-01  -8.3098076e-01  -8.4692048e-01  -1.8101632e-01   2.3392980e-01   3.2372827e-01  -8.6104160e-01  -1.9111614e-01   6.4368572e-01  -2.6620034e-01  -4.5931330e-01  -8.7792145e-01  -3.4967635e-01  -8.3962941e-01   3.0910037e-01  -6.5725388e-01  -3.5945243e-01   8.2923470e-01   4.4629104e-01  -3.9311591e-01   1.5939791e-01  -8.6731731e-01   1.4277066e-01  -1.3868622e-01  -7.0519871e-01  -9.1679077e-01  -6.5916101e-01  -6.5192873e-01   8.2654169e-01  -2.3043902e-01  -7.7848435e-01   3.8270957e-01  -5.8732708e-01  -8.7963328e-01   6.1496704e-01   4.9180772e-01   8.9072717e-01  -2.4635922e-01  -5.9642637e-01   8.1437493e-01  -8.6835421e-01   2.8549603e-01   9.3984162e-01   8.2125338e-01   3.0328770e-01  -4.1498814e-01   3.4165786e-01  -7.7042679e-01  -6.8099845e-01  -1.7972834e-01   3.1016105e-02  -9.7020354e-01   9.2323623e-01   9.8581231e-01  -9.0437146e-01  -3.0952252e-01   7.7759102e-01   5.9206322e-01   4.3634729e-01  -7.0215660e-01   1.3124848e-01   1.3417586e-02  -4.6390516e-01   5.7495861e-01  -9.7443567e-01   2.4237486e-01   8.7671437e-01  -4.4140343e-01  -2.9657114e-01  -6.1711111e-01   4.9966272e-01   2.2753987e-01   6.7532855e-01   7.4244972e-01   4.3485711e-01   7.6873859e-01  -8.3772675e-02  -1.7655047e-01  -4.6355141e-02   6.6334001e-01  -8.6320825e-01   9.9959893e-01  -6.5079136e-03   6.1184795e-01  -5.4288013e-01   3.9660400e-01   7.5621539e-01  -8.3121523e-01  -1.2144897e-01   3.3187790e-01   2.0896519e-01  -7.1203359e-01  -2.6008053e-01   8.3952651e-01   9.2728227e-01   6.6065167e-01   2.7917029e-01   7.7691490e-01   4.8562486e-01   3.7987609e-01  -8.0938084e-01   7.8568815e-01   7.0725447e-01  -6.5205080e-01  -1.2428765e-01   7.9311870e-01  -1.3241873e-01  -1.4773859e-01  -2.3520955e-01   9.1725158e-01   5.2002473e-01  -7.3562639e-01  -1.5694299e-01  -7.6044177e-03  -3.4224558e-01   9.2125464e-01   6.2450464e-01  -9.3040453e-01  -2.1138945e-01   9.2620026e-01   2.3859647e-01  -1.6207773e-01   4.8512302e-02  -1.1672158e-01  -1.1012021e-01  -8.0379143e-01  -5.0340938e-01  -4.2330257e-02  -7.1919493e-01   8.5685443e-01   6.9024393e-01  -3.2485837e-01  -9.0086605e-01   6.5815643e-01   8.0915868e-02   5.9846552e-01   7.7935804e-01   9.2715082e-01   5.5854610e-01   1.3995210e-01  -1.9501139e-01  -2.5479621e-01  -8.6553077e-01  -1.9743939e-01   6.8182973e-01   1.5202772e-02  -1.6505329e-02  -9.0787246e-01   5.2770292e-01  -3.2647292e-02  -3.4746026e-01   6.4010399e-01   7.3622788e-01  -3.5253967e-01   4.9799840e-01   6.9334740e-01   1.1870483e-01  -5.3287906e-01  -6.4917165e-01   6.8030001e-01   7.6124774e-01  -8.1043500e-01   2.2979508e-01  -4.5336660e-01   6.0163062e-01  -6.9311432e-01  -7.5544758e-01   1.1200797e-01   3.0596701e-01  -4.9331205e-01   1.9583350e-01   5.4097943e-01  -4.9477286e-01  -7.1049932e-01   7.9990674e-01   3.0858461e-01  -1.9141232e-01   6.7716555e-01   4.3608579e-01  -8.5314349e-02  -9.1786408e-01   4.0413760e-01   8.8967453e-02  -3.5045210e-01  -2.6847144e-01  -6.9097793e-01  -5.9800649e-01   2.1125437e-01  -9.2675796e-01   4.5214573e-02  -4.0704109e-01   4.5054668e-01  -9.0941056e-01   4.0708328e-01  -3.8139996e-01   2.4696560e-01  -1.7602846e-01  -8.1877887e-01   1.9865504e-01  -5.4531686e-01  -4.3929512e-01   9.3383982e-01   5.4957645e-02  -9.9227238e-01  -7.1240512e-01  -5.1572507e-02  -7.9003601e-01   8.7007244e-01   1.5528112e-01  -2.8396838e-01   6.6861856e-01  -7.9224409e-01   9.4948519e-01   6.5624866e-01   2.0734491e-01  -5.4991815e-01  -8.0161333e-01  -8.2068195e-01  -9.4045515e-01  -9.5369148e-01  -7.0708967e-01  -1.9002022e-01  -4.5512026e-01  -2.4658831e-03  -8.9761219e-01   3.2682372e-01  -6.3455793e-01  -9.8775740e-01   6.4635006e-01   5.7449736e-01   6.0402432e-01  -2.5903759e-01  -4.6600417e-01   5.4228211e-01  -1.3021444e-01  -2.1244823e-01   3.1989338e-01  -5.2649843e-01  -7.6637226e-01  -5.8746577e-01  -1.6657750e-01  -8.2555251e-01   1.0594385e-01   1.7692457e-01  -6.5483602e-02  -2.1179947e-01  -1.6239532e-01  -5.8263938e-01  -8.1576420e-01  -2.2996709e-02   8.9285820e-01  -7.6137909e-01  -2.3858921e-03  -4.4388223e-01  -9.0151251e-02   6.0320562e-01   3.9688065e-01  -1.2252656e-01   6.5955476e-01   2.8473428e-01  -1.7171443e-01  -3.7339775e-02  -3.0923234e-01   9.8905423e-02  -1.9256847e-01  -7.8365367e-01   2.8632354e-02   7.1952278e-01   4.5154433e-01  -7.7227754e-01  -5.4288727e-01   4.7812746e-01   8.5937825e-01   9.6005909e-01   3.4649711e-02   6.0731506e-01  -3.8809401e-01  -1.0943849e-01   6.6405937e-01  -7.0224677e-02  -6.0566615e-02  -5.9780334e-01   3.8865110e-01   1.0359909e-01   6.8323696e-01   2.7960435e-01  -9.5557918e-01   1.5587403e-01  -1.0771224e-01  -6.1252695e-01  -8.8007080e-01  -2.2821069e-01   4.5336150e-02   3.0047631e-01  -8.7278772e-01   7.8067666e-01  -7.2859008e-02   7.6320498e-01  -8.0214210e-01   6.9967395e-01   9.6856268e-01  -5.9241820e-01  -1.5176972e-01  -2.2368370e-02   2.4139230e-02  -1.0843942e-01  -1.7631813e-01   7.4613347e-01  -8.8279161e-01   6.5978516e-02   1.1307347e-01  -7.9973808e-01   5.1080294e-01   7.6741876e-01   5.0124728e-01  -8.1988234e-01  -4.8893396e-01   9.6965703e-01   8.9335955e-01  -1.5996341e-02  -7.8059002e-01   8.6136397e-01  -7.7117484e-01  -5.9991149e-01   5.9944126e-01  -3.9546742e-02   8.4634292e-01  -1.7737792e-01  -6.6994309e-01  -2.1453587e-01  -3.4499874e-02   7.3805249e-01   4.5620732e-01  -5.5779872e-01   4.7700111e-01  -3.5597642e-01  -6.8552078e-01   7.1117169e-01  -4.7538567e-01   3.9673106e-01  -7.0197710e-01  -8.1932840e-01   9.6947065e-01  -2.1618909e-01  -9.7230279e-01   8.5567817e-01   1.2250250e-01   5.5166963e-01  -9.9236158e-01  -6.3489914e-02  -8.5272290e-01  -4.2243169e-01  -7.4362215e-02   2.6808248e-01  -7.8877393e-01  -7.7313244e-01  -7.4860143e-01   1.2467351e-01  -7.2972969e-01   9.8538545e-02   9.5726042e-01  -9.5611838e-01  -8.3778441e-01   3.1458960e-01  -1.1191957e-01  -7.2327492e-01  -8.1295890e-01   7.7236990e-01  -4.4532628e-01  -4.3821354e-01   3.8459296e-01   8.2507308e-02  -8.3953911e-01  -6.0626251e-01   3.5944427e-01   1.5714392e-01  -5.4017704e-01   8.3745017e-01   1.8810485e-01  -5.0836124e-01   7.9699104e-01   5.1436902e-01  -6.5096991e-01  -2.5292576e-01  -9.5102966e-01  -8.2925111e-01   7.4661103e-01  -5.1149329e-02   8.8194218e-01   1.6831038e-01  -5.5781648e-02   5.3307066e-01   9.7935682e-01  -1.3894443e-01   5.5678279e-01  -2.3571308e-01  -8.6753579e-01   4.4468362e-01   1.6504572e-01   2.8862924e-01   3.1729635e-03  -2.8315383e-01  -7.8806791e-01   2.9382798e-01  -6.7046308e-01   3.7144129e-01  -9.7442481e-01  -6.4420800e-01   7.0835115e-02   2.9920160e-01  -2.2255351e-01   1.2734354e-01   5.1618017e-01   9.0618239e-01  -1.1020753e-01   1.5055350e-01   7.7056512e-01   3.0994134e-01   6.5210667e-01   2.4525157e-01   3.0066849e-02   4.6563720e-01  -7.3449941e-01   3.9460425e-01  -7.2337661e-01   1.3393581e-01  -5.6418819e-01   9.2476113e-01   9.1203806e-01   6.8889762e-01  -9.2201159e-01   3.1937171e-02  -3.7171456e-01  -4.1006266e-01   2.8366677e-01   6.0589608e-01   8.5076189e-01   3.0313598e-01   3.3584196e-01   7.5699130e-01   6.8247821e-02  -6.7105050e-01   7.7047169e-01  -8.8389490e-01  -6.1732007e-01   6.5267871e-01   2.2542580e-01  -9.7432418e-01   3.5799386e-01   6.8476671e-01  -4.4025909e-01   6.6122295e-01   1.6463332e-01   6.7540947e-02  -3.7002564e-01   6.6284878e-01   2.4901330e-01   4.5870264e-01   8.0440498e-01   6.8231297e-01  -7.3513811e-03   3.0015995e-01   9.7860328e-01   7.0143338e-01  -1.4523030e-01  -8.7863799e-01   6.4846364e-01   7.8535987e-01  -8.6918313e-01  -8.3409105e-01   2.2711902e-01  -1.7592600e-01   3.8965367e-01   8.2338234e-01   4.9877752e-01  -6.0373494e-01  -5.2283627e-01  -6.7180696e-01   6.5870392e-01  -8.0500924e-01  -1.6944323e-01   8.0911552e-01   2.4494430e-02   1.8677152e-01  -4.4289980e-01   3.6952400e-01  -3.0495600e-01   2.6783547e-01  -5.2394851e-01  -3.1386422e-02   7.8394227e-01  -3.6630824e-01   4.7613077e-01   8.5126915e-01   9.6784408e-01   4.9551358e-01  -8.0409905e-01   1.5200950e-01   5.1784026e-01   2.6208679e-01   8.2211959e-01   4.9389395e-03   2.2402482e-01  -5.3249862e-01  -3.8379693e-01  -8.5826088e-01  -3.0685622e-01   4.6590968e-01  -4.1270169e-01  -2.4694898e-01   4.0154257e-01   9.8235518e-02   1.2676119e-01   8.7630755e-01   2.8807707e-01   5.7017504e-01   4.7663716e-02   8.5759606e-01   4.3602586e-01  -7.6070876e-01   9.8187339e-01   1.0897401e-01  -7.0159333e-01   9.0185329e-01  -1.5372871e-01   7.2591274e-01   5.5240695e-01   4.3620333e-01  -3.4182749e-01   8.5270198e-01  -1.0063004e-01  -2.3290775e-01   1.1618166e-01   8.3349594e-01  -9.2369360e-01   4.8096084e-01  -5.1629448e-01   8.1627250e-01  -5.2703343e-01   2.9426739e-01  -4.9106835e-01   3.7848240e-01  -8.6721532e-01   2.3664198e-03  -8.6627043e-01   8.3273197e-01   6.5856661e-01  -3.8589913e-01   2.0688115e-01   6.8694868e-01  -4.3238030e-01  -6.4994900e-01  -6.6130270e-01   1.3326814e-01   1.7095048e-01  -4.8525946e-01   2.2174829e-01   1.2784192e-01   5.3245657e-01   6.8902789e-01  -8.6913363e-02   8.2511574e-01  -9.2613927e-01   5.6166888e-01  -7.7470259e-01  -4.9794462e-01   6.2447582e-01   8.1659534e-01  -6.6887383e-01  -4.4792111e-01   5.1271607e-01   2.5187614e-01   4.0535824e-01   4.7425370e-01   9.2999713e-01  -1.8566758e-01   1.9370204e-01   4.7265796e-01   7.0260798e-01  -3.3216514e-01  -8.7256632e-01   1.6551295e-01  -3.5214327e-01  -2.4760787e-02   6.9731636e-01  -6.7495552e-01  -8.1864478e-02  -8.5631204e-01  -2.0563005e-01  -1.3395533e-01  -6.1389863e-01  -9.1663262e-01  -2.0257374e-01  -4.5921520e-01   8.8930987e-01  -3.1540702e-01  -4.0820168e-01  -4.6785705e-02  -9.7754332e-01   4.4214114e-01   7.5897187e-01   7.4283127e-01   5.3113613e-02  -9.8092708e-01   9.5806260e-01   6.3775650e-01   3.8197214e-01  -2.1516818e-01  -2.4486788e-01   7.1701794e-01   3.5529087e-01  -6.1530024e-01  -2.5175029e-01  -7.9917928e-02   9.4988796e-01  -9.4456930e-01   3.0764154e-02   5.4299248e-01  -2.6912520e-01  -6.2218984e-01   4.0135642e-01   1.4963757e-01   2.6152944e-01  -7.7857041e-01  -6.6902051e-01  -4.0983188e-01  -4.5203624e-01  -6.2688993e-01   6.4630052e-01  -7.0490634e-01  -1.0823171e-01  -1.1569302e-01  -4.0007883e-01   3.3680452e-01   8.4891274e-01   4.5775314e-01  -3.6346868e-01   2.0604350e-01  -5.3629840e-01  -5.8336604e-01  -1.6763694e-01  -9.0634556e-02   9.9412485e-01  -8.1383611e-01   8.6074978e-01  -9.2442322e-01  -6.2286224e-01  -2.1895498e-01  -9.0663979e-01   1.0562665e-02  -4.7031827e-01   3.0265230e-01   9.5106092e-01   6.1619985e-01   5.1270934e-02  -3.2701493e-02   4.2206028e-01   1.0364078e-01   3.5488605e-01   7.6820868e-01   5.5799125e-01   8.2691000e-01  -4.8285647e-01   2.8750669e-01  -6.0308192e-01   8.6950640e-01   5.6336258e-01  -1.2466245e-01   9.7724266e-01  -2.9590427e-02   1.2116894e-01   5.2958463e-01  -6.8056476e-02  -4.0287667e-01   3.4922966e-01   2.0133244e-01  -9.7144812e-01   6.1139778e-01  -7.5788821e-01   4.8726191e-01   5.5679565e-01  -9.2153955e-01   1.1234923e-01  -7.7912149e-01  -7.3962230e-01  -1.8185620e-01  -7.8828271e-01   7.2405680e-01   4.8605097e-01  -9.0800243e-01  -8.8906987e-01  -5.8253400e-02   6.2937670e-01   1.1994292e-01   1.1682679e-01   5.0661069e-01  -8.9432495e-01   2.1858525e-01   6.9114593e-01  -8.5482218e-01   5.4342639e-01   9.7252942e-01   8.2644039e-02  -5.0968769e-01   9.0161796e-01  -8.8175249e-01  -4.9903230e-01  -5.9804520e-01   5.0682461e-01  -4.9658347e-01  -5.0991116e-01  -3.3450128e-02   7.6975349e-02  -2.4051198e-01  -3.6643381e-01  -9.1825340e-01  -4.6379644e-01  -7.1245841e-01  -6.5129708e-01   3.0130642e-01   8.2915861e-01   1.1132945e-01   6.3341025e-01   3.5216372e-01  -7.2330308e-01  -3.3709759e-01   9.6641416e-01  -4.5712972e-01  -5.8998387e-01   7.4204935e-02   6.4125601e-01   6.0226484e-01  -8.8141325e-01  -3.0312889e-01  -9.9674100e-01   8.2667497e-01   5.0483025e-01  -5.2547471e-01   4.6775356e-01   9.9929100e-02   8.9398166e-01   5.9493431e-01  -4.0783598e-01   2.8704905e-01   8.9137839e-01   5.2198863e-01  -2.2778992e-01  -1.2510015e-01   3.1816098e-01   6.5924934e-01  -2.7392883e-01   6.1157251e-01   6.4152850e-01   5.2248055e-01  -3.2534671e-01   3.3224314e-01   1.3815835e-01   6.1378978e-01  -1.4802096e-01   7.3263457e-01  -7.1880615e-01   7.3299088e-01   3.9406213e-01  -2.1580584e-01   2.1149861e-01  -1.4217670e-01   6.6453509e-01  -6.3786828e-01   7.7797393e-01   1.5210003e-01  -5.1511956e-01  -8.7996321e-01  -5.7576731e-01  -5.3672388e-01   6.3917719e-01  -4.9770252e-01   5.2847549e-01   1.6015915e-02   2.6317766e-02   5.1443624e-01  -5.6855298e-02  -4.1713859e-01   7.7764461e-01   7.4904967e-01   9.7170169e-01  -6.9418832e-01   4.8532105e-01  -4.9389013e-01   9.8960231e-01  -6.2107614e-01  -4.2021012e-01   4.7451014e-01  -2.3822607e-01   5.9901874e-01  -8.6267403e-01  -3.5834840e-01   2.1353294e-01   3.8331275e-01   3.9247706e-01   9.4116126e-01  -1.6915394e-01  -8.7040172e-01  -5.6500691e-01  -2.3237423e-01   3.2095028e-02   5.1665999e-01   2.6260499e-01   7.6205519e-01  -8.5447541e-01  -7.7334198e-02   6.2056212e-02  -1.8166169e-01   6.9855190e-01  -9.6584625e-01   8.2495060e-01  -9.2794041e-01   5.2189442e-01   8.8310313e-01  -5.5262116e-01   6.6398241e-01  -8.4194496e-01   9.5565121e-01  -4.3546775e-01  -2.4767267e-01   9.3220882e-01   3.2506855e-01  -4.9836566e-01   5.9910176e-01  -2.1416650e-01  -9.8171423e-01  -6.6921919e-01  -1.8523233e-01  -3.6762636e-01   1.7884468e-01  -2.5807132e-01  -3.4412789e-01  -8.4063388e-01  -4.6280787e-01  -5.9756278e-01   3.9088703e-01  -9.4222962e-01  -5.6847807e-01  -4.6867761e-01   6.7240443e-01  -6.9652900e-01   5.4152979e-01   6.9104403e-01  -2.8352587e-01   2.6930941e-01  -5.6743187e-01  -5.5760199e-01   2.9478818e-01   3.2564623e-01  -2.6900092e-01   9.4100444e-01   5.4015135e-01   1.8224859e-01  -3.8497200e-01   9.2460506e-02   7.3041969e-01   3.2470034e-01  -2.1881155e-02  -5.4479738e-01  -6.6303572e-03  -4.1241434e-01  -6.1929565e-01  -2.5191457e-01  -1.3036114e-01   1.3821881e-02   4.4828076e-01   4.1357712e-01   1.7491763e-01   7.3975911e-01   1.1251967e-01   8.7155556e-01   4.7847253e-02  -7.8651130e-01  -6.7140707e-01   9.5825876e-01  -6.6420615e-01   5.7531866e-01  -6.5096377e-01  -1.3205015e-01   5.8464373e-01  -1.0367458e-02   8.0727070e-01  -5.7187701e-01  -4.9630533e-01  -1.5571356e-01   4.0502076e-01   4.7203440e-02  -2.2435561e-01   6.3042026e-01   2.7766090e-01  -1.1205051e-01   5.1498512e-01   3.3851663e-01  -9.7396035e-01   3.4671864e-01  -8.0476792e-01  -2.8148373e-01   4.1951864e-01   3.5810335e-01   8.6916507e-01   8.1893638e-01  -5.3624081e-01  -1.7609927e-01  -8.8484347e-01  -6.2759996e-01   2.8954389e-01   5.9867580e-01   3.4278227e-01   6.0217839e-01   3.1213180e-01  -1.7838445e-01   7.6547266e-01   6.4583836e-01   2.6987845e-01   5.4067260e-01   2.1677967e-04   6.7354923e-01  -1.7436199e-01   8.8058516e-01   5.4263400e-01  -7.6948840e-01  -5.0814476e-01  -2.5505505e-01   1.6263562e-02   2.2584730e-01  -4.0739550e-01  -9.1405977e-01   4.9540225e-01   5.5628136e-04  -7.0563382e-01  -5.2266310e-01  -8.8891448e-01   9.2755658e-01   2.5559460e-01  -7.7544253e-01   4.5781916e-01  -7.7425566e-01   5.1569772e-01   5.3759381e-02   2.2840997e-01  -7.8717132e-01  -5.3899268e-01   3.8691925e-01   6.0200482e-01   3.5380476e-01  -9.6500761e-01  -9.5727969e-01  -2.7419146e-01   9.7003955e-01   7.3641676e-01  -9.0307815e-01  -9.8639496e-01   1.5128813e-01   4.4180473e-01  -8.9069005e-01  -2.4113457e-01  -7.2691606e-01  -8.5450901e-01   7.2397316e-01  -8.4392509e-02  -3.8825202e-02   8.8850969e-01  -7.1611663e-01
  -9.4034510e-02  -8.1198311e-01   7.9252006e-01   4.3912600e-01  -6.2688643e-01   9.4317159e-01   5.9361886e-01   3.3398399e-01   7.5185239e-01  -5.6307886e-01   9.4712672e-01  -6.9159863e-01   7.9552819e-01  -9.7345982e-01  -9.8482138e-01   1.0668333e-01  -4.7650382e-01  -3.9571762e-01   9.3784914e-01  -9.4970272e-01   5.9423945e-01  -3.9017937e-01   2.6164116e-01   7.0240167e-01  -6.4795457e-01  -7.8705689e-01   5.6944403e-01   2.7841690e-01  -4.3647472e-01   4.1913629e-01  -9.8412813e-02  -4.9408430e-01   9.9328930e-01   4.5305415e-01  -9.2800841e-01  -7.8831499e-01   9.9852823e-02   7.0273208e-01  -7.4693770e-01  -3.3896286e-01  -4.8680169e-01   1.6133234e-01   9.6944409e-01  -1.9914402e-01   7.7988717e-01   5.1362413e-01  -6.8642925e-01  -5.9614324e-01   5.7967498e-01  -9.8877215e-01   6.6912804e-01  -3.5284017e-01   6.0887593e-01  -1.4156410e-01   1.3358433e-01  -3.7218010e-01  -8.4712773e-01  -3.9034552e-01   3.2802081e-01  -5.5210016e-01  -9.9072530e-01  -6.2807739e-01  -1.4683487e-01  -8.5823735e-01   2.4899152e-01  -1.5896574e-02   6.2001127e-01  -9.8115629e-01   7.3857925e-01   5.5070014e-01  -5.6288567e-01   7.0081480e-01   4.2105734e-02  -5.1279330e-01  -7.7420881e-01  -5.0239279e-01  -7.0754783e-01  -4.5318888e-03  -5.8839614e-01   8.1374020e-01  -8.1680359e-02   2.6186527e-01  -4.4018070e-01  -7.6612998e-01   7.3936083e-02  -1.6430182e-01  -8.2679830e-01   2.7615917e-01  -2.4843423e-01  -3.7945262e-01   9.2251657e-01   5.9660356e-01   5.0624377e-01   9.4320069e-01  -9.1896068e-01   8.6669670e-01   4.3792117e-01   6.4801714e-01  -7.9910604e-02  -7.8502469e-01  -4.9497037e-01  -9.7338863e-01   1.6366950e-01  -5.3040593e-01  -6.8967757e-01  -5.9460373e-01  -4.5835959e-01  -5.6013712e-01   4.6400289e-01  -9.6161991e-01   6.3553641e-01   7.7878890e-01  -9.1418261e-01   8.1499632e-01   5.0030402e-02  -9.2222888e-01  -2.3552913e-02   2.2195437e-01  -6.4333166e-01  -6.8183294e-01   6.9276515e-01  -2.3355405e-01   7.3641639e-01  -2.5361150e-01   3.2338360e-01   6.8168143e-02   1.7856511e-01   3.0365727e-01  -9.1686594e-01   9.5497170e-02  -2.6934755e-01  -9.7751018e-01   5.4066294e-01   2.7981922e-01   4.3542648e-01  -1.6809174e-01   2.1520325e-03   1.1467404e-01   8.0364993e-01  -9.0273979e-01   4.8564400e-01  -2.1825765e-01   3.3227782e-01  -3.3223225e-01   2.9155864e-01  -4.0500058e-01   2.0415906e-01   4.1496721e-01  -3.6666390e-01  -8.2910317e-01  -4.8118192e-02   5.7611714e-01   1.9097628e-01   8.4452387e-01   4.8623695e-01   1.5535079e-01  -8.1647217e-01   8.1272346e-01  -9.4136856e-01  -4.2505330e-01  -4.3798934e-01  -2.3602550e-02  -7.0417009e-01  -7.5031183e-01  -7.0306123e-01   2.8338022e-01  -6.2691801e-01   4.8746029e-01   1.6269746e-01  -6.4178534e-01  -6.2893084e-01   6.1839677e-01   9.4912505e-01   9.6068560e-01   7.4055047e-01   7.2036066e-01   7.1352676e-01   9.4388650e-01  -7.1658383e-01  -1.1013233e-01  -5.8732194e-01  -1.8093701e-01   9.8986208e-01  -1.9418229e-01   2.8593918e-01  -4.6238542e-01  -6.9156229e-01   8.5358795e-01  -7.2200111e-01  -9.3938491e-01  -2.0838865e-02  -2.8173065e-01   1.0540396e-01   4.6025278e-02  -3.1401770e-02   3.7334675e-01  -7.6014182e-01   8.4789486e-01  -9.4040978e-01  -4.7672708e-01   4.9274259e-01   9.0921061e-01  -9.2823333e-01   4.9612483e-01  -4.6368201e-01  -3.2723852e-01  -8.6202748e-01  -3.9595346e-01  -8.0982887e-01   1.1691096e-01  -8.9143980e-01  -4.6791627e-01  -8.3590449e-01  -2.0842575e-01  -5.9551702e-01  -6.1760400e-01  -9.7212793e-01  -1.2372999e-01   1.8065024e-01   9.5831119e-01   5.7454102e-01  -5.9463672e-01   5.6851397e-01  -1.7444056e-01   8.5322447e-02  -3.0246377e-01   3.5903749e-01  -4.6164636e-01   5.0825099e-01  -9.7917731e-01  -3.5890496e-02   8.9626235e-02   5.2497103e-01   8.4748679e-01  -5.7737330e-01  -8.7592332e-01  -8.1879998e-01  -7.3987051e-01  -5.8152612e-01   7.4961286e-01   7.4900787e-01  -1.5202457e-02   1.4712068e-01   1.3869450e-01   1.3618731e-01  -6.4652246e-01  -5.3876981e-01   3.6918666e-01   6.1125876e-02  -5.4657601e-01   1.3748886e-01   2.2026206e-02  -7.8247717e-01  -9.0549525e-01  -8.1776688e-01  -6.3083059e-01  -3.6706799e-01   1.2194333e-01  -4.8715510e-01  -3.4672994e-01  -5.0936227e-01  -3.7148464e-01  -2.0969532e-01   7.6713307e-01  -2.4666178e-01  -9.3335457e-01  -9.9221473e-01   7.0585059e-01  -1.4148509e-01   3.5163936e-01  -5.8656195e-01   5.1074167e-01   3.1631900e-01   7.8035298e-01  -6.3147568e-01   1.2035654e-01   3.8482327e-01  -2.4963851e-01   4.3430272e-01  -3.2057665e-01  -7.3001453e-01  -2.0480587e-01  -7.5807976e-02   3.6102770e-01   5.0902095e-01  -2.2820714e-01   2.7592694e-01   2.5358723e-01  -2.0420387e-01   1.6876209e-01  -3.2189687e-01   3.9735290e-01  -4.8105828e-01  -5.4145356e-01   5.1063359e-01   9.7535419e-01  -7.9003577e-01   6.8216252e-01  -4.1920323e-01   3.5250934e-01   4.5137478e-01   3.2478107e-01   7.0877360e-01  -4.6187453e-01  -7.2620283e-01  -1.8282637e-01  -2.1518920e-01   1.6629658e-01   8.2506150e-01  -7.3480559e-01  -3.2563332e-01  -3.8627403e-01  -8.3114375e-01   3.2138336e-01   3.2577625e-01   4.1607380e-01   4.8570028e-01   1.4708988e-03  -2.4060452e-01  -6.6950513e-01  -8.0495059e-01  -3.3440055e-01   8.3639403e-01  -3.7244646e-01   3.9621122e-02  -5.3892863e-01   1.1478527e-01  -6.2303545e-01  -7.3597760e-01   5.9735261e-01   6.0213649e-01  -4.5957341e-01  -1.2451989e-01   6.3231469e-01   9.3469754e-01  -1.3467956e-01  -4.6109336e-01  -3.6031898e-01   2.2172663e-01  -7.6515689e-02  -3.7989652e-01  -5.6057991e-01   6.8993784e-01   6.4987328e-01  -2.1188452e-01   6.0989029e-01   2.1187621e-01  -7.5764237e-01   9.4433860e-02   8.9688495e-02  -8.5989331e-01   9.9602318e-01   5.9059502e-01  -1.8336042e-01   5.5517097e-01   1.5634152e-01   6.5679630e-01  -7.4965417e-01   9.4810712e-01   2.7734899e-01   7.9703080e-01  -4.0049985e-01  -6.0272018e-01   8.1462775e-01   8.3261947e-01  -1.4576817e-01   7.6783544e-01  -9.7381514e-01  -9.3212011e-02   5.0064061e-01   1.8058736e-01   1.1302724e-01   2.8361014e-01   8.2223302e-01  -3.4665081e-01  -7.8780357e-01  -8.4477907e-01   1.9591879e-01  -9.9955335e-01   5.1543235e-01   9.6737831e-01   7.2098321e-01  -8.7377901e-01  -1.5084831e-01  -4.6956839e-01   2.7050629e-01   8.9601433e-01   6.7079773e-01  -2.6541707e-01   6.4296864e-01   5.3764966e-01  -4.8514419e-01  -4.5659249e-01  -1.6052415e-01   5.1866153e-01   2.8080577e-01   5.0622013e-01   1.7677406e-01   1.8788139e-01   3.8176424e-01   6.4984667e-01  -2.7843935e-01  -1.3619734e-01  -4.8007132e-01  -2.1344600e-01  -6.9805820e-02  -7.6571364e-01   3.5871814e-01  -9.0643978e-01   6.8425672e-01  -4.3648333e-01   6.2970731e-01   8.0806674e-03   8.2155973e-02  -8.1641593e-01  -2.5237682e-02   4.8886570e-01  -9.8573893e-01  -7.0031239e-01  -4.1133819e-01   1.7388734e-01  -8.8262159e-01  -2.6028427e-02  -7.1827911e-01  -1.8961862e-01  -1.4257930e-01   6.7799552e-02   4.5523376e-01  -9.8970109e-01  -1.6242166e-01  -4.6512682e-01   1.6128533e-01   6.1541572e-01  -6.9022878e-01  -5.0881701e-01   2.2789411e-01   1.1830980e-01  -4.9415622e-02   1.5946713e-01  -3.4252931e-01  -7.2749467e-01   6.2713361e-01  -9.0166918e-02   7.2757938e-01  -7.0457426e-01  -3.2730128e-01   9.1610638e-01   1.9808722e-01  -3.8487098e-01   8.4056496e-01  -1.6760927e-01  -5.3027100e-01  -5.8038800e-01  -6.1043821e-01   1.7137328e-01   5.7352287e-01  -2.3919669e-01  -8.0470456e-01   5.1765968e-01   2.5418590e-01  -2.6526109e-01   1.0618526e-01  -8.2435303e-01  -6.4342372e-01   9.5811841e-01  -5.8103714e-01   6.7018436e-01  -1.2321771e-01  -7.5564225e-01   5.2940474e-01   4.1595752e-01   9.2511532e-01  -1.4395936e-01   1.8885974e-01   3.3974084e-01  -5.2325076e-01   8.5318615e-01   4.3230839e-03  -1.5729447e-01  -6.1445909e-01   7.5718560e-01  -4.5900091e-01  -7.8035481e-01  -1.8434781e-01  -8.4959248e-01   8.6366993e-02  -3.6921057e-01   2.1404965e-01  -8.0073671e-02  -6.2910851e-01  -5.8091783e-01  -1.6148895e-01  -7.3499924e-01  -1.9240815e-01  -3.2645115e-01   2.8633447e-01  -9.6293438e-01  -2.1187335e-02  -9.9383974e-01  -1.1817114e-01  -6.0411087e-01   7.5486606e-01   5.7780955e-01   4.8453619e-01   5.1526804e-01  -5.3963168e-01   9.5490682e-01  -4.6359554e-01   4.4189950e-01   5.1033463e-01  -4.3943941e-01   3.7088887e-01  -7.2692828e-01  -5.9629217e-01   5.2783327e-01  -2.0272937e-01  -9.3930918e-01  -7.3574906e-01  -8.6754831e-04  -1.0637218e-01   4.6315244e-01  -4.6975923e-01   5.2143271e-01   8.8614822e-01   8.4347450e-01  -3.6160604e-01  -9.2939854e-01  -2.5612180e-01  -8.8733964e-01  -3.7074984e-01  -3.7711190e-01   6.2456486e-01   3.9320008e-02  -3.3950042e-01  -8.5198328e-02   3.6671659e-01  -3.0312099e-01  -1.3101901e-01  -6.6908065e-01   1.0390128e-01   1.4165461e-01   2.2514174e-01   2.7526043e-01  -2.7711245e-01   8.5467191e-01  -3.6108777e-01   3.3416881e-01  -4.5951977e-01  -8.4001264e-01   6.7620160e-01   9.5123777e-01  -2.2512704e-01   9.5185459e-01  -9.7658319e-01  -9.6387619e-01  -7.2254509e-01   9.9624278e-01  -4.0809285e-01  -7.8613494e-01  -9.6425795e-01  -1.3863534e-01   3.5888266e-01   7.6745418e-01   3.1132128e-01  -9.4691277e-01  -8.3967810e-01   9.9759923e-01  -8.6255290e-01   7.9744152e-01   5.5330224e-01  -9.8267050e-01  -3.6178885e-01   2.2307350e-01  -4.8365785e-01  -7.9424776e-01  -3.2945774e-01   2.4771208e-01   1.8454273e-01   7.4124812e-01   4.5526119e-01   4.4854873e-01   2.3452421e-01  -9.2401188e-01  -7.1651663e-01   8.1542119e-01  -6.3402149e-02   7.9730551e-02  -3.8203078e-02   8.6036864e-01  -8.3297801e-01   7.5225440e-01   8.7118106e-01  -8.2193752e-01  -5.6754888e-01   2.9213763e-02  -2.3851330e-01   8.2493773e-01  -9.7196259e-01  -8.3388921e-01  -7.3330967e-01   9.7859513e-01   9.4459048e-01   7.2248595e-01  -9.3624389e-01  -2.8980634e-01  -5.5000262e-01  -6.8566947e-01  -9.8726270e-01  -7.9021947e-01  -7.8986600e-02   4.4623154e-02   7.7938319e-01  -2.7405700e-01   1.7819424e-01  -1.0650542e-01   4.5689532e-02  -6.7512675e-02   4.7077389e-01  -2.1992968e-01   3.8901958e-01   5.4725866e-01  -7.2958372e-02  -5.9430132e-01  -2.9817068e-01  -8.8207969e-01   6.3028463e-01  -1.4452297e-01   2.2867249e-01  -6.5161028e-01  -4.0861173e-01   7.7291792e-01   6.5370618e-01   9.5048671e-01   9.6638423e-01  -3.3375779e-01   8.6568913e-01  -2.6952417e-01   2.4913772e-01  -4.9378659e-01   2.6033874e-01   7.5727431e-01   5.5126607e-01  -5.4545517e-01   7.6099774e-01  -4.5786376e-01   4.9383113e-01   9.4013157e-01  -4.1558624e-01  -7.7116627e-01   3.8464317e-01  -8.1634180e-01  -1.2835143e-01   6.9518689e-01  -8.0379916e-01   9.6170169e-01   4.0283619e-01  -4.9616390e-01   1.2478424e-01  -6.2298975e-01  -2.0560759e-01   6.0270652e-01   6.0405320e-01   2.5464115e-01   5.2098009e-01  -7.1476187e-01  -5.1326374e-01   1.9474987e-01  -5.5101306e-01   1.1872663e-01  -2.5526494e-01  -4.2983390e-01  -6.9363872e-01   8.0064363e-01   7.2181900e-01  -3.8498855e-01  -8.7764014e-01   6.0077330e-01   4.4887260e-01   3.4042727e-02   3.6488451e-01  -6.3418601e-01  -2.0722838e-02  -6.5147716e-01   7.1000017e-01   9.7788237e-01  -6.6685274e-01   9.6348285e-01  -6.3224014e-01  -4.0718663e-01   5.0978149e-01  -2.9594063e-03  -4.3866522e-01  -6.1180736e-01  -1.8813067e-02  -7.6665240e-01  -5.7343299e-02  -1.6632091e-01  -1.3365641e-02   3.7904916e-01   3.9011986e-01   4.8050209e-01   6.8371112e-01   4.2989198e-01   1.0290705e-01   3.4194590e-01   3.0017029e-01   4.1988785e-01  -1.3157478e-01  -7.1415945e-01  -6.5398813e-01   5.3982646e-01  -1.5009305e-01  -8.4891332e-01  -5.2518401e-01  -4.6220373e-01  -9.5131121e-01  -4.2048668e-01  -6.8550653e-01   3.2225094e-01  -9.6601250e-01   2.5199302e-01  -4.5796896e-01  -9.5698953e-01   4.0969193e-01  -1.2611635e-01   6.7910230e-01   5.0409835e-01   6.4409029e-01  -1.4936629e-02  -7.8723526e-01  -9.5979542e-01  -8.8196389e-01  -7.1066334e-01  -5.1736337e-01   7.7927179e-01  -4.9800441e-01  -6.0754246e-01   6.1198750e-01  -9.4531143e-01  -3.3106160e-01   5.0628487e-01  -7.4077799e-01   1.5703656e-01  -3.6034172e-01   9.2798930e-01   3.2288929e-01  -8.2319777e-01   4.5553760e-01   5.3472163e-01   6.3747548e-01  -3.0118839e-01   5.6591322e-01  -1.5688665e-01   6.8074163e-01   6.2297940e-01  -6.2529584e-01   4.7252343e-01  -7.6003881e-01   4.9960835e-01  -9.0781864e-01   7.0606853e-01   1.6940654e-01   2.5253059e-01   9.4392284e-01  -7.0632470e-01  -4.7686071e-01  -6.9109940e-01  -2.2363360e-01   3.1202252e-01   4.8259708e-01   5.2076102e-01  -1.4077359e-01  -7.1756121e-01   2.1223560e-01  -3.3609839e-01  -5.6404477e-01  -8.8154368e-01   6.4851204e-01   5.0228436e-01  -3.6676246e-01  -6.7515278e-01   5.6966325e-01   1.8803547e-01   9.4475904e-01  -2.0028232e-01   2.3231185e-01   7.2457732e-01   4.3872623e-01  -7.5792153e-01   5.8862029e-01   6.7846296e-01   4.0671663e-01  -9.1310325e-01  -1.6340195e-01  -6.3950988e-01  -6.1242397e-01  -6.3686496e-01  -3.9006048e-01   5.5124728e-01  -8.5536588e-01  -7.7547480e-01  -4.1003759e-01  -4.6446198e-01   3.2979433e-01  -2.7522175e-01  -3.1514362e-01  -1.5275491e-01  -3.9281488e-01   1.6032942e-01  -8.9395139e-01  -9.3257475e-01   6.6992505e-01   6.8943406e-01   5.9882197e-02  -1.2997776e-01   2.1288182e-01  -2.8483877e-01  -7.9729075e-01   9.1184437e-01   8.5726376e-01   9.0766289e-01  -9.6968435e-01   4.3957984e-01  -7.7696404e-01   3.4600629e-01  -1.7261127e-01  -7.2298282e-01  -3.8722182e-01  -9.5595347e-01  -8.2137512e-01  -1.7688026e-01  -6.6916939e-01  -8.6040663e-01  -9.9682995e-01   2.5106470e-01  -4.2282259e-01   6.2244686e-01  -8.3628191e-01  -1.1489819e-01   3.6358368e-01   3.6395045e-02  -4.6571482e-01  -4.5611410e-01  -1.3750126e-01  -1.1770826e-02  -6.3074356e-01   9.9689930e-01   4.0471145e-01   5.7693172e-01   6.1005875e-01   4.0600775e-01   5.3661502e-01  -3.6652276e-02   2.0146416e-01  -2.2237984e-01   9.9115380e-01   3.9211966e-01   7.1050877e-01   3.7575940e-01  -8.4399871e-01   3.9017037e-01  -9.3233470e-01  -7.0871761e-01  -3.5970991e-01  -9.9484349e-01  -7.3998301e-01   7.1100623e-01   6.9330770e-01  -6.8894786e-01   9.1766343e-01  -2.1924288e-01   1.0631493e-01   1.4947518e-01   5.3219981e-01  -5.9905980e-01  -6.7723440e-01   5.5482300e-01   6.1572139e-01   5.3833905e-01   9.1381912e-02  -6.9746656e-01  -2.8718168e-01  -4.3647188e-01  -2.2958091e-01  -5.3314022e-01   8.5233127e-01   5.4551913e-01   9.4496571e-01   3.4501976e-01  -9.2114792e-01  -8.8358807e-01  -8.1437595e-01  -8.9062031e-01  -1.1538186e-01  -6.4474374e-01   7.3311190e-01  -3.4799878e-01  -3.6973458e-01   8.8113883e-01  -6.9429865e-01   1.2770428e-01  -5.3614771e-01   6.5389098e-01   8.3699534e-01   9.5237660e-01  -8.8399376e-01   9.8559170e-01  -7.7324669e-02   2.5752901e-01   9.2708706e-01   4.7129015e-02   1.1084873e-01  -9.5279797e-01  -9.1794605e-01  -3.8057594e-01   8.9078655e-01   2.5447883e-01   4.6588050e-01   8.1558373e-03  -7.9709457e-01   2.5069381e-01   1.7314740e-01   8.5983379e-02  -5.8781912e-01  -7.8818618e-01  -5.7863875e-01   2.4663957e-01   5.5416393e-01  -8.4453731e-01  -8.0944538e-01   4.6542302e-01  -1.2428952e-01   4.4500851e-01   6.3580416e-01  -4.1286399e-01   4.1530318e-01  -8.0974161e-01   1.6489753e-01   7.9903091e-01  -9.8125339e-01  -8.6118198e-01  -1.8294370e-01   5.4684496e-01   6.8619796e-01   7.5712512e-01  -4.4949719e-01  -7.4390780e-02   9.9086705e-01  -3.9464845e-01  -8.8363275e-01   9.0090301e-01   8.4475954e-01   6.0885455e-01  -3.3782330e-01  -6.8594232e-01  -9.3417234e-02   1.5492416e-01  -1.8367038e-01  -1.8630077e-01  -4.4405267e-01   7.1837060e-01  -1.7124359e-01   9.1764147e-02   2.6003200e-01  -8.6713270e-01  -6.0190069e-01  -1.9084832e-01  -5.1925171e-01   7.8896865e-01   2.5272389e-02  -1.8970651e-01   5.3314893e-01   3.3041864e-02  -6.2098998e-01  -8.5409760e-01  -9.6433436e-01  -6.1096290e-01   8.6145003e-01   2.4373591e-01  -5.5129047e-01   8.8469192e-01  -5.7196036e-01   2.8547889e-01   4.7540263e-01   2.3348110e-01   9.9430000e-01  -9.0415096e-01  -7.2868866e-01  -8.8359256e-02   1.3726559e-01  -5.1052819e-01  -3.1988238e-01   8.2010121e-01  -7.3309827e-01   5.4519815e-01   7.5247423e-01  -7.4284488e-01   8.9555597e-01  -8.7245478e-02   7.1467309e-01
   5.9126086e-01   6.1562431e-01   2.3015460e-01   5.9524987e-01  -5.4469330e-01  -9.0162784e-01  -9.1584688e-01  -1.7142030e-01  -2.0134370e-01   3.8657691e-01  -1.2266784e-01   6.4236909e-01  -5.7446931e-01  -8.5098840e-01   4.5970035e-01   8.2703339e-01   5.6101342e-01   3.2665314e-01  -8.6607999e-01   6.2058888e-01  -7.2391344e-01  -1.2192720e-01   5.9399163e-01   6.2199529e-01   8.0584885e-01  -6.1604372e-01   4.5916331e-01  -9.9190675e-02   7.3880275e-02  -7.6730513e-01  -1.3195037e-01   4.7358958e-01   4.9750210e-01   1.1884483e-01  -5.2241130e-01   3.8611014e-01   8.8076608e-01  -9.7962059e-01  -9.1729655e-02  -6.5530981e-01  -7.3402944e-01  -7.2927281e-01   7.8782778e-01  -4.5028810e-01   2.8695424e-01   1.7294944e-01  -3.0374886e-01  -1.5824673e-01   4.1501933e-02  -8.8097347e-01   6.6559736e-01  -2.9262693e-01   2.9131380e-01  -6.6133645e-01   5.2905968e-01  -5.6809143e-01  -9.8386466e-01   3.8575025e-01   8.4877006e-01   6.9434909e-01  -4.8791510e-01   1.5352982e-01   3.0450508e-01  -4.7467924e-01   7.6968615e-01   9.0253085e-01  -8.0865726e-01   6.8886871e-02  -8.5451135e-01   8.6224325e-01  -9.1712630e-01   4.3182307e-01  -7.2288547e-01  -4.9250022e-01  -9.5194139e-02  -7.5600570e-01  -7.2633968e-01  -5.1234129e-01   8.8350130e-01  -4.3976210e-01  -1.7100313e-01  -7.5270742e-01   6.2549843e-02  -5.7942514e-01   8.3385398e-01   5.7146030e-01   2.3103155e-01   5.7438261e-01  -7.4913228e-01  -6.6921810e-01  -4.4707298e-01  -8.4942960e-01  -6.3576738e-01   3.8571590e-01   9.5991556e-01  -5.0507787e-01  -1.4935780e-02   9.9362221e-01   4.2949011e-01   9.8073968e-01   2.6821579e-01  -3.4214796e-01  -7.6651611e-01  -6.6565529e-01  -1.7703547e-01   9.5790463e-01   4.7391068e-01   3.4462474e-01   1.8464869e-01   3.3589337e-02   1.3061441e-01  -7.4146989e-01  -9.8521138e-01  -8.8279697e-01  -7.7830552e-01  -2.7426022e-01  -5.7981441e-01  -8.9560717e-02   5.3506720e-01  -9.3367800e-01  -7.5063029e-01  -2.3124360e-01   9.6718230e-01  -9.6833806e-03  -8.0634083e-01  -3.1034113e-01  -1.0589936e-01  -6.8977348e-01  -4.7128966e-01   1.3594786e-01  -2.0717968e-01   4.5761167e-01   3.7509259e-01  -1.8973590e-01  -5.4888713e-01   2.5311080e-01   6.8057319e-01   9.7621115e-01   9.8991014e-01  -9.1803210e-02   7.2061149e-01   2.6995635e-01  -9.9860195e-01   2.8293122e-01  -9.2804494e-01  -1.2232131e-01  -2.9535635e-01  -8.2340841e-01   9.3592580e-01  -9.9393331e-01  -9.1623595e-01  -2.9481006e-02   8.5421519e-01   5.3410727e-02  -3.3878173e-01   4.8700409e-01  -1.1005076e-01   9.9383129e-01  -2.7815383e-01  -9.5518368e-01   1.0972293e-01  -3.4561429e-01   4.3039682e-01  -9.9445848e-01  -6.5345719e-01  -3.6801236e-01   1.4728092e-01   9.5499466e-01  -4.4463616e-02  -8.5442449e-01   3.4196355e-01  -3.3937048e-01  -3.6519771e-01   1.2257274e-01  -4.9103554e-01  -2.3609478e-01  -4.2345130e-01   2.3954560e-01   4.7044851e-01  -1.5703368e-01   8.5906129e-01  -4.8495680e-03   2.0800486e-01   4.9028433e-01   8.4825652e-01  -9.1818161e-01   6.1271953e-01  -4.3174216e-01   2.8221665e-01  -1.3631027e-01  -8.9541761e-01   7.2484469e-02   9.5266622e-01   2.1792957e-01  -1.0796167e-01   1.0965806e-01  -2.6846168e-01   9.8154427e-01   6.3943348e-01  -5.3319915e-01   8.1048263e-01   3.4088236e-01   6.9570717e-01  -9.7175966e-01   9.8512137e-01  -6.2861848e-02   4.7598514e-01  -9.6029878e-01  -1.7731135e-01  -9.5495635e-01   3.7511722e-01  -8.3295094e-02   9.6001023e-01  -8.7193937e-01   7.1897864e-01   4.0984800e-01   7.8533411e-01   8.1557969e-01   1.1095950e-01  -2.7692077e-01  -8.6361723e-01  -3.2519889e-01   7.8919292e-01   7.2391718e-01   1.2338873e-01  -4.6416899e-01  -6.1762853e-01  -7.2302653e-01  -5.7695734e-01   7.0478191e-01   8.3278562e-01   6.1326731e-01   4.9505948e-01   3.8477143e-01  -4.9427699e-01  -3.7063271e-01  -2.8143326e-01  -6.2176685e-01   9.5334607e-01   7.6906309e-01  -9.3115784e-02  -5.6165672e-01   5.0445293e-01  -4.7797790e-01  -2.4009444e-01   2.5764510e-01   8.5109561e-01   7.1913697e-01   2.7063314e-01  -3.8743523e-01  -9.2062045e-01   3.6531898e-01  -4.4567131e-01  -2.2094171e-01   3.1616234e-01  -8.0040695e-02  -8.9883413e-01   1.3022556e-01   9.0209770e-01   2.8669098e-01  -8.3598295e-03   2.4177678e-01   5.2575235e-01  -4.6805921e-01   6.8093105e-01  -1.0127888e-01  -9.1699367e-01   4.1205661e-01   9.8601574e-01   4.0516627e-02  -5.7896111e-01  -8.7769088e-03  -9.4536630e-01   9.3423020e-02   7.9237469e-02   8.1570977e-01   4.0640562e-01   5.1649722e-01  -9.3446491e-01  -2.1911894e-01   1.8422450e-01   8.3583883e-01   5.7353249e-01  -9.8558170e-01   9.2120851e-01  -9.7217815e-01   5.0704385e-01  -7.4931821e-01   4.1672124e-01  -9.9882187e-01  -2.4517569e-01   2.9913113e-01   6.6879972e-01   5.6933443e-01  -2.1365592e-01  -9.0112013e-02   1.3617423e-01   9.7881673e-01   3.8735460e-01   5.0415825e-01   1.1646801e-01   4.0924896e-01   7.9938449e-01   5.2690255e-01  -6.5656472e-01  -8.3176491e-02  -5.1896445e-01   5.6958325e-02   8.8022987e-01  -2.3744835e-01  -8.7715608e-01   3.8701365e-01   8.0658052e-01  -6.4443868e-02   9.1922518e-01  -9.9132225e-01  -7.8597597e-01   5.5753227e-01   7.7236761e-01  -2.2936157e-03   9.9896205e-01  -3.9336247e-02  -6.2172307e-01   6.9519959e-01  -5.3886076e-01  -1.1893380e-01   2.8635935e-01  -6.2935292e-01  -6.9954652e-01   4.9104300e-01   5.0232491e-01   2.9179543e-02  -1.3987433e-01  -6.0237714e-01   5.5385890e-01  -4.4309419e-01   8.8647890e-01   7.7286743e-01  -2.9210566e-01   5.7133698e-01   3.1260226e-01   2.8638006e-01   6.1794773e-01   4.8266271e-01   2.5996696e-01  -6.4209525e-01  -2.1601572e-01  -4.0572564e-01   4.8222855e-01   9.1706376e-01   6.4604222e-01   5.5325921e-01  -7.0676902e-01  -7.6109944e-01   6.7216695e-01   1.4601744e-01  -9.4195748e-01  -9.4272706e-01  -2.8464190e-01  -2.6809546e-01   8.1660644e-01   2.3352852e-01  -4.3561771e-01   4.2276759e-01  -2.8112889e-01   6.1041981e-01   2.4358275e-01  -6.3560286e-01  -9.5181507e-01  -2.7843623e-01  -7.7640710e-02   8.2234322e-01  -6.7458166e-01  -5.2737921e-01  -7.2514709e-01  -6.7331680e-01   8.6249955e-01   1.5889080e-01  -4.1060288e-01  -3.1175438e-01  -7.0177530e-01   8.0338858e-01  -9.3838391e-01  -2.0675018e-02   4.2684665e-02  -8.7830415e-01  -5.5081180e-01   1.9172135e-01  -6.7366313e-01   5.1275090e-01   6.8118831e-01  -8.7445384e-01  -6.7048880e-01  -7.9759628e-01  -7.5555595e-02   6.4922756e-01   8.7695658e-01   2.0058605e-01  -8.4460109e-01  -7.1210044e-01   3.8960192e-01  -1.3155363e-01   8.4603376e-01   2.5045702e-01  -4.9655562e-01  -9.7268178e-01   8.1773841e-01   7.8586308e-01   1.3438769e-01   2.3854609e-02  -1.8614047e-01   2.1708293e-01  -6.3821681e-01   8.0890269e-02  -5.1831813e-01  -9.5460536e-01   3.1002859e-01  -1.7578980e-01  -8.6404337e-01  -4.4231509e-01  -3.8460440e-01  -6.1215474e-01  -9.3961758e-01  -2.4124331e-01  -2.5845236e-01  -4.9189336e-01  -9.9821304e-01   3.4866300e-01   3.1777471e-01  -8.0323127e-01  -9.3228859e-01  -5.6476150e-01  -2.4887090e-01   7.6695443e-01   9.2002314e-01  -8.4896122e-01  -2.9553237e-01  -6.6077865e-01  -4.7359261e-01   4.3587838e-02   5.7047091e-01  -1.1706301e-01   5.2186449e-01  -2.3500836e-01  -2.4684778e-01   2.0186003e-01   7.1717099e-01  -6.8410097e-01  -6.4107923e-01   8.6519322e-01   8.7761144e-01  -3.7497571e-01   2.9213954e-01  -4.5154287e-01  -9.0391206e-01  -9.2167136e-01   8.2086922e-01   5.8860382e-02  -9.3019138e-01  -7.7009670e-01   3.9390845e-01   7.0945771e-01  -2.9094135e-01   2.1515203e-01   3.9299418e-01  -4.7963791e-01  -5.4489172e-01  -1.8968901e-01  -3.4894919e-01  -5.1795860e-01  -2.4231996e-01  -4.4209560e-01   3.8151881e-01   2.7930560e-01  -5.9904266e-01   1.7991790e-01   5.2799879e-01   7.3165409e-01  -7.7532709e-01   7.9915950e-01   6.7644746e-02  -2.8919134e-01  -5.3711256e-01   4.4056259e-02   7.2891344e-01  -3.5632282e-01  -1.3264287e-01   5.3161185e-01   3.5186178e-01  -7.0960938e-01  -2.7467138e-01  -7.2000475e-01  -5.2821268e-01  -9.8491965e-01  -4.3988385e-01   2.5682066e-02  -5.5316611e-01   3.0325497e-01   7.9504142e-01   1.6546606e-01  -3.0417259e-01  -1.2545455e-02   1.9871426e-01   6.0353760e-01   7.6413736e-02   9.4132456e-01   3.9450394e-01   3.7490073e-02  -3.2381394e-01   5.2119884e-01  -4.2314005e-01   7.3614613e-01  -3.8579258e-01  -4.0868103e-01   6.3208750e-01  -7.5300077e-01   5.5666171e-02  -2.6420209e-01   8.6230422e-01  -4.1095542e-01  -6.6458498e-01  -7.5178234e-01   6.6185869e-01   1.9249125e-01   9.2457943e-01   1.3340902e-01  -9.2440102e-01  -2.7132248e-01   7.3843993e-01  -2.8728779e-01   7.4902461e-02  -2.0127969e-01   3.2366654e-01   9.0793773e-01  -6.2899941e-01   3.5119137e-01  -2.6416672e-01  -9.2973270e-01  -2.3732736e-01   5.2195671e-01  -6.7190289e-01   5.1466693e-01   5.0581539e-01   2.5350692e-02   9.5912731e-01  -4.7786457e-01  -8.7517482e-01  -5.1208217e-01  -5.5783502e-01   5.0096532e-01  -8.0048888e-01  -3.1487419e-01  -9.0139789e-01   1.8081369e-01   3.5178560e-01   1.3663143e-01  -1.8125048e-01  -5.6239024e-01  -4.9844297e-02   2.0032644e-01   4.5905832e-01  -5.7270763e-02   6.6711130e-01   3.1759153e-01   8.0829048e-01   6.4040998e-01  -7.1537690e-01  -5.9339883e-01   4.7468373e-01  -2.6496123e-01  -3.7584633e-02  -5.2991925e-01  -4.2471904e-01   8.5186907e-01   5.5603716e-01  -9.6345982e-01   8.1825583e-01   2.5465199e-01  -8.6146847e-01  -3.5551285e-02  -1.9028035e-01   3.4717418e-02   6.8291552e-01   4.5289031e-01   1.4570349e-01   4.0217699e-01  -8.8330055e-01  -3.5103684e-01  -5.0654211e-01  -9.0276231e-01  -2.2073447e-01   2.3115516e-01  -4.1099422e-01   3.0605548e-01   9.2267497e-01   1.6287311e-01   9.5596739e-01  -6.7530887e-01  -7.0334456e-01  -3.5330455e-01   7.0667402e-02   1.0950442e-01  -4.4888670e-01   8.4345559e-01  -5.0055363e-01  -6.5539787e-01   6.4217851e-01   9.0671938e-01  -8.9435507e-01  -9.7297199e-01   1.2217098e-01  -6.0618702e-01   9.3615258e-01   9.0046016e-01   4.0582974e-01   8.5553248e-01  -9.9147577e-01   8.3047280e-01   1.6311236e-01  -9.0061358e-01  -9.9867799e-01   3.4146346e-01  -1.5770523e-01   3.3034216e-01  -6.2158400e-01  -5.9414921e-01  -5.3644325e-01   8.5761712e-01  -1.4616472e-01   2.6041700e-01   1.0468598e-02  -8.5459966e-01   1.7764451e-01  -7.6378640e-01  -3.7463558e-02   9.8739941e-01  -7.8508502e-01  -9.0434330e-02  -3.6325340e-01   4.5062910e-01   1.4412645e-01  -6.4248982e-01   5.3913110e-01   6.3920636e-02  -2.2422631e-01   3.1384848e-01  -1.0421596e-01  -3.4484209e-02   2.9308948e-01  -3.1013387e-01  -2.9924833e-01  -8.4349837e-01   3.0065318e-01   6.3050369e-01  -8.4725202e-02  -7.8455948e-01  -4.2871920e-03  -2.5011305e-01   1.8805962e-01   9.8679471e-01  -7.2792225e-01   9.2513632e-01  -9.4307193e-01  -1.7669317e-01  -6.8499794e-01   7.4491389e-01  -8.7871129e-01  -4.8376080e-01   5.8876433e-01   3.1625434e-02   6.1193547e-01   7.6423743e-02   8.6013982e-01   2.6364115e-01  -6.3791229e-01  -9.0834246e-02  -5.3320103e-01   3.2075497e-01   9.2110168e-01   7.3412372e-01   7.7424080e-01   9.9645034e-01   9.8441732e-01  -6.6614820e-03  -3.0867163e-01  -6.4947279e-01  -9.3377164e-01  -6.3390714e-01  -4.1669230e-01  -8.2286871e-01   8.1613046e-01   7.0901393e-01   6.4034788e-01   6.8292490e-02  -7.6515698e-01  -2.5161058e-01  -1.2419538e-01  -3.9572847e-01   6.0968781e-01   9.1116406e-02  -5.3483410e-01   4.9875353e-01   1.0600368e-01  -5.2463216e-01  -3.4611380e-01  -3.1931950e-01   3.8021418e-01   9.7608925e-01   8.8081943e-01   6.5833927e-01  -2.8017426e-01  -1.8148169e-01   1.2523428e-01  -1.9673664e-01   4.1069106e-01   4.1990467e-01   2.1575429e-01  -2.6809534e-01   1.8120275e-01  -3.5115004e-01   1.7138557e-01  -5.6893668e-01   1.3683778e-01   1.9371291e-01   5.8001160e-01  -5.3702003e-01   2.3484444e-01  -2.1753006e-02  -1.2950317e-02   7.6651512e-01   1.5566778e-01   9.0563396e-01   7.7235933e-01  -7.0174408e-01  -5.4455009e-01   6.3695935e-01  -8.3962344e-01  -1.5075313e-01  -7.4632084e-01  -2.9157372e-02   1.8804256e-01  -8.5193849e-01   5.7322473e-01  -6.1453925e-01  -2.7891835e-02  -9.7482241e-01   3.4353246e-01  -6.5376543e-01  -3.7026566e-01  -9.5570573e-01   1.2750915e-01  -2.9324493e-01  -5.5309163e-01   7.9211571e-01  -4.1628497e-01  -4.8450127e-01   1.8894890e-01   7.9229489e-01   3.0757302e-01  -6.6644541e-01   1.3946416e-01   5.8694839e-01  -7.6306711e-02   4.6824732e-01  -4.6624675e-01  -4.4870650e-02  -9.5358215e-01  -6.5281136e-01   5.9796844e-01   8.5124965e-01  -1.9816862e-02   3.2474715e-01  -9.5776746e-01  -5.6717298e-01  -5.1342182e-01   4.9463999e-01  -7.4285356e-01  -3.7838314e-01  -7.0989106e-01  -4.0935572e-01   8.1458303e-01  -8.6477532e-01  -1.2840748e-01  -3.9995395e-02  -6.8918520e-01   9.3269440e-01   4.0722709e-01  -3.4912540e-01  -6.8509397e-01  -6.7269757e-01   2.6757487e-01  -3.5463862e-01  -2.8465210e-02   9.7396306e-01   6.6227467e-01   4.4391121e-01  -7.8782213e-01   8.7677467e-01   7.5926586e-02  -1.9394013e-01  -9.1964094e-01  -8.7576850e-01  -1.9752626e-01   3.3528691e-01   2.1843595e-01   8.1309861e-01  -4.3932030e-01  -7.8185056e-02  -9.4109725e-01   4.3407980e-01   9.6345540e-01  -8.4946961e-01  -9.7084714e-01  -2.9731105e-01  -4.4659702e-02  -2.9677375e-01  -7.9262064e-01   6.1370630e-01   8.4951110e-01   3.6285179e-01  -2.1945685e-01  -1.9243712e-01  -3.1310385e-01  -7.9766077e-01  -5.0404513e-01   4.5449666e-01  -6.7222333e-01  -8.0910522e-01   6.5117219e-01  -3.9472353e-01  -9.5564810e-01  -7.3236665e-01  -7.1173920e-01  -6.9127936e-01  -8.5536018e-01  -7.9260021e-01  -2.2324235e-01   2.3595603e-01  -6.0701846e-01   7.1870328e-01  -6.7226673e-02   8.5886352e-01   8.4351483e-01  -9.3619091e-01   1.5183253e-02  -7.2217592e-01   7.3449176e-01  -4.6899139e-01   1.5399599e-02  -2.9285520e-01   9.1016261e-04   1.4576769e-01   1.3448800e-01   5.6567707e-01  -7.6731620e-01   7.7663189e-02   3.3926086e-01  -5.4209111e-01   4.5935296e-01  -9.9807325e-02  -7.8213366e-02  -9.6275420e-01   4.6949541e-01   6.6288438e-01  -6.0334658e-01   8.3278274e-01   9.1629967e-01   6.1066573e-02  -7.9126488e-02   3.5766421e-01   3.9180532e-01  -1.9812076e-01  -5.1713760e-01   5.1827151e-01   2.2097076e-02   9.3150093e-01  -1.4094066e-01   8.5292515e-02  -5.9858595e-01  -2.1967173e-01  -6.8398191e-01   8.1908183e-01   6.4754311e-01   1.8782518e-01  -6.5218028e-01  -7.7839352e-01  -6.1454368e-01   4.7871105e-01   4.0406820e-01   9.8167323e-01   5.3248255e-01   4.4039298e-01  -9.0343723e-01   4.0181669e-01  -9.7336876e-01   2.0596767e-01  -2.5661480e-01  -3.0496256e-02   6.3890531e-01   6.9450618e-02   7.8434802e-01   3.1635473e-01   6.6900768e-01   3.6531588e-01   7.7908001e-01  -9.7926541e-01  -3.3457833e-01  -2.2102521e-01  -6.1283573e-01  -5.7780295e-01  -8.6755742e-01   5.6743703e-01  -9.7595422e-02  -6.1771324e-01  -2.1197936e-01  -7.5892897e-01  -3.5129628e-01   8.4233044e-01   8.4743894e-01   2.6032673e-01   8.2399742e-02   6.4719735e-01   6.6514038e-01  -6.4904811e-01   2.0237119e-01  -2.2146694e-01  -6.0351745e-01  -1.8484398e-01  -5.0824341e-01  -1.8552498e-01  -5.8518694e-01  -6.8244101e-01   7.3981902e-01   8.5636909e-01  -1.6893025e-01  -9.5290300e-01  -7.6062085e-01  -2.7902736e-01  -6.9291392e-01  -4.7291622e-02   3.1090167e-01   2.4771188e-01   6.4716242e-01  -4.8696348e-01  -7.3031321e-01  -8.7286367e-01  -4.6090630e-01   3.5516896e-02   4.6406653e-01   9.9019582e-01  -3.2426282e-01   8.3010122e-01  -3.7212020e-01   4.5073118e-01   7.6684480e-01   4.7092081e-03   5.4634496e-01   5.0689001e-01   3.2851929e-01   7.9718413e-01   6.8687431e-01  -9.2474790e-01  -2.7868955e-01  -7.6805922e-01  -7.3729203e-02  -3.8567182e-01  -6.8367971e-01   8.3049839e-01  -1.2837375e-01   9.4085666e-01  -4.4487505e-01   2.7732306e-01  -2.5610597e-01  -9.9300169e-01   1.9917165e-01   2.7492008e-01   8.9988143e-01   8.2766226e-01  -3.6041626e-01  -8.7354309e-01  -2.1280828e-01   6.7776702e-01   6.8889025e-02  -1.2764543e-01  -7.5589670e-01  -8.1020496e-01  -2.4981954e-02   8.1176989e-01   6.0281047e-01   1.4850576e-01   1.4900554e-01   5.9181502e-01   1.0230672e-01   2.4743755e-01   8.1598180e-01   1.9502304e-01  -1.9339009e-01   5.8588015e-01  -9.3119582e-02   2.4613684e-01
   5.8908601e-01  -9.5199751e-01  -7.7900953e-01   1.8996110e-01  -7.1709995e-01  -1.6419658e-01   1.7713388e-01  -8.4785660e-01   6.7141308e-02  -6.6145111e-01   9.2459998e-01   5.7389637e-01   8.2513046e-01   2.2697175e-01  -3.5944259e-01   3.9348783e-01   5.9253087e-01  -8.7663866e-01   1.7228741e-01   5.7450311e-01   5.5181984e-01  -5.2699645e-02   6.8306982e-01  -3.9883016e-01  -8.0028178e-02  -4.6845041e-01   5.4313754e-01  -1.5854958e-01  -3.1095408e-03   4.6004934e-01   5.9171771e-01   6.0097213e-01  -1.1989283e-01  -4.8962952e-01   9.8864915e-01   2.7312014e-01  -4.2569286e-01   3.1779037e-01  -9.4416534e-01  -4.3443960e-02  -4.0280839e-01  -9.3212331e-02   1.0772375e-01   3.5808259e-01   1.2490730e-01   5.1896403e-01   3.4316881e-04  -9.9256573e-01  -4.8166361e-01  -5.3831181e-01  -6.3914580e-01   3.0462224e-01   7.7967715e-01   3.2130370e-01   6.3110672e-01  -3.8271182e-01  -2.4922186e-01  -4.5328132e-01   7.4471681e-01  -7.9439882e-01   3.0689056e-01   9.1776601e-01   7.0985293e-01   8.8560079e-01   3.0570122e-01  -3.6289948e-01   4.3915445e-01   4.5516817e-01  -3.8048016e-01   5.0468297e-01  -1.9334747e-01  -9.4965180e-01  -6.3116285e-01  -7.7025254e-01  -3.8730024e-01  -4.9828750e-01  -4.0624620e-01  -7.8193033e-01   6.3716728e-01   6.3234051e-01   2.0734859e-01   3.8914458e-01  -1.5353611e-01  -7.8809352e-01  -1.6770072e-01   6.5901150e-01  -2.6303505e-01   6.7791071e-01  -8.9756052e-01  -9.4856592e-01   1.5212127e-02  -1.6827523e-01   6.0799209e-01  -3.9230010e-01  -1.2193288e-01   1.1500196e-01  -2.8708940e-02   2.6247096e-01   5.4372062e-01   2.3058146e-01  -6.8044656e-01   5.1170878e-01   6.6466966e-01   3.9172709e-01   1.3991240e-03   4.3575208e-01  -4.7595179e-02  -8.0556191e-01   2.7941277e-01   3.0493094e-01   7.7688519e-01  -5.5754398e-01  -1.1080869e-01   2.2476005e-01   9.3139872e-01   8.7128234e-01  -3.8031247e-01   7.1139765e-01  -6.6900598e-01   7.8151985e-01   4.1105745e-01   2.3774631e-01   6.7090512e-01   3.7054919e-01  -5.9004572e-01   1.8568325e-01  -8.7258153e-01   9.0210290e-01   9.0992999e-01   6.2366076e-01   4.5935594e-01   4.9571056e-01  -1.3930207e-01   8.1730496e-01   5.5289216e-01   3.6165842e-01   3.3235884e-01   3.4261486e-01   5.8504419e-01  -6.5681928e-01  -9.9146242e-01   4.7750867e-01  -5.1377332e-01  -7.6830721e-01   7.8497259e-01  -8.2760448e-01   1.7574602e-01  -3.8791360e-01   8.0132112e-01  -6.3895543e-01   1.3599112e-01  -2.6788482e-01   1.9066933e-01   7.6072941e-02  -3.3492675e-01   2.3729725e-01  -7.6235025e-01  -9.9156166e-01  -5.7132640e-01   2.4813887e-01  -1.8167351e-03   4.4831527e-01   8.2115088e-01   5.1411058e-02   4.1563669e-01  -2.5083678e-01  -3.3610497e-01  -4.1271923e-01   5.0317682e-01  -4.3124023e-01  -6.8625155e-01  -6.1132186e-01   7.8940820e-01   8.3778466e-01   4.9218027e-01  -1.5237402e-01  -5.0305373e-01  -6.3586280e-01  -6.5255293e-01  -6.8397481e-01  -6.7381145e-01   7.5829149e-01  -2.1216439e-01   7.7159921e-01  -4.1624384e-01  -5.4344297e-01  -8.2053409e-01  -3.0626813e-01   5.4640975e-01   8.7273562e-01  -1.0364297e-01  -8.8267091e-01   5.2077814e-01   3.2062599e-01   4.4631786e-01   7.0337690e-01  -3.5563334e-01   9.5296740e-01   2.0723494e-01   3.5517586e-01  -4.6688573e-01  -8.5988556e-01  -6.0983207e-01  -9.9655841e-01   3.1880025e-01  -1.2418045e-01   1.1146160e-01   9.9019393e-01  -4.4748281e-01  -2.0854510e-01   1.4168929e-01   8.2579224e-01   1.9014119e-01  -6.3829424e-01   1.7175350e-01   5.5450646e-01  -9.8180867e-01  -2.9110982e-01  -4.7567972e-01   5.3136269e-01  -4.5953459e-02  -9.6086767e-01  -5.4689509e-01  -5.1366980e-01   8.2275040e-01   2.1645768e-01   2.8620155e-01   8.8543128e-01  -1.9844845e-01  -2.5754488e-01  -1.4141066e-01   7.4507590e-01   1.5308122e-01   1.1028194e-02   6.8083195e-02  -5.4383311e-01   6.3389062e-01  -7.4320810e-01   4.6209653e-01   7.9823801e-01   5.0445951e-01  -5.8121833e-01   1.0364593e-01  -3.9639205e-01   3.5357330e-01  -4.8807889e-01  -3.5639642e-01  -6.1560834e-01  -3.0146875e-01   1.5348704e-01  -1.4981521e-01  -5.1093834e-01   2.7160434e-01  -3.6601429e-02   7.2666342e-01   1.1487270e-01   1.2632961e-01   9.2179343e-02   3.9421690e-01  -6.0696507e-01   1.5473255e-01  -5.6499836e-01  -1.8612338e-01  -9.8716668e-01  -7.9174689e-02  -5.5801897e-01   5.8266381e-02   3.5393318e-01  -4.3645648e-01   8.1759028e-01   9.1960691e-01   6.4912794e-01  -3.6185774e-01   1.3282781e-01  -3.4225771e-01   6.5558894e-01  -9.3889726e-02  -8.2415426e-01  -8.1349722e-01   4.8000977e-01   5.4077408e-01  -1.6783500e-01  -4.6973289e-01   2.1303863e-01  -9.3568695e-02  -2.9213504e-01  -7.4124853e-01   8.1330510e-01  -3.1926558e-01  -5.0698300e-01  -6.2286867e-01   9.4661502e-01  -5.8019987e-01  -9.4447411e-01  -6.3327776e-01   3.5025607e-01   9.3177618e-01   4.2707003e-01   5.0553880e-01   3.0619213e-01  -9.3373025e-01  -8.9925817e-01   3.2864207e-01   4.1301619e-01   4.2707945e-01  -3.6358180e-01   4.6002199e-01   4.8494016e-03  -8.4326394e-01  -4.9248052e-02   9.0202397e-01   4.5702564e-01   6.5319380e-01   6.5500617e-01  -7.0566591e-02  -3.5177862e-01  -2.4821648e-01   7.6716935e-01  -9.8658121e-01  -4.7407210e-02   7.7402974e-01   6.4102377e-01  -9.7636382e-01  -2.8576269e-01   2.1777254e-01  -6.3006222e-01  -1.7705951e-02   4.6573911e-01  -4.0249462e-01   8.0279790e-01   6.7859228e-01  -4.5543931e-01   2.2595439e-01   5.0739589e-01  -8.8662167e-01   9.2989627e-01   8.0424421e-01  -8.9996836e-01  -2.5959190e-01  -4.9737362e-01  -9.8512441e-01   8.4021315e-01   9.9884889e-01   7.8289524e-01   4.6400781e-01  -9.6733804e-01  -9.6337144e-01  -1.0135168e-01   2.6464517e-01   8.8238968e-01   4.3567286e-01   4.1943319e-02  -9.1151923e-02  -5.0611469e-03  -4.7834813e-01  -6.8047527e-01   9.2081774e-01   3.8990395e-01  -5.6252264e-01  -4.2265411e-01   6.9666779e-01  -4.7473980e-01   9.7478085e-01   1.9289989e-01  -4.8412153e-01  -3.5842480e-01   2.1525558e-02  -6.5948016e-01  -3.1393048e-01  -4.9954234e-01   6.3803158e-01   2.6449486e-01  -8.3469380e-01  -2.7015418e-01   1.3820314e-01   4.2841442e-01  -4.1648500e-01   5.0741189e-01   4.3738693e-01   7.5066137e-02   1.4771129e-01  -6.3938337e-01  -5.8701151e-01   2.2502372e-03   9.7156444e-01  -5.4442874e-01  -8.3437907e-01  -3.2667472e-01   3.3352030e-01   6.5646742e-01   4.6097763e-01  -9.0439132e-01   8.6155948e-01  -7.0321800e-01   9.0237263e-01  -2.6949957e-01  -8.8552049e-01  -1.7998557e-01   3.8818228e-01   9.2345729e-01   4.9055455e-01  -6.1110004e-02  -7.0401234e-01  -4.9723783e-01   8.8493350e-01   5.1094167e-01  -9.5882934e-01  -3.6676710e-01  -8.6841518e-01  -5.3459568e-01   8.6592578e-01  -3.1032187e-02   1.9597271e-01  -2.6324082e-01   3.2135813e-01  -3.7536943e-01   4.7063465e-01  -8.8818649e-01  -9.4629441e-01   7.9911922e-02   4.4136976e-01  -7.3060146e-01   5.0453407e-01   6.2687343e-01   2.5870900e-01   9.9137476e-01   6.0637741e-01  -3.2930216e-01  -9.5181881e-02   9.5977935e-01   3.2917489e-01   7.6844351e-01  -4.0103583e-01  -3.7384376e-01  -4.6141534e-01   4.5676814e-01  -7.3587212e-01  -9.7023712e-01   9.9045678e-01   2.6803577e-01   4.0911144e-01   9.2869272e-01  -1.7606711e-01   6.8496917e-01   4.8267005e-01  -4.7091878e-02  -1.8252468e-01  -2.9076670e-01  -3.2596054e-01   7.8866379e-01  -5.4447756e-01  -7.7949821e-01   2.5565912e-01  -8.9139558e-02   5.8085082e-01   9.6655012e-01   4.8661689e-01   7.1758926e-01   5.7129402e-01  -6.0069693e-01   4.7181952e-01   5.5388654e-01  -8.9067505e-01   9.6797743e-01  -1.4629509e-01  -5.5661981e-01  -1.3258608e-01  -3.2367228e-01  -8.8275309e-01  -9.2956587e-01  -4.4028405e-01  -2.2262312e-01  -9.4647243e-01   8.7018357e-02  -3.6387097e-01   9.4385596e-01  -4.5738078e-01  -9.2337419e-01  -5.7997198e-02   2.2928509e-01   9.1863299e-01  -7.3364798e-01   5.1046592e-01  -6.7127284e-01  -9.4123321e-01   5.8107899e-01  -1.8755504e-01  -7.2102283e-01   8.0246708e-01   8.3627577e-02   4.3947598e-01  -8.3795693e-01  -3.6434960e-01  -5.6098965e-01   6.1519147e-01  -5.9983586e-01  -8.4998049e-01   8.7268062e-01   9.8927901e-02   3.5546865e-01  -3.6040998e-01  -8.8941783e-01   1.6842886e-01  -3.3953758e-01  -6.2123374e-01  -8.9443916e-02  -4.2249721e-01   8.3956062e-01   3.1902012e-01   5.5834790e-02   9.1431815e-01   7.5931135e-01   6.1547545e-01   4.2984674e-01   5.3024079e-01   2.1202530e-01   8.3535213e-01   7.4394358e-01  -5.4297888e-01  -4.1193708e-02  -4.9308474e-01   1.0920394e-01  -7.8484391e-01   4.5964167e-01  -1.4014332e-01   9.2530305e-01  -9.7509938e-01  -5.5735280e-01   9.0585577e-01   2.4399136e-01   8.9417931e-01   5.3790094e-01   1.0769887e-01  -5.9535496e-01  -5.8444384e-01   3.6533123e-01  -6.9122299e-01   6.3032308e-01   4.4483982e-01  -5.7790771e-01  -6.7507529e-01   1.1309510e-01   4.9861830e-01  -1.7649825e-02  -3.6128795e-01   4.2537547e-01   6.2602290e-01  -3.6959643e-02  -8.1288239e-01  -2.2040204e-01   6.7274435e-01   7.9545761e-01   6.5439316e-01  -7.3946044e-01   9.2349001e-01   6.9840413e-01   5.8643524e-01  -4.2102623e-01   9.7533694e-01   1.4802282e-02   7.4252345e-01   5.5250746e-01   1.8757155e-01  -1.6024534e-01   2.7560146e-01   6.3301800e-01   3.8846071e-01   1.9953824e-02  -8.6419728e-01   9.9742904e-01  -8.5729278e-01   3.9225029e-01   4.4437171e-01  -3.1233988e-02  -2.4558656e-01  -2.1483782e-01  -7.4732843e-02  -9.8663774e-01   3.9844922e-01  -8.2699349e-01   4.1643012e-01   6.4811878e-01  -6.4854408e-01   9.7082843e-01  -6.1895341e-01  -3.6182036e-01   9.5287571e-01   1.6273013e-01   1.2603652e-01  -9.5216281e-01  -7.0745404e-01   4.4618397e-01   2.0707344e-01  -5.5288687e-01   6.9431856e-01  -3.1715840e-01   5.4379863e-01  -2.2458507e-01   6.6319621e-01  -1.8473261e-02  -9.3025725e-01   8.0603447e-01  -9.5691659e-01  -5.0745289e-01  -5.1261501e-01   4.7368987e-01   2.8098882e-01   7.6394925e-01  -1.1164076e-01  -8.1646207e-01   6.0160951e-01  -5.2987343e-01  -7.4935254e-01   6.7325888e-01  -9.2068436e-01   4.1959296e-01  -8.0735180e-01   3.4220454e-02  -1.4910188e-01   2.7718275e-01  -4.8733993e-01  -3.9756156e-01  -8.6674765e-01  -9.2619862e-01  -8.4657650e-03  -7.2054272e-01   4.1208723e-01   1.9136510e-01  -6.0205617e-01  -3.7809621e-01  -4.5573484e-01  -3.0368391e-01  -4.4577974e-01  -5.6490054e-01  -4.8593801e-01   6.5588917e-01   7.2054732e-01  -5.6224149e-01   5.0891218e-01  -8.4445381e-01   5.4143017e-01  -6.3292370e-01  -5.1550141e-01  -1.2069708e-01  -3.3464720e-01   5.2641501e-01   4.7233853e-01  -1.5987695e-01   3.2378003e-01   6.6784481e-01   3.3657372e-01  -8.1747612e-01  -1.5612262e-01   9.7612984e-01  -3.8924890e-01   7.6299746e-01   5.2216144e-02  -7.8214738e-01  -4.8746114e-01  -7.4026017e-02   8.6538685e-02  -4.4825265e-01  -6.6203174e-01  -4.2390527e-02   5.1936558e-01   1.9375950e-01   8.0502225e-01  -8.9748164e-01  -2.6858641e-01   1.5832049e-01   7.8007023e-01   3.9769168e-02   3.0258765e-01   8.3183036e-01   3.1627288e-01   9.2828829e-01   7.7757753e-02  -9.9229857e-02  -7.7286078e-01  -2.4014767e-01   7.0468181e-02   1.3688731e-02   2.8024349e-02  -8.7301351e-01  -3.2404246e-01   1.6328761e-01   9.9743894e-01  -9.4295419e-01  -9.6471952e-01  -7.3936683e-01  -8.1461675e-01   2.9310460e-01  -1.4129979e-01   5.4432005e-02  -6.7116640e-01  -1.0939148e-01  -7.0421390e-01  -2.4829619e-01  -7.9987383e-01   5.1465530e-01  -5.8773439e-01   7.0617683e-01   2.3038407e-01   9.6545006e-01   5.3213509e-01   4.6223601e-01   5.4878645e-03   2.6167012e-01   4.0662814e-01  -8.2180796e-01   4.4156305e-02  -9.3014205e-01   1.6450169e-01   8.5882547e-02   7.0407500e-02   3.4111168e-01  -6.8461838e-01   5.3356339e-01  -8.4774839e-01   6.2531296e-02   3.4421541e-01  -4.6483854e-01   2.3789250e-01  -2.1480195e-01   4.1385021e-01  -2.2388091e-01  -8.3937653e-01  -3.1950322e-01  -1.6526506e-01  -9.7380264e-02   3.7446811e-01  -4.8950236e-01  -6.6313018e-01   5.2069339e-01   6.3696114e-01  -3.6456921e-02  -1.3489408e-01   1.3229144e-02  -2.5791936e-01  -1.5481510e-01   8.0732903e-01  -4.6871066e-01  -3.1214592e-01   7.2343799e-01  -2.7740180e-01  -2.9515562e-01  -1.5418879e-01   3.8963367e-01  -5.3685708e-01  -1.7041075e-01   4.2720481e-01  -8.2067405e-01   4.3181222e-01  -3.4407751e-01  -2.1911240e-01   8.7708995e-01   1.5029251e-01   6.7052340e-02  -5.5536479e-01  -3.3597014e-01   2.6383463e-01  -9.0797070e-01   1.9408829e-01  -7.3255741e-01   1.2706772e-01   4.6922295e-01   1.6689525e-01  -9.6596521e-01   2.9430682e-02   3.4499468e-01   6.8112319e-01   4.0727994e-01  -9.4224872e-01  -4.8854821e-01   2.3624200e-01   7.1798101e-01   3.1378827e-01  -7.3353219e-02  -9.3981866e-01   1.2308857e-01  -4.4266805e-01   7.5632023e-01   5.9786869e-01  -3.4607615e-01   3.9814847e-01  -4.7741405e-01   8.1959279e-01  -1.6704234e-01   6.5863827e-01  -7.8123793e-01  -1.4042493e-01   1.7214664e-01   3.7379152e-02   4.4981547e-01   8.4140078e-01   7.1474386e-01  -5.4283248e-01  -2.9870107e-02  -2.7815790e-01   9.6278368e-01  -5.2869600e-01  -1.9479475e-01  -7.4240146e-01  -5.4774393e-01  -5.5774857e-01  -3.4089474e-01   1.6878662e-01  -8.5528711e-01   5.8167332e-01   3.6987385e-01  -1.6735839e-01  -6.7767928e-01  -3.5174742e-01   6.8722696e-01  -7.7283271e-01   3.8278038e-01  -5.4889979e-01   2.5376843e-01  -8.1007180e-01   2.2077624e-01   3.8019993e-01   9.9307782e-02   2.9832057e-01   9.7025128e-01   5.9035722e-01   1.1303727e-01   2.7193155e-01   5.0018539e-01   1.3907669e-01   2.4131213e-01   5.9210651e-01   6.0734961e-01  -4.1299548e-01  -6.2418724e-01   7.0597777e-02   8.9584250e-01  -5.1063930e-01  -2.5326323e-01   9.7431399e-01   4.7845043e-01   2.4303456e-01  -8.3533490e-01  -6.4109178e-01   2.7702029e-01   3.4417376e-01   7.5747136e-01   2.2315332e-01   2.9874656e-01   9.9460322e-01   7.0500564e-01  -2.9445852e-01  -6.3142745e-01   8.8214722e-01   8.2875310e-02   7.0514173e-01  -2.6120164e-01   2.9337746e-01  -2.4939627e-01  -8.7096544e-01   6.5577460e-01  -6.8153244e-01  -3.4799503e-01  -9.6679514e-01   1.1845949e-01  -2.6004081e-01  -2.1296110e-01   9.1829088e-01  -7.6800045e-01  -1.5641965e-01   9.6110833e-01   7.4960231e-01  -9.7215616e-01  -1.7155555e-01  -1.3624042e-01  -9.3486059e-01  -5.4086803e-03  -6.8475242e-01  -4.7742343e-01   8.0585913e-01  -1.7634892e-01  -6.8668640e-01   4.2040129e-01  -8.2892034e-01  -7.0448368e-01   6.2284409e-01   1.1656837e-01   8.8252175e-01   5.2981566e-03  -1.4850762e-01  -9.0863528e-01   5.5897065e-01   2.7290459e-01  -6.9224922e-01   2.5456509e-01  -7.4605658e-02   7.8755232e-02   7.7775991e-01  -3.0043324e-01  -8.3506341e-02   4.8648815e-02  -8.6310299e-01  -9.3406057e-02  -1.9756012e-01   5.5691202e-01   3.2390355e-01   7.6891585e-01  -8.5642465e-01  -6.2165503e-01  -8.8730609e-01  -7.3827844e-01  -1.0581510e-01  -4.7179611e-01   7.4711262e-01   8.6833061e-01  -3.4857261e-02  -5.7371566e-01   2.6871512e-01   4.5371215e-02   4.6030702e-01  -3.7454980e-01  -5.2470780e-01  -1.1600870e-01   2.0072961e-01  -5.8416289e-01  -3.8046453e-01  -9.1954272e-01  -3.1698381e-01   8.6687350e-01   4.7510093e-02   5.6784244e-01   5.6652137e-01   5.1586353e-01  -7.7790473e-01  -3.3739608e-02   7.3375389e-01   2.5010351e-01   3.2579746e-03  -3.6907337e-01   2.2922818e-01  -3.7894509e-01  -8.8186471e-01   3.5071403e-01   3.3115542e-01   5.8651479e-01  -9.3002104e-01  -7.7569093e-01   1.2399157e-01  -4.0230486e-01  -8.7745716e-01  -1.5394805e-01  -5.3617498e-03   2.5974590e-01  -9.3154106e-01  -1.7081241e-01   7.9412754e-01  -4.4491885e-01   2.4850076e-02  -9.6024620e-01  -1.2370842e-01   6.2547436e-03  -6.3652827e-01   6.5937719e-02   7.8611780e-01  -1.2442844e-01  -6.5333514e-01  -6.2558185e-01  -1.1219501e-01  -7.2142983e-01  -8.7409429e-02  -8.0881571e-01   3.2046383e-01   6.2567965e-01   6.8494635e-01  -3.0448432e-01  -8.7373948e-01   3.4916631e-01   1.9811554e-01   7.1549447e-01   3.9995368e-01  -9.3853587e-02   1.7248115e-03  -1.7260309e-01   4.6658209e-01  -4.4342281e-01   2.1074201e-01  -8.3955073e-01   5.6798436e-01  -3.3360992e-01  -8.7319110e-01   2.2146105e-01  -9.3517385e-01   5.5600124e-01   5.6110070e-01  -5.7784805e-01  -4.9825392e-01  -3.0042745e-01  -2.3736142e-01  -8.5084661e-01  -4.4424217e-01   3.5947426e-01
   9.9945951e-01   1.8809802e-01  -1.0445875e-02  -8.3753107e-01   7.8831254e-01   2.9799904e-01  -5.9875649e-01   1.7117018e-01   6.7899066e-02  -2.6841429e-01   9.8343967e-01   2.9355890e-02  -7.7375528e-01  -5.4071512e-01  -6.6096748e-01  -5.3613936e-01   8.1635801e-01  -6.9556116e-01  -3.0950177e-02   1.1499123e-01   4.8618058e-01  -1.1373367e-01   6.0718678e-01   2.8236117e-01  -9.9040636e-01  -2.4628272e-01  -4.0380330e-01   4.2407355e-01  -9.8666785e-02  -6.8178315e-01   4.0168013e-01   6.3087288e-01  -9.2066992e-01  -7.6031842e-01  -4.6068234e-01  -2.6569588e-01  -2.3699922e-01   2.9920274e-01  -7.0167251e-01   4.5559503e-01  -8.2394557e-01  -3.1384282e-01   1.1219595e-01  -9.5596676e-01   2.3179101e-01  -5.6182755e-01  -7.0947312e-01   6.9727045e-01   4.8426947e-02  -7.3470406e-01  -7.0489151e-02   2.7945428e-01  -2.1624121e-01   7.2984528e-01   1.3517924e-01  -1.2288474e-01  -3.5013303e-01   4.2933159e-01   4.6277079e-01   7.1315689e-01   4.3565723e-01  -3.8107757e-01   9.2575276e-01   7.3361258e-01   6.7495380e-01   6.0082500e-01   7.3395527e-01   9.1487261e-01   9.3148991e-02  -5.3622243e-01  -3.1521482e-01  -1.2004285e-01  -5.6352522e-01   5.7821085e-01   5.1713533e-01   6.0904447e-01  -6.2380982e-01   6.4336712e-01   2.5290554e-01  -9.0408231e-01  -4.0824101e-01  -5.1583703e-01  -5.5690289e-01  -3.3772436e-01  -1.0350662e-01   3.0876621e-01  -5.9754765e-01   5.1848928e-01   1.9970590e-02   3.5205310e-01   5.5977314e-02   6.3099665e-01   9.4561426e-02  -3.5769105e-01   7.6889742e-02  -3.5265974e-01   3.4534324e-01  -8.9730823e-01   4.2624348e-01   3.1988521e-01  -6.3486304e-01   6.1325575e-01  -7.0243842e-01   6.7744400e-01   2.2798468e-02  -1.4350017e-01   7.1935536e-01  -1.9930623e-01   9.0892715e-01   8.0586942e-01  -3.5796746e-01  -7.7766118e-01  -3.8052247e-01  -8.1334284e-01  -3.2611916e-01  -1.8164869e-01   4.1992165e-01   2.2280598e-01  -5.1609686e-01   8.7944736e-01   3.3991319e-01   6.8880649e-02   9.4645851e-01   7.0270876e-01  -5.3879610e-01   2.2009661e-01  -6.0539028e-01  -9.2784845e-01  -1.7149617e-01   3.0906500e-01   4.1806768e-01  -6.3283409e-01  -4.0033625e-02  -8.0002967e-01   3.5483378e-01   2.1578195e-01   6.6311271e-01   4.2218653e-01  -7.4272993e-01  -9.9017595e-01   4.4699334e-01   5.5190078e-01   7.6842658e-01   7.6538900e-01   2.8928621e-01  -4.0158284e-01   3.8296684e-01   1.6669335e-01   9.2538374e-01   3.6888734e-02  -9.2420832e-01   3.6385730e-02   2.8559251e-01  -7.9161895e-02  -4.5048347e-01   2.8114791e-01   5.7909908e-01   2.2887152e-03  -1.1239426e-01  -7.3416563e-01   1.2203252e-01   7.0571169e-01  -6.9882741e-01   4.6589046e-01   4.7114496e-01   1.3759743e-01  -7.7437796e-01   3.1785434e-01  -5.9648804e-01   2.6907428e-01   5.5575370e-01   9.9333807e-02  -7.0406475e-01   4.3622383e-02  -8.3297239e-01  -8.0341158e-01  -8.9538104e-01   5.1602603e-01  -7.1985856e-01   2.8140978e-01   5.2309879e-01   8.5583887e-01  -4.9828478e-01  -7.7878902e-01   5.5752128e-01   1.6053182e-01   9.3115371e-01   7.0668670e-01   1.6227667e-01   9.9870701e-01  -8.7731456e-01  -5.1806458e-01   8.3046801e-01   9.1744420e-01   9.2945399e-01   5.4908945e-01  -5.7135403e-01  -8.9421812e-01  -6.6454311e-01  -3.3571238e-02   3.1428004e-01  -7.1261735e-01  -6.4228179e-01   7.1990891e-01   9.2688118e-01  -6.2427201e-01   6.5281556e-01   9.3495979e-01   8.4576165e-01  -7.5419406e-01  -9.5708789e-01  -7.7323865e-01  -8.3054650e-02   1.3935778e-01   1.6018539e-02  -8.9442947e-01   1.3413111e-01   1.1264988e-01   9.9271607e-01   7.8970614e-01   1.5809282e-01   3.8049082e-01  -8.4772065e-01   4.1118198e-01   9.7388403e-01   1.7652458e-01   7.0920725e-01  -7.1759285e-01   7.7196624e-01   8.1848195e-01   6.2923059e-02  -9.4561834e-02  -5.0329129e-01  -4.7969866e-01   6.2784188e-01  -7.0919620e-01  -6.8669502e-01   8.6160197e-01  -2.4257939e-01   4.4518906e-01  -2.2945819e-01  -7.0338092e-02   4.1668121e-01  -1.3389681e-01  -8.7254159e-01  -2.9198923e-01   8.9612662e-01  -4.3357393e-01   8.2152384e-01   5.7808166e-01  -7.1874347e-01   7.6555942e-01   1.1645123e-01   3.5569914e-01   6.4859280e-01   2.4396516e-02  -8.9228259e-01   7.3923884e-01  -3.3564474e-01  -2.1625497e-01   9.5424612e-01   7.0469618e-01  -2.2901801e-01  -9.2419393e-01  -2.8714189e-01  -9.6805040e-01   8.1367789e-01  -7.6564904e-01   6.3681051e-01   9.7941404e-01   3.0354989e-01  -2.3511775e-01   7.1489779e-01   7.3806161e-01  -8.0739261e-02  -8.8282384e-01  -8.1101179e-01  -4.0579989e-01   1.6885323e-01  -5.0930699e-01   8.2162276e-01  -3.3206533e-01  -8.7679638e-01   1.2030310e-01   3.5298869e-02  -1.0758859e-01   7.9811220e-01  -6.1143719e-01  -8.1823814e-01   7.9438331e-01   5.3979794e-01   9.9426987e-01  -2.2136424e-01   9.1026772e-01   3.3028071e-01  -1.7986437e-02  -4.0785378e-01   1.6688917e-01  -4.2437375e-01   5.9190611e-01   3.2439458e-01   2.6053494e-01  -9.3895140e-01   6.7638231e-02   9.5847081e-01  -7.4449303e-01   3.1252603e-01   3.9612065e-01  -1.4453098e-01  -9.6934494e-01  -9.3494733e-01  -8.0055306e-01   3.7447590e-01  -5.5845361e-01   5.6044203e-01  -6.6851991e-01   3.5043879e-01   9.3210103e-01   7.7597015e-01   9.1422017e-01  -6.3810964e-01   7.0485619e-01  -9.9710224e-01  -2.4079369e-03   1.3489117e-02  -9.9193456e-01   6.9035010e-01   4.8924457e-01   7.0231988e-02  -1.5072336e-01  -7.5473777e-01   1.9112162e-01  -1.3184672e-01  -4.2459065e-01  -2.3730805e-01  -2.3485488e-01  -5.9060951e-01   7.5258228e-01   5.5072080e-01  -8.7812499e-01   2.1592217e-01   8.6800361e-02   2.3975787e-01  -9.2957334e-01   3.1966088e-01   8.5532652e-01  -8.8310600e-01  -3.4505810e-01   3.3169359e-01  -1.2001870e-01   8.2460616e-01   7.1281178e-01  -9.3061048e-01   6.4954973e-01  -8.4318129e-01  -8.5688336e-01  -4.3403073e-01   4.8186870e-01  -4.2600098e-01  -3.5035301e-01   7.7578083e-01   8.0396837e-01   1.1011694e-01  -5.1471205e-01   4.0870890e-01  -6.2429771e-01  -8.3893082e-01  -4.0605001e-01   9.7534726e-01   9.8701345e-01   9.1977601e-01   4.0515878e-01  -3.7178030e-01  -6.3778873e-02   6.5250522e-01  -5.1644538e-01   5.8803451e-01   6.8576067e-01   5.2850938e-01   2.4856525e-01  -1.3570298e-01  -5.5320872e-01   3.8336713e-01   5.3692314e-01  -8.3973342e-01   8.0602763e-01   5.5695188e-02   4.0727044e-01  -4.7404243e-01  -1.9142160e-01   8.2319227e-01  -7.2609456e-01  -5.1016969e-01  -6.7981819e-01  -2.0687429e-01  -6.0006503e-01   7.7616084e-02  -8.8924868e-01   8.3057164e-01  -6.2569016e-01  -3.1343168e-01  -9.7700432e-01   7.6819127e-02  -9.7386411e-01  -8.0108095e-01   5.7458394e-01   5.8333420e-01   1.5370057e-01   8.7782767e-01  -2.9656492e-01   2.6607223e-01  -3.0393429e-01  -7.1102357e-01  -7.6331416e-01  -9.9591830e-01   8.9965456e-01   7.6560921e-01  -4.5528977e-02  -6.9087986e-01   1.2981800e-01  -2.1639424e-01   5.6777795e-01   6.6599490e-01   9.5988585e-01  -6.0162062e-01  -2.6783790e-01  -7.3895138e-01  -7.1377069e-01  -5.3234854e-01   7.1939785e-02   3.0022237e-01  -2.3414801e-01  -3.6011648e-02   2.6129483e-01  -9.1239947e-01  -6.2857395e-02  -7.0685348e-01   1.3079921e-02   2.8833900e-01  -2.4574552e-01  -7.9240808e-01  -7.5387186e-01   4.6816791e-01  -2.2758124e-01  -2.1541342e-01  -3.3057709e-01   5.4620091e-01   9.5689944e-01  -9.1540965e-01   9.3294532e-01  -2.7896671e-01  -2.7327348e-01  -1.1735999e-01  -8.3345264e-01   9.8120917e-01   3.1929936e-01  -9.2178626e-01  -5.5763841e-01   4.5688780e-01   8.1740191e-01   3.1622539e-01   6.8639415e-01  -7.4465268e-02   4.5678092e-01  -4.8706343e-01  -9.4000395e-01  -1.0528711e-01  -8.5144279e-01  -1.0469001e-01  -3.7798864e-01   4.6074189e-01  -7.9217940e-01   8.4975686e-01  -1.9715883e-02   6.7456954e-01  -2.6755101e-02  -1.0667884e-01   4.9528575e-01  -1.6287595e-01  -8.6048856e-01  -4.0206635e-01   2.7904450e-01  -6.0026294e-01  -7.7142059e-02   3.8516601e-01  -6.9069202e-01  -3.4987853e-01   5.8036156e-01  -1.9091173e-01   4.9584047e-01   5.6332270e-01   2.1596469e-01  -4.7644402e-01   9.1941772e-01   7.8210566e-01  -6.8810181e-01   8.1397795e-01  -7.0278407e-01  -2.3836554e-02  -9.2649623e-01   5.2946647e-01  -8.1330503e-01   9.9204749e-01   4.1724167e-01   4.2395824e-01  -9.8154798e-01  -4.8215655e-01   7.4769501e-01   4.0118002e-01   8.7739685e-01  -5.8370484e-01   1.9552631e-01   2.6698157e-01   6.1127094e-01   4.6990673e-01   3.9789380e-01  -9.4924299e-01   7.9082593e-01  -3.2899463e-01   2.8745554e-01   2.9845033e-01   5.2952220e-01   1.8455188e-01  -3.4008984e-01  -4.2563661e-01   4.4466203e-01  -8.1333038e-01   3.3715325e-02  -3.5586534e-01  -3.3246519e-01   8.2164244e-01   2.2641927e-01  -6.2423771e-01  -5.1533928e-01   6.1899619e-01   3.0741618e-01   1.3490763e-01   9.4656524e-01  -5.0476166e-01  -6.3053216e-01   3.2965196e-02   2.7732455e-01  -5.9812412e-01   8.0003915e-02   8.3362978e-02  -9.3374426e-01  -5.1314910e-01   5.9910554e-01  -2.1998542e-01   9.7710254e-01   4.5320884e-01   8.3744472e-01  -3.1700715e-01  -7.2239995e-01  -8.4025905e-01  -7.8745092e-03  -7.2463564e-01  -2.5136402e-01   3.6814819e-01  -3.6520005e-01   2.7487848e-01  -6.4127919e-01  -8.2520448e-01  -6.2533317e-01  -8.1465539e-01   8.6358414e-01  -6.3812558e-01   7.1551574e-01   6.1759443e-01   2.9777577e-01   1.0785952e-01   9.3972291e-01   3.2324451e-01  -8.7412227e-01  -4.7144675e-01  -5.4325186e-01  -9.2011458e-01   9.5860682e-01  -9.0387619e-02   4.0584883e-01  -4.3174903e-01   5.3065921e-01  -8.4568974e-01  -4.9017716e-01   3.3226538e-01  -2.4536699e-01  -4.7750610e-02  -1.8572094e-01   4.2474731e-01   7.8608003e-01   6.1898754e-01   7.4463354e-01  -8.9955572e-01   4.2749164e-02  -8.4453901e-02   3.1860737e-01   5.6133745e-01  -6.0100506e-01   2.5599241e-01  -1.4249246e-01  -6.1077156e-01   3.0705061e-01  -5.5198254e-01   8.8907521e-01   1.4584068e-01   1.8076859e-01  -7.0895945e-01  -2.2899504e-01  -2.3589778e-01  -2.1161530e-01   7.7283077e-01   7.1335229e-02   3.7465428e-02   1.9371750e-02   5.0525660e-01  -7.1205749e-02  -4.2310220e-01   6.6905819e-01   7.7562233e-01  -8.5569857e-01  -9.5985321e-01   4.8426686e-01   9.3479540e-01  -5.1538200e-01   1.4732639e-01   6.5867145e-01  -7.6675861e-01  -8.2588592e-01   1.0349785e-01  -2.1419531e-01   9.6583459e-01   6.1545487e-01   6.0677802e-01   6.7455419e-01   3.2948678e-01   7.6164455e-01   9.1687981e-01  -1.2564611e-01  -1.5011335e-02   1.0322185e-01  -8.8752094e-01   6.2629112e-01   6.0387540e-01   1.4469923e-02   8.5379780e-01  -1.8652495e-01  -2.0721956e-02  -8.1796514e-01   9.9963041e-01  -7.7300136e-01  -7.4816739e-01   5.9834389e-01  -8.0714334e-01   8.3919483e-01  -1.9258764e-01   2.2324013e-02  -4.8553913e-01  -8.8965306e-01  -2.5590819e-02  -3.1752006e-01   9.9467342e-01  -3.0690203e-02  -1.9361055e-01   3.9164349e-01  -3.8802813e-01  -9.6604650e-02  -1.0128768e-01  -8.7586199e-01   5.1710936e-01  -9.6962311e-01  -8.0412620e-01  -4.3422431e-01  -6.9275888e-01  -7.4467893e-02  -3.3775221e-01  -9.7273522e-01  -3.9428754e-01  -1.7657212e-01   9.5257090e-01  -8.8578446e-01  -6.8791947e-01   6.9606041e-01   6.5415588e-01   3.9633692e-01  -7.4908548e-01  -7.1822972e-02   2.2149613e-01  -5.1087493e-01   5.1041013e-01  -7.7357373e-01  -4.0553082e-01  -8.8634969e-01  -4.4552118e-01  -7.5466150e-01  -8.3187362e-02  -6.0679848e-01   5.5834712e-01  -7.7099854e-01  -9.4588761e-01  -6.9067264e-01   1.6662249e-01  -5.3911923e-01  -8.2825177e-01  -4.4241159e-01   3.9252038e-01   7.8478494e-01   3.5232474e-01   2.2352182e-01   8.5883666e-01  -7.4971838e-01   9.9428380e-01   5.0725155e-01  -2.3260276e-01   2.2365325e-01  -8.2025096e-01   3.3932902e-01  -6.7951466e-01   5.8699245e-01   2.4791557e-01   2.7172330e-01   1.6297906e-02  -7.2791342e-01  -7.5364209e-01  -4.3305758e-01   2.2127320e-01  -4.0261175e-02  -7.1261995e-01   2.9521510e-01   3.5255767e-01  -7.9397045e-01  -4.7353269e-01   4.6285229e-01   3.7323876e-01  -2.4992703e-01  -2.1659137e-01  -7.5231249e-01   5.1357203e-01  -2.8237672e-01  -6.9851598e-01  -6.7404197e-02  -2.1219708e-02  -7.7747312e-01   7.3747616e-01   1.4116126e-01  -8.0251143e-01  -2.9297402e-01   8.3127823e-01   6.3361043e-01  -4.1496435e-01   1.2273142e-02   5.3333324e-01   7.9799543e-01   9.7032925e-01   2.9991755e-02  -5.0254312e-01   9.0063672e-01   9.2328722e-01  -4.5875411e-01  -2.7472333e-01  -2.5544765e-01   4.9231600e-01  -1.8004418e-01   8.6364681e-01  -3.8514405e-01   8.5003256e-01   7.3594953e-01   8.9826637e-01  -6.2059169e-01   3.6528500e-01   2.8647403e-02  -2.5970789e-01   9.4522805e-01   7.3719617e-01  -6.8061854e-01   1.7310621e-01  -6.8284789e-01  -6.5076172e-01  -1.3278012e-01  -7.6769698e-01  -2.3765003e-01  -4.6675790e-02   8.8568920e-01  -3.4582944e-02   8.4230489e-01   5.6778317e-01  -2.9776474e-01   4.8733055e-02   9.7754100e-01  -5.8452015e-01   7.8865421e-02   6.0749799e-01  -7.5896186e-01  -1.0726093e-01  -4.5488860e-01  -8.1269890e-01  -2.3632891e-01   1.2605034e-01   8.0663564e-01   3.1467561e-01  -9.2873505e-01  -3.3363278e-01  -6.0767687e-01  -7.3186134e-01   5.7666696e-01  -6.4725074e-01   8.0995846e-01   5.0013953e-01  -6.6497421e-01   5.3379204e-01   6.0529434e-01  -1.3478615e-01  -5.1771766e-01  -2.1297874e-01   6.7772564e-01  -4.5991660e-03  -2.5249620e-01   1.2776414e-01   8.3946642e-02   4.1266349e-01  -1.9728662e-01   7.0155068e-01  -6.4619048e-01  -5.8420516e-01  -9.1139038e-01   9.8154770e-01  -9.6384417e-01   5.0423205e-01  -5.5702111e-01   2.3474355e-01   6.1555256e-01   2.8038268e-01   8.1614786e-01   1.8963111e-01   1.4235452e-01   6.4301830e-01  -3.5059058e-01  -1.5236344e-01  -6.4259209e-01   5.0800932e-01   9.8287862e-02  -4.2721794e-01   9.1379946e-01  -5.1706623e-02   2.6372398e-01   9.4151729e-01   2.6424014e-01  -2.9403590e-02  -5.1422169e-01   3.0444100e-01  -2.7755786e-01   4.7759625e-02  -4.6337001e-01  -1.6291246e-01   5.0252750e-02   3.4146018e-02   1.8899746e-01   9.3504637e-01   7.4756061e-01   4.7862995e-02   1.1866867e-02  -5.1015121e-01  -1.7050743e-01   2.1842052e-01  -6.0909086e-01  -4.2689766e-01   6.7816012e-01  -7.5284997e-01  -8.5470050e-01   3.6415599e-01   9.3702550e-01   8.0978635e-01   4.3947841e-01  -5.5953945e-01  -9.6829838e-01  -4.3761151e-02  -5.1462099e-01  -7.2119761e-01  -2.7914706e-01   6.5625969e-01  -2.1765816e-01   3.8056896e-02   8.3917328e-02  -2.3133629e-02   7.7812000e-01   4.5130450e-01  -8.7270556e-01  -1.5922398e-01   7.1434336e-01  -8.8201037e-01   2.2623348e-01  -8.1815379e-01  -8.6132942e-02   1.8774848e-01   3.0670534e-01  -2.3212174e-01  -1.8239384e-01  -4.3777398e-01  -3.0998306e-01   9.6850643e-01  -4.2199525e-01  -8.9902328e-01   8.2794267e-02   2.5597075e-01  -9.3695218e-01  -8.7593863e-01  -5.9188445e-01   7.0834671e-01  -7.9489165e-01  -3.1288658e-01   2.0135629e-01   1.7506045e-01   4.7031146e-01   4.1710174e-01  -5.2339492e-01  -5.6125255e-01  -7.0728912e-01   9.7620771e-01   6.4182889e-01   2.8977450e-01   2.2711296e-01   8.7096145e-01   8.4452168e-01   5.4977205e-02   4.0403742e-01   2.7121945e-01   7.1245350e-01  -8.4528341e-01  -6.3221573e-01   5.6364548e-01  -7.9167018e-01  -4.0824656e-01  -7.3874630e-01   5.9188837e-01  -7.7966345e-01   8.1199881e-02   9.9182215e-01  -2.7504968e-01  -9.5044001e-01  -1.5086353e-02   2.2090331e-01  -9.5543109e-01   5.1779748e-01  -5.5910649e-01   3.7723304e-01   7.4130038e-01   3.3006173e-01  -6.7011421e-01  -7.3079312e-01  -6.3721596e-01  -6.7285026e-01  -7.2341247e-01  -9.0986544e-01  -1.6832445e-01   6.7166643e-01  -4.2673688e-02   9.5817046e-01  -7.3505817e-01   1.4337877e-01   1.6387568e-01  -7.7600628e-01   1.0225615e-01   7.5367844e-01   3.4838724e-01   8.4943916e-01   7.8925817e-01  -7.4647257e-01  -7.6856836e-01   6.6311683e-01   9.3078155e-01   6.6072284e-01   1.9100589e-01  -5.7048329e-01  -6.2953339e-01  -8.5500654e-01  -6.8966370e-01   9.9122526e-01  -5.7295194e-01  -6.5808741e-01  -8.3944819e-01   3.8827478e-01   1.2190067e-01  -4.8455557e-02   5.2520064e-01  -3.2576317e-01   5.1205198e-01  -3.8425209e-01   4.1582893e-01   6.5170511e-01   3.9200351e-01  -8.8288301e-01   2.5414879e-01  -3.2977122e-01  -3.4405741e-01   6.1440500e-01   5.1434459e-01   3.2207630e-01   5.9668197e-01   3.8473098e-01   1.8371269e-01   4.3915764e-01
