   8.1011667e-01   3.4718948e-01  -6.9330276e-01  -1.3197958e-01   1.5561090e-01   5.3203637e-01  -8.6405057e-01   8.5989491e-01  -7.5722038e-01  -4.5651031e-01  -2.8002604e-01  -1.3050710e-01   8.8761248e-01  -2.8650881e-01  -3.7124570e-01   7.9410489e-01   4.3361671e-01   4.7356106e-01   7.5050668e-01  -8.5365003e-01   7.6471973e-01   3.7368783e-01  -7.6558512e-01  -4.4560035e-01   6.8381771e-01   4.8180988e-01   1.6833681e-01   1.5613489e-01  -1.3946736e-01   5.5113612e-01  -7.2149406e-01   2.3914004e-01   3.1756103e-02   2.2394537e-01   6.7148872e-01   7.6343103e-01  -9.7577040e-01   2.6479731e-01   9.2878400e-01   1.1304299e-01  -6.7816318e-01  -5.9041204e-01   2.7034050e-01   2.7182668e-01  -9.5055846e-01   8.8573318e-01  -3.7501085e-01  -2.8514235e-01   7.2608705e-01  -3.1624841e-01   1.4498630e-01  -4.8563395e-01  -3.0842166e-01  -2.3269505e-01  -9.1027833e-03  -7.6880399e-01  -2.4378487e-02   2.1639966e-01   7.2782477e-01  -6.7514099e-01  -9.8083011e-01   9.0308162e-01  -6.0505355e-01  -7.3081140e-02   3.0925678e-01  -9.0046293e-01   7.5953205e-01  -1.0375685e-01  -6.3445351e-01  -9.4456462e-01   8.7869113e-01   4.1843777e-01  -1.5295844e-01   9.9432714e-01   5.3052595e-01   5.9638460e-01  -5.5346494e-01   2.7759321e-01  -9.4152626e-01  -8.2424716e-01  -4.1442068e-01   1.2948637e-01   8.3907484e-01   9.9476192e-02   6.3594071e-01   3.3640865e-01  -2.4386997e-02   1.9893525e-01   2.6944359e-02   1.5771613e-01   9.4501936e-01  -8.3123351e-01  -4.7117264e-01   3.3238321e-01  -3.8260635e-01  -5.1772182e-01   3.0029100e-01  -4.1821911e-01   1.4436419e-01   5.6302763e-01  -2.6265218e-01  -5.2851961e-01   8.1254143e-01  -1.4511770e-02  -7.6678953e-01   1.6394517e-01  -5.1219195e-01  -1.0769187e-01  -2.5510784e-02  -9.6875519e-01   1.9013934e-02   9.7541908e-01  -1.3434343e-01   6.2644028e-01  -7.8732401e-01   3.1539837e-01   2.9040223e-01   6.5402816e-01   6.7008087e-01   1.3444008e-01  -2.0591275e-01   1.0629357e-01  -5.0609638e-01   7.0878318e-01   4.1893357e-01  -5.5048357e-01  -3.0020042e-01  -4.5611864e-01   9.5028280e-01  -9.0820209e-01   8.7068464e-01  -2.9460810e-01   7.0118468e-01   3.7942109e-01  -8.7649356e-01  -5.3333293e-01   7.8516084e-01  -8.3847494e-02   2.4491542e-01  -1.4971319e-02  -9.7040154e-01   4.0140945e-02   7.0169620e-01   7.3306404e-01  -6.9462063e-01  -9.2342122e-01  -5.9787561e-01  -5.0235619e-01   7.6395643e-01   8.7268597e-01  -7.1652697e-01  -9.0555699e-01  -9.0272737e-01  -2.1908646e-01   8.1885497e-01  -7.6252634e-01  -7.6494132e-01  -5.5052738e-01  -4.2284580e-01  -9.3809562e-01   6.9382504e-01   9.5992831e-01   3.6600893e-01   3.7420413e-02  -3.3301655e-01   6.9893753e-01  -3.6454834e-01  -4.5812563e-01  -4.3626963e-01   8.7267206e-01   5.4745942e-02  -8.6165450e-01   4.1357016e-01   1.5301583e-01  -2.9772222e-01  -2.0126486e-01   1.8756357e-01   8.4064050e-01  -2.3971192e-01  -9.2145940e-01  -5.6119200e-01  -9.4660676e-01  -4.8648006e-01  -4.7790193e-01  -8.6949987e-01   1.6931751e-02  -5.9645620e-03  -6.7277996e-01   4.4266723e-01   7.6784236e-01   5.0689070e-01  -2.6779291e-01   8.7274622e-01   3.3856719e-01  -2.1272240e-01   5.9671201e-01  -5.1035376e-01   7.0966285e-01   6.6289118e-01   8.5423776e-01  -6.2330758e-02  -9.3991526e-01  -6.1151258e-01  -9.6508856e-01  -5.7409655e-02   3.9178369e-02   8.3259922e-01  -2.4489645e-01  -5.2371331e-01   4.1839817e-01   3.5051509e-01   7.8497384e-01  -6.1904786e-05  -8.1830517e-01  -8.9160812e-01   4.1248979e-01   3.2321095e-01   1.7618918e-01   3.1354460e-01   4.9949657e-01   9.2390810e-01  -6.3265412e-01  -8.3342538e-01   2.4599942e-01  -3.4717433e-01  -9.4194493e-01  -1.7580622e-01   2.6137834e-01  -5.6986529e-01   1.5378847e-01   4.0297680e-01  -5.8183595e-03   3.8968875e-01   9.3162861e-01  -8.1928495e-01  -7.2495047e-01   5.2455030e-01  -3.2575949e-01   9.5367853e-01  -4.9952021e-01   4.2767413e-01  -5.3825604e-02   8.7422202e-02   3.2576489e-01   8.5426142e-01   7.4787963e-01   3.4582556e-01   9.5778461e-01  -3.1566016e-01  -7.9645689e-01  -5.4755428e-01  -3.2387469e-01   4.0932358e-01   3.9370209e-01   2.6580797e-01   2.9912388e-01  -4.2105865e-01  -4.3476046e-01  -9.2969894e-01   3.3469891e-01  -5.1398012e-01   6.7330415e-02  -8.6538170e-01   2.8621496e-01  -9.6239006e-01   8.7402908e-01  -2.7627806e-01   3.3924705e-01  -6.6631701e-01   9.4950702e-01  -8.1419004e-01   8.6211074e-01   9.9582792e-01   2.4827771e-01   5.7312919e-01  -4.1286082e-01  -8.5835085e-01  -2.3143649e-01   5.9957179e-01  -5.7204845e-01   8.1482184e-01   8.6725259e-01   7.0254749e-01  -3.4659782e-01   6.5342231e-01   5.7161756e-02  -7.5048933e-01  -4.9151236e-01  -9.6727475e-01   3.3711088e-02  -4.1605834e-01  -7.3472829e-01  -9.8578968e-01   4.8134821e-01  -9.0700448e-01   2.2004426e-01  -6.4062279e-01   7.5471184e-01   7.8843289e-01  -2.2479017e-01   2.1858292e-01   4.4176790e-01  -3.1152322e-01  -2.5429983e-02   5.2177388e-01   1.7065641e-01   3.1638840e-01   4.0055422e-02   6.3200143e-01   5.0687308e-01  -7.2309936e-01   6.5255728e-01   4.2202848e-01  -7.6291171e-01  -6.2478219e-02  -8.2830776e-02  -1.5732970e-01  -2.9517568e-01  -9.4072993e-01   7.4601195e-01   7.5911016e-01   9.3059510e-01  -2.6742454e-01  -4.6992653e-02   7.7085180e-01   9.0505135e-01   3.5444187e-01  -9.7212115e-01  -6.0241576e-01  -4.3368132e-01   5.0967312e-01  -1.7579158e-01   3.6509088e-01  -1.9954101e-01  -4.8179715e-02   1.4849720e-01  -8.9511318e-03  -3.6048826e-03   2.0808049e-01   1.8039043e-01  -8.9531305e-02  -1.0761071e-01  -6.8124812e-01  -8.2564442e-01  -1.8387407e-01  -5.8642544e-01  -1.9464429e-01   3.6977889e-01  -8.4232727e-01  -7.6698059e-01   1.0865182e-01  -7.3411966e-01   1.2616701e-01  -3.9158767e-01   2.5478386e-01   3.8169238e-01   9.8076013e-01   5.8332146e-01   9.9434625e-01  -2.3614450e-01  -1.7180765e-01   9.8147037e-01  -1.8124911e-01  -2.1106274e-01  -1.0396448e-01   9.0046968e-01  -3.5466468e-01   1.9589044e-01  -5.8108398e-01  -3.6323962e-01   2.0306653e-01  -7.5326383e-01  -2.7898116e-01   5.3392195e-01   8.2421283e-01   4.5045474e-01  -6.4503316e-01  -7.5191501e-01  -2.6212810e-01  -8.0346212e-01   1.6424435e-01  -2.9107205e-02   2.1579063e-01  -1.7952499e-01  -9.6142537e-04   5.8484415e-01  -1.4897128e-01  -8.7728935e-01  -7.3625653e-01  -6.4286673e-01   8.0432419e-01   8.8900044e-01   6.6840047e-01   1.1217887e-01  -7.7648654e-01  -5.0037414e-01   1.1969839e-02   9.6913834e-01  -3.1171712e-01   2.5535377e-01  -4.6622531e-01   5.3640648e-02   6.6249415e-01  -9.3627746e-01   9.6793297e-01   5.4917322e-01   2.9237254e-01   9.5886240e-01   1.4666779e-01   2.7233694e-01  -3.7115175e-01  -2.6227859e-01  -9.9240241e-01   6.1101086e-01  -4.0195419e-01  -7.8492469e-01   3.9350574e-01  -6.9054772e-01  -8.4963707e-01   5.5714935e-01   1.6863919e-01   8.2333088e-01   9.2692528e-01   6.0495229e-01  -7.4700575e-01  -5.4105383e-01  -5.0082364e-01   2.8640967e-01  -1.4897394e-01  -6.2686619e-02  -2.4323029e-01   5.8217186e-01   3.4509160e-02  -6.9754651e-01  -6.0379978e-01  -2.8826633e-01   7.2634897e-01   9.6851091e-01   5.2155239e-01   7.8637522e-01   1.4421822e-01   8.1720388e-01   7.3864938e-01  -1.4705915e-01   2.3890122e-01  -7.9477710e-02  -9.3017242e-02  -8.7671918e-01   4.3547690e-01  -4.1442810e-01  -5.4499943e-01   4.4397817e-01   4.5423475e-01   8.3929150e-01  -8.0452621e-01   7.3644882e-01   8.5421033e-01  -1.4365290e-01   5.2573296e-01   6.7223971e-01  -6.3469685e-01   6.5060237e-01   2.9518548e-01   8.5949643e-02   5.3509616e-01  -9.3098777e-02  -9.5243252e-01  -5.4576290e-01  -4.8449921e-01  -9.1292304e-01   3.8058152e-01   1.6622760e-01  -3.6708846e-01   1.1703548e-01   7.5897321e-01  -1.0803617e-01   7.7143337e-01   4.1851004e-01  -3.0795731e-01  -2.2060401e-01  -6.4670031e-01  -4.3875735e-01  -3.3959200e-01  -2.5444646e-01  -2.1232636e-01   1.3804022e-01   3.5422077e-01  -8.3903238e-01  -1.6416233e-01   5.7631323e-01   7.1332304e-01  -1.1989379e-01   1.2085452e-02   8.1138379e-01  -4.8825813e-01   8.5248158e-01   7.8529561e-01   9.4527081e-01   6.5812909e-01   1.0355989e-01   8.4611648e-02   3.7351099e-01   7.0916589e-01  -2.7301237e-01   4.8530199e-01  -5.6373192e-01  -9.1111408e-01  -5.8717183e-01  -3.9434075e-01   1.9076145e-01   9.9646425e-01  -3.0314217e-01  -9.4118788e-01  -9.4861170e-01  -5.3308403e-01  -8.3878742e-01   1.5050670e-01   5.4624789e-01  -9.1917690e-01   8.4750344e-01  -6.8510453e-01  -9.9520570e-02  -2.4233641e-01  -9.3235601e-02  -6.5467317e-01  -9.3940467e-01   1.9030597e-02  -8.8669252e-02   7.0958743e-01  -2.2040852e-02  -2.5624399e-01  -6.4880454e-01  -3.9594095e-01   8.5486104e-01  -5.6237554e-01   4.4395340e-02  -6.7740864e-01   6.2173928e-01   4.9586265e-02  -3.8143030e-01  -2.5742875e-01  -1.2754727e-02   3.9692023e-01   3.0793060e-01   6.8054977e-01  -2.0451945e-01  -8.9621509e-02   2.5222484e-01  -5.8426046e-01  -6.8417065e-01  -7.5950970e-01   8.3228292e-01  -9.4298286e-01   1.6594055e-01   1.5152005e-01  -4.9038745e-01   9.3899564e-01  -7.4841413e-01   1.3805048e-03  -4.4933347e-01   1.2382775e-01   2.8612492e-01  -5.6979908e-01   4.1450252e-01   8.7916780e-01  -1.4972763e-02  -3.1497272e-01  -3.9457136e-01   4.4298347e-01  -7.5025062e-01   7.3893272e-01  -3.2812533e-01  -3.6963956e-01  -2.0265077e-01   4.0491666e-01  -9.4089390e-01  -9.3696312e-01  -5.7510362e-01   6.9083215e-01  -6.7241842e-03  -8.2887852e-01   7.4962910e-01   3.4967659e-02  -9.6803428e-01  -3.5041881e-01  -9.4590046e-01  -4.4098102e-01  -6.1708515e-01   2.9145358e-01   8.9976274e-01  -3.5779516e-01   7.0942695e-01   8.0587224e-02  -2.9706383e-01   8.2083775e-01   9.8514611e-01  -5.1541704e-01  -4.9677113e-01  -8.6884176e-01  -4.4808827e-01   4.6846877e-02   1.5679479e-01  -2.2406592e-01   1.1193106e-01   5.7191898e-01   6.4607782e-02  -1.5907865e-01  -5.2378725e-01  -5.7285706e-01   4.2974603e-01   9.9711780e-02   7.1594840e-01   1.5692568e-01  -2.5244377e-01   7.3473195e-01  -7.4333782e-01   1.9444972e-01  -1.7571754e-01  -5.9364199e-01  -1.2494624e-01   9.8164388e-01   5.2630216e-01  -4.5517683e-01   7.8968253e-01   8.2056684e-01   7.4233612e-01   8.0600545e-01  -8.7488402e-01   7.5240834e-01   7.8052339e-01  -6.8167820e-01   8.5638277e-01   1.3465164e-01  -4.7277646e-01   7.1356604e-01   3.6761844e-01   3.1768042e-01  -5.0179502e-02  -9.4965087e-01  -8.2471875e-01  -9.7747663e-01   6.2882918e-02  -2.9491485e-01  -7.5559951e-01  -9.8595120e-01  -2.8673724e-01   7.7769209e-01  -5.8843340e-01  -3.5168034e-01  -3.4386566e-01   2.5258830e-01   5.4356458e-01   7.7418489e-01  -2.1358311e-01   6.7421540e-02  -3.6862200e-01  -5.7574312e-01   4.6785454e-01  -4.3393681e-02   4.7647607e-01  -3.4879890e-01  -4.6456235e-01  -3.5304916e-01  -7.7292802e-01   4.6121730e-01   9.8181355e-01   3.9317297e-01   3.8080894e-01   3.3846630e-02  -6.5001538e-01  -2.7817393e-01  -1.2748172e-01  -6.1556993e-01   2.8470992e-01  -8.2283871e-01   3.4466279e-02   5.2230550e-01   5.1950734e-01  -8.4889192e-01   2.5736812e-01   7.1933300e-01   6.8578594e-01   9.6094905e-01   1.9351085e-01   9.5553775e-01  -4.9010818e-01  -4.0124740e-01  -4.7600039e-01  -6.0330585e-01  -3.2674961e-01   9.4991672e-01   5.9619971e-01  -5.6905431e-01   8.0979781e-01   9.4678823e-01  -6.4975812e-01   1.6113953e-01  -7.1707031e-01   8.4371210e-01   1.8824051e-01   5.8137617e-01   9.4377529e-01   8.8403127e-01   4.4169192e-01   7.3993448e-01   6.0473971e-01  -9.6536179e-01  -1.8291029e-01   8.8216165e-01  -9.9677491e-01   3.3462015e-02  -3.0566250e-01   7.1656138e-01  -5.8429677e-01  -7.9554512e-01  -8.0098666e-01  -5.7248582e-01   1.4841949e-01  -7.4385062e-01   2.9899074e-01   4.8913939e-01   4.8719899e-02  -6.4330414e-01  -1.1660883e-01   4.5125831e-01   8.5731273e-01   7.5436226e-01  -5.0759666e-01   7.7683433e-01  -6.4455377e-01  -6.8801101e-01  -2.4051812e-01  -7.8089723e-01  -5.3320952e-01   1.5888904e-01  -7.2914943e-01   7.9759951e-01  -2.8798522e-01   1.2834464e-01  -5.0708820e-01   2.8518782e-02   1.8987446e-01   6.3508113e-02   1.0876806e-01   6.6126686e-01   2.7532067e-01  -7.8899132e-01  -9.3636230e-01   2.7911916e-01  -3.0325811e-01   7.2406015e-01  -1.5347340e-01  -9.4277207e-01  -9.1097390e-01  -1.4625273e-01  -4.3348877e-01   6.0388446e-01   7.4251138e-01   2.4972856e-02   3.6022915e-02  -4.0467234e-01   4.2929727e-01  -1.9497318e-02   1.5700540e-01  -1.4662104e-01  -5.8658850e-01   2.3005638e-01  -9.9718127e-01  -2.3160058e-01   5.2150860e-01  -8.6470185e-01  -2.9550585e-01   3.0281778e-02  -2.8460609e-01  -3.7205210e-01   4.2175508e-01   9.8642534e-01   4.6774020e-01   2.8116930e-01  -9.4729130e-01  -2.4815465e-01   3.6231667e-02  -7.1628757e-01  -2.6497934e-02  -3.8223810e-01  -6.5323552e-01   3.6904062e-01  -1.0170415e-01   9.6353881e-01  -9.7009435e-01  -9.9072789e-01  -1.2480917e-01  -1.4971328e-01   6.7905961e-02  -4.9421210e-01  -8.8545596e-01  -3.9572397e-02  -6.0131546e-01   4.5583408e-01  -1.3691563e-01  -1.6786824e-01  -3.2427926e-01  -6.3983561e-01   6.2317550e-02  -5.0706098e-01  -9.7112145e-01  -2.9599727e-01   7.0636943e-01  -2.8106158e-01  -7.8101934e-01  -3.8031611e-01  -1.1494086e-01  -5.3217054e-02  -8.7453925e-01   2.9225085e-01   1.1035629e-01  -7.3186786e-01  -8.9820458e-01  -4.6374477e-02   4.7854287e-01   1.8823814e-01  -2.6315856e-01   5.6892131e-01  -8.9196136e-01  -4.5225114e-01  -4.3154463e-01  -6.9897995e-01   6.4631716e-01  -6.5275454e-01  -1.1519214e-01   8.5577862e-01   5.4984002e-01  -7.3775730e-01  -3.9902313e-02   3.8487377e-01  -9.0469368e-01   9.7775108e-01  -2.3749347e-01   5.2830248e-01  -1.0587666e-01  -2.1190577e-02  -5.3434931e-01   9.2467530e-01  -8.7380917e-01  -1.8881282e-01   1.7813907e-01   7.8513084e-01  -6.1929260e-01  -1.1625752e-01   4.0687159e-01   7.1933619e-01   7.4806413e-01  -8.5918011e-01   5.1173044e-01  -9.4214894e-01   8.3257294e-01   5.1952321e-01   8.7106824e-02  -1.3895200e-01  -1.8126924e-01   3.8558317e-01  -4.7533694e-01   9.8918277e-02   4.6159247e-02  -4.9451232e-01   4.0107193e-01  -5.8894735e-01  -4.3968757e-01  -3.2327905e-01   8.8283465e-03   8.7049452e-01   4.1221149e-01  -8.6257455e-01   3.8759950e-01  -6.4460299e-01  -8.8089143e-01  -8.8739430e-01   6.9688973e-02  -3.4989762e-01  -6.6556679e-01  -5.3693232e-01  -9.0442579e-01   9.2752312e-01   4.0832003e-01   7.7755040e-01  -6.2176708e-01   7.2473137e-01  -1.5534868e-01   9.3700925e-01  -5.1984378e-01  -4.8399846e-01   6.2030931e-02  -7.0623947e-01  -7.4989391e-01   2.3548235e-01   8.8370059e-01   3.9860811e-01  -9.3671412e-01  -3.6182822e-02  -7.8913529e-01  -6.4131068e-01   4.2725413e-01  -1.0745064e-01  -2.2740220e-01  -6.8177207e-01  -5.1045621e-01   4.9478703e-01   4.0357335e-01  -4.9055606e-02  -7.2484524e-01  -3.4946946e-02   8.3503423e-01  -7.5697817e-01  -7.6191389e-01  -5.2305817e-01  -4.5575154e-01  -8.1167711e-01   7.0442126e-01   4.3975001e-01  -5.0285861e-01  -8.2793025e-01   8.7223802e-02   3.5853771e-01   2.6344251e-01   9.7909089e-01  -1.6902019e-01  -9.5634887e-01   4.6386171e-01  -7.1167372e-01   9.3815834e-03   8.0174451e-01  -8.7213537e-01  -3.0165204e-01   4.6110773e-01   3.9697813e-01  -2.6732921e-01   7.5278127e-01   2.0694014e-01   6.0823291e-01   5.8803371e-01   8.5347130e-01   5.6676529e-01  -8.0251445e-01  -4.0726375e-01  -5.6626733e-01  -4.8892244e-01  -9.3556779e-01  -5.8822510e-01  -8.1825823e-01  -1.6988840e-01   6.4638755e-01   6.8731240e-01  -7.7527239e-01  -3.5754476e-01   7.7492501e-01   7.6093117e-01   5.8736785e-01   5.6591962e-01  -3.5463541e-01   9.5319558e-01   6.0691647e-01   4.2276912e-01   1.6756978e-01  -2.5056150e-01  -3.7776981e-01  -4.3785322e-01   1.2808356e-01  -7.7526059e-01  -6.7816831e-01   4.2647412e-01  -2.8544250e-01  -4.2025048e-01   9.1005390e-01  -3.8961503e-01  -7.9546656e-01  -7.2949343e-01  -1.0004169e-01  -4.5201984e-01   2.5011673e-01   9.8560499e-01   4.3512440e-01  -3.7965916e-01  -5.6474940e-01   1.9595505e-01   2.1164027e-01   4.0848996e-01   2.0793234e-01   9.0852482e-02   1.0869714e-01  -1.1268850e-01  -4.0331378e-01   1.2793513e-01  -9.6209864e-01   3.8587396e-01   8.4341524e-01  -4.7188787e-01  -9.0753617e-01   5.0594247e-01   2.2621254e-01   4.6946392e-01
  -8.9387498e-01  -9.4445919e-01  -5.3300103e-01  -8.5693974e-01   7.1441229e-01   3.5417529e-01   9.2561206e-01  -8.0352814e-01  -5.8246404e-02   1.7190712e-01  -2.2466784e-01   3.1132347e-01  -7.0612191e-01  -3.9336240e-01   3.4029814e-01   2.3519353e-01   7.4775491e-01  -1.2891918e-02  -7.5053969e-01   4.6257679e-01  -5.7927833e-01  -4.4124207e-01   5.9658246e-01  -5.4675079e-01   1.7110562e-01  -1.8937439e-02   7.2993511e-01  -5.8488390e-01   3.0800114e-02   1.9463427e-01  -1.9267573e-01   6.6936409e-01  -4.5828900e-01  -5.5965111e-01  -8.8197215e-01   4.9793040e-02  -2.2465697e-01  -5.6551072e-01   5.8252471e-01  -3.1444468e-01   9.4599475e-01   7.5942518e-01  -9.0440954e-01   4.6441324e-01   2.3596128e-01   3.8876233e-01   1.1938192e-01  -2.9709838e-01   9.4847627e-02   7.1305788e-01  -2.4053176e-01  -5.9024567e-01   9.4519071e-01  -6.8042925e-01  -8.0122222e-01  -6.7607655e-01   9.2140100e-01  -9.9466743e-02   2.8242895e-01   3.2030608e-01  -7.8842693e-01  -3.4616159e-01   3.2907587e-01  -7.1053205e-01   4.9352091e-01  -7.6719506e-01   4.1222728e-01  -4.3095528e-01  -7.5456669e-01  -2.6912471e-01   4.3051140e-01  -5.5490014e-01  -9.6523000e-01   6.0248563e-01   5.0155622e-01  -8.6671620e-03  -6.9158113e-01  -4.8629250e-01  -8.6654867e-01   3.6399573e-01   5.0150031e-01  -7.8232623e-01  -5.6203297e-01  -8.5443340e-01   4.2719748e-01   8.5203658e-01   2.3280611e-01  -2.0035921e-01  -7.8788837e-01   8.7365634e-01  -3.3042988e-01   5.3373278e-01  -8.8158176e-01  -9.0766336e-01  -8.0288727e-01   1.2483373e-01  -2.5660643e-01   2.5592095e-01  -1.5442817e-01   5.2329189e-01   5.7774176e-01  -2.0585871e-01   7.1682569e-01  -4.2649865e-03  -3.8853584e-01   1.8566738e-01  -5.6962038e-01  -9.7015136e-01   6.1756659e-01  -4.3800635e-01  -5.8667106e-01   9.3575672e-01  -4.4177398e-01   5.9753852e-01  -4.7769448e-01   8.3363036e-01   7.7913441e-02  -2.6804906e-01  -5.0718369e-01  -9.5457401e-01   4.5324244e-02   2.2916826e-01  -8.4356403e-01  -6.0453081e-01   6.5382871e-01  -5.3842775e-01   7.1971905e-01   9.1475612e-01  -2.9491917e-01   6.3656865e-01   1.7757271e-01   8.7474631e-01   3.5639648e-01   2.3704388e-01  -1.9010183e-02  -2.2805657e-01  -9.7364131e-01   9.6308914e-01  -8.2240831e-01  -9.3646277e-01   2.2283289e-01  -8.3857607e-01   3.8666095e-01   1.1903140e-01  -6.9856827e-01   6.4310215e-01  -7.9120556e-01   2.2351809e-01   7.6074924e-01  -2.4605129e-01   3.3358440e-02   6.3316385e-01   9.9718728e-01   1.3960391e-01  -8.3189792e-01   5.0907107e-01  -2.1657763e-02   6.4281318e-01  -9.4599505e-02  -4.9878594e-01  -8.8189102e-01   7.6098921e-01   6.8378548e-01  -6.1099606e-01  -6.5471727e-01  -1.8833474e-02  -3.8401713e-01   6.7389422e-01   4.6090576e-01  -1.1480227e-01   2.4883031e-02   1.0029918e-01   5.6979527e-01  -1.0624201e-01   9.1760402e-01   1.5376805e-01   3.1080859e-01   6.8270872e-01   4.6540958e-01   2.8177489e-01   7.0469647e-01  -9.6599846e-01  -1.7953766e-01   7.8011827e-02   5.7284653e-01  -2.0142970e-01  -5.2366058e-01  -4.6092273e-01  -2.1632614e-01   3.2376574e-01  -7.1880598e-01  -6.7212471e-01   7.9310050e-01   7.9750180e-01   3.0928642e-01   8.2838841e-01  -5.9387838e-01  -4.0751570e-01   1.0608828e-01   2.6902469e-01   8.0599812e-01   5.3686635e-01   6.6560535e-01   5.7940318e-01  -1.4616271e-01   1.6398624e-01  -2.9370893e-01   5.2989998e-01  -2.3641513e-01  -2.5069709e-01  -4.2548204e-01   3.4278055e-01   6.6329983e-01  -6.9097386e-01  -8.0047898e-01  -3.6005294e-01  -6.5299538e-01  -3.0818614e-01  -8.1295832e-01   5.7072494e-01   4.4104294e-03  -4.3432262e-01  -2.0286677e-01   4.7189747e-01  -4.6504963e-01   2.6993199e-01  -9.0941369e-01   5.9697491e-02   8.7500222e-01  -5.5457994e-01  -6.0378360e-02  -1.1206397e-01   1.9042430e-01  -8.5577314e-01  -9.2987149e-01  -2.2907805e-02  -6.1416438e-01   4.9883209e-01   9.7375200e-01  -1.9959708e-01   9.2929802e-01   3.0613712e-01  -9.4702205e-01  -6.5590294e-01  -3.5742880e-01  -5.0303370e-01  -9.1993195e-01  -4.3408725e-03  -9.7558197e-01   3.5071574e-01   2.8975867e-01  -8.9174838e-01   9.3845794e-01   5.6849203e-01  -9.9820426e-01   7.7787316e-01   1.1923974e-01   9.8303892e-01  -4.6321579e-01   5.0662168e-01   6.9871871e-01   1.2672674e-01   2.5010137e-01   8.7502676e-01  -9.0226905e-01   6.1919360e-01   6.7539769e-01   7.1932799e-01   4.0889827e-01  -7.0578304e-01   8.1539135e-01   2.3427343e-01  -3.0634831e-01  -2.1733429e-01  -1.1031244e-01   4.5821549e-01  -2.8722996e-01  -6.9252687e-01   5.7427083e-02  -1.4989602e-01   8.6505202e-01  -3.8257929e-01   5.0230780e-01  -5.8097773e-01  -9.4301953e-01   2.8017717e-01   5.1110408e-01  -5.5853074e-01   7.6650468e-01   7.1905988e-01   2.7677911e-01   1.4706139e-02  -9.9923005e-01  -1.2339433e-01   9.7259310e-01  -5.5734855e-01  -6.8504658e-01  -2.6982507e-01  -5.8541230e-01   7.1767933e-01  -1.9174138e-01  -7.3015766e-01  -9.7787398e-02  -3.2048239e-02   8.9526203e-01  -8.5251271e-01   3.5584733e-01  -2.3336865e-01   5.9928373e-01   3.1326693e-01   6.7319900e-01   5.2808350e-01   5.0093770e-01   7.1022891e-01   2.2352744e-01  -1.2107864e-03  -4.6603481e-01  -5.7360282e-01  -6.7564724e-01   5.4287559e-01  -8.0665223e-01  -8.9667376e-01   7.8562599e-01   2.3799387e-01   6.6823075e-01  -7.9875357e-01  -3.5216509e-01   5.0534974e-02  -1.9850146e-01   9.4378834e-01  -5.9894311e-01   2.1388328e-01  -1.5330655e-02  -2.6372871e-01   5.0997353e-02  -9.3534879e-01   8.4229701e-01  -4.1760753e-01  -6.7963326e-01  -5.1186354e-01  -1.2870011e-01   7.4767732e-01  -9.3359565e-01   8.5490182e-03  -4.6266299e-01   9.1104208e-01   8.5412501e-01   7.6527863e-01  -6.7795833e-01  -3.1117507e-01  -3.8082112e-01  -1.8761295e-02   6.7862643e-01   8.5428484e-01  -4.5033626e-01  -1.9574524e-01  -4.0156375e-01  -9.0143074e-01   6.2088697e-01  -8.6782589e-01  -7.6115295e-01  -6.2693332e-01  -3.2202429e-01  -7.9443715e-01   5.5302461e-01   6.0873290e-01  -4.3610809e-01   5.5011250e-01   5.5441383e-01  -8.8595488e-01   2.5237027e-01  -2.9536781e-02   3.7919895e-01   7.5157943e-01  -4.9447785e-01  -2.7236116e-01   9.4510134e-01   9.5292603e-01   4.5342797e-01   7.2484099e-01   8.0175684e-02   1.9543040e-01  -3.8795314e-01   3.7531414e-01   4.9635459e-01   5.9839784e-01   9.5961823e-01  -9.1990192e-01  -9.9524784e-02   3.8037563e-01   4.2186037e-01  -8.4359716e-01   1.0191139e-01  -7.9134485e-01  -7.0063590e-01  -3.9881261e-01  -5.9521402e-01  -7.1969405e-01  -4.7951475e-01   5.1940142e-01   9.2629226e-01  -8.9627559e-01  -4.2135377e-01   2.5598164e-01  -9.9309026e-01  -8.9132103e-01  -7.7492744e-01  -6.4856954e-01   3.4265523e-01  -7.7036768e-01   7.7310731e-01  -1.7730074e-01   8.3557016e-01   3.6816527e-01   8.1553227e-01   8.1554608e-01  -3.8957302e-01   2.7701957e-01  -4.3624555e-01  -4.0534608e-01  -8.0049425e-01   9.3338142e-01   6.3026450e-01   5.8309386e-01  -9.7731036e-01  -8.2907498e-01   1.5245060e-01  -5.3226780e-01   8.5254474e-02  -6.4694672e-01   9.2253368e-01   3.2280441e-01   6.2948735e-01   3.6215439e-01   3.8728949e-01  -3.8425470e-01   1.0013094e-01  -4.2238119e-01   6.9030814e-01   1.1816586e-02   9.8011857e-01  -2.0642189e-01  -5.5346126e-01  -5.7575094e-02   4.0969336e-01   5.2830081e-01  -6.1752604e-01  -2.9477087e-01   4.2154993e-02  -4.7825552e-01  -7.5397558e-01  -3.5801290e-01   4.6190566e-01  -7.3579920e-01  -8.1376322e-01   6.0570044e-01  -3.2039975e-01  -5.0124792e-01   2.5210417e-01  -9.9314896e-02  -9.7248521e-01  -4.0633537e-01  -8.2159732e-01   3.0622308e-01   7.7283497e-01   6.6911853e-02   4.0100180e-01   5.9300419e-01   9.6712785e-01  -2.8122589e-01   4.3368197e-02   1.3766063e-02   6.2108363e-01   2.8603178e-01   7.1788441e-01   7.9943758e-01   8.2859784e-01  -7.5448210e-01  -6.1262380e-03   3.4062013e-01  -5.9646645e-01   2.5481480e-01   1.6142176e-01  -9.3719082e-01  -1.1387439e-01   5.6320435e-01  -2.6496579e-01  -2.1997551e-01  -8.1049399e-01  -1.2057759e-01   5.3362250e-01  -9.7953838e-01   3.3181270e-01   5.9806254e-01  -7.4959658e-01   3.0035662e-01   1.2368359e-01   8.1012218e-01  -4.5843056e-01  -4.3241909e-01   9.5499246e-01   8.9032123e-01  -8.7150028e-01  -4.9848240e-01   7.0409692e-01  -5.4353872e-02  -8.2698809e-01   1.5280618e-02  -9.3638056e-01  -2.4521521e-01  -3.3196722e-01   6.0469983e-02  -2.1326550e-01   2.9734960e-01   3.1534654e-02  -7.4322977e-01   8.9387801e-01   4.0848191e-01   1.1951933e-01  -8.9968799e-01   8.7570761e-01   5.4528237e-01  -6.6983190e-01   5.6023340e-01  -5.6123817e-01   9.2627565e-01  -5.1568557e-01   4.7268849e-01   7.4403908e-01  -8.2573915e-01   1.6928932e-01   8.6169523e-01   8.0963985e-01  -3.6024723e-01   9.4256193e-01   2.9810590e-01   1.4590014e-01   7.5167461e-01  -6.5126148e-01  -6.2409379e-01  -7.6765324e-01  -4.4076863e-01  -2.1393443e-02  -4.1794891e-01  -5.4197874e-01   1.9509357e-01  -6.2313936e-01  -3.0729640e-02  -5.4447565e-01  -5.9779859e-02   9.0856771e-02   5.3175971e-02  -8.4503593e-01   1.8786434e-01   8.6618978e-01   6.7175544e-02   4.4446391e-01  -4.9628299e-01  -8.4040483e-02  -8.2775795e-01  -6.0259589e-01  -2.0459977e-01   1.1267729e-01  -7.7521824e-02   2.3511036e-02   4.9591149e-01  -2.7129319e-02   7.3063013e-03   8.9290969e-01  -4.4325333e-01   3.3616789e-01  -2.2802377e-01   8.3822714e-01   7.1961977e-01  -6.8394713e-01  -7.5837698e-02  -1.6603656e-01  -4.8975697e-01  -1.6888782e-01  -6.6955598e-01   7.8305021e-02  -4.4076017e-03  -5.8789374e-01  -6.8319772e-02   8.7726146e-01   5.7234944e-01  -3.0654983e-01   1.5877081e-01  -7.1979213e-01  -3.1062435e-01  -6.9572394e-01  -6.7049162e-01  -2.8473871e-01  -3.0497306e-01  -3.3625029e-01  -3.4538853e-01  -7.8546823e-01  -7.9224304e-01   1.0193264e-01   4.1934251e-01  -2.1408975e-01  -4.4968719e-01  -5.7057545e-01   1.5090137e-01  -2.9150972e-02   7.2506396e-01   3.7269037e-01  -7.6640435e-01   1.4257041e-01   2.2361190e-01  -7.6826070e-01   2.4315495e-01   7.4790787e-01  -9.4451833e-01  -1.4701077e-01  -7.6993863e-01   6.1294841e-01   7.0985123e-01   3.7986830e-02  -6.7077475e-01   7.7365679e-01  -4.3125809e-01   3.2358417e-01   3.4601431e-02  -8.5147470e-01  -1.5077156e-01   5.8944809e-02   9.2135745e-01  -5.1494612e-01  -6.6486072e-01  -2.6400847e-01  -8.3866773e-01   3.6167342e-01  -4.2605444e-01   5.9701658e-01   8.8334630e-01  -6.1132383e-01   8.1347298e-01   7.4682428e-01   4.1842755e-01  -9.4695136e-02   3.8334188e-01   9.5262785e-01  -4.8140926e-01  -1.1983350e-02  -6.3552036e-01  -6.2170882e-01   2.4552335e-01  -4.4984639e-01  -3.5784799e-01  -4.0352245e-01  -8.2146497e-01   7.3407282e-01  -4.3351733e-01  -4.6271405e-01  -7.7911138e-01   4.2004659e-01   2.3113188e-01  -8.1671561e-01  -2.9237896e-02   9.5330683e-01  -1.7743934e-01  -6.1326719e-01   8.5637629e-01  -9.8984551e-01   2.5220146e-02   7.6103481e-01   3.8606331e-01  -4.6132306e-01  -5.5021798e-01  -7.4502005e-01  -8.1977511e-01  -4.5560005e-01   4.7300026e-02   8.8003860e-01   4.7565080e-01  -5.3144615e-01  -7.6090630e-03  -4.1640383e-01   6.3981647e-01   1.6942430e-01  -5.3948036e-01  -5.1546726e-01   7.3784362e-02   1.3526896e-01   6.3488645e-01  -6.7369536e-01   2.6613928e-01   2.0343852e-01   4.3377342e-01  -7.4980320e-01  -6.3602552e-01   7.8348298e-01   8.1165777e-01  -8.9874926e-01  -4.7225813e-01   4.6164260e-01   8.8288921e-01   5.9162159e-01  -4.6183524e-01   3.4382078e-01   2.8453281e-02   7.3131128e-01  -2.2039327e-01  -9.2963121e-01   2.8001996e-01  -9.2409910e-01  -8.9898255e-01   9.8901428e-01   2.4946484e-01  -7.0284542e-01   8.8148572e-01  -8.4564513e-01   6.5746128e-01   7.0633501e-01  -1.7708779e-01   6.7260802e-01   3.3484261e-01  -2.8591459e-01   1.7563852e-02  -6.3822848e-01  -7.3285808e-01  -8.8819133e-01  -2.6452511e-01   4.9679971e-01  -5.0549844e-01  -6.1213715e-01   7.9406076e-01  -5.4988447e-01  -9.7962168e-01   5.4722396e-01  -6.9265416e-01   2.7948088e-01  -3.8239638e-01   1.7082551e-01   1.4852445e-01   4.2249744e-01   8.8206273e-01  -1.5463078e-01  -6.0158385e-01   4.7921664e-01  -4.4744454e-01   3.0753023e-01  -8.5724209e-01  -8.6704749e-01   6.9206639e-02  -9.3957627e-01   7.5127643e-01   6.8327637e-01  -7.9263518e-01   5.8411223e-01   5.1913259e-01  -3.3497974e-01   8.7641595e-01  -9.6009297e-02   3.3852929e-01  -4.7838433e-02  -8.0295377e-01   2.3490262e-01   7.6330190e-01  -1.6866782e-02   5.7822324e-01  -4.1144266e-01  -4.6423016e-01   9.5804115e-01  -2.4467990e-01  -6.7878218e-01   8.5766576e-01   6.3879024e-01  -4.4951394e-01  -7.4075040e-02  -9.3796241e-01  -5.1005803e-01   8.0485697e-01  -6.9114014e-01  -7.0535052e-01  -2.7683492e-01  -7.4516641e-01   5.2454786e-01  -6.5223632e-01  -6.5752792e-01   1.8721856e-02   6.1280158e-01  -7.2681790e-01   3.3527345e-01   1.4467348e-01  -2.3270434e-01   4.4755189e-01   6.3379980e-01   7.7490097e-01   2.7897763e-01   2.4136694e-01   1.9058022e-01   3.0873242e-01  -4.7718712e-01   9.4213085e-02  -4.5425046e-01   3.9413857e-01  -6.0853245e-01   3.4724894e-01  -5.0577226e-01   5.0178435e-01   7.9530941e-01   2.0096441e-01  -7.1123291e-01  -4.6189160e-01  -6.7716288e-01   7.1172858e-01   9.3310404e-02   6.4770879e-01   9.1535876e-01  -1.1618676e-01   6.7816579e-01   2.7485729e-01   5.8583358e-02  -7.3653620e-01   2.9233130e-01  -8.6582507e-01  -3.7270584e-01   5.4436805e-01   8.1086417e-01   9.6594940e-01  -2.8157935e-01   6.6968929e-01  -8.8071643e-01  -1.4677420e-01  -9.1475432e-02   7.5093913e-01   6.9283790e-01   1.1963204e-01   3.2898665e-01   7.4869352e-01  -5.1176585e-01  -8.1765790e-01  -1.2186060e-01  -3.1899331e-01   1.3214267e-01   3.2506941e-01  -6.0028521e-01   2.7762590e-01  -1.7451987e-02   7.7728497e-01  -9.8969163e-01  -5.9079344e-01  -1.8814188e-01  -4.2784279e-01   5.4170222e-01  -9.4539182e-01   8.2753967e-01  -8.4709273e-01   1.5709866e-01   2.8707516e-01  -4.2038893e-01   8.8898728e-01   8.7771033e-01  -3.0789018e-01  -1.3657935e-02  -6.7458227e-01  -1.6533484e-01  -6.9215758e-01  -6.8915601e-01  -3.1219901e-01   8.8234319e-01  -7.6831277e-01  -2.3341696e-01   7.2874639e-01   4.8062290e-01  -8.0525619e-02  -7.2794157e-01   8.7565449e-01  -6.7805239e-01  -9.9560499e-01   1.1144076e-01  -6.8865735e-01   3.4409206e-01   2.0506065e-01   3.7418982e-02   3.4546436e-01   5.3305985e-01  -6.1175538e-01  -1.8124622e-01  -8.7164535e-01  -5.6543497e-01  -9.1454814e-01  -6.4455811e-01   4.9773421e-01  -2.1937703e-01  -7.6327627e-01   5.0622590e-01   2.8393033e-01   9.7219312e-01   8.6091927e-01  -8.0306866e-01  -1.6688068e-02  -7.4979544e-01   1.2186542e-01  -9.0960846e-01  -2.3666226e-01  -8.3657351e-03  -5.2343009e-01  -6.5740459e-01  -3.3160371e-01   5.9506708e-01   1.5328826e-02   6.6162320e-01  -9.6205014e-01   5.5934943e-01   1.7474677e-01   5.0036252e-01   7.6483531e-01   3.7593575e-01   8.1893197e-02  -8.1236813e-01   9.1949838e-01  -6.8535122e-01  -2.3721940e-01  -1.5742345e-02  -2.2032039e-01   7.0864534e-01  -3.8599217e-02  -4.0919828e-01  -8.7950420e-01  -1.6957537e-02  -5.0199801e-02   7.4096029e-01  -6.8110450e-01   9.1448107e-01   2.8181660e-01  -1.9075314e-01   1.9437959e-01  -1.0093422e-01  -1.7869425e-01  -8.1591445e-02  -8.7698514e-01   3.6098833e-01   5.1446755e-01   5.8322884e-01   8.6379720e-02   9.5690955e-01   8.6679451e-01  -3.4830881e-01  -5.0104053e-01  -8.2165948e-01  -1.7735008e-01   7.6387566e-01  -4.1683918e-01   2.7117818e-01   3.0243340e-01   4.4122394e-02  -2.1402346e-01   7.2172379e-01   8.5953911e-01   1.4035019e-01  -6.2595384e-01  -4.1831281e-02   7.3095228e-01   5.8459861e-01  -4.4552437e-01  -2.1077377e-01   4.8004584e-01  -1.4422552e-01  -4.9689366e-02  -3.7275579e-01  -8.4199985e-01  -1.7903866e-01   6.8599203e-01   5.9818747e-01  -4.7709312e-01   1.5461278e-03   1.6964625e-01  -9.4930441e-01   1.7679300e-01   8.5219050e-02  -8.7526473e-01   4.0748107e-02  -9.1921881e-01   1.4358366e-02  -9.3929136e-01  -8.3881047e-01  -8.7477251e-01  -5.3336481e-01  -4.5344686e-01   4.8652038e-01   7.2366775e-01  -6.2861001e-01   7.6777377e-01   8.7949275e-01   9.4845984e-01   8.1113956e-01   6.1716336e-01   3.6476731e-01   3.6610796e-01  -5.1022213e-01   7.0562532e-01   6.7702694e-01  -4.4335567e-01   1.1777411e-01   2.7828142e-01  -8.4514050e-01   4.5418057e-01
  -2.1618804e-01   2.0342706e-01   9.0959996e-02  -1.8433003e-01  -4.4114009e-01  -3.5455012e-01  -7.4855358e-01   5.0166863e-02   5.1929381e-01  -3.4522163e-01  -4.8340971e-01   1.3249866e-02  -6.3889492e-01   6.6450564e-02  -5.6664172e-01   3.3779529e-01   5.7915636e-01   7.0171200e-01  -6.8933483e-01  -5.4078280e-01   9.2485020e-01   3.3785297e-01  -5.7211189e-01  -5.5997777e-01  -5.8508713e-01  -6.7204714e-01   6.2151388e-01   9.7919389e-01  -6.6943215e-01   4.0223245e-01  -2.7433880e-01   9.3479393e-01  -6.7116018e-01  -3.7572747e-01  -7.4468255e-01  -2.3349528e-01  -4.2352975e-01   2.8304245e-01  -1.0603393e-02   8.3281461e-01   4.2418223e-01  -6.5958466e-01  -2.7261600e-01  -7.3551609e-01   7.8826737e-01  -5.4875426e-01   8.1844291e-01   3.6784339e-01  -6.3693203e-01  -8.5887463e-01   7.0527395e-02   7.9956310e-01  -6.4786127e-01   1.8188557e-01   4.6616735e-01   4.8592001e-01   8.6585299e-01  -1.0711891e-01  -9.5238230e-01   3.1132020e-01  -8.6552481e-01  -8.0225064e-01  -8.7473311e-01   1.8331779e-01   7.6182111e-01  -8.4604322e-01   4.4253998e-01  -2.7507371e-01  -8.9482558e-02  -7.2498361e-01   7.4431953e-01  -9.3862341e-01   4.6423483e-01   4.1793632e-01  -8.6008993e-01  -7.9786466e-01  -1.5163276e-01  -3.1533664e-01  -8.3819286e-01  -2.3022751e-01   7.5855417e-01  -9.6385510e-01  -8.8948271e-01  -3.6231665e-01  -9.9800992e-01   3.0649697e-01  -8.0679312e-01   2.7544292e-02  -4.2901211e-02  -4.0573275e-02   8.4629724e-01  -2.0235905e-01  -8.8903513e-01   3.0055611e-01  -5.0780021e-01  -3.2794161e-02  -8.5231547e-01  -8.0448490e-01   7.5692087e-01   7.8445323e-01   7.2527637e-01  -8.3010953e-01   8.3483506e-01   9.9117303e-01   8.0777624e-01   6.2625839e-01   5.5753518e-01  -1.3210140e-01  -1.2179492e-02   4.8510735e-01   8.8386841e-01   8.4202599e-01  -3.5290954e-01   3.7195383e-01  -8.5852170e-01  -7.1077263e-01  -3.5398242e-01   7.5436092e-01   2.8275166e-01  -1.7520357e-01  -9.3691081e-02   4.9083246e-01   1.9738221e-01   3.0927440e-01  -5.1177419e-01  -1.7300127e-01  -9.2880768e-01  -8.4935293e-01  -8.2006406e-01   9.5933542e-01  -3.7900189e-01   8.9482880e-01  -2.9396520e-01  -4.0050689e-01  -8.7594660e-01  -7.1254031e-01  -3.0764477e-01  -9.3031647e-01  -6.8705038e-01  -3.7682654e-01   1.4424020e-02   9.0151629e-03  -8.3608877e-01  -6.3614285e-01   3.0169731e-02   6.2564959e-03   9.2734458e-01   9.3094480e-01  -7.9726295e-01  -2.3262358e-01   6.2442370e-01  -9.3136522e-01  -7.5367790e-01   6.3104363e-01   1.6705833e-01   1.1677596e-01   7.6112940e-01  -5.7986505e-01  -3.9351665e-01  -4.9891561e-03  -8.2364573e-01  -5.3231636e-01   4.1859763e-01  -9.5725168e-01   8.1924506e-01  -2.0981953e-01   1.2935109e-01   6.5724608e-02   7.7924072e-02  -3.6599534e-01  -8.0054318e-01   7.4558745e-02  -5.4232760e-01   3.8423700e-01   9.8605534e-01  -9.2138200e-01   4.1126612e-01   3.9618046e-01  -4.3487572e-01   3.3751527e-01  -1.5900259e-01  -1.7553352e-01  -3.7846624e-01   4.7090995e-01   3.7334344e-01   6.3334963e-01   1.7235336e-02  -7.2149284e-01   5.7407914e-01  -7.0756978e-01  -5.7566753e-01  -5.1279193e-01   7.5349139e-01  -5.6082466e-01   2.4255023e-01  -8.7248524e-01   8.9502840e-01   8.1376143e-01   5.9354805e-01   9.3922413e-01   5.8704667e-01  -7.0727153e-02  -2.3713015e-01  -4.8583365e-01  -1.6346461e-01   1.0253795e-01  -6.2625652e-01   7.3188231e-01  -7.2722397e-01  -9.8741738e-01  -3.1803506e-01   1.1916284e-01  -8.6567227e-01  -2.9236187e-01  -4.2153161e-01   5.9404449e-01   5.8125856e-01  -5.0050306e-02  -9.0714252e-01   8.0690006e-03   2.8901689e-01   7.5594157e-01  -6.8976511e-01  -4.7876664e-01  -4.3593346e-01  -8.9065755e-01   7.4582830e-01  -1.3213122e-01  -4.6766457e-01  -6.2864325e-02   9.6922660e-01   7.9341665e-01   2.8668508e-01   8.8977934e-01  -5.5421523e-01   7.3509106e-01  -8.1396506e-01  -3.6615400e-01   8.0990508e-01  -5.5705308e-02   1.9969039e-01   5.5658974e-02   2.3658468e-01   4.0153802e-01  -1.2858861e-01   1.6842522e-01  -4.8716595e-01  -7.5698801e-01  -7.6518537e-01  -4.3809249e-01   9.7608902e-01   1.0792459e-01   4.7700336e-01  -9.2470697e-01  -8.0402068e-02  -3.2536934e-01  -1.9058010e-01  -3.8190085e-01  -5.9463825e-01  -2.1942314e-03  -9.9650477e-02  -2.8152689e-01  -4.2678297e-01  -9.9578660e-01   6.7573427e-01  -6.8892134e-01   8.6116704e-01  -4.4327589e-01  -1.5468993e-01  -3.0777665e-01  -1.9031483e-01  -9.7154021e-02   7.5740714e-01   7.7242484e-02   4.3665451e-01  -9.9106109e-01   5.9388832e-01  -8.5796706e-01   2.5331143e-01   7.1337326e-02   4.4327834e-01  -1.2874858e-01   6.1576023e-01  -2.0921719e-01   2.7892821e-01  -1.1796945e-03  -3.7420862e-01  -2.3387757e-01  -6.2043709e-01  -7.8905024e-01  -3.0630128e-01  -6.0483002e-02   8.9220336e-01  -2.0121007e-01  -2.1448295e-01   3.2814458e-01   5.7912860e-01  -9.4055005e-01   6.5232651e-02   9.9428105e-02   6.9231274e-01  -4.8293265e-01   8.8154999e-03   6.9526948e-01   6.6131395e-01  -4.1166345e-01   3.4538494e-01  -7.3483648e-01   7.2316582e-01   8.2895203e-02   3.1232057e-01  -3.7280466e-01   8.2377514e-01   9.1171440e-01   6.8432775e-01  -4.7106580e-01   5.1462192e-01   8.3089418e-01   2.0783298e-01  -1.0727285e-02   8.7304843e-02  -7.3332578e-01   3.2807731e-01   7.3613920e-01  -7.1714435e-01   3.4725980e-02   4.5206866e-02   6.1364810e-01   9.6580057e-01   7.6180625e-01   6.3844964e-01   6.2989702e-01  -9.7480268e-01   2.6823563e-01  -2.5394175e-02   5.2745460e-01   2.3240755e-01  -3.8734379e-01  -8.0925816e-01   6.5699295e-02   3.4829111e-01   3.7021907e-01   6.2860879e-01   3.5369638e-01  -7.9059094e-01  -4.4953299e-01   6.8010822e-01   8.7070981e-01   8.5940404e-01   6.8173887e-01   4.5582132e-01  -4.2246266e-01  -4.6609876e-01   2.3664405e-01  -8.9122091e-01   1.2391599e-02  -6.7686485e-01   7.7113390e-01   6.1025015e-01  -2.2020436e-01  -3.7767592e-01  -2.9162518e-01  -5.8710446e-01   3.7930635e-01   7.3273113e-01  -1.0267363e-01   8.6892412e-02   3.9644724e-01  -6.5240635e-01  -3.1818666e-01  -4.4655508e-02  -5.2228970e-01  -5.2668857e-01  -5.0502197e-01   4.3976546e-01   5.8755326e-01  -1.3120153e-01  -7.0853599e-01  -3.0944747e-01   4.5483514e-01   3.2969420e-01  -5.2002363e-01  -1.8027777e-01  -8.9083604e-01  -3.6621216e-01  -9.5786006e-01  -9.9124783e-01  -9.9203849e-01  -8.1791942e-01   8.5804874e-03  -1.4831805e-02  -1.3260732e-02   1.6986842e-01   5.8768949e-01  -7.9478080e-02  -4.0890495e-01  -4.5906167e-01  -7.9111800e-01  -2.9290498e-01  -1.1725570e-02  -2.6336345e-02  -7.6494939e-01  -7.9240553e-01  -8.1548618e-01   9.0522079e-01   8.0208217e-01  -4.5112330e-02   9.7077693e-01  -8.0262010e-01   4.0059457e-01   8.7998648e-01   3.8366449e-01   3.8232566e-01   3.0073181e-01   4.2554176e-01  -1.8344035e-01   6.9117237e-01  -1.2899673e-01   6.5813761e-01   2.0692182e-01  -5.0438072e-01  -7.8016639e-01  -5.6934429e-01   6.1288849e-01  -8.3074239e-01  -4.6900598e-01   9.0179307e-01   7.1139373e-01   1.7237238e-01   5.2411905e-01   8.7877945e-01   1.4767586e-01   8.8303047e-01  -2.6099112e-02   4.8477426e-01  -2.0839947e-01   2.4664679e-01   3.4923128e-02   6.5990160e-01   3.1066258e-01   1.6060310e-01   2.9906590e-01   3.9399604e-01  -7.5960878e-01   2.4484078e-01  -5.3889077e-01   6.7066378e-01   5.8251381e-01   5.6113714e-01  -8.8539895e-01   1.1379363e-01  -1.1817694e-01   6.7282522e-01  -9.5259049e-01  -9.2345992e-01   7.7717379e-01   6.5323053e-01  -9.9681294e-01   9.4346670e-01   3.7233315e-01  -7.5026425e-01  -5.1533689e-01   2.3542937e-01  -9.3079351e-01  -5.2097188e-01   2.0406847e-01  -7.6979362e-01  -5.0922155e-02   7.6959708e-01   8.7618960e-01   3.7559067e-02  -1.5762163e-01  -8.5930405e-01   7.3251270e-02  -7.7067558e-01   8.7292956e-01   5.0261280e-01   5.2541619e-02   5.2456593e-01  -3.2952404e-01   4.8792023e-01   8.7863529e-02  -5.9346848e-01   1.2276065e-01   7.7233477e-01  -1.7418532e-01   1.8374271e-01  -2.2525238e-01   4.6067674e-01  -8.8849231e-01  -6.0021872e-01   5.9939845e-01   6.0564153e-03  -3.3069401e-01   8.1029949e-01  -1.5205044e-01   7.6776429e-01   5.2411872e-01   1.6092746e-01   7.9771263e-01   1.9446023e-01   6.9776542e-01  -7.3319080e-01  -1.4875657e-01  -3.3145770e-01  -6.2582136e-01  -8.4303957e-01  -4.1725393e-01  -3.2294194e-02  -1.8268343e-01   1.1159637e-01  -3.4961883e-01   4.3080757e-01  -8.0725935e-01  -9.4491257e-01  -8.1880097e-01  -7.4469090e-01  -7.8547400e-01  -4.8773941e-01  -4.0588714e-01  -2.8401984e-01  -9.3481536e-01  -2.3929213e-01   1.6457217e-01  -1.0423906e-01  -4.1530602e-03   5.8669018e-01  -4.1830534e-02  -7.3712540e-01   1.7869871e-01  -6.9281191e-01   8.2569002e-01  -8.4906746e-01   5.8004515e-01   2.3478594e-01   3.8094162e-01  -9.7500993e-02  -7.3364485e-01  -9.6869211e-02  -3.0236465e-01   2.7436562e-01   6.2464338e-01   1.6622802e-01  -8.8076934e-01   1.6010982e-01  -7.9007660e-01   1.9160226e-01   5.6875365e-01   2.0307485e-01  -8.9116146e-01   9.2734391e-01  -8.1391389e-01   2.7880959e-01  -7.0642740e-02  -6.7644521e-01  -8.2748610e-02   7.0099500e-01   5.9516898e-01   5.3487594e-01  -2.6287927e-01   6.1670067e-01   7.1466995e-01   3.4488208e-01   3.8507648e-02   1.9702030e-01   1.3906330e-01   6.6779942e-01  -9.1938802e-01  -6.8425770e-01   3.8202503e-01   4.4519676e-01   6.6455492e-01  -1.3464305e-02   9.2520565e-01   6.0732921e-01  -2.1459671e-01   8.8291526e-01  -4.1600986e-01   7.2476787e-01   4.7458252e-01   1.4227184e-01   7.3421459e-01  -4.2213508e-01   3.3443887e-01  -8.4769715e-01  -1.8128027e-01  -6.1624977e-02   2.5565373e-01  -7.2459595e-02  -5.1982442e-01  -6.7738958e-01  -1.6999448e-01   5.0948180e-01  -9.0931909e-01   5.8001411e-01  -2.1910333e-01   8.0516354e-01   2.6239499e-01  -1.8305960e-01   9.8512469e-01  -5.0293571e-01   2.2815394e-01  -1.7640892e-01  -7.7713839e-01  -9.2532596e-01  -3.0701205e-01   5.1171897e-01  -2.3739445e-01   5.4357935e-01   2.1729029e-01   9.1309317e-01  -6.1046500e-01   3.1653174e-01   9.3866289e-01  -9.7028730e-01   8.9177082e-01   4.1740966e-01  -1.9771394e-01  -9.3961796e-02  -4.9948070e-01  -2.5222273e-01   3.1904470e-01   3.6121382e-01  -1.9861806e-01  -6.8241698e-01   1.7812133e-01  -5.2978413e-01  -2.5514511e-01  -8.1381518e-01  -2.0305390e-01  -9.8449512e-01  -5.7009160e-01  -4.9260154e-01  -6.0351460e-01  -3.5698949e-02   8.2146315e-01   8.7944183e-01  -8.2527181e-01  -2.2293811e-01  -1.4586108e-01   6.2721614e-01  -4.1794924e-01   8.8002197e-01  -8.9307091e-01  -2.5804195e-01   1.8001400e-02   4.3341782e-01  -2.0802739e-01   5.9549617e-01  -1.3214302e-01   9.3760455e-02  -3.6361793e-01   1.7116936e-01  -6.8462793e-01   5.4045299e-01  -2.9230059e-01  -9.1517861e-01   3.6299264e-01  -3.4361131e-01  -6.4642359e-01   7.1662394e-01   8.6491554e-01   3.5769953e-02  -4.7046638e-01  -1.5989587e-01  -9.0340441e-01  -5.6704401e-01   1.5906968e-01   9.5549836e-01  -6.8012436e-01   3.7034126e-01  -3.5309526e-01  -4.8072999e-01   3.4640873e-01  -2.6625524e-01  -8.5496787e-01   9.2106832e-01   3.9737524e-01   4.0722852e-02  -3.8299189e-01   3.7511489e-01  -7.4026871e-01  -4.7541948e-01   5.8888269e-01   1.2882892e-02   1.1981366e-01  -9.3315603e-01  -4.3572861e-01   6.0467663e-01  -9.4733186e-01   9.2377848e-02  -6.7916361e-01  -2.3008306e-01   9.6743860e-01  -2.3547353e-01   4.6855109e-01   6.8053371e-02   8.3600525e-01  -7.2356833e-02   6.6200635e-01  -9.0549191e-01   8.2574943e-01  -1.7080402e-01   7.3050786e-01   4.5409778e-01  -5.5220962e-01  -8.8807970e-01  -6.2187143e-01  -9.2838075e-01  -4.9736934e-01   1.7090668e-02   3.7020619e-01  -4.1052619e-01  -3.1318010e-01   3.4461237e-01  -9.9440735e-01   7.5304251e-01   4.0070940e-01  -9.7055423e-02  -3.7495092e-01   7.2325134e-01   2.7865937e-01  -4.8078768e-01   1.7346618e-01   2.7733521e-01  -9.6764981e-01   3.4054521e-02   3.2866169e-01  -1.6261109e-01  -6.2721806e-01  -8.5553930e-01   1.4010942e-01   4.4613621e-01   6.3696385e-01   1.4091765e-01   1.0456610e-01  -4.4987074e-01  -9.1775461e-01  -3.6765816e-01   6.1585180e-01  -4.7526307e-02  -8.3193994e-01  -6.3132079e-01   4.4149867e-01   2.0911493e-01  -3.0782180e-01  -2.3935722e-01   4.8234722e-01  -1.7551369e-01  -5.0978306e-02  -2.3424620e-01   8.9768331e-01  -6.7438918e-01   4.1158236e-01  -3.2884747e-01   1.4866297e-01  -1.0824014e-01  -7.7632475e-01   8.1149004e-01  -3.2129385e-01   8.5675102e-01   8.0827377e-01   1.4817800e-01   8.3367099e-02  -4.8557206e-01  -6.1511277e-02   7.3686360e-01  -1.7376406e-01   5.3261780e-01  -1.0884391e-01   7.8598080e-01   6.0455682e-01   6.9612588e-01   1.8535581e-01  -2.3445875e-01  -7.9744859e-02  -4.2770535e-01   4.3880404e-01  -2.2397128e-01   3.4332213e-02   7.1902451e-01   5.2341472e-01  -1.5358178e-02  -1.8664240e-01  -1.5699962e-01  -4.0564155e-01   3.5270626e-01  -3.6881418e-01  -6.8471282e-01  -5.5985371e-01   8.3164701e-02  -4.1241072e-01   8.8954659e-01  -1.7700003e-01  -9.1627104e-02  -2.3148307e-01  -6.6067174e-01   9.0437924e-01   9.3033874e-01   8.2207456e-01  -7.0443001e-01   8.4308475e-01   9.8049134e-01   5.2821848e-01   8.4663650e-01   3.1600814e-01  -3.0157219e-01   1.0556802e-01   5.1236891e-01   7.1655080e-01   5.2438655e-01  -5.4117416e-01   5.1890973e-01  -5.2198795e-01   1.5883598e-01   7.0570777e-01   2.8200967e-01   6.4731523e-01  -6.7695506e-01  -5.0577669e-01  -4.4099985e-01  -4.9474049e-01   6.6634284e-01   8.8344386e-01  -9.5339019e-02  -9.6261653e-02  -8.5803105e-01   7.0230297e-01   9.6591877e-01  -6.1620018e-01  -1.3217553e-01   8.6076727e-01   1.9454880e-01   2.6328128e-01   7.0155824e-02   4.0384188e-02   4.3745069e-01   5.1801121e-01   9.9675061e-01  -4.1064405e-01  -9.1433056e-01   6.7429549e-01  -5.9146466e-02  -7.5520741e-01  -5.7514893e-01   5.1966690e-01   7.1434247e-01  -3.3933768e-01   9.4187255e-01  -9.4636381e-01  -7.2158934e-01  -4.8177266e-01  -4.9203808e-02   8.8900659e-01  -2.8857237e-01  -9.6500829e-01  -2.0082479e-01  -4.1925478e-01   3.7491078e-01  -5.8782491e-01  -1.4344907e-01   2.6689501e-01   7.5480931e-01   3.5941358e-01   9.7671669e-01  -2.1872238e-01   9.9579812e-01  -8.0818278e-02  -2.2757972e-01   5.6094538e-01   1.7614793e-01   1.6933952e-01   3.5219675e-01   7.5861307e-01   5.1315803e-01   2.1010116e-01  -8.5778411e-01  -7.5521527e-01   4.2743466e-01  -8.6589798e-01   5.6291154e-01  -4.3288336e-01   5.6354601e-01  -4.7316608e-01   2.5219703e-01  -6.2707360e-01  -4.9613162e-01   5.8981078e-01   7.2923519e-01  -3.1704444e-01   5.4031713e-01  -6.7782367e-01   3.6562395e-01   7.1524180e-01  -5.1812287e-01  -9.8967829e-01  -7.1402406e-01  -3.3595501e-01   1.7589763e-01   5.8326038e-02   3.6362408e-01  -7.3628818e-01   8.9869562e-01  -2.2801181e-01   5.4637492e-01   3.3054369e-01   5.5459819e-01  -8.2886564e-01   7.0942011e-01   4.1252002e-01  -5.0732033e-01   2.2508611e-01   3.5475740e-01   1.2987199e-01   3.8865356e-01  -4.2725975e-01  -4.3488700e-01  -1.4290434e-01   7.3256727e-01  -5.5541738e-01   7.7965487e-01   4.6663342e-01  -2.7091152e-01  -1.6438855e-01  -2.7025580e-01   9.2804368e-01   5.3106586e-01  -9.3301689e-01   7.5679418e-01  -2.5581673e-01  -9.8364878e-01  -8.2683929e-01   6.8604880e-01   9.4137497e-01  -9.6838781e-01  -5.5650912e-01  -1.6491810e-01   8.4203997e-01   8.7349891e-01   1.9867215e-01  -6.1680060e-01  -7.9123802e-01  -2.6006458e-01   8.0843880e-01   6.7975385e-01  -3.3207083e-01  -2.8218847e-01  -5.3382884e-01  -5.5170339e-01  -5.2951015e-01   8.6399917e-01   7.2773282e-01  -5.8927195e-01  -2.6280641e-01   8.4258774e-01  -5.9237749e-01   5.0742281e-01   9.3777883e-01   9.5372814e-01   5.9595529e-01   6.1782854e-01   8.7773304e-02   1.7565529e-01  -5.0783281e-01  -6.6764283e-01   7.7578089e-01  -9.7861077e-01   4.0957219e-01  -4.5693014e-01   9.8285299e-01  -7.7504402e-01   7.8266600e-01   8.3440011e-01   8.5090916e-01  -2.1361121e-01  -5.5134656e-01   2.6402519e-01   2.6729149e-01   7.7843843e-01  -5.3933175e-01  -4.8430928e-01   8.7994522e-01  -8.7526933e-01   3.1824831e-01   4.7823762e-01  -8.5944750e-01   6.6627992e-01   3.0975132e-01  -9.9239659e-01   2.4073083e-01   2.4095436e-01   8.5581184e-01  -2.6701755e-01   2.1447688e-01  -6.7116241e-01   6.3739920e-01  -1.4222164e-01  -6.5725273e-01  -7.2838886e-01   8.3637498e-01
   7.1440188e-01  -8.4625419e-01  -1.8224918e-01  -4.1308485e-01  -6.5959985e-01  -6.3192217e-02  -2.6892081e-01  -5.2588532e-01   5.1953224e-01  -5.1012243e-02   9.5126491e-01   4.6517174e-01  -3.4936366e-01   8.0082949e-01   4.5428830e-01  -1.3958042e-01   6.0813069e-01   1.9752631e-01   9.4118426e-01  -6.4659695e-01  -4.3083142e-01  -9.3573586e-01  -3.9235049e-01  -9.3229196e-01   5.3479033e-01   4.4405625e-01  -6.1837396e-02  -7.7005032e-01   7.2224335e-02   9.1814862e-01  -4.1190184e-02   2.5307133e-01   8.8455065e-01   5.4094129e-01  -1.5130768e-02  -6.8137200e-01   4.8101559e-01  -5.2585050e-01  -6.5170887e-01  -6.0708321e-02  -8.1460778e-01  -4.9839658e-01   6.1305616e-01  -9.9744739e-01   5.3430421e-01  -6.4248773e-01   2.1766532e-01   2.1360566e-01   1.2743159e-01   7.2047681e-01   9.7102108e-01   3.2768564e-01  -1.3817397e-01   5.3808501e-01   3.1118589e-01  -2.2890609e-01  -5.2806146e-01   7.7364316e-01  -3.6819991e-01  -8.2725065e-01   9.9142722e-01  -8.6834302e-01  -7.5349256e-01   4.4599937e-01   7.2914822e-01   8.6140033e-01  -8.6758409e-01  -8.6838031e-01  -4.7405602e-01   6.3622556e-01  -8.2346124e-01  -1.2513846e-01  -5.6759987e-02  -8.4894628e-01  -6.7866271e-01   3.2662169e-01   3.6681503e-01  -7.9935569e-01  -9.5586463e-01   5.4785794e-01  -5.8199925e-01   7.9760735e-01  -6.6623331e-02   2.2989856e-01   7.1448026e-01  -7.9846574e-01   3.8186253e-01   7.8745035e-01   8.0316900e-01   1.7867692e-01  -8.4109385e-01   9.4413966e-02   6.0497908e-01  -4.8575037e-01   5.3433485e-01  -4.5882794e-01   9.1165240e-01   1.3969547e-01   4.6566287e-01   6.1338619e-01   7.7299629e-01   7.3657829e-02  -2.0563535e-01   6.4695826e-02  -2.7246731e-01   8.7374025e-02   9.2595905e-02   3.3317025e-01   6.0239292e-01   2.9183043e-01  -1.4781219e-01  -3.4707335e-01   1.7282491e-01   1.5610100e-01   1.8027259e-01   4.9286550e-02   3.8017087e-01  -4.3430985e-01  -8.8888563e-02   8.9695920e-01  -9.5597514e-01  -6.0078502e-01   4.0187715e-01  -2.0501467e-02   3.2524775e-01   9.3416800e-01   3.5780822e-01   6.0527359e-01  -7.1525544e-01  -3.3228100e-01  -2.1881319e-01   9.5789021e-01   8.2070431e-01  -5.2183182e-01   7.8471794e-01  -1.8208976e-01   8.3204207e-01  -7.8836704e-01  -1.8810498e-01  -5.3403269e-01  -7.7446725e-01   2.6874202e-01   2.6144514e-01   1.0238636e-01  -1.2946560e-01  -3.9346827e-01   9.5221293e-01  -9.2046730e-01   1.8104447e-01  -5.2064750e-01  -5.1777576e-01   8.5446658e-01   2.6983748e-01   8.2459649e-01  -9.0885351e-01  -5.0709639e-01   9.8182721e-01   3.6411690e-01  -2.7279575e-01  -5.9190880e-01  -2.2916288e-01   7.4493223e-01  -7.9914009e-01   3.4766421e-02   8.6645505e-01  -8.2588236e-02  -4.8674549e-01  -7.9789834e-01  -2.5613879e-01  -8.0163970e-01   8.0536910e-01   4.0253338e-01   9.4580157e-01  -8.9314217e-01  -7.9106086e-01   6.3807445e-01  -1.0775702e-01   6.9298587e-01  -6.4852921e-02  -9.3571143e-01   9.5251506e-01   7.3842103e-01   5.6150049e-01  -5.4156302e-01  -2.2253627e-01   3.7038584e-01   6.3669058e-01  -3.1144683e-01   1.8786655e-01  -3.9804424e-01   5.3720924e-02   6.7569629e-01  -9.2603442e-01   1.5379054e-01  -5.1598597e-01   5.6495046e-01  -7.2217724e-01  -8.3641057e-02  -5.9473745e-01  -5.8175340e-01  -4.9509521e-01   5.6494516e-01   7.2316601e-01   2.8716692e-01  -9.9049992e-01   6.1608884e-01   9.5060660e-01   5.7730596e-01  -3.4201940e-01   2.8462584e-01  -2.7073940e-01   6.0599699e-01  -2.8558485e-01  -9.6258447e-01  -1.0487601e-01   7.7452396e-01   7.1839557e-01   3.4628819e-01  -2.8683312e-01   1.7336410e-01   9.6933217e-01   1.8222475e-01   1.0383588e-01  -7.5426738e-02   5.1198184e-01  -2.6189681e-01  -2.4717139e-01   1.1698788e-01   5.7688335e-02   8.6856206e-01   2.2124376e-01   9.6685608e-01  -1.8520782e-01   1.1328194e-01   4.7325919e-01  -3.8133326e-01   5.9361896e-01   5.4611971e-01   4.2463503e-02  -5.5969190e-01   8.0757111e-01   2.6287874e-01   6.9635884e-01  -6.4745616e-01   4.1915069e-01  -6.9367685e-01  -9.5500777e-01   4.9983742e-01   6.2411520e-01  -7.1926297e-01  -6.4821517e-01  -5.4206449e-01   3.1531470e-01   6.0807610e-01   3.8222558e-01   9.9305620e-01   4.3508548e-01   4.0822677e-01   9.3861418e-01  -5.0244632e-01   3.4037503e-01  -9.3585719e-01  -2.6929686e-01   7.4653995e-01  -6.3292808e-01   5.2508250e-01   4.8032018e-01  -2.1090701e-01  -3.8429003e-01   2.1222181e-02   9.1072043e-01   8.1475544e-01  -1.9429797e-01  -3.6905589e-01  -2.2667138e-01   4.5480692e-01  -7.4382000e-01  -4.6884574e-01  -2.4983148e-01  -1.9174854e-01   4.9794402e-01  -6.1583804e-01  -5.5016127e-01   1.4704600e-01   4.8652231e-01  -9.5836690e-01   7.2728420e-01  -3.5573406e-01   8.0123672e-01  -9.3773084e-01   7.2001191e-01   8.4858823e-03  -9.5339703e-01  -8.6474232e-02  -5.8746659e-01   7.6258786e-01  -4.8847913e-01  -1.6743334e-01   6.8662291e-01  -5.7665246e-01   5.5978663e-01  -1.5819124e-01   4.7248865e-01  -3.3581750e-01  -5.9334392e-01  -4.1255408e-01   6.1055939e-01   7.5700038e-01   7.3751628e-01  -8.5577169e-01  -8.4218819e-01  -5.8941595e-01   5.2926285e-01   5.9035962e-01  -4.4907721e-01  -6.8865271e-01   1.4266907e-01   5.3442198e-01   8.5027182e-01  -7.0740688e-02  -4.7740126e-01   8.1981613e-02  -7.0469784e-01  -7.5935174e-01   3.3493177e-01   6.3718650e-01  -9.7279063e-01   6.1279290e-01   4.1138439e-01   6.2343054e-01   2.4455099e-01   5.7310496e-02   9.7650585e-01   5.0045502e-01  -2.0553101e-01  -6.3247370e-03   7.6771418e-01  -5.6840191e-01   5.6388776e-01   9.3698863e-03   8.6115227e-01   3.9589992e-01  -5.3496050e-01  -4.0663939e-02   1.7909711e-01   3.5113194e-01   6.0845810e-01   9.9561783e-01  -8.0800199e-02   3.7949887e-02  -7.0641684e-01   5.4235754e-01   9.6213842e-01   4.5094444e-01  -7.1340029e-02   4.5433566e-01   7.4936796e-01   4.6376452e-01  -6.1314851e-02   9.4732524e-01   6.0151690e-01   1.4949490e-01   9.0998833e-01   2.2332626e-01  -8.7057579e-01   4.8453673e-01  -5.9223507e-01  -1.1139811e-01  -3.8378328e-01   9.4370063e-02  -1.0007131e-01  -5.4130461e-02   7.1076686e-01   7.9439471e-01  -1.5022968e-01   3.8979250e-01  -2.0504614e-02  -9.2196995e-01  -8.1600290e-01   8.6609390e-01   1.4376065e-01   2.4456115e-01  -8.2539148e-01  -9.3099715e-01   5.0199808e-01  -3.9638596e-01  -2.5955711e-01  -4.4420372e-01   3.5512158e-01   8.2183909e-01  -7.0356803e-01  -5.8716032e-01  -7.9553764e-01   1.7257184e-01  -2.4605694e-01   2.4538549e-01  -7.4400817e-01  -3.2264238e-01  -9.4815892e-02   8.3699775e-02   2.4954716e-01  -3.6184853e-01  -3.6435502e-01   7.1182876e-01   7.1939437e-01   2.0447989e-01  -1.3474232e-01   4.5675665e-01   4.1937401e-01  -2.0337213e-01   8.8928988e-02  -9.9934099e-02  -3.0515884e-01  -5.5780066e-01   2.4831667e-01   9.9807232e-01   1.4981327e-01  -8.3276341e-01  -3.5922010e-02   2.9540165e-01  -9.8988139e-02  -1.8862409e-02  -2.1369894e-01   6.4474906e-01  -4.3162193e-01  -4.2782333e-01   3.4704317e-01   1.7354606e-01   6.9234082e-01  -7.6986500e-01  -1.7254313e-01  -6.1455775e-01  -2.8660177e-01   9.4105219e-01   7.0151906e-01   5.6596568e-01  -5.4601661e-01   4.7907272e-01   9.4171164e-01  -1.8709440e-01  -5.6445593e-01  -4.6097311e-01  -1.4604376e-01   7.1191919e-01  -1.6259283e-01   4.6724809e-01   2.6190964e-01   1.8525865e-02   8.0033477e-02   8.3497882e-02   3.0781833e-01   2.9340583e-02  -1.1205626e-01  -1.9383444e-01   9.1412927e-01  -8.6829972e-01  -6.2999986e-01   3.8328474e-01  -7.2612344e-01   9.7454441e-01   7.4706238e-01   7.3716115e-02  -4.0145363e-01  -7.4650035e-01  -1.2727335e-01  -7.7693750e-03   9.1288379e-01   3.2990165e-01   2.1192539e-01  -1.5872570e-01  -5.5743510e-01  -5.8646039e-01   3.4234535e-01  -4.0274580e-03  -6.7590159e-01  -1.6585267e-01   6.5673811e-01   2.3453498e-01  -7.6797198e-01   9.6653843e-01  -6.9710723e-01  -2.9298714e-01  -4.1676701e-01  -7.3460771e-01  -4.4679681e-01   1.8179673e-01   8.9167970e-01   2.2212349e-01  -2.9148147e-01  -6.2099741e-01  -4.7645805e-01   1.9250715e-01   4.2636111e-01  -4.0480349e-01  -1.5445519e-01  -3.0711884e-01   4.3006478e-01  -4.6332478e-01  -8.5023915e-01  -6.5194667e-01   1.8661694e-01  -6.5876149e-01  -5.5436180e-01  -7.9448390e-01   3.7707261e-01   4.3172116e-01   5.3188480e-01  -3.9034405e-01  -8.6758680e-01  -9.3349897e-01   6.8311293e-02  -5.8405063e-01  -7.9360926e-01  -8.8049908e-01   6.0027287e-02   2.6422028e-01  -4.5646708e-01   7.8265202e-01  -7.8292657e-01  -4.9757750e-01  -6.1384034e-01   5.3283590e-01   5.9311292e-01   3.2842017e-01   5.6990740e-01  -3.2007360e-01  -2.7242066e-02   9.9880748e-02  -4.7744308e-01   4.4251326e-01  -3.2020324e-01  -4.1211086e-02  -6.8580163e-01  -2.2734696e-01   5.8596746e-01  -9.5086200e-01  -3.5306302e-01   7.5385122e-01   3.6367871e-01   2.3538393e-01  -2.6956752e-01   8.6389512e-01  -3.6192152e-01   7.9537694e-01   1.7431257e-01   5.7464801e-02  -8.8232334e-01  -7.8926783e-01  -6.7122963e-01   1.4477481e-01  -2.0231721e-01   2.8937403e-01  -8.8596289e-01   9.3315907e-01   6.7896148e-01   4.0431935e-01   5.3393967e-01   7.0064208e-02  -9.9586960e-01  -7.2422936e-01  -4.2407280e-01  -8.9899915e-01  -2.4408402e-02   1.8845979e-01  -5.6240659e-01  -2.2664333e-01   8.8625360e-01  -4.0480403e-01  -7.6482132e-01   6.2583155e-01   2.1941261e-01   9.6099010e-01   5.4267639e-01   2.3950885e-02  -9.1763155e-01  -9.7376103e-01   7.4821710e-01  -9.2942657e-01   7.2737488e-02  -1.7659593e-01  -8.3897558e-01  -4.9481726e-01   7.3615765e-01   5.1549023e-02  -9.0270751e-01   7.9041236e-01  -5.1401053e-01   4.4276260e-01   5.1994585e-01   8.0919636e-01  -7.2290313e-01   4.8203562e-01   6.2358109e-01  -7.6758230e-01  -3.3418928e-01   7.8505293e-01   1.7753236e-01  -6.3714428e-01   1.9997076e-01   1.5088891e-01  -3.3912406e-01   7.2871440e-01   6.2540213e-01   1.9006177e-01   9.5405055e-01  -8.3984731e-01  -7.0308530e-01  -9.0976636e-02  -8.6441786e-01  -6.2172585e-01   7.6089907e-01  -1.0705873e-01  -8.6712913e-01   7.2965944e-01   5.4305262e-02  -7.1711796e-01  -4.1675609e-01  -9.3522590e-01   8.6470498e-01   6.4713235e-01   4.1457790e-01  -5.2017066e-01   6.1238124e-01   4.8118526e-01   1.7563608e-01  -2.9866155e-01   7.2966831e-01   3.1790979e-01   1.9487549e-01   9.5915456e-01   3.5640119e-01  -7.6111682e-01  -7.4081335e-01   2.3057077e-01  -2.9087583e-01  -7.8619371e-01  -3.9590865e-01  -1.3066322e-01  -3.0745751e-01  -2.6559298e-01   9.6720951e-01   1.7616948e-01  -1.6992231e-01   6.6070973e-01  -3.0061548e-01   4.8817476e-01  -9.6952395e-01  -3.5613144e-01  -3.0328859e-01  -9.5338568e-01   9.0087729e-01  -6.0639825e-01   2.7155150e-01  -9.1283596e-01  -3.1354097e-01   4.7318020e-01   8.0578449e-01   1.6055756e-01  -1.2856894e-01   2.4800027e-01   8.8103621e-01   7.5578520e-01   6.4911876e-01   4.7446666e-01   3.9928659e-01   2.3357818e-01   7.3972591e-01  -9.1511610e-01   3.3544748e-01   2.7863758e-01   8.5322552e-02   4.0076203e-01  -6.3399774e-02   4.0191969e-01  -9.8859515e-01  -1.6201320e-01  -4.6783728e-01   9.6199818e-01   7.2715553e-01  -9.8926932e-01   7.8544323e-03  -4.5343355e-01  -3.4798887e-01  -6.8416216e-01   6.7206320e-01  -1.3047696e-01   5.6477155e-02   8.8054013e-01  -8.0896559e-01   9.9023148e-02   6.6339603e-01  -1.5962418e-01   4.1310857e-01  -7.5409693e-01   8.0367654e-01   6.9368372e-01   4.4437437e-01  -9.6572733e-01   9.9407437e-01   8.7371914e-01  -4.2300731e-01  -4.8718419e-01  -4.7235166e-01  -9.5176697e-01  -9.2244811e-01  -4.4756737e-01   2.2456051e-01   2.2104284e-01   2.8481638e-01  -4.5045140e-01  -2.6162559e-01   9.1481302e-01  -9.1896894e-01  -9.4052698e-01   9.9101318e-01  -8.3046706e-02  -7.5148280e-01   3.6200481e-01   1.9651265e-01  -2.6196193e-01   1.5538575e-01   3.9225693e-01  -5.2402897e-01  -6.1673578e-01  -8.6188975e-01  -6.2178213e-01  -5.3621352e-01  -2.9163082e-03  -4.9333136e-02   9.3730235e-01   4.7699779e-01  -1.0239557e-01  -6.8808819e-01  -1.4558151e-01   8.7811743e-01   1.6789759e-01   6.0399839e-02   8.4281408e-01  -9.7836745e-01   3.4951860e-01  -7.1306315e-02  -8.2269402e-01   9.3094035e-01  -9.8672784e-02  -9.8602354e-01  -4.7795390e-01  -5.3023431e-01  -9.1114239e-01   7.7065094e-01   3.2319325e-02  -7.4671875e-01  -3.3047873e-01  -3.0210640e-01   7.6611793e-01   8.0454644e-01  -8.3977244e-01  -7.5515195e-02  -2.7814158e-01   1.4825994e-01   4.6645644e-01  -6.4120627e-01   3.8060380e-01  -1.4097733e-01   5.1272719e-01   2.2144012e-01  -6.8452300e-01   8.4440917e-01   5.8736220e-01  -6.8877051e-01  -5.1828754e-01   7.9841074e-01   7.1171275e-01   7.6390688e-01   6.1986469e-01   4.4770342e-01   5.9237448e-02  -4.6356141e-01  -8.4004307e-01  -6.9789952e-01  -7.5834514e-01   7.7961333e-01  -7.7886895e-01  -9.9717116e-01  -9.5851337e-01   1.8233879e-01  -3.2179514e-01  -8.8033318e-01  -5.6429554e-01  -7.9541264e-01  -8.7163372e-01   7.9156906e-01   9.8078712e-01   2.0893310e-01   4.2615247e-01  -5.1191123e-01  -5.6784688e-01   3.9937008e-02  -3.5502664e-02   2.8542409e-01   4.1425948e-01   6.2047535e-01  -8.3909937e-01   5.1398826e-01   6.5830928e-01  -7.9137295e-01  -2.0077781e-01   6.4449742e-01  -9.9882520e-01  -1.2291165e-01  -8.9084903e-01   1.3335540e-01  -8.1640379e-01   4.9279635e-02   4.3930177e-01  -4.0056318e-01  -4.4824890e-01  -6.1504029e-01   5.8362234e-01   4.5482801e-01   8.8389628e-01   6.9345166e-01  -4.6392640e-01   5.3541306e-01   6.3126429e-01   2.6783699e-01  -1.7130017e-01   5.1503644e-02   8.6526237e-01   6.2372486e-01  -9.8897339e-01  -9.0561990e-01   2.6132200e-01  -1.5194418e-01  -2.8183411e-01  -7.9476140e-01  -6.1527995e-01   5.1067485e-01   9.5026445e-01  -2.5540109e-01  -2.8143664e-02  -7.8415610e-01  -2.5747184e-01   8.8546969e-02  -6.4836868e-02   8.9215009e-01  -3.0434296e-01   1.9254789e-01  -8.5815490e-01   9.7760203e-02   8.4245055e-01   1.2462106e-01   9.1690555e-01   1.0944081e-01  -9.9344598e-01   2.8075511e-01   6.6522339e-01   8.6893056e-01   7.2033036e-01   2.0295924e-01  -3.3201826e-01  -4.8228163e-02   2.5929200e-01   6.5303532e-01   2.7176436e-01   2.5392200e-01  -7.3564103e-01  -4.1900665e-01   2.8065929e-01   8.5804515e-02  -5.6858961e-01  -1.3299680e-01  -6.1058881e-01  -8.2951954e-01  -8.8544269e-01   7.6469492e-01  -3.6391277e-01   2.2670043e-01  -5.3865157e-01   7.9669488e-01  -5.3370749e-01  -3.7467806e-01  -1.0287441e-01  -3.9816070e-01   7.8617063e-01   2.6603458e-01   4.2594012e-01  -7.2788299e-02   5.6834886e-01   3.9496456e-01  -3.2323073e-02  -7.8215441e-01   6.1809337e-01  -6.2023467e-01   8.9870172e-01  -3.1784377e-01   4.7713474e-01   6.8440615e-01  -4.9977331e-01   4.1853979e-01   5.2705968e-01  -4.6508561e-01   2.8664349e-01  -2.1847096e-01   8.6629929e-01   6.6710451e-01  -4.9823085e-01  -8.8464599e-03  -4.7763094e-01  -8.3648733e-01   3.1467687e-01  -3.4486851e-01  -9.1523743e-01   7.3099455e-01  -5.6880783e-01  -2.8025346e-01   9.1267734e-01   2.5443477e-01   9.4177275e-01   4.7991988e-01  -2.0685065e-01   4.7965075e-01   3.4833206e-01   1.6596238e-01   2.0137502e-01   5.4838180e-02  -5.5619385e-01   5.7255602e-01   6.6043400e-01   4.4205772e-01   8.9585306e-01  -9.3103263e-01  -8.9101637e-01  -9.0789491e-01  -1.5404434e-01   8.5410046e-01   5.8584160e-01  -7.8686761e-01   8.2631075e-03   8.6766332e-01   7.3160290e-01   1.9151547e-01   7.3094058e-01   2.1234840e-02   1.5737838e-02   7.1087860e-01  -8.8013026e-01   4.0252776e-01  -8.5189670e-01  -7.1771783e-01   7.7687577e-01   1.4465728e-01   7.3744792e-01  -4.5812588e-01  -3.1567345e-01  -5.9186276e-01   1.7573550e-01  -2.2262375e-01  -8.0596365e-01   7.3776795e-01  -2.7933459e-01   1.3109388e-01  -7.9434144e-01   8.1362728e-01  -5.8680058e-02  -7.8495519e-01  -1.8919910e-01   6.7278123e-01  -7.5776542e-01  -7.6384508e-01  -3.0863411e-01   6.8920880e-01  -1.3324317e-01   2.0579795e-01   7.3310118e-01   1.8229780e-01   5.7177422e-01  -4.4597107e-01  -2.1551425e-01   4.8363134e-01  -3.0842769e-01  -4.1468127e-01   9.3698701e-01  -9.3367859e-01  -6.4849590e-01   3.4984220e-01  -6.7002422e-02  -4.9472456e-01   2.3975747e-01   6.9063017e-01  -4.3237395e-01  -2.3179900e-01  -9.6432389e-01   5.1494505e-01   6.5696556e-01  -6.8806694e-02   3.3271120e-02  -3.7331756e-01   1.0919243e-01  -3.7580490e-01  -9.5937936e-01
   8.2232885e-01  -7.0876217e-02   5.1786866e-01  -1.4099277e-01   4.9847905e-02   4.8272518e-01  -4.6982468e-01   6.5577607e-03   5.0484147e-01   8.9124918e-01   7.0720269e-01   5.2342838e-01  -9.3752266e-01   9.9007952e-01   7.0442735e-01  -4.9441037e-01  -2.0911521e-01   6.3814002e-03  -4.4764396e-01   8.8810286e-01  -7.1711502e-01  -7.2082033e-01   7.5940999e-02  -3.9212842e-01  -4.3463288e-01  -9.6298778e-01  -1.7225773e-01  -5.8134946e-01   6.1010163e-02   2.8459770e-01   1.8364609e-01   1.9449879e-01  -5.1415649e-01   9.8052655e-01   3.4354751e-01  -4.7493868e-01  -1.3183671e-01  -4.1004366e-01  -4.9696841e-01   2.3669573e-01  -3.7039065e-01  -9.3077485e-01   7.2498895e-01  -7.5626991e-02   2.9246091e-01   2.5975256e-01  -1.9856678e-01   8.9534785e-01  -3.2342951e-01   9.1479747e-01   5.8583808e-01  -7.3666267e-01   7.8993421e-01   1.8268013e-01  -1.6430182e-01   5.7567295e-01   7.1502629e-01   4.3900993e-01  -8.3935771e-01  -6.6722311e-01  -2.6060492e-01   4.0404935e-01  -3.5659961e-01   1.1956861e-01  -2.4121577e-01   3.2817777e-01   3.1097739e-01   9.2757503e-01  -4.0700357e-01  -4.6593980e-01   6.8312234e-01  -4.8583527e-01   2.9911214e-01  -4.6328528e-02   2.3586452e-01   6.0889480e-02   5.9376365e-01   2.5196373e-01   2.1102058e-01  -8.9965957e-01  -9.6192508e-01   8.6789583e-01   9.5019446e-01   8.4380478e-01   3.8999752e-01   7.8153304e-01   8.8976613e-01   9.0181389e-01   9.9110057e-01  -9.6622329e-01  -8.7073114e-01  -1.3795090e-02   4.6966064e-01  -1.2138653e-01   4.3786164e-01   3.2462483e-01   5.8030043e-01  -7.7107740e-01   1.6767878e-01  -9.6010322e-01  -1.8401920e-01  -4.0228648e-01   9.2417818e-01  -7.5917507e-01   8.3122458e-01   7.5331838e-01   2.0066460e-01   5.9410846e-01  -9.6119132e-01   5.8750370e-01   5.9334825e-02  -1.1518407e-01   1.9165683e-01   8.9180728e-01   3.8808838e-03   6.5900058e-01   5.8619917e-01   3.1914383e-01   6.1765084e-01   8.6825381e-01  -6.4227549e-01  -6.2638759e-01   7.4164808e-01  -2.7064528e-01   9.5900364e-01  -3.5674376e-01   6.3127412e-01   1.1319552e-01  -5.6195100e-01   8.4017080e-01   9.9842617e-01  -9.2027940e-01  -6.9149312e-01   9.8031844e-01   4.2551200e-01  -1.7964027e-02   3.1434337e-01   2.2523696e-01  -6.8612717e-01   2.1888855e-01  -9.5469901e-01   8.5851187e-01  -5.3083359e-01  -2.2695062e-01  -3.6397527e-01   5.1883740e-01  -6.6459636e-01  -9.2954974e-01   3.1843521e-02  -5.1573102e-01  -9.2070615e-02   3.9467877e-01  -8.7246302e-01  -2.9205472e-01  -8.2078490e-01   4.7740088e-01   6.3086430e-02  -2.5270946e-01   9.0830339e-01   9.9094227e-01  -4.9740399e-01  -7.7293411e-01   4.8411695e-01  -9.8163173e-01   1.3046129e-02  -9.7201390e-01  -4.8736036e-01   2.3702677e-02  -9.7208482e-01   2.4729239e-01  -9.3718348e-01   5.6210747e-01  -1.1907423e-01   4.7573341e-01   3.4686692e-01  -7.9880441e-01   9.8335810e-03   9.5643217e-01  -2.5254841e-01   7.3429300e-01   8.3601776e-01  -2.3571755e-01  -8.3605725e-02   4.4235831e-01   8.5412149e-01   8.8730000e-01   6.1950070e-01   5.9953680e-03  -8.4414918e-01  -5.4292169e-01  -6.9427028e-01   9.7461101e-01  -9.8923694e-01  -8.6562270e-01   7.1316832e-02  -2.6186047e-01  -1.9207520e-01   9.2074342e-01  -1.8790544e-01  -8.1895171e-01   5.1783405e-01   7.0649572e-01   2.4740917e-01   2.6850146e-01   1.1749511e-01   4.0788231e-01  -4.7729488e-01   6.5537069e-02  -3.4076389e-01  -4.9963784e-01   2.6213775e-01   8.6893430e-04   5.8291546e-01   9.8315457e-01  -3.6280822e-01   6.1743447e-01   3.0357362e-01  -1.8119733e-01   6.7166668e-01  -5.5478293e-01   2.3417343e-03  -7.6676145e-03  -2.3936795e-01   5.6960661e-01   7.7004835e-01  -9.2059540e-02  -4.4803325e-01  -9.3931962e-01   8.1198359e-01  -2.8387460e-01  -6.3447028e-01   2.1959139e-01   6.7025880e-01  -2.3075861e-01  -3.4551344e-01   5.6440536e-01  -6.7880002e-01   4.1480656e-01   2.2096162e-01   6.3733178e-01   6.7347865e-01   1.3563387e-01   2.7958364e-01  -7.4778744e-01  -3.0101275e-01   7.4396045e-01  -6.5302042e-01   5.2168640e-01   3.0031075e-01  -8.4597419e-01  -8.7032041e-01  -2.6905921e-01  -4.6306787e-01  -8.4313555e-01   8.1058599e-01  -9.1644629e-01   6.6527782e-01   5.3170915e-01   5.8557149e-01  -8.2513722e-01  -6.6647953e-01  -3.7243490e-01   3.4796944e-01   7.1359220e-01  -5.8242056e-01  -8.9207641e-02   6.9201716e-01  -8.2920369e-01  -3.1534174e-01  -2.8312526e-01  -2.9851427e-01   4.6758303e-01   4.6043480e-01  -8.0401986e-01   7.2952596e-01  -7.9673571e-01  -3.2589099e-01  -9.4298330e-01   7.6117117e-02  -1.0730162e-01  -4.1906489e-01  -4.4021438e-02  -7.0799979e-01  -1.7697267e-01   6.5951890e-01   7.0108663e-01  -6.4119232e-01  -7.5776831e-01  -7.7706562e-01   8.1970172e-01  -1.9224968e-01  -4.9507917e-01  -2.0120217e-01   6.9426916e-01  -1.2269736e-01   1.5677406e-01   8.0792097e-01  -5.4278327e-01  -8.9872508e-01   4.1216073e-01  -1.8488601e-01   8.5845039e-01  -1.4186349e-02   9.3296762e-01  -1.9447996e-01  -4.4433846e-01   6.9064966e-01   5.4683251e-01  -3.6560695e-01  -7.2874781e-01  -4.8996804e-01   6.1538695e-01  -7.9293644e-01  -3.0345598e-01   5.7784762e-03   3.8144145e-01   2.7619691e-01  -7.5545490e-01  -6.5016195e-01   4.4524457e-01  -1.2292676e-01   4.6876430e-01   1.6066916e-02  -6.2691299e-01  -9.1763962e-04   2.4172249e-01  -8.0003918e-01   9.0683867e-01   3.6685249e-01  -8.9898296e-01  -4.4245727e-01  -8.4229444e-01  -4.1702391e-01  -9.4311159e-01   8.1102581e-02  -7.5432870e-01  -7.0581852e-02  -2.9941782e-02  -2.3313152e-01  -1.0334152e-01  -6.2050743e-01  -9.6724599e-01   9.9954869e-01  -8.8310205e-01   5.7582255e-01   6.4002853e-01   2.8731534e-01  -7.4535601e-01  -8.6661583e-01  -7.8746145e-01   4.5338470e-01   4.3618515e-01   1.7425619e-01   5.6888647e-01  -8.1067705e-01   8.0037262e-01  -5.8757689e-01   7.5054668e-01  -5.1712165e-01  -2.9667083e-01  -1.6669244e-01   3.2028213e-01  -6.0454490e-02  -3.8722862e-01  -2.9101183e-01  -2.8587246e-01  -5.3507043e-01  -1.9583550e-02  -8.5621245e-01  -4.5811554e-01   4.0722136e-01   6.4416807e-01  -6.5740228e-01   6.1613741e-01  -5.4255318e-01  -2.1705331e-01  -2.5445991e-01  -9.5167742e-01  -4.5759193e-02  -1.3921009e-01  -8.3095374e-01   4.1419818e-01  -2.7812221e-01  -3.5928141e-01  -4.8740664e-01   9.1385659e-01  -8.1448633e-01   1.9869980e-01  -9.2539890e-01  -5.2867454e-01   2.9641441e-01  -7.1323713e-01   3.8758624e-01  -9.4816609e-02   9.8769408e-03   5.9339763e-01   4.1152335e-01   5.2620746e-01  -2.8805199e-01   1.1293470e-02  -2.8659350e-01  -2.6229841e-01  -5.6059766e-01   1.6656751e-01   8.8745589e-01  -9.5106925e-01  -7.3243505e-02   2.9722658e-01  -9.6697145e-01   1.3355497e-01  -6.6080982e-01  -5.2473481e-01   7.9039611e-01   8.2370331e-01  -3.5131895e-01  -6.6715166e-01  -6.6939822e-01   1.6592009e-01  -7.3401835e-01   2.7525535e-01  -1.1088376e-01  -7.9861302e-01   9.9123076e-02   2.3955038e-01  -6.9742175e-01  -9.1664696e-01  -4.1272704e-01  -2.4346409e-02   3.0602699e-01   5.1484863e-01   4.5115042e-01   8.7174271e-01   3.4878406e-01   6.7454778e-01  -5.8069414e-01   3.1328046e-01  -4.8959359e-01  -4.8161111e-01   2.1106004e-01  -3.9675985e-01  -9.1962337e-01  -7.8475510e-01   9.5651195e-01  -1.8915533e-01   2.0599859e-01  -1.0336822e-01   7.6128025e-01   6.4705801e-01   2.6434998e-01  -7.1241071e-01  -9.2098909e-01   8.5044054e-01  -2.1251304e-01  -3.9046701e-01   1.9190721e-01  -1.8635946e-01  -8.8054500e-01   2.0150219e-04   9.5617340e-01   1.9912420e-01   1.2528710e-01  -1.1696460e-01   6.5543421e-01  -3.7257475e-01  -9.3400374e-02   3.9076529e-01  -4.4161256e-01   5.0770141e-01   5.1716994e-01   9.5445577e-01   4.7064388e-01  -5.8496377e-02  -6.9943506e-01   5.9424614e-01  -3.8197522e-01   2.1291128e-01   3.8190890e-01   3.8627751e-01   9.7952673e-01   2.7131383e-01  -1.2963629e-01   4.1448713e-01  -1.2514908e-01   2.9042972e-01  -5.8858635e-01   1.1911117e-03   5.7881267e-01   2.6260935e-01  -8.8795865e-01   4.0412978e-01  -1.2036136e-02  -2.7455976e-01   8.2713296e-01  -5.8105464e-01   2.2946652e-01  -3.7169823e-01   9.5682087e-01  -1.3692574e-01   6.3604225e-01  -3.0350696e-02   4.7043929e-01  -2.1144998e-01   1.3343944e-01   8.1488668e-01  -9.1327697e-01   2.2593301e-01  -7.1665673e-01   8.8730628e-01  -7.3463485e-01   3.7046575e-01   3.2857152e-01   7.0748529e-01   5.9984453e-01  -7.4230576e-01  -1.4138776e-01  -2.3970276e-01  -3.9537619e-01   1.8616579e-02   5.4464817e-01   8.5950203e-01   7.7191610e-02   1.4563751e-01  -9.7041542e-01  -9.3259057e-01   6.6863238e-01   4.9812406e-01   1.3889527e-02  -6.5513044e-01   7.7652107e-01  -7.5807278e-01   7.1144477e-01   5.8363347e-01  -7.0158220e-02   5.2511950e-01   4.5721823e-02  -6.0162601e-01   3.2066733e-01  -5.9451880e-02  -8.1106425e-01   6.0763586e-01  -3.6297622e-01  -9.8549546e-02   8.3401971e-02   5.3726180e-01   5.2016017e-02   5.2765472e-01  -1.0514134e-01  -7.3167186e-01  -5.1711388e-01   9.6551951e-01   3.3594611e-01  -7.2998809e-01   7.1014567e-01   3.1892681e-01   2.3616616e-01  -5.4623351e-01  -3.1597865e-01   9.8562891e-01  -3.4465276e-02   7.3328358e-01   4.0679407e-01   1.8967726e-01  -8.8124637e-01   3.0757976e-02  -6.7120524e-01   3.8414738e-01  -4.9633649e-01   2.5713362e-01  -7.5948795e-01  -6.3051191e-01  -9.0021563e-02  -8.1560489e-01  -6.8933213e-01  -6.8400513e-01   6.8752312e-01  -2.2049330e-01  -9.8443985e-01   7.6059900e-01   1.6351856e-01  -4.3574769e-01   5.8860199e-01  -3.4222665e-02  -3.2399403e-01   7.9502026e-01  -9.3523673e-01   4.9180381e-01  -8.1048184e-01  -6.8029436e-01   5.2387782e-01  -4.7786074e-01  -6.1330819e-01   5.4569155e-02  -7.7682828e-01   8.7999917e-01  -1.5965911e-01  -6.4759842e-01  -6.8194991e-01  -6.3944725e-01  -6.5775653e-01   6.2930911e-02   4.7528974e-01   5.3223551e-01  -1.6601127e-01   6.3006995e-01  -1.3302914e-01   9.7084382e-01  -5.2678433e-01   2.8158011e-01   1.9858769e-01  -5.2199841e-01   2.9203303e-01  -4.9847334e-01   7.1477745e-01  -1.4205344e-01   1.7622633e-01   8.7668744e-01   3.9177312e-02  -9.0025955e-01  -8.2103049e-01  -4.5575650e-01   7.7790442e-01   6.8509738e-01  -4.2416390e-01   1.4964462e-01  -6.6732267e-01   5.0949459e-01  -3.4849733e-01   7.6686686e-02  -5.1991977e-01  -5.7422540e-01   7.3344054e-01   2.6007432e-01   4.2122431e-01  -9.8883049e-01  -5.4613866e-01   7.8990611e-01   2.3197449e-01   4.4011256e-01   5.2666235e-01  -1.5076660e-01  -6.9243263e-01   7.2156917e-01  -5.9780009e-01  -4.4226034e-01  -4.9757703e-01   2.8561307e-01  -8.3100375e-01  -4.6446898e-01   8.4810787e-01  -3.9423233e-01  -2.4089532e-01   3.9105417e-01   4.5420898e-01  -6.1570383e-01   1.0259381e-01   2.0955045e-01  -9.0719011e-01  -7.9483821e-01  -2.9614012e-01  -5.4139134e-01   2.1005930e-01  -8.7387160e-01   5.1596910e-01   7.6719009e-01   2.4158764e-01   9.7360630e-03   7.9424096e-01  -3.0177423e-01  -4.7740482e-03  -7.0607958e-02  -9.1084571e-01  -1.5459676e-01  -7.6040864e-01   8.3043118e-01   5.3794278e-01   4.1677586e-01  -7.0542900e-01  -8.2055777e-01   1.0515162e-01  -1.0487879e-01   7.5083572e-02   1.5124435e-01  -2.3567224e-02  -4.3810508e-01  -2.5662563e-01  -1.1937595e-01  -1.0808412e-01   6.6589774e-01   1.5380107e-01  -8.6129824e-01   4.6742010e-01   6.5869364e-01  -2.9023556e-01  -6.1398592e-01  -8.1752828e-02  -3.7237091e-01   3.2259800e-01   4.9492499e-01  -5.1749315e-02   6.3444615e-01  -9.0520740e-01   8.7826443e-01  -5.1698932e-02   3.2348072e-02  -1.6240004e-01  -6.6660873e-01   4.5105693e-01   4.2678033e-01   7.0949844e-04  -3.0356267e-01  -6.4583078e-01   8.2013867e-01   6.6705220e-01  -2.4651363e-01  -3.9508482e-01   5.2317286e-01   7.7980831e-01  -1.6280459e-01   1.9850072e-01  -2.6588739e-01  -2.9370356e-01  -1.8860756e-01  -3.4997445e-02   1.3842906e-01   8.7458918e-01  -4.0375233e-01   5.3478206e-01   1.2130148e-01  -4.6060407e-01   4.9742895e-01   6.9756753e-01   6.0842780e-01   8.4554152e-01   9.9316887e-01   7.4937380e-01  -2.7796795e-01  -2.4981363e-01  -5.8720271e-01   3.2099673e-01  -2.4951594e-04   9.0827645e-02   3.2156850e-01  -1.5431966e-01  -6.1179877e-01  -4.4043929e-01  -2.9586051e-01   2.9684475e-02   2.1804605e-01   4.0957641e-01  -1.2634454e-01   2.0317523e-01  -9.7953492e-01   7.4283718e-01  -2.1665442e-02  -9.3142416e-02   3.0462450e-02  -7.8572522e-01   9.4106249e-02  -2.3203007e-01  -7.6074690e-01   2.9219083e-01  -2.5653730e-01   4.7942083e-01   8.2839738e-01  -8.5576198e-01  -6.9057677e-01  -9.5994405e-02   9.6301071e-01   9.5080300e-01  -8.4764742e-01   6.8624254e-01   2.2076577e-01  -4.1551554e-01  -4.2892182e-02   2.2586804e-01   4.9840907e-01   3.4616658e-01  -5.0985107e-02  -7.4690585e-01  -6.5140328e-01  -6.0535224e-01   4.1079986e-01   7.9321491e-01  -8.9840666e-01   5.8377383e-01   1.5619364e-02  -9.9569590e-01   9.8875638e-01   1.9375491e-02   5.7211627e-01  -6.9694408e-01  -4.8864833e-01  -3.0231708e-01   1.7153841e-01   8.7458376e-01   2.3696447e-01   4.1494001e-01  -5.2738875e-03   6.5835651e-01  -2.2875944e-02   6.1894900e-01   3.0892380e-02  -4.4526949e-01   3.0079994e-01  -4.6346976e-01  -1.2732470e-04  -7.9457885e-02  -5.6241210e-01   5.5619230e-01  -2.5966703e-01  -7.1815020e-01   5.6960458e-01  -2.4653840e-01   2.8914066e-01  -4.3279995e-01  -8.0316736e-01  -2.6363645e-02  -9.2484013e-01  -9.5499802e-01   4.5190537e-02   3.3523167e-01  -5.4547849e-01   4.8008501e-01   4.3159309e-02   7.0690099e-01  -9.3047803e-01   1.8373887e-01   8.8431804e-01   6.5587512e-01  -6.4989983e-01   5.8715365e-01   5.4601832e-01   7.1007363e-02   6.7890045e-02  -9.6097776e-01  -3.0986196e-01   9.2191439e-01  -3.0914296e-01   8.2422118e-01  -3.7998792e-01   5.9471827e-01  -5.9274767e-01  -2.4324533e-01  -6.5638443e-01   7.4822840e-01   8.0424389e-01   4.6486641e-01   8.1394427e-01   6.0742972e-01   4.0786821e-01  -5.6607556e-01   6.4659683e-01  -3.0384311e-01  -5.5215170e-02   9.6988180e-02   6.7961843e-01   3.1233537e-02  -5.1917790e-01   4.1844417e-01  -3.2462945e-01   4.6688338e-01   9.0857615e-01   4.9442717e-01   8.8150214e-01  -8.6487204e-01   4.5010514e-01   9.9188982e-01  -3.7217779e-01  -8.1816762e-01   3.4750991e-01   2.8965783e-02  -2.2248896e-01   7.3630282e-01  -6.2458620e-01   3.7134039e-01   8.1891256e-01  -4.6355954e-01  -9.2349761e-01  -4.4624483e-01  -2.6976719e-01  -7.6886301e-01   2.3893906e-01  -6.3562897e-01   3.3671608e-01   5.9051786e-02  -2.0322838e-01  -1.1321065e-01   1.1264123e-01  -8.3264285e-01   2.7583826e-01   8.2800100e-01   8.6856580e-01  -6.7762068e-01  -4.9588697e-01   1.3650346e-01  -7.3045958e-01  -1.7229914e-01  -9.7268817e-01  -9.1370300e-01   5.0633890e-01  -1.5165785e-01   5.8173270e-01   4.9739428e-01  -2.3277596e-01  -2.3395393e-01  -1.4206707e-01   4.4792822e-01  -3.9664108e-01  -5.0631764e-01   3.1280867e-01   4.1388662e-01  -5.1838258e-01   8.7448080e-01   3.0722577e-01   6.1615735e-01   4.1511421e-01  -3.4581454e-01   9.9287709e-01   7.7682204e-01   9.0167908e-01  -7.7790684e-01   8.1831788e-01  -7.7814559e-01  -3.6956250e-01   8.9390337e-01   7.1502570e-01   5.0894411e-01  -5.4488736e-01  -9.4962473e-01   5.3134400e-01  -7.1334730e-01  -9.4683391e-01  -5.5195393e-01   1.7779408e-01  -1.3947989e-01  -8.0259276e-01  -8.6740208e-01   1.8516103e-01  -1.5774149e-01  -8.4688677e-01  -8.1351181e-01   1.4449831e-01   1.6298497e-01   4.7223716e-01  -1.8001806e-01   5.4402957e-01   1.3497687e-01   1.7751145e-01   9.9368928e-01  -3.6107064e-01  -9.0720465e-01   7.1326861e-01  -6.6585777e-01   1.7260571e-01   6.5572951e-01  -5.4555266e-01   7.3633166e-01   1.2751408e-01   8.3954114e-02   7.5266831e-01  -1.4356280e-01  -4.9108511e-01   3.6026028e-01   7.5599795e-01  -3.9083281e-01  -9.9351630e-01  -4.6607902e-01  -3.2389086e-01   7.1185405e-01  -3.6306575e-01  -3.0274989e-01   9.9346051e-01   1.4646559e-01   1.2405679e-01   3.8325567e-01   1.6722509e-01  -7.2343271e-01  -2.3322120e-01   3.5244734e-01  -1.2722841e-01  -1.0763755e-01   4.9745212e-01   1.1589043e-01  -7.7509052e-01   1.9929379e-01  -1.3930699e-01   5.8867381e-01  -1.1374176e-01  -5.0968120e-01  -4.7362120e-01   6.9456057e-01  -7.2260185e-03   2.8291681e-01  -1.1617191e-01   3.3155616e-01   5.0268845e-01  -8.6226555e-01   5.3220324e-01  -5.4689200e-01   1.6005089e-02
  -2.6163215e-01  -1.5570646e-01   8.4018407e-01   3.2688706e-01  -4.8974420e-01   4.5920661e-01  -4.9742838e-01   6.9903599e-01   1.4544878e-01  -4.5540284e-01  -1.0474043e-01  -6.6923905e-01   3.0816818e-01  -7.4973494e-01   3.1299996e-01   4.9019120e-01  -1.6731214e-01   2.2371933e-01  -9.4155420e-01   2.6312566e-02  -1.5492713e-01  -1.3382053e-01   8.3983144e-01   3.2473103e-01   7.1127917e-01   3.8682667e-03  -9.5088205e-02  -6.6234677e-01  -7.6611337e-01   3.8965814e-01  -9.3508022e-01   8.7808775e-01  -4.4977546e-01  -9.6789368e-01  -2.1361103e-01  -7.2759363e-01   9.1595414e-01  -6.8008535e-01   5.8649813e-01  -9.7641709e-02  -1.8378528e-01   1.3999319e-01  -2.3849385e-01   7.3759360e-01  -7.5676674e-01  -3.0802014e-01   5.0680853e-01   1.9854455e-01  -5.6841683e-01   4.2443763e-01  -1.5973534e-01  -8.0785650e-01  -8.6733847e-01  -6.1249578e-01  -5.4509293e-01   6.9270313e-01  -3.0707552e-01   6.4136488e-01  -8.8189473e-01  -6.3061980e-01   2.8116414e-01  -9.9265595e-01   4.0368438e-01  -8.0999952e-01   8.2359451e-02   5.6186647e-02  -4.7854653e-01  -6.4782758e-01   6.8988534e-01  -2.4256827e-01  -2.8142841e-01   1.1813605e-01  -9.7937967e-01  -3.2876352e-01  -6.2323394e-01   9.8627231e-01   9.5970832e-01   6.1904471e-01  -9.0606574e-01  -9.3517093e-01   1.8393950e-01  -7.4580564e-01  -2.1027278e-01  -1.7272763e-01   3.4387975e-01   2.8795210e-01   7.9178635e-01  -6.9646600e-01  -8.6953580e-01  -2.2098929e-01  -2.2825477e-01   9.3949918e-02   9.2251722e-01   5.6435484e-01  -3.9710932e-01  -3.1776481e-02  -1.0637072e-01  -7.1262392e-01   2.0754645e-01  -4.9646495e-01  -6.3814530e-01  -7.0832607e-01  -6.0178220e-01  -8.9515265e-01   5.8120542e-01   1.9663207e-01  -7.0570273e-01   8.2503367e-01  -1.5986177e-01  -6.4312099e-02  -7.4306488e-01  -2.8819858e-01   2.7040011e-01   1.8560616e-01  -4.5971268e-02  -1.2189501e-01   2.5214141e-01   8.1592459e-02   4.1117610e-01   4.3771578e-02  -6.0190099e-01  -8.8294666e-01   6.3873604e-01   3.7086075e-01   1.6781293e-02   8.0836400e-01  -7.6525818e-01  -9.3225777e-01   8.3921190e-01  -3.5660023e-01  -9.7791575e-01  -7.2300782e-01  -5.9184015e-01  -3.6187096e-01   6.1006388e-01   9.4111087e-01   4.3863379e-01   4.1262771e-01  -9.1607263e-01   1.0246797e-01  -5.5625949e-01   6.5574025e-01  -4.9155223e-01  -4.9956951e-01  -1.5027223e-02   3.7551170e-01   8.6590024e-01   2.5378589e-01   1.0152453e-01  -9.9200620e-01   6.4485707e-01  -7.2306013e-01   9.1921420e-01  -5.1743028e-01   4.5600456e-01  -2.2815626e-01   5.9738324e-01  -4.2574516e-01  -7.8084059e-01  -7.9943595e-02   9.3439580e-01   3.0738974e-01  -4.8991420e-01  -6.0687507e-02   4.6460124e-01   5.1720272e-01  -4.3460207e-01   2.3039967e-01  -2.2686138e-01   7.1074614e-01  -7.0051257e-01  -6.0781699e-01   6.8354063e-01   1.3271611e-01  -4.9795104e-01  -3.0312021e-01  -4.9806021e-01   4.6191422e-01  -9.1842646e-01  -9.4823641e-01  -5.9110334e-01  -9.1518328e-01  -8.9666938e-01   8.3762550e-01   4.9511847e-01   3.2001260e-02  -7.9589743e-01  -7.4667310e-01   2.0452926e-01   2.2048237e-01  -6.0058438e-01   2.8376754e-01   7.7053559e-01  -4.7908669e-01   6.2983308e-01   6.3115505e-01  -4.2303033e-01  -7.2258422e-01   2.9273160e-01   2.4187645e-02   4.4461147e-01  -8.0249970e-01   6.2577444e-01   2.5915245e-01  -5.0719794e-01   3.3852571e-01  -7.8288105e-01   6.2884601e-01   8.6173290e-01   3.9016172e-01  -5.1556406e-01  -1.4371235e-02   8.8133041e-01   7.0668020e-01   1.5538803e-01  -7.9415723e-01  -2.6724041e-01  -6.5809032e-01  -2.6285853e-01  -5.4037611e-01   8.9212360e-01  -5.6416766e-01   7.5097313e-01  -1.9166891e-01   7.4471023e-01  -6.1306895e-01  -6.5308448e-01  -3.7040702e-02   2.9460742e-01  -7.7810140e-01  -9.4709246e-01   2.7248853e-01  -4.4924662e-02  -9.7432560e-01   9.6347602e-01  -9.9079331e-01  -3.7975028e-01   2.6673684e-01   5.3821233e-01  -4.2082078e-01   5.1754828e-01  -9.8271460e-01   4.9925999e-01   3.9899666e-01  -9.1399494e-01  -2.7556389e-01   1.0940590e-01  -7.8211966e-01   5.7906661e-01   5.4644450e-01   4.7720012e-01   4.0658367e-01  -6.2841514e-01  -1.7342981e-01   2.4817456e-01   5.1625029e-01  -9.2427917e-01   9.3716360e-01  -2.3542703e-01   8.0818530e-01  -6.7620512e-01  -1.3537117e-01   9.1598760e-01  -8.6009664e-02  -1.8021159e-01  -2.1785732e-01   5.6723729e-02  -8.0389022e-01  -4.6426352e-02   1.3474836e-01   6.1780719e-01   7.1244863e-01   7.2609426e-01   1.3999084e-01  -3.3108352e-01   5.7503255e-01   9.5799144e-01   5.5042802e-01   5.7888610e-01  -7.3308646e-01  -1.6338973e-01  -7.4391223e-01  -9.9661126e-01  -8.1526196e-01   1.8682107e-01   7.9241094e-01  -7.4257684e-01   9.5666614e-02  -5.4649499e-01   5.6571483e-01   4.2422658e-01  -9.7091982e-01   8.9948600e-01   6.3485469e-03  -1.0444620e-01  -9.6964867e-01   4.5217444e-01   6.7055921e-01  -2.7235903e-01   1.9965626e-01   1.6454274e-01  -6.0057340e-01  -4.5113803e-01  -6.4739791e-01  -8.3831322e-01  -4.1161594e-01  -1.9105238e-01  -6.1199900e-02  -6.1598733e-01   3.5257934e-01   1.2205185e-01   6.4987570e-02   7.1497057e-01  -9.4175712e-01   4.5131573e-01  -9.8268544e-01  -9.9039390e-01  -3.1809252e-01  -1.7282946e-01  -7.4464749e-01  -9.2592948e-01  -3.6725840e-01   9.5267189e-02   1.3324589e-01   1.1718058e-01  -8.0779198e-01  -3.1244630e-01   2.9526370e-01  -5.9847847e-02   7.1373500e-01   7.2907869e-01  -5.1605116e-01   3.6998987e-01  -2.3499469e-01  -9.7394091e-01  -2.9233077e-01  -5.3779148e-01  -5.9292575e-01   1.9554414e-01   5.9694790e-01  -3.4347584e-01   3.9933139e-01  -6.8627017e-01   9.3461535e-01  -3.3273124e-01  -4.4400000e-01   1.6159381e-03  -3.2756728e-03   2.2197520e-01  -3.0310094e-01   1.3392421e-01  -6.6047285e-01   5.7642413e-01   8.2968359e-01  -3.3538773e-01   5.1113237e-01   8.2545635e-01  -2.3210222e-01   4.4864430e-01  -8.1737872e-01   5.0559032e-01  -8.5901602e-01  -2.1789684e-02   5.4055434e-01  -2.0668415e-01   5.1922883e-01   8.8761693e-03  -1.4321059e-01  -3.5747238e-01   2.6378246e-01  -5.2519149e-02  -1.2946567e-01  -3.2656347e-01   2.5586263e-01  -6.5945827e-01  -4.7713924e-01  -6.9613410e-01   3.2163865e-01   7.8670618e-01  -7.8622173e-01   5.0050805e-01   6.3636650e-01   1.5790632e-01   3.3307691e-01   2.9612851e-01   6.9153125e-01   2.4139870e-01  -6.3357054e-02   8.9083523e-02  -8.4900862e-01  -6.8561868e-02   9.7395468e-01  -4.6959228e-01  -5.3183332e-01  -3.1433847e-01  -6.7342511e-01  -1.8766007e-01   3.4048208e-02   9.8198384e-01   9.8925416e-01   7.3639775e-01  -1.5803477e-01  -8.3286863e-01  -4.2331688e-01  -4.0010745e-01   6.6016759e-01   9.0388294e-01  -8.8405555e-01   7.6789702e-01   7.1814066e-01   4.0345000e-01  -6.1652587e-01   5.4646631e-01  -5.4272789e-01   2.3768062e-01  -1.3194916e-01   5.8005926e-01   1.8492154e-02   7.2621316e-01  -2.3090425e-01  -6.1810687e-01   3.1856316e-01  -2.1661016e-02  -9.1280225e-01   2.2514573e-01   8.7316417e-01  -6.8540605e-01   6.8207833e-01  -5.6337221e-01   7.7919335e-01   7.1067430e-01   5.5561212e-01  -4.7635454e-01   4.8316698e-01  -4.9491799e-01  -4.8670161e-01   1.6130825e-01  -6.3560287e-01  -3.5173249e-02  -1.7569225e-01  -5.1856127e-01  -2.4695299e-01   9.7491429e-01  -9.9355863e-01   3.6933572e-01   3.0857235e-01  -6.8047230e-01   9.2668224e-01  -3.2227464e-01   2.4939304e-01   8.6538620e-01  -2.2532879e-01  -5.4586813e-01   7.0979746e-01   3.7143774e-01  -4.4929710e-01  -6.1457512e-02  -8.4912796e-02   9.7983300e-01  -3.5901286e-02   1.9032285e-02  -9.7092170e-01   4.0081476e-01  -1.9255094e-01   5.2009968e-01   6.0459230e-01  -5.7698208e-01  -8.4991538e-01  -7.6615786e-01   6.5797736e-01   6.0565753e-01  -5.4641521e-01  -1.7190673e-02   9.3321027e-01  -7.0929144e-01  -5.1599943e-01  -1.9232166e-01   5.8799018e-01   6.0411520e-01   3.5879347e-01  -7.0545264e-01  -9.8904510e-01   2.2705203e-01   5.1513563e-02   8.4457681e-01  -5.9062767e-01   1.1287412e-01   8.6654291e-01  -8.3895575e-01   8.6114236e-01   6.9430197e-01  -3.0293373e-01  -1.9156777e-01  -8.8688501e-02  -5.0388176e-01  -5.8703153e-03   7.8454230e-01   7.3136272e-01   9.2883293e-02   4.1693877e-01  -4.4920680e-01  -4.7118869e-01   2.8462476e-02   6.9694876e-02   4.9047399e-01  -7.9113444e-02   9.5083660e-01   7.7226213e-01   7.7818814e-01  -4.4773423e-01  -3.2291973e-01  -3.1561407e-01   1.8685530e-01   3.1482269e-01   9.9570384e-01  -8.4310338e-01  -9.9169007e-01   6.4410606e-01  -2.6983024e-01   4.9929147e-01   8.5709442e-01   1.6411455e-01  -8.5616278e-01  -8.9291901e-01  -5.9308782e-01   1.5262323e-02  -5.5440193e-01  -5.3596055e-01   3.7970863e-01  -6.1033427e-01   6.7915585e-01   3.7317780e-02  -6.6334036e-01  -8.5607521e-01   5.2475851e-01  -9.0405162e-01  -5.1864097e-03   1.9168150e-01   7.3267435e-01   2.9372165e-01  -5.0380651e-01   1.3511096e-01  -1.7122887e-01   5.3182649e-01  -3.8392685e-01   5.7619040e-01  -6.4390203e-01   5.6631797e-01   1.0998486e-01  -6.4036897e-01   5.7900736e-01  -2.0925108e-01  -1.4215466e-01   2.6146998e-01  -2.1588925e-01  -1.0336229e-01  -3.8296161e-01  -5.3705694e-01   4.9107421e-01  -7.3352460e-01  -4.0177767e-01   8.8430860e-01  -2.8264742e-01  -5.6843630e-01  -4.1864880e-01   6.2720317e-01  -6.4588983e-01  -5.7429078e-01   3.3422219e-02   6.9624004e-01  -7.1221356e-01   9.8546751e-02   4.9127722e-01  -8.7994527e-02   2.5128002e-01   4.3607625e-01  -2.3042782e-01   3.2059762e-02  -1.5539819e-02  -7.7664027e-01   3.7372841e-03   6.2565205e-01  -7.4225477e-01   8.2667383e-01  -5.1193553e-02  -9.1750656e-02  -9.6195368e-01  -8.5915092e-01  -3.0219212e-01   4.1111379e-01   1.9097799e-01   9.9477233e-01   5.2771674e-01  -6.7381686e-01  -9.5842623e-01   8.0757385e-01   4.0899573e-01   1.5699937e-01   4.3879055e-01   7.5428626e-01   3.7940628e-01   4.5211160e-01  -5.2911355e-01   8.2257162e-01  -9.5391220e-01  -4.5663180e-01   3.7205887e-01   2.7053509e-01   1.5610182e-02   7.4258799e-01   2.3662951e-01   8.4797808e-01  -3.4670340e-01   3.6483767e-01   1.3770725e-02   3.5117471e-01  -1.3775300e-01   4.2997718e-02   5.5616225e-01   7.6021155e-01   4.7477410e-01  -5.8136751e-02  -1.5298974e-01   5.5167862e-01   6.4035397e-01  -3.4388525e-01   5.8099782e-01  -1.6407866e-01  -3.6466001e-01   5.2639096e-01  -4.3657158e-01   6.3160648e-01  -3.2027708e-01   9.2750967e-01  -1.1169400e-01   9.4929826e-01   5.3931924e-01   2.4914851e-01   8.0679291e-01   6.1245773e-01   7.3570182e-01   4.5118268e-01   6.0848425e-01   6.3089749e-01  -4.5296392e-01   1.6814198e-01  -4.8122241e-01   6.9711493e-02  -5.0515170e-01   3.6240433e-01   1.4305431e-01  -8.6818704e-01   3.2593961e-01  -7.1844736e-01   3.9710072e-02   9.4945031e-01   4.0251391e-01   9.6038821e-01   7.0156968e-01   1.4878018e-01  -1.9596290e-01  -4.2183178e-01  -9.5770458e-01  -9.9621468e-01   4.6211976e-01   3.5651829e-01  -4.7716293e-01   4.9822341e-01  -3.6635742e-01   4.3596094e-01   5.2518049e-01   3.4181875e-01   6.1138819e-02   2.5116652e-02   5.0860974e-01   1.4763734e-01   1.4287071e-01  -4.6096004e-01   7.1271191e-01   1.3180711e-01   1.6680636e-01  -6.5655469e-01  -1.1817728e-01  -5.8094488e-01  -3.1093598e-01   4.2702376e-01   4.5799789e-02  -5.1234299e-01   3.7096824e-01   2.7334799e-01  -1.3632455e-01  -6.9307330e-01  -1.0082531e-01   9.7869580e-01  -1.4548378e-01   5.2097129e-01   1.4561269e-01   2.5397735e-01   5.3352315e-02  -8.8597051e-01  -5.9976717e-01   6.6864718e-01  -4.5678762e-01  -2.3926586e-02  -1.0985604e-01   8.7107004e-01   7.6362693e-01   5.8860485e-01   7.5403975e-01  -4.7168872e-02  -7.9180439e-01  -5.8189574e-01   7.2594806e-01  -3.8899020e-01   7.3434254e-01   2.7698121e-01  -5.2420446e-02   8.6124887e-01  -1.2108415e-01   3.7158695e-01  -5.9869274e-01   1.5161391e-01  -2.3080447e-01   3.5582928e-01   9.6005838e-01  -2.9702112e-01  -8.1247764e-01  -8.8407022e-01   6.6645590e-01   4.1189076e-02  -5.2923742e-01  -7.1661230e-01   9.9932573e-01   1.8665648e-01  -2.6644042e-02   5.4417883e-01  -5.8996461e-01   9.6430917e-01   6.7134578e-01  -1.5914438e-01   7.3783165e-01  -2.8955758e-01   4.6648959e-01   6.2098958e-01   4.1453470e-01  -8.6643179e-01   3.0735793e-01  -4.0799854e-01  -6.5973035e-01   1.2078168e-01   1.9297722e-01  -1.2011506e-01   4.3327571e-01  -3.3598909e-01   4.8297785e-01   5.5430229e-01   6.2405066e-01   7.5576474e-01  -3.8242785e-01  -2.6027717e-01  -5.4940437e-01   6.8514468e-01  -1.8252371e-01   4.9694996e-02   6.4909825e-01  -7.7818152e-01  -2.2762852e-01   8.4452733e-01  -9.9143274e-01   9.2957358e-01   5.7615123e-01   3.2495376e-02   2.1001188e-01  -4.7666416e-01   9.2944163e-01   3.3379311e-01   9.5093444e-01  -8.9745780e-01   3.2588756e-01  -7.3863177e-01   9.4139322e-02   2.6979925e-01   4.8140185e-01   3.5765513e-01  -1.8586684e-01  -7.4715279e-01  -1.3172152e-01   1.8084788e-01   2.4509821e-01   6.3899273e-02   4.4828472e-01  -9.9046560e-01   1.2581411e-01  -1.2765514e-01  -6.9407061e-01   9.6484875e-01   7.1800407e-01   5.4703454e-01   9.5993985e-01  -7.8376548e-01  -5.5750188e-01   8.5318359e-01   9.1581416e-01  -3.5363684e-01  -9.8005097e-01   4.5263806e-01   5.4984554e-02   2.3689333e-01   4.1727112e-01   9.4833906e-01  -2.0946586e-01   3.4018503e-01  -1.1871467e-01  -5.8190112e-01  -6.9584726e-02   8.8239909e-01   8.9445784e-01  -8.5911969e-01  -9.2405109e-01  -6.7582164e-01  -2.9078093e-01   9.0515976e-01   2.0433431e-01  -2.1196543e-01  -7.4430594e-01  -9.0228716e-01  -4.9193334e-01   8.0725004e-01  -8.5938720e-01   9.0623428e-01   1.4550200e-01  -4.0786988e-01  -2.1371240e-01  -2.3328666e-01  -9.1249708e-01   2.7699560e-01  -7.6397926e-01   7.5604053e-02  -7.4053595e-01  -8.5481217e-01  -9.7712810e-01  -2.7780524e-01  -7.9162560e-01   7.6805362e-01  -1.3987825e-02  -6.7080317e-01   7.2113281e-01   5.2956896e-01   6.4845836e-01  -4.1640318e-01  -2.8230275e-01   4.6933053e-01   1.5907642e-01   1.0464096e-01   7.8757648e-01  -6.0247066e-01   7.7311397e-01  -7.4285181e-01   4.9241791e-01   5.3470049e-02  -4.9279558e-01   5.9940412e-01  -1.7784245e-01   2.5558153e-01  -1.6583883e-02  -3.8786192e-01   3.4021603e-01   3.0370490e-01  -2.3939939e-01   3.9559887e-01   4.6763700e-01  -7.9598585e-01  -5.2290671e-01  -5.9466661e-01   3.4692020e-01   6.0974934e-01  -3.6817863e-01  -2.2293139e-01   7.8052833e-01   4.8400359e-01  -2.6980592e-01  -3.9818057e-02  -4.7176316e-01   5.2148726e-01  -8.6597522e-01  -3.1238248e-01  -9.2233861e-01  -6.1120174e-01   9.8355616e-01  -7.8479987e-01   1.5742671e-01  -5.8797849e-01   3.5501004e-01   3.8079983e-01   6.9548229e-01  -9.0037877e-01   7.9871539e-01   4.6288978e-01   6.2640347e-02   9.0464393e-01   4.0615654e-02   8.0445760e-01   3.9514326e-01  -1.7249245e-01   5.0172690e-01  -2.2324468e-02   4.0614430e-01   1.4455745e-01   9.3409736e-01  -3.8443835e-01  -5.4502378e-01   1.4875843e-01   7.0473480e-01  -3.0249168e-02   5.0139837e-01  -5.6624923e-01   7.7119352e-01   9.0028365e-01  -8.3770624e-02  -7.0026603e-01  -5.2287583e-01  -4.4796637e-01  -9.9315777e-01  -6.2350705e-02  -4.3582170e-01  -2.5573464e-01  -8.3513031e-01  -9.5239951e-01   2.1026004e-01   1.9618303e-01   1.1328516e-01  -8.7088591e-01   8.7017718e-01   2.1939767e-01   9.0607948e-01   5.4121684e-01   9.2269804e-01   6.4397484e-01  -8.1813690e-01  -2.6839314e-01  -8.5875045e-01  -9.0173368e-01  -9.6496357e-01   9.2442804e-01   4.7253462e-01   1.8739082e-01  -9.5089870e-01  -6.4470034e-01  -9.9791189e-01   9.4427428e-01   7.6989895e-01   3.9060534e-01   1.4589192e-01  -3.5315539e-01  -6.7244152e-02   1.3573630e-01   8.4358283e-01  -3.8733817e-01   6.0054568e-01   7.1507956e-01   2.8502498e-01   6.9781831e-01  -5.9905359e-01   4.5795262e-01  -9.1333602e-01   4.7347208e-01   7.3881955e-01  -7.7788820e-01  -9.9617769e-01  -6.7890822e-01  -9.9472545e-01   8.0013997e-02  -6.2866534e-01  -6.9668603e-01  -7.5269835e-01   2.6619198e-01  -2.6461923e-01  -6.1630068e-01   8.7044289e-01   2.3217641e-01  -8.4279305e-01   4.8249596e-01  -5.2502672e-03  -2.8139041e-01  -5.8743046e-01  -9.2234627e-01   7.0281826e-01   1.0918837e-01   1.8422224e-02   2.4635331e-01   1.2882867e-01   3.1887313e-01  -3.7504561e-01   4.0789306e-01   6.1016406e-01   7.5270936e-01  -7.9485154e-01  -9.6915325e-01  -7.2461856e-01   7.7485752e-01
   1.1987913e-01  -4.6914545e-01   7.7981472e-01  -9.1038329e-01   1.8309754e-01   7.6787266e-01  -5.3727569e-01  -7.3058667e-01   2.6839113e-01   2.0278894e-01  -3.7199795e-01  -3.8648940e-01   9.9264485e-02   6.0444515e-01  -5.1740873e-01   5.8941633e-01  -6.2573373e-01  -2.8285284e-01   6.5421846e-01  -4.9251202e-01   4.6938509e-01   2.1821607e-01  -4.0861126e-02   6.6818346e-01   9.0053221e-01  -5.7395123e-02  -5.9387427e-01  -9.4357741e-01   8.5669988e-02  -9.5347602e-01   8.6041692e-01  -7.5762130e-01   1.5408972e-01  -8.3235421e-01   4.6156822e-01  -7.8722220e-01   3.2094423e-01   3.8969614e-01  -3.6534063e-01   4.6644233e-01   8.6629641e-01   5.2652327e-01  -9.0997571e-01   6.6237923e-01  -4.3814654e-01  -3.3914508e-01  -9.3154022e-01   6.8109960e-01   8.2728690e-02  -1.1831133e-01   8.8602393e-01  -3.2083897e-01  -7.3212407e-01  -5.6992757e-03  -2.3642915e-01  -2.4470202e-01  -2.3421752e-01   9.0624993e-01   5.7627250e-01   6.3483032e-01  -1.3747892e-01  -9.6305385e-01  -6.7166771e-01   3.4688954e-01   1.6184756e-01  -4.7492710e-01  -1.3551622e-01  -7.4715134e-01  -1.1030742e-01  -6.4983239e-01   1.7681091e-01   3.2779998e-01   5.9210196e-01  -7.8782701e-01   9.5409030e-01  -9.6703755e-01   4.5672562e-01  -6.6451889e-01   7.7094397e-01   5.8018579e-01   8.6780592e-01   4.2197289e-01  -3.1408533e-01  -4.2875446e-01   7.9217848e-01  -2.2164723e-01  -5.0825075e-01   1.9898362e-01   7.5572115e-01  -2.5808549e-01  -8.5426183e-01   7.9353871e-01   5.2176932e-02   8.8913017e-01  -1.1693181e-01   1.4248078e-01   7.1962513e-01  -1.6916639e-01  -7.9435888e-01   3.6896069e-01   2.3725370e-01   6.3051605e-01  -9.1671930e-01   9.9362792e-01  -3.7167266e-01   1.8865765e-01  -7.2756838e-01  -9.1648566e-01   6.2268280e-01   1.7271336e-01   2.6856496e-01  -9.6894111e-02  -4.5547625e-01   5.4474955e-01  -7.4346003e-02  -2.7928106e-01  -9.9845601e-01  -3.9406822e-01   7.8558530e-01   5.0767420e-01  -2.7497410e-01   9.8024871e-02   3.1288394e-04  -3.8174210e-01   9.1236346e-01   1.4447771e-01   7.1257207e-01   8.6943172e-01  -7.3457293e-01  -4.6702327e-01  -3.7408871e-01   9.7962706e-01  -4.0270825e-01   3.6208106e-01  -4.5052109e-01   1.9619165e-01  -3.3882951e-01   7.3843293e-01   4.2547370e-03   3.0546819e-01  -3.7681190e-01  -9.6778495e-01   3.0290719e-01  -9.2007652e-01   1.0197361e-01   7.0020262e-01  -2.0914812e-01  -5.9707196e-01   6.0404116e-01   6.3808876e-01   5.9006981e-01   7.2463451e-01  -6.1141024e-01  -1.8106785e-01  -6.4079128e-01   3.9982244e-01  -6.6774296e-01   6.4279825e-01  -7.7581177e-01  -1.0205010e-02  -3.1941787e-01   7.8441504e-01   3.6126963e-01   2.8552735e-01   5.9219807e-01   8.4749229e-01  -6.8854024e-01   4.3589443e-01   8.9971634e-01  -9.3113556e-01  -6.7453121e-02  -6.8370895e-01  -9.6994800e-01  -5.5076352e-01  -4.3066409e-01  -2.1632534e-01   6.5843775e-01  -3.4146398e-01   8.8082293e-01   1.0057545e-02   5.7662453e-01   5.7235727e-01   8.2153431e-01  -2.6463711e-01  -5.4390195e-01   3.9376696e-01  -8.7891526e-01   9.6128868e-01   8.6159099e-02  -4.2593570e-01   3.2376430e-01  -8.0075073e-02  -9.6667649e-01  -1.5526075e-01   4.7840874e-01   6.0617234e-01   4.2744611e-01  -1.9968169e-01  -2.0487193e-01   4.7986965e-01  -5.9099682e-01   2.8001360e-01   4.6441323e-01  -9.7631488e-01  -3.5172465e-01   5.0396945e-01  -7.8924454e-01   3.0284267e-01   3.3737407e-01   6.9571391e-01  -7.3919921e-01  -8.7016042e-01   5.0470937e-01   6.4421518e-01   2.3757146e-01   6.6330493e-01   3.2886373e-01   8.9464439e-01   5.8149649e-01  -4.7610820e-01   7.8072591e-01  -9.1156326e-01  -3.6061401e-01  -1.4755607e-01   8.1201304e-01   2.7614567e-01  -7.1969983e-01   6.7280513e-01   6.9608034e-01  -4.8656268e-02  -5.6406888e-01   1.7179373e-01  -6.4104072e-01   2.7207354e-01   9.1818537e-01  -5.2239695e-01  -9.1519738e-01   9.9124185e-01  -3.9901504e-01  -1.5433411e-01  -9.3549398e-01  -2.5454710e-01  -5.6778758e-01   2.6859150e-01   8.4862841e-01   4.9760750e-01   8.1110933e-02  -7.8677772e-01   1.1516397e-01   8.8096275e-01   4.3980434e-01   4.3490356e-01   3.4446935e-01   1.0573322e-01  -8.7780701e-01   4.5882433e-01  -7.7475325e-01   1.0124726e-01   3.0023236e-01   8.5235442e-01  -1.5325743e-01  -7.3695367e-01  -4.4160645e-01  -7.4472878e-01   5.2433271e-01  -1.0895533e-01  -5.7223906e-01  -9.5326574e-02   7.2986608e-04  -8.2413443e-01   9.3371362e-01  -6.0051811e-01  -8.1109596e-01  -9.1099096e-02   3.3898121e-01   4.7071242e-01   8.5938516e-01   5.2142639e-01   2.1923259e-01  -8.6617658e-01  -7.4178373e-01  -3.1378540e-01  -2.3373966e-01  -2.4823764e-01   5.9386645e-01  -8.8601129e-02  -5.3937507e-01  -2.3196113e-01  -4.4168534e-01   9.2867756e-01  -5.2596428e-01  -9.0595764e-01   5.1231425e-01   9.5133770e-01  -4.9773735e-01  -3.4765030e-01   9.0873434e-01  -8.0548424e-02   9.1041765e-02   9.0483761e-01  -7.0735900e-01   3.5948017e-01  -4.9176620e-01  -4.3408762e-01   3.5038184e-01   9.1044079e-01  -1.9936944e-01  -4.5362334e-01   6.1678485e-01  -6.4908924e-01  -1.9775250e-01  -9.9194164e-02  -1.1881696e-01   8.8878319e-01  -8.3344440e-01   5.4707435e-01   9.1234173e-01  -2.1727501e-01   4.2306096e-01   3.8733976e-01   8.1946068e-01   4.6672092e-01  -8.5623164e-01   2.9204475e-01  -4.1916330e-01  -4.0159639e-01   7.5529974e-01   2.4789928e-01  -9.4634936e-01  -1.4951643e-01   9.0959772e-01   3.8183152e-01  -8.6788038e-01   8.9393553e-02  -5.5066006e-01   9.3766192e-01   4.0277356e-01  -3.6655241e-01   5.8366293e-01   3.3915410e-01  -5.2999480e-02  -2.8344540e-01   1.7029411e-01   7.4949661e-01  -9.0702616e-01   2.6754915e-01   3.4940627e-01  -6.9722859e-01   8.3701370e-01  -6.1437551e-01   4.4861824e-01  -1.1113900e-01   7.3752661e-01  -2.1755854e-01  -2.5133828e-01   3.2073135e-01   5.6918554e-01  -1.8603591e-01   1.3006406e-01  -6.4321060e-01   5.5966342e-01   2.0040852e-01   6.4471153e-01   1.5309624e-02   1.6538411e-01  -2.0640811e-01  -6.8925440e-01  -5.2150901e-03   6.0672516e-01   3.1303279e-01   6.7654066e-01   8.1316223e-01  -5.8820630e-01   9.2556558e-01   8.9518589e-01   6.8767693e-01   4.3310627e-01   9.1423145e-02  -5.3880142e-01  -4.7898428e-02   8.9227365e-01  -4.9718180e-02   2.5165455e-01  -8.9284899e-01   9.6195662e-01  -7.4374251e-01  -3.4845113e-01   5.0543117e-01   3.4808684e-01  -1.1124722e-01   1.4283860e-01   5.0672082e-01  -9.3927967e-02  -5.1813240e-01   5.4041438e-01  -2.0307458e-01   5.8062640e-01   4.3800530e-01   5.1901370e-01  -5.7161981e-01   9.3741628e-01  -3.2708276e-01  -7.1804585e-01   1.2920478e-01  -6.6747995e-01  -8.8955442e-01  -3.1817728e-01   1.0780683e-01   4.2492123e-02   9.7420084e-01  -2.5312908e-01  -2.4992283e-01  -7.2006244e-01  -6.1926653e-01   2.8290375e-01   7.9298631e-01   3.0900656e-01  -3.6206133e-01   2.5848276e-01   7.3751808e-01   3.9498555e-01  -4.6480962e-01  -1.0143266e-01   2.2783425e-02  -6.4959752e-01  -1.5830439e-01   9.7576388e-01   3.2285389e-01  -8.3781272e-01   3.5181908e-01  -4.1657233e-01  -5.9511185e-01   3.4888651e-02  -5.6501607e-01  -4.0380538e-02   4.7719642e-01  -9.5108379e-01  -8.2000455e-01   7.8286294e-01  -9.1329502e-01  -3.6608485e-01  -1.2149066e-01  -1.0727229e-01   3.3126144e-01  -5.4722785e-01   6.1550220e-01  -3.7096011e-01   4.2577166e-01   1.0317761e-01   1.7823519e-01   3.3395605e-01   8.2378536e-01   8.1649789e-02  -7.8532498e-01   4.6486150e-01  -4.5064857e-01  -8.8361225e-01   8.5212083e-01   8.7735388e-01   7.6734365e-01  -7.8711110e-01  -4.0324299e-01   7.9459739e-01   1.9399391e-01   5.3177684e-02   1.5860725e-01  -1.2847855e-02  -4.8172611e-01  -1.7998808e-01   3.3407980e-01   5.8231915e-01  -4.7920208e-01   4.4250899e-01  -3.9808824e-01  -1.0090432e-01  -7.1082026e-01   1.7070603e-01  -6.0975698e-01   3.1786901e-01  -4.7181447e-01   4.5497473e-01  -6.2504099e-01   4.0327757e-01   5.4242945e-01  -3.6528172e-02   9.1634842e-01   3.0992144e-01   3.4272937e-01  -4.0546877e-01  -3.6498642e-01   6.2321467e-01   8.3085088e-01   6.5409181e-01  -5.6036140e-01  -1.9437267e-01  -5.9982142e-02   1.7361921e-01   9.6390831e-01  -6.6134647e-01   3.2704274e-01  -1.3844954e-01  -9.7327477e-01  -4.1093507e-02   7.9280705e-01   3.3901932e-01   8.1257198e-01   9.5342560e-02  -5.2852894e-01   6.8141976e-01   7.4867930e-01   3.5072820e-01   9.7550152e-01  -7.0592607e-01  -7.5879577e-01   3.3926929e-01   4.8704119e-01   6.9593896e-01   2.5661298e-01  -4.4515513e-01  -2.6378198e-01  -2.2991681e-01  -1.1200042e-02   1.7688559e-01  -3.5239856e-01  -8.4290824e-01   7.5045977e-01   9.8527963e-01   7.1517616e-01   8.6131897e-03  -1.6790046e-02  -5.7041535e-01  -3.7899419e-01  -1.1633830e-01  -2.5222916e-02  -9.8946154e-01   9.7628606e-02  -6.8709440e-01  -7.9998345e-01   2.6975807e-01  -9.4469354e-01   1.5583156e-01   5.0725355e-01   5.7584347e-01  -6.2171967e-01  -9.3221275e-01   5.8737805e-01  -4.1468882e-01  -7.5090342e-01   1.1858506e-01   3.1777050e-01  -2.5153604e-01   9.7419296e-01   7.3690275e-01   5.9939461e-02  -5.5859040e-01  -2.1736255e-01   6.7260314e-01  -8.0403856e-01   4.8238020e-01   5.1122900e-01  -5.4163769e-01  -5.4867852e-01   3.4828203e-01   3.5542242e-01  -1.4636127e-01   4.3484340e-01  -6.5354282e-01  -5.9808856e-01   3.0192338e-01  -7.5564704e-01   4.5630556e-01  -1.5049320e-01  -4.0116700e-02   8.0013800e-01   8.9236365e-01   8.2776671e-01  -4.6423169e-01   3.7137484e-01   3.1880481e-01  -5.4006291e-02  -1.7153719e-02   3.7452364e-01  -8.8605782e-01   2.7313413e-01   2.5520233e-01  -9.5627554e-01   4.5769946e-01  -8.6821788e-01  -2.9660754e-01  -7.1980335e-01   5.5332857e-01   6.0119473e-01   2.4654243e-01  -9.0013539e-01  -2.0976503e-01   8.2822622e-01  -7.2064408e-01  -7.7085345e-01  -2.1087433e-01   9.7927560e-01  -8.0842472e-01   7.1038496e-01   9.2380972e-01  -4.4127167e-01  -4.8670353e-01   6.3818795e-01   6.2924199e-01  -5.1826226e-02  -3.1817324e-01   1.6794497e-01   6.8740608e-02   1.3773319e-01   2.8949313e-01  -3.8777865e-01   2.3531401e-01   9.9730059e-01   8.4868628e-01   4.0474341e-01   8.9803580e-01  -3.3922786e-01   2.1829950e-01   4.1833728e-01  -6.2554391e-01  -6.2657245e-01   1.5232714e-01  -4.8922434e-01   6.3392763e-01  -4.4170859e-01  -7.6447726e-01  -1.7181739e-01  -3.9473887e-01   5.0915972e-03  -9.6007951e-01  -9.2969646e-01  -6.4517937e-01  -4.3648457e-01  -7.5903059e-01  -1.0515932e-01   7.6728765e-01  -5.7083461e-01  -9.0266497e-01   7.6896048e-02  -7.9141967e-01  -5.7704264e-03   8.3189881e-01   9.3607287e-01  -3.8936034e-01   8.6445328e-01   3.8656266e-01  -6.6950389e-01   6.0796952e-01   1.2188742e-01  -3.5839325e-01  -1.3027910e-01  -7.6959151e-01  -2.2992483e-01  -7.4779230e-01  -6.5013286e-01  -3.6338656e-01  -7.1790527e-01   2.8228287e-01  -2.1229913e-01  -2.2732076e-01  -9.2993504e-01  -9.8608267e-01  -4.2814975e-01  -1.0687097e-01  -9.3175819e-01  -8.7184572e-02   2.6135243e-01  -4.4252142e-01  -3.6509626e-01  -9.8878461e-01  -4.9937464e-01  -9.1007069e-01  -9.1333833e-01   6.2383612e-01   8.7271531e-01  -3.4664287e-01  -3.2495693e-01   6.1993474e-01   4.0059298e-01   1.5633230e-01   8.7908397e-01  -3.3103080e-01   7.0210100e-01   2.0919278e-01  -4.0299989e-02  -2.1573492e-01  -6.8926536e-01  -7.6611570e-02  -8.8759313e-02  -8.4058299e-01   3.3080367e-01   5.2136059e-01   4.8811159e-01   5.8881468e-01   5.7808190e-01  -4.1484332e-02  -3.6792409e-01   2.8614739e-01  -9.6732620e-01   6.9405746e-01  -7.0054497e-01  -5.9595819e-01  -3.6036946e-02   1.0291632e-01   6.3772864e-01   9.1832893e-01   9.5623985e-01  -1.3821919e-01   2.1535283e-01   4.3067190e-01   8.1349610e-01  -3.1063828e-01  -9.5213662e-01   6.6467955e-01   8.0890619e-01  -2.4565293e-01  -6.4034239e-01  -3.3073484e-01  -8.0594088e-01   6.6624334e-01   5.2646311e-01  -6.6515648e-02  -2.4323970e-01  -8.8628223e-01  -5.5634154e-01   4.3813957e-01  -1.0649296e-01   2.2402609e-01  -1.4230371e-01  -4.9001441e-01  -7.3427736e-01   5.3442213e-01   8.1733202e-01   7.3807422e-01   7.1908535e-01  -3.2323393e-01  -1.8786023e-02  -2.3432930e-01  -4.2935489e-01  -1.3070872e-01  -2.4362785e-01   6.6569502e-02  -1.6765975e-01   9.2922076e-01  -5.9951677e-01   4.3857367e-01  -6.2521595e-02   4.3687386e-01   2.7929189e-01   9.1219025e-01  -5.2038602e-01   7.3215271e-01  -9.7153286e-01   5.7741566e-01   8.3007288e-01   2.1956365e-01   6.7602542e-01  -7.5609479e-01   3.5169416e-01   3.2895653e-01  -4.5076681e-01  -8.7990895e-01  -7.1170619e-01  -6.6612998e-02  -4.6873738e-02   9.2366119e-01   9.9944624e-03   5.7363212e-01  -5.3960527e-01  -9.7938452e-01   5.0798484e-01  -1.5243668e-01  -3.4046985e-01  -1.7911678e-01   7.1916565e-01   5.6575722e-01   5.6989357e-01  -6.9310567e-01   6.0389726e-01   2.3861763e-01   3.1370751e-01  -4.6475384e-03  -5.0353014e-01  -9.3414343e-01  -7.2057578e-02   9.9691941e-01   1.2405573e-01  -5.9255486e-01   4.3084859e-01  -5.9657759e-01   5.1853371e-01   5.3073189e-01   7.1866726e-01  -3.8407611e-01   2.5312840e-01  -6.3995890e-01  -3.7662941e-01  -4.4488666e-01   6.1497715e-01   6.8739745e-01  -3.4285655e-01   5.1180292e-01   4.3647496e-01   6.5479321e-01   2.9165825e-01   1.9374188e-01  -1.9804871e-01   4.3081784e-02  -9.5647999e-01  -7.8616641e-01  -7.7068410e-01   9.1425554e-03   7.0276814e-01   6.2787639e-01  -4.4691384e-01  -6.3303648e-01  -7.5018220e-01  -5.0917425e-01   5.6702718e-01  -1.9952303e-01  -5.6301041e-01   3.6324328e-01   7.5834519e-01   2.8312593e-01  -1.8049250e-01  -5.7303079e-01  -1.2458483e-01   8.7224601e-01  -4.6931388e-01   3.7011538e-01   5.1663245e-01   6.8820114e-01   4.6998265e-02  -2.2148236e-01  -1.0257847e-01  -9.2970776e-01  -6.8902726e-02  -8.1867189e-01   8.9435333e-01   5.9753787e-01   2.9908383e-01   3.0904069e-01  -4.7388940e-01   2.0951502e-01   9.9896000e-01  -3.4702349e-01  -5.0171069e-01   1.5205571e-01  -3.3412194e-01   9.5238689e-01   4.6319212e-01  -5.8415528e-01   6.4592150e-01  -6.7202016e-01   8.6869861e-01   3.6078314e-01   9.3108618e-01  -4.1393761e-02  -8.8042884e-01   3.8642834e-01   6.9135210e-01  -6.9058088e-01  -7.5190306e-01  -9.3325330e-01   9.0827807e-01   7.5574167e-01   1.2358848e-01   1.9821283e-01   2.2653607e-01   7.5477072e-01  -1.0939641e-01  -7.6437087e-01  -7.8929209e-01  -3.6583769e-02  -5.0897751e-01  -1.4479876e-01   5.3518466e-01  -3.3042037e-01  -5.8253859e-01   3.1233353e-01  -8.8623515e-01   1.4664586e-01  -3.1191402e-01  -2.6622985e-01  -6.1403169e-01   8.1417733e-01  -2.1585773e-01   2.3142346e-01   6.0007933e-01  -7.3326259e-01   1.6157020e-01   1.5134177e-01   6.3144196e-01  -6.7504085e-01  -8.7188495e-01   4.9422450e-01  -1.0296058e-01  -8.8134950e-01   6.1010303e-01  -9.9920792e-01  -7.7349873e-01  -9.1199936e-01   6.1058773e-01   4.2679381e-01  -2.9215241e-01  -7.6996867e-01  -3.0549699e-01   8.3760310e-01  -2.0484965e-01   4.5681471e-01  -1.1606313e-02  -1.6200272e-01   6.1471003e-01  -6.8283395e-01  -2.4001986e-01   6.0235858e-01   7.7593831e-01   2.4158626e-01  -9.1388770e-01  -9.0968133e-01   3.9186587e-01   6.9338200e-02   2.7486395e-01  -7.4010736e-02  -4.5377422e-01  -5.2704194e-01  -7.6739052e-01   8.2560098e-01  -2.3641967e-01  -2.4094602e-03  -4.9735694e-01   3.1758319e-01   6.8965806e-02   7.9744252e-01   3.9739975e-01  -5.0307974e-01  -2.7509170e-01  -6.3677721e-01  -6.0242279e-01   2.1395995e-01  -5.3295023e-01  -2.2721941e-01  -5.3377406e-01  -1.7524510e-01   7.3476150e-01  -6.9697473e-01  -8.6288983e-01   6.1046970e-01   1.9371114e-01   5.3700725e-01  -7.7181274e-01   3.6286283e-01   9.3299290e-01   2.4041877e-01  -2.9881811e-01  -1.6214830e-01  -7.3073687e-01   3.6705108e-01   3.1725902e-01  -6.4071855e-01   6.6102612e-01   1.8934764e-01   4.5216880e-01  -1.0006675e-02  -2.3620186e-01   5.1536311e-01  -8.2510232e-01  -7.2439608e-01  -5.8124911e-01   1.5825855e-01  -6.6262264e-01   8.5113663e-01  -7.9700805e-01  -7.1104418e-01  -1.7795708e-01   4.2476267e-02  -8.6880459e-01  -9.8834575e-01   6.9352605e-01   4.9246530e-01   1.4579327e-02  -9.7312813e-01   5.0233631e-01   9.4027065e-01   1.3309662e-01  -7.3240054e-01   5.2223500e-01  -3.3970592e-01   5.8630805e-01  -7.7910004e-01  -8.6115117e-01   3.8006530e-01  -1.1772381e-01   8.0538019e-01  -4.3618569e-01  -2.8024245e-01   1.4616630e-01
