   2.7534500e-01   4.1393563e-01  -6.1098080e-01   8.9353462e-01   8.9411266e-01  -6.6516846e-01   8.5888810e-01  -3.9553172e-01  -9.3120617e-01  -2.5219377e-01  -3.1846913e-01  -8.4453973e-02  -5.5939465e-01   5.7210843e-01  -9.5325780e-01   7.2279623e-01   9.8225267e-01   2.1489903e-01  -2.3379794e-01  -8.7406771e-01  -9.9832907e-01  -9.3164781e-01  -9.2990084e-01  -5.7482892e-01  -1.7576622e-02  -9.8200946e-02  -6.3177109e-01  -1.9770777e-01   8.5203445e-01  -6.8399814e-01  -6.9360199e-01   2.6156215e-01  -8.9890055e-01   9.9129940e-01  -8.4153469e-01  -6.0056732e-01   7.8136558e-01  -6.5690087e-01  -7.6612520e-01  -8.7943506e-01   3.7938047e-01  -2.2851736e-01   7.1069345e-01  -3.3606688e-01   4.0800400e-02   4.4409192e-01  -7.3239864e-01   1.0616965e-01   6.0222405e-01   8.8084883e-01  -5.9264010e-01   9.1499273e-01   1.9261360e-01   2.4388426e-01   8.4684672e-01   7.1455775e-01  -3.2985522e-01   2.2872669e-01  -6.3888484e-01  -6.5749490e-02   1.8748084e-01  -6.3007729e-01   3.4224560e-01  -9.3334196e-01   6.4782617e-01   8.3576016e-01   7.7590253e-01  -2.1825304e-01   8.6461777e-01  -8.8288692e-01   6.1186347e-01   4.9012531e-01   8.9972805e-01   3.5953096e-01   9.9746787e-01   4.0893046e-01  -5.6084643e-01   5.3127260e-01  -2.3380575e-01  -4.5219699e-01   4.8561508e-01  -4.9041829e-01  -4.9048919e-01   9.5748938e-01   3.8378024e-01  -6.8815463e-01  -5.2955883e-01  -5.5337430e-01   7.6150029e-02  -5.3831395e-01   5.7019653e-01  -6.6365835e-01  -2.4893190e-01   5.4998473e-01   9.4572563e-01  -8.2629683e-01   6.8260178e-01  -2.5166591e-01   3.9695908e-02  -8.5418409e-01   6.6779772e-01   3.2947253e-01  -7.3592093e-01   5.2446523e-01  -6.7747536e-01  -3.8574841e-01   8.8328321e-01   1.5220239e-01  -7.6758923e-01  -9.4054570e-01   2.1256627e-01  -6.8724576e-01   4.7104634e-01   8.7344510e-01   9.3682953e-01   2.9753812e-01  -7.0281538e-01  -5.2664885e-01   8.4325920e-01   4.6021508e-01  -4.6312991e-01   8.3346029e-01   9.0768532e-01  -3.6107365e-01   9.2138633e-01  -4.6097808e-01  -2.8277005e-01   9.6137928e-01   4.9278769e-01   8.6311745e-01  -9.3155281e-02  -6.0980442e-01   6.2376938e-01   3.7647032e-01   5.1668021e-01   2.6714637e-01  -2.8596099e-01  -9.2090622e-01   2.2985121e-01   9.7153223e-01  -7.1030176e-01  -8.7439992e-01  -9.9183007e-01   8.7049360e-01   8.6170870e-01  -3.9629468e-01  -2.4694966e-01  -5.9335676e-01   1.0273317e-01   1.1911968e-01   6.4473018e-01  -3.5555028e-01   8.6206077e-01   1.5916742e-01   5.5629477e-01   1.1460976e-01   9.3124441e-02  -4.4167782e-01  -4.2794410e-01   2.6385969e-01  -3.6325280e-01   2.5823647e-01  -2.4572161e-01  -2.9526567e-01  -6.8082573e-02   4.1369203e-02   5.0906000e-01   6.7430626e-01  -7.6140631e-01  -8.0525198e-01   6.1906754e-01  -4.4470316e-01   7.3118572e-01  -8.3752938e-01  -7.5641592e-01   7.8959207e-01   1.2518632e-01   9.9803912e-01  -9.6687989e-01   4.2875103e-01  -7.8274567e-01   9.4072558e-01   6.5842777e-01  -4.1069197e-01   5.6265498e-01   1.7141015e-01  -2.2911065e-01  -4.4302669e-01   8.5017968e-01  -4.8507283e-01  -8.8931179e-01  -8.7091236e-01  -8.2990802e-01   6.5871737e-01   6.0937990e-01  -8.8923803e-01   5.8558198e-01  -4.3622394e-01  -3.4668698e-01  -4.1176110e-01   6.2350801e-01  -1.7393276e-01   2.1697982e-01  -5.3112436e-01   1.3428156e-01  -9.2000972e-01   5.4099454e-01  -4.1707511e-01  -7.3395193e-01  -2.5298600e-01  -5.3860816e-01  -9.3384723e-01   3.9942753e-01  -1.6873838e-02  -2.8860093e-02  -5.7150007e-01   9.3562920e-01   1.8237023e-01  -4.1736923e-02  -6.2226411e-01  -7.1347884e-01   2.0078492e-01  -8.4648364e-01   4.3595940e-01   3.9526673e-01  -3.7210363e-01  -4.1114663e-01   6.0043403e-01   7.5364508e-01  -7.4162057e-01  -2.8610064e-01  -2.1233754e-01  -1.5421100e-01   2.3175366e-02  -4.6788183e-01  -6.9902242e-01   6.9054400e-02  -9.1168478e-01   4.0916719e-01  -7.1723381e-01  -7.0180673e-01  -1.5071858e-01   2.9857397e-01  -1.2474300e-02   5.9467948e-01   9.1060190e-01  -4.4271128e-01  -1.0997199e-01  -1.8407110e-01   1.9916484e-02  -4.0343472e-01   8.0455581e-01  -1.3497847e-01   2.1486978e-01  -1.2909352e-01  -5.7474892e-01   4.1356308e-01  -7.9650708e-01  -3.5757951e-01  -7.0203455e-01  -6.1531365e-01   7.6369213e-01   7.6327104e-01   4.2934200e-01   8.3046710e-01  -1.5851984e-02   1.3597185e-01   4.8494312e-01  -3.1585256e-01  -3.1389395e-01   2.8958275e-01   2.7601003e-01   8.1977635e-01  -7.6382261e-01   7.0422407e-01   9.5331245e-01  -1.9540145e-01  -3.0681392e-01  -9.0468979e-01  -7.6236669e-01  -8.8860517e-02   9.6091885e-01  -4.0237407e-01  -2.7321256e-02   5.7915301e-01  -9.6896652e-01   8.5402716e-01   5.1932985e-01   3.8835458e-01  -3.9777404e-01  -9.9452930e-01  -5.5527443e-01  -4.9859075e-01   4.2705954e-01  -5.6979699e-01   9.0815295e-01  -5.8498892e-01  -4.1041862e-02   4.0259957e-01   3.3564087e-01   4.3213224e-01  -7.7033518e-01   1.5701112e-01   9.4628400e-01  -2.3623548e-01   1.1897163e-01   8.8605248e-01   7.9749415e-01  -8.1193877e-01  -4.2351177e-01   7.9425186e-02   3.8200296e-01  -6.3313256e-01   8.2698388e-01  -4.7960488e-01  -8.4820245e-01   5.5744582e-01  -1.7540590e-01   6.2796932e-01   1.0010959e-01   7.5883494e-01  -7.1417845e-01  -3.6889304e-01   8.0241359e-01   7.2471661e-02   2.9723213e-01   8.7969176e-01  -1.9674658e-01   4.2585874e-01  -5.3967355e-01   1.1118073e-01  -6.1977691e-01  -3.0176439e-01   9.6262942e-03  -1.0021122e-01   6.5256532e-02   7.5212919e-01   7.3042031e-01  -8.4438998e-01  -8.1698781e-01   3.5058683e-01   9.2397765e-01   7.5499560e-01  -5.8554959e-01   5.8434575e-03   7.9099938e-01  -8.8763694e-01   9.1031580e-01  -2.1493480e-01  -4.9364620e-02   3.0182752e-01  -3.8091828e-01   5.8835310e-01   8.8920544e-01   8.5667429e-01   1.1735477e-01   4.0475279e-01  -3.8791120e-01   5.1855400e-01   4.4117545e-01  -2.5858274e-01  -3.8019145e-01   4.0399889e-01  -4.2126284e-01   3.2455632e-01   7.8283701e-01   3.6491060e-01   6.5222906e-01  -9.2651650e-01  -9.9163774e-01   3.2251356e-01   7.5229213e-01  -9.3049182e-01   3.2335216e-01   2.2741017e-01  -1.2836619e-01  -1.9529090e-01   5.5840154e-01   4.7597138e-01   6.6478252e-01  -1.4172538e-01   4.0858481e-01   1.0937540e-01  -1.2721850e-01  -1.1641518e-01  -3.1168027e-01  -6.1776537e-01   4.3993580e-01  -8.4569030e-01  -6.3349388e-01  -5.8883672e-01   2.5660890e-01   3.8044610e-01  -5.8150167e-01   4.2169176e-01  -3.7039479e-01  -1.4475263e-01  -2.7634626e-01  -4.7906669e-01  -8.3136537e-01  -7.1187463e-01   9.0497437e-01   3.3993848e-01  -9.1681747e-01  -6.0898482e-01   6.9121766e-01   9.9307639e-01   6.7335869e-01   1.6848033e-01  -3.8042507e-01  -1.0155957e-01   1.5461750e-01   9.0817754e-01  -6.5099655e-01  -8.8957921e-01   1.5334483e-01  -3.8403839e-01   3.3889009e-01  -5.4197920e-01   9.6850362e-01   6.0106006e-01  -6.2069507e-01  -5.0846130e-01  -9.0678222e-01   4.2808138e-01  -6.6392674e-01   6.3679743e-01   8.0034282e-02   3.7988870e-01   8.8361458e-01   4.8714845e-01   9.9809930e-01   8.7606175e-01  -3.4450898e-01   2.1488472e-01   8.7791819e-01  -6.3833938e-01  -9.6400376e-01   8.9338781e-01   3.2105217e-01  -8.0297527e-01   3.1548908e-01   4.0791768e-01   1.0144731e-01   9.5582591e-01   2.3439337e-01   9.6485882e-01   4.0569745e-01   9.5774468e-02  -8.0459468e-01   5.9516182e-01  -4.0505868e-02  -1.0155951e-01   1.0969987e-01   6.5715548e-01  -8.5935361e-01   3.5404099e-01  -6.0489737e-01  -1.3803640e-01   2.4086810e-01   6.2327632e-01  -2.6513531e-01   7.2311851e-01   3.1013345e-01  -4.0206365e-01  -8.5836552e-01  -2.1622901e-01  -8.6833995e-02   8.1343952e-01  -5.2031284e-01  -2.0258076e-02   8.3503406e-01  -7.8416403e-01  -4.2303968e-01  -1.9101736e-01   6.6257904e-01  -7.6089742e-01   9.8730907e-01  -2.2814793e-02   5.2828948e-01   5.3071418e-01   3.8827838e-01   5.8092485e-01  -2.1185524e-01  -9.0695051e-01   2.8871348e-01  -6.6007989e-01   4.4207187e-01   1.1370968e-02  -1.7619215e-01   6.5676040e-01   1.7286873e-01   4.6213865e-01  -1.4763077e-01   7.1740073e-02   4.5586913e-01   2.8039115e-01   8.9280887e-01  -6.8086981e-01   9.5322677e-01  -1.9098703e-01  -2.8991191e-01  -6.4329682e-01  -9.4120907e-01   4.2735512e-01   5.8747400e-01   1.9165007e-01   8.4601840e-01  -8.3499094e-01  -6.5200737e-01  -2.5817343e-01   2.4314225e-01   1.6386873e-01  -9.1199306e-01   2.6017606e-01  -4.7236413e-01  -2.2870988e-01   5.1982345e-01   8.7271444e-01  -2.1827708e-01   4.7355591e-01   4.1504978e-02  -2.6441422e-02   2.8848786e-01   2.9129037e-01  -3.1437639e-01   9.5945386e-01  -2.0631996e-02   6.6337469e-01   5.8447528e-01   5.9072141e-01  -9.0072529e-01   2.2047702e-01   2.6376149e-01  -5.4710787e-01  -8.1608571e-01   4.1056838e-01   3.8798285e-02  -8.6456184e-01  -2.6638358e-01   2.1026033e-01  -1.2967842e-01  -5.4037378e-01  -3.9770974e-01   7.8472071e-03  -5.0998630e-01  -7.2229951e-01  -9.2465567e-02  -9.5301055e-01  -2.4627752e-01   9.3806996e-01   2.8394582e-01  -7.0904669e-01  -8.1206599e-01  -4.8419973e-01   5.3550676e-01  -3.6640037e-01   5.5275900e-01  -9.7048982e-01   9.3922918e-01   1.9543067e-01   9.2438948e-01   5.3233408e-01   8.2099833e-01  -3.1890808e-01   6.8895398e-02  -1.5417003e-01  -9.9610425e-01   2.1665365e-01  -9.3774813e-01   3.4594265e-01  -3.9940863e-01   1.7796588e-01  -9.2371132e-01   5.7478995e-01  -4.0305552e-01   1.1456643e-02   4.1198274e-01   3.0884849e-01   7.3145496e-02   5.4357139e-01   3.4783349e-01  -5.7390324e-01   3.0787842e-01   4.3406502e-01   4.2792431e-01   2.6916599e-01  -9.8488897e-01   6.3227911e-01   7.8633176e-01  -3.9441192e-01  -8.3662445e-01   8.6406492e-01   5.7047107e-01   9.7860914e-01  -9.7030427e-01  -7.5357350e-01   3.4302475e-01   2.4620526e-01   9.4439127e-01  -7.4396370e-01  -5.4064096e-01   4.0113901e-01  -4.5749955e-01   4.8925749e-02   9.2965883e-01   7.3594306e-01   6.8780381e-01  -8.6808428e-01  -7.9213169e-01  -8.2691170e-01   2.5606640e-01  -7.4314346e-01  -3.9520083e-01   5.2637725e-01  -5.5372142e-01   2.7889892e-01   4.6978248e-01   2.2233464e-01  -2.5842092e-01   7.1645986e-01   1.0225650e-01  -9.9509213e-01  -1.6876469e-01   1.5091499e-01  -1.5564353e-01   4.6052933e-01  -9.5605799e-01   9.2671048e-01   4.4669257e-01  -3.7448961e-01  -9.1076558e-01  -6.3030291e-01  -2.1336573e-01   3.9176376e-01   8.9062650e-01   3.7556985e-01  -7.4471464e-02  -9.7351293e-01  -8.2140762e-01  -6.2859711e-01   1.1098260e-02   6.9438415e-01  -4.7061261e-01   3.9976367e-01  -2.6365579e-01   7.9861849e-01  -9.0321593e-01   8.0140670e-01   1.2191252e-02   8.5977466e-01   9.2910123e-01  -9.6770262e-01   5.4507335e-01   7.4643822e-02  -3.3795700e-01  -1.1545643e-02   2.5237753e-01  -3.9217281e-01  -2.2196607e-01  -3.0265293e-01  -8.8113095e-01  -3.3647548e-01  -7.5107545e-01  -2.6181032e-01  -8.5158826e-01  -5.8090230e-01   6.0010782e-01  -3.5321414e-01  -2.5174992e-01   4.2619623e-01   9.8206269e-02  -1.5818648e-01  -7.3792062e-01  -6.7379756e-01   1.8293535e-02  -8.4358980e-01  -2.3375504e-01  -6.0231998e-01   7.3031181e-01   2.3844758e-01   9.2958999e-01   5.9403803e-01  -2.1146506e-01   6.4960912e-02   3.0312148e-01  -8.0522984e-01  -2.6134022e-01   9.6848903e-01   5.9853391e-01  -9.4170604e-01  -8.8473302e-01  -2.2632024e-01  -2.4509760e-01  -8.2674721e-01   1.9085778e-01  -4.6266787e-02  -4.9061922e-01  -1.2479365e-01  -2.8896697e-01  -8.1693786e-01  -7.8827599e-01  -4.9032355e-01  -7.6152547e-01  -9.2739198e-01   6.9555937e-01   7.2542257e-01   9.4103170e-01  -8.0510750e-01   6.6694257e-01   1.4987802e-01   2.6897703e-01   6.0885187e-01  -5.3305658e-02  -9.8636249e-01  -3.5647900e-01   4.3769888e-01  -8.1750800e-01   2.1214112e-01   6.0120803e-01   1.2666629e-01   6.5980435e-01   4.0257628e-01   1.5777468e-01   5.7466340e-01  -3.6774043e-01  -3.3521577e-01   3.0146650e-01  -7.8570321e-01  -1.7364210e-01  -2.4952561e-01  -6.3240332e-01   9.0569019e-01  -3.1604538e-01   7.1188519e-01  -1.3149807e-01   3.4083156e-01   4.7276939e-02   2.9196963e-01  -4.3586896e-01   8.7699406e-01   6.5387956e-01  -1.1015576e-02   3.0029199e-01  -4.7264813e-03   3.2758249e-02   3.9588568e-01   7.8919923e-01  -7.1340243e-01   4.4768224e-01   2.9352166e-01  -6.7344414e-02  -7.3564909e-01  -5.2492167e-01  -7.2845797e-01   7.4478079e-01   6.3962649e-01   2.4598958e-01  -9.2884338e-01   8.0492127e-02   9.8612155e-01   3.8001076e-01  -9.3482887e-01   4.0235432e-01   9.6519416e-01  -7.8526231e-01  -4.1293628e-01   6.6158500e-01  -1.8054974e-01   6.3466609e-01   2.8575466e-01   6.4895543e-01  -6.6042333e-01  -8.3943689e-01   7.3856479e-01   9.4488657e-01  -8.7454542e-02  -3.6535945e-01  -9.4020603e-02  -4.5845750e-01   7.2167174e-01  -5.8969360e-01   9.5960912e-01  -7.6459945e-01  -4.3645004e-01  -5.0707579e-02  -9.8642934e-02  -3.4474773e-01  -4.4692657e-02   8.5750829e-02   5.5669242e-01  -6.1016747e-01  -6.9772524e-01  -5.9581423e-01   4.5340057e-01  -9.5446281e-01   7.2684242e-02   8.8063739e-02  -4.7706646e-02   9.0185264e-01   8.6972668e-02  -6.0370444e-01  -1.6281867e-01  -2.7850322e-01   2.5832333e-01  -4.3110495e-01  -5.3169413e-01   8.9395081e-01  -6.9883108e-01   2.4196392e-02   9.8620528e-01  -9.9525519e-01  -1.6172913e-02  -5.6117391e-01   4.8055761e-01   7.4921447e-01   8.0735732e-01   9.4916153e-01  -1.2472920e-01  -3.3715456e-01   9.7359992e-01  -9.1179085e-01  -8.2327217e-01   3.1063603e-01   7.4377242e-01  -2.5244950e-01  -8.6755081e-01  -4.1786700e-01   9.0284074e-01  -7.6685441e-02   7.6448762e-01  -2.0952961e-01   2.4169818e-02  -4.3436538e-01  -6.1008057e-01  -4.1412434e-01   5.3604974e-01  -5.0610969e-01  -5.3052255e-01   1.4798765e-01  -2.7284893e-01  -9.8980755e-01  -6.4637632e-02  -1.0259489e-02  -2.0945518e-01  -5.9183812e-01   8.3714400e-01  -2.4961375e-01   2.3846648e-01   6.9674566e-01   4.1288408e-02  -8.0397954e-01  -6.8002286e-01  -8.1851659e-01  -1.1196705e-01  -4.1061382e-01   9.0033618e-01   9.4716590e-02  -1.1096613e-01  -5.0023322e-01   2.2008556e-01  -4.3541453e-01  -1.5005951e-01  -1.5921645e-01   8.2727948e-01   7.3663660e-01  -3.8218376e-01   1.2647476e-01   7.3244175e-01   9.2203266e-02   6.8691513e-01   5.7295948e-01   8.0841606e-01   9.6647705e-01  -1.1979263e-01   9.4870256e-01  -2.4594715e-01  -1.4237813e-01  -3.9372350e-01   2.8488862e-01  -3.8210388e-01   1.0050034e-01  -5.7381279e-01  -6.6822191e-01   9.8292331e-01   8.7208196e-02  -3.9829988e-01   4.6145391e-01   2.5308452e-01   1.1284329e-01  -5.4007567e-01  -1.5324633e-01  -4.2750517e-01  -2.8405641e-01   2.3507117e-01   1.3217157e-01  -1.0762781e-01   3.3061881e-01  -4.5663645e-01  -3.6799964e-01  -8.8484730e-01  -1.3476884e-01   9.6437192e-04  -3.0926268e-01   5.2571703e-01  -8.3455559e-01  -9.1028971e-01   9.8606209e-01  -5.7242818e-01   9.5405902e-02   1.1420350e-01   1.6144876e-01  -7.3804271e-01  -9.5148990e-01   4.0305411e-01   3.9599906e-01  -1.7279206e-01   8.7738126e-01  -6.9604839e-01  -3.7386368e-01   1.6008257e-01   9.9455969e-01  -8.2550575e-01  -6.5479590e-01   9.4156218e-01  -9.8571522e-01   6.1300797e-01   9.0296271e-01   4.1804532e-01   6.5109053e-02  -5.4528919e-01   7.3170842e-01   9.0733761e-01   7.5424548e-01  -5.1917220e-01   7.7523215e-01   7.6401193e-01   5.9800348e-01   7.5439785e-01  -8.8822789e-01  -8.7994492e-01   6.2820572e-02  -9.2463020e-01   5.8255857e-01  -6.3135085e-01   9.1665036e-01  -3.3702405e-01   4.4454688e-01   5.2730686e-01  -1.5656596e-02   1.3172627e-01  -4.1404369e-01   5.5516001e-01  -7.3675539e-01   6.8486984e-01   2.5551072e-03  -6.4705889e-01   7.8689796e-01  -3.8409281e-01   3.9550069e-01  -8.1439732e-01  -3.9940456e-01  -3.2018493e-01  -9.8086474e-01   6.0253707e-01  -8.0702273e-03   4.2496645e-01   1.9702223e-01   1.8865032e-01  -9.2139319e-01   2.1185587e-01   6.1607982e-01  -5.8549811e-01   6.7687353e-01  -8.1617332e-01  -6.8519125e-01   5.5671192e-01   4.5339196e-02  -6.2232582e-02   7.3499974e-01  -5.6673265e-01  -2.0919363e-01   5.9144637e-01   6.6071529e-01   7.7457764e-02  -8.0979613e-01  -9.5591666e-01  -3.7906927e-01   4.4051778e-01  -8.7480637e-01   5.7918294e-01  -3.2364395e-01  -5.0082572e-01  -5.7696282e-01  -7.4722049e-01  -9.6604884e-01   5.3691112e-01  -1.4812984e-01   1.5863507e-01  -9.6198405e-01
   5.4234752e-01   8.7354277e-01  -9.9120116e-01   8.1754993e-01  -4.8008957e-01   2.5428280e-02   5.9865619e-01   2.4920071e-01  -3.9569963e-01  -8.3134627e-01   4.7422890e-01   3.2732692e-01   5.8936212e-01   5.3679025e-01   1.9245915e-01   9.7323221e-01   3.1766668e-01   2.9077644e-01  -2.3191740e-01  -5.4752229e-02   4.3397424e-01  -1.6144751e-01   9.7968842e-01   1.6746401e-01   7.0402306e-01  -7.4381244e-01  -5.4687079e-01  -5.1372934e-01   6.6080682e-01   3.0951950e-01  -6.6489341e-01   3.9106861e-01  -2.8316028e-01  -2.9300171e-01  -2.5185007e-01  -4.5874585e-01  -9.6205508e-01  -2.7746100e-01  -6.3466492e-01  -4.6107837e-01   2.3089217e-01  -2.2628066e-02   2.2694593e-01   6.4656289e-01  -2.4458900e-01  -8.0659358e-04   5.6050460e-01   9.0506983e-01  -1.5272996e-01   1.3797893e-01   4.8562773e-01   4.3865876e-01   9.6256116e-01  -9.2629330e-01  -9.7724769e-01  -5.0030385e-01  -2.8390318e-01  -1.2439621e-01   6.3447031e-01   4.1946808e-02  -2.9026042e-04  -2.9473143e-01   7.2248019e-01  -7.1767881e-01  -4.0103384e-01  -2.4527595e-01  -6.9108607e-02   9.9538629e-01   5.2638937e-01   8.5120555e-01   9.9166837e-01  -1.2506608e-01   2.3298140e-01  -7.8943336e-01  -4.6621960e-01  -7.0097335e-01   5.3888902e-01  -3.7486951e-01  -1.4969615e-01   4.4474137e-01  -9.1642772e-01  -3.0755731e-01   4.6550046e-01   5.5678251e-01  -4.3414352e-01  -4.5217981e-01  -5.9646457e-01   1.0327750e-02  -9.6607846e-01  -6.3877415e-01  -1.5555999e-01  -8.2618734e-01  -6.6590151e-01   5.0421661e-01   3.8553475e-01  -1.7324000e-02   5.3120349e-01   3.9784618e-01   3.6899906e-01  -5.8263830e-01   7.6862585e-01   8.7784021e-01  -5.1899028e-02   8.0217488e-01   3.6364958e-01   6.9786320e-01   4.2399655e-01  -4.1687989e-01  -2.9432937e-01  -9.3390612e-01   6.3877968e-01   8.2156361e-02  -4.0998944e-01  -8.7456416e-01  -1.7339787e-02  -4.2771055e-01  -1.5768747e-01  -5.5486855e-01   5.7067406e-01   6.7962582e-02  -9.7600990e-01  -7.0604037e-01  -6.8562857e-01   3.2385685e-01   9.0801752e-01  -6.6523461e-01   7.8984658e-01   7.2059237e-01   9.9159784e-01  -8.3155668e-01   2.2395471e-01  -6.3257524e-01   7.0703000e-01  -5.0634239e-01   2.4206518e-01   2.5623452e-02  -3.5349708e-01   7.2489414e-01  -3.3675542e-01  -8.8025161e-01   2.3503407e-01  -2.1148776e-02  -6.7724465e-02   3.0741432e-01   3.1741075e-01   3.2613123e-01  -3.1941494e-01  -5.0019616e-01  -9.5707874e-01   5.3459581e-01  -9.4962700e-01  -8.3752961e-01  -4.9983516e-01   4.9865205e-01   9.0152579e-01  -9.1497593e-02  -3.0089540e-01   2.3964950e-01   9.1842994e-01   8.0336844e-01  -6.6105762e-01  -8.0696725e-01  -3.8384500e-01   9.0805708e-01  -2.4036989e-01  -6.1036371e-01   4.9896033e-01   1.0780470e-01   8.1497930e-01  -8.0980863e-01   9.7887266e-01  -7.7959332e-01   9.2535647e-01   4.3085833e-01   4.3583778e-01   9.2815028e-01  -8.2336197e-01   6.5727346e-01   1.5355802e-01  -7.7519833e-01   2.7180456e-01   4.0557787e-01   7.5760748e-01   2.8005768e-01  -4.4794959e-01   4.0171421e-01  -8.6849700e-01  -4.3762612e-01  -9.3249506e-01   2.4487703e-01   2.9462588e-01   2.4044975e-01   2.7306748e-01   1.7067785e-02   2.5997062e-01  -1.0843414e-01   2.7824713e-01   2.3705634e-01  -8.4741541e-01   6.1076233e-01  -1.8737473e-01   6.8756501e-01  -3.5560113e-01   8.7300309e-01  -1.1323963e-01  -5.5966833e-01  -6.4883416e-01   7.4327318e-01   5.5878342e-01  -8.0144729e-02   7.3659795e-01  -5.3593139e-01  -6.6688097e-01  -6.0281967e-01   3.8827665e-02  -2.8651722e-02   3.9884652e-01  -8.9699945e-01   3.8870235e-01  -7.5480142e-01   3.8763114e-01   1.5510661e-01   8.9800004e-01  -4.9883643e-01   9.9096496e-02  -4.4827877e-01   4.3976912e-01  -8.6438316e-01   7.2513212e-01  -6.2460550e-01   6.7144067e-01   6.1934015e-01   4.2988928e-01  -6.8642697e-01  -1.7734901e-01  -9.8906680e-02  -5.9026746e-01  -1.2348535e-01  -3.0860465e-01  -8.7396919e-01  -9.4436503e-01  -9.0920447e-01  -4.9914994e-01   5.0826788e-01  -4.7759539e-01  -1.3515399e-01  -6.5303811e-01   1.1351326e-01   4.9842484e-01  -7.3208778e-01  -2.0954291e-02   3.3700298e-01   2.9101599e-01  -7.3664179e-02  -1.3099074e-01  -5.4677723e-01   4.4424793e-01  -4.4456272e-01  -5.0255126e-01   8.3759692e-02   4.9144072e-03   4.8698561e-03  -8.1072240e-01   7.8314860e-01   5.1701206e-01   8.0325376e-01   4.0085450e-01  -3.7451952e-01   6.5287253e-01  -2.8816558e-01   8.0619613e-01   2.6519167e-01   9.2228846e-01  -6.9037460e-01  -2.0498612e-01  -1.5230737e-01   6.0400845e-01  -8.6433739e-01   5.7050578e-01   5.3649307e-01   7.0387861e-01   1.9837199e-01  -8.9242446e-01   4.6221566e-01  -2.0893613e-01  -1.7688847e-01  -3.2406581e-01   8.0136882e-01  -3.2317065e-01  -2.8015884e-01  -2.9029863e-01  -6.3097412e-01   1.5111056e-01   1.2911131e-01  -5.6276954e-02  -3.7182397e-01  -8.3959508e-01  -9.9253516e-01  -7.5844903e-01  -9.7423043e-01  -8.6213231e-01  -9.9338131e-01   7.5902876e-01   9.4157437e-01   6.3020951e-01   7.2866599e-01   1.0604537e-01   5.2455392e-01  -9.6582790e-01   8.1972202e-01   6.4085220e-01   5.1642335e-01  -8.1192695e-01  -3.1872472e-01   8.0580312e-01   6.5735186e-01   5.5566373e-03   6.1319557e-01  -5.9905473e-01   1.8736023e-01  -6.9782874e-01  -6.5030612e-01  -1.5221698e-01   5.3100619e-01   7.7737158e-01  -3.5384213e-01  -9.6985804e-01  -7.0009540e-01   6.2111239e-01  -3.1919876e-01   9.9155294e-01  -7.0060206e-01   3.0779867e-01  -2.1225412e-01   4.6367770e-01  -2.4915249e-02   7.0258964e-01  -2.9982516e-01   5.9098271e-01   9.8137998e-01   1.1559558e-01  -5.3121110e-01  -8.4503770e-01  -8.6883655e-01   9.3585616e-01  -5.2825259e-01  -7.9315928e-01  -5.8995500e-01  -8.3026727e-01   7.5386070e-01  -6.7887949e-01   8.5047264e-01   7.2443324e-01  -6.2764741e-01   9.5238656e-01  -4.0986842e-01   5.0077502e-01  -1.7499636e-01  -7.0603496e-01   3.1143263e-01  -3.4631696e-01   6.3855957e-01  -1.0331819e-01   5.9370149e-01  -4.7290110e-01   5.0564598e-01  -9.5895777e-01  -5.9975960e-01   3.8055731e-01   9.0162939e-01  -2.4682387e-03   2.3514518e-02   4.9162069e-01  -7.7836222e-01   7.5854811e-01  -9.5549157e-01  -1.4009149e-01   5.0907298e-01  -2.0792697e-01  -8.0678295e-01   1.0005304e-01  -3.8720210e-01   5.9765944e-01  -6.7063275e-01   1.7017699e-01   4.7426048e-01   5.7124041e-01  -7.2896968e-02  -4.6614826e-01  -8.7873215e-01  -9.6461463e-01   1.4091927e-02   2.3073572e-01  -6.0155935e-01  -1.1686911e-01   1.7668132e-01   3.6287434e-01   8.6585584e-01   5.7080816e-01   3.8394414e-01   1.4079811e-01  -9.1948479e-01  -8.7284276e-01   4.9826934e-01   2.5887923e-01   3.7286082e-02   7.5848527e-01  -6.7674405e-01   6.8863027e-01  -4.2948531e-01   1.6317421e-01  -3.0066714e-01   9.0566439e-01  -4.0813276e-01  -9.0889183e-01   9.5724709e-01  -8.9549235e-03   1.0136546e-01  -2.7056650e-01  -1.9309491e-01  -7.8859359e-01  -5.2496971e-01  -3.8241580e-01  -7.3616020e-03  -4.9905154e-01  -4.6428393e-01   4.5388903e-02  -1.4240541e-01  -3.1122316e-01   1.8661590e-02  -9.6422793e-01   3.5803756e-01   9.8701813e-01   9.6347821e-01  -6.0333318e-01  -5.6180397e-01   1.5874242e-01  -8.5502592e-01  -9.8689552e-01  -8.1950212e-01  -9.6107466e-01  -5.7724811e-01  -9.7946765e-01   4.8654559e-01  -5.0553996e-03   6.6893332e-01  -4.5160052e-01  -9.4235204e-01  -9.2889592e-01  -8.2283596e-01  -2.8076481e-01  -2.7619694e-01  -3.6866641e-01   4.7143002e-01   5.3968918e-01   1.8572756e-01  -4.4564181e-01   9.6853820e-01   1.0843116e-01   9.8894027e-01   9.7700178e-01   9.8379590e-01  -6.1001817e-01   8.0506245e-01   8.6640931e-01   9.7772964e-01   1.3450321e-01  -7.8857448e-01  -1.2844179e-01  -6.0518364e-01  -3.3184584e-01   2.7652127e-01   4.9697120e-01  -6.4683434e-01   2.5818330e-01  -9.0447808e-01  -4.2449855e-01   8.8104670e-01  -9.3303601e-01   7.5988792e-02   9.9259066e-01   2.4281311e-01  -2.9190405e-01  -2.9303077e-01  -2.2075759e-01   5.2378978e-01   6.6355956e-01  -2.0688343e-01  -5.9808851e-01  -7.2315168e-01   2.7068125e-01  -8.9567432e-02  -7.9224998e-01  -7.6068816e-01   6.4383155e-01   8.3955877e-01   2.8409890e-01  -8.5795081e-01  -4.6606916e-01  -2.9759189e-01   1.1645795e-01  -1.9579028e-01   7.9891403e-01   9.8955084e-01   2.7326676e-01   4.7928669e-02   2.8988205e-01   5.7117744e-01   7.6907424e-01   5.8990077e-01   1.0910020e-01   8.6442539e-01  -7.4815102e-01  -3.4690327e-01  -5.0944384e-01  -5.1613492e-01   5.9513819e-01  -2.4216861e-01   1.5518024e-02   3.3799958e-01   6.3719609e-01  -5.2256898e-01  -7.1956350e-01   8.9062223e-01   4.9891225e-01   5.9548181e-01  -5.7751439e-01   3.3942179e-01   9.7806881e-01   1.7459634e-01   1.1453998e-01   3.0430107e-01   3.0633900e-01   5.1931560e-01   5.1121998e-02   3.9668207e-01  -5.7544025e-01   3.3567776e-01  -3.3837123e-02  -2.3600626e-01  -8.1981912e-01  -7.6936663e-01   1.7335996e-01  -5.9038286e-01  -8.7354456e-01  -2.2242590e-01  -3.5011633e-02   6.4902453e-02   4.9853475e-01  -4.2258607e-01   4.3134139e-01  -5.4096178e-01  -6.6903146e-02   5.5493340e-01   7.5001526e-01   7.6278988e-01  -3.5728863e-01   5.6826433e-01   2.0209024e-01  -7.2422837e-01  -2.3580009e-01  -1.5112666e-01   4.5575860e-02  -2.9872547e-01  -6.4811674e-01  -3.4449325e-01   4.8305293e-01  -9.6135869e-01   8.6722306e-01   9.2632262e-01  -2.3389961e-01   5.4116185e-01   4.3654752e-01  -7.8763295e-01  -7.2239215e-01  -5.9348833e-01   6.9469096e-01   8.0682484e-02  -8.8959849e-01  -6.8203056e-01  -8.9488907e-01   3.7127839e-01   3.7205961e-01   3.8317512e-01   1.6349683e-01  -7.2936191e-01  -5.9606435e-01  -5.5643905e-01  -6.3539073e-01   4.3701059e-01   1.8946492e-01  -5.8279522e-01  -6.4154388e-01  -8.2148027e-01  -2.3914359e-01   3.3532728e-01   7.3189486e-01  -4.6031096e-01  -6.7729610e-01  -3.9036279e-02  -8.7877505e-01  -9.2622469e-01   4.7674451e-01   1.1081848e-01   4.8167838e-01   3.8703798e-01   4.3627134e-01   7.2589077e-01  -3.0378560e-01  -8.7149335e-01   5.5242790e-01  -8.3689251e-01   8.8870952e-01   4.3376864e-01   9.4276708e-01  -8.8723132e-01  -1.0889278e-01  -3.3110005e-01  -3.0460965e-01   3.1380080e-02  -5.3569454e-01  -5.1763989e-01   3.6969343e-01  -2.0717283e-01   1.0621148e-01   1.2374437e-01   6.3827145e-01   6.6610442e-01  -6.9337619e-01   8.4992936e-01  -4.2123996e-01   5.5783381e-01  -3.6243419e-01  -1.5074005e-01  -3.7629849e-02  -5.5944409e-01   6.6475679e-01  -4.6500105e-01   5.0713365e-01   3.5755446e-01   6.1937302e-01  -6.5702059e-02  -1.5458743e-01  -5.0395732e-01  -3.8116101e-01   1.9129652e-01  -9.5340093e-02  -5.9008129e-01  -2.8649706e-01  -6.1110329e-01  -5.5124062e-01  -6.2987466e-01   1.6880515e-01   6.6221850e-01  -2.5460959e-01  -8.6876031e-03  -2.2423861e-01   1.2486136e-01   9.1750060e-01  -3.1604440e-01  -1.3753811e-01   8.8187464e-01  -7.3469864e-02   6.5922552e-01  -9.1946134e-01  -7.7352686e-01   5.6799955e-01  -7.4552177e-01   6.3289219e-01   9.0250175e-01   7.2291513e-02   7.0286329e-01   9.3296182e-01  -3.6870440e-01  -5.1429587e-01   1.8170875e-01   5.9394488e-02   2.9572831e-01  -3.3441205e-02  -2.9436673e-01  -6.0862625e-01   1.1421162e-01   2.8245124e-01  -6.4216381e-01  -5.0095706e-01  -1.8442374e-01  -8.1064786e-01   7.4793128e-01   6.2539892e-01   2.7748460e-02   2.3424688e-01  -7.7381895e-02   2.2415538e-01  -8.7947570e-01   3.6551082e-01   5.7711320e-01  -4.2499646e-01   2.0529676e-01  -5.4181136e-01   1.5165875e-01   2.4863145e-01   1.6161558e-01  -1.2211877e-01  -6.1600967e-01   3.1367077e-01   5.4286919e-01   5.5734142e-01  -2.3524903e-01  -9.4870411e-01  -3.8781023e-01  -2.2231098e-01  -7.7961391e-01   6.0161676e-02   2.7099996e-01   5.1550756e-01   3.2394530e-01  -7.0672644e-01  -7.4882956e-01  -8.3986884e-01  -2.0609595e-01  -6.4442206e-01  -1.6533848e-01  -9.8232672e-02   2.9221651e-01  -8.3449638e-01   1.8457746e-01  -2.0829387e-01  -8.5834921e-01   5.7122241e-01   9.2860941e-01   5.5302604e-01   8.5697871e-01  -3.8773449e-01   4.3876749e-01   5.7167761e-02  -2.8605055e-01  -9.9290459e-01  -3.8952758e-01  -5.3698522e-01   9.3134418e-01   6.3952666e-01   4.0233831e-02   1.6811012e-01   1.3292892e-01   5.6326914e-01   7.5282592e-01   5.9009010e-02   2.3831365e-02  -1.2161573e-02   8.5371905e-01   1.4403200e-01   1.0313328e-01  -3.0165068e-01   5.2226758e-01   9.0428996e-02  -7.2217788e-01   1.5654177e-01   1.8964813e-01  -8.8952238e-01   9.3161902e-01  -6.9397186e-01  -1.3364789e-01   2.5464224e-01  -5.6333564e-01  -8.6477832e-01   6.5230416e-01  -7.5514494e-01   5.1409525e-01   1.5354242e-01  -1.6065976e-01  -1.4243138e-02  -1.3896336e-01   9.9385774e-01   1.7249983e-01   5.1734678e-01   8.0019792e-01   8.5834609e-01  -4.1911729e-01  -6.2300726e-01   4.8376241e-01   3.5635002e-01   1.0655589e-02  -2.2653053e-01   2.4794411e-01  -6.1266851e-01   6.1751357e-01  -3.7374993e-01   6.3530252e-01  -5.5471817e-01  -1.1009485e-01  -8.0876609e-01   9.6042625e-01   3.9153855e-01   3.1430985e-01   6.7966135e-01  -2.7617629e-01  -1.5887312e-01  -9.5714834e-01  -2.6650153e-01   6.8917314e-01  -5.9546305e-03   1.7512999e-01   5.5442850e-01   9.0765690e-02  -8.6670831e-01   2.6462268e-01   9.8960558e-01  -7.4973361e-01  -9.3593454e-01  -4.5204860e-01   8.3996336e-02   4.1247681e-01   6.2778903e-01   8.6903539e-01   4.3426221e-01  -3.0455187e-01   3.7883953e-01   2.0804278e-01  -2.7943717e-01   5.4805762e-01   7.4967871e-01  -2.5296376e-01  -7.8178799e-01   3.4257231e-01   9.7918342e-01  -9.6153236e-01  -3.7624261e-01   5.7460977e-01  -2.8105921e-01   8.6952054e-02   6.3848493e-02   3.9374658e-01   3.8572332e-01  -5.7775571e-01  -2.8916514e-01  -1.0070312e-01   1.0026800e-01   9.0305873e-01   5.1143300e-01  -6.3149432e-01  -4.7039483e-01   2.5103015e-01  -4.3163883e-01   2.7124924e-02   4.5501272e-01   6.4855393e-01  -5.8081015e-01   7.1831976e-01   8.9847486e-01  -7.9867501e-01  -6.8706120e-01  -8.7082305e-01   1.2776940e-01   8.3405349e-01   4.4043794e-01  -9.6042037e-01  -8.4752819e-01   5.2425073e-01   4.3821033e-01   2.0522437e-01   6.3033800e-01  -2.5528017e-01  -3.4307429e-01   7.4751304e-01  -2.0612926e-01   2.4844005e-01  -4.3631168e-01  -2.5980709e-01   7.9892375e-01   1.3719558e-02  -6.5621264e-01  -1.5968127e-01  -6.3347445e-01   8.3502776e-01  -4.2777741e-02   1.4896120e-02   5.9196786e-01   9.3328270e-01  -7.8520222e-01   9.9079366e-01  -5.8674593e-01   4.8048046e-02   9.0089984e-01  -2.5469866e-02  -9.1650560e-01  -4.9987528e-01   1.1244066e-01   5.2929699e-01   2.9049098e-01   3.8500303e-01   8.1058526e-01   1.0635568e-01  -9.6908899e-01   5.2535180e-01  -8.9325192e-02   9.0324746e-01  -2.3487304e-01  -5.0275492e-01   7.1016342e-01  -2.8477171e-01   6.4855070e-01  -7.3322143e-01   8.3269595e-01  -6.2580029e-01  -4.4756389e-01  -7.9509944e-01   6.1595386e-01   9.5692664e-01  -8.4208038e-01   6.1288061e-01  -7.1609588e-01   7.8784539e-01  -1.8381568e-01  -5.2191035e-02  -5.2404417e-01   9.9914491e-01   9.5088174e-01  -7.3956666e-01   3.1177171e-01   7.3931694e-01   2.9210644e-01  -7.9666409e-01   1.6762675e-01   3.2411364e-01  -6.8902125e-01  -2.5518600e-01   4.5985257e-01  -2.0907589e-01  -6.1052580e-01  -7.1056660e-02   2.5580465e-01  -6.7688602e-01   1.4621608e-02  -7.7144939e-01   8.9146313e-02  -5.1698298e-01  -9.8291288e-01   2.8256161e-01   7.9262937e-01  -7.9319207e-02   6.2372825e-01  -7.2918035e-01   3.2341400e-01   6.2989518e-01   6.0724274e-01   6.9761964e-01  -5.2457640e-01   4.5266651e-01  -9.8432186e-01  -4.6645125e-01  -7.3114442e-01  -2.3825557e-01  -2.5819463e-01   8.1135501e-01  -2.3012061e-01   1.0081028e-01   4.0824505e-01  -3.6116894e-01   5.0615236e-02  -6.7838548e-01   1.0419626e-01  -6.5679961e-01   2.3732789e-01   3.5585848e-02  -2.4298655e-01  -9.6223548e-01   9.3098658e-01  -5.7942978e-01  -9.4734242e-01  -7.9561591e-01   5.1380626e-01   6.7376036e-01  -1.8808957e-01  -1.6588381e-01  -6.3662286e-01  -5.1077173e-01  -1.0659408e-01   8.6581165e-02  -2.8232957e-01  -9.9782868e-01  -1.9065440e-01   1.0973770e-01  -7.5675304e-01   9.7157065e-01   7.2514089e-02   3.2069426e-01  -5.4667771e-02   1.7209047e-01  -1.5383333e-01   4.0017853e-01  -5.6977559e-01   8.8383305e-01   7.9937065e-01  -9.5773519e-01  -5.0566482e-01   5.0646120e-01   9.0474309e-01   1.4925733e-01  -3.6843359e-01   1.5236914e-01
  -1.1234160e-02  -7.4244816e-01  -7.2332613e-01  -9.4765945e-01  -9.2965167e-02  -7.7345231e-01   3.1238247e-01  -8.8018556e-01  -2.8046154e-01  -1.4673633e-01   8.4175057e-01  -3.1278786e-01   6.5246673e-02  -4.0046853e-01  -8.7508571e-01  -9.9815347e-01   8.6450369e-01  -7.2083913e-01   5.2505818e-01   2.5077701e-01  -5.9742588e-01   1.2605697e-01  -4.0444771e-01  -6.0267282e-01  -5.2754643e-02  -9.4567480e-01  -4.1481404e-01   7.8485174e-01  -5.2345509e-01   8.9306248e-01   4.5245761e-01  -8.8874280e-01   7.6014850e-01   6.9915650e-02   8.2517071e-01   7.5181748e-01   2.0189915e-01   4.9501017e-01   9.1560460e-01  -9.6254171e-01   6.3376131e-01  -4.9247825e-01  -2.1423605e-01  -3.3151208e-01  -5.5356364e-01   8.3082053e-01  -9.9864773e-02  -2.3419328e-01   4.3223781e-01  -3.8310249e-01  -7.4701067e-01   8.5233923e-02   6.6515731e-01  -8.9238678e-01  -2.9306289e-01   7.0217226e-01   7.1561792e-01   7.1166791e-01   7.3447560e-01   5.0881938e-01  -3.2848103e-01  -9.3066658e-01   2.8125617e-01   6.3035832e-01   9.3367482e-01  -7.1511316e-01   9.4691455e-01   7.9801540e-01   5.9815849e-01   4.4584076e-01   4.4637305e-01   8.0874564e-01   1.4972457e-01   3.6511111e-01   9.2438468e-01  -8.7720925e-01   3.6993881e-02   9.9693856e-01  -8.6422935e-01  -7.0307585e-01   6.4508397e-02   5.9784164e-02  -5.6460278e-01  -6.1741316e-01  -1.4605352e-01   3.5652919e-01  -6.5746738e-01  -1.4457482e-01  -5.4537530e-01   1.2266991e-01  -7.5449543e-01  -4.5102528e-01   8.9113452e-01  -1.9795371e-01  -4.7865978e-01  -5.1533793e-01   8.5852613e-02  -6.8637834e-01   2.3941959e-01   5.8161065e-02   2.1601022e-01   6.1317552e-01   8.8917909e-01  -7.1795413e-01   1.2862844e-01   5.5889066e-01  -1.4175363e-01   1.5999480e-01   3.6383095e-01   1.5384766e-01   1.4552262e-01   6.4272688e-01   2.0337705e-01   6.6158140e-01  -2.2403447e-01   6.6542942e-01   5.2049939e-01   4.2674440e-01   2.2587081e-01  -3.4668860e-01  -6.0252674e-01   1.5734824e-01   1.2724661e-01  -6.7618852e-01  -3.1653489e-01   7.8462971e-01  -7.1472049e-01  -1.2941330e-01   9.7170612e-05   3.0928078e-01   1.5627049e-01   6.9253046e-01   8.0258604e-03  -6.1494575e-01   8.6751083e-02   9.6525618e-01   5.4477201e-01   2.4626012e-01   3.0044952e-01  -2.1889621e-01  -4.6713717e-01  -7.8308357e-01   5.8792530e-01   4.9544215e-01   1.3598165e-01   6.9851437e-01   1.9102478e-01  -6.2863445e-01   1.4186860e-02  -4.5930477e-01  -6.0082247e-01   4.9935567e-01   2.7585166e-02   8.3169657e-03   5.0913925e-01  -1.0420166e-01   3.8556930e-01   9.3031840e-01  -9.5748539e-01  -5.5814502e-01   7.2087005e-02  -2.4600621e-02  -1.5752514e-01   4.7337587e-01   7.1867833e-01   7.9365676e-01  -5.2927984e-01   1.6840673e-02  -2.0507230e-02   8.9589974e-01   4.4458061e-02  -3.3249335e-01   1.9079647e-01   1.4035645e-01   8.9538112e-02  -2.9313354e-01  -5.2979957e-01   2.3654778e-01  -3.7850500e-02  -2.3102449e-01  -6.5751351e-01  -7.4564768e-01   6.5340028e-01  -1.5598179e-01   1.2118847e-01   1.6531841e-01   4.5230143e-01  -7.6722600e-01   7.1705073e-01  -5.3589024e-01  -8.9126057e-02  -7.6283726e-03  -1.4882747e-01   8.6604287e-02  -9.5320437e-01  -1.3018304e-02  -4.0480074e-01  -2.5738913e-01   9.4506697e-01  -9.0577553e-01  -3.3448857e-02  -5.7688120e-01   4.9720663e-01  -2.2372702e-01   3.8210608e-02  -1.4985162e-01  -2.0677671e-01   4.5724495e-01  -1.6301808e-01  -9.1969772e-01   5.5816953e-01   1.7173243e-01   4.7262198e-01   3.2046702e-01   6.3206399e-01  -5.2222378e-01   2.9702542e-01  -8.5189648e-01  -1.4983941e-01  -3.3493825e-02   5.8000962e-01  -7.7692636e-01  -7.3937833e-01   5.5983668e-01   3.1379164e-01  -7.4557515e-01  -8.6018854e-01  -2.0586345e-01   2.5037498e-01  -3.7720080e-01  -8.8841319e-01  -1.3896147e-01  -6.3550034e-01  -3.3932381e-01   2.4363849e-01  -2.5717198e-01  -4.2468641e-01   6.4416341e-01   2.6268334e-03   9.4151310e-01   5.3261505e-01   5.6279161e-01   6.3573685e-01   7.8480317e-01  -6.8982244e-01  -2.9455540e-01   1.7239062e-01   3.6926636e-01   2.9676249e-01  -6.1343049e-01   6.2808214e-02   3.8304554e-01  -9.8153890e-01  -7.9591156e-01  -2.7792991e-01  -4.3986691e-01   7.8488142e-01  -7.3490906e-01   2.9450065e-01  -3.2395978e-01  -3.9596655e-01   8.1272443e-01  -7.1739971e-01   5.1605136e-01   4.1414502e-01  -5.7160409e-01  -2.4053758e-01  -5.3158784e-01  -6.4519123e-01   8.6850213e-01   5.8145654e-01  -3.8145910e-01  -3.2932708e-01  -3.4156032e-01  -9.9552144e-01  -8.5841199e-01   5.7651962e-01   8.8648277e-04  -5.5576440e-01  -7.6394811e-01  -9.6822219e-01  -1.0505539e-01   8.1134621e-01  -8.3163349e-01  -2.2334303e-01  -3.2486015e-01  -2.1716204e-02  -8.0302298e-01  -6.6935920e-01  -4.4716814e-01   9.4706072e-01  -8.3301743e-03   1.0705998e-01   9.1262679e-01   2.5242245e-01   1.0943309e-01  -5.7608206e-01   3.0428543e-01  -6.0259510e-03   1.6961595e-01   7.7773067e-01   8.0855902e-01   1.7402970e-02  -6.3173364e-01   8.5662718e-01   2.7414199e-01   1.0664506e-02   3.8096070e-01  -3.5905311e-03   2.9929370e-01   3.6280857e-01   6.4781111e-01  -1.6761272e-01   1.3816759e-01   3.9870778e-01   2.0417567e-01   9.6571929e-01  -4.0281869e-01   4.4688985e-01  -4.5745950e-01  -8.2966809e-01  -3.9528529e-02  -8.2303618e-01  -7.2111126e-01  -7.3446827e-01   5.5741980e-01  -9.0794963e-01   2.8997271e-01  -7.4821061e-01  -2.4891907e-01   5.9443328e-01  -2.8210930e-01   4.3369968e-01  -1.6728269e-01  -4.4039969e-01  -7.6969582e-01  -9.6894483e-03  -2.1506936e-01   2.2219570e-01   3.9273706e-01  -4.5552169e-01   6.1281613e-01  -1.8696304e-01   2.0023367e-01   9.3519132e-01  -2.9295013e-01  -4.2573052e-01  -8.2253725e-01  -9.1002353e-01  -6.9669633e-01   1.1634300e-01  -3.6673728e-02   5.5356283e-01  -5.6862438e-01   2.4760476e-01  -2.9997104e-01   6.6260063e-01   2.3504773e-01  -8.4165878e-01  -3.1855080e-02  -1.6182072e-01   3.3192801e-01   7.8920982e-01  -1.3803166e-01  -5.9924117e-01   5.9135576e-01  -7.7340714e-01  -5.8658127e-01  -4.5711191e-01  -3.8149526e-01  -5.3879253e-01  -4.4996672e-01  -7.4203519e-01   9.4881187e-01  -2.0945824e-01   2.9973327e-02   8.2152527e-01  -2.2847420e-01   8.9561341e-01  -8.4787533e-01  -1.8146265e-01  -5.9841549e-01  -6.4636952e-01  -9.0972596e-01  -2.9048334e-01  -9.8347555e-01  -1.2924265e-01  -6.6664488e-01   5.7512402e-02  -3.7655800e-02  -8.5974581e-01  -1.5624370e-01  -2.3989868e-01   6.2397673e-01   6.4765235e-01   8.5194655e-01  -6.1421821e-01  -5.2701524e-02   9.1669048e-02  -1.1733647e-01   3.5813672e-01   9.6495929e-01  -7.3450453e-01  -6.1684626e-02   8.7124361e-01  -2.7188797e-01   5.5638130e-02  -3.0092725e-01   8.7444817e-01   9.1866635e-01  -7.5351716e-01   3.6840380e-01   5.6765224e-01   7.2048196e-01   7.2978510e-01   2.4210077e-01  -9.5895756e-01   7.3001832e-01   5.7266264e-01  -1.5661325e-01  -6.6987403e-01  -1.2906233e-01  -8.0911135e-01  -5.2605403e-01  -1.7124954e-01   4.3775322e-01  -5.1679443e-01   9.9846159e-01  -1.6633575e-01   7.4287590e-01   9.4840777e-01   4.9049948e-01   9.6497951e-01  -4.9249313e-01  -8.9958184e-01   6.0041956e-01   7.5490046e-01   3.8688712e-01  -9.8584953e-01   1.3200385e-02  -7.6289210e-01   7.6182016e-01   3.1510620e-01  -4.1226267e-02  -6.0879827e-01   2.5128395e-01   1.1502286e-01  -4.0216432e-01   2.1459621e-01   6.9311034e-01  -1.0989119e-01   6.7462497e-01   3.4404634e-01  -9.6877732e-01  -3.2274122e-01   5.0046282e-01   7.3808934e-01  -7.8385442e-01   6.7751336e-02  -4.2395397e-01  -4.0434550e-01  -3.1942455e-01   8.2061307e-01  -7.9265154e-01  -1.6568575e-01   5.0352124e-01  -4.7132235e-01  -7.7809501e-01  -8.3354724e-01   1.3402088e-01  -1.0514105e-01  -8.3091226e-01  -5.0628132e-01  -6.9471364e-01  -2.4947037e-01   9.9237398e-01  -8.4255545e-01   8.5648980e-01   6.4374669e-03  -8.0399390e-01   2.0460235e-01  -9.3650691e-01   6.9505825e-01  -3.3273119e-02  -6.9633883e-01   9.4891288e-01  -2.6936558e-01  -9.6502931e-01  -1.4371378e-01   7.5380198e-01   3.5615907e-01  -4.7900519e-01   8.2340998e-01  -4.1254641e-01  -1.4533887e-01  -8.0461123e-01  -2.6701947e-01  -9.2738331e-01   9.9553247e-01  -3.3375878e-01  -6.5481725e-01   1.2992914e-01  -4.0759728e-01  -8.0944279e-01  -2.7614460e-01  -7.9916279e-01   1.7737447e-01   2.5802508e-01  -9.3737253e-01   2.8112558e-01   1.0912818e-01  -7.3753973e-01   2.7565501e-01  -9.1659151e-01   7.5046655e-01   8.1613406e-01  -5.9673010e-01  -8.6454172e-01   8.6451785e-01  -4.6738018e-01   5.6723258e-01  -5.1179898e-01  -8.5779833e-01   8.2609106e-01  -4.5689237e-01   7.8865500e-01  -3.0627434e-01   8.1172116e-01  -3.1111908e-01   7.8744678e-01   1.1340747e-03  -4.7972911e-01   5.8365387e-01  -6.9422857e-01   7.8981683e-01   9.1318162e-01   6.9142484e-01   6.8939860e-01   3.2362743e-01   4.4206073e-01  -9.7994287e-01   9.2556183e-01  -8.9071749e-01   5.9577189e-01  -5.5142353e-01  -4.5237584e-01  -1.7040869e-01   1.1565369e-01   2.5156039e-01   8.2944674e-02  -9.3750894e-01  -4.7645325e-01  -4.0316297e-02  -4.9984109e-01  -6.7423480e-01  -3.7223199e-01  -8.4697536e-01  -7.1983355e-01  -9.0093514e-01   7.4200990e-01   8.3961149e-01   4.9017083e-02   1.3108238e-01   5.2888125e-01  -2.6625938e-01   4.5308613e-01   6.5398893e-01   8.4481009e-01  -6.7603745e-01  -5.7258541e-01  -4.8776253e-01  -8.5444691e-02   4.6630849e-01  -2.1154175e-01   3.7209405e-01   5.4050588e-01   5.9724629e-01  -7.7486088e-01  -2.2883319e-01  -3.2656766e-01   6.1418225e-01   1.3861225e-01   5.9575113e-02  -5.4536746e-01   9.6329398e-01  -1.7817634e-01   9.1356676e-01   9.9181942e-01  -5.3686399e-01  -5.3959387e-01  -9.3362861e-01  -3.0194590e-02  -8.5256262e-01   6.3597811e-01  -7.9308114e-01  -8.7183795e-01   5.9099142e-01   5.0031310e-01  -4.9950969e-01   4.5988861e-01  -8.2108093e-01  -7.1362694e-01  -8.7823569e-01   6.4683594e-01   3.6850648e-03   3.4788315e-02   4.1456899e-01   7.6690572e-01   3.9298601e-01   1.5136187e-01   2.2831127e-02   2.7963030e-02  -1.5112160e-01  -4.4425552e-01   3.3001481e-01  -2.3621889e-01  -9.6410640e-01  -6.8970223e-01  -7.7321812e-01   9.2345250e-01  -3.5432957e-01   4.3601277e-01  -7.1781511e-02  -1.8579711e-01   6.5094368e-01   2.4546279e-01   8.6710569e-01   5.7912777e-01  -5.5623700e-01   5.1798972e-01  -7.0213433e-01  -6.4256256e-01   4.8383413e-03  -3.7090482e-01  -6.6133544e-01   2.2415148e-01  -2.2057875e-02  -7.3312081e-01   9.2202402e-01   3.8044832e-01   4.5733879e-01   5.3737989e-01  -1.1529732e-01  -3.0300774e-01   5.1481694e-01   8.6648051e-01   8.5628342e-01   6.0565753e-01   2.7787626e-01   8.8443492e-01  -4.4474182e-01   8.6972900e-02  -4.0736449e-02  -3.3064220e-01  -9.2081364e-02   1.9859053e-02   2.6260574e-01  -9.6630856e-02  -6.9948105e-01   7.5475003e-01  -2.1323641e-01   4.0876864e-01   4.6007947e-01  -1.2941082e-01  -2.5873028e-01   9.5071651e-01   8.0053607e-01   1.6455512e-01  -1.2446419e-01  -6.8135653e-01   7.7046318e-01  -6.8940675e-03  -7.1714875e-01   3.2383211e-02   1.1930604e-01   4.9495657e-01  -7.4534546e-01  -2.4685062e-01   4.2425692e-01  -6.5677942e-02   5.8250491e-01   8.5476643e-01   9.4053296e-01   7.8427575e-01  -5.1219322e-01   4.3038496e-01   7.4423306e-02   8.3396541e-01   1.3151370e-01  -6.6674783e-01   4.9603637e-01  -8.2258941e-01   5.8985010e-01   6.1054704e-01  -5.6862108e-02   8.0908427e-01   4.0391593e-01  -7.2250207e-01  -1.6112898e-01  -5.6696898e-01   9.3554724e-01  -3.6318837e-01  -9.2840319e-01   6.6407415e-02  -7.0661308e-01   6.3951051e-01  -1.4434936e-01  -7.2689587e-01   1.3695603e-01   9.2319365e-01   7.9482902e-01   2.2515250e-02  -3.7015290e-01  -6.2234446e-03   4.7740046e-01   3.4775280e-01   6.2154253e-03  -8.7884945e-02   9.5406931e-01   3.9163042e-01  -2.1667536e-01   5.6544213e-01  -8.5007651e-01   1.3115755e-01   5.0550449e-01   3.0485996e-01   8.1999648e-01   4.3741353e-01   2.9665452e-02   8.9504458e-01  -4.7128075e-01  -9.4625234e-01  -5.6125384e-01   3.0246105e-01  -9.5870249e-01   7.8911820e-01   4.1593464e-01  -2.8160210e-01   8.0270452e-01  -1.9745868e-01   7.2456689e-01  -2.4292268e-01  -1.4274366e-01  -9.4207582e-01  -1.7038000e-01   4.8803691e-01   6.0302815e-01  -6.0790474e-01  -3.8784528e-01  -4.4622176e-02   9.4070143e-01  -1.0496437e-01  -6.5878787e-02   5.8443200e-01  -1.8567446e-01  -1.1679717e-01   5.7168480e-01   7.0285065e-01   1.0312386e-02   9.9492049e-01   4.3277662e-01   7.3476316e-01  -2.2189781e-01  -7.5419897e-01  -2.2795244e-01  -2.7489591e-01   1.3103399e-01   7.5777154e-01  -6.3060261e-01  -8.7167619e-01  -9.5807054e-01   6.2182768e-01  -9.1569068e-01  -3.9801458e-01  -9.0554864e-01  -8.7264199e-01  -2.1349123e-01  -6.7799309e-01   3.6997426e-01  -2.6484877e-01   8.2568914e-01  -9.5772631e-01   1.1112854e-01   5.4374027e-01  -3.9975781e-01   5.0052656e-01  -3.1077181e-01   1.0191149e-01  -8.6954384e-01  -5.1560930e-01  -6.9545006e-01  -7.6807046e-01   8.0161741e-01  -2.8407582e-01  -5.1220167e-02  -9.7306703e-02   5.4000825e-01   9.2410239e-02  -6.8106376e-01   4.3656083e-01  -5.7379210e-01  -1.8615438e-01  -6.4033039e-01  -7.0354153e-01  -2.5244862e-03  -6.5058118e-01   5.1254593e-01  -2.2405797e-01   5.1548342e-01  -7.7048272e-02   2.2132065e-01   7.9178789e-01  -2.6801054e-01  -9.6703386e-01  -3.3002466e-01  -9.5009271e-02   5.9685330e-02   6.5534149e-01  -3.8400413e-01  -4.8956565e-01  -5.9871126e-03  -3.6179547e-01   5.5143416e-01   9.9705788e-01   3.3537058e-01   7.0202376e-01  -2.3074881e-02   3.9617208e-01  -5.1406224e-02  -5.6819059e-01  -6.7931657e-01  -8.8119890e-02   4.7582683e-01   9.2038339e-01  -4.2647229e-01   6.4380560e-02   4.6762178e-01   8.9567667e-01  -8.7954971e-01  -3.3729557e-01   8.8952867e-01  -8.4946878e-02   3.9735307e-01  -2.6764481e-01  -5.5701640e-01   7.8948648e-01  -4.8612318e-01  -1.7423042e-01  -7.6828586e-01   7.7919797e-01   4.4418351e-01   4.7085310e-01  -2.8522227e-01   5.9932403e-01   7.2944972e-01  -2.7752481e-01  -5.3909091e-01  -2.7455694e-02  -6.0374092e-01   5.2124739e-01   2.3086052e-01  -6.8637219e-02  -4.8267408e-01  -3.2491531e-01   8.5974507e-01  -8.2824380e-01   5.0235049e-01   7.5110970e-01  -7.5947002e-01   2.7270259e-01  -9.2269875e-01  -1.2407980e-01  -6.9990148e-01   4.5703375e-01   7.3295497e-01  -3.4058570e-02  -2.9016828e-01  -5.9049905e-02   7.1437744e-01   1.9778516e-01   6.5339843e-01  -8.4831178e-01   3.4250314e-01   6.8385958e-01  -2.3525577e-03   6.7194848e-01  -2.3417884e-01   9.1921115e-01  -9.5463082e-01   6.9865126e-01   1.6518051e-01  -2.6640973e-01  -7.2334777e-01   2.7684717e-01  -9.5373903e-01  -2.5339884e-01  -4.3828059e-01  -3.5716009e-01   3.6662145e-01  -5.0177525e-01  -9.1930206e-01   1.8858933e-01  -4.5219312e-01  -4.2234384e-01   3.1886432e-01   2.8167946e-01   6.9584172e-01  -4.6235100e-01   1.2905158e-01  -1.8147901e-01  -5.2359500e-01  -1.4401480e-01   8.5168094e-01  -9.9942720e-01   1.8011739e-01  -9.0960543e-01   8.0003926e-01  -5.1237586e-01  -1.5696183e-02   7.2918159e-01  -9.6427907e-01   3.1626325e-01   4.9207346e-01  -4.3330076e-01  -1.6150338e-01   8.5802588e-01  -9.6558775e-01  -3.5901301e-01   7.4533869e-01  -4.1713440e-01   4.9608061e-01   2.1767272e-01   2.2596653e-02   3.9522461e-01   7.3484385e-01  -5.4367642e-01   9.4138463e-02   9.8026997e-01   6.3136604e-01  -4.3713445e-01   6.2752679e-01   2.5439764e-02   1.7341942e-01  -7.2320166e-01  -3.0237916e-01   1.5901540e-01   9.3135795e-01  -3.3744077e-01   6.2141132e-01  -2.6921816e-01   1.7470855e-01   1.0745357e-01  -5.7634347e-01   7.5106182e-01  -5.3851643e-01   9.5770482e-01  -5.2413728e-01  -9.9286288e-01   7.6786420e-02  -4.5370930e-01   7.1647874e-01  -3.4584887e-01  -4.9332093e-01   1.1097385e-01   3.8835994e-02   5.6787412e-01   3.4274399e-01  -2.2777757e-01  -1.3127193e-01   2.0840795e-01   4.5111722e-01   4.5169643e-01  -3.8064912e-01   2.4321736e-01   4.5829354e-01  -4.1889720e-01  -3.7003440e-01   8.0950217e-01   8.0775073e-01  -5.9287865e-02  -3.3071445e-01  -2.3226693e-01   8.6468293e-01  -2.7337755e-01  -7.6939572e-01  -4.6922219e-01   6.6961022e-02   2.2749913e-01  -3.3064668e-01  -7.0910610e-01  -3.1805175e-01  -8.8940797e-01  -5.1941040e-02   4.9137115e-01   8.6050645e-01  -1.2131348e-01  -6.0710052e-01   3.0977692e-01  -8.9419271e-01   2.1672717e-01
   6.9433812e-01   3.2572103e-01   2.2983753e-02  -3.0126759e-01  -7.5608861e-01  -4.2359279e-01   8.1324593e-01   1.8060938e-01   2.9252506e-01   3.4877989e-01  -6.4562258e-01  -6.9394272e-01  -9.1639466e-01  -6.3434406e-01   1.3620193e-01   8.6616568e-02  -6.5315094e-01  -3.6121963e-01  -6.4617620e-01  -9.8639423e-01   4.0162385e-01   1.9050785e-01  -8.6429004e-01   2.2231809e-01  -9.5621666e-01  -9.7478360e-02   7.9086571e-01   4.7471011e-01  -6.1261875e-01   6.1481056e-01   4.1194872e-01  -6.9543894e-01   7.2948921e-01  -4.2768378e-01   7.3986782e-01   4.9781416e-01   7.1795371e-01   5.9509304e-01  -7.2153492e-01   2.2011614e-01  -8.0016077e-01  -5.8926288e-01  -2.7283505e-01   7.8544797e-01   3.4048418e-01   8.1793769e-01   2.1835757e-01  -5.4290172e-01  -8.1534812e-01   4.1941776e-01   4.3768105e-01   8.2098351e-01  -8.4008726e-01  -7.5619601e-01   8.9614905e-01   7.3683019e-01  -2.5483910e-01   8.3456215e-01  -1.1629167e-01  -2.7865861e-01  -7.4707183e-01   9.6566033e-01  -9.5742328e-01  -8.9599151e-01   2.4277329e-01  -6.1135070e-01  -4.3811660e-01  -1.4388674e-01   9.7678049e-01  -8.8071049e-01  -2.7651355e-01   4.2327325e-01  -3.4765528e-01  -1.1516324e-02   1.5404979e-01   5.5637243e-02   8.2440366e-01   3.4198992e-02   8.8677700e-01  -3.7555921e-01  -8.9249322e-01   3.9467334e-01  -8.5170996e-01  -4.8396913e-01   7.3429443e-01  -8.2084529e-01  -2.7375999e-01   7.2364477e-01  -9.1183593e-01   1.5322415e-02   9.8814820e-01  -2.1852593e-01  -4.6536573e-02  -6.9024103e-01  -9.1072054e-01   8.3384249e-01   9.0957408e-01  -3.9558901e-01  -3.1374946e-01  -2.6019992e-01  -7.3021429e-01  -2.8712171e-01  -7.1629776e-01  -9.3812002e-01   5.4560345e-01  -7.4047064e-02   8.7198220e-01   1.6923141e-01   9.9227981e-01  -4.2367864e-01  -3.2712077e-01  -9.3852196e-01   4.7839199e-01   4.4829313e-01   7.4603490e-01  -9.8023292e-01   1.2132564e-01   1.7857700e-01  -9.1166084e-01  -2.4488749e-01  -6.6092180e-01  -6.5342351e-01   1.4849791e-01  -3.8052748e-01  -8.3359701e-01  -4.4124678e-01  -4.9890779e-01   3.6907082e-01  -9.4552425e-01  -8.2031807e-01  -6.6043879e-01   5.7311921e-01   9.1573893e-01  -4.8541776e-02   2.3363510e-01  -9.2427662e-01  -5.9245809e-01  -2.0966576e-01   3.2756956e-01  -3.5299100e-01   7.4173417e-01   1.1479419e-01   5.2485507e-01  -3.0469800e-01  -2.7224445e-01   1.3709418e-01   9.0420989e-01   3.1615976e-01   7.9779135e-01   9.2648587e-01   6.0278154e-01   3.6659583e-01  -6.7729714e-01   9.7599849e-01  -1.3275467e-01  -8.0809743e-01  -5.0180534e-01   4.7907992e-01  -9.0254932e-01   7.5763993e-01   9.0174921e-01   5.0969731e-01   1.1250178e-01  -9.9833127e-01   8.4887355e-01  -3.3074370e-01  -3.4483379e-01  -4.2334088e-01   3.9253215e-01   5.1090523e-01   1.6245361e-01   1.6467447e-01   8.5539804e-01  -1.9163174e-01   5.6372801e-01   9.8408353e-01   5.4870326e-01  -2.0399326e-01  -6.1730397e-01   4.3654052e-01   4.7273925e-01  -9.4814666e-01   2.4985981e-01   8.8534990e-01   1.4950787e-01   9.8143253e-01   7.3697805e-01  -5.1034959e-01   1.9203049e-01  -1.5902467e-01   8.5481379e-01  -6.6139174e-01  -4.8848829e-02  -9.3210212e-01   8.6706041e-01  -7.2556194e-01  -1.0558559e-01  -6.8884055e-01  -5.8649684e-01   8.6974253e-02  -7.2485228e-01   2.6173390e-01   9.2027409e-01  -2.0205432e-01  -9.3154837e-01   5.1213789e-01  -4.8121558e-01   7.4918109e-02   8.2852307e-01  -9.5663793e-01   5.5224578e-01   2.2238085e-01  -1.9712988e-02   3.8723887e-01  -8.9161544e-01   3.2869866e-01  -4.0549578e-01   7.5144832e-01  -9.9185728e-01   6.2340745e-01  -3.8389235e-01  -5.4259495e-01   1.9604948e-01  -4.0166981e-01  -3.7693683e-01  -7.3906955e-01  -8.9495568e-02  -2.2565404e-01  -5.1802779e-01  -9.5659629e-01  -3.1314342e-01   2.5837468e-01  -7.8205141e-01   6.5106111e-01   4.3120504e-01   5.2722506e-01   7.8143509e-01  -6.9050489e-01  -2.9717117e-01  -7.8299444e-01  -2.0634580e-01  -3.7074216e-03  -8.2509374e-01   7.8262342e-01  -9.6265571e-01  -4.6586660e-01  -7.7016430e-01   1.4685507e-02  -8.1961668e-01   7.7354058e-01   2.9415798e-01   3.9282640e-01   2.0287776e-01   4.0646267e-02   1.9969967e-01  -4.3413629e-01  -8.9221241e-01   4.6950245e-01  -2.0275146e-01   4.0354226e-02  -5.7152743e-01  -9.5553136e-02   1.1522498e-01  -7.6849913e-02  -5.8188853e-01  -3.2827155e-02  -4.4282245e-01   7.3303247e-01  -6.1352379e-02   5.0049897e-01   3.2260779e-01  -1.8973931e-01   2.9706175e-01  -2.3340896e-01   4.8087384e-01   2.7233871e-01  -7.8617045e-01   3.7271960e-01  -4.8302351e-01  -9.6647160e-02   3.4824463e-01   5.6598563e-01  -8.0365695e-01  -2.6024616e-01   7.7683920e-01  -9.7018181e-01   7.9772906e-01   5.4881459e-01  -7.4021245e-01  -2.8467032e-01  -2.1509825e-01   9.6978491e-01   7.6504312e-01   3.1459734e-02  -1.1212724e-01   3.7727014e-01  -1.2433274e-01   7.7127328e-01  -6.4079598e-01   2.8691400e-01   3.4085690e-01  -8.4267635e-02  -1.2949320e-01  -8.0864204e-01   8.5468254e-01  -7.2577675e-01  -4.5073124e-01  -1.4813485e-01   1.3879565e-01  -3.7268499e-01   6.3522592e-01  -3.6680727e-01  -2.8028594e-01  -4.4204483e-01   5.7869314e-01   9.1994839e-01   5.1583261e-01  -8.0717690e-01   4.1588754e-01   3.1921086e-01  -5.9818945e-01  -8.8204966e-01   4.0714876e-01  -2.4233320e-01  -6.1754231e-01   3.9206948e-01  -9.6856188e-01  -7.1788633e-01  -4.6580558e-01   3.9300544e-01  -3.4347382e-01  -3.4678927e-01   5.6154442e-01  -3.4395114e-01   8.0619816e-01  -8.4073861e-02  -9.0394768e-01  -5.2208514e-01   4.6082116e-01   8.1696119e-01   2.4869800e-02   3.6100339e-02  -5.9241991e-02   8.0830074e-01   5.9434715e-01  -7.1149618e-01   5.0643307e-01   5.2412870e-01   3.0549891e-01   1.3581769e-02  -1.3618795e-01  -8.7086204e-01   1.0953114e-01  -6.7370933e-02   9.3790384e-01   6.5061369e-01   9.8505224e-01   6.1387754e-01   5.4715637e-01   2.1309685e-01   1.1031969e-01  -6.0877664e-01   5.4906642e-01   5.4004069e-01  -7.4481004e-01  -5.1465779e-01  -3.0172593e-01   6.1100909e-01  -8.5495409e-01  -3.0995259e-01   4.8020495e-02  -2.0037614e-03   2.6992079e-01   6.1973621e-02   9.6120238e-01   9.5535144e-01  -9.1197700e-01   3.0825585e-01   9.2193698e-01  -3.8058875e-01  -9.3035848e-01  -8.1209464e-01  -6.4798394e-02  -9.4069914e-01  -4.3700847e-01   2.9452347e-01  -1.4111677e-01   9.5120110e-01   6.3267506e-01   4.6032034e-01   1.2361409e-01  -9.6726199e-01   3.8793319e-01   1.6894912e-02  -7.8492970e-01  -1.1618716e-01   5.9524790e-01  -7.8724747e-01  -7.6345455e-01  -9.7964956e-01  -3.7884000e-01   4.7093683e-01   8.0944320e-01  -9.4826988e-01   6.9637265e-01  -7.1600782e-01  -7.2649124e-01  -5.5811509e-01   1.4509254e-01  -4.5791479e-01   4.7476699e-01  -5.7165285e-01  -7.2326424e-01  -8.5743031e-01   6.6667259e-01  -2.0032739e-01  -3.4212770e-01   5.5744599e-01  -5.9847009e-01  -5.0222950e-02  -2.1565226e-01  -5.7698015e-01  -2.8548977e-01  -2.6846005e-01  -2.6769249e-01  -2.1317841e-01   1.0402831e-01   6.0126067e-01  -7.2363025e-01  -3.0850965e-01  -2.5674193e-01   2.9702395e-01  -1.1599191e-01   4.8592737e-01  -3.1048479e-01   4.6707421e-01   9.2334530e-01   5.8213060e-01   5.4490868e-01  -9.8599310e-01  -8.9838117e-02   6.2095659e-01  -9.4196618e-01   7.6080606e-01  -7.4236868e-01  -9.3245160e-01  -5.1299645e-02   7.6547812e-02   1.6524722e-01   7.4724271e-01   1.6961777e-01  -8.9355026e-01   5.9190237e-01  -2.3060592e-01   2.0454627e-01   1.3786420e-01   2.0224183e-01  -7.5027670e-01  -2.2108682e-01  -4.0076757e-01  -6.2224451e-01  -1.4229800e-01  -9.5940902e-01  -1.5121240e-01  -8.6171903e-01  -5.0493376e-01  -1.8164808e-01  -1.3877175e-01   6.8837754e-01  -9.5128659e-01  -7.1021798e-01  -9.3423905e-01  -2.3393351e-01   5.9233108e-01   1.6581207e-01  -8.9898110e-01   7.7891592e-01  -1.0533131e-02   1.0668030e-01  -8.3117338e-01  -4.7907329e-01  -9.1129961e-01  -9.1616707e-02   1.6540033e-01  -6.1886953e-01   7.1250173e-01  -1.9645216e-01   2.2145166e-01  -8.4246121e-01   8.1297607e-01   7.1093681e-01  -2.6282192e-01  -6.8153788e-01   7.6700977e-01   5.5615060e-01   2.9511035e-01  -8.2930269e-01   3.3574784e-01   7.7554185e-01  -2.4909042e-01  -9.7165059e-01   7.2699327e-01   7.1200377e-02   2.2638787e-01  -9.2248272e-01  -8.3265321e-01  -7.9113792e-01  -7.6268828e-01  -5.2069266e-02   8.1092308e-01  -7.8876981e-01   6.3447874e-01  -2.9024933e-01   6.6736169e-01   6.2230260e-01  -9.8587968e-01   2.1115181e-01   5.0702122e-01   9.0336016e-02   9.0793307e-03  -9.8327918e-01  -7.0403330e-01  -7.1755452e-01   8.9118138e-01   1.0057561e-01  -1.0572653e-01  -8.5521523e-01  -6.1853893e-01   1.8955969e-01   5.0278034e-01   2.9899922e-01   7.9339362e-01   2.2695841e-01   2.8187585e-01   9.3808469e-01  -1.9439805e-01  -7.8112914e-01  -3.9202281e-01   7.6035588e-01  -2.6740507e-01   5.9907874e-02  -2.1929459e-01  -8.3833860e-01   9.8377699e-01  -6.9904272e-01   2.0837890e-02  -6.6484272e-01  -1.7216130e-01   6.3196509e-01   1.3696916e-01   4.7865573e-01  -5.4935751e-01  -6.5596173e-01  -8.2178860e-01  -2.2014984e-01   9.1929684e-02  -7.4857761e-01   7.8862558e-01  -6.1292189e-01  -6.4781780e-01   3.2962243e-01  -9.1922377e-03   2.3483367e-01   1.2579559e-02   8.8981534e-01  -9.9445037e-01   3.8763303e-01   4.6501037e-01   7.2256967e-01  -4.0689231e-01   3.9169222e-01   5.1187823e-01   7.2012273e-01   4.5180084e-01  -2.4413734e-01   6.5985789e-02   3.5439175e-03   4.6394272e-01  -6.8626837e-01  -3.7528614e-01  -4.5216284e-01   3.3072321e-01  -9.8731408e-01  -5.4014399e-01   3.9107643e-01   2.7887976e-01   7.1304162e-01   7.7499547e-01   1.4597691e-02  -9.0539961e-01   8.1228337e-01   9.0373366e-01   4.7110173e-01   8.9287160e-01   3.4218602e-01  -9.8852798e-01   2.7596043e-01   7.1266727e-01   5.0058700e-01  -6.9694350e-01  -9.8556156e-01   6.4403850e-01   1.4499342e-01   4.1242529e-01   3.0481296e-01   8.1674894e-01   1.0298180e-01   3.0637464e-02   2.0549713e-01   3.1889911e-01  -9.5010805e-01   3.4770257e-02  -5.4053437e-02  -1.7803633e-01  -6.1887318e-01  -3.1345989e-01  -3.0204362e-02   6.1123176e-02   1.6164976e-01  -4.0475977e-01   2.5979914e-01   4.0481455e-01   6.8895427e-01   1.7668345e-03  -9.2162677e-01  -5.6247375e-01  -4.3114695e-01  -7.8082138e-01  -9.5241977e-01   7.0290669e-01   6.8424759e-01   4.5246516e-03  -5.6746664e-01  -4.3375555e-01  -7.9787597e-01  -5.6093722e-01  -8.1358295e-01  -5.0007132e-01   5.3379311e-01  -6.4517569e-01   7.6494752e-01   9.7703462e-01  -4.3744110e-01  -4.5165987e-01   5.0770546e-01  -8.7005877e-01   4.0461126e-01  -5.1385757e-01  -2.5788595e-01  -5.1959418e-01   4.2312828e-01  -3.2658923e-01   7.9429589e-01  -3.7187204e-01  -7.3946706e-01   1.8810903e-01  -8.2968527e-01  -9.3684224e-01   6.7466305e-01   9.6387636e-01  -1.6652045e-01   9.5519265e-01   5.9201975e-01   2.5173934e-02  -5.8978153e-01  -6.8807458e-02  -1.0210694e-01   5.1905391e-01   1.2609011e-01  -7.9261824e-01  -6.6488247e-01  -4.8998657e-01   5.9019183e-01  -5.0652909e-01  -5.4346747e-02  -4.7605129e-01  -1.3338268e-01  -2.5516670e-01  -4.5220004e-01   9.1328869e-01  -2.1450453e-01   4.4235858e-01  -5.9402080e-01  -2.2664785e-01   5.7567954e-01   5.2837676e-01   6.4543985e-01   1.8592305e-01   8.1280415e-01  -6.6039190e-01   5.1385347e-01  -8.0626843e-01  -4.4983384e-01  -9.9094266e-01   5.2109536e-01   1.9346340e-01  -3.4681053e-01   5.0771734e-01   2.7544523e-01  -6.2625317e-01  -3.7859959e-01  -5.2742867e-01  -8.8211868e-01   7.4114372e-01  -3.3648952e-01  -9.8663051e-01  -9.4702445e-01  -8.5789756e-01  -4.4263958e-01   9.1476477e-01   1.6784286e-01  -6.9990645e-01  -3.8514188e-01  -4.9809792e-01   6.2736647e-01  -9.5405371e-01   2.7944983e-01  -8.5369606e-01   2.3919317e-01  -5.9399254e-01  -4.4659686e-02   5.9587984e-01   6.0063399e-01  -8.5543101e-01   8.7299436e-02  -4.4506595e-01   4.6252653e-01   1.8816342e-01  -7.2574608e-01  -4.6382082e-02   5.6501374e-01   1.2203834e-01   9.9573948e-01  -1.5529678e-01  -2.7382675e-01  -4.9710079e-01  -4.2530905e-01  -6.8869600e-01  -3.1145018e-01  -7.5279732e-01  -6.6892996e-01  -7.4565122e-01  -5.0170218e-02  -3.0370664e-01  -3.3556639e-01   1.5608331e-01   9.2613493e-02  -7.1513852e-01   9.3984459e-01   3.9732997e-01  -1.6043021e-01   3.7381754e-01   7.8351290e-01  -3.6919145e-01  -2.9426462e-01   8.3073728e-01   9.3917680e-01  -3.3862394e-02   2.5529743e-01   7.5174627e-01   9.4516225e-01  -2.6514840e-01   7.4854166e-01   7.4713849e-01  -2.6133657e-01   4.9745804e-01   6.8163142e-01   3.3103702e-01   4.8276909e-01  -2.5454547e-01   9.7215590e-01   5.0935008e-01  -6.1703635e-01  -1.5954089e-01  -5.3241135e-01  -5.3118079e-01   8.0175778e-01   4.7476347e-01  -8.5988795e-01  -9.9346541e-01   2.5601189e-01   5.2909608e-01  -6.9633183e-01   7.2406997e-01   9.9452849e-01  -3.4176283e-01   4.6245411e-01   2.8372237e-01  -4.3748667e-01  -3.5915290e-01   8.6695769e-01  -7.3242985e-01  -7.5212289e-01   5.6503279e-01  -3.6582865e-01   2.2106022e-01  -7.0194128e-01   4.8487876e-01   4.2137280e-02  -8.6266671e-01   9.0930400e-01   9.4682595e-01   8.7530431e-01   1.0711071e-01   2.8071684e-03  -6.0368396e-01   4.5501259e-01   3.4687803e-03  -1.2657776e-01  -8.7054807e-02  -8.1863560e-01   7.9997383e-01   2.7291399e-01  -3.1137064e-01   8.5420009e-01   9.5694733e-01   1.4184493e-02  -8.3241990e-01  -8.4047672e-01  -4.4701565e-01  -6.6419586e-01   7.4846104e-01   5.5978998e-01  -5.5016596e-01   3.4205497e-01  -2.9014895e-02   3.3653017e-01  -8.3294605e-01  -1.4040190e-01  -7.1101169e-01  -3.7564061e-01   9.5373719e-01  -3.5336629e-02   8.5241774e-01   2.3055258e-02  -7.1058950e-01   1.4449412e-01  -9.4006290e-01  -9.2747880e-01   1.7798270e-01  -2.0105220e-01   5.2217815e-01   4.2186709e-01   3.3679429e-01   5.8159817e-01   3.2102866e-01  -2.0128861e-01   3.9562197e-01  -7.8331421e-02   4.4894935e-01   7.5518909e-01  -4.1340115e-01  -6.9651521e-01   8.0922773e-01  -6.4618695e-01  -6.4349075e-01  -1.0821611e-01   7.4274279e-02   3.8724513e-01   2.7603456e-01  -7.1372382e-01   4.4332219e-01   2.8962971e-01  -5.1918317e-01  -2.0235683e-01   2.3741877e-01   1.9137679e-01   8.6325353e-02   4.4751120e-01  -9.0214716e-01  -4.5384632e-01  -9.1759896e-01   7.3402918e-01   2.8311329e-01  -1.8531528e-01  -4.8703985e-01   4.0053843e-01  -7.8022273e-01   3.1827799e-01  -1.1739490e-02   7.5778381e-01  -3.7694312e-02  -3.7094814e-01  -4.7209747e-01   3.5294792e-01  -6.5367490e-01  -1.4234130e-01   7.2656735e-02  -6.5857506e-01  -6.9807702e-01  -9.4070003e-01   5.5118146e-01  -1.1896549e-02   9.3389533e-01  -4.1222930e-01  -6.4161909e-01   4.7186803e-01   8.6390415e-01  -3.3669965e-01   7.5041809e-01   6.2489046e-01  -5.6480360e-01  -8.3711076e-01  -8.7361695e-01   6.6273192e-01   4.6276554e-01   3.0536957e-01  -4.4244338e-02   5.8718863e-01  -1.9498293e-02   9.4037586e-01  -3.6584017e-01  -9.6368688e-01   8.5155802e-01  -8.9787247e-01   6.6464898e-01  -3.1408927e-02  -2.8767090e-01  -8.6241497e-01   9.5416017e-01   2.2665207e-01  -4.3453228e-01   3.7352069e-01  -7.1728141e-02  -8.0986100e-01   9.9616370e-01  -7.1631789e-01   8.4940375e-01   6.6845762e-01   9.0367249e-01   7.9046497e-01  -7.0394857e-02   3.9127024e-01  -2.5933950e-02  -4.9525703e-03   1.0097437e-01   1.2502808e-01   9.3303803e-01  -3.3905062e-01  -5.7389805e-01  -3.9665530e-01   8.2754781e-01  -9.9319231e-01   3.1467890e-01   5.1490087e-01   8.8764866e-01   4.6390247e-01   5.1156112e-01  -8.1735447e-01  -6.4238805e-01  -8.8365918e-01  -2.7911474e-01  -7.4619548e-01  -4.1903298e-01  -8.3334843e-01  -8.0549246e-01  -6.0448881e-01   8.2069895e-01  -3.9249007e-01   9.7618181e-01  -8.7897465e-01  -3.1744020e-01  -9.1515838e-01   3.9258485e-01   6.1993510e-01   1.3991419e-01  -6.4631803e-01  -3.4362529e-01   4.5798954e-01   1.8774944e-01   1.4812859e-01  -1.5984096e-01  -5.8914431e-01  -4.5306249e-01  -5.8783861e-01  -5.0154699e-01  -4.6787577e-01   4.2407118e-01   4.8552114e-01  -7.6495507e-01  -9.4098291e-01   6.4241050e-01  -7.6781566e-01  -4.6158391e-01   1.9247987e-01   7.4186904e-02   8.9032186e-01   6.3946353e-01  -1.5378612e-01  -3.7403378e-01   9.5488515e-01   2.0329389e-02   5.2504288e-01   1.6556036e-01   9.4063797e-01   9.3586092e-01   1.9580387e-02  -6.3881620e-01   7.7489045e-01   8.8395251e-01
  -8.9530936e-01   1.6585492e-01   2.4919001e-02  -8.6668391e-01  -2.0872511e-01   5.0189465e-01  -2.4305174e-01   1.7363310e-01   6.5054355e-01  -3.0738665e-01   6.0925678e-01  -5.5362365e-01   5.3353156e-01   6.3167651e-01   7.0245811e-01   7.6949774e-01   5.1088535e-01  -5.2991636e-01  -4.9055603e-01   7.8416232e-01  -4.7839762e-01  -8.0077121e-01   8.7847251e-01  -3.4273604e-01   6.1396586e-02  -2.5162113e-01  -5.4356153e-01   7.0390225e-01  -1.6499522e-01   2.6073420e-01   6.7799997e-01  -1.7533705e-01  -9.4561472e-01   5.7116046e-01  -5.1238812e-01   9.5889827e-01  -3.9115691e-01  -8.0868767e-01   8.5965143e-01  -5.8409142e-01  -2.3612739e-02   8.5573343e-01  -5.8660865e-01  -9.9702656e-01   6.0090990e-01   1.8988959e-01  -5.8464922e-01   4.3491219e-01   1.7003013e-01   1.5631668e-01  -6.8362897e-01   5.3957305e-01  -2.3594643e-02  -6.0031915e-01  -1.5561739e-01   7.9868873e-01  -4.2361255e-01   6.9353928e-01  -3.2495615e-01  -9.0679119e-01   2.0890408e-02   1.7328059e-01   3.1901229e-01   9.2352047e-01   1.7478096e-01   7.1535757e-01   8.8471806e-02   2.5385969e-01  -9.4525356e-02   4.0512696e-01   6.2180068e-01  -2.7995109e-01   9.8310804e-01   6.1270636e-01   3.1641034e-01  -9.1166740e-01  -6.2688581e-01  -3.3679244e-01  -8.4583502e-01   4.2127225e-02   4.8823909e-01  -8.4409430e-03  -8.5948959e-01  -2.2282358e-01  -3.4748376e-01  -3.3326412e-01   3.9752294e-01   3.8227394e-01  -3.8930322e-01  -1.9276003e-01   8.0218117e-01  -4.7269860e-01  -4.9291070e-01  -4.9753064e-01   5.5986267e-01  -4.3892063e-01  -2.2574271e-01  -2.5531594e-01   4.0062765e-02   2.6868564e-01  -7.0047174e-01  -2.6192692e-01   5.8166781e-01   5.4973042e-01  -7.4249383e-01  -4.6579850e-01  -6.9167707e-01   8.0360706e-02   9.0126468e-01  -7.9636405e-01  -2.4134197e-01  -8.8644995e-01  -5.9641540e-01   3.9285772e-01  -7.3815533e-01  -8.7585599e-01  -6.0944666e-01  -4.5356691e-01   5.6237478e-02   7.6817627e-01   5.4566625e-01  -5.7438494e-02  -7.9146356e-01  -9.7791524e-01   8.2386702e-01  -2.2492870e-02  -8.4357499e-01  -3.5735795e-01   1.3409898e-01   3.9391152e-02  -2.0684095e-01  -3.2097866e-01  -4.4070813e-01  -9.0952160e-01   3.7284239e-01  -5.0482827e-01  -2.7324607e-01  -8.5885850e-01   1.2849005e-01  -6.6072624e-01  -7.6275958e-01  -2.4042356e-01  -9.2379981e-01   6.2456031e-01  -9.2209249e-01   7.6881260e-01   1.3471391e-01  -4.5238371e-01  -3.0384313e-01  -4.4697329e-01   4.3417663e-01  -5.0097189e-01  -7.6966446e-01  -3.1247712e-01  -7.1302724e-01  -6.4728414e-01   7.4224088e-01   6.0292812e-01   2.0292028e-01  -5.0875724e-01  -3.5303306e-01  -6.7332776e-01  -4.5271523e-01  -5.4591559e-01  -7.7519076e-01  -4.2271047e-01   2.6158552e-01  -3.1853704e-01  -4.1392879e-01  -2.4257302e-02   8.6279384e-01   4.6113810e-01   8.0126799e-01   3.9271076e-01  -2.3935133e-01   1.6236883e-02   7.8307919e-01  -5.6248624e-01  -4.0717548e-01  -8.0244505e-01   6.2501556e-01  -3.9929187e-01   9.3872522e-01  -8.5505704e-01  -5.0534043e-01  -6.4284327e-01  -3.5708753e-01  -3.1908014e-01  -4.0068660e-01   6.0311883e-01   4.3905570e-01  -5.1404308e-01  -7.3802276e-01  -3.1180172e-01   2.5441744e-01  -4.3057268e-01   8.8445941e-01   4.6717181e-01   4.1937172e-01  -7.2922035e-01  -9.3786767e-01   9.4401734e-01  -9.3964471e-01   2.0407390e-01  -6.9619073e-01   5.9885365e-01  -2.5026994e-01  -5.3747589e-01  -8.4661424e-01   5.1442837e-01   6.3659501e-01   6.3385268e-01   3.1369701e-01  -9.7305951e-01   1.3337002e-01  -4.9939721e-01   6.0952192e-01   5.8760152e-02   2.6831968e-01   8.4242461e-01   3.8805500e-01  -3.3383181e-01   5.9778045e-01   5.5482225e-01   8.1977486e-01  -1.8832070e-01   7.3368137e-01  -5.3829108e-01  -9.0128580e-01   7.5567270e-02  -3.3185321e-01  -4.6456602e-01  -3.3860186e-01   4.2422812e-01  -3.0866278e-02   2.1466169e-01   8.9480991e-01   9.6131178e-02  -1.9284690e-01   3.7508427e-01  -1.8381739e-01   7.4948589e-01   3.3185125e-01   9.6423960e-01  -1.0776492e-01  -3.6476810e-01  -2.2858930e-02  -3.2418031e-01   7.6820310e-01  -3.3247617e-01   8.3636289e-01  -7.9283471e-01   9.6429162e-01   4.6403616e-01  -3.1521841e-01  -6.8647127e-01   3.5006180e-01  -5.2584158e-01  -5.1853127e-01  -3.1619626e-01   9.5567788e-01   1.7361937e-01   4.5794307e-01   6.8208375e-01  -3.2764341e-01   3.4753251e-01  -4.6136106e-01  -7.2617150e-01  -4.6969822e-01  -5.4604803e-01  -9.7633220e-01   6.7125372e-01   8.9461408e-01  -8.2796399e-01   1.8897418e-01  -1.7304260e-01  -6.0922354e-01   4.4336189e-01  -1.8515341e-01   1.3785458e-02  -7.5340599e-01  -3.9591719e-01  -8.5617609e-01  -1.7843775e-02  -8.9308738e-01  -4.9488404e-01  -4.4772207e-01   5.3560305e-01  -9.7730424e-01   7.9356887e-01  -5.9104289e-01  -2.2041043e-01   2.9875508e-03  -2.7756369e-02   6.8802481e-01  -1.1400084e-01  -5.8343031e-01  -3.4219105e-01  -8.6025082e-01  -2.4733311e-02  -1.8685759e-01  -6.9409526e-01  -5.7435151e-01  -5.3620334e-01   7.1964002e-01  -6.6706645e-01  -8.0822751e-01  -6.1935367e-01   8.3769208e-01   2.8923699e-01  -3.2765681e-01   2.7706465e-01  -4.8653142e-01   3.4552257e-02   6.2659345e-02  -8.4606319e-01   9.6990677e-01   7.7398445e-01  -5.7535632e-01   4.3465992e-01  -6.4508117e-02   1.2815737e-01   6.2585351e-01  -7.0390436e-01   7.0940057e-02   6.1928501e-01  -6.7616275e-01   3.1817316e-03  -7.3566620e-01  -9.8040636e-01   4.7645123e-01   5.1734379e-01  -4.3823405e-01   6.8817500e-01  -7.6600038e-01  -2.8968211e-01   8.4472622e-01  -1.1067316e-01  -2.8964082e-02  -6.3075946e-01  -8.2455768e-01  -6.6536403e-01  -9.1444811e-01   2.9350773e-02  -3.8273863e-02   6.0293931e-01  -1.1385274e-02  -6.9348366e-01  -6.0704853e-01  -2.7855042e-01  -6.3214553e-01   1.6238993e-01  -7.0256684e-01   2.6037886e-01  -2.3070845e-01   2.3297892e-01  -7.6047459e-01   7.5199686e-01   2.6658262e-01  -8.8535522e-01   1.8443713e-01   2.1561593e-01   4.0421016e-01  -5.4064156e-01  -9.2521561e-03   4.3703202e-01  -3.5988570e-01   1.3131967e-01  -3.8655715e-01   2.0362841e-01  -7.5633977e-01  -3.5017263e-01  -6.4251374e-01   9.7441644e-01  -1.4880684e-01   9.8403454e-01   6.4878836e-01   6.4347830e-01  -2.0620735e-01   5.2578860e-01   3.7655656e-01   7.7486831e-01   2.0110622e-01  -8.0794225e-01   1.4805080e-01  -1.3602929e-01  -3.2632353e-01  -3.2565916e-01  -7.8426704e-01  -4.0183472e-01  -3.0110204e-01   5.1491977e-01  -9.2831308e-02  -3.4968711e-01  -2.9817141e-02  -7.9375935e-01  -3.7554683e-01  -9.9625152e-01  -9.8017848e-01   3.8598074e-02  -1.2302877e-01   3.8431885e-01   2.4607072e-01   7.5009506e-01  -6.8615230e-02  -8.3103627e-01  -9.5479528e-01  -1.7704834e-01  -5.0405475e-01  -1.3071120e-01   3.7903914e-01  -9.0967922e-01  -4.2164281e-01   5.9097098e-02  -6.9862327e-01   3.7499810e-01  -6.0729401e-01   2.7697437e-01  -9.5438693e-01   9.4267681e-01   8.9253447e-01   7.0837528e-01   6.8743291e-01  -6.4760019e-01  -5.6654763e-01   5.5456897e-02   8.0288069e-01  -6.2735634e-02  -3.2670247e-01   9.0147503e-01   8.4157779e-01  -8.4474926e-01   9.4348573e-01   2.6581586e-01   8.0366616e-01   9.4776473e-01  -8.6161893e-02   2.5396938e-01  -9.5588402e-01   5.6970946e-01   3.5031295e-01   9.5339407e-01  -3.9588315e-01  -6.8224431e-01  -7.9440205e-01  -4.4443616e-01  -4.0481826e-01   2.2329046e-01  -4.8146101e-01  -6.1388308e-02  -5.2837801e-01   6.7298945e-01   4.2693991e-02  -2.0706822e-01  -7.8929828e-01  -8.2319961e-01   5.3048101e-01  -7.0721436e-01   4.7462690e-01   7.4573722e-01   4.0994978e-01   7.9174707e-01  -1.2931153e-01  -5.7324970e-01   6.6413245e-02   9.2234095e-01  -5.9821845e-01   9.9130972e-02   1.4182217e-01  -6.7638751e-01   8.9113803e-01   1.4158509e-01   2.1170455e-01   2.0366221e-01   2.7510410e-01   7.2095055e-01   4.6254330e-01   6.7233164e-01  -4.6102485e-02  -7.9703775e-02   8.2696244e-01   1.5902661e-01  -1.9999304e-01   4.7550018e-01   1.5655592e-01   9.3644014e-01   6.6010097e-01  -5.2937409e-01   8.4216261e-01  -1.7001738e-01  -7.1295763e-01   9.1242409e-01   5.5727864e-01   2.6369212e-01  -8.5636549e-01  -8.1318984e-01   4.9397463e-01   4.3635818e-02   6.7746153e-01   3.1113935e-01   3.8001992e-01  -7.3769306e-02  -6.8497612e-03   1.0913326e-01   3.0509548e-01   5.2918726e-01   9.2258573e-01   2.4970458e-01   1.1948184e-01  -3.0444791e-01   9.4061951e-01  -7.4253765e-01  -4.7564383e-01   6.8747207e-01   9.5570365e-01  -9.9358082e-01  -4.3507199e-01  -8.1659176e-01   5.9284192e-01   9.6643977e-01   1.3316556e-02   3.5748847e-02   4.2231349e-01  -1.9249067e-01   6.3232683e-01   7.7372338e-01  -2.7986685e-02  -5.3847625e-01   6.4626535e-01   7.4875470e-01  -8.1419620e-01   2.0810813e-01   8.3776653e-01  -9.4800241e-01   2.2852310e-01   5.5767340e-02  -4.5774597e-01   1.5381584e-01   8.6730422e-01   9.2820322e-01   4.8473032e-01  -2.0083519e-01   6.1812926e-02  -2.1311957e-01   2.9707321e-01   5.3638041e-01   4.2848701e-01  -9.6144658e-01  -4.6874791e-01   7.8271765e-01   7.6264373e-01  -2.2286121e-01   6.4092702e-01  -7.6018960e-01   6.2303420e-01  -1.7628031e-01  -9.9791660e-01   2.5356510e-01   1.3407421e-02   1.2723784e-01  -9.0661004e-01  -8.4454761e-01  -7.5770319e-01   2.0579382e-01  -4.5270324e-01   5.9945875e-01   1.7864848e-01  -2.7839601e-01  -5.4259459e-01  -4.6101777e-01  -9.1010840e-01  -5.9080970e-02  -5.5523190e-02  -6.3431058e-01  -5.4439561e-01   1.1789377e-01  -7.8463611e-01  -4.8890709e-01  -7.3241471e-02  -2.7508365e-02   7.9903689e-01   4.8664362e-01   6.0141713e-01  -9.3699322e-01   7.0166434e-01   2.1833829e-01   8.2657764e-01   5.4323390e-01   8.2781142e-01  -2.2236705e-02  -1.4579603e-01   2.8778952e-01  -4.9736366e-01  -3.3927034e-01  -2.2755168e-01  -5.3826110e-01  -5.3551646e-01   4.9297848e-01  -8.0992450e-01   5.7705350e-02   4.1857513e-01  -9.3889043e-01  -8.2843317e-01  -9.7736799e-01  -5.1916695e-03   1.2121866e-01  -1.9350357e-01   2.7142942e-01   8.7652274e-01  -9.1264726e-01   6.6439348e-01   7.0950261e-01  -8.8270229e-01   9.1822834e-01   3.4017285e-01   4.1582438e-01   3.0517435e-01  -9.7710887e-01   5.5017221e-01  -7.9507080e-01   3.0066193e-01   4.2508812e-01  -5.9082419e-01   1.5478650e-01  -7.2776945e-01  -9.0035889e-02   8.9143415e-01  -5.5996173e-01   3.3855965e-01   1.9200935e-01   2.5922088e-01   3.1614270e-02   6.8628479e-01  -6.4924479e-01  -6.2574612e-01  -6.5731279e-01   8.1527030e-01   7.9264187e-01  -3.6878933e-01  -8.5719269e-01  -2.1154271e-01  -4.5004451e-01  -5.8227388e-01  -3.1528308e-01  -2.0102317e-01  -7.2309112e-01   3.8414988e-01   9.2015977e-01  -4.6242483e-01  -9.6025241e-02   7.8245986e-01   2.4321737e-01   6.6539716e-01  -5.0482805e-02   8.8900171e-01   5.7904400e-01  -2.3598738e-01   8.6514436e-02  -2.6695145e-01   7.3403159e-01   5.1004064e-01   2.9002090e-01   2.2305904e-01  -5.8549675e-01  -6.4834860e-01   5.4231681e-01  -5.1275473e-01  -6.2885235e-01   1.7687721e-01   4.8275973e-01  -8.3045076e-01   6.2361577e-01  -3.6705875e-01  -4.2429306e-01  -6.2776000e-01  -4.6730823e-01   1.7819434e-01  -4.4623820e-01  -6.6483218e-01  -4.6000522e-01  -5.8956944e-02  -4.8965038e-01   1.6689747e-01   4.8049106e-01  -9.1791012e-01  -8.1916499e-01   8.9076809e-01   8.3594135e-01  -4.1055505e-01   8.1047461e-01   1.1555981e-01  -6.6263728e-01  -2.2742773e-01   6.5877641e-01   2.9332538e-01   3.7060427e-01  -7.9466384e-01  -4.2770950e-01  -9.1310539e-01   8.7438654e-03  -5.7527711e-01  -3.4198265e-01  -2.3124509e-01   4.9419892e-01  -8.5048446e-01   7.5863187e-01  -6.7281254e-01   8.8485685e-01  -3.9916387e-01   8.6228908e-01   7.2509516e-01   3.1103753e-01  -2.2620450e-01  -9.1623853e-01   4.7332525e-01  -7.9767506e-01   2.5608628e-01  -5.3531344e-01  -9.7557570e-01   3.7791964e-01  -7.5694502e-01  -6.0505667e-01  -8.4421895e-02  -5.2969969e-01  -7.2312411e-02   7.7095452e-02  -3.3581104e-01  -1.0750514e-01   5.8838270e-01  -9.3929352e-01   3.7971421e-01   7.5612201e-01   9.5078578e-01  -4.6211657e-01  -5.0707175e-01  -3.2588801e-01   1.7001435e-01  -5.0663145e-01   8.8753680e-01  -8.5362688e-01   3.8748409e-03  -8.1186223e-01  -7.4338072e-01  -4.6123163e-01  -7.0725053e-01   8.1426812e-01  -8.8240195e-01  -6.5151808e-01   4.5828541e-01   1.7102543e-01  -5.6062389e-01  -6.4399830e-01  -8.0100584e-01  -8.0187587e-01  -3.6447581e-01  -1.6691227e-02   8.9891155e-01  -7.1040221e-01  -6.2160553e-01  -4.7794823e-02   2.4886271e-01   5.9584478e-01  -2.9699043e-01  -3.1652340e-02   6.3120449e-01   7.9799927e-01   2.4604503e-01  -6.4026933e-01   1.4795931e-01   2.7200267e-01  -5.5633226e-01   2.1456874e-01   1.1737593e-01  -1.7189924e-01   8.7885014e-02  -7.9755177e-01   8.2834361e-01   2.1584278e-01  -5.1524600e-01  -6.6609355e-01  -4.3504212e-01  -5.6411161e-01   7.7919915e-01   5.9444959e-01   4.6082352e-01  -7.2340795e-02  -1.8035069e-01   2.0382161e-01  -1.7114378e-01  -9.7304436e-01   9.9088770e-01  -8.2999912e-02  -7.5320436e-01   2.9176707e-01   1.2275862e-02  -6.9447901e-01   7.5267576e-01   4.5637432e-01  -2.6806756e-01  -1.2366499e-01  -4.5798962e-01   1.6256734e-01   6.0000020e-01   8.8404971e-02   1.2980034e-02   4.9203549e-01  -2.4229327e-01  -9.0784018e-02  -8.3905202e-01   6.8567871e-03  -4.5183915e-01   9.4165164e-01   2.5762086e-01   9.0894866e-01  -8.7263542e-01  -9.2356350e-01  -1.1957240e-01  -9.7812374e-01  -7.9660525e-01  -1.0958907e-01  -8.4626941e-01   8.9701165e-01   9.2303953e-01   9.0863019e-02  -7.0831513e-01   6.2718169e-01  -4.2832544e-01  -6.1465720e-01  -2.9313360e-01   5.9682873e-01   7.7799834e-01   4.6343071e-01   8.7877720e-01   5.1296532e-01   7.1557654e-01  -2.2324401e-01   9.3783399e-01   1.4718789e-01   8.8239619e-01  -8.0340922e-01  -8.3888102e-02   2.2568062e-01   6.3282320e-01  -4.4612022e-01   5.6687182e-01   8.7256802e-01  -3.7136185e-01  -5.6395567e-01  -1.5094417e-01  -6.4891428e-01   2.3324759e-01  -2.3415927e-02   3.3517853e-01   7.9775579e-01  -6.8195617e-01  -9.9202099e-01  -6.4433434e-01  -8.3792245e-01  -1.3079158e-01  -1.1599977e-01  -3.2622009e-01   8.8276117e-01  -3.5637576e-01  -5.3213553e-01  -7.5570545e-01   1.9569162e-01  -2.9614561e-01   2.8038184e-01  -6.8382191e-01  -7.7800174e-01  -5.6143772e-01   4.4283132e-01  -7.0329100e-02   9.6927010e-01  -6.5985872e-02  -1.6017016e-01   2.1668567e-02   2.7969946e-02  -5.1439721e-01   5.6601462e-01  -9.8020594e-01  -5.7063151e-01  -3.3817908e-01   2.7029840e-01  -1.8253335e-01   4.1434892e-01  -5.5018500e-01   7.0868204e-01   9.0453765e-01   5.1538396e-01   1.1071878e-01  -5.4063727e-01  -4.6373627e-01  -8.5155933e-01  -1.2788027e-01  -4.9742779e-01  -4.3651764e-01  -8.7602121e-01   6.0816376e-01   3.6593566e-01  -2.7854176e-01   1.6844129e-01   7.7114025e-01  -3.9655237e-01  -3.7873784e-01   1.9055224e-01  -6.5882449e-01  -5.2482407e-01  -1.3078490e-02  -3.2763167e-01  -3.5160309e-01   7.2726601e-01  -6.4310964e-01   9.5230775e-01   6.2425269e-01  -4.2834773e-01  -9.5982683e-01  -9.4397451e-01  -1.3834567e-01   7.8468299e-01  -5.2888835e-01  -6.9358021e-01  -7.2431937e-01   3.1460861e-01  -2.7149912e-01   7.6909074e-01   6.2183104e-01  -7.5044046e-01  -7.9449165e-01  -2.6786166e-01  -1.0639179e-01   8.7336847e-01   8.8401042e-01   9.1976686e-01  -3.2478224e-01   4.3365652e-01   9.9112090e-01  -9.6491348e-01  -4.1349571e-01  -6.8402679e-01   1.8542283e-01   9.2181439e-01  -2.9707655e-01  -3.5088674e-01   9.6309578e-01   5.5960013e-02  -6.7360530e-01  -1.7365115e-01  -9.3626251e-02  -9.4639769e-01   5.0258015e-02   3.6794945e-01   1.3935498e-01   4.8987878e-01   3.9008660e-01   6.6437739e-01  -3.5179986e-01  -6.3029298e-01   3.9975165e-01  -3.8363584e-01  -7.1082361e-01  -7.7795993e-01   1.9430940e-02   2.0371894e-01  -8.7399272e-01  -8.9420475e-01  -1.8193008e-01  -6.1413536e-01   9.4126228e-01  -1.8319070e-01  -4.2134472e-01  -8.3960000e-01   4.9011562e-02  -5.4538107e-01  -5.7398130e-01   2.7445435e-01  -1.0814912e-01  -2.5054215e-01   2.7171524e-01   3.8680183e-01   6.0059714e-01  -3.9553034e-01  -1.5889644e-01   1.2222127e-01  -1.5485435e-01  -1.4815029e-01  -1.0004325e-01   5.9519275e-01  -2.0503445e-01   3.6717024e-01  -7.1596545e-01   8.5733930e-01  -5.2713263e-01  -6.1535748e-01  -8.2117816e-01  -2.1483548e-01   3.2895832e-01   8.1479422e-01  -1.3794971e-01   7.6273803e-01
  -7.6612090e-01  -4.9992127e-01   2.9745322e-01  -2.1870368e-01   3.6616019e-01   8.3176657e-01  -8.2721036e-02  -5.3756742e-01  -3.2573677e-01   6.2898284e-01  -4.4736819e-01  -2.0316768e-01  -1.7696043e-02  -8.6040785e-01  -4.8095098e-01   8.7281877e-01   6.1233400e-01  -2.4929620e-01   9.2108383e-01  -6.0527900e-01  -2.8612062e-01   9.2516654e-01   3.5870014e-01  -3.1752618e-01   7.3434161e-01   2.1830830e-01  -2.9010977e-01  -3.8329852e-01  -8.1777677e-01   5.7123592e-01   5.6754189e-01   5.4269998e-01  -2.6075988e-01  -2.6337719e-01   4.5738534e-02   9.2319153e-01   4.7889660e-01   3.1698590e-01   9.1453063e-01   3.8177680e-01  -4.3724579e-02  -7.2044054e-01  -2.9213420e-01  -7.0353622e-01  -7.2156378e-02  -4.0427787e-01   5.1316831e-01   1.6484125e-01   1.9233199e-01  -5.0542830e-01  -2.5759808e-01   6.6002993e-01   8.1151166e-01   3.2357998e-01  -2.8380921e-01   4.5725678e-01   3.6729893e-01  -1.3519695e-01  -1.8608617e-01  -6.9705116e-02   4.1331931e-01   7.4404887e-01  -6.4428647e-01   3.1630474e-01   3.4561716e-01   9.5218669e-01   6.0749235e-01   3.3529957e-01  -7.3208880e-01  -4.6621650e-01  -6.4047081e-01  -2.6670402e-01   7.3782745e-01  -1.3693622e-02   6.8876918e-01   5.4194746e-01  -9.0376375e-01   7.7341760e-02  -5.0214381e-01   7.7679070e-01  -5.4078167e-01   6.9457499e-01   6.0440007e-01  -4.2792105e-01  -3.6983445e-01  -8.1887355e-01  -9.6556884e-01   2.6683336e-01   8.7613444e-01  -1.7091021e-01  -3.5475825e-01  -4.5393264e-01   7.2892844e-02   2.9147714e-01  -1.7452807e-01   2.2336242e-01   1.4882013e-01   5.2601857e-01  -4.9558986e-01   5.2548726e-01  -1.6318042e-01  -8.9786098e-01  -1.5347078e-01   9.3074311e-01  -7.1296342e-01  -7.4539080e-01  -9.2303694e-01   7.4955733e-01  -8.0328492e-01  -1.2989612e-01  -9.1223503e-01   7.6747333e-01  -3.7040780e-01   2.6832282e-01  -4.7628697e-01  -2.2979949e-01   1.6125431e-01  -8.0051344e-01   3.1639779e-01  -9.9376107e-01  -6.4359083e-01  -7.5525158e-01  -9.5484039e-01  -6.0822937e-01   2.7086998e-01   1.5749990e-01   1.5846876e-01  -3.6904992e-01   1.4859133e-02   4.7698270e-01   2.0708730e-01  -7.8697479e-01  -8.3387330e-01   4.4257817e-01  -8.0409538e-01   3.3630722e-01   3.0744969e-01  -9.9123283e-01   1.1618517e-02   5.2687791e-01   7.5982823e-01   2.9501690e-01  -2.1151258e-01   7.8535232e-01  -9.2327707e-01   4.1696761e-01   7.9217002e-01  -7.8941087e-01   5.1382464e-01   7.2724130e-01   6.4817654e-01  -4.5661029e-01   8.8201070e-01   9.2526352e-01  -3.3765153e-01  -3.5426201e-01  -5.8655545e-01  -7.0801610e-01  -1.6116639e-01  -2.3145028e-02  -6.3442388e-01  -7.5194863e-03  -1.7832303e-01   5.8916825e-02   9.8507474e-01   6.2869955e-01  -7.5208247e-01   3.3429248e-01   8.7015351e-01  -9.3657516e-01  -6.9657579e-02   5.7275506e-01  -5.7162032e-01  -5.0856037e-01  -1.0134128e-01  -1.5071122e-01  -6.5903886e-01   8.4449760e-02   7.1357220e-01   6.4668491e-01   2.9730508e-01   7.3381440e-01   2.6806893e-01  -3.7468769e-01  -9.0664135e-01  -9.0436413e-01   2.4772106e-01   2.1455736e-02  -3.8656994e-01  -3.8975932e-02   7.3610686e-01   3.7286550e-01   9.1505183e-01   4.9719048e-01  -4.5857101e-01  -7.6845135e-01  -5.5176042e-02   9.3913598e-01  -6.7020463e-02  -9.0974200e-01  -1.3891415e-01   8.9553995e-01   2.2348862e-01   1.2444179e-01   7.7106335e-02   3.1319893e-01   2.5088018e-01  -5.6206404e-01  -5.4165825e-01  -5.2795672e-01  -5.2031799e-01   3.2220580e-01   5.3746099e-01  -7.6889159e-01   6.1223074e-01   4.4172037e-01   6.3588339e-01  -3.4240584e-01  -7.6193103e-01   2.5746090e-01  -2.7834967e-01  -3.5072516e-01   7.5562457e-01   4.4980499e-01  -5.3845374e-01   6.8941990e-01   6.1324484e-01   7.7305327e-01   6.6119173e-01  -1.8320184e-01  -6.1507120e-01  -3.7458067e-01  -7.9584474e-01   1.2621196e-02   3.9085998e-01  -7.0188415e-01  -7.9528209e-01   2.0182101e-01   5.8782587e-01   7.2864119e-01  -1.1742198e-01  -7.5096321e-01   1.7182797e-01   2.2491313e-01  -7.0754841e-01  -4.3541747e-01  -2.6103478e-01   6.6736571e-02  -7.7783639e-01   8.6805418e-01  -1.3856184e-02   6.4167018e-01   7.3193712e-01   7.0916790e-01  -8.2448803e-01   7.0788002e-01   8.0502420e-01  -7.8690812e-01  -8.7462369e-01   3.6100210e-01   2.0986135e-01   2.1762387e-01  -9.4864495e-01   5.0501321e-01  -5.0946660e-02   4.0852532e-01  -1.1632659e-01   3.4635797e-01   4.9842859e-01   2.6108012e-01   9.9763306e-01   8.4330916e-01   9.9567524e-01   4.5751133e-02   6.5041884e-01   6.2408135e-01   5.4556083e-01  -9.9133601e-02   1.6062133e-01  -3.4118270e-01  -8.3884017e-01   4.2094712e-01  -7.1566305e-01   9.2587417e-01  -8.7226516e-01   3.0120513e-01   2.9607468e-01   3.0691723e-01   6.0756142e-01  -5.6247116e-02   6.1033022e-01  -8.3163663e-01   9.3165338e-01   5.4625639e-01  -2.0240129e-01   9.2235686e-01   7.0651969e-01  -2.0707789e-01  -7.1942730e-01   8.2717687e-01  -2.0945451e-01   8.5683903e-01  -2.1003736e-01   9.4914238e-02   5.0940998e-01   3.3004996e-01   7.3183408e-01   6.5321847e-01  -1.0593549e-01  -2.9064943e-01  -8.7127748e-01  -9.0143998e-01  -3.9061683e-01  -7.4323394e-01  -4.0325733e-01  -4.9482816e-01  -8.7438985e-01   1.7923672e-01  -7.6116210e-01   3.8374290e-01   1.6680777e-01   7.0772402e-01  -3.7354814e-01  -4.1488938e-01  -5.7997263e-01  -1.2724978e-01   7.5579283e-02  -1.1765836e-01   6.4482865e-01   7.4545478e-02   1.8097641e-01   3.4851965e-01  -2.0863456e-01   4.8147431e-01   1.2224830e-01   7.1569218e-01  -4.5023625e-01   4.1465783e-01   4.6378172e-01   1.7879286e-01   3.8797161e-01   7.3450606e-01   2.9128349e-01   9.8793671e-01  -1.3278419e-01   1.1430522e-01   5.3406317e-01   9.0618431e-01   2.3112572e-01   7.3040900e-01   3.6795618e-01  -4.5888415e-01   6.5340711e-02  -7.7284538e-01   5.4682626e-01  -4.5124376e-01  -4.1605680e-01   9.4200598e-01   1.0317247e-01  -6.3166767e-01   1.3874335e-01  -5.7370174e-01   9.6910666e-01   8.0360495e-01  -8.2504452e-01  -7.4014683e-02   3.6676700e-01   4.3273479e-01   1.8238219e-01   8.3548332e-01   5.8077649e-01  -3.9820829e-01  -7.7912094e-01  -6.3837627e-01   7.4061781e-02  -1.1184946e-01  -2.4702507e-01  -4.5303475e-01  -3.5591619e-01   5.2244977e-01   7.4761913e-01   8.1089948e-02  -2.9504275e-01   7.6203635e-01   5.6383393e-01   7.8029013e-01  -7.1746189e-01   1.6288521e-01   7.4369030e-01  -7.3917908e-01   3.4638656e-01  -9.7621904e-01   3.9997973e-01  -4.8816692e-01   2.4866901e-01  -9.6589979e-01  -1.9105594e-01   5.7430000e-01   9.9837371e-01   3.4423907e-01  -8.1567389e-01   1.9458313e-01  -2.0346546e-01   6.6798690e-01  -9.1103222e-01  -4.0636423e-01   7.0650060e-01   1.3125717e-02   6.9823307e-01   2.8949050e-01  -9.9962569e-01   4.2709312e-01   1.9807109e-01   7.8828885e-01  -1.4888864e-01  -8.9067397e-02   3.5987377e-01   6.3672777e-01   4.9077180e-01   4.7360171e-01  -3.2384931e-01  -9.6680365e-01   9.1081638e-01   2.6107762e-01  -6.4747167e-01   9.9104415e-01  -5.1862830e-01  -5.2670915e-01   5.7706131e-01  -6.9177750e-01  -6.7665004e-01  -2.2737896e-01  -3.7520528e-01   2.1512555e-01  -6.2261173e-01   3.2230981e-01   4.3343607e-02   3.0773747e-01   5.0055523e-01   1.7071836e-01  -2.9693143e-01   8.8053815e-01   4.6319522e-01  -8.1447571e-02   8.1374463e-01  -5.7451330e-01   7.0732211e-01   1.3991235e-01   7.5584095e-01   5.9522042e-01  -6.2005217e-03   4.7938669e-01   1.1588768e-01  -4.3012275e-01   3.5608096e-01   2.1497367e-01  -1.7653543e-02  -2.0924498e-01  -2.1454919e-01  -1.2661308e-01   9.1073952e-01  -6.8846064e-01   8.3347910e-01   2.2242200e-01   4.0633302e-01  -7.1194709e-01  -6.3125189e-01  -3.4371347e-01   7.0537861e-01   5.8396615e-01   4.3758964e-01  -8.4861540e-01   7.8635801e-01  -4.1851611e-01   3.4875139e-01  -9.4795389e-01   9.4499821e-01   1.1830468e-01   2.1193711e-01   6.5170061e-01   1.6385607e-01   8.4569798e-01   4.8207780e-01   6.8617351e-02   1.0721440e-01  -2.0243204e-01  -1.8021948e-01   4.0553462e-01  -4.9446937e-01   8.2978828e-01  -7.0829839e-01   5.8260394e-01  -2.5061917e-01  -4.3245160e-01  -2.2441848e-02  -8.4754473e-01   6.8471959e-02   3.9503538e-01   3.1107953e-02   3.0033411e-01   1.2628155e-03  -4.1706303e-01   7.0989976e-01  -1.6988039e-02  -5.3604852e-01  -4.3879970e-01   6.2577039e-01   8.2201642e-01  -6.6594458e-01  -3.9074018e-01   3.1573872e-01   1.0676300e-01   2.8678118e-01  -6.1679997e-01  -8.1860500e-01   7.6576362e-01  -2.4404127e-01  -3.5396263e-01  -4.6154972e-01  -8.0001204e-01  -7.7799042e-01   5.5014346e-01   7.0060850e-01  -1.5931764e-02  -5.0040264e-01  -9.5437248e-01  -1.2001298e-01  -6.2354968e-01   7.9538337e-01   7.5001999e-02  -2.1065979e-01   3.0543693e-01  -3.7819741e-01  -5.8757595e-01   8.4924792e-01   6.0532505e-01  -1.8690897e-01   3.8661631e-01  -9.4365052e-01  -2.2324344e-01  -8.9617418e-01  -1.8763213e-01   9.4162296e-01   7.5657522e-01   7.5800146e-01  -1.7444560e-02  -8.5158795e-01  -4.7930674e-01   6.4786932e-01  -7.6522808e-01   8.1337577e-01  -9.4513897e-01  -7.9832468e-01  -2.8473072e-01   9.6768978e-01   9.1761623e-01   3.5537344e-01  -7.3323357e-01  -4.5005153e-01  -1.7638204e-01  -4.5879406e-01  -1.0040797e-01  -9.3034522e-01  -8.8596113e-01  -6.9715197e-01  -4.4347972e-01   1.2480290e-01   2.7573760e-01  -8.7058486e-01   3.8841573e-01  -1.9915526e-01  -2.9604757e-01   2.8752189e-01   4.4705518e-01  -4.2780688e-01  -8.6013305e-01   7.2331661e-01   5.5823125e-01  -7.9308191e-01  -6.7030013e-01   3.0361215e-01  -7.4987193e-01  -1.1929763e-01   2.6543422e-01  -2.3437344e-01   5.5844298e-01   3.0983300e-01  -8.3033415e-01   8.3747479e-01   5.6123982e-02   2.7977554e-01   4.3873519e-01  -6.2438108e-01  -8.4210065e-01  -9.0755097e-01  -6.6623373e-01   2.8145620e-01   9.5162879e-01  -5.9734536e-01   3.4954060e-01  -5.8223159e-01  -3.5022554e-01  -2.3024098e-01   5.3786734e-01  -9.1386433e-01   5.3169706e-01   7.7854836e-01   8.5929588e-01  -5.5290067e-01  -3.1878608e-01  -8.7125443e-01   9.3826166e-01   5.7542194e-01  -3.2147177e-02   2.9643248e-01   6.0230252e-01   7.8645748e-01  -8.3565982e-01  -5.3611718e-01   3.5165079e-01   7.0668245e-01  -5.4930064e-01  -7.5076899e-01  -3.5885507e-01  -9.7304498e-01   2.0927126e-01  -5.5006481e-01  -1.7545333e-01  -8.9491345e-01  -9.1018841e-01   2.6609790e-01  -9.0365807e-01  -8.5925150e-01  -9.9319961e-01   2.0237404e-01  -2.3531134e-01  -3.9975595e-02  -3.8236548e-01  -1.9997846e-01   8.7442837e-01   3.5686058e-01  -2.8425127e-01   1.7585971e-01   7.6470368e-01   9.3863812e-01  -1.3384071e-01  -2.0723221e-01  -9.8094813e-01   1.7703027e-01  -4.2006581e-02   5.5446927e-02  -5.2901908e-01  -5.5077025e-01  -6.9279868e-01  -7.0182590e-02   7.8981805e-01   7.2474837e-02   3.8584341e-01  -1.0543128e-01  -7.0678658e-01  -2.2653020e-02   1.8161203e-01   3.2074761e-02  -3.9110953e-01   2.6520131e-01   5.7072283e-01   2.0516749e-01  -3.5238477e-01  -9.8611210e-01   7.5179608e-01   7.4817927e-01  -4.7685505e-01  -2.2250657e-01   8.4856050e-01  -6.5333450e-01  -8.1104812e-01   2.2287045e-01  -3.5058980e-01   6.7966203e-01  -9.4303816e-01   2.0315240e-01   3.2202466e-01  -9.0180930e-01   3.7968221e-01  -7.2710211e-01   6.0973407e-01  -7.4112416e-01  -6.6877849e-01   1.1361030e-01   6.7094594e-01   3.8370967e-01  -7.2820071e-01   9.8593607e-01  -9.1317296e-01  -6.1133263e-01  -5.0560470e-01   3.0434331e-01   6.1149685e-01   6.1438809e-01   5.9919556e-01   1.1634584e-01   9.4730320e-01  -7.3156993e-01  -3.2217120e-01  -8.8817621e-01   5.3592619e-01  -9.4749399e-01  -6.7126973e-01   5.5411866e-01  -5.7116764e-02  -2.8204304e-01  -4.4589974e-01  -6.1289459e-01  -8.8871497e-01  -7.9259642e-01  -2.4136935e-01  -9.4376648e-01   9.8686189e-01  -9.9033610e-01   3.9538451e-01   8.1715153e-02  -8.1847218e-01  -5.7361710e-01  -3.7371261e-01  -4.6223517e-01  -8.2979898e-01  -9.4043877e-01  -2.1195318e-02   1.0814049e-01   3.0997058e-02  -1.7224627e-01  -7.5241839e-01  -2.0809445e-01   4.9440151e-01   1.7321943e-01  -5.3395621e-01   6.9886326e-01  -6.0959384e-01  -8.5148471e-01  -5.3444376e-01   4.1279043e-01   8.9245011e-01  -7.8593546e-01  -1.0762767e-01  -5.1028686e-01  -4.7417865e-01  -4.8840677e-01  -1.2124927e-01  -4.7975213e-01  -5.9349861e-01  -7.4987052e-01   2.2764259e-01   5.6866837e-01   9.5786774e-01   8.1835012e-01  -1.8963436e-01  -7.5640459e-01  -3.5931218e-01  -7.7921028e-02  -7.0680771e-01  -2.1601649e-01  -6.3764818e-01  -8.0569593e-01   1.4728053e-01   8.2197669e-01  -2.7546165e-01   2.1909421e-01   1.1302248e-01   7.2664815e-01  -7.8656831e-01  -5.3381387e-01   1.6988163e-02  -1.6250461e-01   9.5718716e-01   7.8616693e-01  -4.6822614e-02   5.8278961e-01   8.7980284e-01  -8.2460875e-01   2.3799619e-02  -2.1033117e-01   7.6560063e-02  -7.7511493e-01  -4.5585524e-01   6.6230291e-01  -4.1958904e-01   5.0717399e-02   7.5156921e-01  -6.2946985e-01  -8.6930488e-01   4.9198777e-03  -9.6800142e-01  -9.8434713e-01   2.0172482e-01   8.9479060e-01   7.5547972e-01  -3.2974813e-01   2.2811699e-01   6.7620071e-01  -2.0958706e-01  -6.5584091e-01   2.0693085e-01   6.0280366e-01   5.5804402e-01   9.9354318e-01  -7.4052322e-01  -5.2150391e-01  -1.3684218e-01   1.2224246e-01   1.1904821e-01   1.3364676e-01   1.1457970e-01   3.1767494e-01  -9.2232223e-01   7.2079558e-01   9.9007985e-01   6.8584995e-01   4.6837798e-01   9.2106052e-01   8.7944243e-01  -2.6636598e-01   4.0595079e-01  -4.4828954e-01   6.2888598e-03   4.9872082e-01  -7.2127555e-01  -5.6013088e-01  -4.0811029e-01   4.8603391e-01  -8.9304636e-01  -2.5054884e-01   7.0109407e-01  -2.9404533e-01  -5.5373406e-01   9.1580368e-01   3.9565314e-01  -4.7482331e-01   3.0405746e-02   7.7150745e-01   1.1077770e-01  -7.3837592e-01  -7.8362044e-01   6.7635857e-01   2.1846116e-02  -4.5133823e-01  -3.9087249e-01  -3.3656390e-01   7.6206571e-01   3.3527798e-01   8.3594237e-01  -6.8746620e-01   6.9103924e-01  -3.0377307e-01  -7.1119796e-01   3.0961598e-01  -6.4617669e-01   6.4116445e-01  -6.5787351e-01  -9.5095542e-01  -8.2324650e-01  -4.1732491e-01  -6.3367184e-01  -2.6092634e-01  -7.3337649e-01  -5.3301157e-01   7.8100847e-02   2.6790133e-01   9.8931202e-01   6.3747958e-01  -8.1821843e-01  -4.0854512e-01  -7.2090685e-01  -7.8205416e-01  -6.1021082e-02  -1.3043084e-01  -3.6487382e-01  -3.9612092e-01   2.0329111e-01   2.2009355e-01   8.4311186e-01  -9.7885047e-01   3.6116472e-01   2.3694509e-02   6.3769608e-01   2.9417757e-01   4.8118145e-01  -9.5462630e-01  -6.8606644e-01  -3.6461484e-01   4.1477013e-01   5.7460645e-01  -5.3351728e-01   5.2854201e-01  -2.2681513e-01  -9.8835415e-01   4.7928479e-01   9.2831868e-01  -2.1100398e-01   3.8244558e-02   9.7617311e-01  -2.4657323e-01   6.4200091e-01   1.7539490e-01  -2.9967084e-01   5.5907287e-01   3.8499101e-01  -3.9047867e-01  -2.9739474e-01  -2.8954439e-01  -5.6964292e-02  -3.9890376e-01  -1.8378260e-01  -6.5474610e-01  -1.7102126e-01  -6.6744454e-02  -5.0344472e-01   9.9557342e-01  -2.2780352e-01   1.4781060e-01   9.3541411e-01  -5.7657494e-01   2.1982214e-01   3.8681327e-01   6.0846932e-01  -6.8815445e-01  -1.1594011e-01   2.7959473e-01  -2.5319877e-01   3.9800618e-01  -1.9917049e-01  -7.7893748e-01   1.8244813e-01  -4.3635033e-01  -9.9683987e-01  -8.2333863e-02  -1.2833669e-01  -6.9801761e-02  -7.2380657e-01   6.8791877e-01   6.0133911e-01   4.8231557e-01  -8.3502471e-03   1.6191720e-01   8.1070768e-01   7.1508378e-01  -8.0124756e-01   1.0248714e-01   8.0386001e-01   7.6499799e-01  -8.6475217e-01  -2.5386515e-01  -4.4734955e-01   8.1128005e-02   6.5738680e-01  -8.6590234e-01  -8.1836050e-01   6.7247851e-01  -4.5450929e-02  -7.1356038e-01  -3.6262944e-01   8.6516223e-01  -6.5043959e-02   9.6348099e-01   7.0016209e-01   6.1022803e-01  -1.4716236e-01  -3.1551489e-01   9.2244074e-01   4.3767609e-01  -8.1537919e-01  -2.1744048e-01  -4.2336100e-01  -1.0055257e-01   1.1081599e-01   6.7827000e-01  -1.3339867e-02  -7.0496459e-01  -8.5894060e-02  -6.3408497e-01   9.3457721e-01  -6.0874242e-01  -3.8015080e-01  -4.2903178e-01  -3.0420961e-01   8.2105226e-01  -4.8369665e-01  -6.7096472e-01  -5.4616549e-01  -7.2948975e-01  -8.5384325e-01  -9.4903376e-01  -4.3802953e-01  -5.0039567e-01  -4.2170810e-02  -4.6653910e-01   5.4458766e-01  -2.9737809e-01   1.1631435e-01  -9.5185118e-01   4.2533402e-01
  -4.2545644e-01   5.6237959e-02   5.8059145e-02  -5.8796859e-01  -3.1033250e-01  -7.2537419e-02  -5.2781146e-01   8.0153679e-01   4.6856141e-01  -2.1643165e-01  -5.8168363e-02  -9.1565736e-01   3.0098836e-01  -5.0668136e-01  -6.4751643e-01  -1.6439174e-01   2.3534385e-01  -7.9942265e-01   4.5212367e-01   3.4270522e-01   3.9572826e-01   3.0142997e-01  -6.2251618e-01   7.5123766e-01  -3.5857433e-01  -9.7774138e-01  -7.5615975e-01  -3.4353027e-01   1.0980422e-01  -3.2714548e-02   9.2846665e-01   9.1260234e-01   3.4967332e-01   1.0538247e-01  -1.8494159e-01  -5.9087124e-01  -4.6626229e-01   3.3039261e-01   6.5246013e-01   2.4623501e-01   9.8687292e-01  -3.3318169e-01  -3.6876009e-01  -8.4227236e-01   9.4691250e-01   4.8385085e-01   5.4659903e-02  -6.3704850e-01   3.1686226e-01  -5.0584798e-01  -3.5193777e-01   7.9149600e-01  -6.6470592e-01  -4.2434183e-01   2.1453639e-01  -2.7086008e-01   9.2070800e-01   5.0136756e-01   1.1356920e-01   7.7245566e-01  -9.1907093e-01   8.0060923e-01   7.3907335e-01   3.0160892e-01   6.3997947e-02   4.4683091e-01  -8.2689337e-01   9.2831571e-01   8.0823149e-01  -2.2891274e-01   1.1076618e-01  -1.5785268e-01   2.1814466e-01  -4.1726172e-01  -9.8372995e-01  -9.8492916e-01   6.2335850e-01  -9.8395164e-01   7.5617882e-02   1.6557152e-01   7.7156116e-01  -6.1644995e-01   2.1600522e-01   2.9991538e-01   2.3271470e-01  -7.9305801e-01  -9.4562146e-01  -4.6468895e-01   6.7048387e-01   5.4792149e-02   9.3213567e-02   6.6996457e-01   1.2248736e-01   2.3744268e-01   8.7289353e-01  -8.9266820e-01   5.0298990e-01   6.5109817e-01  -8.8142197e-01   2.0870515e-01   6.7513997e-01  -8.7526308e-01  -7.3692703e-01   2.8845594e-01  -3.7464547e-01  -5.5848809e-01  -8.9756255e-01   4.0696448e-01   8.1938065e-02   2.4154992e-01   7.3243876e-02  -3.5740031e-01  -8.8381529e-01  -9.2701579e-01   3.8734629e-01  -7.4387053e-01  -5.5632598e-01   4.3779993e-01   8.5600722e-01   8.0597817e-01   9.2487000e-01  -5.6540447e-01  -5.0264852e-02   6.9484073e-01   9.3882975e-01  -1.3130866e-01   7.1363442e-01   4.6380131e-01  -9.9671360e-01   4.4520495e-01  -6.0515344e-01   5.2252833e-01  -5.1170575e-01  -6.0508987e-01  -6.1643878e-01  -5.2451123e-02  -6.3364268e-01  -1.8419152e-01   8.7918104e-01  -7.3008407e-01  -6.9066633e-01  -2.3335615e-01  -1.6084625e-01   5.2399751e-01  -8.6959451e-01   4.9907340e-01   7.5217318e-01  -8.4731273e-01   9.9970740e-01  -6.2929272e-01  -5.8999777e-01   4.1250750e-01  -5.8509358e-01   4.7823760e-01   6.0250511e-01  -4.7806147e-01  -6.5877405e-01  -8.0650880e-01   4.0824360e-02   2.1959816e-01  -7.1670471e-01  -2.0486368e-02   1.3346007e-01  -2.6496714e-01  -6.6988428e-01  -5.3473700e-01  -5.1149675e-01  -8.9555690e-01   6.7868003e-01  -8.0281864e-01   8.7077875e-01   4.8266081e-01   5.5063520e-01  -5.2249440e-02   4.6819721e-01  -1.1973552e-01   3.5059120e-01  -2.2095564e-01  -1.9034704e-01   6.6609814e-02  -7.6033349e-01  -8.5367274e-01  -9.3969235e-01   7.7101827e-01   1.8407152e-01  -9.8337040e-01   2.4640152e-01  -5.4422003e-02  -8.3060956e-02  -7.9726393e-01   5.0199460e-01   4.0909774e-01  -8.5734088e-01  -7.0548847e-01  -8.9996776e-01   4.8535749e-02   8.7766610e-01   5.3711316e-01   3.1015979e-01   1.6206774e-01  -1.0985959e-01   2.2831781e-01  -4.6383178e-01   2.2151696e-01  -3.5439557e-01  -9.1347102e-02   4.8966023e-01   2.8235503e-02  -8.0927497e-01   1.2423380e-01  -9.4723838e-01  -3.0358762e-01  -5.8290970e-01  -4.4707098e-01   7.5374712e-01  -1.9092223e-01   5.7055943e-01  -4.5290560e-01   1.7552261e-01   3.6312723e-01   7.9489509e-01   7.9070204e-01   9.3075028e-01  -5.5595181e-01   2.6334869e-01   8.3792144e-01  -3.1399810e-01   9.2862084e-01   3.2090022e-01  -9.9550647e-01  -9.9901368e-01   8.2330730e-01  -1.7205683e-01   4.1121250e-01  -2.1819303e-01   8.5581697e-01  -5.0576624e-01  -4.9628979e-01   6.0654106e-01   9.6233928e-01  -8.3999412e-01   5.5620785e-02   4.2971498e-02  -1.1812589e-01  -6.1585363e-01  -4.3376357e-01   7.4841025e-01   2.2314005e-01   9.8735824e-01   1.2608519e-01  -5.9114035e-01   1.3356611e-01  -4.7809129e-01  -6.2488427e-01  -3.7290099e-01   9.2277657e-01  -8.5427690e-01   3.7295411e-01   7.7505590e-01   3.5837633e-01   3.2500346e-01   6.3100315e-01   8.0068978e-01  -4.0384222e-01   8.8494028e-01  -5.8421156e-01   4.9503026e-01  -3.7333353e-01  -3.0325749e-01  -7.7453330e-01  -4.1363586e-02  -7.3568731e-01  -6.8453299e-01   6.1229538e-01   3.6498578e-01   6.9979892e-01  -9.9037436e-01   2.5718571e-01   7.9519861e-01  -3.3131666e-01   7.1267057e-01  -9.7439045e-01   4.2685674e-01  -9.6214924e-01  -6.9172308e-01  -1.5900160e-01  -4.7747914e-01   1.2888366e-01  -6.2093200e-01  -6.2775081e-02  -8.2319215e-01   1.8890006e-01   8.3074762e-01   9.2199239e-01  -8.4676398e-01  -5.9691311e-01   3.9173833e-01   3.5490405e-01  -3.0250210e-01  -4.8917709e-01   8.1010158e-01  -2.7777060e-01   7.9427954e-01  -7.9255023e-01  -6.8824377e-02  -3.0047125e-01   6.4794629e-01   7.9838680e-01  -5.9834408e-01   5.0796478e-01   4.3706687e-02   3.7365196e-01  -5.3673942e-01   1.9711005e-01   4.6962861e-02   2.8893906e-01  -4.7964932e-01   3.4180205e-01  -5.8830265e-01  -8.4642890e-01  -6.0230301e-02  -6.8753740e-01   5.1418688e-01   1.0535920e-01   1.2829909e-01  -8.0017751e-01   2.2478969e-02  -2.9279001e-01   1.9540600e-01  -9.2658932e-01   5.2667169e-01  -5.7893745e-01  -4.8345061e-01  -3.0618962e-01  -1.1601057e-01  -2.4060658e-01  -7.6019194e-01  -2.1189322e-01   1.3421195e-01   1.1454542e-01  -2.3348853e-02   8.3632964e-01  -8.8550602e-01  -3.0736371e-01   8.7480289e-01  -5.0149184e-01   9.0034600e-01   8.4593320e-01  -4.7861097e-01  -8.6610332e-01  -6.8161466e-01   7.8808753e-01   9.3093214e-01  -6.8182391e-01   9.2458237e-01  -9.8530848e-01   3.4460091e-01   2.3377223e-01   8.3028055e-01  -8.2551409e-01   9.7768172e-01  -4.7534657e-01   2.9181769e-01  -9.9441590e-01  -3.0414632e-01   8.4852034e-02   5.1383044e-01   4.4502378e-02   9.2522220e-01   6.8075460e-01  -8.1116861e-01   8.0605313e-02  -2.0534946e-01  -3.5537284e-01  -6.3991295e-01  -8.3039353e-01  -5.0585481e-01   4.9455224e-01   9.4581663e-01  -6.6695894e-01   7.8157352e-01  -9.2094644e-01  -2.2037162e-01   6.4627549e-01  -4.0561872e-01  -6.7648744e-01  -7.2327764e-01   7.3669206e-01  -1.1258954e-01  -6.9075494e-01  -3.5611602e-01   4.3653990e-02   6.9368012e-01   2.2254472e-01  -4.6225454e-02  -2.0688184e-01   9.6876929e-02  -4.6980269e-01   9.5685341e-02   4.0383551e-01   4.9081731e-01   2.9195165e-02   7.0056907e-02  -1.4821342e-01   5.9980989e-01  -5.9743915e-01   3.7423025e-01   9.9983352e-02  -2.8827888e-01  -9.7246575e-01  -2.6325002e-01  -4.8796473e-01  -5.2627230e-01  -9.6932299e-01   9.4070257e-01   1.9769804e-01  -8.6409609e-02  -8.5960184e-01  -5.9887213e-01  -1.3526044e-01  -1.6169030e-02   6.3943414e-01   2.0688742e-01  -1.6478955e-01   3.9402693e-01   7.8212089e-01   2.7803017e-01  -2.0508164e-01   7.2431095e-01  -9.4001501e-01   3.2938392e-01  -4.2765851e-01   9.0483121e-01   8.6611311e-01   3.9574771e-01  -8.7226347e-01   1.5936134e-01   2.7614978e-01   9.6004903e-01  -8.2043662e-01   2.1424018e-03   5.6204759e-01   2.7240271e-01  -6.6668568e-01   5.1534444e-01  -7.4156707e-01  -9.6913669e-01  -1.7420866e-01   6.5052272e-02   7.5345673e-01  -3.0555868e-01   1.3211627e-01  -3.7210179e-01  -6.9571177e-01   2.7850259e-01  -6.3673910e-01  -2.6347110e-01  -4.5617776e-01  -3.3402479e-01   5.1821509e-01  -6.3990564e-01  -9.4237120e-01   5.3520194e-01   5.8873263e-01  -7.0238094e-01   5.8992001e-01  -2.2306050e-02  -2.9327335e-01   4.5409543e-01  -9.0810491e-01  -1.4391022e-01   1.3891743e-01   9.0866068e-01   3.8424649e-01   1.3947434e-01  -1.5498357e-01   8.1075078e-02   1.5094138e-02   2.2826655e-02  -2.7088488e-01   8.5898911e-01  -6.2477989e-01   4.4383451e-01  -5.4238940e-01   9.2921241e-02  -8.6408175e-01   2.7044623e-01   2.9823500e-01  -7.7760625e-01  -7.9368670e-01  -6.0960447e-01  -5.5419936e-01   4.6733145e-01  -1.9032140e-01  -5.3829352e-01  -3.7623211e-01  -4.5154743e-02  -3.2861887e-01  -4.5748743e-01  -9.0363371e-01  -1.0659275e-01  -2.8394083e-01  -7.0784470e-01   3.0890913e-01  -1.1966318e-01  -1.4191120e-02   1.6757298e-01   5.3378972e-01   3.5396930e-01  -4.0076439e-01   4.4695507e-01  -1.6231645e-01   6.1297150e-01  -9.9685240e-01  -5.9710326e-01   5.4108556e-01  -9.3933463e-02  -9.2663970e-01  -7.1676897e-01   6.2632844e-01   3.8183232e-01  -9.9295511e-01   1.6983772e-01   5.8409044e-01   7.1188675e-01  -5.2306348e-01  -7.6744641e-02   2.4649640e-01  -6.8827486e-01   5.4613994e-01  -9.8549467e-01   8.9002640e-01  -3.2776794e-01  -2.5088201e-01   3.7928496e-02   3.6131936e-01   7.9969148e-01  -8.6443276e-01  -9.3994921e-01   1.8498088e-01   7.6186866e-01   3.7312310e-02  -6.6797561e-02   6.6238765e-01   7.8840045e-01   8.5395166e-01  -3.6515340e-01  -9.0828876e-01  -1.0142652e-01  -2.5417994e-01   9.8515355e-01  -3.0690856e-01  -3.8224067e-01  -7.4629922e-01  -3.1082270e-01   3.7993349e-01  -2.4180503e-01  -1.9482431e-01   3.4224490e-01   7.4185794e-01   4.5824295e-02   3.2711144e-01  -2.1317866e-01  -9.1916301e-01   4.5541009e-01   8.5440475e-01   7.0675037e-01  -6.5614192e-01  -4.3200236e-01   9.2238835e-01   5.2559641e-01   9.2817181e-01  -7.5657465e-01   6.6414001e-01  -4.5617192e-01   1.3277815e-01  -5.4379133e-01  -9.3062278e-01   6.4234182e-01  -7.7676459e-01  -5.6813099e-01  -6.0708999e-01  -9.2871529e-01   9.1304414e-01  -6.9443609e-01  -4.3555822e-01  -7.7268963e-02   4.1412903e-01   8.7537443e-01   3.9958426e-01   9.0818814e-01  -9.2781874e-01  -2.0530414e-01  -7.2888883e-01   5.5798084e-01  -4.8203749e-02   5.7952322e-01   2.7108785e-02  -3.5314005e-01   6.8934417e-02  -2.7793294e-01   1.3334884e-01   7.1135762e-02   8.7277243e-01  -7.6320688e-01  -9.8895453e-01   2.3539644e-01   1.6285120e-01  -5.3628228e-01  -4.8854679e-01  -4.1371910e-01   7.9860286e-01   4.9404881e-01  -3.3531667e-01   3.1216476e-01   8.6409694e-01   6.8062976e-01   5.3880159e-01  -1.7293992e-01   9.0560281e-01  -4.8574977e-01  -9.1987325e-01  -2.5998131e-01   1.1764813e-01  -3.8837435e-01  -1.3673340e-01  -8.5410775e-03  -2.4772718e-01   3.4643367e-01  -2.8819820e-01  -9.2616382e-01  -4.1794920e-01   9.7699100e-01  -2.2783364e-01  -5.4512512e-01  -5.7833420e-02   9.1947258e-01   9.2185959e-01  -3.6278051e-01   9.2109762e-01   5.8297992e-02   7.3461560e-01   5.2011743e-01   2.1882487e-01  -4.5491538e-01  -2.9615502e-01   2.7438561e-01  -8.4224129e-02   5.9246346e-01  -6.3592493e-01   9.8481572e-01   1.3718256e-01  -4.0734039e-01  -9.9327606e-01   5.3605182e-01   6.3294664e-01   5.8683300e-01  -9.7889745e-01   8.8796983e-01  -4.3567061e-01   6.2546200e-01   4.3301057e-01  -2.1755274e-02   3.9106568e-01   9.8842443e-01  -2.7512193e-01   7.6770321e-01  -2.1397946e-01  -2.9269255e-01   9.1848681e-01  -9.3809559e-01  -9.9571852e-01   2.2627007e-01  -5.8951891e-01  -5.2765664e-01  -5.4237952e-01   5.3011416e-01   5.3810386e-01  -9.8055779e-01  -6.7924855e-01   9.5497800e-01   4.3637169e-01  -8.7032892e-01  -1.7070588e-01   3.4463269e-01   7.7159064e-01  -3.2302252e-01  -6.5613796e-01   9.5821035e-01   2.0397052e-01   3.8089347e-01  -9.1549901e-01  -4.7183796e-02   9.0811613e-01   6.7527510e-01   6.2209735e-01  -3.8469056e-01   4.6088980e-01   9.0779996e-01  -2.7062036e-01  -9.8718198e-01  -6.6430038e-01   6.1641130e-01   4.3523960e-01  -7.6911938e-01   4.2787131e-01  -3.3798304e-01   9.0927662e-01   2.0406720e-01   9.1322374e-01   6.8107068e-01  -5.5820708e-01  -7.2040421e-01   8.8010272e-01   6.6307127e-01  -6.4628034e-01  -2.8802206e-01  -7.8810794e-01  -6.5642175e-03  -8.7390492e-01   1.2889124e-01   7.1778988e-02   4.6036858e-01   9.4663270e-01  -2.1721586e-01   9.9301038e-01  -8.7387570e-01   9.4890333e-01   6.5488979e-01   6.6695153e-01   8.6918471e-01   4.7341215e-01   6.0133991e-01   1.4950301e-01  -5.0898489e-01   8.6945917e-01   6.4826310e-02  -2.4385369e-03  -5.7093047e-01  -3.2950962e-01   2.7632341e-01   8.4784621e-01  -4.1255734e-01   2.6771689e-01   9.8993903e-01  -3.4028197e-01  -6.1161974e-01  -8.7221246e-01  -6.4707041e-01  -5.1860378e-01  -9.7337625e-01  -8.5596998e-01  -1.2126770e-01  -9.2941237e-02  -4.7144574e-01  -3.2817631e-01   1.2744521e-01  -3.1067836e-01  -3.7166439e-01  -6.5943653e-01  -9.3619173e-01   1.5446089e-01   3.0774151e-01  -4.3922127e-01   1.4748909e-01   8.8408917e-01   7.5739940e-01   9.1209387e-01  -2.9647293e-02  -5.6925986e-01   1.4967799e-01   5.3847101e-01  -7.2184233e-01  -1.4371065e-01   1.6516606e-01   9.1854156e-01  -2.7879592e-01   6.5011303e-01  -1.6862482e-01  -4.4642166e-02  -5.8360723e-01   5.5104795e-01  -7.5395612e-01  -7.8051334e-01  -3.5071934e-01  -9.0419069e-01   1.4171198e-01   8.3563632e-02  -7.2128873e-01  -8.3917514e-01  -2.3061657e-01  -8.8749559e-01   6.4624038e-01  -1.6898754e-01   1.7056153e-01   9.7376126e-01   5.6355531e-01  -1.8554866e-01  -4.9691350e-01  -4.8851155e-01  -2.8478065e-01   8.9057296e-01   8.3312820e-01   3.8520618e-01  -4.0807870e-01   5.8694220e-01   8.6102144e-02  -9.8721706e-01   1.2347532e-01   4.9290693e-01   8.6266607e-01  -9.1062969e-02   4.1336926e-01   5.8977991e-01  -8.1622650e-01   1.9930893e-01  -8.8943716e-01  -3.8858033e-01  -6.6302701e-01  -3.8893591e-01   4.0880293e-01  -6.9422148e-02  -2.3502595e-01   9.4290169e-01  -8.5217598e-01   9.5173266e-01  -7.3454187e-01   2.4972967e-01   2.8842850e-01   6.4782546e-01   5.2317608e-01   8.2834142e-02  -3.4815467e-01  -7.3107982e-01   2.9910916e-01   5.5829143e-01   5.2027980e-01   8.0306607e-01   1.0876957e-01   7.6282308e-01   9.2051102e-01   2.1722213e-01  -6.8280539e-01  -5.8766212e-01   3.8734703e-01   3.4124181e-01  -9.3101955e-01   4.9839840e-03  -8.8032362e-01  -5.3190701e-01   5.0265119e-01  -1.6664642e-01  -4.6802394e-01   9.3301393e-01   4.4650065e-01  -3.0156883e-02  -3.5892488e-01   4.7534497e-01  -8.5728822e-01   9.8514171e-01  -3.0740168e-01  -5.8983486e-01   3.6420505e-01   4.6246779e-01  -6.7289219e-02  -1.0983270e-01  -9.4866461e-01  -7.3212285e-01  -3.7164126e-01  -6.4644375e-01  -6.1408897e-01   1.4659939e-01   8.6002611e-01  -8.2285756e-01  -9.0227754e-01  -5.6690369e-01   4.3415138e-01  -1.6083701e-01  -3.4237352e-01  -5.0161298e-01  -4.7132820e-01   9.2497443e-01  -4.7422185e-01  -6.6080289e-01   2.9940933e-01  -6.1450290e-01   7.2189241e-01  -9.7177789e-01   4.6988704e-01   4.6088268e-01  -2.3533176e-02  -1.1165885e-01  -9.5356907e-01   8.8904375e-01   1.5454473e-01  -7.5622365e-01   6.6083515e-01   9.2813183e-01  -8.6016304e-01   6.1854691e-01  -2.9855829e-01  -8.6982946e-02  -5.8914584e-01  -1.7250853e-01  -6.8455954e-01   4.6902356e-01  -2.1659093e-01   6.7005075e-01   1.3908936e-02  -6.0580449e-01  -9.0375528e-01  -2.8988410e-01   4.1023499e-02  -2.9507444e-01  -2.2218204e-01   7.9094783e-01  -4.8474327e-01   5.5862159e-01   5.0372452e-01  -6.6555835e-01   8.6990457e-01  -9.1960806e-01  -8.3083957e-01   2.8607273e-01  -8.2010546e-01  -4.5813703e-02   9.5743209e-02  -2.5581030e-01   5.8832525e-01  -9.5234875e-01  -4.3289933e-01   9.6846010e-01  -2.1367561e-01  -5.1728415e-01   1.2293588e-01   6.0565737e-01  -7.1945747e-01   4.6383650e-01   9.0598601e-01  -6.3674786e-01  -5.6352953e-01  -4.8994519e-01  -7.3264180e-01  -7.8526485e-01   5.1321556e-01   1.5651408e-02   3.5352871e-01   8.7087666e-01   1.4654662e-01  -3.3668784e-01   4.6695846e-01   2.7451207e-01   5.0289157e-01  -8.0412968e-02  -8.9294318e-01  -9.0633676e-01  -7.6897183e-01  -6.4567401e-01   6.7356420e-01   4.0190434e-01   8.7603001e-01   9.6654578e-01   1.6285433e-01   2.9026862e-02   1.1790354e-01  -9.5092315e-01  -2.0065640e-02   9.8211331e-01   2.2146073e-01   9.5074726e-01  -3.4639545e-01   7.7993027e-01  -8.1117434e-01   3.4540172e-01  -7.9248131e-01   6.3926615e-01   5.1378231e-01  -9.4551117e-01  -1.7584225e-02   1.9403122e-01   7.8339065e-01   3.7341494e-01  -2.9040197e-02  -7.9955670e-01  -7.1117100e-01  -3.0074655e-01   8.2219811e-01  -2.2269797e-01  -9.1185061e-01   9.6298130e-01   7.1880776e-01  -2.1330360e-01   2.2346471e-01   6.4820599e-01   6.2800126e-01  -8.0347683e-01  -2.1871383e-01   3.2556756e-01  -4.1752104e-01   8.4624722e-01
