  -5.8935732e-01   4.2713277e-01   2.8727757e-01   7.7557727e-01   1.6870386e-01  -8.8408593e-01  -8.4981937e-01   6.6821334e-01  -1.5154385e-01   1.7221301e-02   6.6473397e-01   7.4932206e-01   9.6190044e-01  -4.0364544e-01  -8.8856066e-01  -7.4296989e-01  -4.1622857e-01   3.0797768e-01   8.8957505e-01  -4.5830034e-01   6.2700265e-01   7.0151090e-01   3.6071944e-01   2.8765798e-01  -5.0831647e-01  -5.0704480e-01   9.6042727e-01  -9.7584481e-02  -1.3544228e-02   3.3741178e-01  -2.6308639e-01  -9.0886831e-01  -2.5584786e-01   8.9339982e-01  -4.3017476e-01  -9.6994534e-01   7.6162115e-01   3.1616358e-01  -4.7798551e-02  -1.6779465e-01   4.9422635e-01  -6.9576205e-01  -2.3619935e-01  -5.5408921e-02  -1.9263034e-01  -6.3584374e-01  -6.5885531e-01  -8.2141323e-01  -6.6630847e-02  -3.4646172e-01   3.1881209e-01   1.6463882e-01  -2.2007135e-01   8.3889205e-01  -4.4502042e-01   1.7867167e-01  -3.3486432e-01   2.1031565e-01   9.8551860e-01   1.9215328e-01  -7.1124442e-01  -5.5514571e-01  -3.2470014e-01  -8.7721014e-01  -4.6557637e-01   5.0676855e-01  -6.9685854e-02   1.8629472e-01   6.7353561e-01  -3.2978415e-01  -6.4305666e-01   9.5379306e-01  -9.0299789e-01  -7.3262118e-01   6.0435785e-01   1.6729863e-01  -5.5947462e-01   8.9873451e-01  -1.7701915e-01   4.4930350e-01   7.2113581e-01  -3.5097333e-01  -1.7712504e-01   5.3055128e-01   2.3455608e-01  -2.4422834e-01  -9.8768125e-01   1.3591588e-01  -9.0575534e-01   9.0155830e-01  -4.2036347e-01  -4.4594287e-01   1.1256698e-01   7.2920551e-01  -1.0926266e-01  -5.8419834e-02  -6.0811799e-02   8.2704637e-01   7.8649982e-01  -9.6493472e-01   1.9895489e-02  -6.5608084e-01   2.4077000e-01   4.3542056e-01   8.2379570e-01  -1.6763239e-01  -8.0209135e-01  -4.5285843e-01   2.5125071e-01   9.4374568e-01   4.7626628e-01  -5.9376355e-01  -8.5682041e-01   1.1384740e-01   2.3442888e-02  -7.1313851e-01   1.6668212e-01   7.4975571e-01   9.7442693e-01   5.1290561e-01  -8.5204602e-01   6.1764616e-01   7.4779938e-01   6.5694718e-01   8.3873953e-01   1.7036463e-01  -3.3603816e-02  -6.1222175e-01   5.6427474e-01   6.0907971e-01   6.6196056e-01  -6.5183428e-01  -6.7665601e-01   1.0505387e-01   5.8970104e-01   7.4851353e-01   6.0969432e-01  -4.5536733e-01   3.3134082e-01   9.1020063e-01   1.4063031e-02  -4.7547648e-01  -4.1164614e-01   7.7597183e-01  -2.9740651e-01   2.0843201e-02   3.4455343e-01  -5.2548096e-01   1.1011165e-01  -1.8217977e-01  -9.5989519e-01   9.8408890e-01   2.7205169e-01   4.2742438e-01  -7.9320194e-01   1.4026388e-01   4.9407351e-01   9.0276036e-01   3.6196275e-01  -6.8164463e-01   9.0509800e-01   3.2801094e-01  -1.0908473e-01   1.4682008e-01   3.4096739e-01   1.8927044e-01   1.0102901e-01  -6.5545828e-01   7.3887980e-01  -4.7901785e-01   9.6890438e-01  -8.1558056e-01   1.0736111e-01   6.1295315e-01   5.1508233e-01   6.5653628e-01   7.8334140e-01   5.9708221e-01  -1.0456252e-01   6.3899406e-01  -9.1270105e-01   1.8253585e-01  -5.7524970e-01   4.9200505e-01  -7.6626350e-01   2.9674992e-01   3.3864256e-01   5.9254398e-03   8.1522366e-01  -8.3522495e-01  -8.1057857e-01   4.9546388e-01  -8.4023933e-02  -1.3228546e-01  -1.0653585e-01  -4.2889352e-01  -8.6505475e-01   1.8139932e-01  -7.0627478e-01  -2.1567851e-01  -9.5931147e-01  -6.4140604e-01   4.8554689e-01  -4.8300934e-02  -3.1480987e-01   1.5889428e-01  -1.4252253e-01   2.2164791e-03   2.0555734e-02   7.1402325e-01  -6.7480739e-01   4.3093305e-01   9.3783108e-01   3.0663802e-01   4.5353446e-01  -1.5916644e-01   1.8111519e-01  -3.4335993e-01  -5.1243725e-01  -1.5543195e-01   4.5001444e-01  -5.2457246e-01   8.4164486e-01  -4.1112509e-01   5.3223994e-01   1.2956925e-01  -2.4460642e-01   1.8609566e-01   6.8471381e-01  -9.7466505e-01   1.2424520e-01  -5.5647667e-01   5.8996094e-01  -7.6837808e-02   1.8825475e-01   3.1758660e-01  -6.3824107e-01  -6.1381790e-01   3.0750838e-01  -1.5156973e-01   4.9605658e-01   8.4892627e-01   5.3426739e-01  -5.8979550e-01   5.1813551e-01  -1.4651748e-01  -3.6323317e-01  -9.2846238e-01   9.6128626e-01  -7.3336818e-01  -6.1371253e-01  -5.5449938e-01   9.6057383e-02   6.4517473e-01   8.2963203e-01  -4.3598852e-01  -2.7993146e-01  -6.3001071e-01   9.8545469e-01  -2.9073718e-01   7.2862646e-01   1.2983086e-01  -1.7262766e-01  -5.9251251e-01  -9.9912419e-01  -7.2815235e-01   9.7825666e-01   1.3058878e-01  -8.7235803e-02   5.9721155e-01  -5.4758869e-01   8.7096665e-01   5.1317709e-01  -3.9147239e-01  -8.7195839e-01   6.1653781e-01   4.1105064e-01   4.8281084e-01   1.7104800e-01   1.7275251e-01   9.2401298e-01   4.4980449e-01   1.3732697e-01  -7.7375448e-01   7.5781835e-01   9.7351584e-01  -8.8896715e-01  -9.4866677e-01   6.5345814e-01  -6.8283271e-01  -6.8599410e-01  -2.4021526e-01  -6.7413981e-02  -8.3511047e-02   3.0873743e-01   6.4484233e-02  -9.2136008e-01  -3.1529065e-01   1.4215712e-01   7.4914460e-01  -6.7257646e-01  -4.5928222e-01  -4.6492138e-01  -4.6482458e-01   4.3870858e-01  -1.7391366e-01   2.5646232e-01  -6.0814271e-01  -5.4037943e-01   4.8743840e-01  -8.7734188e-01   7.4889170e-01   6.6535246e-01   9.4840150e-02   8.0956272e-01   5.8591228e-01  -2.5618142e-01  -1.3698448e-01   9.3587203e-01   4.5682929e-01  -2.8365324e-01   7.4892822e-01   2.3778484e-01  -4.1861576e-01  -3.4795495e-03   1.8503571e-01   3.5297473e-01   7.5968842e-01   5.0291845e-01  -9.6236036e-01   5.3609261e-01   7.2059487e-01  -9.9481050e-01   4.6826252e-01   4.1334850e-01   9.7776239e-01   4.1130471e-01  -4.1963155e-01  -6.2478072e-01   7.8958218e-02  -8.4688343e-01   1.9070912e-01   8.7853675e-01   7.5499624e-02  -7.7382118e-02  -3.0261638e-01  -6.6697674e-01   2.7475796e-01  -2.3517811e-01   6.6426322e-01  -5.4129095e-01  -9.6921720e-01   9.0930318e-01  -4.8487643e-01   6.8149911e-01  -9.8406178e-01   4.6707638e-01   1.6176406e-01  -9.3157820e-01  -9.1878999e-01  -4.5529524e-01  -6.3744385e-01  -4.9311407e-01   3.2888398e-01   8.6286552e-01   4.1425502e-01   5.8075619e-01  -3.2981094e-01  -9.9195146e-01   9.8550158e-01  -1.9578865e-01  -3.8566258e-01   6.7944438e-01   6.0618355e-01  -6.3746537e-01  -3.4615175e-01   7.7228316e-01  -4.0652516e-01  -1.5324417e-01   2.2620119e-01   5.5673034e-01   6.6362609e-01  -4.7075675e-01  -2.1762873e-02  -8.5996450e-02   5.6590391e-01  -3.2878308e-01   9.5831450e-01  -2.5288299e-01   8.4192630e-01  -1.2214907e-01   9.9614380e-01  -7.2192904e-01  -5.0591488e-01   5.0293568e-01   9.0398924e-01   7.9586448e-02  -7.6420715e-01   5.8061187e-01   2.5211444e-01   9.7843487e-01  -4.5073550e-01  -3.4383431e-01   6.7971775e-01   5.8234184e-01   7.6664924e-01  -4.2123495e-02  -5.8023503e-01   8.6058371e-01   7.3959434e-01  -4.5043441e-01   6.3871080e-01  -4.0172532e-01   7.9843026e-01  -1.6970951e-02   1.4913862e-01   7.1197173e-01   5.8622670e-01   8.6372211e-01   3.5352331e-01  -5.2148116e-01  -3.4917004e-01   7.3351392e-01  -9.6387254e-02  -4.9066461e-01  -4.7978264e-01  -4.0515652e-01   6.1465264e-01  -1.0692091e-01   5.9565155e-01  -1.9643308e-01  -6.0953781e-01  -8.1223069e-01   8.5500891e-01  -6.3671666e-01   9.5834812e-01   4.0071319e-01  -9.0026600e-01  -8.7953293e-01   7.3772215e-01   1.6797452e-01   5.4364375e-02  -7.8742456e-01   8.5546324e-02   8.6654280e-02  -1.4918989e-01  -9.8948858e-01   8.5672179e-01  -6.5362582e-01   9.9186539e-02  -9.5220054e-01   6.0738119e-01  -1.8590006e-01   5.8705748e-01  -3.9964562e-01  -6.3746308e-02  -9.8570095e-02   2.0253848e-01  -8.6150402e-01  -4.1900761e-01   6.0260505e-01   8.2449635e-01   9.1806212e-01   8.8063585e-01   2.9798527e-01   2.4621093e-02  -6.7195972e-01  -5.0637058e-01   4.1222771e-01   4.0281581e-01  -8.7771711e-01   2.0753174e-01  -3.4918044e-02   4.4244523e-01  -5.7590848e-01  -7.5463205e-01  -8.9769056e-01   9.4982527e-01  -3.1213130e-01  -2.3066087e-01  -8.1302075e-01   5.6096842e-01   9.7762183e-01   7.0440957e-01   4.5583658e-01  -1.1958159e-01  -1.5010606e-01  -6.5323129e-01  -8.6477398e-01   1.2975259e-01  -8.9615323e-01   5.4288988e-01   7.6760726e-01  -5.3571627e-01   2.4185821e-01  -7.3455200e-01  -2.7904899e-01   4.7816362e-01   2.3245834e-01   7.7301837e-02   7.9303747e-01  -8.2927349e-01  -1.8099609e-01  -4.0635179e-01   9.1235214e-01  -2.7253979e-01   2.1929944e-01   4.6887367e-01  -8.8867525e-01  -2.9346171e-01   5.5335980e-01  -1.7378703e-01   2.1316980e-01  -5.5022470e-01   6.7785880e-01   6.4074624e-01   4.0514881e-01  -4.2363019e-01   8.2035445e-01   5.3312752e-01   1.9078878e-01  -7.1175533e-01  -4.9498829e-01   7.8576446e-02   6.6343983e-01  -9.0444460e-01  -9.1633124e-01   8.3805817e-01  -6.0751690e-01  -6.6246071e-01  -9.1007095e-02  -1.1671243e-01   3.6394849e-01  -8.9021711e-01  -8.3125990e-02  -8.3643258e-01  -3.7824263e-01   8.8601877e-01  -9.5898877e-01   9.6379346e-02  -3.9799786e-01   6.6846566e-01   2.1521021e-01   5.5530002e-01  -3.5586309e-01   9.0551772e-01   9.0389553e-01   1.8011960e-01   3.1066026e-01   7.8490548e-01   1.7470865e-02  -2.9778745e-01   8.8643692e-01  -7.1387697e-01   1.9716040e-01  -8.0379228e-01   9.6170072e-01  -3.6611325e-01   8.4128494e-01  -4.1956777e-01   8.9655410e-01   7.4053836e-01  -6.0423493e-01  -1.7345716e-01  -2.2687561e-01  -4.6238332e-01  -7.5076766e-01   7.3068550e-01  -6.4205036e-01   2.3852881e-01  -8.3758528e-01   9.0767596e-01   1.5347878e-01  -4.6076215e-01  -5.7981738e-01  -6.0861549e-02  -6.3323011e-01   8.4373855e-01  -8.0961296e-01  -4.1140674e-02  -8.9937939e-03  -5.7498089e-01  -5.1090520e-01   6.4493360e-01  -3.6388878e-02   1.1730315e-01   2.8010659e-01  -2.0239576e-03  -5.5678015e-01  -7.8571495e-01   5.4526279e-01   1.6146225e-01   6.8032854e-01   7.3280318e-01  -3.7921302e-01  -7.3457806e-01   1.9869757e-01   3.5075469e-01   5.0948225e-01   1.4036092e-01   1.9811795e-01  -1.0554821e-01  -4.8191082e-01   7.3798821e-01  -5.9184207e-02  -2.6101135e-01  -9.8085760e-01  -2.6611056e-01   2.3022883e-01  -4.0950261e-01  -7.5942657e-01  -7.4639557e-02   5.3679065e-01   6.1922640e-01  -3.6360896e-01   4.7084354e-01  -9.9195714e-01   3.0899484e-01  -6.0885158e-01   1.6879108e-01   7.3652760e-01   1.7021357e-01   4.0668184e-01  -8.1328161e-01  -3.4044829e-01  -8.1492210e-01   7.5470849e-01   8.1424037e-01  -7.0601444e-01   9.4081251e-01   4.6377383e-01  -6.5939751e-02   5.0608125e-01  -8.2987239e-01  -7.2475768e-01  -6.8386611e-01  -4.8452285e-01   3.9218715e-01   3.4689519e-01   2.7873741e-01   3.8381299e-01   8.7847538e-01  -4.8415213e-02   8.0350838e-01  -7.2496451e-01   7.5003744e-01  -7.5432276e-01  -1.7982397e-01   9.5737802e-01   3.3952553e-01   6.7559698e-01  -8.0079054e-01   9.2419706e-01   5.2612071e-01   8.4312372e-01   9.7985332e-01   4.0709423e-01   1.9848368e-01  -2.4747881e-01  -6.6231912e-01  -6.4627660e-01   8.7698551e-01   8.4858136e-01   3.5859557e-01  -1.6152882e-01   1.3282930e-01   4.7258712e-01  -5.7717898e-01  -5.9856631e-01  -6.4230889e-01  -5.2551614e-01   6.7867474e-01   2.6230586e-01   2.9109796e-01  -2.2676791e-01  -8.4110870e-01   5.7957647e-01  -5.0157495e-01   4.3464897e-01  -8.2101699e-01  -6.5716828e-01   4.5427033e-01  -1.1438904e-01  -1.1267346e-01   7.7779217e-01  -1.1040102e-01   3.3558495e-01   8.8938425e-02   9.6035665e-03   1.6756869e-01   8.5280791e-01  -3.1897657e-01   8.2972417e-01  -2.7605684e-01   2.0392266e-01   6.5545245e-01   8.7051876e-01  -4.7206728e-01  -6.1024247e-01  -8.4253337e-01  -9.6666375e-01   9.5645406e-01  -5.3068405e-02   2.4864494e-01   5.5285221e-01   6.0427963e-01   1.3726969e-01  -4.2894648e-01  -8.9216083e-01   6.1074962e-01   1.7242337e-01  -3.4448369e-01  -2.7587880e-01   7.3358929e-01  -5.6151113e-01  -8.9956830e-01   9.4666506e-01   6.5558895e-01   1.8483984e-01  -4.4543953e-01  -5.7601620e-01   1.3152961e-01  -6.8508950e-01  -9.5920636e-01   4.8932153e-01  -6.9162818e-01   9.9775669e-01   5.1231658e-01  -1.3480287e-01   2.3709617e-01  -3.4746500e-01   3.7758748e-01   4.7301409e-01  -8.5554720e-01   8.9986859e-01   5.6417838e-01  -6.4741108e-01  -2.0996541e-01  -7.6468187e-01  -7.7520825e-01  -3.3856718e-01  -5.7626650e-01   2.8605864e-02  -3.0749482e-01  -7.6246207e-01  -7.7210078e-01  -9.3322435e-01  -4.5366526e-01   1.9042009e-01  -5.2600687e-01  -7.1481764e-01  -4.8325481e-01  -3.1185932e-01   2.4984214e-01  -8.6410581e-01   8.2575237e-01  -3.8701765e-01   8.5007559e-01   8.7266299e-01   8.2594642e-01  -8.2851418e-01  -2.4895856e-01  -5.9417524e-01   5.9545669e-01  -1.5631278e-02  -1.1170607e-01   2.1186605e-02  -6.9258529e-01   6.2596609e-02   5.0518125e-01   6.2355942e-01  -3.4517547e-01  -7.2749398e-02   7.5877701e-01   8.3152387e-01   9.9813867e-01   4.1912733e-01  -9.6793751e-01  -6.1542356e-01  -2.3339717e-01   2.9432984e-02  -8.2757257e-01  -8.7575798e-01  -6.3346119e-01  -6.4045794e-01   3.1181598e-01   5.1129902e-01   1.0009486e-01  -9.6894717e-01   3.3770054e-03   1.0999823e-01  -5.6243148e-02   8.8260248e-02   2.8716213e-01   4.3631279e-01   6.5153340e-01  -7.0164637e-01  -2.8352012e-01  -4.1343460e-02  -9.8875651e-01  -2.2731981e-01  -5.3898691e-01   8.4855591e-01  -9.4418582e-01   7.5517581e-01   2.9095352e-01   4.5250152e-01  -6.4260833e-01   1.4447259e-01  -4.6711729e-01   3.3473712e-01   6.7762509e-01   6.4546286e-01  -9.6954304e-02   3.7172794e-03   1.9075410e-01  -8.8716942e-01  -4.3534064e-01  -9.9511206e-01  -5.5265631e-01   5.3612914e-01  -1.5219742e-01   7.1352478e-01   1.1175947e-01  -3.8989293e-01   9.6728993e-01   1.1027619e-01  -6.7316141e-01   4.9716609e-01  -1.1968123e-02  -8.9357304e-01  -9.0615574e-01  -9.4035384e-01   4.9267861e-01   2.2494040e-01   5.5956424e-01   3.4976614e-01   6.2492921e-01   2.1063283e-01  -8.2642960e-01   2.6348735e-01   5.2173529e-01  -3.5460337e-02  -9.0926419e-02   5.2729971e-01  -4.9664385e-01   3.4013081e-01   5.4267259e-01  -3.4148127e-01   7.7300587e-01  -5.5705665e-01  -2.9206793e-01  -6.5809901e-01   5.5329168e-01  -6.7076941e-01   8.7546681e-01  -2.8621255e-01   9.5678017e-01  -6.0090102e-01   9.7766142e-01   3.8138762e-01   3.5616424e-01  -9.8054415e-01   6.8662897e-01  -5.1022556e-01   8.9221830e-01   6.5904010e-02   9.9964502e-01  -8.9846131e-01   6.2059146e-02   1.1049967e-01  -4.2199486e-01   6.4331905e-01  -6.0782117e-01  -7.3049574e-01  -9.8782057e-02   2.9693017e-01  -7.1347712e-01  -3.5114952e-01  -7.2452557e-01  -2.1561027e-01  -7.9689650e-01   4.4542161e-01  -6.0663723e-01  -6.6495444e-01  -9.5212384e-01   8.4107711e-01   7.3517679e-02   3.9718359e-01  -1.4626982e-01   5.4576537e-01  -6.4214149e-01   7.8924151e-01   1.3752330e-01  -3.9974720e-01  -8.1496402e-01   3.4097232e-01  -3.2188341e-01   1.5204488e-01  -2.1951779e-01  -4.9621939e-01   4.2836318e-01  -3.9055248e-01  -3.3356646e-01   4.1450693e-02   8.1793935e-02  -1.0815436e-03   9.6926978e-01   6.3010586e-01   7.2400922e-01  -5.3984384e-01   9.9393782e-01   9.8416861e-01   7.7926440e-01  -6.2289109e-01  -9.0149708e-01   8.4566087e-01   1.8459238e-01   6.5940716e-01   9.4335467e-01  -6.1552156e-01   4.0629362e-01   3.8793708e-01   4.9882265e-01   2.7633392e-01   9.0536413e-01   5.0041591e-02   7.8576720e-01  -6.4079300e-01   4.4533777e-01   1.5875422e-01  -2.8122676e-01  -1.5706908e-01  -3.7406297e-01  -4.9112900e-01  -2.8408205e-01  -7.8401019e-01   1.5650513e-01  -7.4092707e-02   6.1290494e-01   7.6700773e-01   6.8394261e-01   8.0826813e-01   1.5679241e-01   1.9319884e-01  -9.2517573e-01  -2.4422723e-01  -4.9825577e-01   7.2658225e-01   5.3856035e-01  -7.6203289e-01   1.7361230e-01   1.5198525e-01   6.5726684e-01  -5.2501003e-01   4.3565189e-01  -6.6065042e-01  -1.3461603e-01  -8.4134049e-01   3.0297210e-01  -9.9724319e-01   6.6008610e-01  -8.0768473e-01  -4.9142834e-01  -6.5719469e-01   7.8109665e-01   5.6665590e-01  -8.5975623e-01   6.6187373e-03   4.7490460e-01   9.0854483e-01   7.9047301e-01   8.2322820e-02   6.0718794e-01  -3.4159971e-01  -2.1197914e-01  -9.3859215e-01  -3.0098492e-01   7.9204600e-01   3.6334258e-01  -2.2141243e-01  -5.7667702e-01   5.5372867e-01   7.8335490e-01  -2.2832729e-01  -6.9523763e-01   3.6935396e-01  -8.2979840e-01   1.8715860e-01   1.9076335e-01   8.8482173e-01  -8.9289454e-01  -5.9791698e-02   5.3465789e-01   8.5965746e-01  -8.1781722e-01  -3.3192565e-01   8.9922167e-01  -1.1060072e-01   5.8554118e-01
