   2.6984931e-01   7.6003944e-02  -8.8441304e-01  -7.3785672e-01  -3.5409816e-01   1.3893682e-02  -7.4763946e-01  -5.2611573e-01   8.5867379e-01   1.1816168e-01   6.8250204e-01   9.5175537e-01   1.1739507e-01   7.1687404e-01   5.6855513e-01   5.3896355e-01   2.2971632e-01  -4.3615291e-01   7.7847385e-01  -9.2129746e-01   3.3702848e-01   1.6702250e-01   1.8035709e-01  -8.0460437e-02   6.0027158e-01   8.1519256e-01   9.7528854e-01  -9.6615469e-01  -2.0828178e-01   5.2592898e-01  -6.5710112e-01  -2.8849678e-01   3.7090792e-01  -7.3657545e-01  -1.4802065e-01   5.4227006e-02   8.8569482e-01  -4.4781986e-01   4.8734636e-01   1.0879457e-01  -5.0803069e-01  -4.7083189e-01   3.4949981e-01   4.1107924e-03  -2.9187663e-02  -8.5648769e-01   6.4932675e-01   7.4486393e-01   7.6921701e-02  -4.0659317e-01  -2.8883993e-01  -8.1841563e-01   6.0465388e-01   5.0543736e-04   3.8634514e-01  -6.3068138e-01   1.2143228e-01  -5.6107984e-01   3.5038846e-01  -6.0274633e-01  -9.4560593e-01  -5.3914205e-01   8.0408789e-01   4.9572458e-01  -6.0079206e-01   2.8593656e-01  -3.4532256e-01   9.2015163e-02  -6.8712571e-01  -2.8594732e-01  -3.8332007e-01  -9.8858794e-01  -6.2196320e-01  -7.6609076e-01   4.2361202e-02   9.9841595e-01  -3.9857189e-02  -9.6383998e-01   8.6959659e-01  -6.6339576e-01   7.2985312e-01  -4.5343329e-01  -6.0884882e-01   1.3308605e-01   6.5810387e-01   1.8771063e-01   4.1164452e-01  -3.1540431e-03  -3.9026863e-01   2.3018733e-01  -6.4152244e-01  -8.1382478e-01   1.2663504e-01   5.9879828e-01   4.2164148e-01   4.8547846e-02  -7.6121746e-01  -9.2394907e-01  -5.8360097e-01   4.8732235e-01  -7.0422098e-01  -7.0335726e-01   2.9257118e-01   6.4252214e-01  -4.5918355e-01  -7.1392992e-02   8.4928551e-01  -3.9835748e-01  -4.5844294e-01   2.8890290e-01   4.1019845e-01  -8.3683727e-01  -2.4789742e-01   5.7067828e-01   4.9177033e-01   1.2327845e-01   9.3974530e-02  -9.4490486e-01  -1.3597990e-01  -2.4460161e-01  -9.8513642e-01  -9.7575140e-01  -8.7143823e-01  -2.1511450e-01   8.5697639e-01   6.2309539e-01   4.4400347e-01   1.6963495e-01  -4.2966333e-01  -7.6445806e-01  -8.9997316e-01  -4.6499970e-01  -7.5725447e-01   8.9768940e-01   9.8277346e-01  -6.8323785e-02  -1.1607886e-01   9.8169169e-01  -1.0578058e-01   2.1029018e-01  -3.1076737e-01  -4.4010880e-01  -5.2172343e-01   3.3861024e-01   6.0220384e-01  -1.8060561e-01  -4.6718834e-02   7.8093805e-01   2.4354710e-01   5.7021304e-01  -7.0020708e-01   4.5279976e-01   8.4737465e-01  -5.4334849e-01   3.8643848e-01  -3.9929079e-01   3.1489265e-01   6.9693281e-01   8.7597952e-01  -2.7860207e-01  -2.7417433e-01   3.5169662e-01  -4.1730995e-01  -1.1811828e-01   1.7064844e-01   2.8408614e-01   1.8116958e-01   7.9537230e-01  -1.1817564e-01  -2.4873617e-01  -7.2594301e-02   4.3997590e-02  -3.6671546e-02   4.6391755e-01  -3.2984498e-01  -9.1452067e-01   9.6895301e-01   1.9521638e-01   9.1125654e-01  -3.5156305e-02   6.6563305e-01  -8.4311170e-01   1.1459873e-01   1.2153042e-01  -3.6901323e-01  -6.1216258e-01  -5.9356561e-01  -9.3223413e-01   2.7039268e-01   1.4627537e-01  -5.7898752e-01   6.3910661e-01   6.5626214e-01  -4.7930900e-01  -3.8376425e-01  -9.5846838e-01   2.1116992e-01  -5.5197949e-01  -7.9649264e-01   2.9936177e-01   3.1523854e-01  -2.7381912e-01  -5.2979097e-01   1.4086872e-01  -4.2157328e-01   5.2788576e-01  -6.2548873e-01  -4.0683339e-01   8.9177179e-01   9.3487554e-01   8.3099851e-01   5.0144718e-01   7.3121857e-01   7.6944280e-01   9.6265754e-01  -4.9030784e-01  -7.2890966e-01   6.2149565e-01  -2.5571334e-02  -2.7534322e-01  -3.6043723e-01   3.3045473e-01   5.1087689e-01   2.3089497e-01  -1.2319911e-01   1.3514950e-01   5.9200873e-02  -9.9087912e-01  -8.0957186e-01  -4.4445146e-01   3.7492648e-01  -1.7163316e-01  -6.5749506e-01   2.4865200e-01  -9.1418335e-01   6.1184828e-01  -4.8159974e-01  -4.5769817e-01   5.9968337e-01   7.6094198e-01  -1.4211964e-01  -4.5242477e-01  -8.1106670e-01  -7.7784004e-02   8.5243222e-01  -6.6280057e-01  -3.6505585e-01  -9.3152632e-01  -1.3476201e-01   8.9458656e-01  -5.0843656e-01  -1.7965115e-01  -2.6733015e-02   7.9915991e-01  -4.5452991e-01  -6.5354258e-01  -2.9075579e-01   8.9746546e-01   1.9354482e-01   7.2006920e-01  -6.9029192e-01   8.4017737e-01  -6.1046812e-01  -7.0204535e-01   9.6307192e-01   8.4932382e-01   4.5660976e-01  -7.7777225e-01   4.0281775e-01  -6.3919308e-02  -2.4650970e-02  -2.3806523e-01  -4.7080803e-01   9.6580091e-01   6.4638947e-01  -9.8354811e-01  -3.0250142e-01  -5.7007725e-01   2.6675490e-01  -6.6657672e-01  -4.2738274e-01  -3.4171563e-01   3.9550418e-01   7.2290485e-01   4.0686667e-01  -5.5559096e-01  -3.0540187e-01  -8.4894715e-01  -7.8342119e-01  -9.8912231e-01   7.1158506e-01  -8.5595340e-01  -3.5959849e-02   7.7143101e-02  -7.0748203e-01   9.2387710e-01   2.9651813e-01  -4.1885020e-01   3.3748666e-01  -2.9356319e-01  -8.7635257e-02  -2.8602818e-01   4.4992110e-01   5.6856612e-01  -4.8142225e-01  -7.7768455e-01  -4.1371467e-01  -3.1579870e-01  -1.0124556e-01   3.9182470e-01  -5.6787008e-01  -4.5800646e-01   5.3247041e-01  -7.5913105e-02  -9.5958056e-01  -3.2065528e-01  -6.6465331e-01  -5.9348687e-01   4.6752764e-01   4.9182429e-01   8.0946172e-01   4.2988937e-01  -5.4803833e-03   5.8065885e-01  -1.1601326e-01  -4.3965693e-01  -1.6615846e-01  -4.4891550e-02   9.1422153e-01  -3.2373383e-01  -2.4314426e-01   2.6442420e-01   4.3645951e-01   9.2597147e-02  -5.6244151e-01   6.1323094e-02  -6.2608841e-01  -6.2962843e-01  -4.7463912e-01  -3.2529034e-01  -9.7267117e-03  -9.8071164e-01   5.3241286e-01   4.4491403e-01  -2.7434063e-01  -1.6330128e-01  -5.7639595e-01   4.1405538e-01  -1.9552583e-01  -7.2892500e-01  -7.9116927e-01   9.1924162e-01  -7.5953970e-01   8.3997717e-01  -5.8380403e-01   7.2289681e-01   6.0892750e-01   9.6060813e-01  -8.4510469e-02  -6.4377313e-01  -2.0924741e-01   4.4425573e-01  -9.0673466e-01   1.0446408e-01  -7.1571437e-01  -9.8692595e-01  -5.3147016e-01   3.2040447e-01   9.2853330e-01  -8.7670187e-01   9.7121087e-01   1.4603066e-01  -6.7248656e-01  -5.8679167e-01   6.7268341e-01   4.3771818e-01  -3.3228020e-01   5.4797671e-01   8.8320581e-01   7.4279770e-02   1.8430948e-01   8.2667251e-01   9.4699720e-01  -2.9088904e-01   2.8041938e-01  -4.0093389e-01   4.3955354e-01  -9.6950563e-01  -4.0664060e-01   3.5356492e-01   8.7032994e-01  -8.8671750e-01  -9.6698598e-01   5.1539036e-01  -6.6423443e-01   8.1760193e-01   7.8816303e-01  -4.0989235e-01   6.4765913e-01  -7.1909642e-01   6.4296410e-01   4.1146909e-01   3.0429752e-01  -4.9919953e-01   1.7358783e-01  -1.2291808e-01  -9.6020110e-01   8.0769055e-01  -6.9540146e-01  -3.8829108e-01   5.7771998e-01   6.3723292e-01   8.5494878e-01   6.0410590e-01   4.0947510e-01   7.5387658e-02  -7.6144915e-01  -3.6245471e-02   7.4081934e-01   6.4968758e-01  -2.7539588e-01   3.0252164e-01   6.9262397e-01  -6.5724569e-01  -4.1707327e-01   3.8215267e-01   1.6617887e-01  -4.9291658e-01   7.4405441e-03   2.9305756e-01  -5.1813941e-01   6.1137739e-01  -5.6785332e-01  -7.2185964e-01  -7.7997167e-01  -9.6821133e-01  -4.9708494e-01  -9.7572242e-01   8.5049153e-01   2.2775688e-02  -3.6168655e-01  -8.4326756e-01   2.2189906e-01  -8.5954881e-01   3.0776766e-01  -6.0726962e-01  -4.1763690e-01   3.8946434e-01  -5.9624103e-01   5.2677564e-01  -5.1977630e-01   9.8137660e-01   1.4935051e-01  -8.7924824e-01  -8.5230031e-01  -2.4023586e-01   3.5337855e-01   3.1748720e-01  -3.7999961e-01  -9.2130243e-02  -9.2551245e-01  -1.5548102e-01   7.9465202e-01   1.3911239e-01   5.6323946e-01  -9.8335005e-01  -6.8829335e-01   9.4630156e-01  -6.0499212e-01  -9.1401221e-01   3.2318931e-01  -4.9258965e-01   2.1968227e-01  -8.3806935e-01  -4.2418206e-01   7.5097417e-01  -6.2841820e-01  -7.9252837e-01   8.4201458e-01  -2.6951347e-01  -3.1748038e-01   7.9303821e-01   1.6383917e-01  -5.6056270e-01   3.7250654e-01   8.0411722e-01   9.7572792e-02   1.9117404e-01   2.6922313e-01   6.9408917e-01   2.7001997e-02   6.4943548e-01  -6.2139488e-01   4.8255262e-01  -4.6141844e-01  -6.5893696e-01   5.5835984e-01   2.8699585e-01   9.4918372e-01   8.8832693e-01  -3.2081348e-01   5.0639666e-01   2.5254872e-01   5.2251270e-01  -3.7090241e-01   4.2128737e-01   8.0198119e-01   2.6508883e-01   9.6371300e-04  -8.6563151e-01  -5.5947876e-01   1.2499464e-01   3.5107993e-01   6.4684312e-01  -8.0970500e-01   6.9356373e-01   8.6854300e-01   1.0044193e-01  -9.6311523e-01   1.8533355e-01   5.2077103e-01   8.6366186e-01   6.4643226e-01   7.2990549e-01  -6.3732218e-01  -9.4590310e-01   1.4170321e-01  -5.6269159e-01  -4.4784505e-01  -9.5028091e-02  -9.6898171e-02   7.8431064e-01  -2.5764082e-01  -7.4875844e-01   4.9531386e-01  -2.8026899e-01  -9.3031745e-01  -1.5544905e-01  -3.7006020e-01  -9.8739303e-01  -7.4653219e-02   6.5916157e-01   3.3367063e-01   1.5963112e-03   1.5759784e-01  -8.5202830e-01   5.1339327e-01  -8.9043393e-01  -2.9029069e-01   1.3790732e-01   1.2702260e-01   8.9902061e-01  -4.6528549e-02   7.7311565e-01   4.4533149e-01   7.6591494e-01  -7.3098706e-01  -5.4662253e-01  -5.1718253e-01   9.4682128e-01   2.8861859e-01   9.2384511e-02  -2.8442300e-01   1.3734594e-01   9.2142632e-01  -2.8596869e-01  -6.9778622e-01  -3.1276533e-01  -2.3404144e-01   5.2337098e-01  -6.1103052e-02   8.9504412e-01  -6.6762992e-01   3.7483856e-01   1.2150934e-01   3.2145636e-01   7.2537840e-01  -2.7987467e-01  -5.2575076e-01  -7.8022642e-01   7.3650598e-01  -2.9930553e-01   8.8515513e-01   9.0460928e-01  -5.2787629e-01  -7.7685338e-01  -7.7706691e-01  -1.9431327e-01  -3.4782375e-01  -3.2306749e-01   6.5537403e-01   9.0029876e-01  -8.0212149e-01  -2.0109333e-01   8.1455607e-01   7.0543583e-01   2.8294338e-01  -5.4635557e-01  -8.3803293e-01  -3.5690943e-01  -1.6605239e-01  -1.7485186e-01  -9.9321205e-01   7.5832913e-01  -7.1491124e-01   2.9252281e-01   3.1554218e-01   8.4044968e-03  -3.5298885e-03   3.6799448e-01  -2.3472242e-01   8.0911863e-01  -1.0846986e-01  -1.3715538e-01  -8.5654915e-01   2.1944157e-01   3.4835692e-01   4.7267791e-01  -2.1178003e-01  -5.1173241e-01   5.0175078e-01   2.7462393e-02   6.4750165e-01  -6.0944460e-01   6.3180570e-01   4.8874811e-02   7.5117114e-01   4.6631182e-01  -2.4576747e-01  -9.5365687e-01  -3.8448183e-02   9.3816185e-01   7.5785718e-01  -5.3097148e-01  -1.2869004e-01  -2.7242464e-01   6.2535128e-02   5.7128759e-02  -6.9158606e-01   6.8129414e-01  -7.1149647e-01   8.1955517e-01  -6.9052682e-01   6.6418459e-01  -7.0148352e-02   7.6705539e-01   2.9589672e-01   6.9107157e-01   2.5317617e-01  -7.9818616e-01   1.9413585e-01  -1.3244377e-01  -3.2024405e-01  -1.3443829e-01  -8.8548879e-02  -5.2078055e-01  -5.6843720e-03   3.3886054e-01  -3.5065406e-01  -4.3105001e-01  -9.7602935e-01   7.9140720e-01  -3.9734469e-01  -5.3551537e-01  -7.0909949e-01  -1.8318608e-01  -7.4311729e-01   6.9007272e-01   1.8806060e-01   9.5531328e-01   7.0019580e-01   9.2329652e-01   3.9482616e-01  -2.4938940e-01   1.2046641e-01   4.5004191e-01   5.7591484e-01   1.0163530e-01  -6.9835972e-01  -4.6020300e-01   2.4363749e-01  -5.6381497e-01   1.6150084e-01   9.4030037e-01   9.7025729e-01   6.0254224e-01  -5.7193286e-01   9.7163209e-01   5.7941233e-01  -7.5261672e-01   3.2485732e-01  -8.0017926e-04   4.2037623e-01  -6.6615720e-01   7.2563830e-02   6.9147620e-01  -7.4755602e-01  -4.3168909e-01  -1.6003172e-02  -7.1398674e-01  -7.9541670e-01   2.6249607e-01  -7.5508980e-01  -3.9830717e-01  -3.9744209e-01  -8.6997099e-01   5.1533882e-01  -5.8304718e-01  -9.8992601e-01  -2.2415330e-01  -2.5543676e-01  -9.9523757e-01   4.6330049e-02   1.8964286e-01   7.6672714e-01  -5.7719016e-01   5.8587558e-01   8.8611880e-01  -8.7000575e-01  -1.7849853e-01  -2.0046478e-01   7.0882259e-01   7.5324081e-01  -1.0012485e-02  -2.5493970e-01   7.6649310e-02  -6.2551078e-01   2.6373893e-01   9.2020826e-01   6.4467931e-01  -4.3359634e-03   9.3165198e-01  -1.7923285e-01  -6.3240227e-01   5.8099828e-02  -7.2424933e-01   9.2959357e-01  -3.0384466e-01  -1.2795816e-01   6.6322714e-01  -1.4957536e-01   4.1692139e-01  -6.6546914e-01  -2.5075476e-01  -6.6138089e-01   7.9293446e-01   2.3880895e-02  -6.5902549e-01  -2.1818055e-01   5.7100940e-01   2.3648703e-01  -2.5079261e-01  -1.7297649e-01   1.3906564e-01  -4.1282510e-01  -9.1614523e-01   2.8146900e-01  -5.0099219e-01   4.9939797e-01   9.5973209e-01   8.1376670e-01   3.6029338e-01  -4.5122992e-01   1.5009668e-01   5.5036072e-02   7.5780112e-01  -8.3364372e-01  -8.8931910e-01  -6.9695549e-01   7.3251807e-01   1.1616357e-01  -3.8989491e-01   3.5302448e-01  -4.8686727e-01  -6.9994848e-01   6.0450265e-01  -4.2625444e-02   1.1535638e-01   1.4408207e-01   6.2095403e-01  -4.3736264e-01  -6.4882923e-01   7.0661840e-01  -3.0583341e-01   6.7007979e-01  -1.0718209e-02  -6.7464796e-01  -4.3335297e-01   2.6952245e-01  -7.0102771e-01  -9.3710429e-02   8.6403484e-01  -2.5889883e-01   9.7079630e-01   6.1459594e-01  -7.8258325e-02   6.1902608e-01   7.0741455e-02   7.3564850e-01  -5.0073488e-02   9.5597907e-01   1.3597141e-01   8.0415424e-01   4.0053477e-01   2.3662095e-01   6.2639971e-01   4.7796816e-02  -2.4447929e-01  -1.1836310e-01  -7.5277920e-01  -4.9412708e-01  -1.6050633e-01  -1.6032125e-01   5.3138957e-01  -4.7828021e-01  -8.8140059e-01   6.8389489e-01  -5.9060635e-01  -6.4050624e-01   4.5868027e-01  -7.3669992e-02  -1.8884182e-01   8.9762598e-01   4.7721446e-01  -1.2200596e-01   6.6509567e-01   6.7175426e-01   8.8095207e-01   7.3713388e-01   5.9354363e-03  -3.9138238e-01  -2.9693611e-01   6.5861998e-01   9.4189917e-01  -4.0523238e-01   5.4966092e-01   3.8835125e-01   7.6957456e-01   6.9155490e-01   3.5337859e-01  -4.6085674e-01   6.0996808e-01   1.1228292e-01  -1.8499738e-01  -1.9001398e-01  -2.9396332e-01   2.7750618e-01  -1.8505390e-01  -7.6479585e-01   2.0972843e-01  -2.1977055e-01   4.7092117e-01   7.4762110e-01   5.6273268e-01  -1.3729520e-01   9.9808003e-01   5.8384154e-01  -3.7089083e-01  -1.7199641e-01  -9.0834266e-01  -9.8952078e-01  -1.9827789e-01   7.8909141e-01  -7.4670819e-01  -2.8452590e-01   7.3853478e-01  -9.9209442e-02  -3.3992376e-01  -1.7423095e-01   5.9998500e-01  -1.7387241e-01   6.5203930e-01   1.1827513e-01  -6.6046414e-01   5.8434385e-01  -6.0070371e-01   1.6671964e-01   4.3994365e-02  -2.5422121e-01   1.9884301e-01  -2.8164957e-01   1.7408790e-01   5.0111027e-01   8.1526851e-01  -8.3632460e-01   7.5325429e-01   3.3052623e-01   5.3527474e-01  -9.6333843e-01   7.6296658e-01  -2.7345053e-01   2.1168330e-01  -3.3947423e-01  -7.7596883e-01   1.6480625e-01  -4.8723595e-01   6.6231279e-01  -2.1426964e-01  -5.5140398e-02  -4.8997397e-02  -8.2982152e-01  -4.0857479e-01   4.2141088e-01  -7.0485679e-01  -9.7018567e-02  -3.0487681e-01   1.8462889e-02   3.6605140e-01  -8.7001401e-01  -2.0695155e-01  -7.6102168e-01  -9.7639517e-01   6.4711189e-01  -8.8804779e-01   4.1882212e-03   8.9382189e-01   2.2409277e-01   7.4676285e-02   1.5758524e-01   6.4320020e-01   2.1667155e-01  -1.4596197e-01   3.6949635e-01  -3.6479650e-01   9.7412300e-01  -4.7785839e-01  -7.4930124e-01  -3.3833655e-01  -1.9259134e-01  -7.2943370e-01  -1.6246764e-02  -1.1675760e-01  -3.5197169e-01  -5.4206443e-01   1.7669851e-01  -3.5027562e-01  -4.7381652e-01  -2.9945919e-01  -6.6858920e-01  -8.1463870e-01  -7.9619146e-01   8.8334276e-01   8.7357331e-01  -9.7104832e-02   2.5762739e-01  -6.2764106e-01  -1.8041291e-01  -2.0594067e-01   2.9626144e-01  -2.7994288e-01   4.1769814e-01   8.2433638e-01   7.7122675e-01  -4.9578461e-01   6.6560667e-01  -1.5007353e-01  -6.0546420e-01  -4.0024975e-01   9.6847535e-01  -9.5070968e-01   9.6284749e-02   2.2334502e-01   3.0601592e-01  -8.5440662e-01  -2.9245398e-01  -7.7570113e-01   5.0676864e-01   8.1040590e-02   1.4181643e-01  -5.9908165e-01   8.4759653e-01  -8.4303866e-01  -7.5338360e-01   9.6341374e-01  -2.1090097e-01  -8.9117729e-01   1.1240225e-02   5.6312732e-01   7.9478814e-01  -1.0987980e-01  -1.0280376e-01   2.4765254e-01  -3.2817296e-01   7.0452675e-01   4.5803115e-01   8.4028135e-01  -2.2448221e-01  -8.7463470e-01  -8.3895085e-02  -4.9659012e-01   6.4747852e-01  -9.9416997e-01  -5.1329480e-01  -8.3536380e-01   3.1372007e-01  -6.8874817e-01  -3.4367295e-01   6.3026974e-01  -2.1589696e-01   3.8278540e-01
