   4.0830135e-01  -8.1269946e-01  -6.3220250e-01   7.0249526e-01   6.1366836e-01  -2.1107568e-01  -4.6141582e-01   5.6800123e-01   1.3147073e-01  -7.7824091e-01   1.7207914e-03  -8.0121615e-01  -6.4655853e-01   5.4878105e-01  -3.7020995e-01   7.9092887e-01   6.2928108e-01  -3.5326062e-01  -7.4071300e-01  -4.3379436e-01   6.2242186e-01  -7.4203537e-01   6.6517465e-01  -6.1732659e-01   7.0212240e-01   5.5710915e-01   6.7795551e-01  -9.7880882e-01   2.2771222e-01  -6.3406820e-01  -5.4301766e-01  -2.3686881e-01  -3.4714025e-01   1.7648189e-01   4.9489763e-01  -1.8930024e-01  -5.0453424e-01   6.9575500e-01  -5.5627635e-01   3.4965338e-01   5.8183163e-01  -7.2725889e-01  -6.8502687e-01  -9.1736565e-01   4.3773784e-01   4.6705359e-01  -5.5169204e-01   8.6938860e-01  -7.0394361e-01   5.7112206e-01  -5.6818384e-01   7.6091377e-01  -5.8776514e-01  -1.6087913e-01  -1.4401265e-01   7.4236336e-01   6.9513268e-01   9.4535046e-01   4.7786754e-02   9.6091442e-01  -7.3378379e-01  -8.2473423e-01  -7.7717512e-01  -9.0878142e-01  -7.4447705e-02   7.6436402e-01  -8.4309417e-01   7.8760971e-01  -2.7802142e-01  -1.7159575e-01   6.7197112e-01   3.1862137e-01   8.2039989e-01   6.7091864e-01   5.0454895e-01  -4.3876364e-01  -7.5490058e-01  -7.9863884e-01   1.1316425e-01   5.5274815e-02  -9.5920171e-01   3.4967591e-01  -6.8247011e-01  -5.5138068e-01  -1.5651547e-01  -3.7818029e-01  -7.8095152e-01   4.4186877e-01   1.1076754e-01  -3.6974322e-01  -2.4282392e-01   3.9387559e-01   2.3766232e-01  -5.9477637e-01   5.6840938e-01   4.1565144e-01  -2.5695955e-01  -5.5191504e-01   6.7053487e-01   3.1851871e-01  -9.8174315e-01  -4.3503590e-01   2.0273474e-01  -3.2490636e-01   7.0323194e-01   5.4752509e-01  -2.6887475e-01   7.8882803e-01   2.2668186e-01  -3.7736277e-01  -6.5798833e-01  -5.8843718e-01   3.2529828e-01   9.9897538e-01   5.4564428e-01  -4.0231426e-02   3.6855534e-01  -9.0290032e-01   5.9906520e-01  -6.9200555e-01  -5.8057249e-01  -5.2182968e-01   2.8521021e-01  -2.7177419e-01   6.5639172e-02  -9.4615095e-01   7.6965387e-01  -9.4165159e-01  -1.1950358e-01  -2.2260578e-01  -2.8925689e-01   8.5590915e-01  -6.2000822e-01  -3.7492598e-01  -2.5965128e-01   2.2673383e-01  -8.5367718e-01  -1.7862909e-01  -3.8700184e-01  -3.5124827e-01   8.8038483e-01   9.5574761e-01  -7.9945965e-01   6.1250146e-01  -9.2784840e-01   6.6327576e-01   1.8656109e-01   3.8363683e-01   4.7814387e-01   9.8416609e-01  -2.8277170e-01  -7.8096758e-01   4.8366453e-01  -6.8827348e-01  -3.3699922e-01  -5.5231119e-01  -8.5742223e-01  -6.0765566e-01  -6.7593409e-02  -2.8173265e-01   9.6452314e-01  -4.1457892e-01  -2.2698193e-01   4.3916264e-01   6.7814655e-01  -3.6829736e-01   1.9034596e-01  -6.8456073e-01  -7.5599749e-01  -6.4932099e-01  -8.3374170e-01  -4.8077466e-01  -4.7259493e-01   9.7613978e-01   3.1033114e-01  -8.5865910e-01   6.4168564e-01   1.9234727e-01   1.3964676e-01  -6.2158173e-01   1.1222438e-01   9.7078049e-01   1.3098408e-01  -8.6614448e-02   7.4427750e-01  -6.1333405e-01  -8.1690057e-01   8.7573541e-01  -7.3902202e-01  -1.9405951e-01  -8.7934505e-02   6.5168390e-01  -9.2081620e-01  -9.4986792e-02   4.6662839e-01   1.2572090e-02  -6.5654483e-01   9.4796601e-01   2.2018614e-01  -7.5154189e-01  -2.9843035e-01  -2.7011496e-01  -2.6112975e-01   6.7592983e-01  -9.4461007e-01   3.5741902e-01  -8.5946299e-01   8.9890312e-01   6.0031980e-01  -1.0659002e-01   8.4241623e-01   5.0180139e-01   7.8656221e-01   4.5717149e-01   8.5384689e-01   5.0213979e-02  -5.8565186e-01   8.7295230e-01  -4.1669287e-01  -4.5416275e-01  -7.9935291e-01   9.0495527e-01  -4.5373238e-01  -3.9000387e-01   9.3076724e-01  -1.1376242e-01  -2.8754650e-01   4.4916808e-01   3.9231997e-01   5.8782168e-01   1.2483748e-01   1.4467574e-01   9.0913902e-01  -4.6358451e-01   5.7034984e-01  -6.8799821e-01   2.2324375e-01  -6.9574889e-01   1.2979376e-01   6.9845621e-02   7.5015832e-01  -3.1416591e-01  -1.5777050e-01  -6.4568219e-01   1.2038435e-01   9.6036695e-01  -2.3274845e-01   7.8190465e-01   2.6719877e-02  -5.0667918e-01  -4.6068122e-01  -5.0120885e-01  -7.5037542e-01  -7.5248527e-01  -9.5683267e-01   2.0376599e-01   8.7941871e-01   8.7275757e-01  -7.4857140e-01  -1.6945057e-01  -1.0343936e-01   4.6830344e-01   9.4649589e-01   5.2596773e-01  -7.6049627e-01   9.1150045e-01   4.8709912e-01   9.2684506e-01  -2.2095407e-01   4.8559608e-01   2.7875114e-02   4.7981494e-01  -2.2930316e-01  -1.6499195e-02   5.9770710e-01   9.4179785e-01   8.1983665e-01  -3.7663957e-01   5.4463030e-01  -7.0692958e-02  -9.4477494e-01  -7.5482726e-01  -6.7703436e-01  -2.2100965e-01   4.2974355e-01   8.1586649e-01   1.8162029e-01   8.3349331e-02   9.2581881e-01  -4.4415040e-01   8.3831494e-01   2.1626448e-01  -6.9695169e-01  -6.0933612e-01  -1.6219369e-01   6.9370531e-01   2.9576611e-01   4.7787506e-01  -4.1459515e-01  -3.8759500e-01   2.9716149e-01  -8.5452703e-01   9.2553942e-01   6.9543266e-01   5.9203117e-01   8.9954327e-01   8.3479937e-01   5.6902743e-01   1.1108618e-01   6.2833057e-01   2.7039559e-01   3.1055899e-01  -2.4844785e-01   6.4925047e-01   2.1068311e-02   9.2946413e-01   1.4973166e-02   9.4595803e-01   4.1254813e-02  -3.4384676e-01  -9.1196282e-01   2.1249297e-01   9.7460352e-01  -6.2362426e-01   4.6359154e-01  -3.5856672e-01  -1.3242197e-01  -4.0950395e-01  -1.7143762e-01   4.1839288e-01  -2.7920253e-01  -2.2939111e-01  -6.5113789e-01  -8.4227614e-01   2.7331789e-01  -8.1625666e-01  -5.1662707e-01   8.7069633e-01  -7.4244338e-01   9.3255303e-01   6.8601527e-01   1.1382641e-01  -5.8795738e-01  -6.5570997e-01   6.3104808e-01  -7.6420904e-01   9.0579731e-02   2.3130474e-01  -8.8931649e-01   2.2563120e-01   6.2797163e-01   2.2127884e-01   4.8082730e-01  -3.5281025e-01  -8.8289758e-01   4.2625331e-01   1.4595158e-01  -2.1671754e-02   4.2740956e-01   3.4754358e-01   3.5323024e-01  -8.0320564e-01  -2.9328662e-01   9.1855667e-01  -4.2645265e-01   4.9393827e-01  -6.7518639e-01  -1.5580258e-01   6.0330188e-01  -9.4393168e-01   8.1212366e-01   5.7424613e-01  -9.1250439e-01  -7.6275521e-01  -2.5880435e-01   6.1570742e-01  -9.3938156e-02   5.3748920e-01  -7.2894767e-01  -9.0340774e-01  -2.9925231e-01   1.0917734e-01  -6.7634288e-01  -7.1489239e-01  -7.8728599e-01  -7.1208615e-01   5.3194914e-01  -2.0561021e-01  -1.6960516e-01  -4.5341036e-01  -5.2710953e-01   3.1398326e-01  -1.4098463e-01   9.1422277e-01  -7.4506138e-01  -7.4849641e-01   9.1166573e-01   5.9920026e-01  -5.8194695e-01  -4.4326460e-01   5.9919548e-01  -2.7416034e-01  -2.5354578e-01  -7.2262681e-01   1.7567527e-01  -9.1671412e-02   3.8617277e-01  -3.2401329e-01  -4.9979840e-01  -2.0573579e-01  -2.2390948e-01   8.5415994e-01  -5.9606999e-01  -4.8482677e-01   3.6211379e-01  -2.4117261e-01   7.0106446e-01  -4.3146012e-01  -5.4850891e-01  -4.0545059e-01   5.9973528e-01  -4.5898357e-01   4.3624100e-01  -8.5372949e-01  -7.8502614e-01   1.5050932e-01   7.0937024e-01  -6.6936354e-01  -2.9990432e-01  -2.1013653e-02   9.3289198e-01   7.1729300e-01  -8.4232216e-01   6.7150463e-01   1.4973674e-02  -8.3740388e-01   6.6245938e-01  -7.3134847e-01   5.0448492e-01  -5.6653329e-01  -6.0507579e-01   2.6852540e-01  -8.3553072e-01  -4.1890905e-04  -1.3438305e-01   2.1356766e-01  -7.8234199e-01  -8.7953549e-01   3.2339300e-01   2.4561953e-01  -4.9123492e-01   3.6840265e-01  -8.6997507e-01   9.0316996e-01  -3.9967326e-01  -8.7301850e-01   2.4177984e-02  -5.2066296e-01   3.0599353e-01  -6.0376039e-01  -9.8152693e-01   9.8811238e-01  -6.1158184e-01  -5.1842611e-01   5.6910349e-01   5.9342002e-02  -3.0113485e-01  -5.1406183e-01  -9.6570001e-01   6.7039095e-01   3.1612897e-01  -5.6353774e-01  -5.7399301e-01  -3.2072590e-01   3.9219615e-01  -9.5196437e-01  -7.9595050e-01  -9.1332239e-01  -9.4693680e-01   5.8442553e-01   7.3574658e-01  -7.3208320e-01  -8.0825243e-01  -7.0159819e-01  -3.6997176e-01   9.8607853e-01   1.2787074e-01  -6.2709495e-01   9.1292387e-02  -6.4495065e-01   5.8057425e-01   8.8650764e-01  -3.4846625e-02  -1.1829422e-02   6.6022402e-01   6.1252679e-01  -8.2596669e-01   4.4816100e-01   2.5564160e-01   3.7728729e-01   8.6124877e-01  -6.6848026e-01   4.5663565e-01   4.1704207e-01  -6.9810647e-01   8.6016646e-01  -7.0137117e-01   7.8162120e-01   4.0693904e-02  -7.6657192e-01  -1.7694899e-01   2.9141690e-01  -6.6779856e-01   1.6282157e-01  -1.0277394e-01   3.4869702e-02  -7.4454975e-01  -8.4198593e-01  -8.6457697e-01   2.2779509e-01   5.1257089e-01  -1.0996016e-01   4.2753979e-01   4.6652671e-03  -8.6548736e-01  -5.5168691e-01   8.3752211e-01  -3.9982887e-01   2.9319076e-01   1.4677858e-02   7.5139553e-01   6.8361512e-01   7.0531470e-01  -5.7401172e-01  -7.5874128e-01  -4.6706164e-02   4.0045874e-01  -2.7164813e-01   7.2779822e-01  -6.0303591e-01   3.2241549e-01   4.8483165e-01   8.8248812e-01   9.9400692e-01  -1.0540557e-01  -2.9988233e-01  -2.0955953e-01   2.6820786e-01   9.5972703e-01  -8.6906656e-01  -2.2890133e-01  -6.4606884e-01  -9.1623931e-01  -8.3806159e-02  -1.2683697e-01  -3.4293942e-01   3.6935977e-01  -3.5866096e-01   8.3537532e-01  -1.8844547e-01   6.4045899e-01   5.4207081e-01   1.1495802e-01  -2.9155474e-02   7.9152381e-02   7.0474080e-01   7.4031427e-01  -1.9387972e-02   3.5203777e-01  -5.2878470e-02  -9.4750428e-03   2.9155690e-01   7.8202374e-01   6.1851549e-01   9.8149840e-01  -1.7293959e-01  -1.2383585e-01  -9.4789055e-01  -8.6344617e-01  -2.6828132e-02  -3.8536074e-01   9.7684031e-01  -6.2577691e-01  -9.6743267e-01   6.5209690e-01  -1.7174315e-01   1.8379027e-02  -7.6065508e-01   8.0552639e-02   6.5647362e-01  -1.5280242e-01   7.9646650e-01   1.1654226e-01  -1.1698070e-01   1.5034395e-01   5.6074656e-01  -1.8132981e-01   5.6432048e-01  -1.5175492e-01   1.4979286e-01   7.6787022e-01   7.1615130e-01   9.3556415e-02  -1.8423680e-02   5.3934066e-01   4.1535025e-01  -8.9772778e-01  -5.5075708e-02   5.8238670e-01  -8.2179399e-01   9.8783327e-01   4.1995943e-02   7.7071053e-01   1.5366962e-01  -1.8560023e-01  -6.3989139e-01  -6.9681082e-01   1.0294357e-01   6.8255410e-01  -9.9352095e-01  -1.0916915e-02  -2.4161167e-01  -6.2988416e-01   2.9331191e-01   9.4624684e-01   7.8886555e-01  -7.2629294e-01  -1.0697240e-01  -8.0288435e-01   2.6728693e-01   4.9409739e-01   4.3619762e-01   5.3558655e-01  -4.4213301e-01  -5.9843178e-01  -3.7757359e-01   4.6327272e-02   6.4820739e-01   5.3081629e-01  -6.4524006e-02   6.6281490e-01  -1.7530508e-01   5.6593978e-01  -5.3028374e-03  -3.7277030e-01  -8.5685785e-01  -4.1169111e-01   1.9444869e-01  -1.4566302e-03  -4.0914911e-01  -4.3320615e-01  -6.2058504e-01  -1.1917464e-01   8.3550109e-01   4.4640889e-01   3.7453456e-01  -6.0761137e-01   3.4741530e-02  -2.3283656e-01  -6.2680741e-01   2.9065320e-01   7.8888022e-01   7.2764914e-01   8.7634195e-01   7.6457533e-01   4.9664764e-01  -3.3039246e-01   5.4679102e-02  -9.3110073e-01  -3.8556528e-01  -1.2213888e-01  -2.8739671e-01   8.2898017e-01  -3.9925793e-01  -2.1472596e-01   5.4298265e-01   2.6033594e-01   3.5725957e-01   3.7678546e-02  -2.0679784e-01  -9.6209650e-02   9.8029518e-01   9.5141105e-01  -3.4254534e-01  -6.2723542e-01   6.0812582e-02   7.0723146e-01   4.4406596e-01   3.9638680e-01  -7.4908057e-01  -7.9403955e-01  -5.0065417e-02  -3.0571283e-01  -1.5959380e-01  -5.0179745e-01   7.6558674e-01  -8.2013610e-01   2.0786044e-01  -3.1287191e-01   8.3472573e-01   5.9189815e-01  -5.5454850e-01  -5.7906304e-01  -1.6831286e-01   9.2281853e-01  -6.6001347e-01  -1.6063322e-01   2.6784448e-01  -1.8104807e-01  -2.2201250e-01   2.8741121e-01   1.6052308e-01  -3.6311698e-01  -9.5790940e-01  -8.6461133e-01  -4.3705857e-01  -8.2443983e-01   6.8067035e-01  -7.1870007e-01  -3.4868459e-01  -7.5664783e-01  -3.3273738e-01   6.7007824e-01  -8.5319581e-01   3.8393857e-01  -4.7310749e-01   4.2973790e-01  -3.7719850e-01  -1.6455106e-01   1.6058080e-01   6.4143010e-01  -8.8515421e-01  -9.8524849e-01   4.8796300e-01  -4.7482837e-01   9.4602623e-01  -6.4086493e-01   4.6365885e-01  -4.5247239e-01  -9.3309790e-01   4.1280007e-01  -8.3315149e-01   8.6183225e-01  -1.3224233e-01   6.0309032e-01  -7.5880447e-01   4.6022833e-01   6.6892565e-01  -3.5215960e-01  -7.0758105e-01   5.4101266e-01  -8.4361328e-01   2.2616906e-02   6.2061507e-01   3.5000840e-01   4.3739042e-01   3.0871355e-01  -3.9962910e-01  -2.6185861e-01  -2.9834465e-01   8.7329932e-01  -2.0815550e-01  -7.1699174e-01  -7.3660067e-02   8.5050075e-02   8.8561758e-01  -9.6926292e-01   7.2286210e-01   7.8079918e-01   8.2622623e-01   5.5324517e-02  -3.4282953e-01  -9.0799136e-01   4.3114087e-01   7.4343014e-01  -6.0495514e-01   3.3044909e-01  -2.0316057e-01  -4.7332245e-01  -2.5326370e-01   4.6636817e-02  -8.6907859e-01  -4.6518360e-01  -2.4407935e-01  -4.2448791e-01   9.4881495e-01  -2.5665957e-01   5.6874809e-01  -8.0908130e-01  -2.0859953e-01  -4.5501165e-01   3.1013195e-01  -3.7955147e-01  -8.4098438e-01  -7.9871274e-01   2.9189450e-01  -3.4228287e-01  -8.1399592e-01   7.4332124e-01   7.9774999e-01  -8.9234124e-01   3.7676500e-01  -8.0650091e-01   4.6245161e-01   7.7823701e-01  -4.2436661e-01   6.5390587e-01  -3.1465437e-01  -8.3004777e-01  -2.6166850e-01   8.6162869e-01   1.9611397e-01   9.7340061e-01  -8.7619912e-01   6.9630912e-01   5.9387697e-01  -8.3071178e-02  -6.5818274e-01  -2.6824730e-01  -7.4790338e-01  -9.8838306e-01  -1.1079288e-01   4.7126132e-01  -6.7165454e-01  -3.8697162e-01  -2.8487875e-02   2.9517571e-01  -5.1797519e-01  -9.4974423e-01   1.0304918e-01  -8.8595489e-01  -1.5262747e-01   3.8049067e-01   4.7402695e-01  -7.6487591e-01  -5.7507197e-01   6.3938748e-01  -5.1447798e-01  -7.5433665e-01  -7.3855334e-01   4.6698256e-01   2.5620376e-01  -6.7698929e-01  -7.3311323e-01  -3.1185314e-03   8.0245116e-01   3.9340203e-01   9.7278589e-01  -8.3749336e-01  -6.4367501e-01  -3.2726154e-01   3.3409064e-01  -9.2237922e-02   2.6007096e-01  -2.8755690e-01  -7.2409098e-01   5.5628879e-01   1.5986375e-02  -9.8394596e-01  -9.5868195e-01   6.8424730e-01   5.6315606e-01  -4.8566421e-01  -1.8099700e-02  -9.3047960e-01   3.0400969e-01   3.2804443e-01  -9.7266257e-01   7.5043243e-01  -8.5070536e-01   9.2851267e-01  -1.5554281e-01  -3.5627954e-01  -3.2235836e-01  -4.9294972e-01  -9.8418627e-01   3.5938469e-01  -5.0451329e-01  -3.9322197e-01   2.5676822e-02   7.0899433e-01  -4.8220964e-01   8.4695336e-01   7.3227681e-01   4.4392822e-01  -5.5289912e-01  -2.7538418e-01  -8.1149582e-01   1.4139436e-02   7.0307477e-01  -3.1765794e-01  -5.3954302e-01   5.2816453e-01   7.0835403e-01  -8.2850053e-02  -1.5684734e-01  -1.3986898e-01  -3.9561380e-02   6.2014367e-01   8.4098272e-01  -1.4487496e-02   8.9570458e-01   6.5991995e-01  -7.9574671e-01  -6.8383131e-01   3.3676967e-01   7.8307166e-01   1.5016582e-01   8.3178097e-02  -6.0655577e-01   7.0291242e-01  -8.7321785e-01   1.1397352e-01  -4.5669221e-01   6.5758074e-01  -1.5736651e-01   5.3850689e-01  -7.2283391e-01  -1.6259270e-01  -5.7365807e-01   1.9673958e-01  -6.1646317e-01   7.4551196e-02  -1.0453536e-01   8.1806470e-01  -1.4942006e-01  -3.4337399e-01  -1.0373506e-01  -1.6421348e-01  -2.6040020e-01  -1.5079974e-01  -1.3045213e-01  -2.8794228e-01   1.3670040e-01   9.7067536e-02  -5.2109222e-01   8.7577853e-01   9.8010666e-01   4.8126707e-03   1.5761527e-02  -9.2854345e-01  -2.7827107e-01   2.8604703e-01  -3.3992828e-01  -8.3353436e-01  -4.9058438e-01  -3.9844188e-01   2.9310289e-01  -8.8976923e-01  -6.9563011e-01   8.0578885e-01   6.3560880e-01  -7.2130207e-01  -1.7333846e-01   8.4391389e-01  -3.5716638e-01  -7.6277597e-01   9.6064578e-01   7.8150292e-01  -7.9159896e-01  -5.5246464e-01   2.6841403e-02   2.0945216e-01  -9.6314357e-02  -9.0375002e-01   4.6351540e-01  -9.2971054e-03   1.3234501e-01   8.2237940e-01  -6.0987241e-01  -4.7741838e-01   1.2263154e-01  -7.1144560e-02  -2.9577244e-01  -8.9231664e-01   8.8156037e-01  -8.4424807e-01  -2.5968638e-01  -6.4133503e-01   4.5168857e-01  -6.4719981e-01   7.0987133e-01  -1.1293526e-01  -1.2230790e-01  -6.5729218e-01  -4.1454136e-01   5.3749789e-01  -2.7896677e-01   6.1015547e-02  -5.3060535e-01  -7.2417043e-01   4.2076430e-01   7.6925523e-01  -7.2171552e-01  -6.8058830e-01  -1.5877489e-01  -1.2407779e-02   1.6882602e-01  -1.0359785e-01  -1.7429785e-01
