  -9.0947987e-01  -7.3463281e-01   9.9411116e-01   4.6175926e-01   3.4665534e-01   1.5197981e-01  -5.1884393e-01  -2.5989824e-01   1.7540713e-01  -6.8380032e-01   1.0666580e-03  -2.8733505e-01  -7.8359462e-01   6.2109690e-01   7.1936339e-02  -7.7952524e-01   8.5127267e-01  -2.3319968e-01  -6.2707878e-01   5.9384889e-01   9.7467028e-01   4.4914729e-01  -7.6314801e-02   8.2834651e-02  -7.3501418e-01  -5.3380315e-01  -8.9756400e-01  -7.0764176e-01   1.1044423e-01   3.1129330e-01   2.8809024e-01   1.2158176e-01   8.5970499e-02  -5.5686232e-01   9.7697641e-01   7.9967306e-01  -9.2185665e-01  -9.5818901e-01  -7.2955198e-02  -7.8169348e-01  -2.7117031e-01  -2.0318223e-01  -6.9278119e-01  -4.3721448e-01   9.0120858e-01   7.2333040e-01   1.2122856e-01   8.3835651e-01  -1.1247779e-01  -5.9967675e-01   4.3293925e-01  -3.8947099e-01   2.8177169e-01  -8.7618187e-01   7.1858428e-02   7.8820636e-01  -3.1364563e-01  -1.0217108e-01   8.2988005e-01   7.1813162e-01   8.7502609e-01   1.5979634e-01  -6.3282964e-01   9.6666045e-01  -2.2435757e-01  -3.1399950e-01   7.0946431e-01  -2.9235745e-01  -2.9278419e-01  -1.9461144e-01   6.9118967e-01  -6.6692732e-01   6.9068274e-01   9.2322392e-01  -7.7226595e-01   1.8617981e-01   3.7579200e-01   9.4264663e-01  -7.6861498e-01  -4.5486588e-01  -2.5596107e-01  -4.8524776e-02   9.2381733e-01  -4.3221151e-01   1.6692004e-02  -8.7879546e-01  -5.2449147e-01   5.8909220e-01  -4.0566288e-01  -7.3986443e-01  -6.9740506e-01   6.4635916e-01  -8.7512672e-01  -7.2611750e-01  -7.7608968e-01  -2.9779070e-01  -3.6163583e-01  -4.4923293e-01   9.3098585e-01   4.3455070e-01   1.7084291e-01   6.7696874e-01  -9.8233671e-01   2.4481867e-01  -9.9413138e-01  -8.3556367e-01  -7.2536036e-01   1.0484866e-01  -9.3387745e-01  -7.7745291e-01   4.2101389e-01   7.2591456e-01   2.7609352e-01  -4.2403025e-01  -9.5948095e-01   2.5655973e-01   8.5303549e-01  -1.1061953e-01  -1.8431305e-02   3.2697934e-01   8.7832581e-01  -2.2312810e-01   4.8950815e-01  -7.6922545e-01   4.4346491e-01   5.3563622e-01  -6.7425243e-01   7.0645872e-02   8.1191748e-02   1.8133656e-01   9.5082307e-01  -8.6727218e-01  -5.7563623e-01  -2.3233989e-02   5.7000348e-01  -1.6683496e-01  -6.1876789e-01   7.7859245e-01  -2.8856733e-01  -8.6552864e-01   7.5653811e-02   6.6088754e-01   2.0260369e-01  -6.0391542e-03  -3.1191339e-02  -8.9001208e-01   8.7270671e-01   5.8400216e-01  -8.3652635e-01  -6.9194684e-01   5.3083190e-01   3.1437862e-01  -1.9269705e-01  -5.0809104e-02  -6.6897991e-01   4.3493893e-01  -9.3577640e-01  -7.0675205e-01  -2.1128549e-01  -3.8224156e-01  -4.0276162e-01  -1.2229248e-01   5.5084648e-01   6.3395212e-01  -4.5176635e-01  -7.2723879e-01  -7.0381933e-01  -9.2472005e-03  -6.7720912e-01   8.6071042e-01   8.7141072e-01   8.1304799e-02   5.9392401e-01   7.0588324e-01   5.2424058e-01   9.7612501e-01  -8.6837420e-01   2.7522458e-01   5.1957525e-01  -3.5275855e-01  -8.3005355e-02  -9.9511089e-01  -4.7233174e-01  -8.8064866e-01   4.7619065e-01  -7.1085518e-01   5.0384953e-02   1.1219810e-02   3.0920465e-01   9.8651042e-01   5.5645782e-01   5.9840466e-01   2.3174801e-02   9.1415694e-01  -7.5256220e-01   4.1947558e-01  -8.3606400e-01  -4.1072206e-01  -7.5259830e-01  -3.8168223e-02  -7.1841089e-01  -3.9918018e-01  -5.7665891e-02   8.6053051e-02  -6.7941689e-01   7.6748842e-01  -5.5032389e-01  -6.7687259e-01   9.7746267e-01  -5.2133323e-02   5.3704715e-01   3.5331621e-01  -5.7617449e-01   7.0316127e-01  -8.6326765e-01  -5.5545601e-01  -7.9376355e-01   7.6271947e-02   5.5089673e-01   5.2942149e-01   4.1298937e-01  -3.9647378e-02  -9.3458103e-01  -6.6597727e-01  -5.0899308e-01   7.7190003e-01  -2.5773139e-01   2.9561221e-01  -8.4311165e-01  -8.6643193e-01   1.4901490e-01   9.3824813e-01  -5.1193675e-01   2.4729949e-01  -9.9968102e-01  -4.5385920e-01   3.1192801e-01  -7.7128204e-01  -4.2856108e-01   7.0591034e-01  -4.5797968e-03   9.4362723e-01   8.0449176e-01   6.5192176e-01  -7.8333782e-01   1.5531225e-01   4.0277278e-01   6.1833810e-01  -7.0270433e-01  -9.6459928e-01  -6.3218664e-01  -4.1129420e-01   2.5296169e-01   6.3306533e-01   6.4790460e-01   1.9186819e-01   5.8457492e-02  -1.0837192e-01   4.2341881e-01   7.6910756e-01  -3.1276307e-01   5.2067225e-01  -8.6623656e-01  -5.0608001e-01  -4.7928025e-01  -4.2248355e-01  -3.5300710e-01   3.0998126e-01  -3.8616892e-01  -6.4545486e-01  -7.6663176e-01  -5.4433558e-01   8.4558690e-01   8.7330329e-01  -2.2458522e-01   6.1521052e-02   4.0085438e-01   3.7600603e-01  -8.4075230e-01   1.6670445e-01   4.7369647e-01  -9.2524263e-01  -6.5658585e-01   8.7980634e-01   3.2417144e-01   1.2589663e-01  -4.4886883e-01  -8.8961265e-01   8.0310755e-01   6.1014271e-01  -7.8273872e-01  -1.5997951e-01   8.7161949e-01  -7.9692992e-01   8.0068267e-01   3.9802409e-01   2.4106459e-01   4.1909208e-01  -3.1270360e-01   1.4561959e-01   2.6164542e-01  -4.1749565e-01  -4.1547722e-01   5.8374558e-01  -3.8196238e-03   1.9124884e-01  -4.4681653e-01  -1.8386727e-01  -3.5764255e-01   8.9885080e-02  -1.4943454e-01   3.2626955e-03  -2.6210758e-01   4.1239168e-01  -9.7617000e-01   9.0500847e-01  -9.6890668e-01   7.3567103e-01  -5.0157369e-01  -1.8287336e-02   5.3031500e-01   2.8243722e-01  -7.0085043e-01  -4.8351458e-01  -6.9364796e-01  -7.7821990e-01   7.6796256e-01  -4.0678209e-01  -7.9181452e-01   7.7513932e-01  -4.3824617e-02   3.2769327e-01   4.0630270e-01  -8.0814107e-01  -3.8472613e-02  -9.3165735e-01   7.7569031e-01  -6.1625648e-01  -5.1624382e-01   2.9288840e-02  -3.5174650e-01   6.9302375e-01  -2.6337069e-01  -2.6695623e-01  -5.3810724e-01  -2.5010954e-01  -1.1829024e-01   4.3329842e-01  -5.7955835e-01   2.3951790e-01   7.0468363e-01  -4.3895202e-01  -6.8530564e-03   1.6690393e-01  -2.8934289e-01  -3.7820020e-01   9.3364510e-01   9.8328461e-01   5.4577517e-01   8.3338089e-01   9.5685557e-01  -4.2039084e-02  -4.4628806e-01   2.3123010e-01  -7.7674592e-01  -2.2716154e-01  -2.9954428e-01  -9.6754965e-01  -6.9870538e-01  -7.5207072e-01  -8.1954365e-01  -1.4622838e-01   9.4292792e-01   1.7099216e-01   6.5242440e-01  -4.7932589e-01   6.8662573e-01  -3.7371619e-01   8.3938588e-01   3.4229699e-01   9.5084222e-03   7.4086786e-01  -1.8121429e-01   7.8264079e-01   9.7376445e-01   9.7693024e-02  -8.3093031e-01  -4.7319145e-02   6.5956258e-01   8.3929337e-01   9.6764482e-01   8.4578002e-01  -8.7363789e-01  -7.4671110e-02   9.5348328e-01   3.9602540e-02  -5.7450234e-01  -3.1999054e-01   2.9973161e-01  -7.7489597e-01  -3.9122008e-01  -7.4510745e-01   2.8570482e-02  -8.1013070e-03  -9.9675513e-02  -5.0514912e-01  -3.3977155e-01  -2.2043789e-01   6.1749818e-01  -1.2419967e-01   3.5954417e-01   9.1074530e-01  -8.7263398e-01   3.0589949e-01   3.1880665e-01  -2.6516061e-01   1.9432081e-01  -6.4094225e-01  -5.2921604e-01  -8.2454106e-01   2.9259301e-01  -2.7650245e-01  -9.5140045e-01  -9.8550908e-01   4.1078203e-01   5.0357324e-01   8.1080908e-01  -1.6720625e-01  -4.7051883e-01   2.7301601e-01  -2.1980439e-01   7.9609652e-01  -4.5975064e-01  -6.5316866e-03   2.1281828e-01  -9.4828073e-01   6.7547340e-01   8.5129152e-01  -3.5963093e-01   7.0703709e-01  -6.0037698e-01   8.5061768e-02  -3.4597581e-01  -3.1238791e-01  -8.2165043e-01   4.0780747e-01  -8.0323862e-01   4.1279202e-01  -5.5555098e-01  -8.6736259e-01   3.8803467e-01  -9.1976844e-01  -2.2179783e-01  -8.2105455e-01   2.3249730e-01   3.1863096e-01   3.8170091e-01  -2.7219595e-01   4.3312064e-02  -1.0399264e-01   4.6685548e-01   6.6866104e-01   3.5054534e-01  -6.4101259e-01  -5.9508048e-01  -9.2746637e-02  -4.7419247e-01  -9.4664899e-01  -2.4652725e-01  -3.1575894e-01   3.9087581e-01   8.5005545e-01  -9.7492304e-02   2.7088267e-01  -3.9070619e-01  -5.6976762e-01   5.3356849e-01   5.8868008e-01   1.4912394e-01  -4.8220544e-01   6.7912945e-01  -3.6907862e-01   9.0404112e-01  -7.6170694e-01  -2.2352989e-01  -2.1081740e-01  -9.5765883e-01  -6.7306151e-01   3.1171116e-01  -7.9611071e-01  -9.1584808e-01   1.6573866e-01  -7.9762201e-01  -1.8963526e-01   1.0038430e-01  -9.8026998e-01  -3.2580620e-01  -1.7990747e-01  -1.1576846e-01  -3.6062473e-01  -5.3920675e-01  -2.0286887e-01  -4.8494723e-01   2.7930948e-01   6.7362004e-01   1.7978003e-01  -5.7756543e-01  -6.4151077e-01  -5.1071748e-02  -3.7076312e-01  -7.2118934e-01   9.3721086e-01   8.5696223e-01   7.1828141e-01  -5.5317262e-01   2.9759483e-01  -8.3794406e-01   9.3361944e-01   5.7826443e-01  -2.7408240e-01   2.0829963e-01   2.6371138e-01  -9.6160863e-01   2.6759336e-01  -7.7977799e-01  -2.7463253e-01   6.7652480e-01   9.4457689e-01  -3.1316004e-01  -9.3523976e-03   3.8764097e-01  -9.1041836e-01  -4.2833163e-01   9.2039592e-01   3.1188135e-01   7.6157693e-01   6.5830669e-01  -9.0596512e-01   6.6122224e-01   2.0725099e-01  -1.1101492e-02  -4.0297339e-01  -4.2378817e-01   4.8845051e-01  -8.6247729e-03   8.1985548e-01   4.2938437e-01   8.3795985e-01  -5.9694042e-01  -5.5153320e-01  -5.0443653e-02  -1.7879766e-01   1.8090425e-01   1.7077492e-01   4.4187791e-01  -3.6444511e-01   7.9423593e-01  -7.9887457e-02  -2.5970281e-01  -1.7362739e-01  -4.3053852e-01   8.3268915e-01   2.0934818e-01   9.7657136e-01   9.0013736e-01   4.1210549e-01  -4.1357192e-01   6.6207401e-01   2.0287881e-01   7.2480147e-01  -6.4046236e-01   5.2911181e-02  -4.9618967e-03  -9.8593263e-01   5.1417877e-01   8.1453622e-01   5.6433304e-01  -4.9108898e-02   3.0868152e-01  -6.2304958e-01  -3.7690178e-01   2.5251886e-01  -3.6821197e-01  -8.0406177e-03   8.7288265e-01   7.9085224e-01   5.6220313e-01   6.3476630e-01   6.3144572e-01   3.4197147e-01  -7.6265114e-01   5.4470671e-01  -8.9881885e-01   6.1390200e-01  -1.7363546e-01  -3.3142932e-01   2.7967782e-02   1.4759208e-01   5.7801019e-01  -6.8119098e-01  -8.8675083e-01  -4.2674443e-01   1.9371254e-01   8.4595032e-01   9.6099866e-01   4.8111938e-01   5.5412119e-01   8.3437838e-01  -9.6724859e-01   7.2499687e-01   4.5554802e-01  -7.6133864e-01   2.1434215e-01  -4.2567087e-01  -5.9561286e-01   7.1547187e-01   9.6194698e-01   2.7741093e-01   3.0278780e-01  -8.6038129e-01   3.5175255e-01  -3.3036727e-01  -9.9705794e-01  -6.7922322e-01   7.8780693e-01  -6.3129659e-01   7.3190963e-01  -7.4793668e-01  -8.5696209e-01  -2.3189815e-01   9.2112193e-01   6.0555631e-01   1.3549682e-01   2.7613072e-02  -3.0115307e-01   8.4272384e-02  -5.8433747e-01   9.2364515e-01  -6.6094789e-01   5.5657401e-01  -3.1749189e-01  -7.3497294e-01  -2.3474946e-01  -8.1262749e-01  -1.1742502e-01  -1.5840521e-01  -7.8297559e-01   1.2177939e-01   4.7959629e-01   3.4675139e-01   5.6426262e-01   5.4952644e-03  -4.5501081e-01  -6.9481193e-01  -1.0728888e-01   7.8241534e-01  -1.7103005e-01  -9.7841395e-01   3.1010657e-01   2.3763952e-02  -1.8795267e-01  -9.6134804e-01  -8.3996008e-01   1.1441498e-01  -2.7315491e-02  -7.0460015e-01   7.2601257e-01  -7.5519236e-02   6.3068733e-01  -8.7988599e-02  -9.4021152e-01   4.6678538e-01  -6.6128202e-01   6.8952512e-02  -2.7630303e-01   5.4791311e-01   8.1981463e-01   4.6385793e-01   8.3669523e-01   3.2064268e-01  -1.0753118e-01  -2.7613050e-02   8.2538157e-01  -8.8586986e-01   9.2141128e-01   8.1554344e-01  -5.0920462e-01  -5.1588241e-01  -2.4341860e-01   5.0407483e-01   4.8138287e-01  -5.5435242e-01   1.6270339e-01   2.9045688e-01  -1.2601724e-01  -1.4719372e-01   9.0957842e-01   4.7439475e-01   9.1290133e-01  -6.5896760e-01  -5.6445725e-01   1.7703106e-01  -2.4032668e-01   8.6495501e-02  -9.1185547e-02   6.6649857e-01   1.3014845e-01   8.0784764e-01   7.4286692e-01  -7.3978005e-01  -3.6145194e-01   9.2875403e-01  -8.6737956e-01   7.3350715e-01  -3.8128814e-01  -5.4432022e-01   2.2009295e-01   3.7563572e-01  -6.9244720e-01   3.0424023e-01  -4.6807397e-01  -6.6429805e-02  -9.1958492e-01   4.7722666e-01  -4.0949626e-01  -7.5699302e-01   6.8983963e-01  -2.8724506e-01   5.8748159e-01   2.0317891e-01  -5.7482488e-01  -1.2665660e-01  -6.3973553e-01  -7.6593961e-01   8.8960241e-01   4.2925587e-01  -8.6834691e-02   5.4636827e-02   7.3305446e-01   2.6346295e-01   8.1109411e-01  -8.5875172e-01   9.7060712e-01  -8.0309124e-01  -9.9741874e-01   1.2508712e-01   8.3636311e-01   9.8321568e-01   7.0883597e-01   1.6963114e-01  -1.9409338e-01   5.2050849e-01  -1.8504250e-01  -9.1799161e-01   5.3200346e-01   6.7371594e-01  -6.2088121e-01   3.6748605e-01   7.9091989e-01   3.9000006e-01  -3.5676260e-01  -6.9092362e-01   7.0641621e-01   3.0488432e-01   8.7113252e-01   4.0265738e-01  -5.2094841e-01   3.4839792e-02  -6.7769311e-01   7.8156615e-01  -7.9972635e-01  -4.7105394e-01  -3.3946096e-02   7.6919825e-01   7.7458837e-01   8.5598506e-01   6.5377523e-01  -2.7619184e-02   3.4693330e-01  -7.5027039e-01   7.7943923e-01   8.4539215e-01   5.3339593e-02  -4.4376360e-02   1.5601994e-01   6.0777691e-01  -4.9125671e-01  -9.9534025e-01  -8.8267491e-01   3.0187066e-01   5.3966743e-02  -9.3007516e-01   2.2533102e-01   8.4209387e-01   7.1352285e-02   5.7219940e-01  -5.7918572e-01   1.9831793e-01   9.7993158e-01  -3.6001153e-01  -5.5640832e-01  -6.9176845e-01   4.0119977e-01   2.0997726e-01  -4.8626521e-01  -4.8700331e-01  -3.3914867e-01  -4.2398755e-01   7.5920762e-01   4.6320409e-01  -9.1614877e-01  -2.6529065e-01   9.1726283e-01  -2.1610622e-01   6.1305650e-01  -8.0751501e-01  -4.8222988e-01   4.8253641e-01   3.7631053e-01   9.6268700e-01  -6.9135564e-03  -9.1383690e-01  -2.3216365e-01   9.2706908e-01   4.9467915e-01  -6.5898725e-01   6.9264050e-01  -8.3420525e-01   9.5102763e-01  -4.9792997e-01  -5.5581740e-01  -2.7450699e-01  -9.9521359e-01  -7.3982330e-01   2.7262665e-01  -9.7340254e-01  -6.8872558e-01   8.6044850e-01   1.8174630e-01   5.3890620e-01  -5.5642422e-01  -6.5334306e-01   5.8689407e-01   4.1452736e-01   7.1138133e-01  -7.1858153e-01  -1.7821905e-01   3.5149927e-01  -7.0966494e-01   9.5970781e-01  -3.4548868e-01   1.3141477e-01   5.2078080e-01  -7.9254248e-01  -1.3067064e-01  -3.8647640e-01   9.2159723e-01   9.3375717e-01  -4.0718738e-01  -5.4417226e-01  -8.0966598e-01  -8.7471270e-01  -3.6550016e-01   3.9172121e-01   3.2083640e-01   7.9339091e-01   3.2945576e-01   2.6538767e-01  -8.1343254e-01   4.7349621e-01  -1.5914499e-01  -5.5783665e-01   2.2448082e-01  -2.6467533e-01  -1.1287827e-01  -4.8335836e-01   3.8258366e-01   7.9132833e-01   9.7113355e-01  -5.8945180e-01  -7.0099392e-01   8.3500731e-01  -9.8157901e-01   3.2471492e-01  -2.0774655e-01   4.1362379e-01   1.5027977e-01  -3.0646279e-01   9.5427584e-01  -1.0321884e-02   5.0618515e-01   7.6160698e-01   4.8253491e-01  -7.7731971e-01   7.9143607e-01  -8.4441436e-01   1.9022868e-01  -1.9852256e-01  -9.1061122e-01  -2.2988672e-01  -7.1486816e-01   6.8123574e-01  -3.9584214e-01   5.1508033e-01  -2.1661439e-01  -3.4002472e-01   5.2458219e-01  -6.9987660e-01   9.1412549e-01   2.4063333e-01   3.8690045e-01   6.7896503e-01  -5.2787583e-01   4.1520101e-01  -7.7299868e-01  -1.2915048e-01   9.0546513e-01  -5.7054315e-01  -5.0256576e-02   3.3147955e-01   1.4228919e-01   5.5684269e-01   5.5830441e-01   9.1282387e-01   8.7396587e-01  -4.8835272e-01   5.8151521e-01  -6.9879438e-01   6.4479366e-01  -8.7042850e-01  -4.7672598e-01   1.8234348e-01   7.6708532e-01  -4.8454928e-01  -3.2893761e-01  -7.0559988e-01  -9.8841257e-01  -3.4805077e-01  -9.2540563e-01  -6.6398351e-01   8.8232444e-01  -3.9643275e-01   4.7438763e-02  -1.7045752e-01   6.7999779e-01  -6.1582740e-01  -5.3672236e-01   9.2906011e-01   6.4344954e-01  -8.7997044e-01   6.3214671e-01   7.4772608e-01  -7.3951219e-01  -7.3749207e-02   2.9470385e-01   2.6735392e-01  -6.4738386e-01   7.7718714e-01  -5.2913841e-01  -2.9172184e-01  -6.5741799e-03   3.7820687e-01  -7.9213377e-02   3.4340930e-01   5.8825908e-01   2.9918935e-01   3.3407471e-01  -8.9303489e-01   4.2259219e-01   6.8330333e-01   6.6286356e-01   5.4999254e-01  -1.5437769e-01  -2.5838993e-01   3.1884833e-01  -2.3484761e-01  -3.1584117e-01   4.1449701e-01   4.2974336e-01   5.0763845e-01   6.4027079e-01   1.4308438e-01  -8.2494456e-01   6.8226926e-01   7.6571224e-01  -6.1532824e-01   4.2200440e-01   1.6206655e-01   6.9544066e-01   6.4320867e-01   9.3841508e-01  -8.0001672e-01  -2.2940120e-01  -5.0614149e-01   6.4282669e-02  -2.0829232e-02  -6.4095311e-02  -1.5612288e-01   5.0778097e-01   1.2425561e-01
