   4.8569637e-01  -1.6098071e-01  -8.7730269e-01   1.4470163e-01  -6.2488386e-01   9.8143722e-01  -1.3109393e-01   4.6324779e-01   5.8384674e-01  -2.3206659e-01  -6.5785530e-01  -6.4907128e-01  -6.7974926e-01   5.2627554e-01   5.1982454e-01   7.3473024e-01  -2.6579300e-02  -3.3789571e-01   9.9904321e-01   5.5151145e-01   8.8679447e-01   8.2629356e-01  -9.7303686e-01   7.4330552e-01   7.0679669e-01  -3.7311447e-01  -4.0876070e-01   4.4456897e-01  -4.2891815e-01   9.6668939e-01   1.6793210e-01   7.3327958e-01   2.8598195e-01   1.3860270e-01   9.2991248e-01   1.3900405e-01  -6.7032847e-02   1.2986248e-01  -1.1313444e-01  -6.5475878e-01   5.8662381e-01  -9.4882344e-01  -8.2209354e-01  -4.6356437e-01   7.9154861e-01  -4.4291112e-01   5.6659440e-01  -4.7838879e-01  -8.1001874e-01  -7.9917226e-01  -1.9107801e-01   2.1978899e-01  -7.5611865e-01  -4.3452072e-02   4.7587921e-01  -2.4958894e-01   5.0170369e-01  -4.7941883e-01   5.1737714e-01   7.4023811e-01   7.5788176e-01  -6.2596054e-01  -3.5865449e-02   4.2409033e-01  -8.7513973e-01   7.7334616e-01   8.1380376e-02   4.1720644e-01  -5.2196808e-01   4.9801996e-01  -9.0133993e-01   1.0347384e-01  -3.2546052e-01   4.8268106e-01   6.2667083e-01  -3.4614844e-01  -1.2455937e-01   8.4419331e-01  -6.9116912e-01  -4.0143174e-01   5.1090275e-01  -8.8833339e-01  -5.8922749e-01  -2.5420239e-02  -2.5993985e-01  -7.3868148e-01   8.3574805e-02   1.8700851e-01  -3.5770107e-02  -8.1589083e-01  -6.1527360e-01  -8.8914933e-01   6.2751341e-01  -3.0096795e-01   8.2869593e-01   9.8690935e-02  -3.0416701e-01  -7.0864552e-01   4.5926925e-01   9.4414587e-01  -4.6314473e-01  -5.1862124e-01  -4.3383385e-01   8.7324317e-01   7.6032061e-01  -2.8307255e-01  -4.0253687e-01   3.8278489e-01  -1.0987839e-01  -3.8127764e-01   1.7001805e-01   8.2223855e-01   6.4970176e-01   9.7952134e-01   5.3499482e-01  -2.7968128e-01   5.5173356e-02   7.6308545e-01   9.1533867e-01   5.8068645e-01   2.7700784e-01   2.8932086e-02  -9.1866417e-01   3.7779002e-01   2.5092742e-01  -4.3173205e-01   2.9030062e-01   3.6631645e-01  -8.2230959e-01   9.5486801e-01   9.0998354e-01  -4.1564559e-01   7.9634321e-01  -9.2607365e-01   2.3716598e-01   1.0229223e-02  -9.6246845e-01   1.3358724e-01   8.6873778e-01  -1.8816014e-01   4.9062647e-01   1.0329809e-03   2.6023329e-02   3.9211412e-01  -4.8615787e-01   9.1834532e-01   1.9570086e-01   1.5508168e-01   3.4406165e-01  -3.4615974e-01  -1.6884472e-01   8.9065179e-01  -8.7926303e-01   6.9830471e-01  -2.6965295e-01  -3.9299161e-01   5.1338796e-02   6.9026693e-01  -2.9197290e-01  -6.6223669e-01   1.1368181e-01   3.9028410e-01  -1.4202219e-01   8.3936069e-01  -5.4639090e-01   6.6061174e-01   2.8651070e-01  -9.9404404e-01   8.5263417e-01  -1.5398222e-01   1.5345476e-01  -7.5081237e-01  -9.7955799e-01  -7.5118201e-01   2.6677925e-01   3.8872723e-02  -9.2125199e-01   9.7672424e-01   7.8310933e-01  -3.2126351e-01  -3.2600934e-02  -6.0066242e-01  -5.9456938e-01   2.0112293e-02   4.4613932e-01   2.0005416e-01  -8.4639874e-02  -5.2053502e-01  -4.8277581e-01  -4.6709529e-01  -8.4068758e-01  -2.2689479e-01   4.5746251e-01  -1.8579552e-01   1.8993018e-01   1.7176195e-01   7.8507796e-01  -9.7406910e-01   4.7755551e-01  -6.9669260e-01   1.2453545e-01   6.9049158e-01   1.5191871e-01   1.9347793e-01  -5.9342213e-01   5.8623508e-02  -5.3522981e-01   5.9848000e-01  -4.6394377e-01   4.6549925e-01   7.1510388e-01  -3.1334248e-01   6.1847104e-01  -2.9455553e-01   2.0145215e-01  -8.8713442e-01  -7.7437620e-01   6.0417273e-01  -7.3176685e-01  -7.0060057e-01  -8.7015328e-01   4.1406279e-02   2.6515791e-01  -5.4955932e-01  -9.5215093e-01  -7.4511869e-01   7.2903445e-01  -4.7942775e-01   5.6581803e-01   2.0067275e-01   6.9431436e-01   4.2656602e-01  -2.6148897e-01   4.2478489e-01  -8.4473000e-01   2.2994351e-01   2.8671528e-01   9.5042749e-01  -2.2578484e-01   3.6752858e-02  -6.3176904e-01  -6.4811776e-01  -6.7715733e-01  -6.6470471e-01  -6.2132583e-01   7.6343529e-01   7.9631983e-01   7.3899907e-01  -6.7503235e-01   5.4329546e-01  -3.9357542e-01   8.7718496e-01  -2.7941217e-01  -7.1721423e-01  -1.8088632e-02   2.7622033e-03   3.2842261e-01   1.9168548e-01   5.4055457e-01  -9.2071462e-01   5.7313416e-02  -8.2354901e-01   5.7037008e-01  -2.2183327e-01   9.0509612e-01  -8.9932279e-01  -7.6925222e-02   7.3500412e-01  -4.4159734e-01   7.6746103e-01  -2.9655650e-01   2.1288274e-01  -5.9707186e-01  -7.6078065e-02   7.9547335e-02   5.8837005e-01  -3.2464784e-01   3.7591459e-01  -3.7180636e-01   1.7091429e-01   7.5569087e-01   9.6951597e-02   6.5016538e-01  -2.7335948e-01   6.5735571e-01   5.0150467e-01  -7.8602011e-01  -4.6235920e-01  -6.6791314e-01   3.4288742e-01   1.1533153e-01   6.8905693e-02   5.5996674e-01   3.5951882e-01   7.8213754e-01  -2.2544437e-01  -7.1913845e-01   4.6926417e-01  -7.8990155e-01   2.0939218e-02  -4.8666192e-01   9.3487754e-01  -9.5845071e-01   6.0887993e-01   3.2466828e-02  -9.2566194e-02   3.8894370e-01  -5.3373144e-01   4.2690975e-01   9.1658921e-01   8.8392487e-01  -7.5035870e-01   5.6312664e-01  -9.9996061e-01   9.4513447e-01   5.2232002e-01  -6.4281415e-01   1.9457866e-01   8.1587520e-01  -5.9086667e-01  -6.9642518e-01  -5.2040861e-01   8.1654159e-01  -9.8068355e-01  -1.2533572e-01   4.4128776e-01   1.4087145e-01   5.4285141e-01   8.3316414e-01  -2.7493521e-01   7.0651337e-01   7.1612579e-01  -1.0475601e-01   8.1878714e-01  -9.4769900e-01  -6.8045309e-01   8.4380270e-01  -2.7248370e-01  -3.5194251e-01   4.4896528e-01  -9.8200022e-01   9.7321632e-01   4.1090151e-01   2.6934659e-01   4.0674067e-01  -4.1502482e-01  -8.0281875e-01   3.1675191e-01  -9.5407621e-01  -7.5339633e-01   2.8666498e-01   8.0492289e-01   2.8504320e-01   2.2290105e-01   3.2880179e-02   1.8149147e-01   5.9019803e-01  -6.6594965e-01  -9.5676075e-01  -2.9589307e-02  -8.5436608e-01   8.5638720e-01   7.0849346e-01   8.6197744e-01  -7.4110033e-01   1.5350410e-01   6.4951425e-01  -9.1076201e-01   9.0604545e-01  -2.0606553e-01  -4.0251472e-02   9.3207242e-01  -9.1744837e-01  -4.3434642e-01   5.8267784e-01  -6.7740996e-01  -7.2921386e-01   8.4981285e-01  -7.1956163e-01   4.4558793e-01  -6.9131776e-01  -1.7443988e-01   3.4231479e-01   4.3759404e-01  -2.8654682e-01  -7.8951622e-01  -9.8845626e-01  -2.5087490e-01   4.7752022e-01   2.7483881e-01   2.4150794e-01   6.8847076e-01  -2.0484515e-01  -4.3804455e-01  -3.8167566e-01   3.5260407e-01  -1.7501986e-01  -1.0619991e-01   6.0857283e-01  -7.5934365e-01   3.9474261e-01   5.4310851e-01   6.0532633e-01  -6.8497855e-01  -6.6563838e-01  -3.4231008e-01  -6.9731849e-01  -2.0581882e-01  -1.1237352e-01   2.9193321e-01  -6.9573855e-01   1.8475843e-01  -3.8598364e-01  -4.9022407e-02  -8.3634391e-01  -3.1980763e-01  -5.3268028e-01  -1.1919504e-01   4.5815901e-02  -3.7039194e-02   1.5940321e-01   5.2404365e-01   7.1942338e-01  -4.2167008e-02  -2.0703037e-01   1.2589305e-02   1.2246941e-01  -6.1985679e-01  -7.1154850e-01   1.7926000e-01  -8.4836536e-01  -1.5065814e-02  -2.9744312e-02   5.7359539e-01   2.2085215e-01  -2.6610403e-01   6.9640056e-01  -9.8107459e-01   9.5907311e-01   3.2188638e-01   1.5952060e-01   2.8976366e-01  -6.4581744e-01  -5.0275553e-01  -8.5327482e-01   7.7374263e-01  -4.1115993e-02  -3.9739528e-02   8.8212369e-01   6.6229627e-01  -1.2733743e-01  -1.3722696e-02  -4.1425869e-01   4.8996290e-01   2.0523636e-01  -2.4553353e-01   1.6395955e-01   5.3579822e-01   6.4245011e-01   2.3882447e-01   9.0656710e-01   2.2067891e-01  -2.9403608e-01  -9.2284522e-01   6.6877080e-01   2.0111484e-02   6.6768150e-01  -6.5322932e-01   8.0451911e-01  -5.0468923e-01   6.1172443e-01   2.6775081e-01  -5.2343923e-01  -2.4875970e-01   4.5777527e-01  -5.9526733e-02   8.2459866e-01  -1.6618614e-01  -5.4281513e-01   4.1595780e-01  -8.1241666e-01   4.2652561e-01   8.1050349e-01   7.1148671e-01   9.3640207e-01  -3.8025160e-01  -5.6114638e-01   9.7926712e-01  -1.6429262e-01   5.3192189e-01   8.2446921e-01   2.3988046e-01   8.8285769e-01  -1.9797044e-01   6.3636414e-01  -8.1819167e-01  -5.3114652e-01   9.6276613e-01  -9.5278187e-01  -7.3407946e-01   7.1158235e-01   5.6216318e-01   3.5028347e-01  -7.9817949e-01   8.1845274e-01  -1.2157139e-01   3.6315674e-02   6.1739511e-01   9.0665913e-01  -4.1739036e-01   7.6480268e-01  -2.9264954e-01   5.9980569e-01  -5.6307033e-02   9.4735835e-01   9.9648618e-01  -6.0454037e-01  -6.1065770e-01   6.9148196e-01   4.7728490e-01  -6.4444867e-01  -5.9249117e-01  -5.1807521e-01  -3.9678276e-02   9.1321302e-01   3.1039073e-01   5.1086619e-01  -8.7993231e-01   3.5937105e-01  -4.3269560e-01  -8.9429888e-01  -7.9534855e-01  -7.9394859e-01  -4.3889456e-01  -2.3735656e-01   4.9987998e-01  -1.6624298e-02  -8.6463462e-01  -3.0846913e-02  -3.4348195e-01   9.4434272e-01   9.7737432e-01   9.7742853e-01  -2.9694351e-02  -2.6486051e-01  -1.4637114e-01   7.6663912e-01  -6.0286213e-01   8.6604018e-01   8.7440157e-01   4.6188078e-01   5.7456496e-01  -5.5487884e-01   4.8797738e-01  -7.0574968e-01   5.9536077e-01   2.1070320e-01  -1.8191186e-02  -2.6458880e-01   9.6651899e-01   1.2374831e-01   1.8576478e-01  -2.0249439e-01  -9.4809068e-02  -4.1758280e-01  -2.8340738e-01   5.7028251e-01  -3.7852971e-01  -3.7700652e-01  -8.5047259e-01  -4.8426592e-01  -9.2064759e-01   9.2354354e-01   9.8164528e-01   4.7965044e-01  -9.9939465e-01  -2.0949780e-01  -6.5269418e-01   4.3805341e-01   1.2248733e-01   2.1424270e-02  -2.1016481e-01   5.9266665e-01  -5.6581671e-01   9.7484860e-01   2.6734400e-01   9.8879623e-01  -6.5744473e-01   1.2273595e-01   7.5102820e-01  -5.4924364e-01  -4.4520975e-01  -2.1099188e-01  -8.4962362e-01  -4.6719873e-01  -5.4044815e-01  -7.3060567e-01   4.6879441e-01  -1.4625396e-01  -1.6775033e-02   7.8192994e-02  -9.7601932e-01   4.2905708e-02  -7.0120336e-01   1.2217749e-01  -9.6296411e-01  -1.5477742e-01  -5.5244005e-01   5.3375356e-01   3.2449562e-01   4.7332228e-01  -5.1433041e-01   7.1949042e-01   7.0536787e-01   9.8062270e-01   5.6396918e-01  -8.3815619e-01   8.2124058e-01  -2.3508593e-01  -1.8702689e-02  -1.3083556e-01   2.2606867e-01   9.3518669e-03  -5.3297010e-01   8.0347213e-01   1.4255431e-01  -2.1582368e-01  -4.1108458e-01   3.4324066e-01  -8.0344139e-01  -4.4133043e-02  -1.8629241e-01   2.7181394e-01   3.6221319e-01  -5.2330939e-01   6.7334824e-02   9.6400610e-01   3.0700617e-01  -7.5201385e-01  -6.7629173e-01  -4.6931130e-01  -5.1207425e-01  -7.8337225e-01  -8.6222159e-01   1.3074392e-01   2.0419364e-01   1.9752454e-01   9.6665546e-01   6.1413605e-01   1.0666296e-01   7.1849326e-01  -1.1142022e-01   4.4114009e-01   1.3009048e-01  -4.0209748e-01  -7.7880373e-01   8.5903939e-01   9.1760675e-01   6.2849475e-01   9.5403545e-01   3.4259677e-01   9.7281089e-01  -5.1729040e-01  -4.3931226e-01   7.8235701e-01   9.6448806e-01   9.6736386e-01  -5.0536397e-01   1.6994866e-01  -9.5239502e-01   3.5888045e-01   5.2128999e-01   5.3945804e-01   1.1307814e-01  -9.1525479e-01   4.4055757e-01  -8.8996847e-01  -7.5273677e-01  -2.8773201e-01  -4.9308878e-01   5.1571805e-01  -2.5518140e-01  -9.7976381e-01   5.2508065e-01  -7.8620536e-01   8.1716325e-01  -8.1190988e-01  -4.0108461e-01  -1.4785779e-01   4.1082510e-01   6.6961460e-01   2.5484481e-01  -4.6986497e-01  -6.3748053e-01   2.8545003e-01   7.0622771e-01   8.6862419e-01   5.2778630e-02  -7.1983359e-01  -7.6628292e-01  -9.3879136e-01   6.5418169e-01   3.8625099e-02   5.2261173e-01   3.5451992e-01   3.4583077e-01   7.8315320e-01  -1.7422247e-01  -2.5613071e-01   2.4635815e-01   9.8889926e-02   2.1328084e-01  -2.7392651e-01  -5.3287091e-01   5.3586149e-01   6.6581442e-01  -9.7708201e-01   3.2635484e-01   8.0491047e-01   8.5203575e-01  -9.6287883e-01  -6.4891122e-01  -1.6108668e-01  -9.7334346e-01  -9.0601386e-01  -7.9695868e-01  -6.9677384e-02   6.4653490e-01  -3.0003421e-01   4.7488405e-01   4.8141207e-02  -2.5366573e-01  -5.4320327e-01  -8.6792663e-02   7.5848291e-01   1.1844273e-01   8.3940526e-01  -6.2086551e-01   7.2849995e-01  -4.3620109e-01   7.0561671e-01   8.5373188e-01   9.2957970e-01  -8.7673809e-01  -8.3064056e-01   3.9747454e-01  -7.0804331e-01  -5.5457223e-01   6.6537718e-01   1.9121460e-01   2.7581942e-01  -6.4369559e-03   3.8793876e-01  -8.0101144e-02   7.3956778e-01   7.6920995e-01  -7.8445720e-01   2.9057291e-01   7.9976961e-01  -5.5849348e-01  -9.9179968e-01   8.6619340e-01  -9.1486079e-02  -9.8696821e-01  -8.3705574e-01   5.9227053e-01   7.0940842e-01  -8.8271498e-02  -5.4801668e-02   5.6647432e-01  -2.4910625e-01   5.8239816e-02  -4.4272591e-01  -6.3869602e-01  -7.1232294e-01   6.5684541e-01  -7.4719719e-01  -5.7543508e-01  -6.0735747e-01   6.9797775e-01  -4.7462400e-01   1.5947130e-01  -9.7335905e-01  -6.3995167e-01  -4.3504575e-01   1.7464550e-01  -8.7011107e-01  -4.2476765e-01  -6.8913314e-01   5.6598768e-01   9.9326672e-01   1.9790126e-01   1.7547513e-01  -6.2635730e-01  -3.4232310e-01   7.6015049e-01  -8.8322194e-01   5.3644555e-02  -4.2322581e-01  -1.2564143e-01  -5.5613708e-02   4.2595626e-01   2.1537614e-01   8.2489114e-01  -8.8866293e-01   1.0002927e-01  -2.2228139e-01   9.6862365e-01   6.0718120e-01  -7.7229761e-01  -2.9777494e-02   3.7066225e-01  -7.1357980e-01  -2.7322508e-01  -2.6082086e-01  -1.9110861e-03   7.1369994e-02  -2.6374539e-02  -6.5347255e-01  -8.7647175e-01  -8.1665781e-01   4.8484123e-02  -5.2711427e-01   4.1451276e-01   1.7061975e-01   2.0381566e-01   2.1368292e-01  -3.1561150e-01   9.8334567e-02   1.5551475e-01   6.3059626e-01   5.9605058e-01  -8.3314801e-01   8.4756230e-01  -4.9506982e-01  -6.7696869e-01   5.2213654e-01   8.3502661e-02   9.3154507e-01  -3.5452119e-01  -2.8083716e-01  -4.4191289e-01   4.1278460e-01   9.5519399e-01  -4.7471661e-01   4.4327836e-01  -8.9745759e-01   5.9888557e-02   2.6424119e-02  -3.2004086e-03   4.6003727e-01   8.1706234e-01  -9.0678961e-01   1.4789463e-01  -6.9120264e-01   7.5788594e-01   7.9099062e-01   3.8038112e-01  -7.9728398e-01  -1.0228929e-01  -4.2386868e-01  -7.3747086e-01  -1.4916031e-01   2.2443300e-01  -8.3753795e-01  -1.8767243e-01   9.9236201e-01   2.1594250e-01  -3.3188644e-01  -4.6829144e-02  -5.0226499e-01   8.8428593e-01   8.5883406e-01   1.7918018e-01   5.2455999e-02  -4.2858860e-01  -1.1835297e-01  -2.6232593e-01   8.6430750e-01  -4.3836902e-01  -3.0955632e-01   6.2952370e-01  -2.1749204e-01  -8.6197002e-02   3.4579530e-01  -2.2885738e-01  -7.4572406e-01   8.9204591e-01   6.9371425e-01   5.8117373e-02   5.7488902e-01  -3.7146161e-01   8.7702395e-01  -5.0387310e-01  -3.2122599e-01  -1.2470575e-02   3.5866464e-01  -3.7692597e-01  -4.1920470e-01  -4.6331917e-01  -4.7890297e-01  -9.3096788e-01   4.0094696e-02   8.7873292e-01  -3.1422812e-01   8.7522261e-01   4.8627188e-01   5.1835899e-01   8.3163536e-01  -9.7482083e-01   4.6820450e-01  -8.4818619e-01   5.0974665e-01   3.3255057e-01   2.0518438e-01  -9.0531394e-01  -2.2085233e-02  -9.9521763e-01  -1.6179405e-01   2.2019884e-01   5.2068439e-01   6.3244006e-01   3.2161096e-01  -1.6848723e-01  -3.2349637e-01   2.7288119e-01   5.8961064e-02  -3.3756925e-01   9.1696662e-01  -1.5944516e-01   9.6313871e-01   5.7521327e-01   8.5602820e-01  -9.6237088e-01   6.9577968e-01   4.9316600e-01  -2.4704471e-01   3.7752734e-01  -7.4655401e-01   9.6618657e-01  -8.9564010e-01   4.1635712e-01   3.3957751e-01  -9.4529830e-02  -6.3797852e-01   9.4579136e-01   5.3469503e-01  -1.7724901e-01   8.9647938e-01   1.9642553e-01  -3.5610063e-01  -1.2876996e-01   7.8803538e-01   3.4305980e-02  -5.3975905e-01   5.4608395e-01  -5.6422949e-01   5.2272278e-01  -1.6692009e-01  -1.3314667e-01   8.3470966e-01   9.6876239e-01  -5.2610536e-01  -9.2589274e-01   1.8710202e-01   9.7704787e-02  -5.6423860e-02  -6.6623023e-01  -4.8315671e-01  -6.1327653e-01   1.5465912e-01   1.7642251e-01   1.7629139e-01   4.9538118e-01   3.9525708e-01   3.2062534e-01  -3.0283347e-01   4.1593682e-01  -3.1937743e-01   8.0477307e-01  -8.2867204e-01  -9.4454651e-01  -4.5138831e-01   1.2262845e-01  -6.7176911e-01   4.7612150e-02  -5.0951108e-01  -1.2558217e-01  -8.5943309e-01   3.6677905e-01  -1.1717529e-01   6.2435722e-01  -5.6559827e-01  -5.3038935e-01   2.2980317e-01   2.2807049e-01  -5.9901794e-01  -8.3655152e-01   7.7890211e-01  -1.7323580e-01
  -4.9114692e-01  -5.8247116e-01  -1.4541390e-01  -5.6397768e-02   3.5416863e-01   9.8606499e-01   1.9305698e-01   8.4798604e-01   1.1728720e-01   1.1443892e-02   1.9964191e-02   9.4426679e-01  -3.8936148e-01  -5.5281782e-01   4.3088332e-01   3.4092339e-01  -7.6958336e-02  -7.6067666e-01  -5.4816131e-02   7.1744546e-01  -5.4675097e-01  -3.1641965e-01  -9.7883490e-01  -2.5150402e-01   8.5893870e-01   8.3341251e-01   9.0227643e-01  -3.7988126e-01   5.3323773e-01   4.3582062e-01  -5.9487079e-01  -3.7465879e-02  -9.9123290e-01   2.9343898e-01   8.5625408e-01   7.4776898e-01   5.4981735e-01  -9.9675236e-01  -8.1364049e-01   4.9911419e-01  -8.5362222e-01  -2.3979711e-01  -2.6377971e-01   9.6940935e-01  -8.0151327e-01   1.6898076e-03  -9.4183266e-01   6.6193111e-01   9.7733988e-02   4.4950830e-01  -2.6637522e-02  -6.7224615e-01  -1.5657458e-01   8.4478697e-01   1.1953584e-01   9.7432776e-01   6.2233104e-01   1.8888929e-01   2.9673502e-01  -7.2026627e-01   1.1326863e-01   6.3835430e-01   1.7408799e-01  -8.4299591e-01   7.0572962e-01   5.5170066e-01  -7.8018661e-01  -4.5308392e-01  -9.4197467e-01  -2.9695874e-01  -1.9239674e-01  -7.8785888e-01   9.0529381e-01   8.6357375e-01   5.1937021e-01  -8.5896370e-01   9.1530489e-01   4.0620334e-01   1.3903174e-01   5.8566916e-01  -9.1413993e-01  -7.0222234e-01   8.6140960e-01   9.4273780e-01   7.3156321e-01   1.1081534e-01  -7.0783886e-01   5.9114598e-01   3.4894473e-01   6.5270368e-01  -7.4838075e-02  -9.3536263e-01   4.3007394e-01   5.4610191e-01  -9.3340592e-01  -7.5944735e-01  -6.5414041e-02   1.2753301e-01  -2.1300660e-01  -1.2316922e-01  -2.2118345e-01  -1.6193541e-01   3.9673290e-02  -5.1270860e-01   1.8472298e-01   4.6772425e-01   5.8624867e-01  -4.7666747e-01   4.3663442e-01  -9.1760909e-01   7.5037486e-01  -1.7227293e-01  -2.3982002e-01  -2.5476839e-04   5.5833104e-01   6.7374562e-01   4.5487566e-01   8.5288897e-01  -9.7585075e-01   2.7857878e-01  -2.4818054e-01  -9.0794825e-01  -7.5719131e-01  -9.7631270e-01   9.7290134e-01   9.3859361e-02  -2.9273116e-01   8.0103614e-01  -4.9005296e-01   6.2479762e-01  -9.6899547e-01  -4.1781899e-01  -8.3370533e-02  -9.3558122e-01   7.7500760e-01   3.2985844e-01   7.4603260e-01  -9.9932189e-01   9.5230319e-01  -8.9109323e-01  -3.1574110e-01   8.9833756e-01  -1.8472753e-01  -1.1361467e-01  -7.4393926e-01   3.3850786e-01   6.5823158e-01   8.3695535e-01  -9.5643866e-01   3.9883875e-01  -7.5217227e-01   6.4402129e-02   3.7356901e-01   7.1555754e-01  -8.2911513e-01   1.5877848e-01  -2.3062276e-01   3.0339586e-02  -2.9948595e-01  -8.3591689e-01  -4.9220928e-01  -2.9108648e-01  -6.8994574e-01   5.6799692e-02   7.8798671e-01  -4.3769608e-01   4.4848139e-01  -5.3735302e-02   3.6914058e-01  -9.6881957e-01  -9.1255064e-02  -5.6824235e-01  -9.1629545e-02  -1.2964193e-01   3.2899314e-01  -6.4112011e-01  -7.6224457e-01  -3.2000089e-01  -7.2468317e-01   1.4194656e-01   6.3593216e-01  -7.2185269e-01   7.2413935e-01   3.1909733e-01   5.0212574e-01  -6.7340379e-01  -2.9479442e-01   5.5558092e-02  -8.2440210e-01   8.3753558e-01  -7.8555828e-01   1.3371844e-01  -5.3972832e-02  -6.4606768e-01  -1.8342035e-02   9.5224437e-02   1.1836041e-01  -9.0916730e-01   1.1917970e-01  -7.7914964e-01  -4.3613464e-01   9.4750212e-02   1.5039182e-01   1.3027941e-01   8.1714285e-02  -1.8456486e-01   3.2479048e-01   7.6700864e-01  -1.5835083e-01  -1.7894233e-01  -4.0966002e-01  -5.1314336e-01  -6.3698235e-01  -2.1967503e-01  -5.8886174e-01   8.3874057e-01   7.6656243e-01  -1.3022944e-01   8.4406260e-01  -7.9503531e-01  -6.6130468e-01   8.9548058e-01   1.2227218e-01   7.5752774e-01  -7.7952199e-01  -5.4332266e-01   7.5662684e-02  -7.0955965e-01   8.1947920e-02   7.1076710e-01   2.6447713e-01  -1.0027583e-01  -6.2963741e-01  -6.6813726e-01   7.7695514e-01  -5.8585517e-01  -3.9994415e-01  -9.4598091e-01   6.9715389e-02   6.6617903e-01   6.2072059e-01  -9.1842976e-01   8.6385393e-01   7.9632612e-01   9.4872436e-02   5.8894111e-01  -2.1169803e-01  -4.2962825e-01  -9.4127324e-01   6.8826037e-01   8.0144204e-01  -7.7995343e-01  -5.1290936e-01  -8.0230115e-02  -1.5957222e-03   2.6166700e-01  -2.0390538e-01   4.9680879e-01   1.6153689e-01   6.3333989e-01  -8.7769687e-01   2.4223665e-01   3.8265225e-01   9.3920236e-01  -5.1784252e-01   3.3635034e-01   7.3233179e-01  -8.2519531e-01   6.9278540e-01   6.9533833e-01  -4.4051738e-01   7.1092232e-01  -4.9032197e-01   4.1751891e-01  -9.8325410e-01  -2.4622305e-01  -9.0417757e-01   3.3725527e-01   6.7504014e-01  -3.1060468e-01   2.7904341e-01  -1.0026290e-01  -4.3567858e-01  -2.1998512e-01  -6.9296165e-01   4.7574805e-01   6.2330172e-01  -5.3744668e-01   9.8920832e-01   6.6110487e-01   7.3433876e-01   8.3647110e-02   5.0019832e-01   5.6336605e-01  -9.1161395e-01   7.2210609e-01  -7.8727532e-01   1.4378646e-02  -5.9901994e-01   1.5903410e-01  -3.0865792e-01  -6.8215044e-02   2.2711561e-01   6.9836643e-01   8.9637356e-01   1.5618304e-02  -1.3482217e-01  -6.3210648e-01   1.0029963e-01   6.6874216e-01  -6.9907530e-01  -2.6429026e-01  -2.5632699e-01   1.5711634e-01   8.4203953e-03  -7.9746538e-01   7.4893569e-01   7.9453239e-01  -7.2485123e-01   5.0639249e-01  -2.9639153e-01  -7.2183568e-02   8.2351910e-01  -3.0380934e-01   2.4630478e-02  -2.5841182e-01   8.0617744e-01  -8.3296572e-01   5.2970439e-01  -7.3301354e-01  -1.7456723e-01  -5.7171669e-01   2.5231514e-01   5.4766187e-01   2.4623617e-02  -8.1172553e-01   1.6292521e-01   6.4810722e-01  -5.1447140e-02   7.5619871e-01  -5.8108938e-01   3.7850427e-01   9.9099623e-02  -2.5390381e-01  -1.3075319e-01   3.5592126e-01  -4.3358645e-01  -1.9141275e-01   7.6582175e-01   9.7103459e-01   4.2339676e-01   2.8491212e-01   8.3636063e-02   7.2588882e-01  -7.4210214e-01  -8.4026138e-01   7.1901553e-02   4.5983819e-01  -8.7188390e-01  -1.3368189e-01   3.3271931e-02  -3.3837103e-01  -3.2614331e-01   5.0352505e-01  -6.2711573e-01   8.3310182e-01  -3.3516571e-01   4.0040376e-01   3.8665788e-01  -3.0309617e-01   7.1705819e-01   7.1418083e-01  -9.4155654e-01  -9.4928298e-01   7.1558278e-01  -9.0879241e-01   9.8974205e-01  -3.9334080e-01  -3.6354790e-01   3.6188756e-02  -7.4470339e-01   4.2310857e-01   7.8198269e-01   6.1727150e-01  -9.4614277e-01   9.0721124e-01  -8.4751220e-01  -9.5980620e-01   5.8991452e-01   2.8881395e-01   1.1385093e-01   1.7950605e-01  -7.7644423e-01  -5.7938849e-01  -8.2709276e-01  -6.5718091e-01  -6.5238998e-01  -8.4659989e-01   3.1503600e-01   8.6006192e-01   6.0487650e-01  -8.0079627e-01  -3.0417051e-01   5.4009799e-01   9.5675612e-01  -7.0451640e-01  -7.8066877e-01  -1.7236185e-01   8.0991383e-01   7.2970954e-01   4.9413765e-01   7.5890434e-01  -5.6995460e-01  -3.4709196e-01   7.4317354e-01  -6.2950617e-01  -7.4550428e-01  -8.7903227e-01   4.9422942e-01  -7.4789937e-01   4.0586208e-01  -8.3799526e-01   5.4492596e-01   7.0761400e-01   3.4203546e-01  -6.2327853e-01  -9.4013828e-01   1.3034755e-01   9.3113460e-01  -2.0191488e-01   9.8158532e-01  -7.4252925e-04  -6.4912525e-01  -4.7292662e-01   5.3364835e-01   5.7015675e-01  -5.3581570e-01   2.3008267e-01   7.2651710e-01   1.0113117e-01   1.0048708e-02   4.2794962e-01   5.1477588e-01   2.1546284e-01  -9.5152429e-01   3.9290430e-01  -3.4506873e-01   1.5190486e-01  -5.2629419e-01   7.4203266e-01  -4.8329857e-01  -2.2306802e-01   7.5451331e-01   7.5430318e-01   1.5638455e-01  -2.8255905e-01  -7.0615620e-01  -4.4073615e-01  -6.3231754e-01   7.7346756e-02  -4.1866481e-01  -8.2976255e-01  -5.4413451e-01   2.6213123e-02   7.4307656e-01   8.5796054e-01   7.1036337e-01  -7.7464019e-01   5.3013112e-01  -1.2213603e-02   7.0238330e-01   4.7206306e-01  -6.5946755e-01  -8.3726954e-01   6.9237915e-01  -7.3128705e-01   2.9995720e-01  -1.4125985e-01   7.4848745e-02  -3.5408370e-01   5.2529721e-01  -2.9479714e-01  -8.5991317e-01  -3.5525127e-01  -8.0503430e-01  -3.9865415e-01  -5.0376637e-01  -1.6459655e-01  -8.4571477e-01  -1.4944824e-01   3.8629998e-01   5.5768470e-01  -7.9226387e-01  -8.0907059e-01  -5.2646742e-01   6.7103841e-01   7.5191220e-01   6.5789044e-01   8.4036605e-01  -4.3155303e-01   9.2161550e-01  -3.1850366e-01   3.0275591e-01  -2.3510871e-01  -1.9276459e-02   9.8336948e-01   6.6145847e-01  -5.0359933e-01   3.0962076e-01   2.4609072e-02   5.6191987e-01   4.2479852e-01  -9.6252807e-01   7.7569909e-01  -8.4853033e-01  -9.9294400e-01  -9.3225143e-01  -2.1160952e-01   6.0110745e-01   1.5081396e-01   1.5074581e-01   5.8786339e-02   5.3811940e-01   1.9564894e-01   3.4822730e-03  -9.0913786e-01  -1.2007740e-01  -5.2973593e-01  -8.2987016e-01  -5.2188587e-01  -6.9398164e-01   2.7600691e-01   7.7389556e-01   5.7052979e-01   9.4102132e-01  -9.6004394e-01  -7.5734608e-01  -9.4699934e-01  -9.4061516e-01   7.4174105e-01  -6.8068733e-01  -2.8815182e-01   9.6292368e-02  -7.4285296e-01   1.4768572e-01   6.9622993e-01   9.8163978e-01   3.7275412e-01  -8.8833203e-01  -5.4912012e-01  -7.9339618e-01  -3.4955108e-01  -3.8916387e-01  -6.8851617e-01  -8.1113623e-01  -8.2434919e-01  -8.8552550e-01  -1.4787483e-01  -2.5644050e-01  -1.6530001e-01   6.7570255e-01   4.7269582e-01  -6.3129224e-01   1.6423049e-01  -8.8265119e-01   5.0592300e-01   9.5435839e-01  -4.4105042e-01   3.9617926e-01  -5.5261964e-01  -7.0161207e-01  -9.9295512e-01  -1.8922434e-01  -2.8952434e-01  -8.6617190e-01   9.1585659e-01   9.9412177e-01   6.7066186e-01  -2.5836278e-01   6.4371687e-01  -7.2796405e-01  -8.8473898e-01   4.5912514e-01   3.7731689e-01  -9.6028344e-01  -6.1303218e-01  -3.4395458e-01  -9.6908668e-01  -6.1786052e-01   8.5588485e-01   6.1497887e-01  -1.5983408e-02  -5.2629909e-01   5.6867226e-01  -5.8655485e-01   8.6396387e-01  -4.5560960e-01  -8.2126974e-01   5.3240716e-01  -2.2380345e-02  -7.5207824e-01   4.2647082e-01   9.3314855e-01   6.0453803e-01   4.2039950e-01  -7.5170530e-01   6.8190280e-01  -5.9746585e-02   2.7751304e-01   3.4037600e-01   1.0365569e-01  -7.2473068e-01   9.9974207e-01   5.5668376e-01  -1.8490612e-01   7.9957316e-01  -9.1544808e-01   8.8584874e-01  -6.4499276e-01  -4.4088026e-01  -7.7873254e-01   7.8109848e-01   6.1980398e-01  -5.1675039e-01  -1.2859734e-01   9.5677165e-01   6.7931877e-01  -3.0339599e-02  -9.8160716e-01   1.6330335e-01   5.8988690e-03   6.9433129e-01   3.6888477e-01   8.6857765e-01  -8.8863049e-01   6.8808206e-02   2.8557921e-01   9.8622646e-01  -6.8683294e-01   5.7783577e-01  -6.6160093e-01  -7.8240035e-01  -6.5114969e-01   5.9626968e-01  -9.7781502e-01   3.8748605e-01  -1.2997756e-01   8.5580620e-01  -3.3020305e-01   6.7632185e-01   5.9622572e-02   1.3625342e-02  -4.3073529e-01  -7.6010067e-02  -6.0842032e-02  -6.1118019e-01  -6.5325806e-01  -4.8457635e-02  -7.6886202e-01  -9.4305063e-02  -6.8721448e-01   9.8976561e-01  -8.9406344e-01   4.9158519e-02   5.2862155e-01   9.8232186e-01   2.9727998e-01  -2.8510361e-01  -8.1481631e-01  -4.5699047e-01  -4.0100391e-01  -4.2716904e-01   2.3548980e-01  -8.2337065e-01  -5.5705397e-01  -9.1214519e-01  -2.7696202e-01   6.5433741e-01  -8.6511906e-01   5.5246198e-02  -6.2145350e-01   3.5725274e-01   9.3084045e-01  -9.5380256e-01   3.0144300e-01  -1.2668469e-01  -7.9198059e-01  -1.5144392e-01  -6.3116305e-01  -1.6386900e-01   4.6134255e-01   2.5401928e-01   5.6183595e-01  -3.8446187e-01   1.5867676e-01  -5.3243701e-01   9.6743677e-01   5.9909373e-01   4.5703312e-01  -2.5389594e-01  -9.8435025e-01   6.4076941e-01  -8.4421648e-01   5.8033415e-01  -4.6660628e-01  -3.5121826e-01  -7.3990092e-02  -1.0367978e-01  -5.5598203e-01   4.3369937e-01   9.5863492e-01  -8.2810968e-01  -7.3005043e-01  -2.9912642e-01  -3.9781183e-02   3.8102579e-01  -6.4828780e-01  -1.0367163e-01  -5.3105654e-01  -7.2384238e-01  -8.3206009e-01   6.7327002e-01   8.2048299e-01   3.0186417e-02   3.4878416e-01  -1.9816482e-01   9.8893590e-01  -3.7752321e-01   2.5418944e-01   8.4126705e-01   6.1599609e-01  -9.4421736e-02   4.8797393e-01   8.2442616e-01  -8.7532807e-02  -1.8024856e-01  -3.8650377e-01   8.4597341e-01   6.8329552e-01   2.6586296e-01   3.0192352e-01   3.5960606e-01  -1.9187687e-01  -8.6633893e-01   6.5469936e-01   3.3397125e-01   4.0106579e-01  -8.9054417e-01  -2.7038797e-01  -1.6361720e-01   3.0354621e-01   9.2378407e-01  -4.6733918e-01  -7.8803998e-01   3.6990537e-02  -2.2961198e-01   1.9555092e-01  -3.9981669e-01  -5.0699412e-01  -9.4879217e-01  -2.7856321e-01   4.8168444e-02   5.1343610e-01  -5.7769732e-01  -3.0513237e-01   8.3287889e-01  -5.0181299e-02  -3.6881891e-01   2.9358048e-01  -2.9157433e-01   8.5792004e-01  -6.4764003e-01   3.2258501e-01  -5.2037188e-01  -5.9796041e-01  -3.4621526e-01  -4.6280213e-01  -9.0037140e-01   1.8344667e-01   6.4103560e-01   6.5988538e-01   1.8279196e-01   8.1539032e-01   3.2534655e-01  -1.1471537e-01  -3.4136291e-01  -9.0625960e-01  -6.4259771e-01   1.4998285e-01  -3.3433188e-01   4.2895320e-01  -9.8478750e-01   7.1616799e-02   5.4986787e-01   9.6838746e-01  -4.0081660e-01  -7.4116106e-01  -1.7684528e-01  -3.3437223e-01  -9.3346431e-01  -6.5896135e-01   6.1963706e-01  -8.6658899e-01  -4.3391896e-01  -2.8311915e-01  -2.0661392e-01   3.7080814e-01  -7.7511480e-01  -7.5880652e-02  -5.3729839e-01  -2.1402164e-01   5.2766351e-01  -4.6468855e-01   3.8964104e-01   1.6664307e-01   7.4320738e-01   8.3399777e-01   2.6901283e-02  -5.9202830e-02  -1.4508314e-01   2.9751878e-01  -5.7078395e-01  -4.3951995e-02  -4.8910452e-01  -6.2511835e-01   9.7569870e-02  -1.0400155e-01  -7.6355364e-01  -1.2486107e-02   6.7498629e-01  -1.8797045e-01  -7.1513989e-01  -5.9131110e-01   8.5764230e-01   4.3399846e-01  -6.6514677e-01  -9.8510653e-01   6.4424941e-01   5.2044231e-01  -3.7921277e-01   9.0937027e-01   6.3319166e-01   1.1887089e-01   7.9272983e-01   5.2085476e-01   4.9593270e-01  -1.9106305e-01  -2.5414440e-01   1.3676018e-01  -1.5797864e-01  -8.9635836e-01  -4.6984146e-01   7.1130442e-01   2.7829631e-01   7.1351646e-01  -9.0758057e-01   6.1075150e-01  -4.7628384e-01  -4.7474431e-01   3.3826473e-01  -6.3716290e-01  -1.4555100e-02   7.8809564e-03   9.9657528e-01   4.1828324e-02   4.0072895e-01  -2.9921280e-01   6.7472644e-01  -9.2560052e-01  -1.8453133e-01   5.1832360e-01   2.3663490e-01  -1.1863121e-01  -1.5028061e-02   8.4282318e-01   4.9982415e-02  -8.2564619e-01  -8.7888980e-01   7.7451901e-01   5.3711185e-01  -8.8322313e-01  -7.5373745e-01  -3.5238666e-01  -7.7766787e-01  -3.2565943e-01   2.4098328e-01   5.7708145e-01  -3.7139582e-01  -8.0525576e-01   6.3527263e-01   4.5773313e-01  -4.7896143e-01   1.4136487e-01  -2.1193025e-01   4.0185262e-01   4.4309576e-01  -2.5144975e-01  -9.9968111e-01   7.4901085e-01  -8.7854430e-01  -6.9158415e-01  -3.5987235e-01   4.0024319e-01  -9.5253653e-01   4.1048997e-02  -7.4625698e-01   8.0429020e-01  -6.4793647e-01   6.5660203e-01  -2.4825403e-01  -2.8347722e-01   7.0973971e-01  -1.8811572e-01  -4.0558803e-01  -5.5890093e-01  -7.0905701e-01  -8.1933037e-01  -4.9580064e-01  -5.4109232e-01   7.1600458e-01  -6.1573959e-01   2.3577221e-01  -2.4118399e-01   4.5390948e-01  -6.5121742e-01   1.5096443e-01   4.8065630e-01   2.2334278e-01  -5.1386983e-02  -4.0382640e-02   7.5762294e-01  -2.0318316e-01  -4.2737299e-03  -5.6979855e-01   1.0633441e-01   3.8389814e-01   4.7587392e-01   5.0651871e-01   8.0069666e-01   9.4020527e-01  -6.7357300e-01  -1.4623232e-02  -8.5241666e-01   2.0736606e-01  -5.5406381e-01  -9.3883793e-02  -2.8955411e-01   9.8045419e-01  -7.6090248e-01  -9.0272503e-01  -5.4586664e-01  -2.1854226e-01  -1.1016633e-01  -3.2967395e-01  -1.3352482e-01   1.2123475e-01  -6.8611535e-01   3.5704378e-02   2.9825661e-01   6.1991992e-01  -9.1580422e-01   4.0224271e-01   7.6347969e-01   5.2222301e-01   7.2392746e-01  -4.3232051e-01  -3.6222795e-02   9.8573475e-01  -7.1665928e-01  -9.8038664e-01  -7.0688070e-01   6.8964075e-01   9.1031501e-01  -2.9529342e-01   9.8345684e-01  -8.7200514e-02   5.4852006e-01   9.2204377e-01  -3.7846521e-01  -9.4211501e-01   7.2430056e-01  -3.6596618e-01   6.5856081e-03   4.7934244e-01  -4.3088486e-01  -7.9088017e-01  -5.1866857e-01  -4.8055527e-01   3.3561002e-01  -4.5502802e-01  -6.8403783e-01  -4.5886701e-01  -5.0795924e-01   9.5288497e-01  -4.4843429e-01   1.2427314e-01  -9.3538376e-01   9.6851690e-01  -8.0592553e-01  -5.2449499e-01
   5.4013055e-01  -4.1002036e-01  -8.2833341e-02  -4.6681556e-01  -9.1511408e-01  -5.2077125e-01  -4.0465351e-01   3.9920125e-01   7.3230711e-01   5.5810866e-01  -6.8920897e-02  -2.6306567e-01  -2.1162171e-02  -4.7153822e-01   4.6334690e-01   8.0711441e-01   3.4054955e-01   3.3440915e-01  -1.9523719e-01  -3.0319310e-01  -8.9239345e-01  -2.9109609e-01  -7.8104664e-01   8.6731157e-01   8.9346619e-01  -4.6394157e-01   1.0052232e-02   6.4038717e-01   8.1386299e-01  -8.6285738e-01  -3.9232080e-01   4.9738100e-02  -3.8841189e-01   3.6789109e-01   6.2179004e-01   1.9091450e-01   4.3750730e-01  -3.3800475e-01   2.0698990e-01  -8.2662111e-01  -7.8152945e-01   4.9785170e-01   6.8023601e-01   2.7049393e-02  -8.5634572e-01   9.8346656e-01  -8.3426840e-01   8.8996552e-02  -5.7890846e-01  -5.5292047e-01   9.0557918e-01   9.8518097e-01  -1.5119156e-01   7.0628261e-01  -3.5027489e-01  -1.4446975e-02   4.7398296e-01   3.5856827e-02  -6.1270309e-01   6.9501726e-01  -4.5988319e-01   8.0175748e-02  -2.9131816e-02   7.1929144e-01   3.7406688e-01  -3.5154623e-01  -6.4561659e-01  -8.0901257e-01   4.7637829e-01   4.7410755e-01  -6.2258658e-02   6.7994408e-02   9.5556203e-01  -8.4017738e-01   9.9039897e-01   9.0966678e-01  -9.1773561e-01  -6.9738553e-01  -4.4618220e-01   4.9157400e-01   2.3515627e-01  -3.5099739e-02  -6.6884116e-01  -8.7765050e-01   9.4515606e-01   2.2719025e-02   1.4942431e-01   2.3519379e-01  -3.2409176e-01  -2.0782636e-01  -8.9137771e-01   6.0850835e-01   5.8189819e-01  -2.9644994e-01   6.8856322e-01   5.9931205e-01   5.4069904e-01  -1.4648564e-01   1.3991216e-01   6.5635120e-01   9.9461777e-01  -4.8562592e-01  -5.4840544e-01  -8.6892957e-02   1.2261725e-02  -6.9935456e-01  -2.7629074e-01  -5.8390034e-01   3.2256410e-01   1.4891301e-01  -9.6544567e-01  -4.6537867e-01   5.2858924e-01  -8.8004183e-01   9.3719432e-02  -6.0543171e-01   5.8636458e-01  -6.7333118e-01   8.9314799e-01   7.0501284e-01  -9.8916224e-01  -2.9988934e-01  -7.5688356e-01  -8.2624500e-01  -8.2624112e-01  -4.8194926e-02  -6.0818907e-01   2.8344916e-01   1.0919436e-01   6.2438203e-01   2.2226927e-01  -6.2889395e-01   6.6444426e-01   6.6879481e-01   8.0549958e-01   1.5521458e-01  -6.0133959e-01  -2.9219303e-01   8.9153992e-01  -5.3456757e-01  -5.0510375e-01  -5.9680160e-01   1.5331483e-01   1.0812114e-01   6.9731291e-01  -8.8878014e-01  -4.4652314e-01  -5.7640820e-01  -4.1922255e-01  -2.8438813e-01   2.1643325e-01   9.6192780e-01   6.5061364e-01  -3.4378226e-01   1.2049969e-01  -3.6183144e-01  -1.4973724e-01  -5.9482894e-01  -8.5053147e-01  -5.7294809e-01   7.9303267e-01  -8.4970330e-01  -1.4541587e-01   3.8491692e-01  -6.5003141e-01   6.3767399e-01   5.5053418e-01  -3.9982355e-01  -3.0638712e-01  -1.0762196e-01   1.1076954e-01   7.7837736e-01   8.4353932e-01  -3.7086962e-01   8.4704419e-01   8.0395920e-01  -2.5576167e-01  -2.9242820e-01  -1.6908874e-01   9.6689106e-01  -4.0017960e-01   3.3367616e-01  -6.1025012e-01   5.3802120e-02  -9.8030810e-01   5.5653832e-01   8.8907957e-01   8.1070255e-01   3.8896469e-01   9.7074328e-02  -8.4066167e-01  -3.0633925e-01   7.4273422e-01   8.5221160e-01  -7.3968519e-01   8.7328019e-01   4.5665350e-01   8.7223098e-01  -5.7276437e-02  -9.6692097e-01   2.8761922e-01  -7.4271214e-01   2.4848152e-02   3.5635691e-01  -2.8269671e-02  -1.7339510e-01   3.9129870e-01   5.3451018e-01  -9.4265827e-01   6.7003435e-01   2.9582634e-01  -8.3256367e-01  -3.9354459e-01   6.5560988e-01  -8.3352350e-01  -2.5928623e-01  -2.9487418e-01   1.5455074e-01  -9.0134960e-02  -6.8036542e-01  -8.3097509e-01   5.1632335e-01   5.5366399e-02  -3.8431819e-02   8.8852590e-03  -3.5110437e-01   2.8791292e-01   6.3841306e-02   9.2653362e-01  -8.3111078e-01   3.9819690e-01  -9.7876052e-01   3.6381208e-01  -1.4585940e-01  -3.8433391e-01   9.2158371e-01  -5.5912237e-01   5.1009487e-01  -9.3949404e-01   3.6325239e-01   5.1567507e-01  -6.0898848e-01   6.3560603e-01  -2.9688860e-01  -2.4679069e-01   6.3663107e-01  -6.2684745e-01   3.6475260e-01   2.8734513e-01  -4.1875398e-01  -2.3255068e-01   5.5939561e-02  -5.3071090e-01   9.5514978e-01  -5.2736879e-01  -2.5483361e-01   3.1392419e-01  -2.7002195e-01   6.7394396e-01   9.2959785e-01  -8.1164232e-01   4.1189457e-01   3.7989087e-01   4.8472077e-01   5.8333809e-02  -1.3825900e-01   7.8528742e-01   8.9243534e-01  -4.7165040e-01  -4.0763568e-01  -8.8334159e-01   1.8780349e-01   8.5803278e-01  -3.7645844e-01  -6.2937737e-01  -2.3411576e-01  -7.7145611e-01   8.9222742e-01  -3.0057428e-01  -4.3830529e-02   1.5370480e-02   8.6738551e-01  -6.8775781e-01  -8.3125433e-01   2.3329807e-01   6.5923331e-01  -2.4400405e-02  -6.5588327e-01  -4.5285531e-01   2.4323050e-01  -4.2728811e-01   7.0844267e-01   9.9342916e-01   3.1392460e-01   9.6439198e-01  -4.9552917e-01  -2.9752545e-01  -4.0132504e-01   2.7766374e-01  -2.9314616e-02   1.7737561e-01  -8.2011942e-01   1.6447292e-01  -2.0035584e-01   8.6285249e-01   1.4985617e-01  -5.8546963e-01   3.0020193e-01  -3.7458839e-01   9.5909817e-01   2.6331614e-01   4.3215692e-01  -2.5422406e-02  -5.2579589e-01  -5.1877380e-01  -7.2801741e-01   6.7339158e-01  -3.7674058e-01  -4.8847398e-01   9.2576648e-01   6.7197246e-01   5.5177391e-01  -6.5919151e-02   2.3953515e-01  -2.2022396e-01  -2.3666389e-01   3.5600145e-01   3.8381217e-02  -2.3022287e-01  -7.7522872e-01  -4.4540905e-01   3.9189613e-01  -2.0746900e-01   1.3753007e-01   3.4434351e-01   8.6639115e-01   8.9192020e-01  -1.1712342e-02   8.5854016e-01   3.0580092e-01   9.6188290e-01  -7.8214422e-01   1.4250054e-01   5.4500442e-01  -3.7833384e-01  -7.4101463e-01   7.3668585e-01   9.8167021e-01   7.8882503e-01   1.7387165e-02  -9.4189722e-01  -5.8688918e-01  -5.3266538e-01  -9.7849291e-01   9.1062289e-01  -8.0315427e-01  -7.8827163e-01  -8.0733776e-01   1.7493938e-01  -1.5855355e-01   7.1147652e-01  -5.7046311e-01   9.4561140e-01   4.4623899e-02   8.8971147e-01   5.3623338e-01   7.7373263e-01   4.2885762e-01   2.3826977e-01  -2.6233792e-01   8.0210404e-02  -4.6393888e-01   3.8910950e-01   5.2433222e-01   6.3084890e-01  -2.4049124e-01  -8.3433681e-01  -4.6427672e-01  -8.3643743e-01  -1.8578460e-01   6.4100148e-02  -5.3233921e-01  -5.1729691e-01   8.4903011e-01   9.2177744e-02  -6.4407701e-01  -8.3798805e-01  -8.5357806e-01  -1.6599226e-01   6.3017695e-01   8.1150839e-01  -4.2571804e-01  -6.3909715e-01   5.9379763e-01   1.8135279e-01   9.4528039e-02   7.5593623e-01  -8.1953162e-01   8.9406911e-01   8.3120504e-01   7.7127677e-01  -4.6393915e-01  -3.3334794e-01   8.3778078e-01   4.1004319e-01  -7.2468560e-01   1.4706845e-01   5.0457071e-01  -8.9848305e-01  -2.3476012e-01  -6.2605997e-02   5.4335051e-01   6.6652204e-01  -2.8153133e-01   2.1242215e-01   8.8947134e-01   2.2958859e-01  -8.2835832e-01   1.7157631e-01  -8.4157975e-01   1.9958052e-01  -1.7082307e-01   1.4992285e-01   3.2423579e-01  -7.4716628e-01   2.1784779e-01  -2.1891107e-01   1.2972747e-01   4.4126410e-01   5.5780148e-01   9.0664199e-01  -8.1179583e-01   6.0620641e-01   1.6471334e-01   4.3874780e-01   2.4878986e-01   6.8174191e-01  -4.1916654e-01  -8.8273341e-01   6.5129110e-01  -1.5897784e-01  -8.2547780e-01   8.6473493e-01   5.1414672e-01  -1.1546748e-01   8.2716226e-01   8.9175778e-01  -1.5110236e-01  -9.5975249e-01  -6.1976652e-01   2.8133079e-02  -2.5931555e-01   3.2566152e-01  -2.7208169e-01   6.0231314e-01   4.4284800e-01  -7.6553156e-01  -3.3834316e-01   3.7914538e-01   5.4682721e-01  -9.3644178e-01  -2.0676209e-01   2.6689228e-01  -3.2157046e-02   8.6171160e-01  -3.5621947e-01  -3.9029168e-01   7.1453385e-02   8.4729092e-01  -2.6810600e-01  -6.9483617e-01   1.0711392e-02  -6.7188679e-02   9.8879827e-01   8.5495298e-01   2.4925381e-01  -3.0357431e-01  -6.5239468e-01   4.8750568e-01  -7.1050202e-01  -1.0019489e-01  -3.6030558e-01   9.3770611e-01   3.0718376e-01  -5.7228183e-01   5.7979868e-01  -4.0450579e-01  -4.3077192e-01  -4.5281373e-02   4.6874185e-01  -9.9713996e-01   4.9664690e-01   9.8922136e-01  -4.0230091e-01  -8.3214047e-01   7.6706608e-01  -6.7472800e-01  -7.1200115e-01  -8.5740788e-01  -6.3353014e-02   2.2476839e-01  -4.8542548e-01   9.4454046e-01  -6.3925331e-02  -1.9724241e-02  -5.9927069e-01  -4.5986926e-01  -8.6531059e-01   4.8479405e-01  -7.5810377e-02   8.8310602e-01  -8.8114098e-01   5.9652756e-01   8.1699144e-01  -8.1386828e-01   7.5438875e-01   2.3543937e-01  -7.4399923e-01   8.3506668e-02  -9.6889048e-01   6.7271772e-01  -3.0923505e-03   4.1774316e-01   9.9060200e-01  -6.9800131e-01   2.5141501e-02   8.9215397e-01  -3.2478270e-01  -1.8248403e-01  -6.5783662e-01  -3.4226968e-01   1.0424555e-01   1.1748402e-01  -6.4711224e-01  -1.5629483e-01  -6.1765000e-01  -7.3686682e-01   5.3220261e-01   4.6592880e-01  -4.0419052e-01   4.9070067e-02  -2.1365264e-01  -2.2902363e-01   3.3094786e-01  -7.0698440e-01  -3.5511492e-01   3.8236571e-01   2.9237765e-01   7.6330884e-01   1.4376837e-01  -7.8953931e-01  -6.0105513e-01   9.0438744e-01   6.3676428e-01  -7.6007665e-01   8.5543046e-01  -7.5776889e-01  -2.4688511e-01   8.7952573e-01   3.8204033e-01   1.7865634e-01   7.1826437e-02  -8.5530205e-01  -4.2033831e-01  -8.6398711e-01  -6.4443618e-01  -9.8207798e-01   7.1778605e-01  -9.2070685e-01  -6.8261793e-01  -6.2877380e-01  -5.0706976e-01  -3.0121562e-01   7.2318321e-01  -3.9675697e-01  -5.5464056e-01  -9.0154671e-01  -6.5273535e-01  -1.0537918e-01   1.0664324e-01  -2.5004169e-01  -3.1404387e-01   7.1409985e-01   8.1008917e-01   5.4731146e-01  -5.7277289e-01   6.3127207e-01   1.7507896e-01  -8.9190179e-01  -4.2680443e-01  -3.6084668e-01   3.7704911e-01  -3.2067414e-01   8.6739319e-01  -9.4376378e-01   1.8095802e-01  -1.3485166e-01  -6.8849648e-01   4.7029716e-01   3.5642085e-01  -2.0021495e-01  -1.2923573e-01   2.4997561e-01  -6.0314404e-01   6.0244681e-02   8.6062434e-01  -7.1819225e-01   2.2930975e-01   1.2266052e-02  -7.4192834e-02   7.5246176e-01   5.8544559e-01  -8.4400601e-01   6.1832989e-01   4.4609335e-01  -1.9809031e-02  -9.0420217e-01  -9.6464146e-02   7.9409572e-01  -7.0038155e-01  -2.5564854e-02   6.9158520e-01  -7.6518840e-01  -1.1646872e-01   4.7570920e-01   9.4470825e-01  -6.6146395e-01   1.2949874e-01  -8.1210156e-01  -2.2457773e-01   5.9650373e-01  -2.1127239e-04  -8.1409455e-01   6.0919183e-01   1.7379908e-02   2.4646103e-01   2.7675993e-01  -3.3335929e-01   5.5533369e-01  -6.0353217e-01  -8.7593856e-01  -9.7431202e-01  -6.5265809e-01   2.5939548e-01  -6.8199893e-01   2.4527681e-01   7.6322285e-01  -2.2896727e-01  -5.1803810e-01  -3.2450436e-02  -6.1309810e-02   2.0384790e-01  -3.0901959e-01   5.3779884e-01  -3.2524023e-03   9.8402221e-01   7.5101723e-01   9.6686831e-01  -7.2792901e-02  -6.4488850e-01   9.4733520e-01  -6.3894622e-01  -1.7920296e-01   2.6836497e-01  -9.1066699e-01  -3.9895668e-01  -3.9223283e-01  -2.8160505e-02  -2.1584514e-01  -4.3513562e-01   4.9389791e-01  -9.7743920e-02   6.6142762e-01   5.3657631e-01  -7.5940051e-01  -7.1225002e-01   4.3898963e-01   6.4702853e-01  -2.1310195e-01  -6.6963869e-01  -6.2804004e-01   3.2183409e-02   6.5928797e-01   6.2325853e-01  -7.0151294e-01  -8.2217118e-01   7.7744769e-01  -7.6636344e-01  -9.0188061e-01  -6.6985002e-01  -4.3726381e-01   3.6725508e-01  -1.8720608e-01   5.3434156e-01  -6.1113106e-01  -7.4091951e-01  -8.0139092e-01   7.4551020e-01  -3.4850472e-01   1.1774909e-01   3.4860863e-01   9.1155825e-01   6.8825070e-01  -6.5423326e-01   7.4881859e-01   2.7356378e-01   5.3467885e-01   8.0518603e-01   1.0044740e-01   2.2528809e-01  -7.4868736e-01  -8.0473590e-01   2.7221775e-01  -9.1998638e-01   6.8925395e-01   6.5203187e-01  -2.3433880e-01   3.2758250e-01  -8.2528059e-01   6.9760161e-01  -3.8863618e-02   2.4334685e-01   6.0630876e-01  -7.3659458e-01   4.2562339e-02   2.5789670e-01   5.8147614e-01  -2.5092043e-01  -1.2411166e-01  -4.0860313e-01   4.4442429e-01   1.5295996e-01  -7.2905462e-01   4.2783818e-01  -8.0106796e-02   4.4077816e-01  -7.0957580e-01   6.7539383e-01   6.0481149e-01  -2.6872360e-01  -9.7015799e-01   1.4557816e-01   2.7724869e-02  -3.7701880e-01  -2.0881022e-01  -1.1036769e-02   5.1994989e-01   5.5174592e-02   6.6569710e-01  -8.0584586e-01   9.0773071e-01  -3.3428030e-01   6.8684100e-01  -7.7116474e-01  -6.1707631e-01   6.8357156e-01   5.3345077e-01   5.7389657e-01  -5.7052123e-01  -1.7628308e-01  -5.1811284e-01   3.9451909e-01  -2.3910089e-01   9.7188656e-01   1.6838008e-01   6.2463531e-01   7.1273998e-01   1.4320685e-01  -1.2455770e-02   4.8321324e-01   5.6600814e-01  -8.2446554e-01   8.4278191e-01   1.8574573e-01  -1.9201241e-01  -1.9952832e-01  -8.0776281e-01   3.8344044e-01  -9.6844766e-01  -5.0278530e-01   8.0422697e-01   9.7447724e-02   7.0576931e-01   8.4887406e-01   9.0718977e-02   3.5985187e-01  -8.7848871e-02   5.8981015e-01  -7.5933637e-01   7.9503824e-01  -8.2440151e-01  -1.4790873e-01   6.5312050e-01  -9.7434182e-01   6.6244958e-01  -6.0678503e-02   8.4328643e-01  -9.8363065e-01   3.9862473e-01  -5.2937024e-01  -7.6775574e-01   3.4519038e-01   3.0804992e-01  -3.8406125e-01  -9.3403383e-01   8.0401263e-01   1.6408651e-01  -4.2673869e-01   8.4943908e-01   8.7042729e-01  -6.4727601e-01   3.2041187e-01   2.9260108e-01   2.3466947e-01   9.4042743e-01   9.2798425e-01  -6.3863182e-01  -8.1918555e-01   5.4977596e-01   2.8413465e-01   1.2774625e-01   8.7407540e-01  -2.0497913e-01  -9.5884238e-01  -4.1036069e-01  -2.3915404e-01  -4.7995649e-01   9.2092371e-01  -5.2676061e-01   2.1765080e-02   8.6114362e-01   1.0534139e-01   6.3145579e-01  -5.2801124e-01   2.6555207e-01   5.4547679e-01  -8.2059651e-01  -2.8530930e-01  -8.5307596e-01  -7.4530502e-01   2.5416191e-01   1.3164629e-01  -1.0473355e-01  -4.2172198e-01   9.0887469e-01   2.6627746e-01   5.3072622e-02  -1.1917245e-01   2.3428919e-01   3.2257415e-01   9.0031815e-01   7.5197398e-01   7.6755176e-01  -2.1745613e-01  -8.4282941e-01   2.6769475e-01  -2.0275904e-01  -2.6475271e-01  -7.3095056e-01  -6.9496171e-01  -7.0308526e-01   9.2731839e-01   2.3113689e-01   5.2965567e-01  -3.2488515e-01  -4.1358575e-01  -6.9290022e-01  -3.2655926e-01   7.9788328e-01   9.6002576e-01  -2.6250490e-01  -2.9269872e-01   9.4643319e-02   7.3303591e-01  -5.3947499e-01  -8.9782134e-01   4.4255094e-01   9.7390232e-01  -1.5433689e-01   2.0172279e-01   7.6155326e-01   4.8024237e-01  -2.5990601e-01  -8.8207899e-01   9.8597320e-01   2.2087366e-01  -2.0613397e-01   6.9399152e-01   9.4929658e-01   5.9473494e-01   5.5851469e-01  -8.3374920e-01  -6.3736635e-01  -7.8487961e-01  -7.7158093e-01  -3.3133253e-01  -8.9720430e-01  -4.2263938e-01   2.0487047e-01  -2.1418122e-01  -9.9570169e-01   7.7042264e-01  -8.5042161e-01  -9.3577638e-01  -5.0856144e-01   7.6458143e-01   3.5733610e-01  -3.5113072e-01  -3.2844409e-01   9.2038022e-01   5.6420955e-01  -1.5288623e-01   2.2194906e-01   3.2889297e-01  -8.5047640e-02   3.3144088e-01   5.2840848e-02  -4.6924564e-01   8.2397252e-01   6.8415089e-01   4.3958253e-01   1.7744111e-02   1.6677554e-01   9.6832850e-01  -7.9529887e-01   6.9559406e-01  -4.5154742e-01  -5.0732401e-01   2.7165879e-01  -5.9346474e-04   3.2709557e-01   8.7327939e-01  -2.9937779e-01   3.7761004e-01   3.5997062e-01  -2.2978885e-02   8.4277396e-01   5.4608075e-01   5.1923505e-01   7.4908503e-01   4.4079808e-01  -9.5006295e-01   2.7136628e-01   9.6706848e-01  -4.1966839e-01  -5.7851559e-01  -9.0979568e-01  -9.6673942e-02  -8.6626550e-01   3.5509356e-01   9.0501921e-02   1.8713855e-01  -1.7539079e-01   9.0252913e-01  -8.0082395e-01  -8.1369248e-02   7.2769102e-02  -1.8950898e-01  -5.1597915e-01  -1.5680781e-01  -7.8025885e-01  -6.0257833e-01  -1.4783035e-01  -6.8532881e-01   9.7347841e-01  -8.4696756e-01  -5.1982486e-01   3.8762678e-01  -3.8044143e-01  -8.6833620e-01   4.6891990e-01  -6.2613688e-01  -6.9762398e-01  -2.5599775e-01  -4.0982240e-01   6.2072163e-01  -7.1724686e-01  -9.9430615e-01   7.2509621e-01  -5.6045694e-01  -6.4652343e-01   5.2782988e-01  -4.4083841e-02  -2.8544823e-01   8.7753340e-01   4.3714597e-01  -7.3792701e-01  -3.0539681e-01   6.3133852e-02   6.4719062e-01   5.8072288e-02  -3.6416308e-01  -7.1114984e-01   8.2267504e-02  -7.9180250e-03   5.8518108e-01   7.5364159e-01  -5.0982523e-01   7.0997583e-01  -5.8682896e-01
   4.2894212e-02   2.4443511e-01  -2.2056390e-01   6.7119419e-01   9.2936596e-01  -5.7715345e-01   1.4147080e-01   2.7360003e-01  -9.4227895e-02  -1.5103717e-01   8.9436192e-01  -6.8676332e-02   8.0621380e-01   7.7732030e-01   9.7791595e-01  -6.5055527e-01  -6.4210229e-01  -6.9487284e-01   1.9869123e-01  -2.6889613e-01  -4.1039287e-02  -4.7314462e-01   2.4133813e-01  -3.1845830e-01  -6.9360468e-01   1.7478787e-01  -5.6191417e-01   3.8703053e-01  -3.3306650e-01   8.6981921e-01   9.1044434e-02   4.3118500e-01   2.9598858e-01   6.9033663e-01  -3.2944205e-01  -5.1365928e-01   2.3168525e-01  -2.6438662e-01  -8.1197044e-01  -3.2196902e-01   5.1589764e-01   6.9954769e-01  -4.7372463e-01   3.4816488e-01  -7.1523376e-01  -5.0892230e-01   9.3380493e-03   9.3336887e-01  -1.6294590e-01  -1.8495529e-01  -8.0618391e-01  -8.9381273e-01   1.3756732e-01   6.8339616e-01  -9.6805777e-02  -8.0488009e-01  -3.8050342e-01   6.5057969e-01   3.5357393e-02   5.1860283e-02   9.0007243e-01   1.5427621e-02  -9.1378770e-01  -3.9293423e-01   9.9619007e-01   3.8905176e-01   4.2593745e-01   4.6249962e-01  -1.8093191e-01  -9.5372437e-02  -1.8193989e-02  -8.0647824e-01  -5.3372614e-02   6.5431929e-01  -4.5640043e-01   8.8694455e-01  -7.8849449e-01   4.0316980e-01  -3.9505501e-01   1.5545576e-01   4.5549123e-01  -4.4078373e-01   6.0307234e-01  -6.0092298e-01   5.6263747e-01  -5.5556176e-01  -6.5380347e-01  -5.2941959e-01  -4.5623903e-01   8.3793339e-02   7.9641633e-01  -3.8611286e-01  -6.3731025e-02  -1.7483418e-02   4.5921596e-01  -7.8226043e-01  -7.2742193e-01  -9.9690533e-01   4.0468158e-01  -8.9144642e-01   5.8495666e-01   3.9547051e-01  -8.6571134e-01  -8.6344717e-02  -5.1143541e-01  -9.9250815e-01  -5.0976043e-01  -8.3785779e-01  -9.1548118e-01  -2.4998794e-01   6.1568067e-01   9.1108067e-01   3.4455881e-01   6.3291973e-01   8.1576793e-01   1.3520646e-01   6.6424505e-01   9.6059819e-01  -6.2043225e-02  -6.5474935e-01   2.1582993e-01  -2.3479056e-01  -5.2498447e-01  -3.1264743e-01   6.2646418e-02  -3.6815080e-01   6.2055235e-01  -3.7899280e-01  -6.1274986e-01   9.9087978e-01   4.4006308e-01  -2.1853981e-01  -5.9052297e-01   3.9524807e-01  -8.4454123e-01   6.2896875e-01   1.3231697e-01   8.0636631e-01  -1.9701223e-01   4.5205626e-01  -5.3263853e-01  -9.9861182e-01  -6.8907149e-01   7.2140272e-01  -9.2183781e-01  -4.5139673e-01  -5.4615209e-01  -7.2939944e-01   7.4005512e-01  -9.6358975e-01  -6.3844266e-01  -9.3769277e-01   5.7559078e-01   9.2285101e-01  -9.9665317e-01   7.4614795e-02   3.0894655e-01   5.7276082e-01  -6.3191360e-01  -4.2299107e-01   7.1600887e-01   5.5030263e-01   9.7192236e-01   7.6070350e-01  -4.3945940e-01   1.9032313e-01  -6.8027856e-01  -9.8767390e-01  -8.6955912e-02   6.4902008e-01   7.1272857e-01  -8.6138857e-02   6.3622563e-01  -1.1565713e-01  -2.6917249e-01   7.3480581e-01   7.7006339e-01  -4.0031081e-01   6.5217166e-02   7.0696617e-01   3.2381195e-01  -7.8171820e-01  -3.1929455e-01   3.2907773e-01  -9.5328905e-01  -4.7696386e-01  -1.7237300e-01  -2.1944555e-01  -2.8265059e-01  -9.7593255e-01  -8.9170090e-01   8.8634056e-02   8.9601711e-02   3.5207332e-01   6.8893206e-01   7.1280492e-01  -1.0491034e-01   2.3971477e-01  -8.3999955e-01  -1.0622592e-01  -3.9085748e-01  -8.2989715e-01  -7.6300902e-02  -3.9650315e-01   8.6447904e-01   2.7627574e-01   3.5422975e-01  -9.0982845e-01   5.5739439e-01  -6.1410710e-01   8.6891789e-01  -1.3238599e-01  -3.5232856e-01   2.0210800e-01  -4.2403900e-02   9.1091127e-01  -4.1438205e-01  -4.6379272e-01   2.1208808e-01   6.8821071e-01  -3.7837960e-01  -8.2954211e-01   9.2963953e-01  -8.2507976e-01  -3.9645430e-01  -9.6000713e-01  -8.2652098e-01   5.9829560e-01  -3.0616048e-01   9.3612875e-01   3.1625748e-01  -6.9762523e-01  -9.6652063e-01  -6.3299980e-01  -5.5938538e-01  -6.4270475e-01  -8.1247340e-01   4.6274628e-01  -8.8019203e-01   1.6367673e-01  -7.5732515e-01   4.1453805e-01  -9.8400045e-01  -2.0776306e-01  -8.3069209e-01  -2.4818612e-01   6.0115865e-01   2.6213578e-01   6.1467435e-01   8.6015621e-01  -6.0838101e-01   9.8151733e-01   9.8506222e-01   7.8188822e-01  -5.8141087e-01   7.0008949e-01  -8.1172849e-01  -7.5905271e-01  -6.4291145e-02   9.4052898e-03   8.0309678e-02  -7.8643286e-01   8.1062059e-01   1.5020213e-01  -2.4245061e-01  -4.5596295e-01  -3.5968999e-01   1.0308259e-01   2.7096509e-01  -8.0668893e-01  -4.1337816e-01  -2.7488464e-01  -1.8193108e-01  -8.5146391e-01   9.1755599e-01  -7.7356176e-01   7.4222357e-01  -5.0974277e-03  -3.8090037e-01  -9.0188589e-01  -9.0025682e-02  -6.7364995e-01  -1.6094450e-01  -3.1020578e-01   7.9280071e-01  -8.8099601e-01  -5.3796708e-01  -9.7206889e-01   2.2030866e-01  -7.4220957e-01  -1.5714873e-01  -6.1825168e-01  -2.1369521e-02   6.8827448e-01   8.2311075e-01  -4.7468227e-01   2.5185144e-01  -9.4919872e-01   7.4099384e-02  -7.9313588e-01   6.9753137e-01   8.5762602e-01   1.2851970e-02   3.2633409e-02   3.0058093e-01   6.8019880e-01  -5.6182997e-01   1.6234913e-01   9.4439412e-01   9.9702720e-01  -4.0761333e-01   6.1011990e-01   1.6022637e-01   3.7178314e-01  -4.9502700e-01   2.8003962e-01   6.2257602e-01  -9.6839934e-01  -3.5294507e-01   3.1398566e-01   6.7700347e-01   7.2050869e-01   1.2834894e-01  -2.7721804e-01  -4.6003005e-01  -6.3080229e-01   5.4644274e-01   1.7270127e-01  -1.8835730e-01  -6.0120882e-01   2.5799839e-01   3.2955347e-01   9.5393648e-01  -5.4519035e-01  -5.0351992e-01   6.1962000e-01   2.6474718e-01   3.4966849e-01  -1.2480397e-01  -8.7075276e-01   3.0520870e-01   8.4392586e-01  -1.9665941e-01   7.2029069e-01   4.2761210e-01   7.8229546e-01   7.0309958e-01   9.6743517e-01   4.5681673e-01  -3.0404231e-01   5.2985042e-01   1.8107047e-01   4.4906201e-02   8.0091485e-01   5.7493485e-01   6.3497355e-01   6.1526952e-01   2.7808083e-01   2.3476946e-01   2.9573574e-01   2.9014815e-01  -3.8514437e-01   9.1569273e-01   3.7960326e-01  -7.8306133e-01  -8.0084398e-01  -1.4520501e-01  -8.4767594e-01  -9.5918062e-01  -8.6772733e-01  -9.5077063e-01   7.6221688e-01   7.6512585e-01  -3.9177367e-01   7.5106794e-01   2.0034527e-01   7.8708237e-01   7.0545592e-01   3.3176588e-02  -9.6507085e-01   9.9563253e-01  -3.4871496e-01  -9.8920305e-01   2.8295108e-01   1.4305546e-01  -4.0964418e-01  -5.7419581e-01  -4.8692119e-01  -9.3030672e-01   1.1838080e-01   5.1780372e-01  -7.2269670e-01   6.6315643e-01  -4.4589964e-01  -3.1949301e-01   2.7326885e-01   2.2132487e-01   5.7394159e-01   4.5070828e-01  -5.0947816e-01  -6.7477461e-01   5.2352354e-01   3.9490101e-01   5.4310705e-01   6.4993050e-01  -2.7163332e-02   7.0805090e-01   6.2801093e-01   6.5208685e-01   8.7716623e-01  -1.6173801e-01   5.6669803e-01  -5.3914955e-01  -9.2361017e-01  -5.2492893e-01   7.5015108e-02   4.4238024e-01  -9.2655028e-01   4.1359724e-01  -3.0846531e-01   4.0892333e-01  -1.6115899e-01   5.9401618e-01  -7.7958227e-01   8.4785322e-01   9.2911877e-01  -3.7692529e-01   1.1443870e-01  -5.5033301e-01   1.3048110e-01   4.9411330e-01  -7.4854664e-01  -7.5278329e-01  -8.6682677e-01  -8.3683964e-01  -8.4233436e-01  -5.9238214e-01   4.1270943e-01   7.1343909e-01  -8.9574464e-01  -3.9078781e-01   7.8550923e-01  -3.3194155e-01   8.2876643e-01   7.4530444e-01   1.5960354e-01  -7.4828495e-01  -4.5540260e-01   7.3428158e-01   2.7360360e-01  -4.5569104e-01   2.1295112e-01  -1.2404097e-01  -9.7370205e-01  -5.7783854e-01   6.7564603e-01   6.2076009e-01  -9.3501789e-01   1.8670089e-01  -7.2301900e-01  -1.0668159e-01   6.3734310e-01  -5.1487590e-01  -3.4377955e-01  -3.4160062e-01   1.9079858e-01   5.1868011e-01   3.0013318e-01   1.2441147e-01   5.9696862e-01   1.3742623e-01   8.6600879e-01  -6.2162968e-01  -4.6486768e-01  -2.4950666e-02  -8.7662682e-01   4.4747098e-01  -8.1602144e-01   7.8266719e-01  -1.7163523e-01   7.1985971e-01   9.1983572e-01   5.8596438e-01   4.4074117e-01   2.3289860e-01  -2.8685611e-01  -5.5889948e-01  -3.5345541e-01  -7.6741793e-01  -8.9158456e-01  -5.0878670e-01   2.6144499e-01   3.2253553e-01   6.1241581e-01  -4.6163571e-01   6.6071846e-01   3.6705799e-01   6.1160949e-01   8.1667109e-01   8.1569873e-01   6.1889207e-01  -8.3646292e-01   1.5162438e-01  -1.0704449e-01  -9.9417492e-02   5.0641672e-01  -4.8250133e-01   4.7714689e-01   9.2754106e-01   1.6175907e-01  -9.4453110e-03   9.4402051e-02  -2.6424790e-03   4.0878664e-01  -7.7916775e-01   5.2358421e-01   8.9753383e-01   7.4663789e-01   5.8749611e-01  -4.9416253e-01  -7.8574506e-01  -7.8926560e-01  -9.9052100e-01  -3.1940302e-01   2.5578630e-02  -1.7795173e-01  -7.3619363e-01   1.5731462e-01  -2.6125668e-01   1.0967748e-01  -6.1028602e-01   2.6611200e-01   9.5782709e-01  -7.6493504e-01   4.2677208e-01  -8.4303553e-01   4.3547419e-01   5.6401870e-01  -8.2693100e-01  -4.4982739e-01   7.3209343e-01   1.1700022e-01   1.1197576e-01   8.8081621e-01   4.1726414e-01   4.2772876e-02  -1.0809436e-01   2.5913872e-02  -9.4022772e-01  -6.8300869e-01   3.6897748e-01   3.9189543e-01   3.7812386e-01   8.6403723e-01   2.2373186e-01   3.6646320e-01   3.7331640e-01   3.5647397e-01  -2.8912575e-01   4.3647722e-01   3.7854212e-01  -3.2607030e-01   4.9377807e-01   3.1861747e-01  -7.3959505e-01  -2.0951579e-01   4.0104807e-01  -3.9012572e-01   8.1900524e-01   2.6169517e-01   7.3579040e-01   8.3495479e-01   4.3803473e-02  -4.4734327e-01  -8.3454487e-01  -7.7896705e-01  -8.7498642e-01  -2.2035116e-01   7.5054625e-01   3.6883216e-01  -2.3871505e-01  -6.5209340e-01  -1.8681221e-01   4.9494633e-01   4.5326688e-01   4.0343732e-01   4.1569223e-01   1.7725124e-01  -4.8039641e-01   6.4176057e-01  -3.0756510e-01   5.6160092e-01  -8.7284208e-01   1.2960769e-01  -5.7575882e-01  -4.5469517e-01   1.8287608e-01  -9.9528555e-01  -6.5056837e-01   3.3765778e-01  -4.7734270e-01  -1.5249677e-01   6.4861214e-01   5.6275536e-01   4.8345137e-01   6.8770411e-01   1.1469921e-01   1.5794321e-01   8.0518139e-01  -4.3740005e-01  -6.1662326e-01  -4.4928911e-02  -9.3283555e-01   5.6765506e-01  -4.1926440e-01   9.0890977e-01  -3.0600779e-01  -4.1532112e-01   6.7296077e-01  -1.6761035e-01  -5.3625777e-01  -7.4682650e-01  -3.0523332e-01   1.0106073e-01  -2.9726097e-01  -7.8068476e-01  -8.1552257e-02   8.2507675e-01  -4.1862180e-01  -1.1811888e-02  -1.9174286e-01  -7.0004424e-02   7.6259206e-01  -9.3098362e-02   5.9933816e-02   3.7701964e-01  -2.9738206e-04   1.7874079e-01   1.1635263e-02  -3.1390617e-01   2.0416875e-01  -7.0100713e-01   8.6633654e-01   9.1788674e-01  -5.5478132e-01  -5.9084555e-01   2.9089658e-01   7.3327726e-01  -6.1638462e-01   5.9600638e-02   9.8555593e-01   8.7382678e-01  -8.8161203e-01  -5.6977336e-01   7.6712663e-02  -3.5711877e-01   3.6931675e-01  -3.5985016e-01  -6.5916139e-01  -5.2681827e-01   3.5169763e-02   4.3173241e-01   3.0961330e-01   8.8398168e-01  -9.3482470e-01   8.7663974e-01   7.3630275e-01   4.5031721e-03  -2.6357879e-01   7.6130855e-01   7.8345994e-01   2.2768114e-01   1.5145155e-01  -1.6461828e-01  -9.5456980e-01   6.7292733e-01  -8.9828232e-01  -6.9752626e-01  -6.2688440e-01   6.9619723e-01  -9.8647347e-01  -2.0186669e-01   4.1147983e-01  -7.9953857e-01  -3.0691331e-01   8.5069613e-01   8.9813223e-03  -1.9381535e-01  -1.4259727e-01   1.4316520e-01   7.5164975e-01   3.9584863e-01   4.7573550e-01   4.0165590e-02  -6.6433709e-01   8.3360154e-01  -8.3993812e-01   9.7378495e-01   8.3030918e-01   1.8458631e-01  -9.8645053e-01  -4.4767620e-01  -5.5952364e-01   2.8618737e-01  -2.8576324e-01  -4.9253455e-01  -1.4885108e-02   9.2620157e-01  -1.1806390e-01  -6.7596664e-01   8.8323483e-01  -7.8650785e-02   8.9406086e-02   1.8299227e-01   9.3971982e-01  -2.2298426e-01   6.3936451e-02  -9.3354207e-01   1.2936804e-01   6.0982277e-01   4.0114243e-01   8.6142571e-01  -4.6792896e-01  -4.6090529e-01  -1.1920704e-01   7.9053271e-01   2.2606154e-01  -4.6644415e-01   3.8612921e-01   3.6649284e-01  -4.3245863e-01   1.0538344e-01   8.8456947e-01  -1.9947793e-01  -5.2062850e-01   9.7760670e-01  -2.1170307e-02   5.5006582e-01  -2.4116561e-01   2.7701098e-01   7.6408886e-01  -8.8803865e-01  -3.1165429e-01  -8.3465940e-01   3.2002788e-01   4.2987908e-01   4.2517017e-01  -5.7181910e-01   8.7369489e-01   8.6950638e-01   9.0592352e-01   1.2209928e-02  -2.0884486e-01   7.7351128e-01   7.2661472e-01   9.1337600e-01  -3.8866419e-01  -7.4566507e-01   4.1140523e-02   8.5414981e-01   4.4308535e-01   9.8398326e-01   9.0905159e-01  -8.0561842e-01  -9.2600428e-01  -8.2510862e-01  -9.3901228e-01  -1.4112883e-01  -7.2018917e-01  -2.3123841e-01  -6.5295157e-01  -3.9687826e-01  -5.1016354e-03  -9.1552135e-01  -1.4378363e-01  -7.0959206e-01   1.5301995e-01   2.9759732e-01  -2.0454654e-01  -4.4361116e-01   7.7690731e-01   8.8663089e-01  -6.3103823e-01  -6.2850222e-01   5.7366224e-01   4.3770970e-01  -6.0076209e-01  -8.7211379e-01  -7.8301940e-01   4.5243661e-01  -1.1177170e-02   1.7633526e-01  -2.4255306e-01   5.4903841e-01  -1.4706486e-01   4.8798586e-02   1.8658282e-01   5.0423571e-01   3.8753740e-01  -4.7659029e-01   2.4447712e-01  -7.6022867e-01   8.4321616e-01   7.2401510e-01   8.8662445e-01   7.9754297e-01  -9.2662782e-01  -2.6948314e-01  -7.5893823e-01   1.5809496e-02  -2.8440804e-01   1.8451138e-01   1.5032961e-02  -1.7775078e-01   1.4893987e-01  -1.5301882e-01  -6.3277563e-01  -5.8385204e-01   1.1188328e-01  -7.4700091e-01  -3.5395422e-01   8.7742173e-04  -4.7211690e-01   5.2919357e-01  -2.5027687e-03  -6.9579952e-01   6.9927827e-01  -1.5150474e-01   2.2763988e-01   5.9713234e-01  -7.4104943e-01  -4.8648667e-03  -4.5803813e-01   4.8693065e-01  -3.3323779e-01   5.2570278e-01   7.1495132e-01  -3.8889236e-01  -9.7484387e-01  -9.7823070e-01   5.2387982e-01  -8.7585072e-01   4.6292092e-01  -8.5318066e-01  -9.8286778e-01   1.3063726e-02   2.5848086e-01  -3.1551753e-01   3.7810618e-01  -1.5332446e-01  -4.6525339e-01   8.3989520e-01  -4.2431611e-01  -2.0594469e-01  -7.6859796e-02   7.3856152e-01   1.0973801e-01  -3.4202359e-01  -6.4568309e-01   5.4842946e-01   3.0906035e-01  -2.9450622e-03   3.6673764e-01  -2.8457170e-01  -3.7913270e-01   1.6992139e-01  -4.4638743e-01   5.6170151e-01   5.6471033e-01  -7.7638174e-01   1.5709990e-01  -2.4566485e-01   4.3835210e-01   5.3964611e-01  -5.7021003e-01  -1.2754428e-01  -3.7658070e-01  -8.7696927e-01   9.4996853e-01   3.6562982e-01  -7.8756541e-01   7.5565070e-01  -6.6586109e-01   2.1568093e-01  -2.9583758e-01   8.3128944e-01   9.5794746e-02  -1.7125201e-01   1.8009839e-01   4.4524528e-01   7.0963301e-01   5.3202418e-01   3.3231465e-01   5.4434488e-01  -5.3617235e-01   5.7421715e-01  -4.0848187e-01  -5.4662051e-01  -2.5734278e-01   1.0609062e-01   5.4726511e-01   8.1222146e-01  -4.5694092e-01  -4.8268959e-01  -8.2794500e-01   3.0435532e-01   6.8942706e-01   4.3886540e-01  -1.5159915e-01   1.9211145e-01  -1.6765277e-01   6.5389079e-01  -6.3443502e-01  -4.5682616e-01  -9.2304995e-01   1.2595019e-01  -1.7484820e-01   2.5823467e-01   8.7971604e-01  -3.6426887e-01   5.8699863e-01  -9.0558546e-01   1.2644038e-01  -4.7350912e-01   2.3184240e-01   1.2549822e-02   9.4598534e-01  -2.7535954e-02   9.5270147e-01  -5.4960256e-01   1.1933573e-01  -1.3659973e-01  -5.9931994e-01  -2.0626135e-01   8.9769620e-01   5.5765278e-01  -3.1265372e-02   1.0677726e-01   3.6763646e-01  -9.3100191e-01   9.2550740e-01   8.3118343e-01   8.8806255e-02   1.3123798e-01   1.1671771e-01   3.7009835e-01  -6.0297343e-01  -1.3525867e-01  -6.7494784e-01  -6.4463931e-01  -1.1183882e-01   9.3649767e-01   7.2308543e-01  -3.8153349e-01   5.5991799e-01   5.3566274e-01  -9.5195262e-01   9.6955387e-02  -2.2866605e-02  -6.6962421e-01   8.0639405e-01  -9.6763368e-01  -3.7378406e-01  -3.8627266e-01   5.6524384e-01  -7.7706719e-01   9.1748344e-01  -5.3826195e-01  -6.3373204e-01  -7.1243809e-01   8.5545186e-01  -6.8022278e-01   8.9564805e-01  -6.8951326e-01   7.6377053e-01   5.1422655e-01   4.8946273e-01   5.8507003e-01   6.7719653e-01  -3.0793186e-01  -5.0610904e-01   4.1207772e-01   3.9447943e-01   9.0563819e-01  -2.9031477e-01   3.1855453e-01   7.1524258e-02   8.3108533e-01   9.7944546e-01  -7.5816266e-01   2.9828133e-01  -9.5848571e-01  -6.5404782e-01   6.5510179e-02  -6.4386086e-01   1.3620222e-01   7.3087358e-01   6.5446088e-01   2.7113840e-01   5.3652714e-01
   7.4905965e-01   5.3179552e-01  -4.9884789e-01   3.5982004e-01   7.7139886e-02  -8.7495454e-01   9.6523348e-01  -7.0686568e-01   8.9344997e-01  -7.9877882e-01   1.2984190e-01   9.8444718e-01   3.1966109e-01   5.7525777e-01  -5.2377783e-01  -7.6344944e-01  -2.2859291e-01   7.2271260e-01  -7.8389357e-01  -9.6024090e-01  -6.0115909e-01   9.5725180e-02  -8.5279194e-02  -5.4107117e-01   3.6063061e-01  -8.4893096e-01  -4.5864171e-01   7.2952893e-01   3.6162640e-01  -8.4346404e-01  -3.9206259e-02   5.0091868e-01  -2.5653759e-01   9.1117290e-01  -6.0361759e-01   5.7338094e-01  -7.4339820e-01  -3.5041268e-01   9.5372573e-01  -7.7331292e-01   6.6421817e-01   6.0708945e-01  -7.2706925e-01  -9.1841667e-01  -2.2596989e-01  -3.7007002e-01   3.4073687e-01  -9.2900682e-01   7.4194595e-01  -9.2663096e-01   8.9415146e-02  -9.9313149e-01   8.8194066e-01  -8.9695031e-01   9.9177621e-01  -9.5367843e-01  -4.0682373e-01  -3.3972972e-01   5.3303353e-01  -8.1014176e-01   8.5482017e-01  -1.3659535e-02  -5.4452526e-01   9.7097484e-01   2.5940726e-01  -1.6441302e-01  -1.3142911e-01  -9.8720697e-01  -7.9963894e-01  -7.9810534e-01  -7.6355209e-01  -4.3927784e-01  -9.1017471e-01   1.7326531e-01  -1.8381048e-01  -9.0712048e-01  -9.3415942e-01  -6.3578631e-01  -7.7850939e-01   2.4857748e-01  -9.6342091e-01  -6.1640751e-01  -3.6468175e-01   8.6526276e-01   7.9443935e-01   8.2465057e-01   9.3190297e-01  -1.5345322e-01  -1.1117522e-01  -7.3705073e-01   1.5885643e-01  -1.4567032e-01  -5.8194706e-01  -5.8478416e-01   4.2050368e-01   4.0011194e-01   3.0306351e-01  -9.7824576e-01  -2.7366618e-01  -1.4499872e-01   1.9092180e-01  -8.5070875e-01   8.4379671e-01  -1.6319955e-01  -8.2009123e-01  -3.0735574e-01  -3.8268443e-01  -7.2040708e-01  -2.7404802e-01   2.1535598e-01   6.1957723e-01   3.1956028e-01  -3.0549257e-01   6.7069993e-01   4.1624427e-01   2.7315248e-01  -9.1818464e-01   2.5036745e-01   1.4394881e-01  -7.7943482e-01   5.7754660e-01  -7.7865759e-01   7.6467904e-01  -6.3101090e-01  -3.5580770e-01   2.6151226e-02  -2.6917413e-01  -9.1876724e-01   7.1209461e-01   5.1870316e-02   9.0919363e-01   4.0026394e-01   5.6011069e-01   7.5546305e-01  -9.9676039e-01  -3.3885003e-02  -6.9679095e-01   9.8457526e-01   2.0829417e-01   3.2153213e-01  -7.4459277e-02  -9.5170069e-01   5.9670995e-01  -4.0741249e-01  -6.0582315e-01   6.3861892e-01  -4.5396861e-01   5.7312157e-03  -6.8239454e-01   4.0505518e-01  -1.6305962e-01   6.1594372e-01  -7.0736222e-01  -5.9557357e-01  -9.5314097e-02  -8.1120348e-01  -9.7973095e-01   7.4975579e-01  -9.7172870e-01   3.9532954e-01  -8.7669220e-01   9.3720164e-01   5.7663067e-01  -2.9414249e-01  -1.6948754e-02   5.1640135e-01  -5.5522347e-02   4.5408929e-01   9.3183855e-01   3.5978240e-01   2.8989913e-01  -5.4685044e-01  -7.4645476e-01  -5.8576297e-01  -3.1817319e-01  -8.1314866e-01   4.5443434e-01  -5.0428329e-01   9.1399864e-01  -9.6428699e-01  -3.5827349e-01   3.9050024e-01   3.4910205e-01   8.7590573e-01  -6.6580991e-01   6.1723873e-01   5.8430618e-01  -2.1200578e-01   6.1765537e-01   9.1235629e-01   7.3466963e-01   4.3886869e-01   6.1043900e-01   3.5729342e-01  -5.0717694e-01  -8.3692956e-01   1.7548576e-01  -5.2058501e-01   6.7036763e-01  -3.5553313e-01   7.2059505e-01   6.6681638e-01   8.6979103e-01  -6.4570500e-01  -1.0021761e-01  -7.2598324e-01   3.9636987e-01  -5.1781418e-01  -9.7613060e-01  -1.7633322e-01   3.4464473e-01   6.8420478e-01  -1.6600447e-01  -5.6287088e-01   8.6598872e-01  -8.2752869e-01   2.5537806e-01   1.6566931e-02   1.6499501e-01  -2.8261202e-01   8.2042958e-01  -7.8716616e-01  -3.5733707e-01  -1.7404859e-01   9.1866277e-01  -4.3881919e-01  -3.0338585e-01  -9.2003635e-01  -9.0459372e-01  -7.5764609e-01  -1.0597619e-01  -4.1524427e-02  -5.1149131e-01   8.3264708e-01   8.1744857e-01   5.6321669e-01   7.5142958e-01  -1.8444221e-01  -9.9246453e-01   2.0153621e-02   6.5919868e-01  -5.1029455e-01   4.5677649e-01   2.6634477e-01   6.7480233e-03  -9.0625575e-01   7.7519304e-02  -6.9497229e-01  -5.6158415e-02  -4.6119336e-01  -6.9754738e-01  -1.1543410e-01  -5.3876412e-01  -4.8483729e-01  -8.5781529e-01   5.2486435e-01   5.8780405e-01  -3.2725726e-01   3.6427724e-01   7.9417464e-01  -7.0974398e-01  -3.1946206e-01  -6.8518436e-01   4.4506729e-01  -7.4590044e-03  -1.2687100e-01   6.5300839e-01   7.9144585e-02  -1.6225902e-01   2.6888787e-01   9.7123373e-01  -8.5052010e-02  -5.1739200e-02   4.1455357e-01  -4.2578903e-01  -9.4242786e-01  -9.4714577e-02  -1.5947710e-01   2.9966056e-01   7.5860102e-01  -8.7398049e-01   1.4852457e-01   9.3757856e-01  -6.9212735e-02   7.5911378e-01   2.6657549e-01   1.8087320e-01   5.0166767e-01  -5.1860860e-01   5.9226991e-01  -1.5780410e-01   7.8421178e-02  -6.5025039e-03  -9.9097658e-01   5.4057605e-01   8.1225469e-01  -3.7860815e-01  -3.0868538e-01   6.1757039e-01   5.5569137e-01  -1.6396713e-01  -8.6541338e-01   1.7998377e-01   7.8182093e-01   7.8461236e-01  -3.3668323e-01  -8.9657010e-01  -6.1415717e-01  -1.2348044e-01   5.2681261e-01  -8.3600628e-01   4.1181997e-01  -6.4875174e-01  -5.3840860e-01   2.7954460e-01  -4.4095786e-01  -3.5484147e-01  -9.2146711e-01  -2.3917241e-01   2.2385903e-01   9.3418783e-03   5.4078975e-01   1.0658816e-01   1.5973374e-01  -8.7540121e-01   1.1367334e-01  -5.4829456e-01  -2.6624649e-01   1.5557806e-01  -3.5073293e-01  -1.4633881e-02   3.6474043e-01  -4.4675870e-01  -6.4388744e-01   7.6574321e-01  -4.8049770e-01  -6.4280728e-02   2.7092961e-01   8.0326043e-01  -8.0695671e-01   9.0204790e-01  -5.3368892e-01  -5.2053480e-01  -4.7708107e-01  -1.5193517e-01   8.7056156e-01   8.0943555e-01  -9.1734207e-02  -7.6386180e-01  -1.8271651e-01  -6.0842585e-01  -2.4909876e-01   9.3079258e-01  -3.8768211e-01   8.5590204e-01   1.2918418e-02  -5.8544267e-01   2.2211673e-01  -4.8919489e-01  -5.7849428e-01  -5.8683697e-01  -2.0660584e-01   6.1706601e-01   5.4071278e-01   4.2279723e-01   8.7910211e-01  -2.4885257e-01   7.2438910e-01  -2.9240062e-01  -9.1624556e-01   8.2376252e-01   3.1477596e-01  -8.9327636e-01   4.6487213e-01   3.4469763e-01   9.8699594e-01  -4.1340787e-01  -5.9930284e-01   5.2118485e-01  -1.6325897e-01   1.9792896e-01  -3.2356771e-01  -9.0507434e-01  -4.5693043e-01  -8.6442371e-01   9.3862659e-01   4.8081118e-01   3.1090148e-02  -3.5623446e-02   5.2340819e-01   6.0421169e-01  -6.7355004e-01   9.3408800e-01   4.5773988e-01  -4.5907926e-01  -2.8821119e-01  -8.1552438e-01   2.2324547e-01   5.3682305e-01   4.2032631e-01  -1.5200999e-01   1.3835463e-02  -6.8845948e-01   3.5657761e-02   8.9575762e-01   6.7002025e-01  -2.1687056e-01  -7.3965225e-01  -7.8014452e-01   4.2819821e-01  -7.5200364e-01   4.8126777e-01   7.9601857e-01  -7.1819265e-01   9.6031588e-01  -3.6628654e-01   3.3239498e-01  -8.9417406e-02  -3.6423744e-01  -1.3276257e-01   7.2249230e-01  -8.6297580e-01  -4.8717808e-01  -1.1495209e-01   5.9110511e-01  -5.7762967e-01  -7.1684702e-01  -4.1347063e-01   8.2414284e-01  -2.5923184e-01   6.5164195e-01   7.9666098e-01   8.9850389e-01   1.1228674e-01  -8.6266888e-01   4.5396048e-02  -8.5643715e-01  -7.4794862e-01   8.9630044e-01   9.1270169e-01  -7.1155890e-01   4.3864184e-01   3.1682603e-01  -5.7350143e-01  -2.0628025e-01   7.1927303e-01   9.6762543e-01  -9.0509999e-01   1.4333595e-01   1.8938077e-01   4.6732300e-01   8.6950692e-01   7.8681753e-01   7.7391452e-02   6.3468998e-01  -1.4683116e-02  -3.0429715e-01   6.2725799e-01   5.5049612e-01   4.0854536e-01  -1.0024475e-01   9.1168636e-01   3.5559180e-01  -9.8491414e-01   1.1390631e-01  -2.5650876e-01   1.6428610e-01  -4.3579011e-01   6.1655090e-01   1.0538187e-02  -5.9429531e-01   9.5580192e-01   3.2180600e-01   9.8733509e-01   3.0967630e-01  -7.6468325e-01  -7.4498328e-01   7.9859698e-01   1.3644216e-01  -5.1506964e-01   2.7977583e-01   6.1216001e-01   9.2456718e-01  -4.4678975e-01   2.6222111e-01   8.4899185e-01  -4.0018020e-02  -8.7547215e-01  -1.0252951e-01  -1.7266940e-01   9.4707738e-01  -7.1212146e-01   1.0854948e-01   5.8920627e-01  -1.6221014e-01  -5.8877325e-01   5.4909654e-01   7.8052323e-01   9.0819987e-01  -4.5208192e-01  -1.6659903e-01  -6.5868125e-01  -2.6260299e-01   1.1995663e-01   5.5748512e-01   4.5776517e-01  -2.0609329e-01   3.9229208e-01   4.6794584e-01  -3.0458568e-01  -6.6080273e-01   3.3993376e-02   3.8642679e-01  -8.5796763e-01   6.9913066e-01   4.6952902e-01  -6.6600590e-01  -2.0680315e-01  -6.7182448e-01   1.5104252e-01  -6.7400124e-01   1.6434483e-01   9.4988337e-01  -3.7446403e-01   8.0114899e-01  -1.0771098e-01  -2.6484557e-01   5.2645372e-01  -1.7582247e-01  -4.7295931e-01   4.3838222e-01   4.1816468e-01   6.0438119e-01  -1.0829413e-01   9.5372948e-03  -8.9620952e-01   7.2098933e-01  -4.7749293e-01   8.1540205e-01  -1.7523134e-01  -4.5713984e-01   7.2173341e-01  -4.5787470e-01  -5.3478466e-01  -7.8630423e-01  -8.1943549e-01   7.5635053e-01  -7.8614649e-01   3.7631888e-01   8.6187129e-01   5.7466987e-01   6.2145908e-01  -9.6003400e-01   5.9754873e-01   1.0951946e-01   8.5206246e-02   7.2947585e-01  -7.4282182e-01   3.4511541e-02   8.4034457e-01  -9.6890527e-02   6.0993842e-02   1.5120004e-01  -5.1776074e-01  -6.6244560e-01  -9.4232200e-01  -1.0353427e-01   4.8928454e-01  -6.7395032e-01   3.7925635e-01  -7.8485316e-01  -3.7990192e-01  -4.6315388e-01   7.3430474e-02  -1.7416548e-01  -2.3735577e-01   8.5799427e-01   7.7641473e-01   8.4206548e-01   4.7970053e-01  -9.0422587e-01   4.5112628e-01   1.7397963e-01  -2.9533622e-01  -5.6085753e-01   8.3575263e-01   9.3471363e-01   1.1221019e-01  -9.9060557e-01  -2.7290089e-01   4.3021890e-01   3.0862494e-01  -6.5741117e-01   3.6476063e-01  -9.8957907e-01   2.8909049e-01   8.8598231e-01  -5.7510521e-01  -4.4612975e-01   5.5799820e-01   9.5069132e-01   9.1351730e-01   5.5861118e-01  -3.6765645e-01  -6.8338236e-01   1.3623827e-01  -5.7750552e-01   5.8939012e-01   5.9221537e-01  -3.2276803e-02   1.9910547e-01   4.6580465e-01  -5.2180208e-02  -4.1368901e-01  -4.7176178e-01   1.6815531e-01  -4.9405056e-01   5.0719817e-01  -9.2186281e-01   3.8066805e-01  -3.4977907e-01  -3.6167556e-01  -7.4165450e-01  -3.5417960e-01  -3.8042480e-01   4.8640245e-01  -5.0761272e-03   7.3341215e-01   6.2848436e-01  -6.0673583e-01  -6.4519314e-01  -8.9177276e-01  -1.0449847e-02  -9.1186682e-01   9.2754760e-01  -3.6181043e-01  -8.5322221e-01  -7.9183540e-01  -9.9780934e-01   1.4067829e-01   7.8392918e-01  -5.2473294e-01  -1.9928186e-01   7.1790325e-01   6.0568140e-01  -9.5555014e-02   5.1968443e-01  -2.0446606e-01   7.5164575e-01   2.0073632e-01  -2.8551034e-01  -1.5210429e-01  -1.4857242e-01  -5.1168419e-01  -9.3319314e-01  -3.3631034e-02   1.7559188e-01   6.4934451e-01  -4.2951829e-01   3.5087697e-01   2.1651916e-01  -2.0136410e-03  -5.1153954e-01  -7.9479844e-01   5.4006024e-01  -8.8935886e-01   7.8721737e-02  -5.3540990e-01   7.4394747e-01  -2.8825780e-01   3.8956921e-01   1.8524678e-01  -5.6014867e-01   5.3190083e-01   8.5872977e-01   4.8478151e-01  -2.8952212e-01   4.5951902e-01   5.6556495e-01   4.0936059e-01   9.6871086e-01   9.8935350e-01   1.4616399e-01   6.6072060e-01  -8.4929913e-01  -2.0160816e-01  -9.8319390e-01  -7.6401666e-01   7.0428582e-01   3.5873060e-01  -2.6962894e-01  -8.8055340e-01  -9.1311500e-01   8.3372345e-01   5.2363831e-01  -9.7570174e-01   6.0486444e-01  -1.5687996e-01   9.6861031e-01   7.0638695e-01  -5.7566907e-01   9.0517850e-01  -5.0292384e-01   9.6174280e-01  -4.1149626e-01   5.5446375e-01   3.8393914e-01  -7.4372313e-01  -6.3536355e-01   5.5980849e-01  -8.4401780e-01  -2.9674100e-01  -4.2189201e-01   5.8289578e-01  -5.1333046e-02  -2.2922324e-01  -6.0534412e-01   5.8652249e-01   5.5719136e-03  -9.3346333e-01  -9.4343450e-01  -2.2515258e-01   8.9076332e-01  -4.4127677e-01   2.6876555e-01  -1.5942925e-01   3.2966245e-01   3.7202808e-01   3.7688002e-01  -6.0158313e-02  -9.7724145e-01   3.4435238e-01   4.9468395e-01  -8.4906630e-02  -9.5108374e-01  -1.9821202e-01   9.5561119e-01   3.1302834e-01  -3.6378504e-01  -7.1829891e-01   4.1135858e-01  -5.5669100e-01   6.2607838e-01  -3.4239210e-01   8.0828355e-01   3.3532626e-01   8.1081137e-01  -8.8524000e-01   2.7092775e-01   2.8906138e-01  -8.8862482e-01  -7.5729722e-01  -6.4637686e-01   6.4869423e-01   3.0736570e-01   6.7070835e-01  -3.1262225e-01  -8.0385744e-01  -4.3680404e-01   6.6346594e-01   3.3678869e-01   6.3123299e-01  -4.0994476e-01   7.3459859e-01  -9.1478966e-01   4.2139612e-01   7.3230419e-01  -1.7436616e-01  -2.4631018e-01   4.0225132e-01   2.1801223e-01   4.3809989e-01  -8.4080867e-01   6.0155266e-01   4.5858415e-01   1.1124314e-01   9.1770094e-01  -4.9501866e-01  -2.9826255e-01  -9.9028273e-01  -5.8000725e-01  -6.2236328e-01  -6.0746101e-01   4.3929238e-01  -9.2419504e-01  -4.5421236e-01  -8.8944212e-01  -8.5384999e-01   6.4196653e-01   2.5337736e-01   7.9357823e-01  -5.6567603e-02   9.1328344e-01   9.5617327e-01  -2.1735799e-01   4.6919231e-02  -6.8811946e-01   4.6958661e-01  -5.8644612e-01   2.9768515e-01  -2.5437867e-01  -6.9481759e-01  -1.5759413e-01  -1.3704479e-02   9.5798932e-01  -5.0997513e-01   3.8184082e-01   6.5502202e-01  -4.0880010e-01   5.9907611e-01   9.5245190e-01   2.9321020e-01  -6.6599217e-01  -5.3026945e-02  -9.6393524e-01   6.3264449e-01  -2.9638183e-02  -2.7239547e-02   3.5218875e-01  -2.4617722e-01   1.4916633e-02   7.5701948e-01   9.9565708e-01  -4.3871509e-01   4.2597063e-03  -7.4951068e-02   7.3830101e-01  -2.6425878e-02   6.6282641e-01  -1.1752380e-01  -7.2056972e-01   5.9957321e-01   3.1396090e-01   4.5706383e-01  -6.6847857e-01   5.0308512e-01   3.4747942e-02   7.0631429e-01   4.1426316e-01   3.8273052e-01  -7.9008740e-01  -8.6662189e-02   5.6757476e-01  -2.0044506e-01  -5.4688269e-01  -6.9506770e-01  -5.1181588e-01   7.1818775e-01   2.0203397e-01   8.0200515e-01  -3.5793105e-01  -8.3621056e-01  -4.9291528e-01   3.1213858e-01  -4.4584705e-01   7.9171993e-01   9.4381682e-01   9.4838819e-01  -5.8824634e-01   9.3969507e-01   4.1974905e-01  -5.2003068e-01  -5.6320322e-01  -6.7257676e-01  -8.8277320e-01   6.3657790e-01   8.5527513e-02   4.6920255e-01  -6.0508514e-01   1.9951818e-01   8.3586115e-01  -6.5936252e-01   1.8957233e-01  -2.2980048e-01   2.9289649e-01   1.1674568e-01   1.5573469e-01   1.9682498e-01   5.7049434e-01  -6.0310726e-01  -4.4362728e-01  -8.6653763e-01  -8.1628588e-01  -9.9020575e-01  -5.1215760e-01   6.5697684e-01   6.6474016e-01  -1.5682962e-01   3.1563518e-01   1.6754070e-01   2.5658354e-01   7.0090241e-01   9.6187153e-02   9.3904338e-01  -3.9162203e-01  -9.5073831e-01   6.5558679e-01  -7.9729911e-01   6.0250821e-01  -1.3210956e-01  -5.1996973e-01  -1.3130990e-01   8.1645399e-01   1.2021704e-01   1.9561806e-01  -8.7768302e-01   1.6166755e-02   6.2657600e-01  -2.7604852e-01  -7.2213320e-01   7.0962995e-01   4.0272561e-01   4.4828326e-01  -2.0045389e-01  -2.2421669e-01   7.8307865e-01   1.8537464e-01  -6.0729826e-01  -1.8720929e-01   3.5723030e-01   7.3153471e-01  -3.5933327e-01   9.0867836e-01  -9.6140033e-01  -6.2028827e-01   1.6462122e-01   4.1835436e-01  -6.5852236e-01   4.6626303e-01  -3.5939816e-01   4.1291998e-01  -8.4260606e-01  -6.6689265e-01   8.3275717e-01  -7.8638886e-01   5.9448138e-01  -5.9798578e-01  -8.8602980e-01   3.3227534e-01  -7.6370171e-01   4.1754323e-01  -8.6407217e-01  -1.4537426e-01  -5.8469087e-01  -9.5017959e-01  -7.5358513e-01  -4.0158593e-01   3.2283300e-01  -5.5364418e-01  -9.8627336e-01   9.9369884e-01  -2.9209095e-01   3.5740410e-01  -2.7560631e-01  -3.5310525e-01  -1.3668908e-01   7.4475569e-01  -5.0951134e-01  -4.7158154e-01  -7.1426881e-01  -7.1447569e-01  -3.2041281e-01   8.5473258e-02  -6.9928157e-01   4.2591076e-01  -1.6852323e-02  -8.6456982e-02  -3.4678784e-01   9.3745518e-01   5.1947722e-02  -6.6277648e-01   8.8874757e-01   4.5869111e-01   6.3879138e-01   9.0725436e-01  -3.6668845e-01  -1.4404187e-01   9.9678661e-01  -5.1041382e-01  -7.5502910e-02   4.4400188e-01  -3.3402295e-02  -2.4316587e-01   6.6709598e-01   9.1822963e-01   5.6658078e-02  -9.8464354e-01  -6.2689964e-01  -1.8967748e-01  -1.5881205e-01  -6.1816460e-01  -5.2359380e-01   3.2291289e-01  -5.3134907e-01  -5.7689603e-01   2.1806862e-01  -2.5704137e-01  -9.8131225e-02   9.5867141e-01  -8.8508760e-01
  -1.1649854e-01  -4.2548469e-01  -2.3889927e-01   9.8463232e-01  -6.3977158e-01   4.0294722e-01   1.0860477e-01   2.9933660e-02  -5.3987705e-01  -9.0924293e-01   5.2743744e-01   7.3041007e-01   9.2238010e-01  -5.1837154e-01   3.7986404e-01   7.8459348e-01   4.7665522e-01   9.5759739e-01   6.7650767e-01  -2.7761991e-01  -2.5322029e-01   6.1009419e-01   9.4007317e-01   9.0632168e-01   8.7147638e-01  -7.7358979e-02  -3.3978110e-01  -2.1457774e-01  -7.4351210e-01   2.0222924e-01  -7.7546002e-01   8.8545807e-01   6.4410900e-01   2.6321744e-01  -4.8976236e-01   1.9090072e-01   2.8554596e-01   3.8620136e-01  -7.2229765e-01  -7.8035398e-01  -1.5123989e-01  -5.6418505e-01  -3.5593258e-01  -7.4527522e-01  -7.0678332e-01   2.6382332e-01   3.3518352e-01  -5.7136698e-01   2.9198257e-01   1.2014911e-01   5.2206534e-01  -4.6182875e-01   1.5658678e-01  -4.6062880e-01  -2.0555443e-01   9.0078702e-01   3.7083195e-01   8.0018562e-03   8.0029715e-02   4.7401201e-01  -3.7867042e-01   9.8545438e-01   4.0884227e-01   1.3162824e-01  -7.0210621e-02  -3.4249024e-01   5.2651000e-01   7.5315971e-01  -4.3637810e-01  -7.0062667e-01  -1.1865168e-01  -6.0887872e-01   7.6094826e-01  -3.8767747e-01  -7.3511427e-01   2.7783742e-01  -8.9644726e-01   3.8873729e-01  -8.9149910e-01   9.5942224e-01   1.2125524e-01   4.5680959e-01   3.1691218e-01  -8.6189888e-01   1.4772853e-01   7.6348315e-01  -1.7562152e-01  -8.2249193e-01  -9.6460723e-01   4.9703960e-01   5.8834505e-01   6.2225378e-01  -9.7637091e-01   4.4366638e-01   5.4154575e-01   2.9917074e-01   9.7076800e-01   6.6641923e-01   9.9716356e-01  -2.1441176e-02   2.4292586e-02  -1.6561704e-01  -2.4122979e-01  -6.8676811e-02   2.8565301e-01  -9.0201199e-01  -5.3523373e-01   6.7795687e-01  -6.0060480e-02  -1.7930303e-01  -7.9678890e-01   7.9263219e-01   4.2115961e-01  -7.1867874e-01  -6.7246698e-01  -7.7550307e-02   9.3694253e-01  -8.1861210e-01  -9.0093164e-01  -2.6249078e-01  -7.7760506e-01  -8.0147509e-01   1.0138467e-01  -6.6102941e-01  -4.8731431e-01  -2.8340523e-01   6.6609866e-01  -7.3723723e-01  -1.7276437e-01  -8.1183268e-01   1.4443667e-01  -4.9194291e-01   6.5331946e-01   1.1228621e-01   9.6843285e-01   4.6507650e-01   7.6614792e-01   5.2954421e-01  -1.0806154e-01   4.4624647e-01   1.5715174e-01   2.0867106e-01  -5.7147438e-01  -3.3827501e-01  -2.7623081e-01   5.4885444e-01  -8.5632077e-01  -7.0020514e-01   4.3661299e-01   5.0511625e-01  -7.3630761e-01   1.6494414e-01  -7.7234606e-01  -7.3469892e-01   8.9669989e-01  -4.1512473e-01   1.1729248e-01  -9.4947040e-01   7.3009883e-01  -5.8229598e-01  -5.0318147e-02  -9.2938333e-02   3.6521672e-01   1.3079695e-01  -1.8616592e-01   6.7437860e-03  -8.8123944e-01  -3.2193241e-01  -9.0030488e-01  -2.4678453e-01  -6.1795354e-01   7.3797278e-01  -1.8599464e-01   9.8532880e-01   4.9231889e-01   7.7854748e-01  -2.1202987e-01   1.4083287e-01   8.8057374e-01  -3.5712978e-01  -8.8414066e-01  -9.6740737e-01  -6.6715386e-02  -1.8617302e-01  -6.3754595e-01  -8.0897062e-01  -2.5498425e-01   6.7874905e-01  -1.7979434e-01  -1.6146798e-01  -4.9906111e-01   6.5740258e-01   7.3542271e-01  -6.9962554e-01  -2.5976271e-01   5.7608542e-01   3.6793386e-01   4.1145268e-01   8.0708911e-01  -9.7737121e-01  -4.8338471e-01  -4.6506385e-01   5.7718033e-02   8.6168574e-01   7.3724482e-01  -8.6686122e-01   2.6667920e-01   6.4523115e-01  -4.8018515e-01  -3.2017425e-01  -2.2575129e-01  -7.7766909e-01   4.9101517e-01  -7.2512572e-01  -4.0593266e-01  -3.2776276e-01  -7.3268779e-02   5.7716052e-01  -5.5100498e-01  -1.1926743e-01  -8.8328283e-01  -9.9277051e-01   7.0160733e-01  -8.8619484e-01  -2.6547238e-01  -5.4651537e-01  -6.7899867e-02  -2.7804161e-01   4.3693632e-01  -4.4720755e-01   1.8888299e-01  -3.1943822e-01  -9.7984551e-01  -4.0625974e-01  -5.7042240e-02   4.7544169e-01   7.0116480e-01   8.2804425e-01   1.6456206e-01  -4.5570816e-01  -9.4110829e-01  -6.0183793e-01   3.8961974e-01  -6.7390562e-01   9.8195002e-02  -3.4560048e-01  -7.3814211e-01  -8.1159836e-01   2.5001257e-01  -2.7383380e-01  -1.2094674e-01   8.4748831e-01   6.3052689e-01   8.9824581e-01   3.9873050e-01   3.9599262e-01  -8.0800748e-02   5.0964943e-01  -2.9174004e-01   2.3015876e-01  -2.1846645e-01  -1.9895972e-01  -7.9084098e-01   9.7704162e-01  -7.1095159e-01  -9.2835177e-02  -4.8021796e-01   6.2111027e-01  -4.5398230e-01  -7.6062583e-01  -1.9955819e-01  -8.1525990e-01   4.9025094e-01  -9.6051955e-01   1.4447948e-01   9.2004406e-01   7.7710198e-01   1.8796528e-01   8.1929602e-01  -1.2759482e-01   8.4255959e-01  -4.3312400e-01  -2.3200657e-01   6.1470625e-01  -3.9595537e-02   8.5734625e-01  -7.2730716e-01   7.7828480e-01  -3.7016010e-01  -9.1735936e-01  -3.0048447e-01  -5.2920713e-01  -1.5401818e-01  -9.8824646e-01   7.8818852e-03   6.0331485e-01  -4.3689998e-01   7.4562647e-01  -1.0994380e-01   1.6773482e-02  -6.7481040e-01   9.1597311e-01  -2.6308031e-01   6.7498480e-01  -7.5656771e-01  -2.8813412e-01   9.4676206e-01   4.4608951e-01   3.0592155e-01  -3.4170074e-01   3.7416972e-02   3.3653692e-01  -2.5651747e-01  -6.9156340e-02   4.8166743e-02  -3.9629136e-01  -2.9838912e-01   7.9232824e-01   4.5375554e-01  -9.2131501e-01   8.8219306e-01   5.2721947e-01   2.0152367e-01   6.3321465e-01   8.0854701e-02   4.3171071e-01  -3.8438152e-01   5.5226877e-01  -6.9506534e-01   6.2292319e-01  -5.6071764e-01   5.7915150e-01   7.6965540e-01  -5.2321580e-02   5.1757334e-01  -8.9671542e-01  -6.2022709e-01   8.0257744e-01   7.3921659e-01  -9.6231832e-01   3.9636153e-01   7.9331685e-01   9.3440790e-01  -6.8913393e-02   7.9065140e-01   3.2946338e-01   5.7803764e-01  -4.8287393e-02   7.5376286e-01  -8.8437512e-01  -1.0607416e-01  -9.7347431e-01   5.9122840e-01   4.4219897e-01   5.6584680e-02   9.0025284e-01   2.5273704e-01  -4.2572999e-01   4.1486621e-01  -5.5777276e-03   7.5309531e-01  -7.2214546e-02   7.6872865e-02  -9.3075546e-01  -5.4222901e-01  -7.4131357e-01   4.2574249e-02   7.3377105e-01  -4.2352993e-01  -3.1125070e-01   7.6111274e-01  -6.6939308e-01   4.0622096e-01  -6.6167118e-01  -7.7645666e-01   4.3029309e-01  -7.8193258e-01   2.0145822e-01   3.0660074e-01   1.3924979e-01   6.5422416e-01   3.5757877e-01  -9.6189855e-01   8.0681051e-01  -8.1040697e-01   7.1784770e-01  -6.2547958e-01   4.5411779e-01   8.3615882e-01  -1.2737278e-01  -7.0159981e-02  -9.0973732e-01   9.8939796e-01  -5.6433558e-01  -4.2767952e-01  -6.6016442e-01  -3.1865262e-01   4.0744320e-01   5.6148889e-01   2.0509907e-02  -9.7292641e-01   8.6681497e-01   4.5693414e-01   8.4911133e-01  -5.6391802e-01  -3.4811244e-01  -3.1576033e-01   4.4548587e-01  -2.0005144e-01  -9.2497656e-01  -1.7310900e-01   9.1372361e-02  -3.3110657e-01  -8.3934430e-01   6.3884008e-01  -8.6164126e-01   5.6328538e-01   2.8694876e-01   9.3604237e-01   8.0612343e-01  -1.3167985e-01  -8.2243072e-01  -5.6435068e-01  -9.2498419e-01  -3.0337272e-01   1.8360424e-02  -8.0696237e-03  -5.2251823e-01  -6.7752646e-01  -4.0008521e-01   6.1712128e-01  -1.0770666e-01   2.4169540e-01  -6.1043138e-01   8.2415710e-01  -6.6475992e-01   1.5969733e-01   2.5207819e-01   5.0745110e-01  -3.0539535e-01  -3.4549344e-01   6.4158110e-01   1.4553177e-01   9.8073222e-01   8.0200669e-01  -4.8903198e-01   5.2483077e-01  -6.2049366e-01  -3.2896534e-01  -9.4860334e-01   9.2261423e-01  -5.5682666e-02   9.6591147e-01   6.8688977e-02  -2.0449429e-01   5.4894524e-01   1.1064947e-01   4.7051001e-01   7.7687188e-01  -7.2879644e-01   3.9604445e-01  -6.6073956e-01  -2.6571383e-02   1.8412376e-01  -1.2254943e-01  -2.5516696e-01   2.1492763e-01  -4.2614680e-01   7.2390717e-01  -6.4807600e-01  -5.5188636e-01  -9.1293644e-02   6.8710778e-01   2.6373564e-01  -3.0271686e-01   2.7438155e-01   5.9448858e-01   8.1455033e-01  -8.8846140e-01   5.5916203e-01  -6.9802383e-01   6.5191046e-01   2.6305120e-01   9.3438119e-01   5.4362913e-01  -8.8110199e-01  -3.4147968e-01   9.2528630e-01   6.8399711e-01  -8.1020908e-01   8.3056102e-01  -8.3950298e-01   2.1456017e-01   6.6812957e-01  -1.9348796e-02   4.7491784e-01   6.5497403e-01  -6.3335051e-01  -9.7135547e-01  -7.5506705e-01  -6.6472225e-01  -3.8776562e-01  -4.9962940e-02  -5.7980264e-01   2.7809098e-01   1.5702749e-02   7.0443846e-01   7.0489863e-01   5.3885796e-02   8.5406798e-01  -2.7192772e-01   1.6118727e-01  -1.3963220e-01  -7.5648250e-01  -7.2851228e-01  -4.2139916e-01  -8.6670579e-01   3.3945656e-02  -9.0198975e-01  -6.0391083e-01  -1.3440214e-02   1.6419766e-01  -4.5020114e-02   2.1572460e-01  -3.4962358e-01   1.0487387e-01  -1.0552093e-01  -2.8528029e-01  -4.9426970e-01  -1.4074604e-01   4.3119145e-01  -6.2507539e-01  -3.7754957e-01  -9.4633286e-01  -3.5574939e-02  -1.9174290e-01   8.5106356e-01  -7.1711215e-01  -4.3567201e-02   3.1893204e-01  -1.6018766e-01   5.7709733e-01   7.5437326e-01   6.8616983e-01   8.7571056e-01   1.7597619e-01   5.2929228e-01   8.2496206e-01  -8.7606107e-01  -4.6462875e-02   8.7233741e-01   8.3617550e-01  -1.3181133e-01   4.2898532e-01   6.4430702e-01   9.1182991e-01   8.2321742e-01  -4.8206494e-02  -5.0863812e-01   3.0816960e-01  -2.6741046e-02   2.7869472e-01   9.4024920e-03   1.4644999e-02  -6.6478713e-01  -4.4070579e-02   3.6994271e-01   4.3573229e-01  -3.1886633e-01   1.8928948e-01   7.1574566e-01  -7.6530023e-01  -2.0754350e-01   9.9486162e-01   1.0766610e-01   6.8760533e-01   6.8983116e-01   6.8150193e-01  -7.6199005e-01   1.3011616e-01   7.8487125e-01   8.1791700e-02  -5.3593020e-01  -9.9265332e-01   9.8395067e-01   4.4758514e-01   2.8695113e-01  -9.8866741e-01  -2.4655070e-02   6.7181556e-01  -8.5957696e-01  -5.6301350e-01  -3.8140981e-01  -8.4542229e-01  -4.2139837e-01   8.4425031e-01  -9.9680721e-01   9.8896142e-01  -1.8540503e-01  -2.8924026e-01   2.4069228e-01  -5.3079958e-01   8.8619532e-01  -5.1497974e-01   1.5487889e-01   2.6350655e-01  -1.4038097e-01   5.7071002e-01  -4.3146620e-02  -1.2627425e-01   4.6163367e-01  -8.5042876e-01  -3.4010161e-01  -5.8095240e-02  -9.6725282e-01   7.1051852e-01  -4.6350770e-01  -5.3110859e-01   3.1779070e-01   7.4609483e-01  -1.4905235e-01  -4.2445133e-01   7.5276489e-01   3.5576056e-01   4.8568087e-01   2.2477666e-01  -3.8197485e-01  -3.9008361e-01  -3.8371805e-01   1.0798017e-02   6.2489798e-01   8.2999541e-01  -2.4733276e-01   9.0823848e-01  -7.1354658e-02   9.4462157e-01   9.2454183e-01   8.6178689e-01   5.6416177e-01  -8.1926524e-01   8.4760540e-03  -5.5925553e-01  -4.6135713e-01   4.1026205e-01  -9.4342981e-01   6.5737983e-01   5.0234894e-01  -1.8055609e-01  -3.9428267e-01   7.1125088e-01   3.8456895e-01  -3.7777887e-01  -1.2533425e-01  -4.6433907e-01   3.8584152e-01   4.8075481e-01   7.1356521e-01  -5.9809463e-01  -9.6936904e-01   2.5072827e-01   5.4770821e-01  -8.4411942e-01  -5.6153885e-01  -3.3440064e-01  -5.1311129e-01   5.2769802e-01   9.8244112e-01  -3.2898348e-01  -5.5493785e-01  -1.9711191e-01   6.7274579e-01   6.5987273e-01  -9.0110190e-01   9.6095282e-01   5.7775136e-02  -1.1760170e-01   9.9330929e-01  -1.8961107e-02   8.2708404e-01  -6.0651771e-01   7.1234024e-01  -1.2633514e-01   8.2681994e-01  -2.9213135e-01   4.9112088e-01   3.1233926e-01  -8.2166089e-01   8.6916398e-01  -2.9144785e-01  -8.4216935e-03  -7.8479944e-01  -6.2522891e-01  -5.5489937e-01  -2.3931903e-02   2.1644844e-01   7.0070993e-01   8.5174071e-01  -9.6810080e-01   9.3300875e-01   6.3725254e-01   4.6318150e-01  -9.7468454e-01   8.6393858e-01  -3.3728158e-01   8.6423766e-01   6.3151234e-01   1.2792691e-02   3.9144889e-01  -2.4234003e-01   1.6917548e-01   2.7000546e-01  -8.3428368e-01   4.7047334e-01  -1.0309240e-01   4.1174359e-01   5.6308550e-02  -1.3950265e-01  -9.0573159e-01  -2.8107278e-01   4.7996253e-01   6.3496533e-01  -3.4643994e-01   3.5749274e-01  -9.6704651e-01   4.4987197e-01  -6.3725294e-01  -8.2270018e-01   2.7886021e-01   4.9662059e-01  -9.9038857e-01   7.5432899e-01  -3.5075563e-01   3.7784215e-01   5.8326751e-01  -7.9026604e-01   2.3351975e-01  -1.7617934e-01  -3.3726501e-01  -5.0274513e-01   5.5025309e-01   8.8554514e-01   2.7131169e-01  -3.9159114e-01   3.7820861e-01  -2.7088191e-01   4.4520440e-01   3.6982231e-01  -9.2872998e-01   8.0579862e-01  -1.1388195e-02   4.5565230e-01   8.1095760e-01   1.7161745e-01   8.9868265e-01   4.8258849e-01   1.5917975e-01  -5.3587260e-01   8.9258942e-01  -5.0938765e-01  -8.0074519e-01  -6.0817564e-01   3.5464593e-01   5.3267038e-01  -4.9207149e-02  -6.6419394e-01   1.9022667e-02  -5.5955995e-01  -8.3773455e-01   1.4989050e-01   5.6049692e-01  -9.6348469e-01  -1.2508331e-01   8.8044847e-01  -2.5724738e-01   7.3151504e-01   4.9538515e-01   1.7385543e-01  -3.4064161e-01  -8.9753588e-02  -9.3480355e-02   4.1303925e-01   2.4525277e-01   2.7825501e-01   4.4093152e-01  -9.6363045e-01   8.7996094e-01   2.8751111e-01  -4.2927036e-01   5.0342517e-01   5.8951515e-01   2.1382835e-01   8.3188859e-01  -3.7570685e-01  -8.2950714e-01   4.1064980e-01  -7.6097741e-01  -3.6803757e-01   5.0471597e-01   8.0727224e-01   4.3359179e-01  -1.3684634e-01  -2.3061653e-01   3.2278646e-01   7.2218862e-01   8.2481186e-02   8.1364154e-01  -6.4474102e-01  -6.7721764e-01  -9.0010462e-01  -3.7618254e-01  -4.3357698e-01   2.1532114e-01  -7.9543052e-01  -6.1227820e-01   2.8488976e-02  -1.1062282e-01  -1.3612240e-01  -4.1608760e-01   4.7795084e-01   7.6923413e-01  -8.2469980e-01  -6.2673957e-01   7.9084999e-02   4.5170133e-01   9.6295522e-01   1.5905697e-01  -7.1808981e-01  -9.6204146e-01   4.4473368e-01  -3.2297354e-01   7.0999629e-01  -3.1606784e-01  -9.0122510e-01   2.5614103e-01  -9.5602311e-01   7.5984187e-01   4.1026225e-01   4.8646147e-01  -1.2895640e-01  -1.6709516e-01  -1.8930590e-01   3.9342297e-01  -8.5412397e-01  -1.4110306e-01   1.8987287e-01  -4.6419096e-01  -3.6246223e-02  -8.7195036e-01  -7.0011343e-01  -8.5485724e-01  -6.2786347e-01   2.5653169e-01  -1.5136736e-01   3.9808442e-01  -6.6662994e-01   9.2416938e-01  -1.9420354e-01   1.9996058e-01   9.0730462e-03   1.1990430e-01   9.5185102e-01   5.2428129e-01  -2.7438308e-01   6.9104635e-01   6.9033189e-01  -4.5758553e-01   5.3398942e-01  -6.2566019e-01   8.3169506e-01  -6.0287563e-01   5.7260521e-02   9.6028893e-01   2.4945243e-01  -6.3427301e-01   3.8271506e-01   7.0590719e-01  -1.9647541e-01   4.4033582e-01  -8.2949554e-01   1.6537197e-02  -5.0786357e-02   4.4510527e-01  -1.1895322e-01  -5.0706178e-01  -9.1042387e-01   2.1746169e-01   6.9001903e-01   5.9573249e-01   9.1572249e-01   7.0706476e-01   4.0505855e-01   5.3290963e-01  -8.6692733e-01  -1.2144346e-02   7.4831773e-01   3.2218980e-01  -9.2767810e-01  -8.8612320e-01   4.4039719e-01   6.3275353e-01  -7.2832565e-01   1.0969921e-01   6.5942256e-01  -1.6397043e-01  -5.1284204e-02   8.8069971e-01  -2.6380465e-01   7.8426209e-01   4.4402778e-01  -5.7133804e-01  -7.6688633e-01   8.8564624e-01  -6.8776611e-02  -5.5208978e-01   7.4522099e-01  -7.6184793e-01  -1.8202449e-01   7.4184423e-02  -1.1571876e-01   1.2114048e-01  -6.0145774e-01  -1.4821983e-02   5.3769602e-01   7.6372873e-01  -6.4557822e-01  -2.6905129e-01   2.1814425e-01  -5.0355667e-03  -5.8477128e-02   8.0087376e-01  -7.5029293e-01   1.2163332e-01  -2.3941722e-01  -7.0064784e-01   7.9894803e-01  -8.6651845e-02  -2.7672563e-01  -5.2572881e-01  -1.3683852e-01   5.4857537e-01   6.7581887e-01  -1.9666998e-01  -6.1759566e-02  -4.6025997e-01  -6.1799743e-01   1.5937656e-01  -6.9999630e-01  -2.3729353e-01   6.5429690e-01   4.9177668e-01  -3.2734983e-01  -6.1253870e-01  -6.0043393e-01   9.8406705e-01   7.3066945e-01  -3.5676573e-01  -1.0089879e-01  -8.6872315e-01   5.9148171e-01   4.2485822e-01  -7.5287255e-01   1.6746633e-01  -8.9090706e-01   1.4985323e-01   7.4270168e-01  -3.8483750e-01  -8.2871995e-01   3.3242374e-01  -1.8176728e-01  -8.9287461e-01  -4.8754942e-01   4.9809107e-01  -2.7990153e-01   2.2226633e-01  -1.5151510e-01   5.7491226e-01  -3.7001096e-01   6.9299538e-01   5.6805169e-01  -7.1630874e-02   5.4120009e-01   9.4398469e-01  -4.8199223e-01   1.8794031e-01  -4.8393025e-01  -7.3874925e-01  -9.6307982e-01   4.9247169e-01   3.3762880e-01   8.2802106e-01   3.9802099e-02  -9.1699713e-01   2.4522176e-01  -1.1433486e-02   3.3858056e-02   7.2996095e-01   9.8833839e-01   6.7834747e-01  -1.5863659e-01  -9.8873112e-01
   8.5138613e-01  -1.7389046e-02  -1.8935286e-03  -1.1880128e-01  -6.9150021e-01   9.5077422e-01  -5.9495955e-01   5.3433907e-01   3.8718201e-01  -8.1076412e-02   6.4280213e-02   7.0447307e-01   1.6444009e-01  -5.5237963e-01   6.6808286e-01   5.5640976e-02   6.4798372e-01  -3.0900028e-01   9.9525220e-02   6.4666723e-01   5.0537007e-01   2.8152116e-01   7.4514623e-01  -4.5326073e-01  -8.1602418e-01   5.5617565e-01   6.6536756e-03  -6.2680860e-01  -4.5698751e-01   2.9396164e-01   9.5130472e-02   6.7091747e-01  -5.7207067e-01   2.4820476e-01   6.2193786e-01  -4.2145754e-01   2.1603376e-01   2.5093945e-01   7.5283425e-01  -3.3831399e-02   6.9494499e-01  -4.0376023e-01  -2.9334639e-01  -3.4817094e-01   4.0499642e-01   9.4059872e-01   5.2315425e-01  -7.3088360e-02   1.2302136e-01  -2.5681263e-02   6.4710269e-01  -7.8280091e-01   2.5613943e-01  -2.2672823e-01  -3.2180233e-01  -6.6834621e-01   9.9172962e-01   5.6632010e-01  -2.8112760e-01   5.7929830e-01   3.6207281e-01  -9.3346952e-01  -2.7523928e-01   1.1008774e-01   2.1927328e-01  -8.8587712e-01   1.1809673e-01   7.0612357e-01  -1.8520763e-01  -6.5733719e-01   8.8627094e-01   3.4504070e-01   1.4189790e-01  -5.3489204e-01   4.4364636e-01  -3.5586380e-01  -6.6619483e-01  -3.1742639e-02  -7.1493984e-01   7.7121131e-01   9.8528865e-02  -6.9760642e-01   5.2513325e-02  -2.0594282e-01  -6.5195376e-02   6.5865560e-01   3.1590627e-01   4.7150329e-01  -2.2089861e-01  -5.0731371e-01   6.9039905e-01  -7.4576092e-02   3.1417032e-01   8.8775259e-01  -9.8077320e-01   1.3619649e-01  -6.7309339e-01  -5.5445217e-01   4.2354470e-01   4.0782607e-01  -8.2557348e-01   6.2410197e-01   2.2698350e-01  -8.4369454e-01  -4.4981095e-01  -8.9172258e-01   1.9306219e-01   2.7941427e-01  -2.7310810e-01   5.1633379e-01  -6.6918261e-01   3.3461591e-01   2.4744111e-01   4.4349245e-01   4.1711435e-01  -9.2186878e-01   2.7894374e-01  -3.5444622e-01  -7.7364404e-01   4.1442993e-01  -5.1438372e-02  -3.1843065e-01   2.1711379e-01  -2.4503896e-01   2.0094507e-01   9.9622274e-01  -3.5673404e-01  -1.3122117e-01  -9.9804218e-01  -8.5060045e-01  -4.7489589e-01   6.0838554e-01   9.1114029e-01   8.8841732e-01   9.1656357e-01  -7.3166255e-01   7.1076945e-01  -1.1143411e-01   4.3999264e-01  -8.6916591e-01   5.2114149e-02  -1.1394371e-01  -8.4116611e-01  -5.0429943e-01  -9.9056989e-01   4.2642242e-01  -5.2465799e-02   3.1895492e-01  -2.1112432e-02  -3.8827013e-01  -9.0051848e-01  -4.3302770e-01  -2.7116650e-01  -8.2757021e-02  -8.6193535e-01   2.8653527e-01   2.0763972e-01  -4.0308850e-01   7.9860319e-01  -3.3119630e-01   5.6092364e-01   6.9630257e-01  -6.2237847e-01   9.0330349e-01  -2.2682940e-01  -9.6299482e-01   4.5303641e-01   1.1388508e-01   8.4191227e-01  -4.9716591e-01  -9.2361502e-01   2.8863941e-01  -3.7577724e-02   2.9559386e-01   1.7011167e-01  -6.9403214e-01   2.7160681e-01   5.7104954e-01  -8.0267731e-01  -3.7456756e-01   1.5318719e-01  -1.5265575e-01  -1.6131759e-01   6.3759814e-01  -3.8890378e-01  -9.3632185e-01   1.1490253e-01   8.4803870e-01   1.6021256e-01  -9.2706699e-01   4.7672927e-01   1.0746738e-01   4.8053146e-01   3.1635246e-02   9.4183878e-01   2.8486972e-01   5.2380621e-01  -7.3796643e-01  -9.4294140e-01   8.6262533e-01  -8.8163815e-01   6.0770217e-01  -1.7612720e-01  -5.7214990e-01   1.0290154e-01  -2.2181542e-01   8.6829867e-01   7.5312473e-01  -3.4334836e-02  -5.3146867e-01   6.0649175e-01  -9.5118352e-01   6.6612259e-01   2.7450388e-01   1.8498547e-01  -3.9924315e-01  -1.8322726e-01   7.9190035e-01  -9.5786983e-01  -8.0038585e-01   7.3668366e-01  -7.3353584e-01  -6.4178542e-01   3.8505696e-01  -4.1185899e-01   5.1907799e-01   4.8777915e-01   3.0505358e-01   4.7600246e-01   9.8482026e-01  -3.3867653e-01   3.0486088e-01   4.2970584e-01   2.4871065e-01   5.7528635e-01   4.7091337e-01  -7.0222695e-01   2.9006989e-01  -3.8768402e-01   6.3342416e-01   6.8630003e-01   7.5097584e-01  -7.1062240e-02  -5.1349113e-01  -2.6566878e-01   1.6134624e-02  -5.6121624e-01   4.6515731e-01   7.5489483e-01  -8.1835303e-01   5.6284262e-01   7.9881611e-01  -9.8947780e-01  -6.1789722e-01  -6.7581738e-01   1.2886642e-01   9.8849556e-01  -3.1892530e-01   2.0150587e-01   9.5526490e-01  -4.8859417e-03   5.6525451e-01   3.8715550e-01  -9.0030649e-01  -5.0874781e-01  -5.9072690e-01   4.5652265e-01  -9.6441905e-01   5.1378467e-01  -4.9485135e-01  -9.4955275e-01  -1.8695232e-01   4.7869456e-01   3.8458019e-01   1.7454699e-01   8.6718296e-01   3.0162493e-01   6.5116857e-01  -9.6992726e-01  -7.6561272e-01  -2.2280046e-01  -1.7793065e-01   8.3576695e-01   1.2593601e-01  -1.9922268e-01  -7.6210730e-02  -5.1533546e-01  -3.0817924e-01   6.5306513e-01   4.5900703e-01   1.3545445e-01   7.1466387e-01   4.0195821e-01   2.5610114e-01  -3.8845010e-02   6.1256994e-02  -2.5727393e-01  -1.8328616e-01  -2.9070468e-01   7.9545181e-01   3.5833058e-01   7.0591215e-01   5.2268067e-01   8.4114502e-01   4.4149099e-01  -1.0659315e-01  -2.4506213e-01   1.7000671e-01   6.2441948e-01  -5.4637369e-01   4.9616038e-01   3.8470622e-01  -6.0007932e-01   2.0784132e-01   2.4581131e-01  -9.9923323e-01   1.5418063e-01  -1.3732273e-02  -6.5065254e-01  -5.9624919e-01   3.0977654e-01  -7.9251522e-01   2.7491637e-01  -6.1467247e-01   5.6581248e-01  -7.8691605e-02   9.8338193e-01  -3.6164406e-01   5.8130809e-01   5.1254726e-01  -3.2627087e-01  -1.9150140e-01   7.9647168e-01   5.9664189e-01  -4.1786362e-01   6.1855354e-01   2.8787457e-01   2.5488475e-01   4.1867291e-01  -4.0421502e-01  -4.8552500e-01   4.0209788e-01  -7.7698621e-01   8.3956697e-01  -4.6669554e-02  -4.0775280e-01   6.5298988e-01   4.7776345e-01  -9.7549139e-01  -6.8515924e-01  -6.5088339e-02   5.6577215e-01  -9.5340025e-01   7.9972958e-02   9.6496574e-01  -6.8899601e-01   2.0102346e-01   2.0744669e-01  -1.4303093e-01   1.6511102e-01   5.5230387e-01  -9.0627475e-01   7.8408465e-01   2.1176915e-01   5.2029462e-01  -6.3836599e-01  -8.8360959e-01  -6.8721828e-01  -5.1477464e-01  -9.9570286e-01   1.6389556e-01   7.6168156e-01  -2.3797706e-01   4.3292042e-01  -4.0645208e-01  -4.0671491e-02  -1.5737973e-01   2.0806053e-01   3.2954112e-01  -7.3992405e-01  -1.2203882e-02   3.2878173e-01   8.7188793e-01  -1.0075078e-01  -6.2098724e-02  -1.5625996e-01  -2.0905066e-01  -9.6305707e-01   3.3084267e-02   4.2261685e-01  -8.8311769e-01  -1.2530539e-01  -6.9937591e-01   2.5739626e-01   5.0953536e-01  -5.6383320e-01   3.0389389e-01  -8.7865472e-01   8.4285567e-01   2.6546418e-01  -6.9841849e-01   7.0330785e-01  -2.4432584e-01  -8.4885772e-01   4.8552993e-01  -1.9479554e-01   3.8708024e-01   4.5158706e-02  -8.6773665e-02   9.2044299e-01  -4.8093848e-01   2.4103866e-01   2.8643470e-01   2.2149970e-01   2.7614677e-01  -7.5558063e-01   3.8810791e-01   1.2394716e-01  -1.7506813e-04   2.9352778e-01   4.1312872e-01   1.2251563e-01   4.8096227e-02  -2.0451154e-01   7.2287173e-01   8.1656660e-01  -5.4733072e-01  -7.8361989e-01  -7.0339818e-01   9.9411129e-01   5.3495085e-01  -7.2098341e-01   8.6258385e-01   4.0650584e-01  -2.6894701e-01  -2.9343066e-02   9.6510475e-01  -5.0955251e-01  -7.1924572e-01  -8.5742673e-01  -2.5388067e-01   7.9292491e-01   7.6321115e-01   4.7004642e-01   2.2639699e-01   1.0662876e-01  -6.0333230e-01   1.0205578e-01   4.5111298e-01   7.4730540e-01  -2.2582180e-01   1.3070366e-01  -6.2764988e-01  -3.1643195e-01  -3.6311388e-01  -1.5016831e-01  -3.5600340e-01   1.0259308e-01  -8.8719775e-01  -5.0741963e-01  -6.3445794e-02   9.8525278e-01   6.7426653e-01  -9.2758445e-01   7.1456435e-01   4.7033807e-01  -1.9238688e-01  -9.0617497e-01  -1.2374765e-01   4.0182918e-01  -1.5782661e-01   7.3179695e-01  -5.0615724e-01  -2.7988208e-01   9.7025718e-01  -5.6623048e-02  -8.2816387e-01  -2.6149534e-01  -4.7586571e-01  -6.6937648e-02   3.0001702e-01  -6.2791252e-01   7.3273217e-01  -1.4158598e-01  -3.4613525e-01   4.4755728e-01  -3.0643330e-01  -3.0508673e-01  -1.3499277e-01  -9.5073178e-01  -1.2404093e-01  -2.3087390e-03  -9.1564456e-01  -1.4817257e-01  -8.0484069e-01  -7.6851737e-02   1.3041528e-01   7.0570506e-01   6.4684827e-01  -2.2401891e-01  -3.4307746e-02   2.2601848e-02   8.6294957e-03   4.7024402e-01   3.6892601e-01   8.7710546e-01   3.1141028e-01  -4.0678205e-01  -3.3334689e-01   1.1096474e-02  -8.8160181e-01   7.5120544e-01   5.0327092e-01  -6.3385140e-01   2.5106648e-01  -3.6727662e-01   7.8244288e-01   6.9691928e-01  -3.2378268e-01  -1.5848806e-01  -1.3680094e-01   2.1154853e-01   4.5021225e-01   3.5566295e-01  -6.7162949e-01  -3.7303681e-01   5.7792828e-01  -7.3653084e-01  -2.2692494e-01  -7.0442343e-01  -6.0580514e-01  -4.7301668e-01   5.8853298e-01   2.3195671e-01  -2.2247648e-01  -5.9511206e-01  -5.2604457e-01  -6.5802240e-02   5.7899056e-01  -2.9729017e-02   3.4250355e-01   1.2488735e-01   3.3232496e-02  -6.2978443e-01   3.1817323e-01   1.1966996e-01  -6.9922304e-01  -7.2407033e-01  -5.7180255e-01   2.4911444e-01  -5.5515772e-02  -1.8692444e-01  -8.5919612e-01   6.6116344e-02  -3.6407059e-01  -9.6612192e-01   7.4451530e-01   8.7527564e-01   8.8289322e-01  -3.4146264e-01  -1.0435286e-01  -5.5487491e-01   1.7766478e-01  -9.2987591e-01   9.0205158e-02   4.0543021e-01  -1.0879385e-02  -9.1401965e-01   7.8068415e-01   8.0104275e-01   6.2295741e-01   1.9706665e-02  -3.7594153e-01  -3.2748745e-02   3.6889389e-02   5.0364382e-01   3.8664975e-01  -5.6006170e-01   9.6136990e-01  -1.9131064e-01   6.8580592e-01   3.9312150e-01  -3.3739360e-01   3.0131030e-01  -4.1846046e-01  -9.8375742e-01  -5.7187130e-01  -2.4422046e-01   6.9735219e-02   3.8909147e-01   9.0630505e-01  -8.5946011e-01  -8.8625751e-03   6.9270207e-01   5.9177152e-01   9.5492601e-01  -4.9576992e-01  -3.4464511e-01   2.4267384e-01   6.2967983e-01  -8.1570924e-01   7.1136212e-01  -7.4560057e-01  -3.7177829e-01  -4.9740089e-01  -7.8099089e-01  -2.8590292e-01   8.8185277e-01   4.9161797e-01   8.9041551e-01  -1.3322840e-01   4.2716653e-01  -1.6929353e-01  -4.8749628e-01  -5.7394320e-01   8.0695979e-01  -5.8556589e-01  -8.8701239e-01   2.6440531e-01  -9.7122964e-01  -4.8271457e-01   3.7464972e-01  -2.0958423e-01  -8.0391689e-02  -6.9802440e-02   9.8458090e-02  -6.1422035e-01   7.6143774e-01  -1.9070597e-01  -3.2105496e-02  -4.0726701e-01   5.8993829e-01  -5.0937087e-01  -6.3707824e-01  -7.7316886e-01  -6.7494968e-01  -9.9693856e-01   5.8492540e-01   7.0969644e-02  -8.8736392e-01   3.1849477e-01   6.9069577e-01   5.1170740e-01   1.3660641e-01  -1.0609485e-02   7.1777516e-01   6.3089406e-01  -3.4342300e-01   2.8884468e-01  -4.4573540e-01  -1.9962916e-01   1.5785650e-01   4.1010536e-01  -7.2960428e-01   8.8116810e-01   7.0027771e-01   5.5693485e-01  -2.5290339e-01  -2.2066811e-01   5.7618691e-01   6.9414562e-01  -1.0508139e-01  -4.6954112e-01   1.1935896e-01   6.3847488e-01  -8.0994149e-02   4.6618373e-01  -8.8109022e-01   9.5429435e-01   9.7235936e-01  -8.4495364e-01   2.6807851e-02   1.5563836e-01  -3.5911503e-01  -4.5517457e-01   1.2168286e-01   5.2029113e-01  -4.3965612e-01   9.7912691e-01   9.7991544e-01  -8.1262283e-01  -5.3936081e-01   9.1817668e-01   7.5539493e-01  -3.3175106e-01  -5.4329891e-01  -7.5856503e-01   6.5726521e-01   6.3848592e-01  -1.9739820e-01  -8.4638077e-01  -5.2827187e-01   7.7157961e-01   1.1728657e-01   3.2016793e-01   1.6040080e-01   5.5033706e-01   4.3029617e-01  -2.6608474e-02  -1.4272421e-01  -6.2239162e-01   5.0881623e-01  -7.4015945e-01   2.2623449e-01  -7.9346625e-01  -5.0372923e-01   6.1814306e-01  -8.2302361e-01   6.5742572e-01   8.3823780e-01   8.9409523e-02   2.6385188e-01  -3.6809398e-01  -2.3675621e-02   8.1150307e-01   7.3770532e-01   6.1307919e-01   1.7215249e-01  -1.2770451e-01  -2.9318919e-01  -3.5994851e-01  -3.3233405e-02  -2.1328484e-02  -1.3983719e-01  -3.4259496e-02   6.6091177e-01  -2.8108836e-02   4.7542570e-01   1.0810966e-01   5.5564612e-01   2.4606739e-01  -8.8574509e-01  -5.7371279e-01  -1.8427332e-01   3.8072587e-01   2.0230013e-01  -4.3160809e-01   3.0079288e-01  -6.0105508e-01   9.1562275e-01   6.2319011e-01  -7.6618502e-01  -8.6258732e-01  -1.5437196e-01   3.9623812e-01   7.3730955e-02   5.7970610e-01   8.5627504e-01  -4.7138110e-01  -7.1421268e-01  -9.8030076e-01   3.9174757e-01  -9.7857919e-01  -2.7411140e-01   8.5242943e-01  -5.2594777e-01  -1.7339424e-01  -4.2687376e-02  -2.5177448e-01  -7.1301542e-01  -1.6769862e-03  -2.2710616e-02  -8.4686890e-01   3.8653500e-01  -1.4194984e-01   9.2704823e-01   2.3747869e-01   5.2453698e-01   9.4620552e-01  -4.6127499e-01   8.6842555e-01  -2.4473767e-02   5.4882881e-01   4.2990187e-01   3.9081322e-01   7.9772230e-01   3.1306608e-01  -2.6001009e-01  -2.2190209e-01  -4.2875405e-01   8.0739969e-01   6.5160069e-01  -3.6762743e-01   6.7076674e-01   1.9409182e-01  -9.8563553e-01  -7.5784206e-01   3.0971990e-01  -4.7424125e-01  -2.2062974e-01   7.9601408e-01  -3.8857261e-01  -7.4746123e-01   1.4238257e-01   5.3362345e-01  -6.5204906e-01  -7.2248866e-01   2.6394157e-01   5.6278394e-01  -2.8099448e-01   9.5142029e-01   8.7773712e-01   9.4942222e-01   1.4762628e-02   9.7240475e-01   1.0898292e-01   4.3670321e-01   4.8674347e-02  -4.7228588e-01   9.1901863e-01   6.2763792e-01   3.1633999e-01   9.5443850e-01   3.2307631e-01  -8.2008938e-02  -2.7218321e-01   2.6840099e-01   7.9043224e-01  -3.6519906e-01  -2.0567534e-01   9.8510881e-01  -4.9457114e-01  -9.5806116e-02  -4.3630320e-01  -9.8372400e-01   7.0190486e-01   7.8407595e-01   4.2362517e-02   5.6874123e-01   8.1693212e-01  -6.4890946e-04   4.1840550e-01   3.5965767e-01  -9.4110493e-01   6.2857037e-01   7.9770801e-01   9.0818888e-01   8.7363694e-01   5.7950453e-01  -8.2307980e-01  -1.7904061e-01  -8.6174173e-01  -3.8318149e-01  -5.7638383e-01   4.8366798e-01   9.2355731e-01  -5.1914306e-02   8.8004887e-01   5.6411176e-01  -7.1752760e-02  -2.8526237e-01   3.6822215e-02   7.2331705e-01  -1.3660162e-02  -7.4862439e-01  -2.6673563e-01   1.0146903e-01   4.1449561e-01   3.1201958e-01  -1.3531282e-01   2.6299235e-01   3.8227043e-01  -2.4442664e-01  -2.7981828e-01   6.8730020e-02   7.9276455e-02   5.1267690e-01   2.8291354e-01  -4.1303442e-01  -9.9459410e-01  -9.5161422e-01  -1.1893097e-01  -7.6092184e-01   6.5603926e-01   1.9384268e-01   4.2913168e-01   1.1943547e-01   6.8498783e-01   5.4415274e-01   3.2133762e-01   7.6920291e-03  -3.8617493e-02   3.9844892e-01   8.4182955e-01   6.0440316e-03  -3.1456436e-01   5.8166767e-02   8.0963746e-01   1.0451437e-01  -4.4234316e-01   7.4934417e-01  -9.1570791e-02  -7.8274152e-01   6.4504323e-01  -9.9380350e-02  -1.4208963e-01  -6.2317708e-01  -3.6627909e-01  -5.4668834e-01   1.6708299e-01   3.6037210e-01  -2.3939116e-01   5.6888124e-01  -7.8520134e-01   4.7875702e-01   1.8164624e-02  -2.1575278e-01  -3.3461824e-01   7.5854395e-01  -4.7066545e-02   4.2097082e-02   7.1250111e-01   1.1586501e-01   5.0664609e-01  -8.5836822e-01  -1.6221479e-01  -5.6259265e-01   1.7618692e-01  -3.5260007e-01   7.2445096e-01   3.5414319e-01   7.8006098e-01  -2.7133077e-01  -5.1971074e-01   3.5870756e-01   3.6425863e-01  -6.3865264e-01   9.0397393e-01  -3.1745598e-01   5.5107694e-01  -5.0438091e-01   6.3051413e-01  -4.0929605e-01   1.8516625e-01  -2.5120925e-01   5.6375551e-01   4.1881777e-01   6.7257541e-01   9.1973506e-01   8.5291426e-01  -9.0194905e-01   7.9371585e-01  -8.3675848e-01   1.9762678e-01   4.1459050e-01  -8.1856757e-01  -6.2443593e-01  -9.6772814e-01   1.7778004e-01   9.0287703e-01  -8.9461655e-01   4.4802108e-02   4.7877509e-01  -2.1591088e-01  -2.6019995e-01  -3.8911587e-01   7.0275000e-01  -3.0096241e-01   6.5610791e-01   1.0751246e-02   7.8916841e-01   9.9953759e-01   9.1059481e-01   6.1863647e-01   1.3451382e-01  -6.6752017e-01   1.6385755e-01  -7.9672449e-02  -4.7954535e-01  -6.2053177e-01  -6.7210522e-02  -6.9285873e-01   5.4909905e-01   3.0071376e-01   3.5090936e-01   9.8477896e-01   2.6444476e-01   1.2733296e-01   1.9032720e-01  -5.3416003e-01  -1.3031802e-01  -3.1475556e-01   2.4135784e-01   6.8942688e-01  -2.2017136e-02   9.5167982e-01   3.4939727e-01  -1.8749132e-01  -8.5893473e-01   7.5689757e-01  -1.0971754e-01  -1.0026458e-01   3.7514055e-02   4.9715159e-01  -3.7012955e-02  -3.9779370e-01   4.6813564e-01  -4.5170129e-01   5.5595993e-01   6.5909167e-01
