  -1.8372766e-01  -2.5748899e-01  -9.5828090e-01  -1.1163256e-01   9.5177570e-01  -1.3868022e-01   8.5901026e-01   3.4585767e-01  -3.0886439e-01   8.6375146e-01   2.0696699e-01  -3.8193791e-01  -5.9579149e-01  -7.2530266e-01  -5.8996682e-01  -1.3743205e-01   5.9556866e-02  -8.8520897e-01  -4.1792209e-01   2.0613785e-01   4.7745594e-01   4.3538845e-01  -4.4145157e-01  -2.0431135e-01   2.0601916e-01  -9.0617344e-01   3.1838834e-02  -3.4067485e-02  -8.2876502e-01  -3.0685242e-02  -9.9511243e-01  -1.0646778e-01  -7.3222713e-01   2.5711883e-01  -3.5691296e-02  -2.7855052e-01   7.8808322e-01   4.3413650e-01  -6.6877517e-01  -1.2994914e-01  -8.9435984e-01   1.6423269e-01  -1.6587493e-01  -9.9608062e-01  -4.7994602e-01  -3.8763712e-01   3.4714116e-02   5.0431670e-01  -6.3376963e-01  -5.0002826e-01  -2.4151522e-01   8.6749596e-01  -6.9385880e-01   3.8992980e-01   6.7130265e-01  -7.3869801e-01  -2.9930594e-01  -7.1540255e-01  -4.5914887e-01   3.1839056e-01  -6.5979339e-01   5.5660712e-01   9.6720283e-01  -2.4151175e-01   9.6637837e-02  -8.9449719e-01   9.6058340e-01   2.6534779e-01   9.0153627e-01   5.8121047e-02  -1.5540074e-01   4.0353459e-01  -2.1382555e-01   3.9813445e-01  -3.3991556e-01  -8.6462944e-02  -1.7672842e-01   7.8321232e-01   4.8249621e-01   4.0430194e-01   2.9526243e-01  -2.8511420e-01  -7.0458841e-01   8.7230034e-01  -1.4940926e-01  -2.5925578e-01  -6.4427502e-01   7.2582792e-01  -9.1164705e-02   1.5193319e-01  -9.1534357e-02  -8.7280482e-01   5.7953828e-01  -4.0404401e-02   7.7998941e-01   6.9736871e-01   2.2805542e-01   4.0625606e-01  -3.7092934e-01  -3.3209488e-01   1.2406596e-01  -8.2108235e-01  -5.9392033e-01   2.2015788e-01  -5.0106288e-01   4.1417163e-01  -8.3282319e-01   5.9429058e-01   3.5518059e-01   7.3608488e-01  -4.3232305e-01  -7.8122818e-02   2.5386686e-01  -4.6312100e-01  -7.5005659e-01  -4.6193611e-01   9.2106347e-01  -6.4067259e-01  -9.7519774e-01  -7.8531829e-01  -3.9694455e-01   3.1592794e-02   4.5491896e-01   5.2862387e-01   6.1756185e-01   4.1566447e-01   9.6676292e-01   3.1607647e-01   3.4163910e-01  -1.4626090e-01  -5.5243088e-01   6.9227778e-01   9.3158196e-01   9.3731392e-01  -6.1470471e-01   4.2498445e-01   6.1143806e-01  -8.0959095e-01  -1.2969701e-01   3.0286606e-01   8.2461151e-01   6.9728568e-01   6.5734342e-01  -7.7877562e-01   8.6700146e-01  -1.1539902e-01  -7.5655140e-01  -4.4064550e-01   8.1729506e-01  -4.0288779e-01  -6.5614956e-01   6.2580354e-01   4.9571615e-01   1.5444157e-01   3.0533267e-01   3.2419651e-01   5.9788230e-01   5.0716608e-01  -1.0708877e-01  -4.1889665e-01   9.4240250e-01  -5.8299744e-01   8.5107136e-01  -4.0641430e-01  -8.9810240e-01  -5.9777359e-01   7.3177691e-01   1.8779712e-01  -4.8567973e-01  -4.1837209e-01   5.6820521e-01   3.4545156e-01   3.6261811e-01  -2.4456170e-01   4.5729983e-01   8.9820190e-01  -8.5689545e-01   4.7872186e-01  -7.9279416e-01   7.9888057e-01  -6.9825341e-01   8.0571535e-01  -9.2982641e-01   5.0348380e-01  -4.1272726e-01   3.5493844e-01   7.0059501e-01   4.9297449e-01  -5.0765508e-01   8.1230856e-01   8.8994250e-01  -7.8669990e-01   4.0776705e-01  -7.1877823e-01   5.4739478e-01   7.6710811e-02  -6.6865112e-01  -7.9198711e-01  -6.7946495e-01   2.2343960e-01   9.5587608e-01   6.1495480e-02   7.4086773e-01   9.0149343e-01  -2.2565089e-01   7.9712001e-01  -6.7939356e-01  -9.3213353e-01   1.7123958e-01   9.0699329e-01   9.2121236e-01   4.7340022e-01   9.2740151e-01  -5.9827205e-01   6.2772540e-01  -5.3547749e-01  -7.4806134e-02   3.4054415e-01  -2.8298464e-02   7.6787095e-01  -7.2058147e-01   2.8128178e-01   1.5410699e-01   7.8418038e-01  -1.2741358e-01  -6.0404968e-01   8.0062592e-01  -6.4236908e-01   2.7532215e-01   8.7777606e-01   6.9743936e-01   4.6190234e-01   1.7381382e-01   7.4520054e-01   7.3184765e-01   6.4713546e-01  -5.2670583e-01  -6.3529130e-02   7.0146437e-01  -8.6362890e-01   3.4907896e-01   6.5382001e-02   2.0067936e-01   4.0100530e-01  -6.1142611e-01  -1.8985252e-01  -1.2738810e-01   1.2462401e-01  -6.0449691e-01  -2.1546001e-01   7.1550350e-01   8.5498835e-01  -6.1172286e-01  -3.8447080e-01   7.8408353e-01   7.8617366e-01   6.1016761e-01   2.5346343e-01   3.1949567e-01  -9.3695250e-01   3.3539174e-01   2.3862205e-01   3.5307338e-01   7.0697320e-01  -1.6454420e-01   4.5616935e-02   9.1187464e-01   5.6886934e-01  -9.0966051e-01  -2.2696875e-01   9.3333262e-01  -3.4914098e-02   5.0448502e-01   2.7832705e-01  -9.5885886e-01  -3.6418435e-02  -2.9305376e-01  -1.4664707e-01  -3.2869774e-01  -8.5468799e-02  -2.2414106e-01   7.6179058e-01  -2.5115547e-01  -9.6004761e-01   1.1606265e-01   9.4210534e-01   8.2023227e-01   7.6159356e-01   8.7546470e-01  -2.6467547e-01   8.9890827e-01   9.5718645e-01   7.2613877e-01   3.0207436e-02  -1.3504983e-01  -8.0960419e-01   6.9173151e-02   8.8415226e-01   6.8237928e-01  -1.8156591e-01   4.6693407e-02   6.4366599e-01   1.2742509e-01   7.6791346e-01   1.8077271e-01  -1.2675544e-01  -1.7076827e-01   3.7758693e-01   2.8876489e-01  -8.6279293e-01  -2.4108247e-01   6.6816792e-01  -3.2209089e-01   7.8122117e-02  -8.9110507e-01   3.4186305e-01  -6.8205386e-01   1.1137987e-01   6.1338386e-01  -4.6520811e-01   9.4679945e-01   6.1873391e-01   4.5419722e-01   7.1285009e-01   2.5086797e-01   5.1657612e-01  -4.7344280e-01   9.0904018e-01  -6.7214330e-01  -2.0836846e-01   7.9212134e-01  -1.2031784e-01  -9.8653480e-01  -8.1737021e-01   4.8080114e-01   2.9047359e-01  -7.6355760e-01   6.5646308e-01   1.5303941e-02   1.4781515e-04  -3.6753835e-01   5.9390403e-01  -1.7052846e-03   6.4914341e-01  -9.2282507e-01  -4.9959282e-01   8.5648567e-01   4.0852558e-01   5.2120847e-01  -5.0264666e-01  -7.8883986e-01  -2.0995972e-01   1.3253341e-01   8.4911002e-01  -5.7516632e-01   2.2819647e-01   9.0605837e-01  -4.9211435e-01   1.6214509e-01   8.7412619e-01  -3.0013333e-01  -3.6778283e-01  -4.4414741e-01  -4.4720910e-01   1.0577099e-02  -8.5427820e-01  -7.5427462e-02  -4.3229792e-01  -7.3475676e-02  -3.5114307e-01   3.1247840e-01   2.0122574e-01   6.1718450e-01   4.6064004e-01  -2.7196650e-01   4.9533154e-01  -3.4711554e-01  -4.9491370e-01   1.6359345e-01  -6.8979655e-01  -7.8009735e-01   2.1734215e-01  -8.6342006e-01   7.4349188e-01   8.6798504e-01   3.2610106e-01   6.0972076e-01  -7.2133915e-01  -2.4382110e-01  -7.9428380e-01   5.2259245e-02  -2.9977260e-01   1.5666931e-01  -8.4423226e-01   8.1216952e-01  -8.5393694e-01   9.8218695e-01  -7.2870100e-02   3.9438746e-01  -3.6471290e-01   5.3369586e-01  -5.7726354e-01  -9.9420377e-01   8.7240316e-01  -8.8372211e-02  -7.7421432e-01   3.0797625e-01  -9.9631940e-01  -4.7205018e-01  -9.1576925e-01   2.2403507e-01  -5.2792986e-01   9.0632868e-01   1.7308493e-01   4.5868293e-02  -8.2139386e-01   2.3118691e-01   1.5826541e-01   1.0671912e-01   7.5886688e-01   3.3643064e-01   2.9670294e-01   4.7070385e-02   5.3786335e-01  -7.1516103e-01  -4.6840376e-01   3.1635079e-01  -4.4564223e-01   3.9576597e-01  -2.9915265e-01  -7.8241603e-01  -1.9107885e-01   9.3743445e-01   8.5479595e-01  -5.8372628e-03   7.9905056e-01   1.1091595e-01  -2.8604094e-01  -5.6892990e-01   2.3078429e-01   5.6929990e-01   1.7320270e-01  -5.8688647e-01  -6.4573299e-01   5.5576567e-01  -7.9719903e-01  -3.1164043e-01  -6.1740070e-02   8.3493842e-02   2.5241718e-01  -5.9708498e-01   7.8664071e-01   8.4724935e-01   5.3454759e-01  -6.8962291e-01   7.7566751e-01  -2.1378375e-01  -8.0694700e-01   9.3144399e-01   6.9007796e-02   1.8417340e-01   6.6798019e-01   1.9588792e-01  -2.1020097e-01   2.3529124e-01  -6.1862684e-01   3.7360355e-01  -6.8002344e-01  -9.4139380e-01  -1.9149470e-01  -9.6526519e-01  -4.3558593e-01  -8.6288681e-01   2.7992612e-01   6.0943054e-01  -1.5915744e-01  -1.5513896e-01   1.6541002e-01   2.5195496e-01   9.2003746e-01   3.1111305e-01   6.9886549e-01   9.6352018e-01   4.7241500e-01  -2.4737536e-02  -2.9811442e-01  -3.1933048e-01   2.9443001e-01   5.9234205e-01   5.9193480e-02   8.7524460e-01   4.4369341e-01   6.2090507e-01  -4.8404247e-01  -2.6325433e-01   5.5525168e-01  -3.1839646e-01  -8.4082291e-01   3.9075464e-01  -9.7507922e-01   5.4083438e-01  -3.5247277e-01   9.7493912e-01   3.6709803e-01   9.7991981e-01   2.7990393e-01   3.2222192e-02   4.2992936e-01  -5.5541087e-01  -9.8056113e-01   8.7716171e-01  -4.3978583e-01  -5.3569871e-01  -1.0185891e-02   2.5601351e-01   5.2586640e-01  -4.1616912e-01   6.2872982e-02   4.4634057e-01   8.0783981e-01   3.4277274e-01   9.7615791e-01  -5.6032612e-01  -7.2055143e-02  -9.1070313e-01  -5.9778879e-01  -3.1086426e-01  -4.1856833e-01  -3.9978745e-01   3.3847987e-01   5.1038135e-01   4.4865292e-01   3.2683282e-01  -3.8725762e-01  -9.4376610e-01  -3.2276117e-01   6.4837402e-01  -1.3003618e-01  -8.7243249e-01   3.2845445e-01  -5.0477597e-01   5.6749259e-01  -9.2982891e-01  -8.3952350e-01   5.4280436e-01  -4.7447797e-01   9.2173513e-01  -6.1449509e-02   9.5990868e-01  -1.6654755e-01   4.7939407e-01  -3.7994599e-02  -6.7938428e-01   8.3985953e-01   5.7403639e-01   2.8592624e-02   8.5137475e-01   5.5378649e-01  -2.0052971e-03   5.5658513e-01  -5.8807784e-01  -2.6181122e-01   8.3846364e-01   5.6858802e-01   8.8871913e-01  -3.5680307e-01   2.6443995e-01   2.0365855e-01   9.6869453e-01   2.5093414e-01  -9.4543049e-01   1.0644695e-01   9.5834292e-01   2.3681535e-01   4.3405512e-02   6.1577097e-01   2.6119454e-01   6.7232607e-01   3.7194674e-01  -2.7278723e-01  -8.6920608e-01  -2.9750751e-01   1.6614099e-01   8.5210221e-01   5.9101656e-01   8.2012207e-01  -3.7874789e-02   1.8533683e-01  -8.4889382e-01   6.3310141e-01  -4.6863738e-01  -5.9078630e-02   1.6603936e-01   4.9394561e-01   7.5928652e-01  -3.9434679e-01   9.1329217e-01  -9.4100436e-01   7.9239162e-01  -1.7694416e-01   1.8319987e-01  -2.5144889e-01  -6.2202755e-02   4.4010653e-01   3.6118467e-02  -3.3799169e-01   3.9637725e-01   6.0390944e-01  -4.7656665e-01   9.4088276e-01  -4.6254509e-01   9.2260536e-01  -2.3457802e-01  -3.6228340e-01   2.9661052e-01  -2.2519114e-02  -4.8280592e-01  -5.2855740e-01   5.1742498e-01  -7.9928251e-01   9.7163894e-01   3.7115424e-01  -2.5414147e-01   2.4997587e-01   7.9297416e-01   8.4738862e-01  -2.2642022e-01   7.9484119e-01   4.9463414e-01  -1.0390674e-01  -3.2494809e-01   4.3500268e-01  -4.5030391e-01  -4.7423780e-01   9.1922673e-01  -8.4739578e-01   1.2434133e-01  -8.8700441e-01  -8.9369659e-01  -5.4925766e-01  -3.7732756e-01  -9.7750921e-01   8.0649080e-01  -7.5807918e-01   2.2188197e-01   5.5276329e-01   5.7906463e-01   4.1419099e-02  -7.5024290e-02  -7.8309410e-01   2.2180812e-01  -7.1866688e-01  -6.2376604e-01   3.7293319e-01   1.3362053e-01  -1.3946715e-01   2.9576871e-01  -9.4882881e-01   1.0370091e-01   2.6625097e-01   9.4585382e-01   4.7063473e-01  -7.6347868e-02  -9.7535479e-01   2.0369556e-01  -1.9038985e-01   5.9586327e-01   8.8902390e-01  -2.6381944e-01  -3.4580241e-01   2.6335227e-01   5.2182932e-01  -5.9513484e-01   5.1705005e-01  -3.9194601e-01  -6.8135331e-01   4.6836256e-01  -9.4835298e-02   4.0966395e-01  -8.0308779e-01  -3.9533620e-02  -7.4152305e-01  -9.1408640e-01  -9.6213636e-01  -8.1974173e-01   9.0889440e-02  -3.1726340e-02   7.0166553e-01   9.6510343e-01   4.8676251e-01   9.0370174e-01   6.9187820e-01   8.6973442e-01  -9.3287171e-01   1.8248038e-02  -2.4783563e-01   6.5397753e-01  -6.2314076e-01  -5.2169746e-01  -3.8335703e-01  -9.7767526e-01  -4.2780924e-02   1.0832836e-01   6.5285410e-01  -8.1655215e-01   1.3165348e-01  -1.3626348e-01   2.6198716e-01  -1.1118215e-01  -4.8728110e-02   1.5298281e-01   3.7652102e-01   2.8034777e-01  -5.9799517e-01  -5.5895509e-01  -5.9924169e-01   2.4181638e-02  -7.1293402e-01   7.8186545e-01  -3.2950163e-02   1.8779002e-01  -9.0796713e-01   2.4261087e-01   3.0334633e-01  -5.2872746e-01   4.0878481e-01  -5.5351002e-01  -2.0520527e-01  -7.7739654e-01  -6.1785843e-01   8.1736122e-01  -3.9875882e-01  -9.5829738e-01  -9.2085175e-01   8.1983866e-01   8.9979948e-01  -8.6154749e-01  -4.9204349e-01  -3.4850936e-01  -5.7318483e-01   6.6451424e-01  -2.2834003e-01   8.9778758e-02   3.4898138e-01  -3.8133354e-01  -4.7935340e-01  -3.0958320e-01  -7.9030948e-01   1.1579299e-01  -9.9404349e-01   3.9541053e-01   6.4021769e-01  -1.3017698e-01   6.1225204e-01  -8.4881549e-01   3.0025705e-01   8.9659618e-01  -2.9948821e-01   6.1913045e-01  -3.8485560e-01  -9.2371710e-01  -3.0744770e-03  -2.0051749e-02  -9.4443668e-01  -8.6522637e-01  -6.4451113e-02   9.1615815e-01   2.3325695e-01  -6.0669316e-01   8.1492703e-01   6.3990946e-01   7.2065038e-01   8.4416867e-01  -8.9991923e-01   3.9420942e-02   2.2815052e-01  -1.9208751e-01   5.7500028e-01   3.3436560e-01   6.0643883e-01   7.0134757e-01   6.1167893e-01   2.1519548e-01   4.5830840e-01   2.6218398e-01  -5.9307268e-01  -3.0592758e-01   8.1114087e-01  -9.3404754e-01  -8.4368203e-01  -2.6646181e-01  -9.7967153e-01   7.8160332e-01   9.5746459e-01   6.6710584e-01  -1.4318246e-01  -2.6147753e-01   5.7425524e-01  -3.2091904e-01  -2.7063004e-01   1.8525871e-01  -9.9042260e-01   3.5375747e-01   9.5199417e-01  -6.2911169e-01  -1.3960616e-01   4.4998399e-01   2.2774819e-01  -4.5439486e-01  -7.9742563e-01   2.3217227e-01  -4.1183093e-01   2.0868195e-01   9.0643193e-01  -3.7058113e-01  -1.4866674e-01  -1.3584257e-01   8.5559946e-02   1.0012496e-01   2.0101159e-01   7.1926586e-01  -4.2872105e-01   7.1790922e-01  -5.8877830e-01  -8.0656418e-01  -8.1188450e-01   4.9194515e-01  -7.6787243e-01   4.2598592e-02   5.7740160e-01  -1.6500269e-01  -7.7808159e-01   9.6440127e-01   4.3818050e-01   2.7817354e-01   3.3533938e-01  -3.8996142e-02   2.3548594e-01  -9.6976208e-02   9.6977323e-01  -8.2358984e-01  -3.8483621e-01   3.9854894e-01  -9.4287315e-01  -7.1247582e-01   9.9146733e-04  -7.9301839e-01   9.9590514e-01  -5.9611112e-01  -8.7313190e-01  -7.3658944e-01  -4.2072325e-01  -3.7483659e-01   6.9237477e-01  -6.3555280e-01   9.2306024e-01  -5.8670889e-01   6.6173823e-01  -4.4018963e-01   4.8968895e-01  -6.4697672e-01   1.7397011e-01  -6.5228092e-01   1.8331598e-01   4.1234485e-01   5.9907152e-01  -4.5840079e-02   5.5589119e-01   9.2307052e-01  -8.0625924e-01   6.8943459e-01   2.1381341e-02  -6.0799995e-01  -4.1720523e-01  -1.1985419e-01   1.2085314e-01  -3.2453770e-01   1.9577874e-01   8.3583988e-01   5.1509981e-01   7.1610220e-01   8.1194183e-01  -7.2960923e-01  -3.9522531e-01   6.7148585e-01   2.8810065e-01   9.9070076e-02   8.9884726e-01   4.6354317e-01   1.5861069e-01  -7.0798015e-01  -7.9584721e-01   1.7000205e-01   7.5033344e-01  -4.9690830e-01   7.4768484e-01  -2.3455809e-02   8.5404913e-01  -9.5842858e-01  -2.9907293e-01  -6.7343721e-01   4.3617723e-01  -7.2039790e-01  -7.0736257e-01  -3.6743317e-01   5.8537295e-02  -2.7553941e-01  -4.2423773e-01   1.0013744e-02   3.5766584e-01   5.7096528e-02   1.4395984e-01  -7.4345291e-01   8.5830782e-01  -5.3556928e-01   7.2409836e-01   3.6589286e-01   7.6624087e-01   7.6920166e-01  -2.7429213e-01   1.5835023e-01   1.7914154e-01   5.8923527e-01  -8.8605061e-01  -3.5072153e-01  -3.2009263e-02  -8.5671701e-01   9.7768294e-01   4.0646333e-01  -2.5908389e-01   3.2847687e-01  -7.5536650e-01   1.1520057e-01  -7.6730648e-01   3.4497677e-01   6.6954645e-01  -8.8362302e-01  -2.9844466e-01  -2.8852875e-01  -7.3578524e-01  -2.2179169e-01   1.3459168e-01  -8.6567687e-01   1.9782241e-01   9.2376125e-01  -7.0509679e-01  -7.6173812e-01   5.1034994e-01  -9.1832596e-01  -7.0098360e-02  -9.8535563e-01   4.8260265e-01   3.9445554e-01  -5.5653158e-01   6.6774754e-01   2.8052048e-01  -6.9234871e-01   3.8198924e-01  -8.4599209e-01  -5.3404805e-01   6.8332264e-01  -3.0336616e-01   9.4320653e-01   8.1756608e-01   8.0058336e-01  -5.9241637e-01  -9.2910451e-01  -9.7468837e-01   5.3994599e-01  -2.6896611e-01   7.3643390e-01  -1.2506575e-01  -4.6812828e-01   7.7717561e-01  -8.4599492e-01  -2.4661970e-01   8.9540417e-01  -7.3169358e-01  -7.5907522e-01   3.6668770e-01  -8.2792867e-01  -2.1403573e-02  -3.3437456e-01   7.6944624e-01   9.5470436e-01  -8.2246699e-01   8.7406833e-01  -5.8389982e-01   7.0377803e-01   3.4476387e-01   2.7157710e-01   1.2375911e-01   6.4661179e-01  -6.0346435e-02  -8.1251726e-01   8.3332529e-01  -7.2075755e-01  -4.8440034e-01  -8.3220831e-01   8.0973364e-01
   8.2126804e-01  -7.5221146e-01   6.5584072e-01   7.9385042e-02   9.7922461e-01  -8.1274865e-01  -2.3706796e-01   6.3724855e-01  -3.5673735e-01  -2.3978689e-01  -2.2436570e-01   7.6196538e-01  -3.5242406e-01  -5.6001091e-01   8.0829297e-01  -9.0747520e-01  -2.6216382e-01  -9.4694034e-02  -1.4856035e-01  -4.0813397e-01   5.8993166e-01   5.2709151e-01   7.1910200e-01  -1.2289335e-01   1.7524452e-01  -7.6103327e-01  -7.6622357e-01   2.3489169e-01   1.4383561e-01   9.3737596e-02   4.6493899e-01   6.0729899e-01  -5.4031055e-01  -5.8362647e-01  -9.6382095e-01   9.4479444e-01  -6.4470714e-01   5.4600918e-01  -7.5239879e-01   9.4275895e-01  -3.8349337e-01  -6.5604689e-01  -4.2848915e-01  -1.4691666e-01   7.1592870e-01   1.4849374e-01   4.7391741e-01  -5.7476290e-01  -1.9009871e-01  -2.7825394e-01  -1.0074143e-02  -2.2519654e-01   8.0254728e-01   5.4024151e-01  -8.4451714e-01  -4.0257706e-01  -7.7329300e-01  -9.6934578e-01   6.8417237e-01   1.2426044e-01   3.5023326e-01   1.7255595e-01   7.8249605e-01   8.5584927e-01   6.3181051e-01  -6.4256432e-01  -1.8781067e-01  -1.5789032e-01  -9.0816480e-01  -7.3267469e-01   4.7802166e-01  -7.2584307e-01  -1.8496633e-01   6.1491839e-01   3.0982917e-01   9.3994283e-01   9.8449524e-01  -8.1599756e-01  -2.2126816e-01  -6.9809556e-01  -7.4181950e-01   5.0741163e-01  -4.5057007e-01  -5.3788281e-02   4.9023290e-01  -1.4387833e-01   9.9869842e-01   3.7402219e-01  -7.5862945e-01  -5.0338868e-01   5.6065701e-01   5.6126830e-01  -6.5759625e-01   7.2359051e-01   7.4142287e-01  -2.9598144e-01  -5.9513489e-02   4.4006403e-01  -3.0850539e-01  -5.8732105e-01  -7.8046084e-01  -6.4848353e-01  -6.5359575e-01  -8.8491188e-01   8.3290331e-01   8.0704513e-01   4.7570162e-01  -6.1708956e-01  -4.5713621e-01  -1.3650017e-01  -3.6054806e-01  -8.8744868e-01   7.6449542e-01   5.2613520e-01   9.8538480e-01  -5.6523169e-01   5.4687991e-01   2.6164987e-01   1.0965510e-01   3.2251015e-01   9.2430408e-01   4.7370937e-01  -8.6725865e-01  -3.3381573e-02   4.2544957e-01  -7.0052186e-01  -2.2235584e-01  -2.1793878e-02   3.0735423e-01  -4.0803806e-01  -9.5467896e-01  -5.0203009e-01  -9.5677601e-01   1.3369865e-01  -6.0475919e-01   2.0426969e-01  -9.9282991e-01  -4.7287258e-01  -7.8405635e-01  -9.3261395e-01  -1.9649707e-01  -2.4265937e-02  -5.2096796e-01  -2.7560015e-01  -1.6963039e-02   8.3518641e-02  -1.3960476e-01  -6.9356108e-01   8.0006102e-01  -7.9837847e-01  -1.0564890e-02  -4.9683159e-01   6.7230565e-01  -8.7181857e-01  -7.0560255e-01   7.2346438e-01   5.9277944e-01  -4.1193883e-01   4.4696809e-01  -3.6004048e-01   6.2316611e-01  -7.3572841e-01  -2.8143833e-01   9.6809101e-02   7.7327344e-01   3.0056426e-02  -3.0433234e-01   8.0482689e-01  -2.0489071e-01   6.4853714e-02   1.7306704e-01   5.9432448e-01   9.3626147e-01   5.0400506e-01   9.3908952e-01  -1.1848441e-01  -3.4484381e-01   4.1337816e-01   6.8300744e-01  -2.5463609e-01   2.6896158e-01   3.1876998e-01  -9.6516665e-01  -6.9272866e-02   8.6522301e-01  -7.7193631e-01  -5.9759169e-01  -8.3184767e-01   5.6585717e-01   9.5199482e-01  -9.8547875e-01   2.8387594e-01  -1.2832875e-01  -9.0779321e-01   5.5675574e-01   8.3873244e-01  -6.4129727e-01   6.6343673e-01   4.0293228e-01   6.3321223e-01   6.8738123e-01  -1.9076385e-01   9.5208989e-01  -3.8181624e-03   9.9651253e-01   3.6136557e-01  -8.5072606e-01   9.3509482e-01  -4.3053601e-01  -9.6526910e-01  -7.0048262e-01  -1.8732515e-01   1.2576103e-01   1.5797836e-01  -9.1556775e-02  -6.6797195e-01  -3.3076901e-01  -6.1068205e-01  -2.7420637e-01  -2.5692606e-01  -7.5975088e-01  -7.4801810e-01  -3.3798437e-01   8.7603712e-01   5.4575701e-01  -8.0475014e-01  -2.6376263e-01  -2.2624682e-01   3.2128860e-01  -7.0352511e-01   4.3415645e-02   3.0170028e-02   7.5078912e-01   2.5358023e-01  -6.7014936e-01  -3.7253722e-01   7.6149683e-01  -7.2820473e-01   3.6256716e-01  -7.3072480e-01   7.4776495e-01   5.0611981e-01  -1.7330634e-02  -8.4135432e-01   1.9917173e-01  -8.4327771e-01  -3.6781370e-01  -9.7739718e-01   8.5315307e-01  -3.7447875e-01  -7.8380369e-01   7.7732463e-02   7.1032009e-01  -5.5735387e-01  -4.5034337e-01   8.7442901e-01  -8.0908392e-01   8.6830820e-01  -8.8252568e-01   1.5529563e-01  -4.7859875e-01   3.8106831e-01   6.5246261e-01  -9.3337083e-01  -8.7736830e-01  -6.1699322e-01  -8.9652751e-01   6.5230258e-01  -4.7405482e-01   7.4811450e-01  -8.7359890e-01   2.4025445e-01   4.4325498e-01  -4.2593680e-01  -7.3142240e-01   8.5714579e-01   1.7263815e-01   2.4604600e-01  -7.3994190e-01  -6.1401477e-01  -7.8843845e-01   4.6077318e-01  -3.1776058e-01  -9.2106618e-01   1.2161800e-01   9.2872053e-01   7.6811106e-01  -7.3742833e-01  -8.8731065e-01   3.6584662e-01   2.2274247e-01  -8.9729368e-01   2.2031847e-01  -4.5184803e-01  -5.9779540e-01   1.7330927e-01  -7.5196963e-01   1.0394038e-01   8.4990009e-01  -3.3641028e-02   1.6597113e-01   3.9058462e-01   1.4883673e-01  -5.5312930e-01   9.5360989e-01   2.8420167e-01  -5.2153826e-01   2.1900181e-01  -7.8124000e-01  -8.3375766e-01  -5.1213886e-01  -3.0953806e-01  -9.4315222e-01  -5.7821600e-02  -7.4178047e-01   2.9705292e-01  -5.2523260e-01   7.0473696e-01   2.9001756e-01   4.1411703e-01  -2.5205842e-01  -5.7415661e-01   2.8638571e-01  -4.4572451e-01   4.1410802e-01   2.8891445e-01  -3.5197454e-01   8.0940547e-01  -5.1709291e-01  -8.3690121e-01   8.4615034e-01  -4.4982718e-01  -5.8401661e-01  -6.6469432e-01   1.3409270e-01   8.3625426e-01   2.6571620e-01   9.1899848e-02  -2.2713096e-01   7.1044815e-02  -8.4748400e-01   3.8959082e-01   9.8774498e-01  -5.1799206e-01  -5.2763894e-01  -5.6593942e-01  -2.9071317e-02   3.5773177e-01   4.4318032e-01  -8.5641551e-01   2.8248885e-01  -7.1076343e-01   7.4038599e-01   8.4540120e-01  -8.4152521e-01  -2.7426037e-01  -8.6305131e-01  -5.6840877e-01   8.0515756e-01   4.8707319e-01   4.1425130e-02  -6.0526372e-01  -9.3807759e-01  -5.0216876e-01   4.7810282e-01   2.8646208e-01   7.4897624e-01  -2.6526351e-01   9.5347304e-01   5.4888351e-01  -1.6477875e-02   9.9812527e-01   6.0332389e-01  -6.4726662e-01   2.4303834e-01  -1.7175928e-01  -5.9433885e-01   7.3156230e-03  -5.1067143e-01  -7.5077010e-01   4.4711479e-01  -4.5567378e-01  -3.0378473e-02  -9.3077551e-01  -5.5881086e-01   4.6590728e-02  -7.1628122e-01   6.7909201e-01  -3.5257268e-01   7.8082553e-01  -2.6224454e-02   9.5838016e-01   2.2925312e-01  -5.9293151e-01  -2.6595765e-01  -2.4767939e-01  -9.9097146e-01  -8.1646823e-02  -5.7069938e-01   6.7693216e-01  -2.2502208e-01   7.0217325e-02   1.4082223e-01  -3.5183815e-01   5.4350103e-01   3.2406507e-01  -5.7525617e-01  -1.3033241e-01   3.2604333e-01   4.7946893e-01  -6.8882371e-01   7.2442763e-01   4.5010090e-01  -7.6767171e-01   9.6646697e-02  -8.4360158e-01  -2.1959571e-01   1.7530197e-01  -9.9770548e-01  -6.5089171e-01   3.9236459e-02   1.3344638e-01  -8.5615505e-01  -4.5097509e-02   5.7802199e-01   6.4995819e-01   4.9603627e-02  -2.0005909e-01  -3.9870216e-01  -7.1090520e-01  -2.3704545e-01   5.3017352e-01  -4.1361947e-01  -6.1826626e-01  -4.3126829e-01  -8.1279781e-01  -5.4960198e-01  -1.5156508e-01  -4.9134515e-01  -7.6582906e-01   9.7079256e-01   5.0101905e-01   7.0564314e-01  -5.1368255e-01   3.7020790e-01   3.3985295e-01  -8.0786957e-01   1.1505232e-01   2.8119575e-01   9.8256134e-01   2.0597364e-01   6.6610078e-01  -4.3093897e-01  -7.8975256e-03  -8.8864742e-01   4.8088121e-01  -4.9519589e-01   4.5927934e-01   7.8916802e-01  -2.4406197e-01  -6.1802595e-01  -8.1807310e-01   3.2867046e-02   7.1014920e-01  -4.5018234e-02   8.5754474e-01   7.8878396e-01  -7.8597390e-01   9.0869478e-01  -5.0497647e-01   1.0188415e-01   5.9531668e-01   5.3883461e-01  -1.9586746e-02   5.8188752e-01   5.9452756e-02   1.6230937e-01  -6.7742020e-01   6.9118238e-01   1.2136902e-01   6.5644984e-01   3.8371690e-01   7.6042111e-02   6.8096890e-01  -7.7447527e-01  -3.1941959e-01  -9.2388024e-01  -1.5112961e-01  -1.5164673e-01   2.2958402e-01  -4.7303534e-01   9.0398033e-01  -1.0651272e-02   1.3089753e-01  -9.4068424e-01  -3.4849407e-01  -7.1493886e-01  -2.0672404e-01  -7.2040389e-01  -2.1508010e-01   8.9814085e-01  -6.0364383e-01   3.3628955e-01  -4.0763951e-01  -2.5496977e-01  -6.4013823e-03  -1.8226792e-01   1.8930295e-01  -8.2426418e-01   6.4645762e-01   1.6170879e-01   7.4659937e-01   4.4095374e-01   7.2506856e-01   6.2799896e-01  -1.0547700e-01   4.3879105e-01  -6.5625791e-01   9.8086870e-01   7.6820235e-01  -8.7683465e-01   8.1637398e-01  -8.4012323e-01   2.5511588e-01  -9.6961363e-01  -8.0411580e-01   9.4492072e-01  -2.9152665e-01   7.7968736e-01   5.2939608e-01  -7.7062594e-01  -8.3700009e-01  -9.0517847e-01  -5.2211836e-01   2.4369618e-01  -4.0359475e-01   3.2262661e-02  -9.9581249e-01  -6.5505408e-01  -1.1394542e-01  -3.7380786e-01   5.0367140e-01  -9.4359725e-01  -7.3720582e-01  -3.3475645e-01   2.4464658e-01  -3.5010917e-01   9.3990056e-01   4.2239370e-01   7.8484191e-01  -5.9723463e-02  -9.0725061e-01   2.0946662e-01   8.6055713e-01   7.6854111e-01  -8.6035413e-01   8.4041166e-01   5.6641180e-01  -2.9838599e-01   5.1520874e-01  -5.4246837e-01  -5.4893112e-02  -1.9253519e-01  -2.5695117e-01  -2.9959322e-01   9.3962296e-01  -7.8329905e-01  -5.7431475e-02  -3.8657779e-01  -1.2126729e-01   4.6213199e-01  -2.1930082e-01   3.0267841e-01   1.8429720e-01   6.8299519e-01   5.0683564e-01   1.3235552e-01   4.5742540e-01  -4.0220237e-01  -4.9010000e-02   2.9840339e-01   2.9936962e-01   4.5216692e-01  -6.6578963e-01  -3.2215172e-01  -5.6633467e-02  -5.6874349e-01   5.9142221e-01   2.0669863e-01   2.4982884e-02  -3.8901361e-02   7.4753411e-01  -1.2920229e-01   2.5364451e-02   1.3439893e-01  -1.6845621e-01   5.4438142e-01   2.9938879e-01   1.8165108e-01   1.1930301e-01   6.6243166e-01   1.8729433e-01  -8.8679290e-01   7.3292896e-01  -2.8200378e-01   5.8970420e-01  -5.6729226e-01   8.8539165e-01   2.0156465e-01  -4.6351005e-01   3.4645659e-01   6.2909278e-01  -7.0719253e-01   6.8695002e-01   6.7200254e-01  -1.9804310e-01  -5.0184990e-01   7.1507846e-01   3.2440744e-01   3.3450309e-01  -3.0472470e-01  -9.5195767e-01   6.8353166e-01  -9.2172968e-01   1.3930170e-01  -5.1765741e-01   5.4588443e-01  -3.3450391e-01   9.2175348e-02  -7.7945461e-01  -1.0804776e-01  -5.4621002e-01  -2.4155410e-01   3.7565473e-01   7.9214881e-01   8.1921618e-01   7.8235928e-01  -9.5276647e-01  -1.1188360e-01   8.1082368e-01   9.0193146e-01  -8.3429982e-01   2.5141995e-02  -8.7712083e-01  -5.3066913e-02   5.1073693e-01   9.8462313e-01   1.4151165e-01   4.3035133e-01   8.2852968e-01  -8.4115702e-02  -4.5518326e-01   7.0753045e-01  -8.7188911e-01   7.3998347e-01  -8.5527524e-01   1.5057836e-01  -7.2792735e-01  -7.7724258e-01  -7.6973457e-01   5.6165328e-01   7.8440477e-02   3.7145808e-01  -5.0193731e-01   6.9339347e-01  -9.6411346e-01  -4.6462516e-01  -3.8029784e-01   7.1453681e-01  -7.0372057e-01  -7.9761599e-01   3.6164450e-01   4.2419659e-01   8.8096725e-01  -8.4644392e-01  -6.8965331e-01  -1.3938202e-02  -1.4039362e-01  -2.0799112e-01  -4.7718712e-01  -5.6297680e-01   5.4753560e-01   2.9179640e-01  -2.3418997e-01   1.9698801e-01  -1.7166252e-01  -9.0143932e-01  -8.2524671e-01   5.5887640e-02   3.1217785e-02  -3.3859388e-01   3.9884899e-01  -7.8478035e-01  -4.9689603e-01  -7.9818654e-02   4.7170293e-01   8.4703851e-01   8.9537131e-01   2.5984659e-01   2.6228750e-01  -9.4007935e-01  -1.7393549e-01  -3.2107143e-01   4.4047357e-01  -4.4446873e-01  -1.2927232e-01  -2.5883202e-01  -4.8711485e-01   4.8949738e-01   4.0186212e-01  -4.6718393e-01  -6.1394589e-02   1.3631873e-01  -5.5223876e-01  -2.4508667e-02  -7.9064877e-01   6.9532839e-01  -3.2497147e-01   3.9559997e-01  -7.4769772e-01   4.7229118e-01  -4.8674172e-01  -9.7637467e-02  -4.4113864e-01   7.0887636e-01   9.8833637e-01   4.9825173e-01   1.0910788e-01  -8.3064436e-01   8.4527043e-01  -7.4720297e-01  -2.6703097e-01   6.9689353e-01   7.6472414e-01  -2.2709898e-01  -6.5869827e-01  -9.9397833e-01  -7.1670564e-01   7.0588852e-01   8.6230484e-03  -9.6842000e-01   9.9843899e-01  -6.0083712e-01   3.0729164e-01  -7.7640451e-01  -1.4388655e-01  -4.2876015e-01  -5.3742754e-01  -8.2239866e-01  -5.7138851e-01  -9.2723524e-01  -5.2968931e-01  -8.9343419e-01   4.6392000e-01   1.5115319e-01  -3.4130168e-01   2.3729473e-01  -1.1779933e-01   8.8746358e-01   4.6973021e-01   8.1367679e-02   1.0123806e-01  -2.9705897e-01   6.1712550e-01   1.8833376e-02   7.7642288e-01  -5.3658372e-01   6.1408341e-01   1.8833787e-01  -1.9578896e-01   6.0708139e-01   6.7152183e-01   9.4802150e-01   9.5095376e-01  -4.4848904e-01   5.9580994e-01  -4.8056264e-01   8.9342734e-01   9.4065505e-01   6.7129857e-02  -8.0148074e-01   2.3896428e-01   5.3196623e-01   7.8464969e-01  -5.5669835e-01   5.8679591e-01   9.9320698e-01   3.5938713e-02  -2.2766378e-01   3.0081898e-01   1.3317485e-01   2.9820025e-01   3.8099640e-01   3.8688996e-01   9.0463023e-01  -3.5752735e-01  -6.0358840e-01   4.5221230e-01   6.4484562e-01   4.1624444e-01  -7.1560053e-01   3.6751875e-01   2.9158567e-01   6.4947416e-01   3.7859321e-01   3.0186540e-01   8.4475458e-01   8.4220422e-01  -9.6869592e-01  -8.0590904e-01   9.3375466e-02  -9.8030205e-01  -1.6222516e-01   5.1635424e-01   4.0346625e-01   3.8518083e-01  -1.0057755e-01   2.5242024e-01  -3.4747022e-02  -1.9065231e-01  -2.8505577e-01  -1.9603217e-01   8.4163030e-01  -6.0989716e-01   1.1048798e-01   7.7778371e-02  -1.4463399e-01   5.4863376e-01   1.9482261e-01   3.0412422e-02  -3.0985910e-01  -8.3364944e-01  -3.3687806e-01   4.7730558e-01   6.4406564e-01   2.1691633e-01  -9.5559971e-01   6.7431505e-01  -5.1811265e-02  -6.3838322e-01   3.6215378e-01  -9.0406712e-01   4.6319080e-01  -1.1829926e-01   9.7511544e-01   9.5606012e-02   4.6470077e-01  -4.9861323e-02  -2.4328605e-01   7.7683483e-01  -4.6045906e-01   5.0784085e-01   1.6784432e-01  -5.1984835e-01  -5.8995029e-01   3.8244901e-01   4.2054038e-02   3.4759217e-01  -8.5351200e-04   5.1683347e-01   9.1672329e-01  -1.8544136e-01   2.0710103e-01  -5.5334007e-01  -1.4949385e-02   5.2307258e-01   8.2895633e-01   1.8567526e-01   6.2476631e-01  -2.5458661e-01   1.0520321e-01   6.7863489e-01  -5.4757703e-02   4.5163871e-01   6.8305654e-01   6.5818658e-02   2.4007989e-01  -2.4580331e-01  -3.4874808e-01  -9.8082269e-01  -4.7432720e-01   2.3655989e-01  -8.8399649e-01  -5.3155333e-01   8.4745717e-01   7.0963419e-01   1.0147644e-01   5.0180974e-01   7.6186363e-01   9.9297412e-02  -2.2846519e-01  -1.3479799e-02  -9.0539036e-01  -4.4796015e-01   5.9359702e-01  -6.7839755e-01   6.7108885e-01  -5.5388557e-01   1.2813366e-01  -4.2120441e-01  -1.4886866e-01   8.5730183e-01  -1.9442737e-01  -3.9910155e-01   5.2879324e-01  -5.1688717e-01  -3.9347340e-01   4.6079280e-01   3.0844793e-01  -5.0126950e-01  -9.4691152e-01  -8.2185569e-02  -4.2921068e-01   4.2781252e-01  -7.0707037e-01  -9.3576645e-01   9.4226228e-01  -7.1450815e-01   1.6299169e-03  -4.7633909e-02  -1.2567123e-01  -4.3199263e-01   9.7853628e-01   4.6689929e-01  -9.2965751e-01   5.2949985e-02  -2.8106419e-01   1.9638890e-02  -7.7154338e-01   2.6813403e-01   9.0334170e-01   8.9838574e-01  -2.5605909e-01   3.0900170e-01   9.8679560e-01   1.5545530e-01  -5.3137156e-02  -6.0570383e-01  -5.2499196e-01  -8.0735577e-01  -1.1091573e-01  -9.1848515e-01   7.9522480e-03  -6.3156134e-01  -5.1243840e-01  -1.3170493e-01   7.0138542e-01   9.4900614e-01   7.0164194e-01   2.8695599e-01   9.2814107e-01   8.4543550e-01   9.2813448e-01  -1.7618437e-01   9.6559503e-01  -7.5988488e-02  -6.0492497e-01  -9.6048617e-01   2.8141813e-01  -9.9933537e-01   9.9120946e-01   9.2410812e-02  -9.1251015e-01  -9.8411124e-01   8.9625007e-01   9.6246161e-01   2.1754361e-01  -5.5322533e-01  -6.0939695e-01  -1.2894963e-01   2.2108164e-01   2.3136092e-01   5.5161886e-01   8.8703720e-01   7.4874810e-01   4.9514661e-01   7.9350691e-01   2.4150479e-01  -4.9795670e-01   3.1725007e-01  -4.8802242e-01  -7.4849938e-02   9.5756904e-03  -5.9009342e-01   6.5213216e-02   6.1710417e-01   8.1053044e-01   5.3048586e-01  -8.7241917e-01   3.7532446e-01  -6.0031124e-01  -6.3360339e-01  -3.1537013e-01   9.2269727e-01   6.7973065e-01   4.6418628e-01   6.7447973e-01   9.2144150e-01  -1.2864382e-01  -9.0357198e-01
  -4.9701092e-01   3.5810527e-02  -2.1071462e-01   7.4574314e-01  -3.8776924e-01   8.0689630e-01   6.7423743e-01   2.8561772e-01  -4.4049501e-01   5.7881791e-01  -5.4451633e-01  -1.3017779e-01  -2.4855059e-01   8.4302035e-01  -2.1778469e-01   6.3762156e-01   2.1317438e-01   8.4299282e-01   4.1730231e-01  -8.7116852e-01  -9.5787700e-01  -5.6764811e-01  -4.2306143e-01   3.1303403e-01   5.0050942e-01  -7.8250015e-01   2.6797267e-01   3.8656858e-01  -5.3476832e-01  -2.7036502e-01   9.4296769e-01   3.6952648e-01  -8.0892528e-01   2.9608756e-01  -3.3129373e-01   4.0675533e-01   1.0955811e-01  -6.8080960e-01   9.9660633e-01  -7.9949309e-01  -7.5952960e-01   5.3076688e-01   2.9707821e-01  -3.8274248e-01  -4.9463767e-01   8.1815672e-01   4.6753644e-02  -2.4242310e-01  -5.9030048e-01   4.2992540e-01   1.5935046e-01   3.1721567e-01  -3.5060245e-01   9.5076059e-01   3.8069823e-01   8.4829043e-01  -7.6383578e-01  -4.8140345e-01  -2.0245096e-01  -6.7901910e-01   1.0233470e-01   3.1164609e-01   9.1536610e-01   8.1357727e-01  -9.8845018e-01   6.5214382e-01   6.5636680e-01  -4.7336776e-01  -2.1179262e-01   9.5037728e-02   5.2955175e-01   4.4684116e-01  -6.3973216e-01  -4.9557182e-01   1.7199057e-01  -8.9359906e-01   8.0914966e-01   2.1491121e-01  -6.7471039e-01   1.3937896e-01  -3.3877289e-01  -9.8013864e-01  -7.5573966e-01  -2.9753603e-03  -2.1613669e-01  -6.9693905e-02  -3.8235523e-01   3.7316674e-01  -9.1728760e-01  -2.4853443e-01   8.0725451e-02  -4.6540842e-01  -1.6319012e-01   5.5562977e-01  -9.8969429e-01  -4.4254596e-01   6.5432871e-01  -2.5774973e-01  -5.0820869e-01   8.4186891e-01  -9.7859159e-01  -9.9906043e-01   2.5747402e-01   8.8512252e-01  -1.5428315e-01   7.4748092e-01  -9.4469766e-01  -2.9173914e-01  -5.7934202e-01   4.6790754e-01  -5.6867876e-01   3.8073100e-01  -1.6927836e-01   9.6289643e-01   6.7371277e-01   1.6897090e-01   5.9009086e-01   2.4191048e-01  -4.7664554e-01  -8.9850046e-01   1.7823318e-01  -7.2588694e-01   1.0957244e-02  -5.3872372e-01   9.7981715e-01  -2.6211218e-01  -6.9652930e-01   2.8362287e-01  -7.4439757e-02   1.2600224e-01  -6.2207823e-01   8.9311773e-02  -5.3964844e-01  -9.2497017e-01  -7.1083675e-02  -3.9897971e-01  -4.2405983e-01   5.0890960e-01   4.0949655e-01  -7.0227638e-02  -2.4210637e-01  -2.1157405e-01   3.9062664e-01  -8.4353738e-02   4.2854033e-01  -5.5196440e-01  -8.9384485e-01   9.9365541e-01   1.7237437e-01  -1.1591413e-01   3.8661913e-01   4.0535248e-02   8.5956273e-02  -5.3323078e-01  -8.9342758e-01  -4.9563728e-02  -9.5280298e-01  -2.2871041e-01   9.4460753e-01   1.1204670e-01   2.6408801e-01  -4.4920181e-01   6.1218302e-02  -5.5013354e-02   2.2010083e-01  -7.6086742e-01  -7.3170555e-01   9.1671172e-01   3.9194287e-01   4.6897495e-01  -1.3231824e-01  -5.4891392e-01  -4.7645345e-01  -4.8972328e-01  -2.0542649e-01   8.2336620e-01  -9.6427859e-01   6.7924208e-01   1.4462542e-01   8.0492447e-01  -5.5074502e-03  -3.2499570e-01  -7.5328190e-01   1.1863434e-01   9.7619909e-01  -6.3121916e-01  -5.4922943e-01  -8.7928680e-02  -9.1714105e-01  -9.3723649e-02  -8.4631571e-01   8.0663072e-01   5.7335389e-01   7.6480329e-01   2.6787988e-01   1.3432953e-01   9.9418329e-01   1.5913484e-02   2.7818974e-01   5.1140240e-01   9.1647274e-01  -3.5749084e-01   3.5780935e-01  -5.7780036e-01  -3.0095813e-01   4.6973927e-01   4.6254141e-01   6.3498424e-01   2.4098276e-01  -1.5076617e-01   2.9713111e-01  -5.1547410e-02   9.7270689e-01   3.6964347e-01  -4.6152075e-01  -6.2333067e-01   9.1749894e-02   3.4792045e-01  -1.7193839e-01   4.8385036e-01   2.8988903e-01   4.0170820e-01  -4.9190301e-01  -4.0449040e-01   5.4134635e-01   7.1787088e-01   1.0811402e-01   9.1201927e-01  -6.5338626e-01   6.6826655e-01  -1.0516267e-01  -6.9985876e-01   9.0327575e-01   7.9779635e-01   1.0095733e-01   3.5956558e-01   3.7091745e-01  -6.0768160e-01   4.7698253e-01  -8.8072626e-01   5.7610496e-01   3.5124229e-01   7.9032577e-01   8.4072344e-01   2.3537148e-01  -8.4174858e-02   7.8660902e-01   2.7694636e-01  -6.9043883e-01  -6.1929292e-01   6.1388102e-01  -1.3766024e-01  -3.3761280e-01   1.0735836e-01   2.1187340e-01   8.5631398e-01  -1.6119966e-01   1.6191108e-01   6.0630392e-01  -3.7465874e-01   8.0808790e-01   8.8540805e-01  -1.2275157e-01  -5.8303688e-01   8.0203804e-02   4.7383445e-01   3.0866315e-01  -4.7000166e-01   8.0185548e-01   2.5807483e-01   1.6904638e-01   7.5213169e-01   5.4899795e-01  -8.6570950e-01   9.8448892e-01  -2.6777238e-01   3.7817041e-01   4.4484525e-01   8.2542802e-01  -7.6310747e-01  -1.0260158e-01   8.3123172e-01   2.9977421e-01   9.4565017e-01  -8.3598848e-01   4.4036632e-01  -3.8355150e-02   4.4924335e-01  -5.7680158e-01  -4.3176237e-01  -4.8948932e-01  -9.8331997e-01  -3.7105482e-01  -5.6955334e-01   8.8693279e-01   2.5600148e-01  -8.3833978e-01  -3.0069533e-01   4.0236557e-02   9.1543753e-01  -2.2890294e-01  -8.7348912e-01  -1.6476830e-01  -3.7936451e-01  -2.8252794e-02  -2.2093762e-01   9.8930076e-01   3.9007125e-02   6.7051175e-01   9.7881141e-01  -6.6336399e-01  -8.0680506e-01   3.2120423e-01  -7.9296534e-01  -7.5262403e-01  -5.0924389e-01  -4.6442970e-02  -8.5311316e-01  -6.9372769e-01  -2.9010493e-01  -6.9846789e-01  -5.5761650e-01   1.1706613e-01  -8.3799004e-01  -8.8564511e-01  -4.6060717e-01   6.1415702e-01  -4.6216810e-01  -1.8607405e-01   8.2237810e-01   2.3635068e-01  -9.2370325e-01  -6.4288991e-01  -4.7715698e-01  -1.8803097e-01   7.3416480e-01  -4.8760627e-01   8.3199958e-01   7.9278111e-01   4.3133274e-02  -3.3926935e-01   4.4926266e-01   7.8934259e-01   6.3600574e-01   4.2206641e-01  -8.7862751e-01   3.8304095e-01   6.9598710e-01  -9.9161515e-01   5.0639092e-01   3.0736744e-01  -2.0710629e-01  -3.3316277e-01  -7.6401011e-01  -9.8466710e-02   7.8226476e-01  -5.0704972e-01  -1.3834802e-01  -8.3867543e-01  -6.7745577e-01  -3.9518290e-01   8.7112370e-01  -1.5658091e-01  -6.7517377e-01  -9.9748548e-01   1.9278424e-01   2.9434934e-01   5.5888056e-01   9.1349911e-01  -2.9916776e-01  -5.6438900e-01  -4.5909641e-01   4.1950807e-01   3.3306133e-01   3.5258534e-01   3.9876073e-02  -3.3709043e-01   8.7040259e-02   2.0798480e-01  -8.3292678e-01  -3.8535154e-01  -4.2428763e-01  -6.2577274e-01  -8.1071554e-02   1.8128853e-01   9.6189036e-01  -5.5161209e-01  -6.7929832e-01  -4.6511751e-01  -6.9994420e-01  -5.1165660e-01   4.3949604e-01   8.0800174e-01   3.5660944e-01  -2.9315727e-01   7.7520626e-01  -1.2339181e-01   4.5436037e-01  -5.8880522e-01  -8.9636902e-01   4.1245069e-01  -1.4701394e-02  -1.3385409e-02  -7.5013394e-01  -9.6455909e-01  -4.1934359e-01   2.2496666e-01  -3.8557169e-01   6.4724713e-01  -4.2029679e-01   4.2361179e-01   8.3582396e-01  -6.4616329e-01  -6.7963460e-01  -7.9231807e-01  -4.3848193e-01   7.7663678e-01   2.8489436e-01   5.1545524e-01   1.3311417e-01  -8.6998207e-01   2.9991013e-01  -2.3938899e-01  -3.8073993e-01   8.1659207e-01   8.3880975e-01  -1.4869646e-02  -6.2745728e-01   9.0473467e-01   8.9961920e-01   7.4851178e-01   1.1856588e-01   9.3314385e-01   7.9170311e-01   5.2510189e-01  -7.6766605e-01   7.1137041e-01   2.6730024e-02   5.6787407e-01   9.3205051e-01  -2.3485937e-01  -2.7877867e-01   7.3176574e-02  -4.4308700e-01  -5.4545254e-01  -9.1816415e-01   8.4073439e-01  -3.5268686e-01  -3.7816888e-01  -1.3038058e-01   1.6857861e-01   2.3374670e-01   6.7880637e-02  -2.3682046e-01   2.9110160e-01  -9.8922015e-01   2.4267887e-01   6.9715190e-01   9.3898549e-02   8.0837491e-01   9.8349691e-01   8.3348713e-01   1.2260893e-01   9.3694609e-01  -5.2398151e-01  -6.8580399e-01   5.5805911e-01  -9.2726449e-01  -3.3811223e-01  -3.3788048e-01  -8.2425871e-01   2.0867547e-01  -8.5712543e-01  -2.1610524e-01  -7.3474409e-01  -7.2296031e-01   8.0232809e-01  -7.8038044e-01  -8.0335838e-01  -4.6087354e-01  -3.9941166e-01  -7.3800164e-01   6.2485575e-01   2.8498729e-01  -8.2594600e-01  -3.7481970e-01  -3.0527000e-02   8.9779710e-01   1.1748748e-01   4.0119981e-02  -2.2868924e-01  -5.8400729e-01   7.8480835e-01  -5.1893180e-01   9.8145431e-01  -8.1499574e-01   2.7481473e-01   7.5051180e-01  -4.0328737e-01  -9.0381188e-01   8.1275628e-01   5.0156216e-03   8.0756740e-01   7.9885552e-01  -4.5595476e-01  -1.7241206e-02   3.0260570e-01   2.7994833e-01  -8.3158172e-01  -2.0033077e-01   3.7546807e-01  -3.5448438e-01   1.3060964e-01  -4.9679743e-01   1.4237027e-01   3.6602021e-02   1.5800797e-01  -9.8348610e-01  -7.5973809e-01   6.8801697e-01   1.3732944e-01   9.6859675e-01   6.1557907e-01  -3.2201582e-01  -3.5396701e-01   1.2318412e-01   9.1861748e-01   4.8557889e-01  -7.2302801e-01   5.5844584e-01  -5.5651927e-02   6.9024257e-01  -9.1280989e-01  -8.4118765e-01   7.3478788e-01   8.0065244e-01  -6.9228575e-02   5.4418777e-01  -7.6697524e-02  -1.3498503e-01  -5.9644822e-01   2.4322244e-01  -2.0079169e-01   8.2354802e-01   8.7013002e-01  -4.5139147e-01  -3.0642294e-02  -4.5976010e-01   4.7116178e-01   5.4561707e-01  -3.6067959e-01   1.0062593e-01   2.9609170e-01   6.1858710e-01  -7.0759813e-01   5.4887890e-01  -8.8608229e-01   9.6299539e-01  -1.9199960e-01  -4.0862807e-01   5.7165025e-01   2.8566800e-01  -9.5920550e-01  -8.8406706e-01   1.7344612e-01  -5.2160360e-01  -4.2306814e-01   7.3135085e-01   8.5678036e-01  -4.3890435e-01   9.0613633e-01  -6.5915511e-02   1.8268780e-01   3.4455834e-01  -2.3690830e-01   2.4732934e-01  -3.0559221e-01  -3.0032091e-01  -1.8227041e-01   3.7301059e-01  -9.7770276e-01   4.0957707e-01  -7.2466630e-03   3.6910515e-02   9.0079256e-01   5.2155848e-01  -4.9791989e-01  -7.6402127e-01   5.2725623e-01   4.5972530e-01   2.9624023e-01  -3.8037137e-01  -3.4757609e-01  -2.4500553e-01  -2.0246957e-02   9.5839068e-01   3.9816332e-01  -6.8740974e-01   4.0518648e-01   4.0568062e-01  -2.3139296e-01  -2.3969408e-01  -2.8153193e-01   1.4129560e-01   4.0377588e-01  -2.5602842e-01  -8.9666105e-02  -9.8492390e-01  -1.3673204e-01   6.1467608e-01   6.7287396e-01   3.5610594e-01  -3.5467758e-01  -3.4729886e-01  -3.0402656e-02  -3.6133217e-01   9.9675371e-02   5.7758847e-01   2.4604950e-01   2.5970026e-01  -1.2945549e-01   7.6544311e-01  -2.9065809e-01   6.2279586e-01   9.4909702e-01   2.5011794e-01  -2.5941685e-01   5.8410102e-01   1.9289818e-01  -6.5531418e-01  -8.0152138e-01  -3.5787483e-01   8.3569848e-01   7.4303167e-01  -8.3987077e-01   3.6981315e-01   1.2745068e-01   1.9074140e-01  -6.4725843e-01  -1.7759977e-01   9.7711058e-01  -9.6005798e-01   4.9246190e-01   2.7289945e-01   2.5692958e-01   5.0629575e-01  -5.5253279e-01   5.0654987e-01   2.5870450e-01   4.3753527e-01  -4.6738652e-01  -1.1904503e-01  -4.9322255e-01   8.9309040e-01  -1.8998326e-01   9.2530793e-01   9.4448840e-01  -2.2511226e-01   9.2036595e-01  -2.4705701e-01  -6.4814574e-01  -5.9362942e-01  -1.3316008e-01   4.5071365e-01  -9.2776392e-01   8.2697032e-02  -4.9040023e-01  -2.4805072e-01  -9.0642428e-01  -3.3561390e-01  -3.5195430e-01   6.1665763e-01   2.7142018e-01  -5.4337819e-02  -8.3613967e-01   8.5302114e-01   2.0880448e-02   8.9334507e-01   1.9359523e-01  -2.2256588e-01  -1.2767988e-01  -2.8969751e-01   9.9242746e-01  -8.3167861e-01   2.6450650e-01   5.3465851e-01   6.7124847e-01  -6.0905123e-02  -5.5709549e-01  -4.4921698e-01   2.3926936e-02  -9.5333548e-01  -5.5314182e-01  -8.1072301e-01   7.4218046e-01   9.0908654e-01  -1.7335633e-01  -6.5179400e-01   4.9905137e-02  -4.6065405e-01   9.7545478e-01   3.3722251e-01   9.6199991e-01  -1.4059758e-01   9.1273217e-01  -7.4580843e-01  -2.7372836e-01  -4.5437474e-01   2.8675918e-01   1.2668871e-01  -7.7949809e-01   8.8146010e-01   4.3435535e-02  -8.3514679e-01  -4.6982463e-01  -6.1265565e-01  -4.4995158e-01   4.7454890e-01   6.0535587e-01  -1.7812224e-01   3.8952702e-01   3.2623595e-01   1.6288974e-01   3.7710169e-02  -3.3130377e-01   3.4513401e-01  -2.8408392e-02   3.8808257e-01  -3.2235116e-01  -1.1713418e-01  -7.5166924e-01  -1.8962370e-01  -9.9445141e-01  -1.6265891e-01  -1.4375827e-01   1.7732218e-01   4.6031506e-01  -5.0669741e-01   3.6854284e-01   4.2010261e-02   3.3880209e-01   4.6893670e-01   6.8653795e-01   5.9713125e-01   6.0823974e-01  -2.1330691e-01  -1.7049069e-01  -3.5944005e-01   3.2725195e-01  -7.9817820e-01   3.1711119e-01   5.3909428e-01   6.6413053e-01   8.0128153e-01   1.6422429e-01  -7.5802454e-01   9.7142632e-01   5.0958742e-01  -1.1078454e-01   1.7115323e-01   1.5127656e-01   5.8254318e-01   4.0748265e-01  -5.0856508e-01  -1.3140117e-01   8.6173427e-01  -9.0454718e-01  -1.4013343e-02  -8.8367098e-01   6.8198743e-01   6.0723557e-01   7.1101444e-01   4.6732053e-01  -6.0986007e-02   9.2615375e-01  -3.6581663e-02   8.5233229e-02   6.0655332e-01   6.2365799e-01  -4.3303605e-01  -3.4797717e-01  -7.0872333e-01  -8.7866303e-01   1.9140063e-02  -5.2975984e-01   7.4427197e-02  -2.1322628e-01  -4.6084790e-01   1.0372793e-01   6.0158269e-01  -2.8493265e-01  -3.7106899e-01   5.7179253e-01   5.9717395e-01  -9.3368857e-01   9.2922632e-02   3.4797729e-01  -1.6985708e-01   6.6247293e-01   9.4009773e-01   4.5870079e-01   1.0069365e-01  -8.3315276e-01  -5.7742765e-01  -2.2377746e-01   4.9538954e-02   4.2024860e-01  -6.4077566e-01   3.2579604e-01  -8.4607024e-01   3.4903472e-01   2.6156235e-01  -7.7418658e-02  -9.2029541e-01   2.4403618e-01   2.5625093e-01   4.3942981e-01  -4.0889451e-01   6.8760916e-02  -3.8157375e-01   1.9784860e-01   7.3276092e-01   7.3948292e-01  -2.4060904e-01  -6.8705343e-01  -2.7960723e-01  -7.9891109e-01   5.2974436e-02  -8.2496187e-01   2.1906732e-01  -3.9442533e-01  -5.3168808e-01  -9.9951838e-01  -4.9868045e-02  -3.4647331e-01   5.1649884e-01  -1.8933819e-01   2.8252124e-01  -9.9543614e-01   7.5969496e-01   2.4195761e-01  -2.6790709e-01  -6.7311237e-01  -9.9435757e-01   8.7983300e-01  -8.4965915e-01  -8.4471059e-02  -7.8865956e-01  -9.7930650e-01   5.0392577e-01   8.0579213e-01  -3.1906883e-01   5.5057696e-01   7.5873533e-01   1.6719888e-01   4.9262120e-01  -8.0285819e-01   6.7503712e-01   8.4468306e-01  -4.3081879e-01  -5.9899648e-01  -6.8100892e-03  -8.7629036e-01  -2.3937469e-01  -8.9553735e-01   7.8200758e-01   6.3697419e-01  -6.6606945e-01  -5.1804492e-01   8.5734093e-01   1.1902740e-01   8.6440294e-01  -5.1162641e-01  -6.7380264e-01   5.7409013e-01  -5.4553101e-01  -9.6660205e-01  -1.5055316e-01  -5.3838100e-01  -1.2292321e-01  -2.9614413e-01   1.0282873e-01  -2.4208667e-01  -4.9711906e-01  -2.2977407e-01   8.9011862e-01  -1.5523226e-01   9.7754490e-01  -8.9453856e-01  -4.3402007e-01  -6.0998147e-02  -8.4312380e-01   6.4222469e-01   3.2210221e-01  -8.1054885e-01  -1.3926186e-01  -5.4600979e-01  -2.3677395e-01   9.2769779e-01  -5.7945661e-01   3.6559379e-01  -1.8859619e-01  -5.4922058e-01   5.1189438e-01   9.9650303e-01  -6.3932135e-01  -8.8113593e-01  -3.2271997e-01  -8.0038242e-01   1.1995483e-01  -4.8863037e-01  -6.3142372e-01  -3.7143744e-01   2.2132023e-01  -8.1581308e-01  -2.5739001e-01   7.9756634e-01   7.3897011e-01  -3.0771082e-01  -5.6451168e-02  -8.0585503e-01   3.5409705e-01   7.4495167e-01   8.2930508e-01   1.6307959e-01   6.1720152e-01   4.1573062e-01   5.6543714e-01   4.4284423e-01  -6.9580684e-01  -1.2774824e-01  -2.6046041e-01   6.9821821e-01   9.6619771e-01  -8.5528042e-01  -9.0153409e-02   9.9034295e-01   4.1368744e-01  -9.1479324e-01   9.3614539e-03   9.7014863e-01   5.4406578e-01   2.9371316e-01  -4.6604786e-01  -5.6121177e-01  -2.7594158e-03   4.5075195e-01  -1.8301082e-01  -5.3180708e-01   7.7455461e-01  -1.7043454e-01   7.2852200e-01  -5.5799001e-01   1.8297830e-01   8.0277230e-01   3.1480428e-01   2.4750931e-01  -9.4535383e-01  -7.6692687e-01   1.5318486e-01  -9.8856032e-01   6.6861919e-01   6.2502064e-01   1.0908887e-01   3.1633722e-01  -4.4095142e-02   7.1980685e-01  -8.0927814e-01   4.6052361e-01   6.2135500e-01  -4.2006886e-01  -8.0306655e-02  -7.0910002e-01  -2.3710658e-01  -7.0800742e-01   6.3910473e-01  -5.1473476e-01  -2.2866505e-01  -2.2134229e-01   7.2709582e-01  -1.6559556e-01  -9.0271311e-01   6.1252160e-01   9.1699820e-01  -3.7908677e-01   3.3641245e-01  -5.9730178e-01  -3.1567364e-01   3.5616746e-01  -5.7891198e-01   5.6812836e-01   7.4480901e-01  -3.8297153e-02  -8.5268060e-01  -1.1814847e-01  -3.6026532e-01   1.9688990e-01   5.8322818e-01   9.0283372e-02  -8.7261345e-01
   5.9404800e-01   8.6587346e-01   8.5121672e-01   1.0197573e-01  -7.0295038e-01  -7.9747122e-01  -4.5533927e-01  -2.5713892e-01   4.7584803e-03  -3.9974407e-01   5.2226353e-01  -4.6755060e-01   6.0109600e-01   7.8865202e-01   4.6709994e-01   5.9523314e-01   4.4633070e-01   2.1992565e-01   3.9120431e-01  -8.4950540e-01  -6.6638760e-03  -8.1965890e-02  -7.4505820e-02   4.5299590e-01   7.9794384e-01  -5.1765613e-03   5.2206478e-01  -6.2610690e-01  -8.4504092e-01  -5.0990339e-01   9.7585467e-01  -9.3725342e-01   5.2549559e-01   9.9999414e-01  -9.7555368e-02  -5.5499052e-01  -2.1828700e-02   1.9166358e-01  -4.4868065e-01   9.6403515e-01  -3.6228059e-01   5.3353213e-01  -7.7864653e-01  -6.0423622e-01   5.9019935e-01   4.5183375e-01  -4.8787571e-01   7.1045192e-01   1.1493094e-01   8.4479647e-01   4.9796424e-01   8.3952600e-01   1.1064921e-02  -3.3084674e-01  -2.7754744e-01  -2.7259879e-01   8.4865320e-01   5.2331289e-01   9.4777247e-01   4.6318104e-01  -9.1539356e-01  -9.4019947e-01   7.3367446e-01   2.0640420e-01  -7.5791644e-02  -7.8948885e-01  -1.5232952e-02  -5.0197525e-01   4.6660193e-01   5.6313193e-02  -7.7882928e-01  -1.0440188e-01  -6.5564919e-01   4.9211248e-01   5.9473392e-01  -2.7388575e-01   9.1825901e-01  -2.2021485e-01   3.7846562e-01  -6.0930150e-01   2.7147096e-01   5.7503891e-01  -9.9965431e-01   7.1272392e-01   2.2382570e-02  -1.7482830e-01  -5.1880169e-02  -1.3337065e-02  -8.3309605e-01   8.7587093e-01  -8.1056628e-01  -3.6384080e-01  -5.9386684e-01  -1.2161596e-01  -8.0484916e-01   5.0103748e-01   7.9958105e-01   1.4020766e-01  -1.9388320e-01   2.6263670e-01   1.5759785e-01  -2.0156723e-02  -5.0970140e-02   2.2278007e-01  -4.7876406e-01  -8.2697561e-01  -5.9278230e-01   2.1993077e-01  -3.7815075e-01  -7.8815078e-01   9.5260416e-01   9.2374942e-01   1.8646069e-01  -7.7810088e-01  -4.6346843e-01  -6.3606716e-01  -8.8827748e-01   5.3132146e-01   4.3282380e-01  -8.4303526e-01   4.6687323e-01   6.4124952e-02   7.9205372e-02   9.8676456e-01   4.3885399e-01   1.2102398e-01   5.2720925e-01  -9.5522886e-01   8.2736618e-01   7.5451907e-01  -4.1089727e-01   7.3456877e-03   7.0256575e-01  -5.6843218e-01   2.7460885e-01   4.6283470e-01  -4.0084416e-01  -2.1631346e-01  -3.0704400e-02   1.5404464e-01  -5.8684568e-01   6.7296905e-01  -6.5013768e-01   8.5748613e-01   4.8660265e-01  -3.2070004e-01   1.0216610e-02   5.8988057e-01  -1.6081454e-01   1.9712985e-01   9.1628894e-01  -1.7759914e-01  -3.5596401e-01   5.3138424e-01  -1.5102062e-01  -6.5692615e-01  -9.3875331e-01   5.4421308e-01  -1.4355856e-01   7.0007216e-01  -6.5195785e-01  -7.0869531e-01  -2.6785766e-01   5.5328253e-01  -3.5074310e-01   5.2441713e-01   9.6439886e-01   6.3217816e-02   2.2223769e-01  -9.5118810e-01  -2.3154248e-01   2.1918481e-01  -6.0778816e-01  -7.3851869e-01   8.3234482e-01   5.5460182e-01   5.1981934e-01  -9.2863316e-01  -7.4842476e-01  -1.8885361e-01  -6.5285683e-01   9.5958619e-01  -6.3578254e-02   5.9699054e-01   3.0488736e-01   5.5877638e-01  -4.1743456e-01  -3.3598781e-01  -8.3635106e-01  -7.5334786e-01  -4.2980385e-01  -5.3567203e-01  -9.8768868e-01  -5.2322585e-01  -5.1241006e-01   8.9090207e-01   9.1995951e-01  -2.2852126e-01  -5.9778378e-01  -7.2066158e-01  -1.3544720e-01  -1.4970208e-01  -3.9565453e-01   5.3895649e-01   1.4502825e-01  -8.7438517e-01  -8.0807703e-02  -2.6096614e-01  -9.6975214e-04  -8.5045209e-01  -7.3629860e-01  -8.7188769e-01   7.3973716e-01  -6.3723090e-01  -2.1242415e-01  -4.5279961e-01  -2.6854997e-01   5.8334274e-01   5.0386225e-01  -2.8608334e-01  -7.7971771e-01   6.9003410e-01   6.7332144e-01   9.8691970e-01  -1.8545653e-01  -4.7021114e-01   4.7147742e-02   1.4165215e-01  -8.8580699e-01   5.7669046e-01  -5.4564205e-01   8.7769049e-01   1.5580115e-01   7.5151042e-01   7.2645613e-01   9.3906707e-01  -6.5619950e-01   4.6719966e-01  -6.5135684e-01   2.1846132e-01   2.2028508e-01  -2.0348070e-01  -2.5201493e-01  -2.6968297e-01   2.7007569e-01   1.8517999e-01   8.6220148e-01  -2.7985870e-01  -4.3158254e-02  -7.9839406e-01  -6.2304255e-01  -3.8541227e-01  -4.5051014e-01  -2.3012478e-01  -7.5014860e-02  -6.8653695e-01   5.6923705e-01  -7.2197758e-01  -2.8643900e-01   4.9278305e-01   6.1455855e-01   8.1479988e-01  -3.4370489e-01   4.6688485e-01  -8.9895677e-01   7.2200149e-01   2.6780472e-01  -9.5165466e-01   9.5604484e-01   3.3173827e-01   5.3290831e-01   7.3838843e-03  -9.8078750e-01  -7.6132526e-01  -2.1892790e-01   9.1269567e-02  -4.7359845e-01  -4.3744407e-01  -1.6354999e-01  -6.7419325e-01   1.4381361e-01   6.0117944e-01   3.3458665e-01  -5.8630662e-01  -8.4676395e-01   6.1563103e-02   8.8372792e-01  -4.4199894e-01   8.2520858e-01  -9.2844913e-01  -4.1477158e-01  -1.8537301e-01  -4.8259964e-01   9.8072771e-01  -2.3279989e-01   5.4490618e-02   2.6223082e-01   8.1150807e-01   4.2118976e-01  -9.3992501e-01   3.0052010e-01   3.1570348e-02   9.7650567e-01   2.8459141e-01  -3.0857949e-01   4.6083841e-01  -9.4594216e-01  -7.6770778e-01   1.9300879e-01   9.2703463e-01   9.8533138e-01  -1.5348666e-01   2.5695911e-01   7.6640271e-01  -7.5273350e-01  -9.0854435e-01  -5.0177869e-01  -9.3580130e-01  -8.2632752e-01   5.4726130e-01   4.4196866e-03  -5.5412324e-01  -1.3722345e-01  -2.9805600e-01  -3.8888689e-01   3.8165391e-01  -8.4060708e-01   3.4784501e-01  -1.0136612e-01   6.1217144e-01   2.5226098e-01  -4.9666975e-01  -7.8679841e-01   6.8837454e-01  -6.6920841e-01  -5.3376339e-01  -8.4854290e-01   2.6908141e-01  -2.6811182e-01   2.0880201e-01   9.7706155e-01  -2.4553938e-01  -1.4077157e-01   7.1322940e-01   5.8523677e-01  -6.1248495e-01   5.9191614e-01   1.8243289e-01   3.4322193e-02  -3.1528577e-01  -9.6903586e-01   3.5903814e-01   3.4786692e-01  -3.9246424e-02  -8.0249967e-01   8.7230432e-01   1.1349596e-01   1.1264473e-01  -8.3105401e-01  -5.3259219e-01  -4.6620417e-01  -3.9821464e-02   2.5743837e-01   5.0709378e-01  -6.6041124e-03  -6.9725830e-01   6.8543213e-01   5.0143119e-01   6.7227246e-01   6.2144094e-01   6.0510313e-01  -5.2915367e-01   5.2321803e-01  -1.7364255e-01  -3.0223403e-01  -5.0761726e-01  -7.3670032e-01   9.9984302e-01   8.0560475e-01  -6.1135102e-03   6.0239841e-01  -3.6749110e-01  -3.7623346e-01  -9.4592008e-01   4.3069388e-01  -6.0721188e-01  -9.6420223e-01  -7.3529557e-01  -8.5268111e-01  -6.3963311e-01  -7.5627086e-01  -4.3438315e-01   3.1629724e-01  -8.3799933e-01   3.2515559e-01   1.0648179e-02   5.8264829e-01  -6.8949436e-01  -6.1710712e-01   2.9965747e-01   2.2621335e-01  -2.8712593e-01   5.4661030e-01  -6.3882810e-01   2.3488263e-01   1.6941678e-01  -6.3239934e-01  -3.0281967e-01   4.6651299e-01  -9.7818664e-01   5.9233502e-01  -8.5350347e-01  -4.2683911e-01   5.7357725e-01   4.1157013e-01   7.7437236e-01  -9.1607097e-01   6.7373478e-01  -1.4837154e-01  -3.0135147e-01  -7.0215607e-01  -3.4511196e-01  -2.2059079e-01  -6.9226571e-01   2.9472935e-01  -2.2640596e-01   8.5313931e-02  -7.2022122e-01   1.1158349e-01  -7.9064871e-01   5.1854112e-01   8.8007877e-01  -6.6698083e-01  -4.4687638e-01   2.9020445e-01   4.0738946e-01  -5.3467732e-01   9.7641408e-02  -6.1638768e-01  -2.3772388e-01  -2.3916337e-01   9.9165070e-01  -6.5935367e-01  -3.7215120e-01  -1.2360801e-01  -4.5476359e-01   9.3979017e-01   9.2922261e-01  -6.7745470e-02  -1.4767320e-01  -4.7872028e-01  -4.4141969e-01  -6.1445948e-02  -6.3062771e-01  -6.4928458e-01  -4.7023412e-01   4.0289289e-01  -7.2386780e-01   6.2052591e-02  -9.7313099e-01   7.2518472e-01   5.9924719e-01  -6.2747541e-01   6.9982576e-01  -5.8911800e-02   2.7151796e-02   4.7189223e-01   2.7923935e-01   2.0671948e-01   6.5800980e-01   3.9188803e-01   9.8012957e-01  -2.7259544e-01  -3.3688601e-01   9.3049115e-01   3.6844545e-01   1.1578707e-01  -6.7478482e-01  -4.8861586e-01   7.6191417e-01  -8.7551454e-01  -4.1743458e-02   8.6639836e-01   3.7472871e-01  -1.1353932e-02  -6.9497969e-01  -1.1096327e-01   4.9478714e-01   9.4574714e-01  -6.5197833e-01   9.4731921e-01  -9.5587824e-01  -2.5164210e-01   6.5314881e-02   4.0184141e-04  -1.0153068e-01   1.0656719e-01   8.0024005e-01   4.8060224e-01   4.6261095e-01   6.4931458e-01   8.8658446e-01   2.9123657e-01  -2.3340091e-01  -8.7064460e-01   3.8048006e-01   8.2153216e-01   9.7829024e-01   4.5229223e-01  -2.7785060e-01  -3.1030030e-01   7.3218147e-01   8.4483365e-01   5.4149310e-01  -7.1449336e-01  -7.2071242e-01   9.8367966e-01  -5.2323307e-02  -8.6405137e-01   1.9343765e-01  -7.4484297e-01   8.7782409e-01  -4.7646984e-01   3.6915254e-01   3.1441944e-01  -5.0659237e-01   3.7105013e-01  -7.1480400e-01   8.1003690e-01  -8.9653254e-01  -7.8788860e-02  -7.0983177e-01  -9.6122904e-01  -1.0464036e-01   5.9193552e-01   5.3555202e-01  -9.8519728e-01  -9.1641297e-01   8.9662235e-01   5.0215779e-01  -3.8307461e-01  -7.2361372e-01   4.8361290e-01  -8.3171602e-01   7.6588748e-01   1.0305809e-01  -9.4651338e-01   6.8771934e-02   2.9792452e-01   8.6320936e-01   6.6779318e-01   9.7467623e-01   4.3929692e-01  -5.7197620e-01   7.6495884e-01  -7.0109918e-01  -1.8008495e-01  -5.8103055e-01  -3.8888768e-01   3.9715547e-01  -6.3436790e-01   8.3237154e-01   2.8099733e-01   6.4148295e-01   7.9402212e-01   2.7057942e-01  -6.3451491e-03   6.7394367e-01   5.7402026e-02  -7.5686245e-01   7.8274831e-02  -1.8919422e-01   9.8094739e-01  -7.2874655e-01   1.7893240e-01  -2.4222579e-01  -8.4634449e-01  -4.1626001e-01   6.0947868e-01   7.6767580e-01   5.0755892e-01   1.5392745e-01   6.6009245e-01   7.2810972e-01   5.7632533e-02   8.4375792e-02  -6.4579310e-01   9.7721992e-01  -1.6380710e-01  -8.3233120e-01   6.8158443e-01  -4.1718373e-01   2.4561519e-01  -4.5882105e-01  -1.9690468e-01   1.1774852e-01  -4.1436465e-02  -5.6374460e-01   4.8085264e-01   7.4544903e-01   5.8726783e-01   8.5819336e-01  -7.2866402e-01   4.3014824e-02   4.9652933e-01  -7.4918007e-02   5.5785831e-01   1.0411571e-01   1.4112985e-01  -9.5142656e-01   6.9355310e-01   5.1121874e-01   1.7368155e-02   4.4212383e-01  -5.1537622e-01   5.7316323e-01   5.3160211e-01   9.2366558e-01  -9.9524103e-01   4.5504208e-01  -7.5231010e-01  -3.8850853e-01   6.4421133e-01   5.4306576e-01   4.3859998e-01   3.6006425e-01  -1.6180971e-01  -9.0896114e-01   4.0465512e-01   1.7510031e-01  -8.4214199e-01   1.8595139e-01   1.3757406e-01   3.8055598e-01   5.3962980e-03  -7.8966053e-01  -6.0169574e-02  -9.6767283e-01   9.9226867e-01   4.7824063e-01  -1.3649097e-01  -7.0433131e-01  -8.9506414e-01  -2.2386315e-01  -5.0711390e-01   2.5102532e-01   2.6844744e-02   3.4133236e-01   1.6753302e-01   2.5501268e-01  -4.9743050e-01  -2.3204169e-01   5.0431386e-02  -7.2995300e-01  -2.6139724e-01   8.6391819e-02   3.9101312e-01  -5.4966523e-02  -1.6173517e-01   3.2803158e-01   7.3699673e-01   6.7658244e-01  -9.8734915e-01  -9.1433728e-01   9.8767327e-02  -8.0341833e-01   8.3611393e-01  -9.2691423e-01  -3.2874589e-01  -7.0643485e-01   4.4310213e-02  -8.7103304e-01   3.0131396e-02  -6.1026258e-01  -6.8763743e-01  -3.9136344e-01   4.5815816e-01  -3.9320393e-01  -2.3937407e-01   2.6645913e-02  -7.0242941e-01  -8.3002641e-01  -3.0270411e-01   7.9778910e-01  -2.6547961e-01  -6.3989586e-01  -7.2511666e-01   3.7768871e-01  -4.2873978e-01  -8.2205664e-01   1.9363388e-01   9.9591720e-01  -2.1672740e-02   6.8514389e-01  -2.9366116e-01  -8.2783568e-01  -9.3338482e-01  -2.8747326e-01   2.8949529e-01   4.6619520e-01   9.8424081e-01  -9.5026436e-03   9.9034328e-01   5.6196446e-01   4.2507268e-01   2.7285834e-01  -5.3243576e-01   7.1633839e-01   8.1256860e-01   8.9812703e-01  -4.2870758e-01   6.9276372e-01  -2.6363674e-01  -9.5214490e-01   8.1772043e-01   2.8863941e-01  -5.9229207e-01   4.7003888e-02  -2.0052283e-01  -4.9262828e-01  -5.2918575e-02   1.1701344e-01   3.9003176e-01  -8.2557616e-01   3.1851050e-01  -8.3896135e-01  -7.0450259e-01  -9.3518810e-01   6.2183364e-01  -7.8318394e-01  -6.9809210e-01   4.9085001e-01  -4.0099957e-02  -6.6605607e-01   3.2472522e-01   6.0142317e-01  -4.5631135e-01   1.5098671e-02   7.6587989e-01  -6.4943893e-01  -7.8059162e-03   9.5295853e-01   4.4709713e-01   7.6673835e-02   8.3904889e-01  -4.3465890e-02  -7.6391700e-01  -2.3467287e-01  -6.5778752e-01  -7.2887934e-01   9.1190446e-02   6.1300391e-01  -7.6347889e-01  -3.8601024e-01   6.0248754e-01   6.5187920e-01   8.0236475e-01   9.5837997e-02  -5.5356250e-01   8.8193611e-01  -9.1458533e-01  -4.7069258e-01   1.0155261e-01   6.6927649e-01   5.0315840e-01  -7.0940647e-01   2.1569351e-01  -7.2827224e-01  -6.9187145e-01   3.7016330e-01  -5.4984515e-01  -9.7316862e-01   9.4223364e-01  -6.2963940e-01  -9.0664809e-01   8.6411234e-02  -8.5432671e-01   9.0783667e-01  -6.9640396e-01  -6.9330088e-01  -5.5537616e-01  -9.9228737e-01   4.6177107e-01   9.6015581e-01  -5.0763310e-01   9.2630205e-01   3.8298706e-01  -3.2209028e-01   6.5688120e-01  -5.5021630e-01  -4.4844120e-01   2.0332590e-01   4.0445886e-01  -6.4226752e-01  -7.5593795e-01  -1.5048897e-01  -3.7067911e-01  -4.2557872e-01  -1.1051052e-01   5.1993468e-01   8.7843547e-01  -1.6364187e-01   8.8877180e-01   2.8355444e-01   8.8474638e-02   4.2696262e-01  -1.0420825e-01  -5.0406044e-01   6.6854915e-01   7.0792235e-01   5.1966896e-01  -2.8898895e-01   2.6408268e-01   5.4015964e-01  -6.1275930e-01   3.0503180e-01   7.8514210e-01   6.5960076e-01  -9.6818297e-01   4.7852810e-02   5.8627636e-01   6.0217776e-02   4.7115914e-01  -6.3934323e-01  -9.7806672e-01   9.0557242e-01  -6.0290298e-01   1.1211216e-01   8.0219376e-01  -6.4249122e-01  -6.3486821e-01  -9.0067545e-01   6.8393051e-01   1.4066140e-01   7.2302924e-01   6.5466634e-01   9.4985160e-01  -3.1734450e-01   8.1298796e-01  -1.3108770e-02   1.0143737e-01   8.8588464e-01  -5.6688438e-01  -6.5391163e-03   6.6351204e-01   4.8118997e-01   8.1977135e-01  -1.8025724e-01  -2.6458650e-01  -1.1164173e-01  -4.7699114e-01   3.0102727e-01   6.9638633e-01  -4.3496458e-01   8.9667075e-01  -3.9231062e-01   9.1530591e-01  -5.2253026e-01  -3.1093115e-01   2.3244416e-01   8.3873197e-01   4.8000596e-01   3.4452318e-01   3.8044299e-01   7.0749800e-01   2.0834349e-02  -8.0262697e-01  -4.7178957e-01   8.7295570e-01   8.4837274e-01   1.9969884e-01   5.3148197e-01   8.1823335e-01  -1.0678294e-01  -6.0110385e-01   1.8984809e-01   5.1220507e-01   6.4588056e-02  -8.3540508e-01  -4.7428678e-01  -4.1411722e-01  -3.1631483e-01   2.3534501e-01   1.8509478e-01  -9.4112053e-01   5.2755222e-01   5.4449796e-01   6.6125910e-01  -1.3736559e-01   1.9261728e-01  -9.2565290e-01   4.4513120e-01  -1.9293407e-01  -2.0321800e-01  -8.8368035e-01   8.4635183e-01  -6.8561407e-01   9.5625965e-01  -1.9676609e-01   4.0574513e-01   2.4149546e-01   2.1509109e-01  -7.4967254e-01  -4.9585437e-01   9.4312522e-01   8.9828811e-01  -1.7214683e-01   1.9977919e-01  -6.7943662e-02  -7.9463590e-01  -1.2153297e-02  -6.6177908e-01  -5.5302581e-01   8.8020552e-01  -1.1482647e-01  -9.2819432e-01  -7.6571365e-01   7.8814194e-01   3.8208707e-01  -7.5490324e-01   9.4555306e-01   3.9960423e-01  -4.7625776e-01  -8.9939450e-01  -5.4103102e-01  -4.0952184e-01  -7.8291254e-01   6.0143873e-01   9.3661158e-01   6.8190016e-01  -3.8089870e-02  -3.4931304e-01  -7.5622378e-02  -1.5862823e-01   1.7998668e-01   7.2175100e-01  -3.0903386e-01   6.3463513e-01  -3.5158982e-02   5.4122898e-01  -2.4502543e-01  -6.1726554e-01   1.0048955e-02  -8.2722541e-01  -3.1579492e-01  -1.6950874e-01  -7.7225971e-01   8.2102597e-01  -9.9325214e-01  -7.8555703e-02  -1.1479330e-01  -5.7341803e-01  -6.7365059e-01   8.7012160e-01   2.9817009e-01   2.8417623e-01  -4.1959355e-02  -2.9746500e-02  -1.1380703e-02  -7.0032328e-01   7.5641359e-01   7.5626049e-01   4.8921737e-01   4.6166148e-01  -2.3141099e-01  -5.1100454e-01  -7.4360868e-02  -9.9967892e-01  -3.6415389e-01  -3.6370654e-01  -4.7468391e-01  -5.1583883e-01  -6.0557866e-01   2.5285137e-01   2.5891893e-01   2.2383984e-01   8.1069513e-01   5.6077784e-01   1.4936801e-01   7.8699196e-01   2.1477589e-01  -3.1332639e-01   5.5870251e-01   9.6232765e-02  -5.2409334e-01  -7.8223618e-02  -8.2892774e-01   5.2884251e-01   9.8767009e-01   9.3188626e-01   9.2810141e-01  -2.4491019e-01   6.7156698e-01   1.7365576e-01   7.8588953e-01   1.6688282e-01   4.0506598e-01   4.8566289e-01   4.6828583e-01  -1.1917343e-01
   2.2769259e-01   7.7918742e-01  -9.2085162e-01  -4.2855850e-01   4.7572519e-01  -3.5570938e-01   1.9781503e-01   3.0170239e-01  -4.4367660e-01  -6.7533605e-01  -5.0448997e-01   8.9311713e-01  -2.3330658e-01  -8.3356435e-01   4.3409370e-01   3.9236166e-01  -8.1032272e-02   9.0024300e-01  -1.6899015e-01  -7.3891983e-01  -4.5153723e-02   9.0456723e-01   9.6761846e-01  -9.1853179e-01   6.8474757e-01   5.8198464e-01  -2.2424598e-01  -3.8493790e-01   4.5495932e-01  -5.4402430e-01  -8.6971911e-01  -7.2723455e-01   7.3408962e-01  -1.2374128e-03   7.1790824e-01  -1.8312096e-02   9.9244087e-01  -3.1408420e-01   9.9087815e-01  -3.7789081e-01  -7.0759806e-01   7.8141442e-03  -5.0393685e-01   2.2490822e-02   3.1120800e-01  -4.6436427e-01   9.0636760e-01  -1.6679347e-01  -6.7745016e-01   2.2581796e-01  -5.3393069e-01   7.5925671e-01   7.0415598e-01  -8.6163302e-01   2.7013735e-01   9.3064293e-01  -5.9504840e-02   5.8346877e-01  -6.9355467e-01  -3.2549346e-01   5.9826014e-01  -1.5535453e-01  -1.4223783e-01   4.4663634e-01   2.3467069e-01  -9.2703618e-01   6.3532215e-01   5.8148630e-01   1.6256210e-01  -3.1157211e-01  -9.1775782e-01   9.4084278e-01  -3.1275395e-01  -1.2815571e-01   1.6514482e-01   1.0048699e-01  -5.0642523e-01  -5.8094041e-01   9.9668309e-01  -3.3134947e-01  -8.8488605e-01  -4.6553382e-01  -9.1670269e-01   1.9077738e-01  -3.5132419e-01   5.1928834e-01  -2.6235832e-01  -1.6711256e-01  -3.4828652e-01   5.1849048e-01  -6.3625568e-01  -1.4787895e-01   7.4039729e-01   9.5818558e-01  -8.5806750e-01  -8.8248678e-01   5.7025551e-01   9.5725515e-01  -1.8504168e-01   6.2880679e-01   6.9089640e-01  -9.4847701e-01  -6.6890780e-01  -4.2929074e-01   8.4070078e-01  -6.9622467e-01   1.6555046e-01  -8.2289047e-01   9.8320875e-01   1.9589215e-01  -9.3766242e-01   7.5949990e-01   6.6970557e-01   8.9805668e-01   5.2649992e-02   2.4582590e-01   3.2736676e-01   8.9478484e-01   4.2318048e-01   5.9353145e-01   9.7959629e-01  -8.3345028e-01  -3.0461590e-01  -8.3418132e-01   6.7332571e-01   7.2482958e-01   2.1648199e-01   3.6674852e-01  -8.2096171e-01  -3.9950886e-01  -1.1420037e-01   3.7953880e-01   2.0898576e-01  -3.7370998e-01   4.4051928e-01  -9.0131045e-01  -8.2187268e-01  -7.4437772e-01  -4.1951080e-01  -9.9492797e-01   7.1592328e-02  -8.1974972e-01  -1.4820290e-02   3.6195039e-01   6.2670050e-01  -5.3107092e-01   3.0374882e-01  -9.9419169e-01  -3.1511498e-01  -8.5913958e-01  -4.6572847e-01   2.9943821e-01  -1.7580141e-01   6.3911697e-01   6.0260722e-01   8.0059164e-01   1.3525338e-01   7.9529818e-01   2.0106246e-02   2.3101197e-01  -4.4803720e-01   3.9124053e-01  -9.1714337e-01   9.0893874e-02  -1.6145583e-01  -3.2051976e-01  -8.1514067e-01   2.6547318e-01  -6.5717267e-01  -4.6327916e-01   7.1638054e-01   4.6588311e-01  -8.9156687e-01   8.5751961e-01   2.6835055e-01  -9.8877063e-01   9.2554865e-01   8.7433400e-01   8.8495358e-01  -1.3527465e-01  -8.9830454e-01  -9.9966909e-02  -7.2467904e-01   1.7527880e-01   8.1476496e-01   6.0915718e-01  -5.3998895e-01  -5.3107536e-01  -8.9426277e-01   4.1315726e-01  -5.5957633e-01   4.2649144e-01   4.2539016e-02   3.2757825e-01  -8.3821340e-01  -3.5276360e-01  -5.1756092e-01  -6.0555845e-01  -9.4601020e-02   6.1795931e-02  -1.5846497e-01   5.1275914e-01   1.8944094e-01   9.9993892e-01  -3.5456355e-01  -6.4580476e-01  -9.6808756e-02  -5.5848596e-01  -5.6646163e-01   6.0827158e-01  -2.9553412e-01  -1.2340077e-01   6.1745285e-01   7.3561191e-01   5.4377302e-01  -3.1971686e-01   4.1607134e-01   2.2543320e-01  -2.7835241e-01  -3.4522315e-01  -5.0169843e-01   6.5184410e-01  -1.0797028e-03  -7.0239690e-01   6.2934430e-01   9.9095923e-01   7.4103910e-01  -7.1683800e-01  -8.8375996e-01  -4.5694717e-01   1.0631734e-01  -2.2811956e-01   9.3921105e-01  -9.8689164e-01   7.1220301e-01  -4.9249006e-01   7.3869274e-01  -9.1628547e-01  -8.4489211e-01  -5.0436238e-03  -3.8810684e-01  -5.5483824e-01  -8.0685080e-01  -2.3551989e-01  -1.0587635e-01   1.8842164e-01   2.8172835e-01  -2.7632296e-02  -5.6515462e-01   6.4302103e-01   6.9363586e-01  -5.8049056e-01   9.6413508e-01   4.7152573e-01  -7.4343065e-01  -7.3318817e-01   3.0575835e-01  -5.3587730e-01  -9.9133108e-01   1.4871608e-01   1.5709486e-01   2.3790698e-01  -4.5428133e-01  -9.1845117e-01   4.4758506e-02   5.5224535e-01  -6.4465042e-01   9.2546279e-01   8.1956226e-01   1.6486514e-01   6.2821115e-02   6.4242680e-01   9.0510967e-01   1.3861652e-01  -5.4769302e-01   6.7565412e-01   4.2845341e-01  -8.2896522e-01  -6.4484655e-01   6.7647984e-01   4.5009908e-01  -2.8259267e-01   1.0006270e-01   8.0855494e-01   9.9879117e-02  -4.3160263e-01  -7.9778629e-01  -9.4608753e-01   2.9138088e-01   1.7698701e-01  -1.1122900e-01  -2.5878680e-01   3.5029941e-01   7.9218241e-01  -9.1943272e-01   6.1674061e-01  -7.0303361e-01   4.3549291e-02  -6.5504819e-01  -6.5627064e-01  -5.3154328e-01  -3.1609229e-01  -3.7947060e-01  -4.3988534e-02   7.4520317e-01  -2.8073044e-01   7.4855638e-01  -6.6533360e-01   7.1539232e-01  -3.5676443e-01  -7.6407384e-01  -2.3359256e-01  -8.0348570e-01  -9.7112068e-01   2.1318914e-02   5.1675694e-01  -4.5712389e-01   1.5724426e-02   2.5850914e-01  -7.6435379e-01   7.3623914e-01  -6.1354134e-02   3.7892004e-01  -5.9869075e-01   3.1188675e-01   5.7926147e-01  -4.1081682e-01  -1.0219015e-01   3.9010028e-01  -4.1488244e-01   9.0804200e-01  -4.5942811e-01   6.1483451e-01   1.5395484e-01  -7.1507397e-01   1.4429368e-01  -2.3392892e-01   1.7466848e-01   8.6377202e-02   6.9130506e-01  -1.6537197e-01  -9.9135622e-01   1.0319116e-01  -4.5118335e-01   5.7055198e-01   4.2618839e-01   9.3707278e-02  -1.4824330e-01  -6.5422583e-01  -1.1576645e-01   2.3605386e-01  -4.4468540e-01   8.3378314e-01   3.7380287e-01   3.7708610e-01   1.5185530e-01  -7.8472693e-01   5.9696018e-01   1.2764231e-01  -2.1053877e-01   5.6955476e-02   7.3805117e-01  -2.1548591e-01  -2.0309152e-01  -6.9448076e-01  -9.5290164e-01  -5.1930025e-01  -5.2454559e-01   7.0441605e-02   9.0768318e-01  -9.3764084e-01  -9.1452922e-01  -6.4141565e-01  -3.7748535e-01  -7.3863088e-01  -1.9070818e-01  -9.4972467e-01   4.8738587e-01   3.3115989e-01   5.9096601e-01   8.6212964e-01   9.4601381e-01   1.4689812e-02   5.5596838e-01   9.3052138e-02   7.4628859e-01   7.6864382e-01   6.7646276e-01  -6.1876232e-01   3.1661859e-01  -2.2622320e-01   5.5985114e-01  -5.4441341e-01  -8.5255913e-01   5.3814419e-01   2.1102100e-01   1.1821834e-01  -8.9387199e-01   8.6717878e-01  -5.9061877e-01   7.8132284e-01   1.7881319e-01  -2.1727561e-01   5.3591270e-01   5.3872755e-01   6.5138574e-01   1.3806439e-01   4.2553028e-01  -5.2707269e-01  -7.1789385e-01   3.2599141e-01   7.5913006e-01  -7.9140431e-01   6.6253007e-03  -6.6680591e-01  -2.3086713e-02  -4.8442132e-01   6.8914097e-01  -8.1232174e-01  -6.1048684e-02   3.1822571e-02   6.1240025e-01   3.2825315e-01   7.8402990e-01   6.4495827e-01  -8.8358739e-01   3.4187933e-01   4.8307907e-01  -2.2851374e-01   1.7917716e-01   6.1183032e-01   8.9234889e-01   3.5576406e-02  -4.6728101e-01  -6.7846034e-01   7.4304531e-01   3.4899384e-01   2.8828980e-01  -3.1808263e-01   2.7427864e-01   9.0234379e-01   3.0431246e-02   2.9436875e-01   1.0459556e-01  -6.3020691e-01   3.7157974e-01   4.5236462e-01  -6.6250660e-01   2.3707810e-02  -4.6735246e-02   8.3466364e-01  -5.1495173e-01   6.7462227e-01  -1.6941896e-01   4.3356297e-01  -3.7486016e-02  -6.9412442e-02   2.9903920e-01   2.4634547e-01  -7.4740302e-01   5.2910757e-01   1.5026478e-01   8.9105014e-01  -5.7169459e-01  -7.2348265e-01  -8.2499623e-01  -7.6801764e-01   6.1782573e-01   2.3375140e-01  -8.9586317e-01   2.6484276e-01  -6.4147240e-02  -4.6486270e-01   3.0289789e-01  -2.2839971e-01   4.1601642e-01  -4.8813836e-01  -2.4307490e-01  -7.3668685e-01   5.2949495e-01   1.8132668e-01  -1.9646465e-01  -4.6350122e-01   5.5242999e-01   6.4820316e-01  -5.6898276e-01   6.6174866e-02   1.0636210e-01   3.3656058e-01  -4.6691239e-01   8.0784475e-01  -7.5148817e-01  -1.6061023e-01  -2.7259545e-01  -3.3308560e-01  -1.0465158e-01  -1.8147582e-01  -9.6089986e-01   1.9595894e-01   2.7418992e-01   2.9601410e-01  -1.9023725e-01  -8.2402765e-03  -8.9591207e-01  -6.6334211e-01   5.4471196e-01   8.9939318e-01   1.1395363e-01   4.3242916e-01  -7.9986519e-01  -3.6547243e-01  -8.7594495e-01   5.0514660e-01  -5.4876658e-01  -4.3413758e-01   6.2909752e-01   7.2885475e-01   6.2287907e-02   4.0700985e-01  -3.3245088e-02  -5.5169076e-01  -6.2653532e-01   6.5933260e-01   1.5661357e-01  -7.7581059e-01  -9.8944936e-02  -3.1893734e-02  -6.8161660e-01   8.9565575e-01  -8.7160415e-01   2.0875919e-02   8.5075566e-01   8.3103769e-01   9.0992228e-01   1.3763487e-02   4.9166105e-01  -5.7213838e-01  -9.8769701e-01  -6.4878869e-01   2.3448713e-01   8.8593136e-01  -9.0576905e-01  -9.2929982e-02  -2.5185068e-01   3.4935293e-02   7.9214858e-01   5.1519655e-01   4.6657120e-01   9.9839388e-01  -2.4867786e-01   7.6165594e-01   2.5219257e-01   9.3270075e-01   3.9025110e-01   9.7094966e-01  -9.8357053e-01   7.6335399e-01   4.3824533e-01   3.7100737e-01  -1.2035487e-02   5.1963291e-02   6.8197990e-01   6.4194081e-01   5.7631344e-01  -2.4724778e-01  -7.1691565e-01   9.9184297e-01   3.8138120e-01  -2.7185184e-01  -4.9684458e-01  -6.6623447e-01   1.1390146e-01  -3.3465224e-01   9.9281044e-01  -1.7490326e-01   1.9506828e-01  -6.3648335e-01  -4.4544680e-02   8.9382139e-01   7.9334560e-01   4.3406380e-01   8.8814439e-02   9.6505660e-01  -5.0433346e-01   8.1371597e-01   9.4957465e-01   4.8979999e-01  -7.6195848e-01   7.1020397e-01   1.7196821e-01   7.2912552e-02   3.0326833e-01  -1.6642499e-01   6.2204495e-02  -1.1696352e-01   2.4464021e-01   6.8668493e-01   4.6073258e-01  -6.0137865e-01  -6.7109608e-01   5.3497184e-01  -6.1883301e-01  -2.4722998e-01   7.0443713e-02   9.2100864e-01   6.9509063e-03   9.8816337e-01  -2.1945645e-01   4.9547021e-01  -1.2711770e-01   6.6028602e-01   4.0056280e-01   4.9392030e-01   4.1352835e-02  -5.7941355e-01  -4.1544621e-02  -4.4290745e-01   9.7722769e-01  -5.7303034e-01   6.5379234e-01  -4.9740733e-01   6.3524740e-01  -8.7108017e-01  -7.4241973e-01  -3.0878572e-01  -6.5092619e-01   2.0317976e-01   3.0774071e-01  -3.5736264e-01  -4.6788242e-01  -3.6260194e-01   5.9912764e-01   7.8124531e-01   4.3077615e-01   1.4163108e-01   6.4679170e-01  -4.9862064e-01   9.2396490e-02  -6.8586214e-01  -6.4080211e-01   8.5333986e-01   1.1179281e-02   8.5846374e-01   1.5809803e-01  -3.2199677e-02  -8.0738794e-01   5.0946814e-01   8.6506011e-01  -8.1679025e-01   5.9861291e-01   2.0979774e-01  -5.5100262e-01  -1.1660639e-02   7.4257129e-01   8.5559049e-01   1.3864260e-01  -8.8671513e-02   6.2138140e-01   4.0620611e-01  -2.7994290e-01  -5.6524633e-01  -6.8741090e-01  -2.0563447e-01   1.9204823e-01   4.4975143e-01  -8.0193437e-01  -8.3040277e-01  -8.9994374e-01   5.3921115e-01   8.8370759e-01   5.7405042e-01   8.9050341e-01   9.7227498e-01  -4.4996295e-01   2.1206281e-01  -4.3409708e-01   1.7965670e-01  -4.0529255e-01   7.0082545e-01  -5.3865295e-01   6.6194110e-01   9.2414695e-02   7.7376146e-01  -6.1664567e-01   7.5942790e-01  -3.7038665e-01   4.8515857e-01  -9.7792119e-01   5.3816987e-01   1.4340081e-01   4.9482615e-01   2.0115675e-02  -1.4366327e-01   8.2322562e-01   1.9856190e-01   6.8287831e-02  -3.1042692e-01   8.6004921e-01  -9.6546437e-01   1.3248055e-01  -5.0463925e-01   7.7838834e-01   4.7621659e-01  -7.8710346e-01  -1.3173787e-01  -2.5609446e-01  -6.6856191e-01  -5.1372854e-02  -1.5046088e-01   8.9779823e-01  -6.1018366e-01   9.5446149e-01   4.3591233e-01   7.0652384e-01   6.9245678e-01   2.7087995e-01   3.6918283e-01  -8.3752892e-01   6.7103039e-01  -5.2878193e-01   2.6274899e-01  -2.3324105e-01  -8.3560236e-01   1.0279742e-01  -9.4091619e-01   7.0114083e-01  -7.7500383e-01  -3.1383869e-01  -7.4915752e-01   9.8241956e-01   5.6613336e-01  -7.7223336e-01  -7.4454364e-01   7.9678051e-01  -1.5310822e-01  -7.7424527e-01   6.0796837e-01  -8.1802162e-01  -1.3936407e-01  -5.5457151e-01  -2.7809657e-01  -1.6918461e-01  -6.5259220e-01   3.2425262e-01   7.9917017e-01  -7.9793577e-01  -6.3294489e-01   3.7379047e-01   1.5521394e-01  -8.0597644e-01   8.5278747e-02  -9.3071663e-01   2.8743951e-01   4.4130187e-01  -7.4444198e-01   4.5657249e-01   6.9200878e-01  -7.7612818e-01  -3.3717256e-02  -7.7158400e-01   9.4473818e-01   1.0288149e-01   1.9600801e-01   6.9395727e-01  -3.1012575e-01  -8.7108993e-01   5.8920258e-01   4.9732410e-01  -1.9549653e-01  -1.5841357e-01   4.2961671e-01  -4.8401752e-01   5.2622350e-01  -8.7652353e-01   9.7664767e-01  -4.1839296e-02  -1.0002353e-01   1.6467955e-01  -9.7974939e-01  -6.2684062e-01  -9.0307210e-01  -2.2713014e-01   7.7694586e-01   6.8083503e-01   1.1378522e-01  -5.8250836e-01  -3.4545222e-01   8.4692764e-01  -6.0715570e-02  -1.3600266e-01   7.9391953e-01  -4.5008161e-01   1.7255788e-01   4.5055283e-01  -1.6556219e-01   6.4108420e-01  -4.7912109e-01   5.9257572e-01  -8.3471103e-01   4.0891423e-02   2.0486140e-01  -1.3238973e-02  -2.9534507e-01  -3.0142631e-01  -7.8367208e-01  -1.3037372e-01   7.0144290e-01   9.0639490e-01  -2.9723916e-01  -8.2030239e-01  -3.8012466e-01   2.5652785e-03   7.0675842e-01  -4.0226651e-01  -9.7550182e-01  -8.5045890e-01  -3.6331330e-01  -4.4434826e-01   5.6470680e-03   5.1809605e-02   5.0820633e-01   4.1188174e-01  -8.3418000e-01   1.0676154e-01   2.0695763e-01   7.4006063e-01   9.2434183e-01   4.4832017e-01   9.2787790e-01   5.7151160e-01  -3.9534782e-02   5.6159339e-01   7.0637650e-01  -7.5432623e-01  -1.0240123e-01  -5.2193172e-01  -7.8129638e-01   3.2042440e-01   8.9942563e-01   5.9288878e-01   2.3649320e-01  -9.2674215e-01  -6.8379031e-01  -1.8297084e-01   1.3414234e-01   8.1790550e-01   1.7700596e-01  -6.7418339e-01   6.5504964e-01  -7.2939661e-01   2.6068963e-01   7.6610667e-01  -4.0175077e-01   8.0051149e-01  -9.4284208e-01   8.6936465e-01  -9.0395224e-01   7.6833624e-01   5.7389787e-01  -8.8725500e-01  -7.1336534e-01   2.1471824e-01  -1.2643138e-01   7.0873496e-01   9.9185908e-01  -4.4969245e-01  -1.6814903e-01   7.1301359e-01   5.9127084e-01   5.4922449e-01  -5.8845560e-02  -6.7908118e-02   4.5347275e-01  -3.6045480e-01   9.5919833e-01  -1.2154510e-01   3.1510797e-01  -8.6607492e-01  -9.3168299e-01   7.9272139e-01   9.0210988e-01  -6.4548269e-01  -2.8750108e-02   1.1809815e-01   9.4341917e-01   2.0751703e-01   9.5042192e-01   2.7855674e-01  -2.6981589e-02   8.6455884e-02  -9.5633144e-01  -6.8043470e-01  -9.9619216e-01  -5.6735666e-01   9.4745996e-01   5.5046039e-01   8.5878230e-01   2.3403483e-01   5.3990289e-01  -2.4733618e-01  -3.5584465e-01   5.7410759e-01   3.4388674e-01  -2.6471531e-01   2.7262748e-01  -9.8854463e-01  -1.2685014e-01   3.2685791e-01   4.3855751e-01   3.9751618e-01   6.1303264e-01   2.4782967e-01   8.6954441e-02  -7.0090741e-01   9.5230714e-01   3.7159168e-01  -1.4553532e-01  -1.3312313e-01   7.8982181e-01  -3.3093228e-01  -1.4078748e-01  -8.7484087e-01   6.6848278e-01   7.8387449e-01  -7.0532288e-01  -1.4115198e-01  -6.4125459e-01   7.2505586e-02  -6.6820970e-01   1.6162773e-01   8.5861205e-01   6.3242112e-01   1.2712159e-01  -4.2053226e-01  -6.0590601e-01   4.4670103e-01  -1.7885213e-01  -1.7946033e-01  -5.7564554e-01   7.8336556e-01   3.9161970e-02   6.8628513e-01  -9.9620306e-01   1.4420818e-01   7.8390518e-01  -8.2409141e-01   7.4146691e-01   9.2459040e-01   6.3219145e-01  -1.1955094e-01  -6.2363890e-01  -1.0498840e-01   4.5602198e-01  -1.8972807e-01  -1.6246687e-01   5.4486030e-01  -1.1877265e-01  -6.1651451e-01   2.4947853e-01   9.0291501e-01   7.9481935e-02  -7.5941441e-01   8.2341660e-01  -3.0163602e-01   9.0620670e-01   2.3176860e-01   7.1957644e-01  -3.1303947e-01   4.6377258e-01   7.9492231e-01  -8.7967344e-01  -1.4744410e-02   5.9737106e-01  -2.6669366e-01  -9.1684467e-01   2.1187122e-01  -3.2592555e-01   3.3519689e-01  -6.5739075e-01   6.9611720e-01  -3.2502751e-01  -8.6823453e-02  -4.6277141e-01  -7.5715516e-01   3.9899486e-01  -1.5559762e-01  -6.1374699e-01   7.5309799e-01  -6.4052677e-01  -5.8340365e-01  -4.6860695e-01  -4.0567741e-01  -7.5477889e-01  -9.2869597e-01  -7.7241123e-01  -7.7340525e-01  -5.0248340e-02   4.6763943e-01  -9.7826596e-01   5.4867129e-01
  -1.8458825e-01  -1.8991918e-02  -9.9163276e-01   6.6076915e-01   1.1541572e-03  -7.5900075e-01  -8.4718817e-01   8.6300636e-01  -2.4731445e-01   9.2207276e-01  -1.1971664e-01  -5.5407471e-01   2.7817197e-01  -9.4519763e-01  -7.8453228e-01   4.8256956e-01   7.3615845e-01  -1.3576668e-01  -5.8247746e-01  -3.8166285e-01   5.2923778e-01   2.0504425e-01  -3.3126137e-01   4.6783055e-01   1.9445989e-01  -4.6797044e-01  -2.0195770e-01  -2.4247600e-01  -3.8401955e-02  -1.2865967e-01  -8.2410727e-02  -4.2407245e-01   6.8165687e-01  -4.7025526e-01  -3.6405864e-01  -2.4998104e-01   4.3454642e-01   4.2708155e-01   4.3793048e-01   5.8856122e-01   6.0697362e-01  -6.6537478e-01   6.4782769e-02  -6.9752031e-01  -9.2461091e-01   4.7480178e-01   7.0918979e-01  -4.3931240e-01   9.3186426e-01  -4.8582577e-01   6.4918557e-01   5.7547154e-01   9.6318181e-01   5.3024845e-01   2.1956531e-02   7.9511694e-01   1.7499828e-01   5.6924500e-01  -5.3288384e-01   1.8673286e-01   5.4980191e-01   1.6931682e-01   3.0380383e-01   9.7121054e-02  -1.5721276e-01  -8.1835166e-01   8.7164867e-01   4.5426156e-02   5.0346959e-01   6.3588802e-01   3.8230203e-01  -2.0064361e-01  -1.0319648e-01   9.9632668e-01   6.5542806e-01   5.5083845e-01  -8.3787371e-01   6.5247831e-01  -9.8421821e-01   8.5989577e-01   3.7222864e-01   8.1726201e-01  -1.5222691e-01   6.0278337e-01   4.4942186e-01   8.6312658e-01  -2.0098937e-01   5.0324485e-01  -6.5203474e-01  -8.6159357e-01  -4.1893827e-02   2.0315868e-01   7.0543936e-01  -4.6763112e-01  -3.8731074e-01  -4.2928505e-01   3.7495244e-01   5.3684221e-02  -6.5338641e-01   8.8046907e-01   2.0130326e-02  -7.6145076e-01  -1.6021646e-02   4.8996495e-01   1.4555416e-01  -7.9938643e-01   5.5179813e-01   4.8092851e-01   1.4416300e-01   6.2052916e-01   1.2284267e-01   2.1206488e-01   9.6547247e-02   1.3105153e-01   2.6713337e-01   7.3890049e-01   3.5065481e-01   8.7792808e-01  -5.9286173e-01  -4.8720955e-01  -3.3034381e-01  -8.6938986e-01  -9.7619857e-01   2.9203713e-02   2.3921528e-01  -8.6230489e-02   4.7371608e-02   3.7585323e-01  -1.5925365e-01   2.3819323e-01  -2.1869643e-01  -3.3063991e-01   1.9632721e-01  -1.6723963e-01   4.5338110e-01  -7.3762501e-01   7.7621397e-01  -5.2087829e-01   2.3449910e-01   5.8640664e-01  -6.9638642e-01   2.2362206e-01  -5.1152260e-01  -3.7587462e-01   4.9446615e-01  -7.7251178e-01   9.1384528e-01   3.8409654e-01  -1.4512199e-01   9.3575011e-01   1.2116163e-02  -3.6284031e-02   3.2233510e-01   6.4269870e-01  -7.0515641e-01   7.8860276e-01  -1.0048126e-01   7.3089119e-01   5.1016736e-01  -1.5505398e-01   6.9281893e-01   2.3793053e-01  -9.4686936e-01  -3.0970052e-01   6.9853167e-02   1.9870869e-02   1.2156458e-01   5.2101197e-01   1.3676539e-01   1.8572009e-01   1.4309349e-01   5.6900632e-02   3.6124214e-01   8.6348908e-01  -9.6888161e-01   2.0456179e-01  -6.0062233e-01  -9.4772540e-01  -8.3715776e-01   2.1446424e-01  -7.3439315e-01  -6.8647815e-01   8.7228955e-01   7.0291181e-01   2.4383032e-01   5.2712726e-01  -6.3562409e-01   6.9272209e-01  -6.9508430e-01   4.6575700e-01   1.2802077e-01  -3.9505951e-01  -6.5344255e-01  -4.3343568e-01  -5.4066698e-01   9.6365165e-02   1.4019762e-01  -6.3066326e-01  -8.8395726e-01  -9.5997082e-01  -1.6938375e-01  -1.0291080e-01  -6.3135348e-02  -1.7940962e-01  -6.3926027e-01  -3.6306169e-01  -1.7777530e-01  -9.4758047e-01  -3.2718716e-01   3.1319910e-01  -2.6966453e-01   8.0534790e-01   1.2838651e-01   9.8942557e-01  -8.1354073e-01   1.4432118e-01   9.2110550e-01  -1.4720723e-01   7.7660911e-01  -7.8538343e-01  -6.1224253e-01   8.7721763e-02   4.2529930e-01  -9.6715611e-01  -4.7504519e-01   8.8339203e-01  -3.9722793e-01   2.0188438e-01   1.5825837e-01  -4.1619991e-01   8.3528559e-01  -4.8099189e-01   8.3325710e-01  -7.4640681e-02   2.1199773e-01   3.0287819e-01   9.2982405e-01   4.2871303e-01  -8.3897089e-01   6.2510874e-01   6.7057631e-01  -1.4451010e-01   7.4493736e-01   7.7129491e-01  -6.1898793e-01  -4.5834992e-01  -1.5756933e-01   7.8857303e-01   5.1261134e-01   1.7789534e-01  -4.4921883e-01  -1.0732452e-01   1.6826889e-01   6.2709592e-01   1.0991054e-01   3.0763878e-01   7.4253863e-01  -9.5209637e-01  -1.4313115e-01   9.2086495e-01   7.0503308e-01   4.4505126e-01  -2.0002153e-01  -3.3225894e-01   2.9644529e-01   8.3726303e-01  -5.1252982e-01  -2.3522913e-01  -9.8715106e-03   2.6517018e-01   1.2932665e-01   8.7914470e-01   9.8788049e-01  -5.6145460e-02  -7.4613745e-01   8.7647088e-01   1.9284705e-01   7.5121687e-01  -4.0636487e-01   8.8401297e-01   3.5281023e-01  -8.9874537e-01  -8.1117711e-01  -7.5415942e-01  -2.3624975e-01   1.6445764e-01  -4.3528132e-01  -2.3446442e-01  -3.9135044e-01  -9.7161602e-01   9.7561682e-01  -3.6443727e-01  -6.5896695e-01   2.7920114e-02  -9.2948265e-01   3.2090039e-01   3.0295001e-01   3.7825269e-01  -9.3683101e-01   2.1808753e-01   4.0491222e-01   3.7593600e-02  -2.7393972e-01  -2.6475373e-01   7.7985665e-01   1.8452586e-01   5.8919947e-01   7.3599785e-01  -6.4051727e-01  -5.9558116e-01   9.0175430e-02   4.2612484e-01  -5.9502628e-01  -9.6577980e-01  -6.0209373e-01   6.2383095e-01  -9.4310627e-01  -5.3862286e-01  -6.4239368e-01   6.6299711e-01  -6.6812720e-01   8.4286582e-01  -3.5490995e-01   5.2351669e-01   6.3271578e-01  -6.7423358e-01   9.2285229e-02   3.2120567e-01   3.4392421e-01  -8.5534578e-01  -1.6132514e-01  -7.1651210e-01   4.5586808e-01  -4.5414211e-01   6.9478003e-03  -5.6999643e-02   9.4188528e-01  -3.7277443e-01  -6.5698678e-01   4.0598108e-01  -6.5576218e-01   2.9706903e-01   5.0721705e-01   2.4362460e-01   2.9861047e-01  -5.6180477e-01   5.6933791e-01  -2.7796539e-01  -5.6081469e-01  -5.2471281e-01  -4.6488999e-01  -1.9041446e-01   8.3283688e-01   9.4213344e-01   5.2718464e-01   2.6110826e-01  -5.5312791e-01  -7.5912728e-01   9.1772134e-01   9.5122883e-02   7.8346688e-01  -4.4517882e-01  -4.6313958e-01  -8.5144081e-02   2.5940222e-01   6.8122200e-01  -4.2217834e-01  -3.5305080e-01   6.0331893e-01   5.1146398e-01  -2.0044236e-01   5.0427465e-01   6.8417725e-01  -3.2628614e-01  -5.9305978e-01  -4.7979029e-01  -5.9491166e-02   3.5603240e-01   6.5419552e-01  -7.5412762e-01  -8.3637335e-01  -9.7509433e-01  -9.9770953e-01  -1.0488521e-01  -6.2550992e-01  -6.9037862e-01  -9.0076065e-03  -7.3506150e-01  -7.8993973e-01  -5.9385643e-01  -2.9361811e-01   6.8688360e-01  -8.1610191e-01   6.7216190e-01  -4.3893008e-01   8.1700965e-01   8.8747868e-01   6.8057222e-01   1.0443435e-01  -8.4696417e-01   1.1021546e-01  -8.8543124e-01   1.7474849e-01   9.7924288e-01  -6.5122173e-01  -2.8408186e-01   7.5486534e-01   2.6791818e-01   9.6462818e-01  -3.9010437e-01   2.1245051e-01   8.1995090e-01  -6.0180509e-01   3.6890121e-01   3.2552774e-01   7.5170573e-01   4.3604695e-01  -3.6285244e-01  -2.0233692e-01   1.5886151e-01   6.6706182e-01  -4.4121905e-01   8.3616766e-01  -1.3988339e-01   1.2067156e-01   6.9222369e-01  -6.7392853e-01   5.6962693e-01   1.9820591e-01  -9.0669932e-02   8.9919538e-01   6.4101326e-01  -8.5950310e-02  -2.8300865e-01  -6.1094383e-01   6.8677833e-01  -8.0248408e-01   7.8175439e-01   9.7902690e-01   9.3919291e-01  -6.1019805e-02  -8.4530721e-01   1.1293183e-01  -5.7729058e-01   8.2509186e-01  -7.5500563e-01   9.2356038e-01   7.5519992e-01  -4.6325629e-01  -2.1870606e-01  -2.8636679e-01  -4.1481051e-01   1.4873164e-01   5.4246622e-02   2.4739697e-02  -9.3843106e-01  -6.0488813e-01   8.6925722e-01  -9.9903720e-01   8.3057313e-01  -3.7572709e-01  -4.0560370e-02   8.1568526e-01   7.2555057e-01   3.0821685e-01   4.5584893e-01  -9.7467301e-01   3.0834655e-01   4.7665380e-01  -5.0090740e-01   6.4838466e-01   7.4608443e-01   1.9359887e-02  -5.1289429e-01  -3.2762064e-01   8.5014633e-01  -5.6426890e-01  -1.8170969e-01   1.8279770e-01  -5.9540137e-01   4.8041350e-01  -9.8758584e-01   5.1067467e-01   2.4913105e-01  -6.4336751e-01   2.6109992e-01   7.3211205e-01  -1.2806939e-01   5.2693096e-01  -3.7093704e-01  -1.7211842e-01  -8.9095418e-01  -4.1972948e-01  -2.2448881e-01   9.4755388e-03   1.0234480e-01  -1.5392118e-01  -6.3725621e-01  -5.8841545e-01  -3.3987134e-01   3.2911791e-01  -3.6464343e-01   1.5708654e-01   5.8868882e-01  -3.7778651e-01  -9.7576665e-01   3.7018998e-01   1.0382819e-01   1.9116118e-01   4.6893267e-01  -1.0911691e-01  -6.9002498e-01   2.4052284e-02   3.9790697e-01   5.8612800e-01   3.7800342e-01  -5.3194242e-01  -7.0193922e-01  -4.9294108e-01   1.1074168e-01   9.1168559e-01   9.4996474e-01   3.1106144e-01  -7.1337758e-01  -4.3091554e-01  -5.3554494e-01  -3.5800229e-01   3.1624120e-02  -5.2476899e-01   3.8652425e-01   1.9959352e-01   6.8006885e-02  -5.4325129e-03  -3.7210942e-02   7.3557583e-02   7.9337734e-01  -5.7646899e-01  -2.3473500e-01   6.7618738e-01  -5.7322591e-01  -5.3188505e-02  -9.2235543e-01  -3.7981269e-01   3.8541254e-01   8.2237157e-02   7.3844142e-01   5.9856184e-01  -1.9249286e-01  -5.8876130e-01   1.4920510e-01  -6.5735208e-01  -8.0945902e-01  -7.1040208e-01   2.5509036e-01   9.1192462e-01  -3.1872482e-01   7.0204236e-01   2.4047804e-01   6.8640942e-01  -9.4299912e-01   2.4344881e-02  -5.1666669e-01   5.9193707e-01   1.5688894e-01   4.8109244e-01  -7.4644690e-01  -7.9860992e-02  -8.4207396e-01   9.8586927e-03   1.5161498e-01  -2.1414039e-01  -6.7615762e-01   5.3934542e-01  -5.6868419e-01  -1.5420938e-01  -8.7133775e-01   2.1517156e-01  -6.5866904e-01   5.8443532e-02   4.4473689e-01   4.2235967e-01  -7.0829523e-02  -5.8246796e-01   2.9807477e-01   4.1590561e-01  -3.1641212e-01   9.8232777e-01   3.7782059e-01  -7.9468896e-01   2.4715600e-02  -1.3715472e-02  -2.0787365e-01  -2.0406440e-01  -6.7863889e-01   3.5622537e-01  -7.8240539e-01  -2.4673210e-01   1.5373981e-01   9.9268014e-01   7.8070948e-01  -7.7220328e-01   1.1981445e-02   6.7485353e-01   8.3070443e-02   7.1538114e-01  -2.4771047e-01   6.3504015e-01  -2.3002806e-01  -3.2192809e-02  -4.0148242e-01  -4.9212895e-01  -9.1860349e-01   4.7221893e-01  -8.0101180e-01   1.6373786e-02   4.8057321e-02   9.3362912e-01   8.2377098e-01   2.7276546e-01  -5.4394192e-01   9.2727312e-01  -3.5879295e-01   2.7647873e-01   8.6876648e-01   9.2303145e-01  -4.6091119e-01   5.2356892e-01  -9.9285350e-01   4.7920272e-01  -4.0921302e-01  -2.7997452e-01   4.0197997e-02  -1.7938977e-01  -2.3065456e-01   7.2712720e-01   2.1033319e-01   1.3872400e-01  -5.7620443e-01  -9.1260258e-01  -2.6223399e-01   2.9176272e-01  -3.0811807e-01  -3.0856383e-01  -1.9449728e-01   2.9384866e-01  -6.4428176e-01   7.8397909e-01  -2.7058720e-01  -5.6472107e-01   1.0779086e-01   2.3649487e-01   3.9742378e-01  -1.9238938e-01   2.1100007e-01  -9.2724883e-01   8.4988541e-02   9.0450984e-02  -7.6713512e-01  -3.7374796e-01  -6.4812896e-01   3.4026921e-01   4.2481989e-01  -3.3583556e-01   7.1271273e-01  -2.8778537e-01   2.9993586e-01   3.4326862e-01  -4.2602768e-02  -5.5470272e-01  -9.6873819e-01   7.4962756e-01   3.1495501e-01   7.1764220e-01   6.7357635e-01   8.4562516e-01   2.1103679e-01  -2.3591471e-01  -9.5332842e-01   6.1090181e-01  -1.8018682e-01   7.1746910e-02  -3.6760425e-02   7.8079709e-01   5.2626572e-01  -4.5037689e-01  -2.8739464e-02   2.2641169e-01   9.9553171e-01   6.9974917e-01   3.7367948e-01   1.8458441e-01   1.6477202e-01  -6.4893993e-01  -3.3759838e-01  -5.6857662e-02  -3.5848018e-01  -5.1358084e-01  -2.2027049e-01   6.1640539e-01  -7.3101587e-01   7.8635141e-01   4.2053325e-02  -4.6284376e-01  -8.2114178e-01  -9.2178818e-01  -7.4542105e-01  -6.8756225e-01   6.1013085e-01  -2.7708273e-01   4.1419972e-01   1.9112669e-01  -5.5639197e-01  -9.0102756e-01   2.9864884e-01  -4.1427126e-01   6.2292120e-01   2.3092930e-01   3.3238793e-01  -2.9110265e-01  -8.4281369e-01   2.9698262e-01  -4.5967302e-01  -7.8411423e-01   9.6499824e-01  -4.8428250e-01   5.9439128e-01   1.5091058e-01  -2.6581765e-01  -3.3412192e-01  -1.1481016e-01   5.0086128e-01  -7.9250686e-01   4.3234039e-01   2.5899254e-01  -7.9921104e-01   3.7899812e-01  -2.8266800e-01   8.8607533e-01   8.1032427e-02  -9.4200019e-01  -8.3419154e-01   5.4565902e-01   6.5056829e-01  -5.4892643e-01  -9.0567321e-01   1.5802257e-01  -1.8857340e-03  -8.1138132e-01  -2.5978890e-01   6.6170737e-01  -2.7409669e-01  -6.9515787e-01   4.8298810e-01  -1.2988246e-01   9.7105220e-01   6.9229116e-01  -6.1739999e-01   9.1015284e-01  -1.2257862e-01   6.4120622e-01   5.5333197e-02  -7.0508177e-02  -5.1567596e-02   5.7487742e-01  -6.4171755e-01   2.2622097e-01  -9.8751262e-01   4.5938771e-01  -2.3036301e-01  -9.6700831e-01  -7.9590850e-01  -6.6515495e-01  -1.6413138e-01  -4.4412276e-01  -1.9525922e-01   2.1443623e-01   5.0031774e-01   4.9080028e-01  -2.0106035e-01   7.8984388e-01  -7.7185233e-01  -4.9289244e-01   4.3634501e-01   2.1561475e-01   7.1554297e-01  -4.3627896e-01   5.2985507e-02  -6.2429985e-01  -8.1153677e-01   8.4574061e-01  -2.9472117e-01  -1.9460058e-01  -9.2316233e-01   4.2936344e-01   1.2048726e-01   9.9241749e-01  -8.4582708e-01  -8.2358399e-01  -5.9281953e-01  -5.3022580e-01   8.1840004e-01  -1.7297056e-01   9.7762029e-01  -5.8953498e-01  -5.9798098e-01   9.6257538e-02  -1.5191063e-01   8.5973344e-01   3.3029425e-01   7.5708937e-02  -3.6754741e-01   1.6077845e-01   9.6939088e-01  -4.3209489e-01   3.4043618e-01  -9.5039367e-01  -5.6198469e-02   8.4114006e-01   7.0938592e-01  -4.4935788e-01   2.2094476e-01  -5.6718868e-01  -6.0256690e-01  -6.1795718e-01  -4.3217844e-01  -8.1522915e-01  -5.1563051e-01   8.3857338e-01  -7.4383786e-01   5.2913496e-01  -6.9055192e-01  -1.1160732e-01   9.4773778e-01  -5.0027921e-01  -4.5376150e-01   4.6067510e-01  -5.0123888e-01  -7.2461798e-03  -4.7329226e-02   3.6057834e-01   6.0251313e-01   4.1446969e-02   9.8492013e-01  -5.6809922e-01   3.7684486e-01   8.0060242e-02   1.4519187e-02   6.5209095e-01   5.2537032e-01  -5.9234422e-01   1.3266750e-01   2.2024994e-02   4.2377470e-01  -3.7641101e-01  -1.3271366e-01  -4.9536384e-01  -9.8755735e-01   2.9338216e-01   1.9416895e-01  -9.0468735e-01   9.5331259e-01  -9.1169737e-02   5.2586256e-01  -4.3912222e-03  -9.4663950e-01  -2.1577984e-02   1.7609552e-01  -8.5076622e-01  -7.8167788e-01   3.6356815e-01   6.8371626e-01  -3.0127783e-01  -8.1938144e-01   2.2492607e-01   5.4286895e-01   6.1532705e-01  -9.6269586e-01  -9.0177409e-01   5.5134425e-01  -5.0756159e-01  -4.5617593e-01   5.9578289e-01  -7.1347294e-01  -6.0117198e-01   6.3641011e-01   3.8229522e-01  -5.9784654e-03   5.6221697e-01   4.4354621e-01   3.7451357e-01  -1.8518508e-01   8.4934260e-01  -7.7997298e-01   5.4539950e-01  -2.9428409e-02   4.4046479e-01   8.8370994e-01   7.0859848e-01  -8.5184977e-01   9.4166147e-01  -5.7996337e-01  -8.5496265e-01  -1.6062646e-01   7.6703476e-01   2.5094612e-01  -2.9348784e-01  -3.6718766e-01   4.5048723e-01  -5.2998453e-01   6.8573901e-01   9.2028737e-02  -2.8508324e-01   3.5459466e-01  -5.4045958e-01   8.9010038e-01   1.6873423e-01  -6.7467964e-01  -9.0183010e-02   3.8198175e-01   4.0087029e-01  -8.4591012e-01   4.0728196e-01  -9.6768938e-01  -7.0327592e-01   9.9535088e-01  -8.3701531e-01   1.7927371e-02  -3.8610962e-01  -6.8082870e-01   6.3219165e-01   1.2153185e-01  -9.9639798e-01   7.6713167e-01   9.1098339e-01   8.0507812e-01  -9.8162862e-01  -2.9947155e-01  -2.0302111e-02  -8.6711467e-01   5.0667271e-01  -8.6997523e-01   3.6796700e-01  -5.6930042e-01   6.1506809e-01  -4.2334446e-02   2.5625152e-01  -7.1679710e-01   5.3386091e-01  -2.9512452e-01   5.9910860e-01  -4.9789093e-01  -5.9796147e-01   9.7645135e-02   8.0169258e-01  -8.7458321e-01   1.2926454e-01   4.4586711e-01  -4.7154514e-01  -4.6207408e-01   7.9350422e-01   1.9342021e-01  -3.1755207e-01   5.9383310e-01  -2.0596295e-01   6.7005563e-01   5.6882646e-01  -4.9633807e-01   6.1840452e-01   6.0184276e-01   1.7773992e-01  -9.7974640e-01   5.9598159e-01   3.9219781e-01   5.2493835e-01  -7.9086897e-02   7.4133256e-01   1.2137184e-01   6.9757854e-01   7.9365571e-01  -8.8369304e-01  -1.3113654e-01  -5.3073937e-01  -6.5329289e-01   5.3187382e-01   3.7414104e-01  -9.0392339e-01  -2.2557924e-01   2.3710555e-01   4.9935124e-02   6.0150212e-01  -6.3116845e-02  -6.8297992e-01  -9.5627852e-01   9.6477881e-01   7.4354532e-01   3.9232465e-02  -2.1904495e-01  -3.1049118e-01  -5.8002016e-01  -4.1568171e-01
  -7.5221099e-01   2.4234984e-01  -7.3643554e-01  -8.8515895e-01   7.6250303e-01  -8.6705941e-01   3.2662197e-01   4.8970284e-01   5.9723811e-03   4.5085473e-01   3.5591720e-01  -3.5779306e-01  -9.2035702e-01   7.9283003e-01   6.8220210e-01   1.6330073e-01  -7.3385909e-01  -1.8915522e-01  -8.4299100e-01  -1.2790471e-01  -4.9977846e-01  -3.6423556e-01   7.1948889e-01   9.4247390e-01   5.5420835e-01  -1.0188707e-01   1.2437144e-01  -3.5040894e-01   2.9771446e-01   5.9707814e-01   9.9437822e-01  -7.0131587e-01   6.8171741e-01  -1.8507897e-01  -8.2447715e-01   8.2840259e-01  -1.0757214e-01  -8.2379974e-01  -3.0987747e-01   6.4778101e-01  -1.0604749e-01  -4.8698697e-01   8.8122631e-01  -1.2816381e-01  -3.9241977e-01   6.7904692e-01   5.8062704e-01  -9.5377379e-01  -4.0325550e-01   6.9193999e-01  -7.6336058e-01   5.4905351e-01   3.2651805e-01  -7.6831721e-01   6.7226162e-01  -7.8863106e-01  -7.7330817e-01   6.1113524e-02  -4.1264599e-01   7.5618547e-01   1.4320758e-01   5.2743166e-01  -3.6223514e-01  -6.9119796e-01  -8.6721915e-01  -3.6843027e-01  -7.9135686e-02   4.5183117e-01  -1.6064386e-02   4.4271716e-01  -8.7178075e-01   3.6404508e-01  -1.2181955e-01  -5.4914207e-01  -9.7146584e-01   8.6219088e-02  -8.7767359e-01   1.2537083e-01   7.5352617e-01  -8.9063759e-01   5.6228925e-01   8.9992750e-01   9.5484999e-01   1.5307528e-01   5.7980967e-01   7.3438865e-02  -5.0994043e-01  -5.7372806e-01  -1.1359800e-01  -3.4331354e-01   3.9891119e-01  -1.4483817e-02   8.4557959e-02   8.8372988e-01   9.6027691e-01  -9.8702457e-02  -2.7326554e-01   8.9195685e-01  -4.3065003e-01  -8.0137471e-01   4.1361787e-01  -5.1043925e-01  -6.4024426e-01  -1.6729685e-01   9.3650052e-01   8.7330737e-01   7.1087998e-01  -2.8651281e-01  -8.0778012e-02  -9.3807226e-01   1.4250190e-01   8.7421089e-01  -1.6032812e-01   5.5117759e-02   1.8398711e-01  -3.5900518e-01   9.2247030e-01  -4.4959117e-01   4.1107626e-01  -3.3918019e-02  -9.6270949e-01  -1.7258516e-01   3.8559471e-01   1.2145102e-01  -9.5648287e-01  -2.7831457e-02  -3.0296758e-01   7.0281455e-01  -1.4849220e-01  -1.1373023e-01   7.0692219e-01  -1.9351872e-02   3.1624470e-01   4.2568435e-01  -7.1433245e-01  -5.6826859e-01  -6.5819150e-02   2.0536899e-01   7.8764037e-02   4.3355569e-01   6.3277097e-01  -2.1888906e-01  -8.7432607e-01  -7.1131125e-01  -2.0142131e-01  -7.4555566e-01   6.7345112e-01   4.3855225e-01  -2.6860132e-01  -6.5411608e-01   1.2224586e-01   4.8279584e-01  -5.2351413e-01   9.8333861e-01  -3.0695341e-01   1.1974924e-01  -3.5645442e-01   7.9729118e-01   8.2015919e-01   4.2232986e-02  -6.2238773e-01  -2.2716889e-01  -1.0212799e-01  -4.2279161e-01  -1.6536787e-01   2.5795225e-01  -9.9932644e-01   1.8152477e-01  -2.8740373e-01   1.5872141e-01  -6.9996333e-01   9.2546150e-01   8.9221065e-01  -1.4599729e-01  -5.1829549e-01   9.3926540e-01   6.4613362e-01   5.3239972e-01   1.9357469e-01   8.1820893e-01   3.5662832e-01  -1.8125525e-01   9.7444298e-01  -4.7686535e-01   7.5907183e-01   4.4048616e-01  -1.1224383e-01  -8.7522204e-01  -1.6991216e-02   9.0807942e-01   1.9577346e-01  -9.7087489e-01  -9.5207640e-01   4.7784391e-01  -4.6059738e-01  -8.5434836e-01   7.4254837e-01  -4.6013758e-01   3.8274666e-01  -6.6159365e-01   4.2209160e-01  -5.4925965e-01  -1.2490124e-01   9.1993226e-01  -1.0926632e-01   2.0790748e-01   3.4678755e-02   6.9811870e-01  -1.4530154e-01  -9.9245126e-01   7.5063588e-02  -3.6810639e-01   2.9382032e-01   6.3263395e-02  -7.4097809e-01  -6.8959030e-01   2.0207114e-01  -6.9493809e-01   5.0409963e-01   8.1531589e-01  -4.2067487e-01   6.3187948e-01   1.7199029e-01   5.0905293e-01  -3.6499928e-01  -4.5614749e-02  -6.3549717e-02  -4.8344631e-01  -2.0337608e-01   6.2842210e-01  -3.6576722e-01   4.5694671e-01  -9.0926867e-01   6.2160087e-01  -3.7481093e-01   9.7722513e-01   9.6435501e-01  -5.9637568e-01  -3.2758368e-01  -4.0158125e-01  -5.2106215e-01  -6.0508380e-01  -8.9426345e-01   3.4751565e-02   6.2538251e-01   4.9911616e-01   3.9205759e-01   8.3080832e-01   1.1881967e-01  -2.5923465e-01   8.4087694e-01   2.4471447e-02   6.0244388e-01  -1.7733063e-02   6.2773042e-01  -3.3474640e-01   6.2109220e-01  -6.2538088e-01   6.1839548e-02   4.2710936e-01  -7.2736341e-01  -1.8230413e-01  -9.1998301e-01  -8.2581186e-01  -2.4046464e-01   6.6281788e-01  -9.6933481e-01  -9.1600624e-01   3.7347393e-01   3.9041438e-01  -6.7033965e-01  -2.4845846e-01  -1.4328303e-01  -6.9665986e-01   3.1943679e-01  -7.1351577e-01  -6.8645388e-01  -3.3293979e-01  -5.7448828e-01  -6.8375850e-01  -6.3612145e-01  -4.4042274e-01   9.4096582e-01   2.0756776e-01  -5.4854718e-02   5.9704812e-01  -2.7454342e-01   8.4037847e-01   4.0738746e-01   9.5978392e-01  -3.9803174e-01  -4.6632783e-01  -5.3824315e-01  -4.2149571e-02  -9.1059719e-01   3.6822724e-01  -1.0883234e-01  -6.0829452e-01   7.0356728e-02   7.8372071e-01   7.2793694e-01   9.8593470e-01  -7.7095318e-01   7.3346180e-01  -6.2689422e-01   5.5362353e-01  -4.2572905e-01  -3.7628183e-01  -2.5802656e-01  -9.0742091e-01  -8.1828687e-01  -4.9219594e-01  -2.0089633e-01  -4.3432908e-01   6.7545161e-01   9.1364052e-01   9.8629198e-01   2.7392493e-01   9.9992313e-03  -1.0081625e-01  -8.9649358e-01  -5.6035052e-01  -1.9898093e-01  -9.8219229e-01   6.1732904e-01   8.5826938e-01  -5.0231284e-01  -2.9013046e-02  -4.5283157e-01   5.1734668e-01   9.6902638e-01   5.5710482e-01   7.7966648e-02   8.2953596e-01   6.9867840e-01   4.5229418e-01   6.4821518e-01   8.6120734e-01  -3.6715777e-01  -5.8077317e-01  -1.9756922e-01   1.9166878e-01   6.6496817e-02  -2.0482962e-01  -6.6371681e-01  -3.3546488e-01   9.3558287e-01   4.4355954e-01  -1.9154471e-01   8.2450159e-02  -2.2252317e-03   9.9890999e-01  -8.4007755e-01  -9.5428584e-01   4.2499624e-01   1.1243149e-01  -3.9640660e-02  -4.5759007e-01   4.1156434e-01   3.2965821e-01  -6.2325201e-01  -6.6592477e-01   6.1552321e-01   3.1808379e-01  -2.1496622e-01  -1.3110482e-01   7.1401316e-01   7.7496172e-01  -5.8990408e-01  -2.2020792e-01   4.6209163e-01  -3.5172747e-01  -5.6768974e-01   9.1639568e-02  -2.7788429e-01   6.2377641e-01  -2.9665400e-01  -1.6862097e-01  -6.2407251e-02  -2.9742005e-01  -5.5292548e-01  -1.4647597e-01   2.6236709e-01   5.3538601e-01  -1.1061453e-01   7.9660459e-01   2.4551429e-01   7.0407468e-01   4.1392138e-01  -3.8399530e-02  -2.9010599e-01  -8.9914287e-01  -5.2065186e-01  -5.8264952e-01   6.3858922e-01  -6.8126888e-01  -3.0084314e-01  -4.9117681e-02  -5.4546148e-01   1.8538886e-02   9.3674384e-01  -4.4803570e-01   6.7590658e-01   3.5713539e-01   8.4897076e-01  -5.8131255e-01   8.9261266e-01   3.4838774e-01  -6.4570166e-01   6.3134972e-01  -2.4085430e-01   7.1404927e-01   5.0185231e-02   3.1657931e-01  -3.9611509e-01  -2.8163780e-01   4.0011536e-01   4.8998586e-01  -4.5368552e-01   9.9995667e-01  -6.4712988e-01  -9.5920337e-01  -6.4156260e-01   5.5628484e-01   6.0913599e-01  -6.1009956e-01   3.7518811e-01  -9.3729505e-01  -2.0060857e-02  -6.3578090e-02   8.0093105e-01  -4.8173543e-01   1.3158650e-01  -4.7364134e-01   7.6251041e-01   7.7056269e-01   6.1105681e-01   6.7291668e-01   8.8209089e-01   4.0464764e-01   4.2668438e-01  -8.3545634e-01  -8.1303945e-01   9.4653669e-01   3.8823699e-01   7.2780284e-01   2.3929085e-01   3.3929551e-01  -2.9640593e-01   8.2190864e-01   6.1588010e-01   6.9773235e-01  -8.2167155e-01   3.3313715e-01   5.4614942e-01  -8.7762981e-01   2.1537510e-01  -2.7805141e-01   4.9431398e-01   8.6940333e-01  -1.5347364e-01  -2.7406779e-01   3.6853418e-01  -2.9127725e-02   6.6738731e-01   1.7383028e-01  -7.6852932e-01   5.3349368e-01  -6.9734630e-01   2.5072518e-01  -3.8597695e-01   5.0117985e-01   6.9406536e-01   8.4636807e-01   4.7080194e-01  -7.3558345e-01  -2.3437245e-01  -9.3792757e-01  -2.2462185e-01  -4.3753848e-01  -8.1409130e-01  -3.7672384e-01   8.7267489e-01  -4.6047447e-01   8.5712868e-01  -9.9180149e-01  -1.1429116e-01   7.4029819e-01  -1.1489830e-01   8.7221534e-01  -6.4807499e-01  -9.6839794e-01  -6.0425197e-01   4.6335972e-01  -5.0506592e-01   7.4250205e-01  -6.0979478e-01   5.4728646e-01   5.9726037e-01   4.0665690e-01  -6.8816659e-01  -5.9551109e-01   1.6695489e-02   1.1645617e-01  -2.0111934e-01  -4.0604434e-02  -9.1108402e-01   1.6734385e-01  -3.3439951e-01   7.2788150e-01  -1.8617589e-01  -4.8926408e-01  -2.4938286e-01  -5.4795223e-01  -7.0717410e-01  -3.4789905e-01   2.9059864e-01  -5.2588516e-02   9.7433826e-02  -2.8943414e-01  -5.6362811e-02  -8.8934219e-01   5.8388927e-01   9.6738693e-01   9.6338609e-01   8.1251436e-01   3.7923282e-01   5.8856940e-01   4.0424011e-01  -4.7115815e-01   5.9045668e-01  -2.0901447e-01  -8.9118750e-01   9.0032678e-01   7.2067573e-01   6.4541338e-01   3.1062714e-01  -4.5781948e-01  -7.8250347e-01  -8.1747855e-01  -9.2198661e-01   3.9518582e-01   1.7884100e-01  -2.6918908e-01   2.7537495e-02  -2.5646080e-01   5.2070412e-01   3.1359799e-01   9.3361925e-01  -5.8310647e-01   4.9515211e-01   1.0982910e-01  -3.4172291e-01   5.2690288e-01   4.3663026e-01   1.4940309e-01  -2.3820954e-01   5.4792438e-01   4.8667251e-01  -5.0286012e-01  -6.2363010e-01   7.5258478e-01  -6.0801763e-01  -2.4775305e-01  -2.0342385e-01   2.0481325e-01  -1.9967134e-01  -7.3086074e-01   4.1498097e-01   8.0809397e-01  -9.5600274e-01  -2.4839465e-01   7.5783676e-01   3.7861481e-01   1.0584477e-01  -6.0371886e-02   4.6514705e-01   9.0260398e-01  -7.0254438e-01   6.5027408e-02  -2.0923673e-01  -1.6219032e-01   5.4160847e-01   8.3461536e-01  -8.9812421e-02  -8.4532417e-01   4.4386866e-01  -7.2268179e-01  -5.3882920e-01   9.8267838e-01  -9.8686906e-01  -1.7311440e-01  -9.7800905e-01  -3.1636834e-01  -6.4837935e-01  -4.0817753e-01  -9.5940313e-01   8.1774017e-01  -6.8541660e-01  -6.5055675e-01   5.4849598e-01  -4.8533808e-02   1.3663683e-01   7.7903034e-01  -3.2642336e-01  -7.0756387e-02   2.0661257e-01  -7.5284550e-01   3.7312502e-01   6.2755747e-01  -3.5820772e-01  -7.7270988e-01   6.2613065e-02  -3.7190961e-01   3.3139565e-01  -5.1319850e-01  -7.2999937e-01   3.4244388e-01   4.9650861e-01   5.3565476e-01  -5.8944245e-01  -9.5723282e-02  -6.2962480e-02   6.7185467e-01  -3.0750104e-01  -2.8591114e-01   5.3679339e-01   2.2434015e-01  -9.9109645e-02  -3.7849691e-01  -1.5736713e-01  -8.9994797e-01   3.2311460e-02   7.1152060e-01   9.4804044e-01   7.1163936e-01   7.0820733e-01   5.8133900e-01  -9.9644504e-01  -6.8959380e-01  -4.3917337e-01   9.3275856e-01  -3.8923359e-01   2.5785546e-01   8.0314149e-01  -3.4396232e-01  -7.8357900e-01  -6.8885413e-01  -3.1732756e-01  -4.1424408e-02   1.3601262e-01  -5.7834853e-01   3.6412867e-01  -5.1304325e-01  -1.8043349e-01  -4.3180114e-01   1.4412742e-01  -9.1880850e-01  -6.2699602e-01   8.1494127e-02  -2.8992439e-01  -9.2148189e-02   1.1011313e-01  -6.7392439e-01   3.0659725e-01  -3.5047663e-01   2.5503264e-01  -3.5724494e-01  -2.4859554e-01   1.7058443e-01  -1.3048894e-02   6.3337208e-01  -4.8657481e-01  -5.8703197e-01  -1.3558020e-01  -1.4368673e-01   7.0192802e-01   5.1242422e-01  -3.0830324e-01  -1.4797794e-02  -4.0606094e-01  -5.5138083e-01   9.9738113e-01   2.7922646e-01  -5.5659502e-01  -2.0694280e-01  -9.2503652e-01  -5.6560595e-01   2.0369518e-01  -2.1014313e-01  -6.1222632e-01   8.9483165e-01  -9.1648634e-01  -6.5182665e-01  -4.3443829e-01   7.3284092e-01  -1.6838068e-01  -6.9283928e-01  -3.5745066e-01   5.3984769e-01  -7.0827436e-01  -5.1366397e-01   8.9323550e-01  -7.5541779e-02  -5.7553558e-01   7.5446052e-01   3.4631968e-01  -4.0614702e-01   9.6348366e-01   4.6732787e-01  -6.8463739e-01  -1.0572499e-01  -2.5031897e-01   2.0222917e-01   9.2478049e-01  -8.0663875e-01   4.9937782e-01   9.2486833e-01  -7.1363804e-01  -9.4712669e-01   8.5366360e-02  -9.7034109e-01   8.8480971e-02   8.1177233e-01  -3.4409538e-02   2.6805668e-01   7.4755663e-01   1.1970617e-01  -9.6128251e-01  -1.4663811e-01   2.8295301e-02  -6.7031320e-01  -9.0061893e-01  -9.9242622e-01  -6.7843405e-01   9.7839656e-01  -6.0187399e-01  -2.4958447e-01   2.8354106e-01  -2.0521330e-01   2.4604030e-01   8.5003642e-01  -8.3302261e-01  -7.9391722e-01   9.7808186e-01   6.6708341e-01  -2.5514728e-01  -3.7681033e-01  -1.0671860e-01  -1.6231235e-01  -3.6301025e-01   6.0642979e-01  -3.7842009e-01   4.6437639e-01  -7.1880507e-01  -3.0738294e-01  -9.0132294e-01   2.7206420e-01   3.9651698e-01  -1.8984449e-01  -7.8321233e-01   7.7614660e-01   9.2813477e-01   2.5907757e-01   9.6808098e-01  -4.1527776e-02  -8.7712973e-01   7.6661195e-01   4.0562044e-01  -6.1504407e-01   3.9407199e-01  -8.7692218e-01   9.9221260e-01   5.3379333e-01  -1.4463939e-01   9.7846102e-01   4.4810149e-01   9.7039360e-01   2.4614830e-01   2.7927221e-01   3.7660284e-01   9.1209786e-01  -4.8754860e-01   3.5728058e-01  -3.3706551e-01   4.7142859e-01   5.7217961e-01   5.2158643e-01   7.8990872e-01  -3.8541849e-01  -3.7444557e-01  -5.2232085e-01  -1.8105325e-01   3.1139186e-01  -5.9163880e-01   1.9745243e-01   9.8297339e-01  -5.0075443e-01  -4.9730759e-01  -3.5240449e-01   6.0285151e-01  -2.0332000e-01  -8.6835466e-02  -8.4972883e-01  -1.8775590e-01  -6.3780150e-01  -5.5446764e-01   9.3848852e-01   5.3965758e-01  -9.4717847e-01   4.1303811e-01   4.7399165e-01  -8.4652377e-01  -9.6454024e-01  -1.7756833e-01  -5.3963104e-01  -9.5455930e-01   1.2329627e-01   4.9353446e-01  -5.5315011e-01  -5.4166975e-01  -7.3762131e-01  -7.7557991e-01  -4.0647186e-01  -5.8915087e-01   2.8056017e-01  -6.9089190e-01  -6.5148810e-01   6.4673506e-01   6.0399843e-01  -8.2429866e-01  -5.9468077e-01  -6.1011944e-01  -6.3486032e-04  -8.6480875e-01   8.5807609e-01   1.8209303e-01   7.6680684e-01  -6.1780642e-01  -9.6178033e-01   2.0488319e-01   2.5682387e-01  -1.1425727e-01  -7.8214411e-02  -6.0715500e-01   6.5973918e-01   3.5541876e-01   4.9949697e-01  -8.9415075e-01   3.2563370e-01  -9.7980322e-01  -3.9498418e-01   3.5329295e-01   3.0927315e-01  -9.3189152e-01   3.0944727e-01  -1.1289918e-01  -6.7086429e-01  -4.6722109e-01   1.1355144e-01   7.8879203e-01  -9.0149474e-01   2.8281285e-01  -1.2540280e-01   4.4142463e-01  -6.7775087e-01   4.7215071e-01   3.6744084e-01  -3.7776660e-01  -8.0148966e-01  -6.4004559e-01  -1.7101912e-01  -8.5414269e-01   5.3956976e-01   3.0108617e-01   3.3938011e-01  -2.0503762e-03  -8.2151607e-01   3.3280732e-01   2.4536682e-01  -6.1347404e-01  -7.5114163e-01  -2.6132192e-02  -2.9595841e-01  -9.9796531e-02   2.8737136e-01   1.9854351e-01  -9.7984944e-01  -1.8871490e-01  -5.0565263e-01  -6.0014407e-01  -3.3935440e-01   7.6358034e-03   2.3526193e-01  -7.3263488e-01   1.5414119e-01   7.0246378e-01   8.4102408e-01  -2.1846303e-01  -5.2121290e-01  -9.7697814e-01  -3.0004103e-01   2.4344306e-01  -9.5473243e-01  -6.8618120e-02  -8.0554095e-01   1.9693947e-01   7.0527565e-01   2.6661482e-01   6.5613209e-01   5.9721459e-02  -2.6693423e-01   5.7309704e-01  -3.6043692e-01  -2.1498060e-01   7.2830940e-01  -1.8286462e-01  -2.4813654e-01  -2.5947992e-01   1.3910337e-01  -4.6862103e-01   4.4625087e-01  -4.6215357e-01   4.3273936e-01   5.7150947e-01   9.3668871e-01  -2.7049191e-01   7.4389902e-01  -7.8422856e-01  -3.8289074e-01  -6.2442751e-01   3.7146890e-02   9.3961383e-01  -9.9174794e-01   3.7344078e-01   1.2905603e-01   5.8965618e-01   4.1516694e-01  -8.1417687e-01  -3.9312715e-02  -2.1998216e-01   1.6891372e-01  -2.5150630e-01   6.7413768e-01  -7.4393684e-01  -7.0078046e-01  -1.9574003e-01   8.5904022e-01   7.0046842e-01   5.3539070e-01   7.5175195e-01   3.2861725e-01   3.1247473e-01  -2.0657446e-01   1.9204513e-01  -2.4984952e-01  -9.3585060e-01   1.1390077e-01  -8.4945940e-01  -1.9144414e-01  -1.3590260e-01   5.1223988e-01  -5.2919637e-01   5.8184904e-01  -1.4962138e-01  -4.1085391e-01   5.5783901e-01  -5.2957857e-01   3.7739156e-01   6.3495281e-01   6.5187395e-01   2.5563692e-01   3.4031346e-01   2.5209129e-01   3.8226731e-02  -6.2882927e-01   4.8510268e-01  -3.9115168e-01   9.1869960e-01   5.5810780e-01  -8.0129935e-01  -5.6049134e-01  -3.2443044e-01   7.0565237e-01  -2.0260448e-01   2.9402696e-01   6.6450656e-01  -7.9682181e-01   2.6167125e-01  -7.8685832e-01   5.6454804e-01   8.1560779e-01  -8.7789755e-01  -4.9203425e-01  -7.8733839e-02   6.6949953e-01  -6.5200590e-01  -9.1333179e-01  -7.0800310e-01  -5.4198013e-01
