   8.8367662e-02  -8.1485637e-01   6.0240030e-02  -7.5663898e-01   3.8802157e-01   4.4408245e-01   6.3771149e-01   5.4439188e-01   6.1244589e-01  -2.5432283e-01  -2.5227829e-01   4.4348236e-01   5.9611024e-01   5.1484789e-01   4.7103078e-01  -6.0240741e-01  -8.9441978e-01  -8.7793093e-01  -9.7423494e-01   5.1980552e-01  -1.3244771e-01  -1.5699909e-01  -1.4751885e-01   9.9832850e-01   8.8508785e-01  -1.9292602e-01   7.5122569e-01  -7.1051909e-01   3.5063199e-01  -7.6950964e-01   1.2996882e-01  -6.8771529e-01  -2.5609939e-01   7.1084504e-01   1.5838514e-01   1.4034019e-01   1.1686474e-01   2.6360140e-01   1.3120503e-01   5.5137589e-01  -5.0498476e-01   2.0641982e-01  -4.6049102e-01  -6.5363232e-01  -4.3342709e-01   3.4480417e-01  -5.4021143e-02   2.6955174e-01  -2.3137875e-01   5.3422453e-01  -7.2664392e-01   8.6154064e-01   3.7020631e-01   8.0662123e-01   4.5490329e-01   1.1659120e-01  -1.8737757e-01  -5.2999839e-01  -4.6023382e-04   3.7824378e-02  -1.2500454e-01  -8.9911549e-01   4.6021897e-02   3.9642901e-01   3.3244361e-01   9.4799072e-01   1.2952824e-01   8.9080146e-01   7.4359934e-01   4.4751922e-01  -2.8524580e-01   5.4504307e-01  -9.0503910e-01  -6.3241270e-01   9.9186632e-01  -9.1219785e-01   7.1008649e-01  -1.4719237e-01  -1.5074920e-01   2.2067342e-01   9.3145732e-01  -8.8448522e-01  -8.7658316e-01  -6.9711545e-01   2.2350654e-01  -9.9588432e-02   7.3409901e-01  -7.4004629e-02  -7.3147920e-01  -9.6111777e-01  -8.7210066e-01  -4.3527000e-01   2.8987449e-01  -5.0111228e-01  -3.5503961e-01  -7.7250411e-01   1.0227689e-01   7.8133019e-01   2.2406008e-01  -8.4262688e-01   5.0668860e-01  -2.5096731e-01   9.6504961e-01  -9.1611989e-02  -5.9850085e-01  -6.6498994e-01   3.2811312e-01  -1.3149454e-01   5.7579645e-01   1.3399761e-01  -5.2298835e-01  -2.2854956e-01   2.8525968e-01  -6.2847161e-01   9.1870978e-01   2.4660420e-01   9.0232664e-01  -3.8498660e-01   6.6643383e-01  -8.6133990e-01  -8.0668011e-01  -5.9343086e-01   7.4887072e-01   9.6345828e-01  -5.1471998e-01  -2.2804842e-01   6.6131190e-01  -1.8916609e-01   7.5456503e-02   7.7346783e-01   1.7935395e-01  -9.7835308e-01   6.8854169e-01   5.3843082e-01  -9.6184765e-01   6.2388296e-01  -5.3280798e-01  -3.7253988e-01   3.2513825e-01  -3.3059139e-01   6.8196639e-01   9.2444817e-01   3.5642536e-01   9.2118370e-01  -7.9005317e-01   1.7542964e-02   5.6677833e-01   4.6346658e-01  -9.3786485e-02   3.9679754e-01  -7.1888194e-01  -5.4892645e-01  -2.1573602e-01  -3.6699593e-01   9.1113432e-01  -1.7565980e-01   8.0620761e-01   3.5546628e-02   1.0553787e-01   5.0529002e-01   4.6449306e-01  -2.0287155e-01  -7.5294769e-01  -8.5123155e-01   7.8715697e-01   6.7221249e-02  -8.6438417e-01   3.3452212e-02   1.3567397e-02   8.4537691e-01  -6.3469358e-01  -8.5001866e-01   1.9676027e-01  -8.5105014e-02   5.5477654e-01  -2.1588871e-01  -2.0668720e-01   6.1499320e-01  -7.3899103e-01   2.1934123e-01   8.2488197e-01   8.9929687e-01  -6.2091044e-01   6.7456892e-01  -5.9403949e-01   8.8887640e-01   9.6752285e-01   3.6518101e-01   1.7694298e-01  -1.5412970e-02   7.9616604e-01   1.1288943e-01   4.0645706e-01  -9.0310431e-01  -3.3171845e-01   2.4963130e-01   9.2585028e-01   5.2573666e-02   2.5263554e-01   2.4573539e-01  -2.0550262e-01   9.7130652e-01  -9.9443562e-02   8.4040619e-01  -9.5797767e-01  -6.1240587e-01   2.3089783e-01  -7.5836232e-01  -9.4196515e-01   1.4814238e-02   7.3581896e-01  -8.2952211e-01  -1.0392762e-01  -8.0560852e-01   7.7372806e-01  -5.2940407e-01  -5.8616246e-01  -5.6340260e-01   1.2433182e-01   3.4487153e-01   1.7858846e-01  -8.1297240e-01  -3.7636052e-02   7.0418824e-02  -6.4975412e-01   6.5650309e-01  -4.5341975e-01   6.9443637e-01   4.0348137e-02  -2.7848459e-01   2.0779003e-01  -8.2157628e-01   2.5600757e-01   1.4403772e-01  -9.1181853e-01  -9.9971117e-01   2.2203766e-01  -3.6144837e-01  -9.9137442e-01  -5.9496939e-01  -1.5301613e-01  -3.4360916e-01   6.1332572e-01  -1.7181357e-01  -3.9313140e-01   7.0653172e-01  -1.3893351e-01  -2.6352564e-01  -7.1103038e-01   7.2060497e-01  -1.3676756e-01  -8.4273246e-01   1.0798026e-01   2.0991616e-01   2.6187519e-01   1.3071083e-01  -2.7199875e-01  -3.2981599e-01  -4.9702865e-01   2.6881813e-01   3.1010918e-01   6.9981841e-01   7.4612042e-01  -3.2174124e-01   7.8993674e-01  -5.6751615e-01  -3.0928377e-03  -4.1078756e-01   9.5515971e-01  -6.8936055e-01   8.6347254e-01  -3.5668892e-01   7.1039765e-01   4.6485808e-01  -4.5403143e-02   7.6945889e-01   6.3332136e-01  -3.2132752e-01   2.2238560e-01   5.5891980e-01  -4.0851034e-01  -8.2137711e-01  -2.7620195e-02  -4.5453407e-01  -3.1706833e-01  -5.2335531e-01  -9.5767072e-01   2.6131442e-01   5.4436294e-01   2.7105248e-01  -2.1276375e-01   2.7597933e-01  -7.8084360e-01  -8.9195683e-01  -6.6561020e-01   5.0435886e-01  -9.2351220e-01  -3.6984357e-01  -9.7127192e-01   7.4400897e-01  -5.6361329e-01   1.7536341e-01   6.6722944e-02  -2.4657331e-01  -4.3021713e-01   5.6410960e-01   6.2801628e-01  -4.2878042e-01   6.2275383e-01   7.8985997e-01  -4.8608969e-01  -6.8221494e-01  -4.5548426e-01   2.2230024e-01   9.9008568e-01  -3.3032275e-01   6.2027375e-01   3.9328789e-01   7.6114020e-01   9.3842632e-01  -7.5335825e-01   7.3503325e-01  -1.6428253e-01   3.0370262e-01  -1.5486074e-01   1.2384051e-01   1.8413014e-01  -8.7734685e-01  -9.5260290e-01   3.2137923e-02  -4.9631379e-01  -3.9791528e-01   4.8688086e-01  -5.0486420e-02  -1.4663987e-01  -7.8832200e-01  -2.0303689e-01   7.2472932e-01   5.3945917e-01  -5.9960918e-01   2.5281594e-01  -8.2617398e-01   4.9275631e-01  -1.3414680e-01  -9.2918864e-01  -4.8842970e-01   6.7935579e-01  -4.8846762e-01  -9.3509129e-01  -7.6390845e-01   4.5214337e-01  -1.8083941e-01   2.2096666e-01  -3.3311729e-03   4.6868045e-01  -3.7959691e-01   8.7922079e-01  -4.8725865e-01   3.4111112e-01   4.9278084e-01   6.2661615e-01   4.5230226e-01   9.8257355e-02  -6.3773563e-02  -8.3862741e-01  -1.6194632e-01   2.6514684e-01  -4.1106043e-01   1.7729609e-03   7.8147809e-02   6.5821486e-01  -5.4102589e-01   8.6018023e-01   8.2983727e-01   3.6429316e-01   7.4514937e-01  -7.5374698e-01  -9.3941612e-01  -4.8063909e-02  -7.9552920e-01  -8.0071452e-01   2.6210490e-01   4.3924147e-01  -9.2416790e-01   7.8248354e-01   8.6669198e-01  -1.5515152e-01  -4.7198132e-01   6.9128936e-01   1.0235996e-01   4.8951398e-01  -6.9899257e-01   3.6520073e-01   6.8089369e-01  -5.9365635e-01  -1.2392825e-01   2.9153491e-01   4.7334405e-02  -8.7763106e-01   7.5552585e-01   8.0068321e-02   9.5931415e-01   6.0480671e-02   7.2968112e-01   6.5031064e-01   1.9984728e-01   5.5836476e-01  -4.9551527e-01   8.5592257e-01   6.0238783e-01  -3.6827921e-01   5.9681397e-01   5.2969381e-01   5.9443710e-01   1.8762539e-01   3.0373223e-01  -5.0301335e-01   5.4718537e-01   8.3352081e-01   2.5032445e-01   8.6785002e-01  -5.9116890e-01   2.7280525e-01   6.1102470e-01  -2.3369079e-01   7.4598460e-01   1.4566078e-01  -3.7794492e-01   6.7448538e-02  -1.6714611e-01  -6.9465837e-01   6.1552077e-01  -7.3420170e-02   9.6579361e-01   8.1139385e-01  -8.1798163e-01  -8.0648866e-01  -5.5564847e-01  -2.1187040e-01  -4.3131339e-01   5.2224919e-01  -6.7336911e-01  -3.1798342e-01  -9.5400404e-01   6.2957596e-01  -7.9248123e-01   4.4445975e-01   9.1969835e-01  -5.4369781e-01  -3.8906779e-01  -3.5456941e-01  -3.6880022e-01  -6.7891650e-01  -9.9299861e-01   7.8811154e-01  -2.8126641e-02   2.4073753e-01   6.5557899e-01   2.4877909e-01  -5.7127346e-01  -7.1874888e-01   4.0427101e-01   8.6153675e-01   9.2445995e-01   8.6528820e-01   2.6094111e-01   7.9492511e-01   1.0806396e-01   5.6436389e-02   6.8075034e-01   2.2642112e-01  -9.0856198e-01   7.9936298e-01   7.2248664e-01  -7.4971330e-01   2.2547088e-01   8.9913009e-01   2.9585479e-01   9.2692242e-01   7.3194153e-01   5.4375985e-01  -3.3714450e-01   2.0938331e-01   2.7684840e-01  -4.0564774e-01   1.2324374e-01   8.8098686e-01  -3.2150751e-01  -1.5079287e-01  -7.4309461e-01   7.6799767e-01   5.6950938e-01  -2.1020122e-01  -5.7838461e-01  -1.8157331e-01  -6.8809320e-01  -5.8271841e-01  -9.4204563e-02  -8.6146651e-03   1.4598312e-01  -3.2932519e-01  -4.1996806e-01  -7.3313747e-01  -4.9547480e-01   4.0060339e-01  -3.4159068e-01   3.6925328e-01   3.9463446e-01  -5.2228239e-01  -3.0964258e-01  -7.9858008e-01  -4.8782157e-02   5.6298913e-01  -1.2565429e-01   4.0541785e-01  -9.7364532e-01  -8.2833830e-01  -7.6393971e-02  -6.0527170e-01  -1.6777490e-01  -3.6553094e-01  -5.8720688e-02  -8.7588689e-01   6.2184920e-01   4.4188530e-01   6.3294291e-01   6.1310084e-01   9.5890891e-01  -4.7576377e-01   3.9458951e-01  -5.4475122e-01   8.3305288e-01  -9.9701738e-01   3.1207018e-02  -8.5441037e-01  -6.5480633e-01  -9.5706605e-01   8.3306082e-01  -7.3742228e-01  -5.7707857e-01  -7.1734488e-01  -6.5767383e-01  -5.6137364e-01   9.9262308e-01  -9.6642964e-02  -9.7948725e-01  -1.2667991e-01   7.5797666e-01   1.5731364e-01   3.8321561e-01   5.1577324e-01  -2.5306553e-01   2.4971589e-01   1.6570586e-01  -3.4590851e-01  -4.0228629e-01   4.7263435e-01  -7.3342440e-01  -2.7755997e-01  -2.2914622e-01   9.5383530e-01  -3.9707293e-01   1.9975335e-01  -8.6338131e-01  -9.2794401e-01  -2.8740059e-01  -8.2469284e-01   2.1019117e-01  -2.3624995e-01  -9.2206692e-01   4.0718876e-01   5.2880189e-01  -6.2506235e-01  -7.2894830e-02  -9.7688312e-01   8.1737892e-01   9.3558083e-01  -4.1624450e-01  -7.3978043e-01  -3.6961440e-02   5.2747112e-01  -3.8268391e-01  -3.8505224e-01  -2.5689435e-01   8.1714816e-01   4.3404496e-01   6.7949739e-01  -8.9588483e-01  -5.8738475e-01  -1.2546746e-01   5.8091406e-01  -3.9956419e-01   5.7959883e-01  -7.9887743e-01   7.1670142e-01   9.0672013e-01   4.9400541e-01   8.6349095e-01  -1.0267803e-01  -2.2891206e-01  -9.0055949e-01  -6.7747292e-02   9.4728071e-01  -9.1567587e-01   8.4546974e-02   2.4502161e-01   3.9374214e-01   7.2705201e-02   4.1999325e-02   7.1651575e-02   7.2381912e-01   3.4462635e-01   6.8988307e-01   4.0451771e-01   5.1057552e-01   3.1432108e-01   8.2419350e-02  -7.8551392e-01   4.0524778e-01  -7.7738951e-01  -4.5340911e-01  -8.3440443e-02   6.4750722e-01  -2.4628486e-01   7.9201797e-01   1.5359238e-01  -7.9503946e-01  -4.2202937e-01  -8.2085268e-01   7.7325855e-01   5.6079419e-01  -1.8306080e-01  -1.7777076e-01   4.1926639e-01  -1.2467098e-01   4.4928214e-02   7.7067974e-01  -6.3483559e-01  -3.6768108e-02   9.8761161e-01  -2.8119648e-01  -8.4141190e-01  -5.7756901e-01  -1.8361983e-01   9.2951777e-01  -6.7428952e-01   9.9622865e-01  -1.1342739e-01  -7.9454604e-01   2.5076033e-01   4.9581851e-01  -5.2185429e-01  -2.3305859e-01  -8.5086154e-01  -1.6012237e-01  -1.9448261e-02   1.3401331e-01  -2.9590445e-01   3.6727736e-01   7.8750396e-01   7.2549653e-01   5.4991273e-01  -8.7777942e-01   4.2494380e-01   2.9321599e-01  -7.4007199e-01  -3.2045856e-01  -6.3722408e-01  -1.0853237e-01   8.8380043e-02   3.1875381e-01  -5.3653465e-01  -8.6821871e-01  -9.2853579e-01  -7.7375888e-01   3.4104900e-01  -6.5496507e-01  -6.0715914e-01   6.8658524e-01  -8.2712474e-01   8.4079809e-01  -7.1297255e-01  -8.2716532e-01  -8.7939738e-01  -7.9815966e-01   4.6077953e-01  -6.4166726e-01   5.2795920e-01   1.8178412e-01   9.7157747e-01  -8.2543178e-02   6.5040533e-01   4.8054404e-01  -3.9705882e-01  -6.9834906e-01  -1.9778162e-01   4.3609528e-01  -1.9367725e-01  -4.5939978e-01  -4.6363506e-01   8.0172883e-01   8.7602274e-01   6.3745613e-01  -5.9459115e-01  -1.6221763e-01   4.8470176e-01   6.8593041e-01  -6.1051890e-01   5.1946182e-01  -6.1372920e-01   8.9215758e-01  -2.0695370e-01  -6.6363515e-01  -8.3808713e-01  -5.4508257e-01   1.5466127e-01  -3.2064380e-01   8.8987056e-01  -3.5684041e-01   6.9790799e-02   6.5503404e-01   3.6058005e-01  -4.8259673e-01   1.3301968e-01  -4.1023832e-01  -1.7082501e-01  -9.6157589e-01   6.1446633e-01   7.1495430e-01   7.8781119e-01   8.5417652e-01  -5.6569623e-01  -8.0082106e-01   8.4326481e-01  -8.5550998e-01   7.1081984e-01   3.5724621e-01  -4.3103207e-01  -5.7318147e-01  -2.2817665e-01  -8.0817193e-01   2.7689346e-01  -6.9600561e-01  -9.9733283e-02   6.2451999e-02  -1.3644368e-01   7.5944645e-01   1.9113577e-01  -1.2312994e-01   6.6191584e-01  -2.9414809e-01  -6.7334403e-02   7.6257476e-01  -2.7485096e-01   7.4690940e-01  -6.9751835e-01   6.4530635e-01  -1.2782751e-02   9.6024814e-01   2.3355899e-01   4.0110873e-01  -2.5251724e-01   9.2509915e-01   2.8834392e-01   6.1956848e-01   1.8579276e-01  -5.4465083e-02  -5.7529937e-01   3.8358056e-01  -5.5304528e-01  -5.0395059e-01   7.1785416e-01  -4.7698593e-01   4.4456822e-01  -8.6977139e-01   1.1449624e-01   7.7270322e-01   4.4029583e-01   3.7129767e-01   1.8160352e-01   8.1071547e-01  -1.2245416e-01   6.4100623e-01   2.1666012e-01   8.4199766e-01   2.2628761e-01  -6.0779571e-01  -1.8577780e-01  -7.4335735e-03   9.2499601e-01  -7.1340850e-01   9.6902390e-01   8.8323692e-01   4.2197940e-01   1.6805106e-01   1.2389908e-01  -9.4515649e-01  -1.3383160e-01  -8.9900916e-01   6.9011433e-01   3.3222899e-02  -1.7595715e-01  -9.9126629e-01  -1.1864602e-03   8.9815366e-02   6.8153061e-01   5.7767849e-01  -9.0284311e-01  -2.3641995e-01  -4.1672628e-01  -7.3992270e-01  -4.4113127e-01   3.8308002e-01  -4.7221642e-01   8.5144789e-01  -3.1980630e-01  -4.7674397e-02  -7.0940178e-01   3.9597621e-01   1.8229077e-01  -1.6823456e-01   9.6347820e-01   5.3516345e-01   6.2729912e-01   5.4825642e-01  -3.5971969e-01   5.0317398e-01  -5.4254927e-01   8.0655827e-01  -1.2740979e-01  -8.2920282e-01  -6.7658146e-01  -5.8089072e-01   8.3724760e-01   1.2075310e-02   6.6031544e-01   8.3286142e-01  -7.9079661e-01  -7.6313552e-01   7.3609734e-01   2.3394796e-02   7.0630915e-01   3.6716689e-02  -9.6778151e-01   2.6822652e-01  -8.2626376e-01  -7.2668989e-01   8.9066105e-01  -8.4763681e-01  -5.6611180e-01   3.4348221e-01  -7.6616290e-01  -9.1683329e-01   4.7580998e-01   2.3015544e-01   7.4224475e-01   9.1997181e-01   9.5571612e-01  -9.9667790e-02   8.4176925e-01   3.4004682e-01  -3.1827343e-01   3.2388238e-01  -1.0828422e-01   5.1432294e-01  -2.1256489e-01  -4.6063383e-01   9.8952502e-01  -8.3842815e-01  -1.3642478e-01  -6.5397514e-01  -3.5172621e-01  -3.4752156e-01   1.4595854e-01  -9.6387548e-01   8.3798148e-01   8.8351837e-01   5.2306740e-01  -2.9275905e-01  -8.6206759e-01  -4.6384480e-01   5.9230543e-01  -8.6071274e-01  -2.4312420e-01   3.4361801e-01   6.8228286e-01   1.5168681e-01   7.2627097e-01   1.3552494e-01   8.5758285e-02   3.3519641e-01   3.2627403e-01   4.4070796e-01  -4.5569814e-01  -4.0168885e-01  -4.7962955e-01   1.6747663e-01   6.4838256e-01  -1.1404567e-01  -8.6528174e-01  -7.1971377e-01  -4.0493363e-01   2.8052603e-01   5.3693774e-01  -4.0489403e-01  -9.3255118e-03   2.3508742e-01   4.5685914e-01  -4.7797146e-01  -7.7422661e-01  -2.9996356e-01   3.9426762e-01   8.3769855e-01  -3.7148874e-01  -6.6138736e-02  -8.9853837e-01   6.1838660e-01  -7.0202993e-01  -6.2162381e-01   3.6450594e-01   9.3824227e-01   6.3292956e-01   4.7583074e-01  -6.5285263e-01   4.3425112e-01  -9.5872447e-01  -2.8103188e-01  -3.8580329e-01  -4.3143824e-01   7.2448832e-01   1.5434046e-01  -9.2685582e-01   3.0334102e-01  -1.0874974e-01  -1.4682977e-01   3.7520732e-01  -8.9871625e-01  -6.3194994e-01   7.9351205e-01   4.7534193e-01   2.3505018e-01  -6.4493708e-01   9.6885956e-01   4.1994033e-01   3.2282620e-01  -1.8246881e-01   6.5302830e-01   5.6408350e-01   9.4197176e-01  -8.0789162e-01   3.1477321e-01  -8.5965700e-01  -7.4197530e-01  -5.0314759e-01  -6.4013961e-01   6.6691951e-01  -2.4491238e-01  -1.0054217e-01   8.9927161e-01   9.3679967e-01   1.0068686e-01   1.8753497e-01  -9.2715443e-01   1.4683581e-01  -3.7799382e-01   4.2517805e-02   8.1636774e-01  -3.3469008e-01   8.6775107e-01   4.6144923e-01   1.7272161e-02  -9.6390851e-01   6.2301198e-01  -7.6227954e-01  -3.3440462e-01   3.7262574e-01   8.6493780e-01   1.3196938e-01   1.4005959e-01   9.2179167e-01   9.9407549e-01  -1.8829473e-01   9.6125142e-01   4.7961940e-01  -3.0846820e-01  -3.1878517e-01  -1.2752716e-01   7.0024546e-01  -6.2021572e-01   6.5042633e-01  -1.6889200e-01   7.9141808e-01  -2.4270269e-01   6.6899589e-01  -6.2623353e-01   6.3628432e-01   5.8669020e-01   2.9955691e-01   7.2197896e-01   1.7075804e-01
   6.1628935e-01  -6.4096390e-02  -2.0623398e-01   9.8711027e-02   8.1759231e-01   1.1596876e-01  -9.5646655e-01  -2.1426454e-01  -5.9717761e-01  -4.5115192e-01   4.1759723e-01  -2.2297754e-01  -3.1915165e-01   7.1298813e-01   7.9564923e-01  -6.0706592e-01   7.3606289e-01  -6.3460612e-01  -1.8931299e-01  -6.9878883e-01  -9.5605274e-01   6.8108842e-01  -2.2591859e-01  -2.5576357e-01  -6.5936859e-01  -7.1193716e-01  -5.5904161e-01  -5.3119020e-01   8.9231031e-01   3.5520454e-01  -8.9905423e-01   9.3933132e-01  -1.3640957e-01   4.4203432e-01  -1.3512564e-01   1.3459800e-01   2.5116910e-01  -9.1359375e-01   6.6984091e-01   4.3263593e-01  -9.6596875e-01   7.5733232e-01  -5.9382612e-01  -4.9724387e-02  -7.2970043e-01   6.4067926e-01   4.7125039e-01  -1.7833738e-01   4.2249836e-01  -8.1483575e-01  -8.9405824e-01   5.7585648e-01  -7.8174979e-01  -2.4757684e-01   4.9702405e-01  -6.9486630e-01  -9.8843225e-01  -9.6117063e-01  -2.7231272e-01   6.0972184e-02  -9.5672937e-01  -6.2515610e-01  -6.0020691e-01  -8.0456921e-01   6.5389781e-01   4.7518861e-01   7.8648303e-01   3.1458596e-01   9.6035264e-02  -4.3263239e-01   3.7365087e-02   8.8332751e-01   6.0490839e-01  -2.3612407e-01   5.0815428e-01  -5.9087789e-01   8.7634063e-01   2.5594904e-01   3.0547956e-01  -7.9307877e-01  -4.6438983e-02  -9.9197756e-01   1.8848093e-01   8.6470141e-01  -6.9703200e-01   7.4877765e-01  -1.1484145e-01  -6.2295081e-01   4.2260464e-01   8.1217544e-01   9.6678211e-01   7.0988473e-01   8.9507129e-01  -4.5666408e-01  -4.2065745e-01   5.7427444e-01  -5.4997692e-02   2.1959156e-01  -6.0882543e-01  -4.2903995e-01   6.7736640e-01  -3.4645067e-01  -7.5657758e-01   8.5260696e-01  -8.1188094e-01  -4.5121350e-01  -4.6469618e-01   2.6044890e-01  -6.4728012e-01   8.1875668e-01   9.6788714e-01   1.0344951e-01  -5.4831148e-01   1.4586550e-01   4.7135683e-02  -6.9768146e-01   1.9789312e-01  -3.7607094e-01   6.7346014e-01  -8.3539540e-01   6.8641699e-01  -9.7169954e-01   4.9680511e-01  -2.9179199e-02  -1.1656373e-01  -8.2582635e-01  -6.5665863e-01   2.0189514e-01  -2.7346153e-01  -5.3797467e-01   4.8823199e-01  -6.3583515e-01  -4.9572852e-01  -3.7783556e-02   1.0511168e-01  -4.5579025e-01  -9.4485799e-01   7.9385068e-01  -8.2295757e-01  -9.8749842e-02  -5.4295586e-01  -9.3587897e-01  -8.5927553e-01  -1.8580321e-01   7.0777993e-01   3.2631810e-02   6.2343054e-01  -1.0214434e-01   8.6535256e-01  -9.2627653e-01   4.5250648e-01   1.7968944e-01   7.9859122e-01  -3.0311957e-01   3.0050492e-01  -2.8932346e-01  -7.3900444e-01   9.6924419e-02   6.2285251e-01  -6.2051499e-01   1.9154447e-01  -4.4972104e-01  -6.8111834e-01   1.4136405e-01  -3.3838082e-01   5.8588690e-01   6.7868651e-01   2.8899851e-01  -1.3478412e-01  -3.6117319e-01   1.0499032e-01   5.0383222e-02   7.6294540e-01   3.1004333e-01   3.4776196e-01  -8.1112507e-01   4.4784781e-01  -7.8503655e-01   7.5612570e-02  -9.9724087e-01   4.3533638e-01   3.6381479e-01   7.3876017e-01  -5.2159320e-01   7.2151640e-01   6.4678542e-01  -1.6948885e-01  -1.3316312e-01  -5.6710973e-02   5.2025727e-01   4.8331309e-01  -4.1776927e-02  -5.6927735e-01  -8.2703362e-01  -3.9783586e-01  -5.3474003e-02  -6.2823525e-01   8.2676060e-01   2.3322969e-02  -1.6447803e-01  -6.2998454e-01  -1.4265209e-01   2.8145157e-01   3.2595370e-01  -3.2350945e-01  -1.5532957e-01   5.3209446e-01   1.6944170e-01   9.1999867e-01  -7.5259405e-01  -5.7538021e-01  -3.9515985e-02   9.0662947e-01  -9.0371107e-01   7.9919403e-01  -8.4411548e-01   8.9133324e-01   5.9851061e-01  -2.5147131e-01   9.0681217e-01  -4.4174488e-01   7.4450618e-01  -9.9681998e-02  -2.8990894e-01   8.4084621e-01  -3.2740488e-02   6.6728115e-01  -8.2972267e-01   1.8125865e-01  -6.0149576e-02  -9.0578960e-01   9.1579633e-01  -4.8935277e-01   6.9299079e-01  -7.9246682e-01   9.4405577e-01   6.7064610e-01  -2.4736033e-02  -2.0238411e-01   1.8911174e-01   2.5314243e-01   9.6239660e-01   3.7053790e-01  -5.7134765e-01  -1.0717855e-01  -9.8058307e-01  -3.4291830e-01   2.4926791e-01   6.6181955e-02   1.5036391e-02   8.4096673e-01  -5.9826223e-01  -9.0275108e-01  -2.8912221e-01  -3.2314853e-01   1.5346571e-01  -2.4777021e-02   3.0264449e-01  -1.0234397e-01   9.3169152e-01   3.8947668e-01  -1.2514851e-02  -9.5624809e-01  -3.0096679e-01  -4.7436122e-01  -3.9787616e-01  -8.1037543e-01   4.8491763e-01  -3.3237212e-01   9.9728357e-01  -9.8445944e-01  -5.7534577e-01  -6.6250331e-01   6.3332093e-01  -6.2144680e-02  -7.6207204e-02   9.9935936e-01  -7.4682855e-01  -6.5225032e-01   7.4995133e-01   2.2732625e-01   5.9189557e-01  -7.3557055e-01   7.6713470e-01   7.4715996e-01   2.0472948e-01  -6.5831746e-01   2.7285619e-01  -3.7212086e-01   6.9316815e-01  -9.5927530e-01  -7.9143247e-01  -2.6380504e-01  -5.7936383e-01  -6.5142016e-01   6.9617286e-01  -4.9193720e-02  -5.6425485e-01  -7.8256230e-01   9.7518325e-01   1.0690961e-01  -5.4067441e-02  -6.7911006e-01   4.0683124e-01   8.4735310e-01   9.1969137e-01   9.9629797e-01  -7.5369921e-01  -8.2101049e-01  -4.5317910e-01   7.8433402e-01   4.0081808e-01   5.7043700e-01  -1.9998329e-01   2.8784557e-01   9.8006943e-01  -2.4658291e-01   8.6070792e-01  -7.1634055e-01   7.1894905e-01   3.3130094e-01   4.1777077e-01  -2.1738614e-02   8.3589261e-02  -7.2186797e-01   6.0430017e-01  -6.2068510e-01  -2.5829016e-01  -6.9867161e-01  -3.7790867e-01   5.7603603e-01   6.4308730e-01   2.4112638e-01   6.2795225e-01  -6.1037498e-01   3.3309452e-01   3.1081375e-01  -4.5521185e-01  -3.6342687e-01   4.4146303e-02  -1.4472306e-01   4.9338789e-01  -7.6637034e-01  -8.7615776e-01  -2.5830678e-01  -4.7232916e-01   4.3410971e-02  -5.1722498e-02   1.5530166e-01   3.2718765e-01  -6.2612355e-02   5.6186681e-01  -1.7689359e-01  -9.6724089e-01   1.7710348e-01  -9.9641099e-01   3.2275511e-01  -1.4480023e-02  -5.1753308e-02  -7.9158644e-01   9.3618493e-02  -5.6733238e-01   7.7518536e-01   9.8072904e-01   5.5198822e-01   8.2517511e-01   5.8008757e-02  -6.1267704e-01  -3.4425152e-01  -2.0018103e-02   8.5586423e-01  -8.4230417e-01  -9.0483828e-02   6.4210274e-01   7.3881216e-01   4.9337201e-01  -6.9126236e-01  -7.5090534e-01  -3.3962993e-01  -4.1458368e-01   6.6240642e-01   5.4138437e-01  -7.8460004e-01  -6.6180458e-01  -1.0746193e-01  -4.7636064e-01  -9.9809835e-01  -7.2155002e-01   4.1672769e-01  -7.4929598e-01  -5.5607515e-01  -2.9294263e-01   6.8063044e-01  -3.2061480e-01   6.3849046e-01  -8.0768685e-01  -3.9380721e-01  -9.2194219e-01   1.8611432e-02  -2.1896940e-01  -5.4697880e-01   9.5302985e-01  -4.4572714e-01  -1.4748481e-01  -2.9586082e-01  -2.6424510e-01   6.9900370e-01  -1.8163242e-01  -7.7504031e-01   7.9975378e-02  -8.2973440e-01  -4.6294957e-01  -4.5119859e-01  -4.9011968e-01   5.4816944e-01  -6.7041664e-01   6.0681988e-01  -6.3255673e-01   4.3679783e-01  -3.3063172e-01  -4.2709272e-01   1.3689946e-01   2.9453921e-01   5.9898807e-01   8.1894553e-01   7.4227300e-01   3.2619959e-01  -4.6538648e-01   4.2611104e-01   1.9142737e-01  -4.7221793e-02  -5.7537262e-01   2.7647662e-01  -2.1483674e-01  -2.2654243e-01   6.6918541e-01  -8.3066734e-01   6.8864365e-01  -3.9368674e-01  -7.2718660e-01  -9.2696319e-01   8.6772526e-01  -6.3676581e-01   5.6961224e-01   9.6427104e-01  -2.2399896e-01  -8.7046677e-01  -2.7225015e-01   8.6401864e-01   2.0847019e-01   5.7234019e-01  -5.0202926e-01   2.3878762e-01  -7.6825884e-01   6.1689566e-01   1.7603227e-01   2.4166117e-01   4.2174714e-01   7.1914037e-01  -5.7582245e-01  -3.4936578e-01   3.8771523e-01  -2.2574031e-02   1.6429246e-01   4.3932539e-01  -7.9731869e-01   5.4039505e-02  -5.5068560e-01   7.2098644e-02  -4.9847334e-01  -7.9708669e-01  -3.8733631e-01  -7.7700757e-01  -3.4663090e-01   4.6830421e-01   5.9232783e-01   7.5995086e-01  -8.2056993e-01   4.7075310e-01   2.3630996e-01   2.4907859e-01   7.6267626e-01  -7.6520818e-01   1.3061413e-01   9.2802502e-02   9.6139447e-01   3.1949620e-01   1.6083172e-01  -3.6737044e-01   1.1483365e-01  -9.7188017e-01  -3.7418722e-02  -8.0718081e-01  -9.1363728e-01  -2.6435072e-01   4.8478823e-02  -3.1871704e-01   3.5626337e-01  -3.1880777e-01   3.8275100e-01   7.1811185e-01  -8.3789601e-01   3.1092653e-01  -7.4047678e-01  -9.0965039e-01  -3.7105455e-01   3.3284204e-01  -1.2012912e-01   8.3387768e-01   9.2972478e-01   6.4236796e-01   3.0226004e-01  -6.7827356e-01  -6.9816292e-02  -5.4856140e-01  -9.6233188e-01   7.6020837e-01   2.8896975e-01   1.1157316e-01   3.1988679e-01  -1.0386999e-01   2.3515937e-01  -3.7035973e-01   1.0246916e-01   1.7909591e-01  -4.3622335e-02  -4.3523953e-01   9.8957920e-01   2.4387160e-01   1.4423883e-01   8.8349876e-01   7.0011747e-01   5.8206979e-02   7.6116489e-01  -5.9267051e-01  -1.5936588e-01   7.5140605e-01  -6.5087856e-01  -5.0201454e-01  -2.2577274e-01  -8.1230707e-01  -5.3818396e-01   9.0578598e-01  -5.9348562e-04   9.3534160e-01  -3.0461350e-01  -5.4355618e-01  -3.7877252e-01   1.4619096e-01  -7.0035611e-01  -8.4063750e-01   3.4216237e-02   9.6076223e-01   1.9994687e-01   1.8949528e-01   1.4208992e-01  -8.9841500e-01  -7.8821292e-01   7.2205084e-01   4.9745199e-01  -6.7837791e-01  -1.0225943e-01  -4.5729295e-01   6.5392059e-01  -4.1943034e-01   5.7261931e-01  -6.6196957e-01   6.8622829e-01  -5.3965996e-01  -1.5406866e-01   2.3114896e-02  -9.1834607e-01   8.8285217e-01  -1.6351520e-01   1.3062770e-01   7.5998103e-01  -5.1275695e-01   3.6736886e-02  -4.9118135e-01   6.0205470e-01   2.4488640e-01   3.5358377e-01  -2.0018173e-01   4.1922003e-01  -5.7597400e-01  -9.8864978e-01   4.4646120e-01  -3.3884477e-01  -7.6800836e-01  -9.6795275e-01   4.8528225e-01   2.5106439e-01  -8.0385415e-01   8.5287062e-01   8.2149122e-01   2.2986880e-02  -7.2792868e-01  -9.8942074e-01   7.0997477e-01  -9.9094974e-01  -1.1656738e-01   3.5946016e-01   6.0720943e-01   3.1741920e-01   4.5567272e-01   1.6887410e-02  -2.3403809e-01  -4.0292356e-01  -4.5942070e-01   6.9902573e-01   1.4979262e-01  -5.6082789e-01   2.2672614e-01  -5.6228425e-01   8.4852596e-01  -9.0412860e-01  -7.1169768e-01   3.4126907e-02   9.4318396e-01   7.4117625e-01  -2.1971439e-01   5.7879569e-01   7.5350070e-01   2.5344862e-01   4.9616328e-01  -1.9560301e-01  -8.6351225e-01  -9.0003550e-01   3.6568866e-01  -7.5074092e-01   7.1780708e-01   1.1741998e-01  -2.2514698e-01   3.8254852e-02  -5.8342781e-01  -7.9813563e-01   5.0666243e-02  -7.5523525e-01  -7.7589425e-02   3.0759936e-01  -2.7271742e-01  -2.8684947e-01  -4.9070431e-01  -2.7714732e-01  -4.9229491e-01  -3.9701963e-02   5.0800362e-01   7.8984884e-01  -1.8628401e-01   2.9075713e-02  -5.2515385e-01  -5.9245092e-01   4.0867372e-01   3.3725365e-01  -8.5633326e-01   9.7622011e-01  -7.2798791e-01  -1.2238541e-01  -2.0460249e-01  -4.9609732e-01  -2.8942640e-01  -3.3163269e-04  -1.9653930e-01  -1.7600916e-01  -8.0806624e-01  -5.0957827e-01  -7.8996926e-01   5.3387657e-01  -9.4195269e-01  -5.9010068e-01   3.2223270e-01   6.9890406e-02   1.8822336e-01  -8.3853032e-01   1.0807971e-01   9.6029809e-01  -5.4229710e-01   3.8409070e-02   8.9260566e-01   5.8914095e-01   1.7450375e-01   6.2725809e-01   9.1711866e-01   2.9132457e-01  -3.3727776e-01  -1.8792838e-01  -7.0064059e-01   5.0443093e-02   1.5708051e-01  -4.8271745e-01   1.0121384e-01   1.3998746e-01   5.0283694e-01  -5.4040005e-01  -2.4374409e-01   4.1758507e-01  -7.2975840e-01  -4.6418644e-04  -9.5951599e-01  -1.7458451e-01  -5.3685118e-01  -1.9404913e-01   1.0104577e-01   2.7433838e-01  -9.9546080e-01   3.8523522e-01   6.6501509e-01  -3.4745228e-01  -6.7122697e-01  -5.0670852e-01  -1.4222789e-01   4.5442458e-01   6.9458609e-02  -2.4964281e-01   4.5582474e-01  -3.0059774e-01   4.7998886e-01   4.8847300e-02  -1.6196222e-01   3.6062324e-01   7.0173818e-01  -1.5924415e-01   6.2164690e-01  -3.5730363e-01   2.7650215e-01   7.2216448e-01   3.7118444e-01   8.8600824e-01  -2.6605483e-01  -4.3370494e-01  -5.9174307e-01   6.7562686e-01   1.7525254e-01   6.8270366e-01  -9.4026620e-01   4.0246501e-02   2.5120969e-02  -9.2512535e-01   2.2385589e-01  -3.9532019e-01   7.2074343e-01   1.5675520e-01   7.7704959e-02  -9.8480450e-01  -2.3353732e-01  -1.4800169e-02   2.9879316e-01  -8.0815318e-01  -3.8349465e-01   4.4793385e-01   9.4427367e-01   1.7560024e-01   4.2920523e-01   7.7391715e-01   8.5130300e-01   1.9715478e-02  -1.8624974e-01   4.3552446e-01   6.3984018e-01  -6.3712014e-01  -6.3970666e-01   2.9661682e-01   2.8623697e-01  -7.8608633e-01  -3.0604484e-01  -2.4512745e-01  -9.8962850e-01   4.4278171e-01  -6.4736265e-01  -9.0600437e-01   1.8514121e-01  -5.3494253e-01   4.8569101e-01  -1.9453271e-01  -4.0576249e-01  -2.5065620e-01   9.0396164e-01  -9.6093421e-01  -3.0553449e-01   9.4868422e-01   1.3650801e-01  -2.4089026e-01   8.2454894e-01   7.0417198e-01   5.4947604e-01   9.9733293e-01  -4.1509806e-01   7.1338383e-01   5.3947156e-01  -5.7054540e-01   8.6556397e-01  -7.1389245e-02   6.2205883e-01   2.0090832e-01  -8.8254935e-02  -2.5738560e-01  -6.5901622e-01  -3.1311236e-01   6.8818914e-01  -6.0543006e-02  -1.1574503e-01   5.8637914e-01  -8.0046061e-01  -2.3312204e-01  -5.0486199e-01   7.8992490e-01  -5.2777461e-01   3.4934858e-01  -5.8125731e-01  -1.0276693e-01  -9.2522038e-01  -9.7158379e-01  -4.8750752e-01   4.5689214e-02   8.5767194e-01   4.0012231e-01   5.3802717e-01   3.6625990e-01   3.4902101e-01   5.9705552e-02  -3.8954300e-01  -1.9973375e-01   9.6937980e-02   7.4059886e-01   3.2360589e-01  -9.3770485e-01  -7.3696091e-01  -8.7129730e-01   6.8102490e-01  -8.6025318e-01   2.8450083e-01   4.1162472e-01   8.2636836e-01   3.7693122e-01  -7.3065077e-01   2.9470988e-01   4.9089807e-01   7.4323114e-01   5.6926957e-01  -1.2956172e-01  -1.1287406e-01   8.6239860e-01  -1.6876567e-03   5.8075006e-01  -7.3854079e-02   3.1956929e-01  -1.2373059e-01   3.2889455e-01  -3.6529382e-01  -7.4759409e-01   9.5706551e-01  -8.0450766e-01   8.7922119e-01   6.6328122e-01  -8.7102511e-01  -1.2605428e-02   7.4548153e-01  -2.0667088e-02  -4.2862708e-01  -1.2585748e-01   1.7671869e-01   8.6988655e-01   7.3310564e-01  -6.7597199e-01   5.4593512e-01   1.7316390e-01  -3.9733155e-01  -1.7117093e-01   2.6319565e-01  -2.6583930e-01  -8.9096630e-01  -6.3178157e-01  -1.6620079e-02  -6.3440516e-01   5.8354550e-01  -7.8660240e-01   2.4927538e-01  -7.9409677e-01  -1.2418496e-01   8.8957624e-01   4.7890223e-01  -3.6071533e-01   1.0263408e-01  -7.8892868e-01  -4.2856873e-01  -5.0303196e-01   3.4824180e-01  -7.8569305e-01  -2.9349142e-01   9.4387373e-01  -4.5798941e-01  -8.2713288e-01   7.8653953e-01  -3.5320436e-01   5.7415892e-01  -6.8172854e-01   3.9477747e-01  -9.5053141e-01  -9.5377320e-01  -8.5381190e-01  -9.7950642e-01   3.8600936e-01  -3.9869374e-01  -5.4408593e-01  -3.7548418e-01   3.3056685e-01   1.7157076e-01   7.7905570e-01  -4.8918255e-01  -1.3900154e-01   4.5370842e-01  -9.2016916e-01  -8.3793828e-01  -4.8337967e-01   9.9341637e-01   8.9437914e-01   9.4902235e-01  -6.4861833e-01   7.0335387e-01  -1.8139473e-01  -4.8327818e-01   5.2355666e-01   1.2377400e-01   4.8520276e-01  -3.1890926e-01  -1.9803047e-01  -9.9482438e-01  -4.7668801e-01   6.6405036e-01  -8.6693784e-01   5.9982434e-01  -2.5776165e-01   8.7765419e-01   4.6788201e-01  -7.6074113e-01   8.3259264e-01  -1.1110028e-01  -6.2905494e-01   7.3847337e-01   9.9484167e-01   6.3336723e-01  -1.3384792e-01  -8.0434419e-01   6.3667274e-01  -6.4631122e-01  -3.3313908e-01  -6.3211503e-01   8.2531738e-01   2.6273467e-01  -4.0038634e-01  -7.6819397e-01  -6.9516465e-02  -3.6885754e-01  -7.4806582e-01   6.6333637e-01   1.7964517e-01  -3.4395445e-01  -9.9275737e-01   3.4490762e-01  -5.0231463e-01   9.2183821e-02   9.7465350e-01   8.6317083e-01   6.6453645e-01   6.7053718e-01  -3.0996467e-01  -3.3149335e-01   5.1919195e-01   9.1120781e-01   1.2548445e-01   6.7420586e-01  -8.7713459e-01  -1.2997451e-01  -4.4501372e-01   9.7681169e-01   7.9240671e-01  -5.8772335e-01   8.3061853e-01  -2.4521685e-01   9.5078858e-01  -7.7078697e-01   3.8575981e-01   3.0521706e-01  -1.0808471e-01  -9.5904438e-01  -3.6510778e-01  -4.9135659e-02   5.2961864e-01   9.8658588e-01   2.8597888e-01  -8.9498704e-01   3.9063281e-01   7.7147832e-01   2.0961866e-01  -1.5847480e-01  -3.7209717e-01   9.5497990e-01   8.4852800e-01  -7.4264101e-01  -1.7688526e-01
  -2.6831958e-01   7.6133385e-01  -6.1828273e-01   2.8180776e-01   4.1138723e-01   8.3392117e-01   5.5229876e-02   2.1861826e-01   1.9404788e-01   8.9337368e-01   4.2135980e-01   6.9848342e-01  -6.1991020e-01  -2.0191880e-02  -3.6202145e-01  -2.8942271e-01  -5.1355671e-01  -5.4655662e-01  -7.1987369e-01  -7.1998267e-01   9.3208072e-02  -6.0476738e-01   1.4406011e-01  -8.3463029e-01  -6.7495364e-02  -6.8708123e-01   1.6166042e-02   2.9561287e-01  -4.8522164e-01  -7.8836133e-01  -8.6000736e-01   5.8554195e-01  -4.6219246e-01   9.4972978e-01  -3.8508663e-01  -9.3184145e-02  -4.0359062e-01  -6.8726213e-01  -8.0614675e-01  -5.2403099e-01  -9.4323068e-02  -3.0551504e-02   3.0124564e-01  -6.8401953e-01   6.3890845e-01   1.4512379e-01   2.4134363e-01  -5.8812758e-01   1.1463218e-01   6.1409888e-01   1.7039734e-03  -1.8445398e-01   7.6953659e-01  -4.0546764e-01   8.4851716e-01  -9.2111155e-01   3.7080894e-01  -7.6530522e-01  -9.2669175e-01   4.1159123e-01  -7.4491606e-01  -4.4814107e-01  -8.6477525e-01   8.9475584e-01   2.9882223e-01   7.7260714e-02  -8.0832328e-01  -9.3844628e-01  -9.0287622e-01  -6.9942019e-01  -1.6349312e-01   6.9952900e-01   3.0888651e-02  -4.1398230e-03  -2.6170787e-01  -8.5084070e-01   4.7169179e-01  -5.2803246e-01  -7.6852343e-01   7.7794540e-02   4.1354266e-01  -8.5535318e-01  -3.8088660e-01  -3.4662612e-01  -6.6017196e-01   8.5819157e-01  -4.8934959e-01  -9.3781830e-01  -4.2130939e-01   2.3338674e-01  -5.0341951e-02  -3.8449550e-01   9.9348880e-01  -3.7393288e-01   4.3251369e-01   4.1558045e-01  -2.6547223e-01  -9.8850405e-01  -7.8491673e-01  -3.6999615e-01   8.7128963e-01  -6.9766870e-01  -5.0018172e-01   7.2161605e-01   9.9860349e-01  -2.4304901e-01   9.4162654e-01  -8.7908504e-01  -9.8608418e-01   5.9323266e-01   9.0299427e-01  -6.3392090e-01   1.0266577e-01  -3.9785863e-01  -4.7108580e-01  -7.9412864e-01   4.6244067e-02  -1.7396077e-01   3.6477337e-01  -2.2067184e-01  -9.6298185e-01  -5.4116545e-01   9.5839421e-01   1.9390365e-01   3.8851038e-01   7.0687925e-01   9.4907398e-01  -4.7991401e-01  -4.4363003e-02   2.6662519e-02   8.4070870e-01  -5.6177195e-01   1.2325919e-01   3.6693395e-01  -6.4984933e-01  -6.1627703e-01   7.5467706e-01  -8.5105115e-01   2.7092198e-01   5.4784897e-01  -5.4474376e-01   9.2329041e-01   5.8610119e-01  -3.9267171e-01  -7.7784573e-01   3.1913150e-01   4.4958214e-01  -1.6604075e-01  -7.6211640e-01  -7.6858815e-01   3.9089556e-01  -1.3743571e-02  -8.1434938e-01   9.5052158e-02   7.8246920e-01  -2.2075084e-01   8.2369273e-01   7.7930720e-01   3.2840317e-01   8.8847074e-01  -5.3439047e-01  -7.2804628e-01  -5.3329882e-01   5.1519173e-01   8.2495794e-01  -2.0998960e-01  -4.5534275e-01  -3.5343971e-01   3.7751874e-01   8.2700351e-01  -3.2214879e-01  -4.3783857e-02  -8.1590986e-01   5.1380006e-01  -2.0347523e-01   8.2632680e-01  -3.4281030e-01   5.1709323e-02   7.5955526e-01  -3.3180504e-01   1.4014911e-01  -6.4958763e-01   4.1869571e-01  -7.7354474e-01  -9.2117816e-01   9.4798658e-01   2.7586700e-01   7.1767866e-01  -7.8239657e-01   1.4158674e-01   8.6893517e-01  -1.7201161e-01  -3.9871289e-01  -7.1729899e-03   7.2853983e-01  -1.4597999e-01   7.0649599e-01  -5.6094539e-01  -9.1454138e-01  -6.3989705e-01   5.5113794e-01   9.5445840e-01   3.9877988e-02   9.5096269e-01   3.2697957e-01  -7.0568734e-01  -9.2267780e-01  -8.3161939e-01   7.6091833e-01   6.7579721e-02   4.6060756e-01   7.6471832e-01   1.8008651e-01   9.2642710e-01   9.4277390e-01  -3.3254052e-02  -8.8033712e-01   1.6708357e-01  -6.0314435e-01   2.1367336e-01  -9.1369373e-02  -4.5917743e-01  -8.3992469e-02  -1.7723573e-01   3.6586584e-02   8.0909381e-01  -9.6234427e-01  -9.7536569e-01  -9.5765054e-01   7.8647411e-02   1.7664038e-01   5.9341417e-01  -8.7852510e-02   9.8004635e-01  -1.7556939e-01   7.2005656e-01  -9.9033456e-02   7.1282823e-01   3.5686808e-02  -2.3107331e-01  -1.4794104e-01  -3.0006293e-01  -1.3193610e-01   9.6390752e-02  -4.1696394e-01   8.8497713e-02   9.6416690e-01  -4.6178264e-01   1.3071270e-01  -2.4912456e-01  -1.8020089e-01   4.7415060e-01  -3.3743156e-01  -3.7573111e-02   7.8620966e-01  -7.1248232e-01  -4.1541970e-01   8.7480347e-01  -4.5374515e-01  -5.2960254e-01  -6.2449728e-01   8.6878110e-01  -3.7643431e-01  -6.4271145e-01   8.1470968e-01  -8.9514530e-01  -8.5318620e-01  -9.9203959e-01   9.5232421e-01  -3.0209605e-01  -8.9459135e-02   3.2756721e-01   3.5313502e-01  -7.5774099e-01   2.2163495e-01  -7.2872750e-01  -8.5964105e-02  -4.6878759e-01  -9.2614077e-01   5.9298189e-01  -5.9670027e-01   9.7179695e-01  -5.6843999e-01   5.0713509e-02   8.2213831e-01   5.7218467e-01   5.5159113e-01  -6.2038005e-01  -3.6119376e-01  -8.0368034e-01   4.4721368e-01   9.3953487e-01  -1.3136268e-01  -4.6285494e-01   7.9108263e-01   7.1273378e-01   6.8782427e-01  -7.7490288e-01   6.2843436e-01   4.7488499e-01   4.6887991e-01   5.4339424e-01   5.0460685e-01  -9.5468752e-01  -5.9208398e-01   9.3808331e-01  -1.4573705e-01   5.8505536e-01   5.9279283e-01  -7.1190602e-01   2.9783635e-01  -6.6321164e-01   4.6141536e-01  -1.6449262e-01   4.3396734e-01   9.9994270e-01  -5.8166520e-01   1.4611737e-01   1.3927242e-01   1.5618132e-01   3.7241503e-01   5.5637678e-01  -2.1057516e-01  -8.7105516e-01  -3.9783854e-01  -4.2880856e-01   3.2423651e-01  -9.8758232e-02  -3.6050172e-03   4.7037572e-01  -8.1458079e-01   5.6196887e-01   2.1820366e-02  -8.4520782e-01   2.3217898e-01  -1.6123451e-01   6.7074096e-01   2.9200608e-01  -1.3804484e-01   9.8759169e-01   1.7341908e-01   9.8064373e-01  -3.2163418e-01  -2.6819164e-01  -9.2509366e-01  -3.2870342e-01   3.7142806e-01  -1.1252506e-01   7.9286855e-01   3.9160815e-01  -6.9907257e-01   2.4961549e-01  -6.9463581e-01  -6.0572308e-01   2.3306239e-01  -5.7090431e-01  -3.8654091e-01  -6.5925685e-02  -1.3129545e-01   8.4520699e-01  -5.2521563e-01  -3.2970518e-01   4.8211905e-01   7.3769784e-02  -9.0617023e-01   5.4002135e-01   9.4013343e-01   6.6505151e-02  -5.5594145e-01   2.8240075e-01   1.9771972e-01  -7.4789675e-01  -9.5950021e-01   4.6351527e-01  -3.9418667e-01  -8.4980550e-01  -3.9401799e-01   5.0115616e-01   4.2820613e-02   6.3360693e-02  -7.8798167e-01  -3.3648531e-01  -2.7283940e-01  -3.4764077e-01   5.3048937e-01  -4.4978060e-02  -6.3344915e-01   6.2592660e-01  -6.7747076e-01   5.4715900e-01   6.8683021e-01   1.7121868e-01   1.9598885e-01  -9.5480817e-01   6.3996283e-02   3.8811328e-01  -4.6959317e-01   7.6601972e-01  -3.0473143e-02  -4.3964271e-01  -9.2423988e-01  -4.7858031e-01   9.3416088e-01   1.1501563e-01   6.9889072e-01   7.8377931e-01  -3.3455227e-01  -3.5786304e-02  -5.8180929e-01   3.1806163e-02   7.4920120e-01   7.7421753e-01   5.9555562e-01   1.8201714e-01   7.2554458e-01  -9.9809671e-02  -4.1607410e-01   7.2894797e-01  -6.0933143e-01  -2.1659863e-01  -7.7215923e-01  -3.4021563e-01   9.4209329e-01  -2.9525926e-01  -6.1008066e-01   1.8979600e-01  -9.1968451e-01   5.4487871e-01   4.4645882e-01   8.0280835e-01  -2.1923180e-01  -5.2875133e-02  -8.2144443e-01   8.8896435e-04   1.9893564e-02   2.3541495e-01  -1.2429145e-01   8.7209377e-01  -9.2226982e-01  -7.5440526e-01  -2.9394769e-01  -5.1602807e-02   3.9296470e-01   6.5638750e-01  -8.3100273e-01  -2.1857752e-01   9.5001763e-01   8.0730364e-01   6.2020900e-01  -1.1167306e-01   6.3304973e-01  -5.3778616e-01   7.2845461e-01  -8.3980171e-01   7.4988553e-01   6.4217667e-01   7.2495605e-01  -3.6227362e-01   6.1673738e-01   7.4519522e-01  -6.9991107e-01   1.8477476e-01   7.4424092e-01  -5.6639884e-01  -8.6587714e-01   3.9545810e-01   1.0569659e-01  -6.8752757e-01   4.7247968e-01   7.4942844e-01  -6.4557943e-01  -7.0213475e-01   8.8349467e-02   7.5929732e-01   3.5391381e-01   3.6360533e-01   3.5288564e-01   6.5167280e-01   9.1991851e-01  -9.3337933e-01  -5.7175852e-01  -7.2616039e-01   1.5024835e-01  -7.0174045e-01  -6.8441742e-01  -5.4997556e-01   3.4874216e-01   7.5106746e-01  -7.4279863e-01   1.2066277e-01   8.1554490e-01   2.8354481e-02   1.3515688e-01  -3.6410848e-01  -3.3100444e-01   6.7838675e-01  -6.0868520e-01  -4.9341181e-02  -3.2904554e-01  -1.7918841e-01  -3.4091361e-01   4.6529901e-01   1.8234232e-01   3.5493299e-01  -7.3007941e-01  -7.4394653e-01  -9.8122895e-01  -7.0351649e-03  -8.8866710e-01  -8.8774241e-01   7.0321017e-01   3.0650049e-01  -6.5686811e-01  -4.3609706e-01   8.0140767e-01   8.1414146e-01  -1.7329424e-01   1.4139180e-01  -1.1670377e-01   6.4165301e-01   6.9886865e-01   9.2556224e-01   5.5614754e-01  -1.7328214e-01   5.3986424e-01  -6.4501719e-01  -7.2573958e-01  -8.1956873e-01  -9.8228575e-01   4.3994369e-01   1.5338931e-01   9.9214644e-01  -7.5488262e-01  -7.7068955e-01   3.6408632e-01   5.4549640e-01   3.4935802e-01  -2.5995028e-01   4.5566492e-01  -4.1215648e-02  -3.7897821e-01   5.5538313e-01  -7.9645369e-01   1.4000305e-01  -4.0174248e-01   8.4454279e-01   8.5735224e-01  -9.0745547e-01   3.4074062e-01   4.5470222e-01  -3.2572534e-01  -9.6226531e-01  -4.1523199e-01  -2.6465093e-01   9.3008784e-01  -1.2573735e-01   1.4597507e-01  -1.3488314e-01   8.5746889e-01   1.1094641e-01   7.7070519e-01  -3.7498027e-01   2.3117244e-01   7.5505336e-01  -8.2658547e-01  -2.7789783e-02   6.3381661e-01  -1.2203403e-01   1.0118767e-01   2.1678126e-01   9.5426209e-01  -4.3890844e-01   9.0525382e-01  -5.5595701e-01  -7.5079627e-01   6.8090768e-01   2.3031275e-01  -4.3395038e-01  -8.0767681e-01  -8.3024677e-01   4.8711841e-01  -7.6053636e-01   1.8142609e-02   3.6331497e-01  -2.4576299e-01  -6.4361724e-01   8.2852491e-01   1.0225489e-01  -3.0343597e-01  -5.8985273e-01  -2.9694101e-01  -5.1288532e-01  -1.9235346e-01   2.9206621e-01   3.0278664e-01  -6.0686676e-01  -3.1067542e-01  -1.8601276e-01  -5.4471962e-01   3.2161729e-01  -6.9757044e-01  -3.1992947e-01   6.4524591e-01   6.1804793e-01   5.2803360e-01   7.6314387e-01   4.3038850e-01  -9.3045196e-01   6.1601130e-02  -6.2419766e-01   8.3833456e-01  -5.9062561e-01  -1.7595824e-03  -3.7181832e-01  -1.1110124e-01   6.4064339e-01  -3.8614817e-04  -5.9574160e-01  -8.0287883e-01  -8.6910734e-02   3.1508827e-01   7.9823978e-01  -6.0473856e-01   7.9469142e-01  -6.2890079e-01  -6.3656742e-01  -9.0597700e-02  -6.4596079e-01   3.2988358e-01  -7.1998629e-01  -7.3575537e-01  -6.5675165e-01   3.7798251e-01   9.8311765e-01  -2.4457261e-01   9.9534702e-01   6.8702922e-01   6.9678033e-02  -1.9902043e-01   4.9579803e-01   6.0524718e-01  -3.6036578e-01   9.5235159e-01  -6.1369374e-01   5.9060834e-01   6.2894227e-01   6.9712729e-01   6.3735687e-01   7.2353859e-02  -2.0633856e-01  -5.7278052e-01  -6.3052094e-01  -5.6782619e-01  -6.4670694e-01  -6.2444554e-01  -2.2979206e-01   1.0624065e-01  -5.5663406e-01  -5.2502665e-01  -1.2322603e-01  -9.6674180e-01   4.3244770e-01   4.1236766e-01  -9.2526579e-02  -8.1850355e-01   4.8830875e-01  -9.2179563e-01  -5.4061467e-01  -2.4760836e-01  -1.1189480e-01  -2.1563404e-01  -3.4221998e-01   6.1744799e-01  -9.0055953e-01   6.4269527e-01   4.5748355e-01  -6.7346214e-01   3.8562233e-01   3.8262308e-02   1.5112910e-01   1.2692875e-02   9.1842823e-02   3.0689853e-01  -6.1482219e-01   4.0583775e-01   8.3871585e-01   9.8492397e-01   2.2322241e-01  -9.7233763e-01  -2.5033627e-01   5.5985507e-01  -6.7585144e-01  -7.5113314e-01   6.2937998e-01  -6.6694555e-01   2.5250736e-01   7.6901287e-02  -8.6129670e-01  -7.7487225e-01   7.6718805e-01   7.2205434e-01   5.8658135e-01   4.8284073e-01  -4.4911249e-01  -2.6737558e-01   2.4902634e-01   7.4743310e-01   4.1781003e-01  -7.3514132e-01  -5.3212485e-02   5.1556050e-01  -6.9116874e-02   8.5892854e-01  -3.4586881e-01   1.4127081e-01  -6.9003587e-01  -3.6183864e-01  -1.2048395e-01  -5.0314012e-02   6.7653573e-01  -4.5352239e-01  -2.4028490e-01  -8.0780727e-01   6.7128027e-01   1.9084279e-01   7.9463900e-01   2.9151806e-02   7.9216300e-01   2.9077693e-03   1.1436547e-01   2.6239109e-01  -1.5517560e-01  -7.8406068e-01  -9.1191361e-01  -5.9528687e-02  -5.8170044e-01  -7.9668656e-01  -5.6324223e-01   4.4765690e-01   4.8405599e-01  -9.8068656e-01  -2.4120180e-01  -4.9316568e-01   8.9018371e-01   9.8664286e-01  -5.4879610e-01  -6.7997227e-01   3.4819467e-01   2.7953058e-01   9.5704923e-01  -6.0547718e-02  -6.1125701e-01   7.2695470e-01   2.2592673e-01  -5.4408565e-01  -3.4830565e-01  -7.1957556e-01   5.3476847e-01  -6.1038716e-01  -7.9315328e-01  -1.0071193e-01   7.5262752e-01   9.9029234e-02  -5.3887091e-01   6.0828378e-01   1.9989751e-01  -8.7131340e-01   8.1644909e-01  -1.4526171e-01   3.8053244e-01  -7.7793892e-01  -1.5202628e-01   3.3420282e-01  -9.0142778e-01  -2.0208588e-01   5.1170848e-01  -1.5604666e-01   1.9788748e-02   8.3671178e-02  -5.5496372e-01   6.9123352e-01   9.8552044e-01   6.2693440e-01  -7.3376141e-01  -1.7733169e-01  -7.2595624e-01  -3.0021040e-01  -2.1152878e-01   1.4473079e-01  -8.4874459e-01   9.9898889e-01   2.4361750e-01   4.9012746e-02  -5.9421223e-01  -6.7234479e-01   8.9129864e-01  -2.6959646e-02  -4.2923167e-01   1.9330744e-01  -6.3230975e-01   8.0328845e-01   9.3336044e-01  -3.4750694e-01   8.4960138e-01   2.6789788e-01  -9.9684943e-01   9.7944968e-01   6.3513004e-01  -1.2521549e-01   3.6829029e-01  -1.0496679e-01  -9.3776312e-01  -6.9936768e-01  -6.2169283e-01  -8.5241365e-01  -7.6938305e-01   9.3134319e-01   3.1519203e-03   1.4665624e-01   7.9077856e-01  -2.3444143e-01   9.3879692e-01   2.2409414e-01  -6.2316868e-01   1.1403783e-02  -8.1442841e-01   9.7858512e-01  -3.7171521e-01  -7.0702556e-02  -8.0887258e-01   8.2280559e-01   7.6997362e-01  -1.7278895e-01  -8.8946865e-01  -6.4259872e-03   8.1939907e-02  -9.0814908e-01  -5.5304771e-01   2.2700993e-01  -4.7721291e-01  -5.2360160e-01  -4.1392759e-01   6.7330905e-01  -8.6512390e-01   5.2928670e-01   4.9924030e-01   4.2567201e-01  -1.2702009e-01  -3.8939711e-01   7.8837313e-01   3.0535697e-01   8.5465211e-01   9.9769414e-01   4.0385309e-01   8.6151783e-01  -3.2877811e-01   3.3635537e-01  -8.9740616e-01   1.0591822e-01  -8.1298346e-01   3.0756278e-01  -4.0332604e-01   7.3770878e-01  -1.2350926e-01  -8.8715784e-01  -2.1224130e-02   2.8085269e-01  -4.5826633e-01  -1.5313810e-01   1.6105667e-01   1.2501331e-01   3.5425184e-01  -3.4293594e-01  -9.6495515e-01  -5.5240179e-01  -9.3671492e-01  -8.4459816e-01  -1.0712465e-02   1.0216307e-03   8.0000561e-01  -8.1199974e-01  -9.0139646e-01   6.4354930e-01   9.3131384e-01   8.1091577e-01   8.3872777e-01   6.8092872e-01   3.3357548e-02   6.2678758e-01   1.6030707e-01   3.7246603e-01   7.5968476e-01   7.2897111e-01  -5.8543069e-01  -2.5374585e-01   9.1863752e-01  -5.0185925e-01   2.4572979e-01  -6.4826865e-01  -2.8163022e-01   8.4453006e-01   2.6937051e-01   7.7380487e-01  -2.8733683e-01  -8.1206539e-01   5.9338292e-01  -8.6510659e-01   7.9893597e-01   6.3408678e-01   3.8520521e-01   7.8043517e-01  -3.5125760e-01   3.1489958e-02  -8.5371469e-01  -6.8893303e-01   9.3012348e-01  -1.9953419e-01   5.8513382e-01  -6.2828017e-01  -3.3209370e-01   6.9228420e-01   9.7447907e-01  -8.0767126e-01  -5.3355093e-01  -5.3086425e-01   6.7291658e-01   3.1445409e-01  -4.3735288e-01  -3.1067875e-01   2.0417197e-02  -5.1526021e-01  -1.4374516e-01   6.7782417e-01   3.1429675e-01   2.7661608e-01   7.8761498e-02   1.4622908e-01   1.4600857e-01   5.5490709e-01   6.1104390e-01  -7.1908918e-01   9.9069622e-01   5.2668610e-01   8.7949534e-01   6.4259723e-01   5.9758623e-01  -1.8346879e-02   7.0865603e-01  -9.8891265e-01  -2.2858751e-01  -1.2699669e-01  -9.0522133e-01   1.1681088e-01   5.5941435e-01  -3.4910747e-01   4.4379484e-01   5.0284974e-01  -4.4434350e-01   6.5298090e-01  -3.8491089e-01  -6.4363472e-02  -4.2618020e-01  -3.7438553e-01   2.9925390e-01  -1.4392439e-01   8.9661962e-01  -7.3935932e-01   7.2217662e-02   2.2972393e-01  -3.9715277e-01  -1.0511778e-01   3.8083232e-01   7.1452493e-01   3.2720270e-01  -5.5835387e-01  -6.4538860e-01  -4.8436027e-01  -3.1582873e-01   4.6135385e-01  -9.4537542e-01  -1.1009068e-01  -6.9114176e-01   7.0912049e-02   3.8995220e-01   4.9192371e-01  -1.8876178e-01   5.8675871e-01   1.4150783e-01   8.5957066e-01  -5.3916429e-01   4.9947481e-01   3.6224242e-01   1.9034001e-02   6.7073659e-02   6.4362443e-01  -6.2341326e-01   7.7738626e-01   4.7754077e-01  -8.6171886e-01  -1.6371549e-01
  -7.1154328e-01  -4.1357729e-01   3.6729724e-01   1.0042325e-01  -2.5606587e-01   1.3216989e-01   5.2445278e-02   3.0654552e-02  -4.0657549e-01  -8.9438941e-02   5.5063313e-01   1.2082576e-01   8.4333038e-01   8.7615212e-02   7.7284557e-01  -8.1061263e-01   1.3765944e-02   2.3800676e-01   2.3605759e-01  -1.2000701e-01  -6.6061160e-01   4.2972592e-03  -3.3594495e-01  -5.8614872e-02  -8.1202278e-01   5.0111091e-01  -7.6142945e-01   3.9161758e-01  -4.4734388e-02   5.6511146e-01   7.3109757e-01   2.6055473e-01  -7.7809990e-01  -5.7030058e-01   9.6900664e-01   7.1502624e-01  -9.3934667e-02  -6.5455487e-01  -7.7397032e-01  -5.0471593e-01  -6.7046605e-01  -6.3851502e-01   8.8416244e-01  -6.8233819e-01   7.8188492e-01   7.4397667e-01  -1.9526760e-01  -2.3258697e-01  -4.2117457e-01  -3.4361814e-01   5.1990873e-01  -6.1052662e-01   4.0182326e-01   3.5335153e-01   9.7901852e-01  -8.4491893e-01   8.5682674e-01  -7.9113764e-01  -6.1774357e-01  -3.4731947e-01  -6.9677587e-01   5.1421363e-01   4.8589388e-01   4.9284627e-01  -7.2307340e-01  -2.1625566e-01  -2.5353736e-01  -8.6671777e-01   7.2678583e-01   5.7883104e-01  -5.4391576e-01  -6.5796966e-01   5.7132231e-01  -2.2573646e-01   8.5662209e-01  -5.3283510e-01  -1.1757085e-01   6.2660269e-01   3.1470202e-01  -1.5924362e-01  -2.5426058e-01  -2.2924392e-01   1.8569826e-01  -3.6938958e-01  -4.7625802e-01  -2.0984313e-01  -7.6634722e-01  -1.5143843e-01   5.4000019e-01  -2.0750933e-01   4.6112200e-01  -8.7918233e-01   4.9718690e-01   3.8248190e-01  -2.3430953e-01   4.0209272e-01   7.5163621e-01  -2.9105227e-01  -5.6466948e-01   2.2267646e-01   9.3336437e-01  -2.0338807e-01  -2.6731937e-01  -1.7306815e-01  -8.4232058e-01   6.4085164e-01  -7.3886066e-01  -9.4613249e-01   4.8647078e-01   2.2519180e-01  -2.6509977e-02   7.2406952e-01   8.4763319e-01  -2.1733898e-01  -4.2783214e-01  -6.7672776e-01   8.2999926e-01   2.8355826e-02   6.6134223e-01  -6.6748861e-01   6.3792036e-01   3.6803606e-01   3.8471171e-01   8.4895822e-01  -5.0494508e-01   1.8585135e-01  -9.0077875e-01  -7.7595059e-01   6.2386028e-03   1.0939272e-01  -5.3580570e-01   1.4136568e-01   8.7024329e-01  -6.1793882e-01   7.8860892e-01  -8.7500883e-01   8.1224973e-01   7.7809790e-01   3.5578955e-02  -2.7393066e-01  -8.3787187e-01  -9.3377243e-01   1.9020776e-01   3.1821464e-01   4.7310499e-01  -4.8406473e-01  -4.1245196e-01   7.8813987e-01  -3.7009200e-01  -9.1806601e-01   6.1498668e-01   8.7168286e-01  -7.1980825e-01   1.8662786e-01   3.8865701e-01   7.5269288e-02   7.6460700e-01  -7.4081050e-01   6.8969548e-01  -9.5633357e-01   2.5359136e-01   3.6071964e-01   4.1014501e-02  -3.7026074e-01  -2.6339939e-01   1.8546200e-01  -5.2343650e-01  -4.2262347e-01   2.0418655e-01  -1.5197565e-01  -3.9285444e-01   1.2888823e-01  -3.2658038e-01  -1.3245967e-01   1.6780901e-01  -5.3557279e-01   3.5825080e-01  -5.3322129e-01  -4.4833025e-01   3.6635966e-01   5.1850598e-01   9.2468885e-01  -3.2387941e-01  -1.1706931e-01   7.7844010e-01   8.2401309e-01   6.1004857e-01  -8.9570739e-01  -4.1474195e-01  -6.4352708e-01  -9.7317560e-01   8.1682342e-01  -4.8600134e-01   4.5065889e-01  -9.6205604e-01  -7.3808192e-01  -8.3903896e-01  -2.4103559e-01  -5.7496918e-01  -9.0372501e-01   7.6608399e-01  -6.9361051e-02   2.3331158e-01   8.7725499e-01   6.9638176e-01  -1.5201791e-01  -2.0520698e-01  -9.3455916e-01  -4.1038152e-01  -3.0761283e-01  -3.0950604e-01  -5.3857367e-01  -2.8577337e-01   8.3125120e-01  -5.3623431e-02  -2.4489067e-01   4.8247832e-01   6.8407508e-02  -6.6151256e-01   4.8754983e-01  -4.0349759e-01  -6.6876462e-01  -2.6427345e-01  -6.6177234e-01   1.1106158e-01   2.8196974e-01   6.9642982e-01  -9.9693029e-02   4.9659069e-01  -3.9653837e-01   4.4002975e-03  -9.0786319e-01   6.7615060e-01  -2.4133782e-01   2.7009840e-01   4.9324831e-01   2.0974921e-02   8.5570498e-02   5.2786937e-01   1.7840949e-01   2.2907669e-01   2.0089326e-01   1.9378236e-01  -9.1607434e-01   1.1194495e-02  -2.8933485e-01  -3.5622846e-01  -9.6137863e-01  -3.4056623e-01   4.1087422e-01  -6.9342674e-01  -3.9800459e-01  -8.2490950e-01  -5.0133534e-01  -8.1132393e-01  -7.8458112e-01   2.0558004e-01   8.6031983e-01   1.0892861e-01   4.7709209e-01   1.0442017e-01  -9.0276872e-01   6.0804004e-01  -5.7700613e-02   5.0042687e-01  -1.6916664e-01   3.7011575e-01  -5.0075921e-01   8.2906157e-01  -4.2820041e-01  -9.3849991e-01  -7.0789997e-01   3.4211111e-01   6.3049451e-01  -9.1182915e-01   5.3664586e-01   9.4400094e-01  -8.0665415e-01  -4.8255280e-01  -4.2278518e-01  -7.8497219e-01   4.0488790e-02   7.3134951e-01   8.0157831e-01   3.5438547e-01  -8.9067616e-01   6.5379534e-01   7.5638711e-01  -1.2217286e-02  -3.3354308e-01  -9.1747540e-01  -1.5781361e-01   4.0209141e-01   3.3637292e-01   5.6080609e-01  -9.5824414e-01  -8.5170027e-01   7.8215884e-02  -7.1131651e-01  -4.9860606e-01  -9.4282962e-02   1.5530922e-01   2.2738232e-01   6.1964725e-01   4.0162156e-01   3.1483725e-01   3.4205417e-01   6.7397681e-01   2.8608388e-02  -6.5779529e-01   4.5427457e-01  -8.1647793e-01  -3.7162715e-01   5.7782640e-01   6.7119536e-01   2.3756230e-01   7.6234115e-01  -7.3886096e-01  -7.0102062e-01  -2.7166836e-01  -8.7250872e-01  -8.7239434e-01   7.4111568e-01  -2.2834678e-01   8.5959222e-01   3.7659163e-01  -3.8561113e-01   3.8906523e-01  -6.5353281e-01   1.9521017e-01   4.0641671e-01   1.5592095e-01   9.2951817e-01   6.3069864e-01   2.6445577e-01  -4.2172028e-01   1.1874264e-01  -1.9242580e-01  -4.1890763e-02  -6.1350403e-01  -7.3761997e-01  -2.0617191e-01  -3.3837061e-02  -2.0466661e-01   2.8804296e-02  -3.6947810e-01  -4.0351688e-01  -6.6362518e-01   4.1786290e-01   1.1587908e-01  -4.6448201e-01  -6.0870584e-01   8.0482682e-01  -1.8449867e-03  -3.2472265e-01   4.3992768e-01   9.2938393e-01  -9.0638407e-01   9.4050259e-01  -6.9992923e-01  -2.0044761e-01  -8.1644764e-01  -4.4726910e-01   8.5766226e-01  -6.1409897e-01  -5.9769096e-01  -8.8788619e-01   4.5321382e-01   7.5246059e-01   6.4748543e-01   4.3578812e-01   4.8541449e-01  -3.6835211e-01  -6.7319536e-02   1.0468327e-01  -2.8516864e-01  -4.7778413e-01  -4.6798604e-01  -4.1479487e-01   2.9292085e-01   9.3471999e-01   4.6903953e-01   8.0301185e-01  -6.6735861e-01   9.2664141e-02   9.1589785e-01   4.3568291e-01  -5.4756378e-01   4.2463060e-01  -2.1782954e-02  -5.1689093e-01   1.5630086e-01  -3.7332518e-01  -9.2704587e-01   6.2588575e-02   2.9772132e-01  -3.4779297e-01  -2.5161255e-01  -8.5358445e-01   8.6022139e-01  -6.7218807e-01   3.6191368e-01   6.0721603e-01  -6.6313480e-01   5.2822083e-01  -9.4747799e-01   2.6300049e-01   8.4786844e-01   4.2254046e-01  -4.6135081e-01   3.9853725e-01  -8.9578392e-01  -6.6536576e-02   6.2867429e-01   8.0207654e-01  -7.5302694e-01   5.6085454e-01   5.6715696e-01  -7.5573064e-01  -7.6454843e-01   9.3614846e-01   6.5408109e-01   3.4758601e-02   3.0095691e-01  -6.2757328e-02   1.1670355e-01  -1.7915809e-01   8.5674649e-01   2.4813984e-01   5.3862868e-01  -7.2357933e-01  -6.4991718e-01   1.2324128e-01   4.3206006e-01   9.6751224e-01  -4.5464205e-02  -7.5072027e-01  -1.4656281e-01  -4.9806027e-01   9.7845155e-01   4.4931843e-01   6.0168759e-01  -5.4652679e-01  -9.1119666e-01  -7.1903792e-01  -8.6843749e-01  -9.7606994e-01   7.8230865e-01   2.9631307e-01   4.8972632e-01  -3.6278241e-03   8.4853118e-01   8.8376447e-01   9.7072624e-01   1.4977011e-01  -4.2242870e-01  -9.2205267e-01  -7.7619231e-01   9.5913439e-01   4.8542835e-01   3.4206767e-01   7.8014590e-01  -8.4608089e-01   9.4492527e-01  -6.1815717e-01  -7.4449983e-01  -7.1140664e-01   4.0265305e-01   4.2111454e-01   6.2480986e-01   9.7801704e-01   5.5265521e-01   2.7713987e-02   4.9369911e-01  -9.4114097e-01  -1.1168182e-02  -3.8316882e-01  -5.6383739e-01   5.4376185e-01  -9.9708426e-01   4.5575977e-01  -7.6290284e-01   8.7638824e-01   1.6708596e-01  -1.0655492e-01  -8.4293990e-01  -7.9036476e-02   3.0713286e-01  -8.4267615e-01  -3.7895199e-02   4.6849975e-01   4.4534437e-01   9.0026309e-01  -8.0137858e-01   2.8912729e-01   1.1870666e-01   4.9261525e-01  -8.3072967e-01  -7.9201784e-01  -9.8563090e-01  -1.0451931e-01  -6.0730456e-01   9.8408966e-01  -2.5963728e-02  -9.4170478e-01   2.3635343e-01  -2.1137057e-02  -1.5882272e-01   6.4284034e-01  -8.8434375e-01  -6.8047372e-01  -8.9892972e-01   1.5750286e-01   7.0776103e-01  -9.8063082e-01  -5.4352168e-01   4.0093731e-01  -6.6627557e-01  -2.6108257e-02  -1.8539614e-02  -3.1906682e-01  -1.5221888e-01  -8.1447764e-01  -6.7906440e-01  -3.9204074e-01  -3.3496402e-01  -2.9176064e-01   7.5331600e-01  -7.3904593e-01  -2.5805546e-01  -4.0479217e-01  -2.7994793e-01  -9.7564359e-01   7.7102317e-01   7.2113526e-01  -6.3330677e-01  -7.9963395e-01  -7.0396911e-01   2.7710101e-01  -9.8189176e-01   2.7295331e-01   4.6311524e-01  -4.2013286e-01   1.6996290e-01   9.2981916e-01   6.5970044e-01  -4.0384458e-01   2.0479159e-01  -1.5067990e-01   3.1032382e-02   9.1806427e-01   4.3134367e-01   8.8774189e-01   4.6459400e-01  -2.9266271e-01  -9.6463913e-01   8.5603484e-02   7.3686053e-01   4.0685939e-01   3.1139162e-01  -3.2363104e-01   9.2869702e-01  -8.8445362e-01   6.6614345e-01  -7.8713697e-01   5.5637502e-01  -2.5995980e-01  -4.0703419e-01   4.8262598e-01  -1.2266414e-01  -1.9304396e-02  -1.2322471e-01   1.2579873e-01   9.9478285e-01  -9.4290292e-01  -6.9141268e-01   6.3214866e-01   2.4517363e-02  -5.3024567e-01   5.4239965e-01   5.5742127e-01  -2.6512601e-01  -5.1535808e-01   4.7500458e-01  -6.1064321e-01  -1.5954081e-01  -6.5954165e-01  -5.9426914e-01   1.6712358e-01   7.3802816e-02  -5.7088004e-01   2.3439902e-01   6.4794918e-01   4.3976051e-01   6.4686256e-01   5.3573729e-01   7.0664177e-01   4.0940578e-01   5.6200543e-01   3.3098798e-01   8.4290610e-01  -5.8451617e-01  -4.6789826e-01  -9.2745805e-01   9.5506950e-02   3.5897532e-01  -3.8527174e-01  -1.5363114e-02   1.2506735e-01  -8.0263157e-01   4.6532661e-01   2.1369488e-01  -1.8685418e-01  -1.1928561e-01   5.1202394e-01  -3.5238493e-01  -3.6737888e-01   7.0369810e-02  -6.9416782e-01  -2.1537232e-01   7.1704221e-01  -2.1807277e-02  -7.5550058e-01   4.9686621e-01   8.5492408e-01  -2.5580130e-01  -5.9050710e-01   8.2406878e-01   6.4799506e-01  -1.8750827e-01  -8.8385765e-01  -8.9183623e-01  -3.6908442e-01   3.2636349e-01  -9.7315534e-01   6.0232453e-01   4.7129914e-01  -8.1646708e-01   2.6029583e-01   5.1495887e-01  -8.5662200e-01  -8.7060592e-01  -4.8675120e-01  -1.3637748e-01   9.7083245e-01   8.6569641e-01   7.7502288e-01   2.9390693e-02  -1.9235405e-01   8.1245670e-01  -5.7123602e-02   3.4236133e-01  -1.1975583e-01   5.4102340e-01  -9.3283289e-01   5.1595466e-01  -6.8648211e-02   6.8543423e-02   5.2372936e-01   6.5766506e-01   5.3706338e-02  -4.7559482e-01   1.6580149e-01   5.9597293e-01  -9.6952984e-01   5.8160694e-02   2.5334177e-01   7.6334000e-01  -3.3283855e-01   2.0502670e-01   4.1854345e-01  -6.9577354e-01   9.8405378e-01  -1.7327242e-01   6.4643441e-01  -6.7754396e-01   7.5019867e-01  -6.0321259e-01   2.0759771e-01  -1.2358403e-01   7.9158294e-01  -1.1193948e-02   1.7100981e-01  -9.4073701e-02  -8.3540692e-01   2.0194754e-01  -5.8452138e-01  -5.3191326e-01   6.9060909e-01  -1.8935573e-01  -9.8469516e-01   5.7455943e-01   1.1988278e-01   2.8198670e-02   9.0900592e-01  -6.9502204e-01   2.0265411e-02  -6.7304018e-01  -3.4040997e-01   9.8300776e-01   2.3948690e-01   4.9951834e-01   7.9426350e-01   1.9041959e-01   8.8680431e-01   2.7770103e-01   1.9516235e-01  -4.0770273e-01   6.9605935e-01   2.9721258e-01  -3.4773919e-01  -8.7331693e-01   8.6814224e-01  -7.9936653e-01  -7.5643515e-01   4.5419324e-01   5.9038932e-01  -5.4712326e-01  -7.5748768e-01  -1.5645072e-01   2.4197208e-01   3.9581331e-01   8.3141699e-01   6.3383666e-01  -9.1892047e-01  -8.3889318e-01  -6.6911493e-01   1.6792604e-01   4.1570893e-01  -8.7663204e-01  -9.0317440e-01   8.5678054e-02  -4.2995603e-01  -1.8914136e-01  -7.7660914e-02  -2.6836235e-01  -5.7122444e-01   1.2625262e-01  -2.1883413e-01   9.3155808e-02  -7.0547013e-01   8.1867409e-01   5.9569158e-01  -1.5573120e-02   6.2695915e-01   4.0466884e-01   2.4319544e-01   5.4902894e-02   3.7151184e-01  -2.2040807e-01  -3.5008457e-01   7.5200742e-01   5.0306775e-01   7.1089279e-01  -4.1797263e-01   9.9508235e-01   3.8167473e-01  -6.3765302e-02   6.6699983e-01   6.3210159e-01   7.6346837e-01  -1.6396383e-01  -2.5114170e-01  -3.0746596e-01  -4.8771903e-02  -4.3460030e-02   7.0592839e-01  -7.1651058e-01   9.7019427e-01  -1.9784263e-01   3.2994100e-01   5.4343784e-01  -4.5773489e-01   5.0725410e-01  -7.1519804e-01   9.8999901e-01   6.2037654e-01  -4.8463857e-02   2.4051190e-01   5.5287470e-02  -9.8471004e-01  -6.0799961e-01   2.3424976e-01   6.9303722e-02  -9.6286263e-01   4.7492991e-01  -9.4133802e-01   2.7148456e-01  -7.6086906e-01  -9.3505838e-01   9.5041454e-01  -6.5245482e-01  -6.9830191e-01  -9.6942020e-01   7.3263825e-02   9.8297200e-01  -4.2532856e-01  -4.3694403e-01  -3.1813585e-01   1.1168088e-01   6.6573997e-01   8.8810931e-01   2.8298212e-01   4.2231538e-01  -2.9610636e-01  -7.0361881e-01  -2.0954557e-01   5.0430884e-01  -6.7174820e-02  -8.0443862e-01  -5.9970401e-01   8.1728681e-01  -8.0188198e-02  -4.7694854e-02   7.7812956e-01   3.5136607e-01   2.9457047e-01  -1.3337713e-01  -4.3398533e-01  -5.8908706e-01   6.3779426e-01  -4.3827814e-01  -7.2343407e-01  -8.7647246e-01  -2.2624309e-01   6.3415909e-01   9.0694272e-02   6.7092539e-01  -9.2611953e-01  -8.0522610e-01   1.7398224e-01   7.4233986e-01   5.0262445e-01   3.1066806e-01   2.3537668e-01  -2.0259689e-02   4.8282973e-01   4.4693203e-01  -2.1577865e-01  -1.3194885e-01   3.6743205e-01   7.6201911e-01   3.4144777e-01  -5.2080765e-01  -6.2383027e-01  -6.8155000e-01   9.6946543e-01   8.7822971e-01   5.2087170e-01  -9.2242981e-01   8.6481685e-01  -2.2558891e-01  -6.2103390e-01   6.9113009e-01   6.9015743e-01   9.7156708e-01  -8.8359372e-01   5.7962078e-01   4.0211259e-01  -7.2756079e-01  -3.4046251e-01   1.2572450e-01   2.7789582e-02   6.2460597e-01   7.9698294e-03  -1.3965150e-01  -5.9675568e-01  -3.6725706e-01  -9.7514404e-01   7.8793642e-01   6.8579856e-01   1.5350548e-01  -3.9543139e-01   8.7965355e-01  -2.2162169e-01  -1.5247898e-01   1.7603942e-01   9.8528078e-01  -8.6504709e-01  -3.9954446e-01  -8.7708034e-01   6.2169647e-01   5.4048511e-01   8.4276475e-02  -4.3734434e-01   4.0116617e-01  -5.9816865e-01  -6.7772551e-01  -7.1012909e-01  -1.2764809e-01  -6.1055413e-01  -8.3275591e-01   1.7988387e-01   5.4366943e-01   6.4876007e-01   6.0695119e-01   3.5539835e-01  -8.0077513e-01  -4.6518348e-01  -5.0308711e-01   7.5999080e-02   3.6675639e-01   4.9766655e-01   6.8919113e-01   1.3215453e-01   5.2334107e-01  -8.7614573e-01   8.9032084e-01  -1.2305220e-01   8.3712260e-01   8.5562905e-01   5.3679360e-01   2.6334282e-01   1.3892921e-01  -5.3967354e-01  -5.8904529e-01   6.9580610e-01  -6.3579059e-01   1.7001655e-01   2.8278228e-01   9.3570688e-01   2.5431188e-01  -1.2235255e-01  -8.9976894e-01  -7.0970356e-01  -9.6290609e-01  -1.7067634e-01  -5.0343668e-02   4.2759358e-01  -2.8249331e-01   2.9011224e-01   6.6862474e-01   4.4312076e-01   7.4204608e-01   5.7800156e-01   5.5139510e-01  -8.6097789e-01  -9.7334304e-01  -3.5254296e-01   5.8894874e-01  -9.2878108e-02  -8.6065472e-01   4.1978639e-01  -5.2015056e-01  -4.8179024e-01  -7.6777583e-02   4.4228068e-01   5.7547313e-01   4.8320861e-01   4.7741307e-01  -6.6039801e-01  -3.3367180e-01   5.4247325e-01   1.5541585e-01   1.3003717e-01   6.4035659e-01   1.5185744e-01  -4.6307966e-01  -1.8222187e-01  -5.3203425e-01  -4.4618456e-03  -3.6193127e-01   2.6452390e-01  -1.5139726e-01   6.6089737e-01  -5.5443566e-01   5.8989199e-01   5.0856059e-01  -1.5331709e-01   6.2319264e-01  -4.0194966e-01  -7.1293596e-02  -1.1587606e-01   7.7520516e-01   5.5786060e-01   6.6386132e-01  -4.4591564e-01  -3.1065830e-01  -6.7955322e-01  -5.0693365e-01   9.9136952e-01   5.2389713e-01  -1.8989164e-01   7.3529654e-01   2.1038388e-01   1.5387948e-01   3.8660963e-01  -6.6219503e-01  -9.8157060e-01  -4.5055894e-01   5.6498191e-01   8.8864290e-02  -4.9284476e-01   9.7032357e-01  -8.4034826e-01  -9.8942135e-01  -8.2769574e-01  -1.2990922e-01  -4.3254964e-01   9.3380210e-01
  -4.8486400e-01  -7.2970221e-01  -5.1943217e-01  -7.2351747e-01  -7.4822206e-01  -4.8602921e-01   3.6442538e-01   1.3795107e-01  -1.2500800e-01   3.5007830e-01   3.7898808e-02   9.0060853e-01  -5.7159621e-01   9.3295951e-01   6.2594612e-01  -6.7998350e-01  -8.6674280e-01   2.6505537e-01   8.1074782e-01  -9.5850458e-01  -7.4702956e-01  -8.2615940e-01   2.0108394e-01  -1.3446612e-01  -1.7349328e-01  -6.3252623e-01   3.4191251e-01  -5.7133372e-01  -8.6256318e-01   3.3367161e-01  -3.3560340e-01   7.9659665e-01   4.3577444e-01   4.4890955e-01  -6.2244173e-01  -4.7858782e-01   3.0566505e-01  -3.7324177e-01   6.9000995e-02   9.8462976e-01   9.4624033e-01  -2.1641642e-01   6.0226427e-01   8.8681748e-01  -8.7464459e-01  -5.4525984e-01  -3.6307440e-02  -6.3778681e-01  -3.3561789e-01  -4.9539338e-01   4.6133898e-01   1.0995054e-01   5.2488345e-01   2.6912924e-01  -2.6871433e-01  -3.0910633e-01   1.1014653e-01   2.8343870e-01   1.5218616e-01  -4.1462900e-01   3.5324943e-01  -4.3730396e-01   9.7073986e-01  -6.1481786e-01  -9.1139801e-01   8.6552142e-01   6.7429665e-02   1.9884319e-01   8.2259337e-01   2.5322999e-01   6.9645878e-01   9.3983931e-01  -6.0147388e-02   2.7184221e-01   6.0975844e-01   4.5226931e-02  -8.1863235e-01   9.7230198e-01   3.0997099e-01   5.1532763e-01   5.7760050e-01  -1.8369112e-01  -7.7230477e-01  -6.1922013e-01  -2.6650741e-01   8.1068670e-01   7.6887804e-01   5.3153061e-01   9.4340878e-01   8.0721542e-01   9.6592629e-01   8.2248103e-01  -7.9766763e-01  -2.1679295e-02   1.9638480e-01   7.2629317e-01   7.9162976e-01   9.9580511e-01  -6.4179849e-01   3.9736870e-01   1.0040739e-01  -1.1687746e-01   8.7950553e-01   8.7209148e-01  -8.0787080e-01  -3.9768698e-01  -8.9908617e-01  -4.9749912e-01   3.1302117e-01  -9.1720254e-01   2.2762628e-01   5.0453078e-01  -9.4516077e-01  -9.0266029e-01   4.0955825e-01  -1.7856621e-02  -7.6465929e-01   1.7002459e-01   7.0730715e-01  -2.3653557e-02  -1.2228707e-01  -3.6296355e-01  -9.4364016e-01  -9.0592675e-01  -9.6069000e-01  -9.3941215e-01  -5.3497984e-01   9.2541769e-01  -4.2706498e-01  -6.0767754e-01   6.1374523e-01  -1.9605496e-01   2.0133066e-01  -2.2341284e-01   6.7583416e-01  -4.8042687e-01  -6.7612672e-01  -5.8902956e-01  -5.9361041e-01  -4.9691883e-01  -8.6768792e-03  -1.6472240e-01   3.7614768e-01   7.4638713e-01  -3.0576212e-01   9.6209207e-01   7.0097885e-01  -2.3637172e-02  -3.1485506e-01  -9.5745834e-01   3.2571404e-01  -5.4622897e-01  -4.7011224e-01   8.4212392e-02  -3.3715650e-01   8.0620024e-01   4.0137367e-01   7.9811283e-01   3.5505317e-01   2.3261077e-01  -8.5068170e-01  -3.4185360e-01   6.0082579e-01   3.3347581e-01   4.3926277e-01   3.0743749e-01  -6.4217737e-01   5.8710839e-01   2.0015929e-01   2.0330316e-01  -4.3122987e-01   7.6778172e-01   3.6133254e-01  -6.5048362e-01   7.9702018e-01  -2.1809191e-01   7.7047854e-01   3.7574866e-01  -2.4324613e-01  -8.1469165e-01  -5.5361882e-01   1.7809338e-01   8.8744221e-01   5.6499891e-01   4.9167153e-01   1.9331134e-01   7.0284979e-01   8.1818425e-01  -4.9579610e-01  -4.1982752e-01  -9.0367286e-01  -9.3075970e-01   4.5994864e-01  -8.8830679e-02  -9.0043248e-01   7.2490333e-01  -9.5417365e-01  -1.7403955e-01   4.9727389e-01   5.0283587e-01  -9.0897846e-01  -2.8956326e-02   7.2639273e-01   9.4595424e-02   3.6321745e-01   8.8942082e-01  -4.3862373e-01   1.8204103e-01   6.0357740e-01   4.5757296e-01  -2.4011927e-01  -3.0361121e-01   5.9258951e-01  -5.4296350e-01  -2.8503470e-01   7.9767571e-01   5.1486950e-02   2.0809723e-01   7.7531978e-01   6.2053570e-01   1.6199201e-01   5.3261549e-01  -3.9752696e-01   5.9072639e-01  -1.5947181e-01   2.0094120e-01   9.8052706e-01   5.7429170e-01   3.8787478e-01  -2.4059756e-01   2.5473680e-01  -8.3733991e-01   2.1449757e-01  -6.7180037e-01   4.3390103e-01   9.2872379e-02   1.6994275e-01   4.2181093e-01   9.4688750e-02   9.1205217e-02   5.5841695e-01   1.3108931e-01  -3.5390000e-02  -1.7897533e-02  -9.9833306e-01   2.4970722e-01  -5.2053348e-01  -3.1350946e-02  -6.7774038e-01  -9.8692645e-01  -8.6454531e-01   9.3307859e-01  -3.8238523e-01  -9.9140458e-01  -8.3089484e-01  -4.1124905e-01  -6.2106531e-01   9.0249264e-01  -6.7219388e-03   4.7318604e-01   5.4018053e-01   9.9150211e-01   9.4990437e-01   8.1115631e-01  -9.7677724e-01  -9.7811281e-01  -1.5692804e-01  -8.1668164e-02   9.7939036e-01  -1.1505591e-01  -1.0251003e-01  -9.0288911e-02  -4.8247096e-01  -4.8128172e-01   5.7419937e-01  -6.7004341e-01  -1.3027119e-01  -5.9819412e-01   3.9164062e-01  -2.5507010e-01   9.9281568e-02  -7.4677211e-01  -7.0074156e-01   8.7460756e-01   2.7165882e-01   3.0950344e-01   9.6038969e-01  -1.1827030e-01   2.4920416e-01   5.1446502e-01   4.3781193e-01  -4.8757617e-01  -2.5310732e-01  -2.9558399e-01   2.5977931e-01  -2.5676443e-01   8.7715470e-01   6.7372120e-02   4.3403802e-01   5.7549431e-01   5.0891170e-01   9.6501319e-01   8.0771264e-01  -4.8320916e-01   6.4586154e-01  -7.3063212e-01   8.3413706e-02   6.4666896e-01  -4.2424316e-01  -1.6095037e-02  -9.9289708e-01   8.6530210e-01   2.8739600e-01  -7.8696656e-01  -1.5136991e-01  -1.2527436e-01  -4.8475023e-01  -2.5739641e-01  -8.3622728e-01   4.2391270e-01   1.6008298e-01  -1.5402813e-01  -4.8768554e-01   1.6575750e-01  -2.0978934e-02   5.9117000e-01   5.4984891e-01  -8.3967663e-01   6.9806301e-01   4.8959510e-01   8.1783348e-01  -7.7046435e-01   5.9583762e-01   8.0334334e-01   7.7343945e-01   5.8909223e-01   2.1037644e-01  -6.8129974e-01  -5.1279728e-01   6.6735733e-01  -3.1889827e-01  -3.1902739e-01   5.0628375e-01  -6.7884933e-01  -8.7259278e-01  -8.3433487e-01   2.4990355e-01  -6.1285606e-01  -2.5146154e-01  -4.8594037e-01  -1.2366051e-01  -2.0459923e-01  -1.3503418e-02   3.0726785e-01  -9.0804934e-01   4.1610030e-01   1.8583751e-01  -3.7861759e-01  -3.3680036e-01  -3.2975092e-01   7.8374837e-01  -3.6261519e-01   1.0041097e-01   1.5637410e-01  -4.2227609e-01   5.8394681e-01  -4.3462964e-01   3.2581771e-01   3.3278291e-02   8.9435960e-01  -1.6671734e-01   5.2764379e-01  -5.8082687e-01  -9.4812857e-01  -7.6550267e-01  -7.4507086e-01  -2.5336056e-01   1.5968153e-01  -9.3569495e-01  -9.0541757e-01   7.6688086e-01  -2.2138607e-01   6.7407702e-01   3.1102503e-01   7.7162777e-01   4.0005686e-01  -2.5134751e-01  -2.2929677e-01   1.6503443e-01  -8.0234236e-01  -3.0378318e-01   3.7356190e-01   9.4589084e-01  -6.4939352e-01  -5.0909908e-01   6.9167447e-01  -6.9223550e-01   1.8008389e-01   9.0352610e-01  -9.0579386e-01   6.5203390e-01  -6.5633108e-01  -2.3101925e-01   4.2937687e-01  -9.0047470e-03  -5.1059362e-01  -9.7215389e-01  -1.9522892e-01  -7.5998045e-01   7.0909842e-01   2.5745041e-02  -2.7598748e-01   1.0850884e-01   9.8197653e-01   2.6146252e-01   5.0322314e-01  -7.9275414e-01   1.7685824e-02  -5.5009550e-01  -3.3743202e-01   2.0665322e-01  -7.7966207e-01  -5.7314297e-01   6.5214102e-01  -8.7203729e-01   8.2092506e-01  -3.1647363e-01   3.1468412e-01   2.0373397e-01   6.2340689e-01  -7.0909917e-01  -6.7395427e-01   7.5806782e-01  -5.5690015e-01   6.5145331e-01  -7.9121408e-01   9.8186229e-01  -5.4615907e-01  -6.9084164e-01   6.0175047e-01  -9.5585669e-01  -6.9657094e-01  -8.7590453e-01  -8.8229231e-01  -1.0094339e-02   1.7511936e-01  -5.4938865e-01   7.6148646e-01   3.6628977e-01   3.1675933e-01   3.2972685e-01   8.2474118e-01  -6.3807690e-01  -5.7034278e-01   8.5215100e-01   3.9047630e-01   8.9272144e-01   1.2289205e-01   2.8187653e-01  -6.6421989e-01   6.6934723e-01  -2.0873714e-02   5.3806722e-01   6.7483212e-01   1.6311995e-01  -7.0581516e-01   6.9060716e-01  -8.4355115e-01  -5.9191252e-01  -1.9415297e-01  -2.5398736e-01  -6.5096162e-01   3.6844013e-01  -7.6160750e-01  -6.0839635e-01   5.5789397e-01   7.8089899e-01   8.1192171e-01  -7.6090791e-01  -7.3804183e-01   1.5396817e-01  -9.9184248e-01  -9.1694869e-01   9.9242326e-01   4.0809596e-01  -1.8263783e-01   9.3468994e-01   8.1123922e-01   4.9405100e-01  -8.8823703e-01  -1.5352006e-01  -1.8080702e-01  -5.8014577e-01   3.5561173e-01  -3.2955230e-01   1.6247543e-03  -3.1265142e-01   3.8751312e-01  -8.6399153e-01   5.3091123e-01  -9.6903311e-01   8.2965805e-01  -6.0631714e-02  -1.0697972e-01  -5.6104490e-01   5.2838749e-01  -1.7639580e-01  -5.3585522e-01  -3.2771601e-01  -4.0587322e-01  -3.4776202e-01   3.1130438e-01  -3.7077729e-01  -3.1746824e-01   2.6851653e-01   7.4910235e-01  -9.6256469e-01   9.9090350e-01   6.4608799e-01   9.9424450e-01  -6.7959898e-01   3.7426557e-01   1.1589383e-01  -5.9656964e-01   7.5123958e-01  -3.6153715e-01   1.5767698e-01   2.7347802e-01   6.8955909e-01   9.4662167e-01  -9.9838416e-01  -1.2141759e-01  -9.7134833e-01   3.6964993e-01  -1.2487184e-01  -9.6454347e-01  -6.9443084e-01  -7.5929449e-01  -5.1899950e-01   2.0614811e-01   8.0224050e-01   5.7332555e-01   9.6682787e-01  -8.0234976e-01  -9.0052735e-01  -6.4835443e-01   8.5579665e-01  -7.5558004e-01  -2.3807796e-01  -4.2547197e-01  -3.9292923e-03   9.1535268e-01   3.4708686e-01   5.8204351e-01  -8.0877742e-01   1.9908955e-01  -5.9354738e-01  -5.1648772e-01  -2.4551932e-01  -6.6566027e-01   9.7836699e-01   6.4225523e-01   6.4333353e-01  -5.3286712e-01   7.4641655e-01  -3.5026385e-01  -9.6286046e-01   9.0073797e-01   6.1615304e-01   3.5882973e-01  -9.9191480e-01  -2.2952427e-02   5.7271298e-01  -6.0869432e-01  -9.5940954e-01  -6.3669078e-01   4.1472375e-01  -1.0470952e-01  -8.8893775e-01   2.0982806e-01  -3.3355831e-02   2.8861531e-01  -5.7034531e-01   7.4663903e-01  -4.6663441e-01  -6.0018225e-01   1.2055391e-01  -2.2096453e-01   9.8434450e-01  -8.3222685e-02   6.5860932e-01   7.7549321e-02  -9.3904581e-01   9.8203948e-01  -6.9688693e-01   4.2884072e-03  -3.9271724e-01  -5.8006905e-01  -5.0283323e-01   5.7092585e-01   9.1942112e-01   4.6612262e-01  -7.5478296e-01   6.6232019e-01  -8.3126828e-01   8.6486932e-01   6.1118952e-01  -7.6772665e-01  -9.3773699e-01   6.6214921e-01   2.1733931e-01   6.2160389e-01  -1.2373366e-01  -9.6534328e-01   3.1730179e-01   6.8648027e-01  -1.5879955e-01  -6.6473194e-01  -1.6811971e-01   3.7684070e-01  -5.0696992e-01   1.7962605e-02  -2.8019838e-01  -3.9706344e-01  -7.8309469e-01  -9.2672767e-03  -3.6316089e-01  -4.5592222e-01  -1.1516719e-01  -9.0888103e-01  -5.7495936e-01   9.6571511e-01   8.2512723e-01  -2.3109931e-01  -2.0673316e-01  -1.8891186e-01   6.7896790e-01   6.3636307e-01   3.4571887e-01   2.1838849e-01  -8.8713105e-01  -2.7106259e-02  -2.9598740e-01   6.4036279e-01   8.5293123e-01   2.7604860e-01   7.2306035e-01   6.5285081e-01  -3.0816790e-02   3.5939573e-01  -1.5549112e-01   5.5349649e-01  -1.0038168e-01  -6.4844331e-01   6.3641621e-01   8.2947067e-01  -5.4477053e-01  -9.1477981e-01   5.3434948e-02   8.7442860e-01  -6.2718235e-01   1.0599011e-01  -8.5522835e-01  -5.5630621e-01  -6.9298091e-01   9.5560424e-01   7.2875681e-01  -5.4132933e-01   9.0826185e-01   2.5701590e-01   4.8074462e-01   4.5883104e-01  -3.3497650e-01   4.1346252e-01  -1.7267439e-01  -6.6892800e-01   5.8946757e-01   7.3678324e-01   3.2968887e-01   2.7984549e-01   9.3061274e-01  -9.0995900e-01  -2.1987083e-01  -9.9527321e-01  -4.5101956e-02   9.9671346e-01  -4.5754356e-01   9.2670074e-01   5.1656446e-01  -3.8637113e-01  -3.1287878e-01  -5.1983640e-02   6.6789832e-01  -1.4511576e-01  -1.3550305e-01  -1.9571079e-01  -4.8342757e-01  -1.2258998e-01  -5.5089016e-01  -4.0222079e-01  -6.8313768e-01   5.8009913e-01   8.1645490e-01   8.9072798e-01  -8.4713849e-02  -1.7359072e-01   1.8786328e-01  -6.9641736e-02   8.6041355e-02   8.1593880e-01  -4.2722582e-02   4.2312762e-01  -1.5064373e-01  -4.5649813e-01  -8.9479805e-01  -2.1521890e-01   1.7644351e-01   5.6073701e-01   2.7463153e-01   8.8163939e-01  -7.9804237e-01  -5.0103942e-01  -8.4486285e-01  -5.2695740e-02  -8.6109214e-01  -6.2558701e-01  -8.7079910e-01   5.0028065e-01   3.0068889e-01  -6.1993573e-01   2.9559548e-01  -1.0589103e-01   7.1539974e-01  -7.7556030e-01   4.6143013e-01   1.0449971e-02  -2.0527354e-01   4.4343062e-02   3.5301685e-02  -5.6933830e-01   5.9273979e-02  -3.3285160e-01   2.7643908e-01   3.2008657e-01  -1.7458419e-01  -4.8148586e-01   6.3135963e-01  -5.7492714e-01   1.8980625e-01  -1.6065517e-01  -6.1533253e-01   8.4487242e-01   2.4050476e-01  -6.9305258e-01  -8.3539168e-01  -6.5534398e-01   2.2710011e-02   1.2182721e-01   8.1125898e-01   6.4892398e-01  -2.8000839e-01   8.8254465e-01   3.1536025e-01  -8.5168659e-01   3.3057271e-01   2.7105200e-01  -1.0487113e-01  -4.6926764e-01   7.8200820e-01  -3.8014784e-01   7.2729446e-01   5.1191681e-02  -5.0930833e-01  -4.2011696e-01   7.6808678e-01   4.2375501e-01   4.1044287e-01   5.1494382e-01   7.8417671e-01   8.9446168e-01  -4.1352951e-01  -1.3143027e-01  -6.1564976e-03   4.6975215e-01  -6.2552462e-01   3.2976899e-01   8.5699118e-01  -6.3002218e-01  -8.0167890e-01   9.7873476e-01   1.6832541e-01  -5.5025424e-01  -8.0236616e-01   4.4113839e-01   6.8320685e-01  -9.7080409e-01   8.5897656e-02   8.7923870e-01  -2.7465245e-01   3.2725256e-01   8.2495741e-01   5.7672822e-01   2.6125556e-02   3.7956815e-01  -2.4190228e-01  -9.7529868e-01   1.3351251e-01  -8.3020757e-01   7.2594250e-02   2.6390275e-03  -7.2547376e-01  -2.3836505e-01  -8.3247508e-01  -4.9276519e-02  -7.8417695e-01  -7.6378063e-01   2.9235267e-01   9.0136270e-01  -6.6474565e-01  -6.1416825e-01  -3.2033719e-02  -7.3856604e-01  -6.7868436e-01   1.0692297e-01   4.3548693e-01   5.5225288e-01  -7.1035376e-01   7.9544236e-01   1.4074270e-01   3.0346146e-01  -3.2270871e-01  -6.2531754e-02  -1.9590104e-01  -7.0730182e-01   5.6189242e-01  -2.6878731e-01  -1.6312644e-01   7.7470129e-01  -1.4460832e-01  -8.9955117e-01  -8.8194859e-01  -9.8198111e-01   8.5729009e-01  -3.8533962e-01   2.4117510e-01  -7.8638229e-02   1.9116694e-01   9.9380919e-02   1.4820071e-01   3.7040305e-01  -1.2571445e-01   1.6250404e-01   7.5723008e-01  -2.8503282e-01  -3.2852668e-01  -1.5498415e-03   6.1192632e-01  -4.9053434e-01   8.0901006e-01   3.2263049e-01  -6.2107260e-01   6.4486519e-01  -7.3291224e-01   2.1800761e-01   3.1645399e-01   3.7174795e-01  -8.1810251e-01  -1.7129218e-01   2.3772923e-01   6.5926953e-01   9.5611572e-01   8.4116261e-01  -5.4223480e-01  -6.4760137e-01  -6.4020875e-01  -5.3012594e-01   2.9908864e-01  -8.6254296e-01  -5.8683586e-01  -1.7016598e-01   4.1182954e-01  -1.2378585e-01   1.2923833e-01   2.0001028e-02   9.0941660e-01  -4.4803231e-01  -4.0023142e-01  -2.4021080e-02  -9.2203842e-01   3.3070838e-01  -7.3970785e-01   1.2169204e-01   5.1107008e-01   6.8028430e-01   5.1958444e-01  -8.2317512e-01  -8.5676326e-01  -6.6298538e-02   9.8968980e-01   2.5006721e-01   5.3860072e-01  -9.5609358e-01  -3.3924190e-01  -6.5121709e-01  -1.3433217e-01   2.9776383e-01   3.4825031e-01  -3.1951140e-01   4.1726469e-01   8.8743746e-01  -1.1048441e-01  -9.1140607e-01  -5.4850963e-01   5.7863420e-01  -1.7196796e-01   4.6499754e-01   5.4412686e-01   4.5894789e-01   3.2944462e-01   4.4515434e-01   3.1235169e-01   2.4443746e-01  -4.7975699e-01  -7.2387579e-01  -7.0522951e-01   8.3251105e-01   2.7048246e-01   6.9748548e-01   3.1951182e-01  -7.3369655e-01   8.4046205e-02   6.2106051e-01   4.3389310e-01   5.5185158e-01   4.9002936e-03  -2.7846559e-01  -8.6760563e-01   6.0778468e-01  -6.7692514e-01  -6.5092466e-01   1.5073205e-01   3.2392599e-01  -6.4886195e-01   3.3850980e-01  -4.2165938e-01   2.1876650e-02   6.9192521e-01   4.5568016e-01   1.1340427e-01   3.1616023e-01   3.0692831e-01  -2.3846375e-01   3.5250116e-01  -4.4853423e-01   2.2770821e-01  -3.5172170e-01   1.9785193e-01   1.0414398e-01  -6.7232101e-01  -7.5302344e-01  -3.6528360e-01  -7.2598855e-01  -4.6509014e-01  -8.6555010e-01  -4.4911681e-01  -2.8558882e-01  -1.9323908e-01   5.3858447e-01  -5.6321288e-01   2.3063286e-01   3.7932096e-02  -1.3613598e-01  -5.0601268e-01   4.1154341e-01   8.9399030e-01  -4.0455872e-01  -6.3699835e-01   8.1688098e-01  -4.5700724e-02   3.2315695e-01   4.3437403e-01  -9.3577026e-01   9.8139704e-01   5.3082463e-01   8.8825047e-01  -7.5622363e-01   5.1919010e-01   5.9346335e-01   9.5459044e-02  -6.7471593e-01  -3.4086539e-01   7.0914767e-01   6.5694001e-01  -2.7983640e-01  -6.8936924e-01  -9.4738655e-01   8.8019589e-02   5.6907068e-01   7.4025385e-01  -5.6164526e-01
   2.7683340e-01   1.5834646e-01  -3.5469845e-01  -3.2893716e-01  -4.1564061e-01  -2.4109259e-02  -7.6431997e-01   5.4435136e-01  -5.8703982e-01  -4.7130107e-02  -6.5417235e-01  -9.4033047e-01  -6.8640421e-01   1.1187700e-01  -4.7723925e-01  -9.0083281e-01  -7.5259518e-01  -1.7945387e-01   9.5241901e-01  -1.6441197e-01  -7.4891561e-01   1.0265588e-02  -3.4063040e-01  -4.4645130e-01  -9.3645382e-01   5.7657676e-01   5.6340789e-01  -8.2785627e-01  -9.5115881e-01   6.3347926e-01   4.1535045e-01  -2.6250306e-01  -4.7785545e-01   3.3548810e-01   7.6261114e-01   7.2275949e-01   9.8445234e-01  -9.3901171e-01  -3.7046499e-01   2.3946749e-02  -7.8336780e-01  -5.9518036e-01  -8.9144985e-01  -1.4133678e-01  -2.2361937e-01  -9.6183749e-01   7.0282670e-01  -6.2395599e-02   6.6659794e-01  -7.3997697e-01  -8.2888197e-01  -7.6928827e-01  -5.9425567e-01  -8.8753413e-01  -7.8022877e-01  -5.7124398e-01  -6.4295194e-01  -9.3030941e-01   9.2383933e-02  -7.8962828e-01  -5.1976640e-01  -6.0919221e-01   2.8852654e-02   5.5668935e-01   8.2372814e-02  -1.7022476e-01  -5.3298404e-01   4.9279785e-01  -1.0838823e-01   1.5952108e-01   8.2373012e-01  -8.0867412e-01   3.9615634e-01  -6.3601780e-01   1.0175591e-01   9.7017459e-01  -3.0410223e-01   2.3705991e-01  -8.7935145e-01   1.8529253e-01   8.8561748e-01  -2.0123052e-02  -3.1259776e-01   7.2739522e-01   1.6802576e-01   1.7714695e-01   4.9637821e-01   5.6276909e-01   4.2844018e-02  -2.8070144e-01  -8.6537690e-01  -4.0313722e-01   9.7326229e-01   9.8914020e-01  -3.5066106e-01   2.6145421e-01   1.3695280e-01  -6.7124200e-01   2.8576993e-01   3.4499648e-01  -3.7862882e-01  -3.0560801e-01  -2.0816381e-01   2.5546528e-01  -6.5358818e-01   6.6003148e-01  -9.5849373e-01   6.0854908e-01  -6.5220589e-03  -5.7402836e-01  -6.9415016e-01  -1.7335201e-03  -1.5324644e-01   6.4256780e-01   5.3711967e-01  -7.7687851e-01  -6.5385365e-01  -7.4672954e-01   1.2999759e-03   9.9582122e-02  -7.2186383e-01  -4.8322615e-01   7.3668777e-01  -8.2978289e-01  -5.0959820e-01   2.5473676e-01   3.3731395e-01  -4.5684748e-03  -5.3065686e-01   3.0022353e-01  -4.3742524e-01   4.4058521e-01  -9.1057161e-01   6.5271393e-01   4.6808589e-01  -5.7873738e-01   8.6409582e-01   2.1985066e-01   5.5076988e-01  -9.4371097e-01   5.2952980e-01  -3.6275176e-01   5.3981316e-01  -7.2302864e-01   4.1564879e-01   3.5318995e-02  -4.3904382e-01  -5.6495300e-02   3.3762718e-01   3.6701114e-01   5.7399577e-01  -8.6773619e-01   2.2087985e-01  -5.2434066e-01  -2.7268856e-01   3.1443545e-01   4.5550172e-01   1.2971255e-01  -1.1448311e-01   5.9776735e-01   1.7284909e-01  -1.4616601e-01  -8.6394111e-01  -9.1843260e-01  -4.2003632e-01  -7.0181216e-01   1.0479430e-01  -1.9781075e-01  -8.8639394e-01  -1.5072519e-01  -4.2651210e-01   8.7572557e-01   9.3851219e-01  -6.5879857e-02  -8.3282297e-01  -8.4593212e-01  -1.7313695e-01   8.4141679e-01   9.7277475e-01  -7.3464832e-01   8.6231948e-01  -4.5987031e-01  -4.7411116e-01  -7.4428660e-01  -1.8565948e-01   9.8668559e-01   2.3306842e-01   9.8350836e-01   6.5684429e-01   1.6154291e-01   5.3667914e-01   7.8963800e-01  -5.7001148e-01   3.2217048e-01  -2.3127673e-02  -5.8092864e-01  -4.3096165e-01  -7.6521922e-01   4.0177957e-01  -8.6039411e-01  -6.3279898e-01   5.7059877e-01   2.4732793e-01   8.0454495e-01  -6.5116396e-02  -8.6639987e-01   1.1080307e-01  -6.0085741e-01  -3.4889786e-01  -2.0707481e-01  -2.3727894e-01   3.7937487e-01   1.3286985e-01  -7.9909049e-01  -9.3931393e-01   1.5888241e-01   1.0833732e-01   5.4555160e-01  -6.4868727e-01  -6.7678455e-01  -7.7126001e-01   9.3157332e-01  -7.7933878e-01  -9.5578095e-01  -9.2114035e-01   9.7418254e-02  -8.2774545e-01   2.6451001e-01  -6.2888110e-01   1.3628280e-01   1.1208860e-01   2.8858996e-01  -1.9965163e-01  -9.1740590e-01  -9.6085842e-01  -4.7843962e-01   1.2134992e-01  -1.9968126e-01   6.9950242e-01  -5.6886457e-02   6.3287541e-01   3.6823821e-01   1.4229147e-01   9.1603189e-01  -7.1139403e-01  -1.3185761e-01  -7.1188304e-01  -5.7151747e-01  -1.3556320e-01   7.4734558e-02   2.4830705e-01   6.8743457e-02  -6.1745669e-01   2.3997275e-01  -2.1758809e-01   3.5784683e-01   3.5597366e-01   9.0821466e-01   4.1245387e-02  -9.6783264e-02  -1.3010728e-01  -4.4859777e-01   2.4779119e-01  -9.8735844e-01  -5.2020361e-01   4.4230619e-01   1.4481469e-02   4.3091049e-01   2.0189300e-02   4.0859372e-02  -2.6391196e-01  -1.1824523e-01   8.5283178e-01   2.6097944e-01   6.9259676e-01   6.2006294e-01   8.8150681e-01   4.2020673e-01  -9.3698534e-01  -9.7184878e-01  -4.0108910e-02   6.1071246e-01  -8.9305517e-01  -1.1713970e-01  -2.3494364e-01  -6.8279290e-01  -8.4460056e-01  -5.3567054e-01   2.0422665e-01  -8.6003265e-01   4.5402535e-01   9.4566721e-01   4.8190981e-01  -8.0286297e-01   2.7071598e-01  -1.2923059e-01   7.3725877e-01   7.2659395e-01  -2.7980349e-03  -9.3880589e-01  -2.0625713e-01   5.8159367e-01  -1.1228350e-01  -4.3102589e-01   2.5486492e-01  -7.2479206e-01  -9.3347338e-01   2.7824875e-01  -6.2671814e-01   9.2385217e-01  -5.1731384e-01   1.6721978e-01   9.5943111e-01  -1.6885806e-02   4.6443075e-01   8.9311363e-01   3.4515058e-01   1.3257531e-03   8.6263427e-01  -1.9437432e-01   3.9890778e-01   1.0114788e-01   9.2057360e-01   3.2288815e-01  -8.0163130e-01   2.2804257e-01  -1.2058715e-01   7.1063795e-01  -7.8245825e-01  -5.5925312e-01   8.6242171e-01  -4.3828377e-01   6.2407335e-01   3.5960650e-01  -1.4775142e-01   8.8795785e-03  -3.4631080e-01  -2.3627679e-01  -1.3057033e-01   3.0936814e-01   3.7793592e-01   1.3104416e-01   8.7690261e-01  -1.3122125e-01   1.3672057e-02   6.4091770e-01  -1.8638091e-01   7.3126757e-01   8.9438654e-01   7.7297334e-02  -4.9226931e-01  -2.6593249e-01   3.0308821e-01  -3.1448334e-01   7.2283677e-01   7.4191140e-01  -1.2069457e-01  -2.8957927e-01  -5.5030082e-01   6.5640146e-01  -6.6362421e-01   4.6051951e-01   4.3527792e-01   5.8909232e-01   5.7521122e-02   5.1710463e-01   1.5399599e-01   9.2170953e-01   2.7326195e-01   9.5769300e-01   6.5726268e-01  -2.4087438e-01  -4.9857337e-01   6.9096399e-01   4.4576960e-01  -1.4954678e-01  -4.0578506e-01   3.3902331e-01   5.5403719e-01   3.7203818e-02  -4.3623708e-01   8.6460269e-02  -9.8165514e-01   6.5209019e-02   4.9511132e-02   6.2452893e-01  -5.7026664e-01   2.4646882e-01   2.5458087e-01  -4.2008843e-01  -2.9983847e-01   8.2160339e-01  -8.6381251e-01   3.1141081e-01  -8.4345564e-01   8.9704451e-01  -3.8162386e-01   4.5706273e-01   8.4510049e-01   9.2486003e-01  -2.3888262e-01  -8.6849561e-01  -4.2313115e-01  -5.0159889e-01   1.0388798e-01   9.0787177e-01  -1.5567525e-01   8.2603406e-01   4.3003211e-01   2.6324187e-01   3.2342534e-02   5.7762097e-01   2.5268599e-01  -9.4170862e-02   9.2087807e-01   7.7793736e-01   7.9900690e-01   6.3372016e-01   9.7798326e-01   3.8901402e-01  -8.9064575e-01  -6.7617853e-01  -2.5545376e-01  -5.3520997e-01   8.3001011e-01   9.9757626e-01  -7.1163718e-01   6.0091340e-01   1.9477683e-01   2.8318763e-01  -1.8482361e-01  -6.1932817e-01   9.3520730e-01   8.9066309e-01  -5.2701762e-01  -5.5572073e-01   7.7935718e-01   4.2999957e-01  -6.2340052e-02   8.6167419e-01  -7.4612722e-01   1.4122060e-01   7.3667493e-01  -1.9530908e-01   5.0268942e-02   7.2836015e-01   2.9089396e-01  -3.2815877e-01   7.3878065e-01   2.1637477e-01   6.8804454e-01  -4.5543949e-01  -2.1270798e-01   4.9416737e-01  -9.9470252e-01   8.3244975e-01   4.5310983e-01  -1.2651192e-01  -6.6613450e-01  -5.7979382e-01   9.8877381e-01   6.8587897e-01  -9.4801860e-01   7.1390821e-01   5.0275434e-01   5.5959262e-01  -7.6317240e-01  -8.5546368e-01   1.0818021e-01  -7.3891317e-02   4.6935365e-01  -1.2082351e-01   1.2899665e-01   9.0616573e-02   7.9635410e-01  -1.9945309e-01  -4.7613806e-01  -7.1711396e-01  -4.2335473e-01  -1.5673406e-01  -9.4369627e-01  -1.3295132e-01  -8.6541704e-01   8.6458000e-01  -8.2589593e-01   9.1573411e-03   9.7799792e-01  -8.1371119e-01   7.5670982e-01   6.8938405e-01  -5.3451921e-01   7.3526859e-01   7.9928103e-01   6.7291596e-01   9.4273758e-01   4.4570121e-01  -4.7456409e-01   4.5112637e-01  -4.5475645e-02  -2.6366777e-01   8.3832132e-01   2.0094650e-01   8.9466628e-01   4.8114164e-01   6.4006776e-01  -9.0218388e-01  -3.1181463e-01   5.6092978e-01   2.2646116e-01   4.5207451e-01  -7.3414520e-01   6.2383182e-01  -3.3055570e-01  -1.1921618e-01  -9.9540787e-01   2.9249242e-01  -5.7416476e-01  -1.2805770e-01  -3.8788914e-01   2.6876214e-01  -2.0537666e-01  -4.7153457e-02  -5.9118118e-01   8.8375293e-02   1.2625366e-01   6.0050994e-01  -4.6967404e-01  -1.6726307e-01   2.9282052e-01   5.0893035e-02   6.0805814e-01  -8.1088982e-01  -1.7916519e-01   2.9614209e-02   7.3329663e-01  -3.6391492e-01  -6.9198274e-01  -5.8314670e-01  -5.3832343e-01   3.2518045e-01  -7.1010807e-02  -5.1512537e-02  -4.7358082e-02   7.4378790e-01   3.9693885e-01  -7.7290774e-01   1.0941362e-01  -4.9679628e-01  -4.7446690e-01  -2.0763079e-01  -4.6966877e-01   6.0803609e-01  -8.9486739e-02   4.2191765e-01   2.6669933e-01  -9.9362060e-03   9.6817447e-01  -3.4168767e-01  -1.8375819e-01  -1.1445434e-01  -2.6370293e-01  -4.2976141e-02  -5.0067825e-01   5.7590490e-02   4.2858941e-01  -3.9133785e-01   7.5515766e-01  -9.1054437e-01   5.3664759e-01   1.8277499e-01  -1.2531351e-01   7.3255391e-01   9.3430509e-01  -5.8490792e-01   9.8903221e-01  -4.4541322e-01   8.8544714e-01  -9.2814411e-01   7.7315280e-02   1.7248832e-01   4.6450677e-03   5.8683112e-01   2.0569078e-01  -6.4461936e-01  -9.3292491e-01   1.3828759e-01  -1.8657759e-01  -4.0600719e-01   6.8107821e-02   7.1771109e-01   4.5396003e-01   4.5719477e-01  -9.1351432e-01   8.9579329e-01  -1.2789096e-01   3.0009879e-02  -3.1041971e-01   4.3120573e-01   2.4089050e-01  -9.0651562e-02  -6.6437160e-01   8.6540803e-01  -7.1928454e-01   2.4503879e-01  -7.4672379e-02   8.4737951e-01   3.6723368e-01   6.0332720e-01   4.0294398e-03  -6.7661452e-01  -1.9066672e-01   5.6541672e-01  -4.0639975e-01  -8.9832762e-01  -3.7244332e-01   6.8409602e-01   1.2928904e-01   6.3721444e-01  -5.7341379e-01   7.7033978e-01  -5.9272689e-01   2.4086053e-01  -8.5753604e-01   7.9409453e-01   1.6682306e-01  -3.4660397e-02  -7.0924701e-01   1.2709756e-01   3.6947661e-01  -8.1878761e-01  -3.1743743e-01   5.3948813e-01   1.2970282e-01  -8.2947820e-01  -1.7166308e-01  -1.5064834e-01  -6.6724089e-01   1.8663059e-01   5.6449573e-01  -9.9115518e-01  -2.5325395e-01   5.0131050e-03   1.2803237e-01   1.1332498e-02  -2.8963708e-01  -9.0470897e-01  -6.2595235e-01   9.1596776e-01  -5.9229340e-01  -4.4606777e-01   5.4021699e-01   7.1301755e-01  -4.1327970e-01  -5.1986631e-01   9.8271573e-01  -1.1531466e-01  -1.6123871e-01   7.6122084e-01  -9.7681426e-01  -7.3879046e-01   1.2291878e-01  -9.9154640e-01  -1.2412496e-01   3.5840098e-01   9.7205872e-01  -7.3177632e-01  -9.7950494e-01  -7.8057766e-01  -1.0102244e-01   8.8529970e-01   1.2670976e-01   7.4958921e-02  -1.3658999e-01  -6.3276286e-01  -6.5789622e-03   9.9239287e-01  -9.4662618e-01  -1.2156131e-01   9.8303620e-01  -4.0572914e-01  -1.6834915e-01  -4.7342099e-01  -6.4533797e-01   8.4878619e-01  -3.9471918e-01   7.7619495e-01  -6.2467369e-01   4.6171850e-01  -8.6222540e-01  -6.9585869e-01   8.2034205e-01  -2.5094341e-01   4.6705472e-01   4.7717443e-01   1.9719019e-01   4.0201527e-01  -1.1204805e-01   8.4423811e-01   2.6492847e-01  -2.5259890e-01   3.8493383e-01   7.4316415e-01  -7.1570594e-01  -3.6754781e-01  -7.9287447e-01  -3.5821354e-01   4.9680130e-01  -7.5799244e-01   8.3377499e-01   4.0369588e-01   9.7735892e-01  -9.7854568e-01   2.4162451e-01   5.6783696e-02  -9.0017345e-01   2.6052285e-01   6.6155816e-01   1.3289315e-01   4.2743188e-01  -3.6521389e-01   9.8775678e-01  -4.6534936e-01  -5.7317664e-01  -1.0360892e-01  -3.2724562e-01  -1.2572563e-01  -1.7764966e-01   4.5084698e-01   3.4688558e-02   4.2124124e-01  -9.5285805e-01  -9.5500604e-03  -2.9514575e-01  -2.7155673e-01   5.9746046e-01   9.9139420e-01   9.7527885e-01   6.1722101e-01  -5.6278751e-01   4.9336943e-01   9.0965715e-01   7.9321472e-01  -3.9866910e-01  -9.1908088e-01   6.3404573e-01  -7.2844212e-01  -6.5307790e-01   6.7880281e-01   5.9933741e-01   1.7006937e-01   6.2017662e-01  -5.9045936e-01  -1.0770887e-01  -1.6276185e-01  -5.3529727e-01   2.8310604e-01   6.4167979e-01  -2.2197838e-01   1.3455015e-01  -1.8210826e-01  -9.1924743e-01   5.9960426e-01  -5.8492946e-01   8.0426943e-01   9.6181767e-01   6.0148099e-01  -2.3802271e-01  -9.0796382e-01   1.4983457e-01  -1.6386732e-01  -6.8551862e-01   2.6813684e-01   6.8417144e-01  -5.7183606e-01  -2.2593377e-01  -9.8537070e-02  -3.3735854e-01   5.0973268e-01   5.7716722e-01   8.1195171e-01   8.2933237e-01   9.4261935e-01   6.6798610e-01  -2.8724159e-01  -3.5466759e-01  -1.4141803e-01   2.3603826e-01   6.3544118e-01   5.3597621e-01   2.1244825e-01   4.6223423e-01  -9.6727593e-01  -3.1079511e-01  -4.4146261e-01   2.3853408e-01   6.1935896e-02   1.9075088e-01  -5.5469387e-01   9.2912370e-01  -1.0791910e-01  -2.8556950e-01   2.7627231e-02  -3.1698725e-01   1.4512662e-01   8.1989609e-01   5.6783284e-01   5.4329056e-01   7.9419028e-01  -8.4655770e-01  -2.6342051e-01  -7.9163433e-01  -2.6037123e-03  -3.6011061e-01  -3.7068006e-01   1.1775400e-01   2.6111487e-02   4.9160471e-01  -3.4331721e-01  -2.5810758e-01  -6.2826283e-01   2.4487441e-01  -8.0903855e-01  -3.9069141e-01   3.7924245e-01   9.8819889e-02   2.3831000e-01  -3.2610435e-01  -6.6944255e-01  -7.9513562e-01  -3.8878119e-01   7.2610277e-01   8.3885735e-01  -9.6082676e-01  -3.4367211e-01  -6.6366937e-01   2.7159579e-01   9.4924553e-01   4.1733148e-01  -5.3454220e-01   8.8049805e-01  -6.3454211e-01  -7.7222021e-01   1.7524551e-01   9.0984017e-01   7.0066974e-01   3.2097011e-01  -1.4266324e-01  -5.6886558e-01   9.5837710e-01  -9.6008078e-01  -1.0247461e-01   7.0037255e-01  -4.1367072e-01   9.7893389e-01  -7.7386432e-01  -4.7573955e-01  -7.0742625e-01  -4.9452554e-01   9.3492403e-01  -9.7043379e-01   7.5266651e-01   5.2881597e-01   5.3403006e-01   2.3000607e-01   5.3949977e-01  -9.2514518e-01  -6.0468957e-01   7.0880038e-01   4.9472008e-01   3.5530291e-01   9.7555866e-02   2.9809587e-01  -5.2756054e-01   7.4639654e-01  -3.1940329e-01   9.9947093e-01   5.6393544e-01   5.7182891e-01   3.3220558e-01  -6.8585712e-01   5.3702827e-01  -9.1532413e-01  -9.1863561e-01   3.6629433e-01   4.6557155e-01   9.7159768e-01   1.8171356e-01   6.2039126e-01  -7.9146076e-01   9.6242272e-01   8.3461329e-01   7.7370596e-01  -8.4975596e-01  -1.9852055e-01   8.9883342e-01  -6.6358100e-01  -8.6561881e-01  -7.0970981e-01   6.0297432e-02  -3.3108862e-02  -6.2647660e-01   9.5057998e-02  -3.2287316e-01  -4.4492044e-01  -6.1403865e-01   2.1960703e-01   6.3811424e-01  -9.9195216e-01  -8.7346812e-01   5.1801302e-01  -2.3110000e-01   9.3280272e-01   6.6277360e-01   6.7202168e-01  -9.1493931e-01   9.8604135e-01   5.7710439e-01   9.3304462e-01   8.9675904e-01  -4.1389129e-01   7.1049808e-01  -4.9979369e-01  -9.0402766e-01   9.0143202e-01   2.4363631e-01   8.6838749e-01   6.5710174e-01   3.2682380e-01   4.7770439e-01  -3.4958404e-01   5.9147884e-01   9.8976752e-01  -1.4704953e-01   4.9174158e-01   1.0155052e-02  -9.2958536e-01   1.2225247e-01  -2.2036596e-01   5.0264399e-01  -1.6473045e-02  -4.1604810e-01   1.1204997e-01  -5.6460446e-01   8.7938963e-02   5.4652340e-01  -9.8005962e-01   5.9133517e-02   7.3331248e-01   9.0596440e-01   9.6811795e-01  -5.0914553e-01  -6.2422979e-01  -5.6037825e-01   4.4438188e-02  -8.7561258e-01   1.5015126e-01  -9.4227034e-01  -6.1802105e-01  -5.5142688e-01   2.9747273e-03  -9.6038727e-01  -1.6066518e-01   6.0123498e-01  -3.6211454e-01  -3.0742791e-01   2.7305869e-01  -3.1491933e-01  -9.3822703e-01   1.7887332e-01  -9.3109467e-01  -6.6739517e-01  -3.9343244e-01   5.7227287e-01   8.0823963e-01   7.3322273e-01  -4.2468939e-01  -8.9702148e-01   8.4726068e-01  -1.2484424e-01  -5.7774135e-01   8.4757243e-01   1.3216971e-01  -6.5331197e-01   6.9117750e-01   6.1622717e-01   9.0484230e-01   5.8496055e-01  -5.7148714e-02   2.9961732e-01   3.4819140e-01  -1.5411976e-01   7.9516991e-01   6.4435641e-01  -1.3762481e-01  -9.8288867e-01  -5.1444226e-01  -7.1819670e-01  -4.6522634e-01   3.8514821e-01   7.3806221e-02
   3.4716491e-01  -6.8508791e-01   2.1680356e-01  -3.2957679e-01  -2.1012216e-01  -8.3646399e-01   4.4547391e-02  -5.6240800e-01   5.1134554e-02   6.5839639e-01   2.1565240e-01   2.7311226e-01  -9.4463548e-01   1.7041892e-01   2.2441555e-01   2.2279299e-01  -7.1793237e-01  -6.5444078e-01   8.8758179e-01  -2.5991716e-01   3.6443308e-02   3.0828982e-01   5.2686250e-01   2.2168885e-01   3.4311195e-01  -4.7596849e-01  -4.8813259e-02  -9.1937934e-01   9.2494121e-01   2.0087181e-01  -3.0221282e-01   7.9921259e-01  -5.7458541e-01   8.3089711e-01  -8.2615107e-01  -3.6782230e-01  -3.8265755e-01   7.8087334e-01  -6.2146017e-01  -2.7821157e-02   9.1400424e-01  -2.0322868e-01   5.5582869e-01  -6.9717321e-01   3.5483536e-01  -7.2797075e-01   9.7595133e-01  -1.9784038e-01  -6.0578070e-01   1.6819720e-02  -8.0163564e-01   5.1392649e-01   3.9912179e-01  -2.2193501e-01   8.2473988e-01   5.4147553e-01   8.4870035e-01  -2.1092663e-01   3.6576226e-01   7.2386051e-01  -9.6810701e-01   7.0769614e-01  -3.7897471e-01  -7.8493761e-01   6.0379328e-03   7.9669490e-01  -5.0021748e-01  -7.7290057e-02  -4.0648392e-01   5.2102605e-01  -6.8294305e-01   5.0291945e-01  -8.0437537e-02  -3.9466367e-01   2.6095541e-01   9.2976243e-01  -8.7702582e-01  -6.0370884e-01  -4.1524960e-01  -4.4763355e-01   3.3873971e-01   5.2089250e-01  -2.5052132e-01  -6.7169660e-01   7.7510718e-01   4.5905187e-01  -5.7237342e-01  -2.8866603e-02   6.8349769e-01  -6.7207417e-01  -1.4136073e-01   7.4501676e-01   7.9311738e-01  -4.6371227e-01  -9.4925624e-01   8.8748067e-01   6.5564011e-01  -2.4581380e-01   3.7542343e-01   4.5679365e-01  -7.8505678e-01  -3.0178119e-01  -5.5572280e-01  -6.2375033e-01  -3.2178827e-01  -5.5978623e-01   9.7166347e-02   2.3480579e-02   5.3479979e-01  -2.3938059e-01  -3.8404099e-01  -8.4880208e-01   7.1760624e-01  -1.5403914e-01   8.9477215e-01   9.3283228e-01  -4.8470741e-01  -8.4091537e-01  -2.0407328e-01   5.1021292e-01  -8.9550717e-01  -4.6383671e-01  -3.3141776e-01   6.6622242e-01   7.8481578e-01  -8.3242018e-01  -9.1339684e-01   1.6060690e-01  -8.7248864e-02  -7.6268889e-01   8.6812678e-02  -1.5826929e-01   7.0363936e-01  -5.2670331e-01  -9.4117448e-01  -6.4322204e-02   7.2227995e-02   8.8839266e-01   9.7740678e-01   6.3483778e-01   1.8422569e-01  -6.5268405e-01  -8.6868811e-01   5.3449749e-01   4.3359247e-01   3.1737990e-02   9.6500656e-01  -3.3163406e-01   6.5132821e-01  -8.4273038e-01   7.8782552e-01  -9.3182315e-01   9.0600009e-01  -3.8873582e-03  -3.1715362e-01   8.4874779e-01   9.4287848e-01  -8.3250399e-01  -3.4731988e-01   8.0201579e-01   4.6864257e-01  -8.2517615e-01  -5.1230176e-02   7.8226561e-01   7.1614383e-01   8.1002644e-01   6.8147984e-01   1.3281068e-01  -1.3642159e-01  -1.6204817e-01   4.9541931e-01   9.2256773e-01  -5.5441483e-01  -6.8415649e-01   8.9004984e-01  -2.8450970e-01  -7.0877088e-01   9.0609483e-01  -4.8865626e-01  -5.3418989e-01   5.8006498e-01  -6.9339616e-01  -4.1393046e-01  -5.1837742e-01   9.0036960e-01  -7.3497398e-01  -2.9961921e-01  -1.1340889e-01  -1.2055157e-01  -1.6923082e-01   1.2602423e-01  -3.4468595e-01  -3.3246782e-01   2.3797850e-01   8.0566587e-01  -1.8988285e-01  -6.1426846e-01   4.7372605e-01   8.4384480e-01   9.0803810e-01   6.4225029e-01   5.9143828e-01   3.0776033e-02   2.7718302e-01  -1.8676131e-01   9.1969295e-02  -2.7498270e-01   5.9271531e-01  -1.0216865e-01  -1.8492965e-02   3.2042465e-01  -3.5120212e-01  -8.1438145e-01  -5.0468850e-02  -5.1613868e-01   6.9529548e-02   6.0963339e-01   1.2483809e-02   6.3815479e-01  -6.0883988e-02   2.7665798e-01   8.2367535e-01   6.1127593e-01   5.9410082e-01   2.3026282e-01  -7.6422531e-01  -1.7282101e-01  -1.3580801e-02   1.9876077e-01   2.0696218e-01  -7.7865621e-01   2.6561606e-01  -1.2287904e-01  -3.1223681e-01   2.9701427e-01  -5.3650971e-01  -4.7818653e-01   8.2181105e-01  -2.7554049e-01  -3.8829621e-01  -5.9242783e-01  -1.5748266e-01   6.3457412e-01   9.4369652e-01   6.7821475e-01  -1.9704441e-01   4.3200635e-01   6.8255113e-01  -7.7341989e-01   1.9334507e-01  -4.0264765e-01  -6.4899479e-01   1.6036489e-01  -5.9218320e-01   3.6986529e-01   3.2751907e-01  -5.1260931e-01   7.8550691e-01   1.3402802e-01  -3.2525733e-01  -2.2876697e-01  -5.2290707e-01  -5.1839331e-01  -2.1690651e-01   2.4145563e-01   9.4131221e-01   4.0452341e-01   1.6496358e-01  -6.3204197e-01   1.5972027e-01  -6.2666111e-01  -6.3670394e-01   4.8805802e-01  -3.7606189e-01   7.3070211e-01   7.7394988e-01   1.5639121e-01  -8.5497397e-01  -7.5700626e-01   5.4733013e-01  -1.9180160e-01   7.6688122e-01   1.4513881e-01  -4.4194454e-01  -2.3605549e-02  -2.6881918e-01   2.1612135e-01  -1.0605939e-01   9.0223260e-01   6.6184016e-01  -4.3849101e-01   5.8625756e-01  -9.3554440e-01   9.2457537e-01  -6.4121017e-01   7.0791406e-01  -6.7966120e-01  -1.7116957e-01   3.7569637e-01   9.8335287e-01   5.8969400e-01  -2.4296691e-02  -4.6737377e-01   1.6906331e-01   3.5220276e-01   1.4075539e-01  -9.6342938e-01   3.5142960e-01  -3.0715172e-01   8.2067254e-01   2.6784843e-01  -4.0419426e-01   2.8294995e-01   6.0952973e-01   5.1278518e-01   3.2324083e-01   3.1170355e-01  -9.1226398e-01  -8.9227830e-01   9.3653352e-01   7.7886653e-02  -1.4295843e-01   7.4688874e-01  -8.7863161e-01   1.4923045e-01   3.6909886e-02  -2.2301865e-01   1.4795953e-01  -9.1211469e-01   6.0712503e-01   9.0061264e-01   6.2186589e-01  -5.9616047e-01   6.9756008e-01   4.4206332e-01   5.8755374e-01  -8.1931581e-01  -6.1731513e-01  -3.9081031e-01   5.3903659e-01  -2.9217877e-01   8.5546536e-01  -6.5219509e-01   6.2081272e-01  -8.0825010e-01   6.4999398e-01  -2.2930808e-01   3.5034631e-01   7.9615332e-01  -7.8563721e-01  -7.9350573e-01   5.2146562e-02   5.5795593e-01   8.0063192e-01  -4.5151352e-02   4.9029350e-01   7.5505243e-01   5.7495146e-01   3.0711431e-01   1.3163733e-01   4.5562973e-01   3.7843958e-02  -5.2953325e-01   4.1392536e-01   5.5533542e-01   3.8289391e-01  -6.9561843e-01  -6.2735533e-01   6.1362895e-01  -9.6835580e-01  -4.4396785e-01   3.6473859e-01   4.8909244e-01   6.2481291e-01   3.0325928e-01  -1.4812665e-01  -6.4815527e-02   1.0069399e-01   4.7471408e-01   2.7787061e-01  -5.6406516e-01   4.1874013e-01   5.3035437e-01   8.2075196e-01  -8.0775456e-01  -1.7427135e-01   9.5829604e-01  -5.4223084e-02   1.6931703e-01  -5.2023472e-01   2.8739302e-02   6.3520132e-01   8.5106880e-01   4.8839272e-01  -8.2231389e-01   1.1386040e-01   8.3466996e-01  -3.6573872e-01  -4.0038233e-01   2.6451398e-01  -1.1283726e-01  -1.4937158e-01  -3.6599442e-03   7.5376524e-01   6.7851200e-01   2.0694418e-01   2.6644023e-01  -7.3380207e-01  -9.0292867e-01  -1.9701523e-01   2.0940183e-01   4.9515569e-01   9.5400938e-01  -1.1060737e-01  -6.7879655e-01   1.2147743e-01  -5.3576076e-01  -3.8095715e-01  -7.9505478e-01   5.7260942e-01  -6.1025399e-01   8.3284159e-01   7.3411035e-01  -3.6119555e-01  -2.5662212e-02  -4.0883294e-01   3.1313778e-01   7.2163545e-01  -9.3891987e-01  -9.2071287e-01   4.8426688e-01   2.7348470e-01   3.2428061e-02  -5.3073598e-01   7.3978950e-01  -3.8513222e-01   3.9500008e-01  -1.4579183e-01   3.8748891e-01   5.7531114e-01   6.9373814e-01   3.4590463e-01   5.6695665e-01   4.3350797e-02   2.3323287e-02   6.5861191e-01   6.3094193e-01   8.8193012e-01   9.7313493e-01  -9.0889834e-03  -7.5537837e-01  -5.9362405e-01  -7.3898199e-01  -8.1634706e-01   2.5842083e-01  -4.6433805e-01   4.4894163e-01   5.3505348e-02   6.1610087e-01  -7.7713610e-01   6.8826809e-01  -2.2915305e-01  -5.7517972e-01   1.6579824e-01   5.7937091e-01  -1.4935809e-01   8.8037524e-01   5.9591161e-01   5.7079678e-01   6.6244443e-01  -3.1493927e-01  -8.5774339e-01  -6.6385527e-01  -5.0691257e-01  -9.9214294e-01   1.6312052e-02  -2.2299211e-01  -5.5960839e-01   4.2695624e-01  -2.1227690e-01  -4.8892241e-01  -3.8629587e-01   7.7459653e-01  -6.6517849e-03   4.7277461e-01  -9.6416287e-01   2.1928024e-01   7.6871469e-01  -6.7347068e-01  -9.0039432e-01  -2.5624366e-01   8.2052974e-01  -1.8624907e-01   6.5415043e-02   7.9456161e-01   2.7915073e-01   6.7137043e-01  -7.4486282e-01   8.2961784e-01   5.0501655e-01  -8.2937430e-01  -9.2926331e-01   7.6746248e-01   1.1672019e-02  -6.0778167e-01  -5.8558527e-01   5.6262690e-01  -6.6138593e-01  -3.5357336e-02  -2.4028223e-01   2.2972045e-01   3.9781823e-03   1.1057094e-01  -1.6508435e-02   2.8286818e-01  -6.4649464e-01  -7.8951832e-02   3.3736691e-01  -4.4268360e-01  -9.7923824e-01  -5.0379005e-02  -2.9655765e-01   3.3913085e-01   3.7140728e-02  -9.0695967e-01   4.5179746e-01  -3.1367016e-01   2.9324833e-01  -4.7919694e-01  -9.8920518e-01   7.4052205e-01   5.0858965e-01   7.2626612e-02  -1.0746663e-01  -8.6951275e-01   3.3215415e-02   5.1613856e-01   9.6154997e-01  -4.6824953e-01  -3.7159453e-01  -6.4833621e-01  -6.2527637e-01   1.8935330e-01   9.7585367e-01   7.9146614e-01   2.5521459e-01   3.0445936e-01   2.4678233e-01  -1.9603833e-01   7.6568273e-01   8.1073633e-02   4.3291711e-01  -5.2564340e-01   8.5619559e-01  -5.9976671e-01  -7.7941812e-02  -4.6926843e-01  -4.7141922e-01  -2.4886736e-01  -5.1664920e-01  -5.4557380e-01  -8.6696460e-01   6.1810902e-01   7.6976839e-01  -3.4661900e-01   8.4128328e-01   3.1908540e-01   6.8513609e-01  -4.4931172e-02  -7.3574710e-01   6.9563197e-01   6.5741159e-01  -9.5571640e-01   3.9128288e-01  -9.5620084e-01   5.6047760e-01   1.1530721e-01   3.4312933e-01  -1.8745770e-01   6.0555457e-03  -1.4380521e-01  -6.8983018e-01  -1.6066026e-01  -8.7231978e-01  -4.9835005e-01  -6.0176844e-01  -6.5602909e-01  -9.2941361e-01  -2.5268811e-01  -8.3151602e-01  -1.1741315e-01  -5.6002168e-01  -7.4486122e-02  -3.5494388e-01  -8.5436102e-03  -3.4977002e-01  -4.1883279e-01  -4.0299013e-02   7.4416260e-01   6.1198823e-01   3.4116778e-01  -6.4642578e-01  -4.0979131e-02   4.2460177e-02   7.9670696e-02   3.2236971e-01   9.3918031e-01  -6.5841483e-01  -9.6517754e-01   8.4120560e-01   9.9168788e-01  -6.9586893e-01  -8.1773217e-01  -9.9279449e-01  -2.8733723e-01  -9.5910569e-01   4.6842569e-02  -1.7695171e-01   9.3127358e-01  -3.0705718e-01  -6.2821241e-01  -3.0391086e-01   9.5774630e-02  -5.0049160e-01   3.1977145e-01  -6.4447392e-02   9.4129467e-01   4.0847402e-01  -5.0564479e-01   7.3753265e-01  -4.5508692e-01  -7.8262664e-02   7.4861711e-01   4.0397284e-01   1.2930279e-01  -3.0094989e-01   6.6240248e-01  -8.8998009e-01  -5.1976390e-02  -9.9400564e-01  -9.6598719e-01  -9.7662218e-01  -4.4652299e-01   8.0107993e-01   2.5682922e-02  -1.8440878e-01  -1.2798694e-01  -4.1961474e-01  -8.2516609e-01  -9.5751413e-02  -7.2761630e-01  -2.6652898e-01   1.2181601e-01  -9.5269396e-01  -5.1828536e-01   7.2766506e-02   7.8614870e-01  -4.3236499e-01   5.4741342e-01  -5.6168939e-01   2.2223089e-01  -9.5055132e-03   7.0617675e-01   6.2044767e-02   5.5289228e-01  -6.9691516e-01   6.2919429e-01   5.9766927e-01  -1.6530259e-01   7.0208089e-01   8.0088148e-01  -2.0527908e-01   9.1845963e-01   6.0434651e-01  -3.3302219e-01  -3.5788314e-02   5.9733564e-01  -1.5350979e-03   3.7615050e-01  -3.6857431e-01   6.0293419e-01   3.9114289e-01  -1.8022965e-01   4.9493442e-01  -5.0899227e-01  -9.1615910e-01   5.6654020e-01  -5.3941268e-01  -8.2775551e-01  -3.5445243e-02  -3.2483038e-01  -8.9547366e-01  -5.5293177e-01  -2.3298747e-01  -6.3629434e-01  -1.4755378e-01   3.7105117e-01  -3.6594143e-01   1.4063840e-01   1.2065455e-01  -5.8387869e-01  -8.2476510e-01  -3.3039186e-01  -7.2906102e-01  -5.5833443e-01   5.5368723e-01   3.8514707e-01  -4.0230101e-01  -6.3624133e-01  -1.7771715e-01   2.9669665e-01  -7.8588944e-01   4.4561860e-01   8.7264342e-01  -5.8401520e-02   8.5946047e-01   6.1298063e-01  -9.1218061e-01  -7.1398071e-01   8.5965638e-01  -4.5613468e-02  -8.1892298e-01   1.6054828e-01  -1.4065930e-01   2.5024217e-01  -7.8643415e-01   5.8862057e-02  -4.0888104e-01   9.5344146e-01  -7.1696076e-01  -1.7102850e-01  -6.2861848e-01   8.2514928e-01  -3.4678841e-01   1.5081946e-01  -9.7277457e-01   7.7076467e-01   6.5909601e-01   6.3591882e-01  -5.1851706e-02  -8.4536356e-01   4.2468171e-01   5.7178763e-01   2.2694476e-02   4.7848364e-01  -2.5847669e-01   3.8425435e-01   6.7546531e-01   3.3478422e-01   8.6838055e-02   4.9287501e-01  -3.1604736e-01   4.7547137e-01   5.4409723e-01  -3.7930615e-01  -7.8563482e-01   8.1174283e-01  -2.4194816e-02  -5.1129132e-01  -6.9047825e-02   3.7545279e-02   9.7691914e-01  -2.6881546e-01   8.3366166e-01  -5.1857844e-02   3.2617147e-01  -2.7407674e-01  -4.3626395e-01   2.0354625e-01   9.3775651e-01   2.4003770e-01  -2.2663427e-01   1.7111104e-01   8.3288374e-01   4.6599286e-01  -5.1780740e-01  -6.6796137e-01  -5.5165275e-01  -7.4536080e-01  -6.5226695e-01  -9.6881065e-01   6.8477707e-01  -3.9603061e-01   2.0223966e-01  -5.1933237e-01  -5.4315625e-01   7.9008886e-01  -1.5896875e-01  -5.2429189e-01   2.5383752e-01   2.2307023e-01   6.7146956e-01   8.8148048e-01  -4.0857669e-01   5.7123696e-01  -9.1085820e-01   1.9241383e-01  -6.5026666e-01   3.6886194e-01  -7.4387647e-01   7.7690946e-01  -3.8464523e-03   4.5576898e-01   9.9783499e-01   9.6207362e-01  -2.9992750e-01   3.7642051e-02   4.6901798e-01   1.6276493e-01  -8.1114642e-01  -5.6589162e-01   3.9260278e-01  -8.0057728e-01  -4.5805962e-01   9.2456217e-01   4.6856485e-01   7.1536972e-01  -2.9146804e-01  -9.2357950e-02  -9.7779803e-01   7.4488983e-01  -9.0839613e-01  -1.4103146e-01   6.7739594e-01  -9.0103761e-02  -6.4674776e-01   7.4176147e-01  -5.7957004e-01   3.5687185e-01   6.9217655e-01   7.1496723e-01  -5.9967705e-01   4.5340465e-01   1.9572508e-01   8.2444469e-01  -5.6839524e-01  -5.1018793e-01   4.6404690e-01  -5.4129669e-01  -7.4181996e-01  -4.5444864e-01   7.1160968e-01  -7.1305763e-01  -9.7113288e-01  -7.2740623e-01  -8.2173880e-01   3.6479414e-01  -5.3195130e-01   3.6444608e-01  -9.2525553e-01  -2.5333235e-01  -3.1873632e-01   6.6821987e-01   7.4796164e-01   8.0340359e-01  -3.8050945e-01   5.7267848e-01  -9.3668053e-01  -3.4014320e-01   9.9345355e-01  -5.6861964e-01  -9.0507372e-01   3.3367839e-01   4.2129331e-01   7.8860915e-01  -8.7152505e-01  -9.1237129e-01   5.1087148e-01   7.9593609e-01  -1.2978066e-01  -6.4140475e-01  -5.3704657e-01   1.5577300e-01  -2.6263227e-01  -6.9837900e-01   9.2312453e-01  -6.4188810e-01  -8.7515432e-01   7.3016487e-01  -5.3951213e-01  -3.3564728e-01  -4.7661833e-01  -8.3763330e-01  -1.1228929e-01  -5.3031100e-01  -5.7705572e-01   6.1441318e-01  -1.2906315e-01   7.3656557e-01  -7.3685798e-01  -5.1423671e-01   1.9003494e-01   8.9369836e-01  -7.9264233e-01  -2.5165207e-01  -7.5130933e-01  -2.5919777e-01  -1.3662759e-01  -6.2979818e-02  -2.9411943e-01   6.0010116e-01   1.9565880e-01  -4.0198787e-01  -2.5841364e-01  -9.7087988e-01   8.0748081e-01  -1.0289763e-01  -9.4159564e-01   8.6466486e-01   7.3951270e-01   1.4665170e-01  -4.1783478e-01   4.2132211e-02  -2.3958044e-01   9.9441448e-01  -5.2695186e-01  -4.2420170e-01  -1.4555750e-01  -9.4704022e-01  -6.1467912e-01   2.0101775e-03  -6.8523010e-01   7.6687575e-01   2.9250470e-01  -4.2821512e-01  -4.0251807e-01  -5.2596558e-01   8.9065783e-01  -8.1242720e-01   2.0631579e-01  -4.6548115e-01   5.8456387e-01   5.6903661e-01  -7.1305395e-01  -4.1489146e-01  -9.4582092e-01  -8.2084781e-01   1.8955362e-01  -5.4789485e-01   3.8425988e-02  -1.1490912e-01  -4.9503328e-01  -2.3114368e-01  -4.8293624e-02  -7.7981985e-01   6.0413312e-01   5.5785647e-01   9.1569078e-01  -1.5250194e-01  -6.9426836e-01  -4.9242507e-01   8.3685264e-01   5.2787944e-01  -8.7679902e-02   2.0145836e-01   5.2497761e-01   2.6054350e-02   6.0311525e-01  -1.3361283e-01  -2.6529305e-01  -1.8013351e-01  -9.0489157e-01  -2.2312885e-01   3.1398994e-02   9.7459404e-01   5.6081440e-01   9.1551553e-01  -2.5643230e-01  -1.9364403e-01   6.2301767e-01   2.2099650e-02  -5.6893007e-01   3.1121097e-01   2.0244057e-01   6.0410682e-01   4.7219465e-01  -8.6335292e-01   4.3515291e-01  -5.7087940e-01   5.6873199e-01  -4.7776208e-01   8.9121584e-01  -3.1682314e-01  -8.3801751e-01   5.8862926e-03  -1.9469724e-01  -6.9239290e-01  -8.8687856e-01   4.7710465e-01   9.1674381e-01  -8.5162759e-01  -6.6510656e-01   8.6691712e-01  -2.0549767e-01  -9.4130505e-01  -7.9428732e-01  -8.1730281e-02   4.3280170e-01   9.0743491e-01  -1.8617595e-01
