  -8.2200294e-01   3.8976112e-01   9.2166617e-01  -6.1161871e-01  -9.8664295e-01  -4.5339662e-01  -2.8932037e-01   6.5253792e-03   7.9048213e-01  -1.5970715e-01   8.0143641e-01  -7.9033159e-01   2.1580467e-01   7.8013119e-01  -9.1443851e-01   1.3351502e-01  -3.5056188e-01  -6.4197797e-02   6.4464255e-01   7.8523976e-01   3.8873468e-01  -3.9154460e-01   1.6857190e-01   8.0798770e-01   4.6933624e-01   7.3984552e-01   4.2992881e-01  -1.8207517e-01  -8.0249524e-01  -8.8958810e-01  -1.4374180e-01  -2.0924100e-01  -2.9721905e-01  -9.1608822e-01   7.9499521e-01   5.1800012e-01   6.0621116e-01   9.9433269e-01  -5.2427315e-01  -6.9300988e-01  -7.7433292e-01   2.3086004e-02   8.0486685e-01  -9.3836328e-01   6.5400355e-01   8.9539861e-01  -8.1351386e-01  -9.3334719e-01   8.6743924e-01  -4.6025254e-01  -1.6706768e-01   2.6720000e-01   7.2856803e-01   2.1357151e-01  -7.3244170e-01  -8.1047135e-01  -1.1082109e-01   8.3047340e-02  -8.5227402e-01   8.0303376e-01   3.6410051e-01  -2.1736493e-01  -1.6916760e-01   3.1413568e-01  -6.3754890e-01   5.7449399e-01  -3.0938327e-01  -9.7691021e-01  -1.6124191e-01   4.6842519e-01  -5.8981978e-01  -1.9866676e-01  -6.9080757e-02   5.2609453e-01  -1.2746452e-02   7.6528089e-01  -1.3209401e-01  -7.8643011e-01  -9.2534021e-01  -1.6091966e-01   7.0275962e-02   8.2533149e-01   5.1374427e-01  -3.8289569e-01   4.1357197e-02  -5.0760266e-01   9.3733806e-01  -9.2153002e-01   8.6789581e-02   9.7893597e-01  -9.8759904e-01  -7.3816244e-01   3.8591110e-01   5.3002250e-01  -3.5869537e-01  -3.4868951e-01   4.8346310e-01  -2.0730316e-01  -6.6411146e-01   7.1945481e-03  -9.4926043e-01  -1.7467823e-01   8.7361206e-01  -1.5761915e-01   9.1841217e-01   1.4373803e-01  -3.0172716e-01   6.1723790e-01  -6.0841156e-01   8.4001099e-01  -4.0186995e-01  -7.0468495e-01  -7.4526978e-01   8.0933075e-01   8.2334091e-02  -6.4410186e-02   1.1455818e-01   2.5318909e-01  -3.3428433e-01   3.9007610e-01  -8.6025373e-01  -2.0972825e-01  -9.7907842e-01   9.9198849e-02   4.5284831e-01   4.8332377e-01  -5.4171188e-02  -4.6809126e-01   6.6408460e-01  -8.8624239e-01   5.3265645e-01  -6.7851420e-01  -6.6231443e-01  -5.6474071e-01  -8.2842571e-02   5.9051180e-01   5.5831437e-01  -4.0695819e-01   1.5665631e-01   8.1303783e-01   9.4133190e-02  -3.9990430e-01  -5.1040797e-01   6.9507560e-01   2.4759129e-01  -6.4593243e-03  -5.9024916e-01   1.4286672e-01  -4.9248370e-01   5.8230472e-02   8.4665273e-01   4.9668219e-01  -7.1979025e-01   2.8409867e-01  -9.4210594e-01   8.9583162e-01   9.3039052e-01   6.3216827e-01  -5.3125624e-01  -3.2704214e-01   2.0401105e-01   6.4751402e-01   6.3255332e-02  -9.7957985e-02   1.4002254e-01  -3.4585071e-01   3.7833801e-01  -1.8288508e-01   3.4497893e-01   7.4982215e-01   1.5216070e-01   4.5123503e-01   2.1847517e-02  -9.6287143e-01   4.9975537e-01  -7.4107086e-01   4.0844348e-01  -5.5123609e-01   3.2207649e-01   9.7139064e-01   2.5412385e-01   9.2924578e-01   5.5943387e-01  -7.8608712e-01  -1.4313138e-01  -4.7574098e-01  -3.4498465e-01   8.2366610e-01  -1.8279590e-01   7.6376084e-01   2.1300704e-01   7.5696478e-01  -8.2535793e-01   7.1577148e-01  -1.9708225e-01  -8.6911449e-01   4.5554215e-01  -4.5416735e-01  -2.3080724e-01  -6.7209038e-01  -5.6556942e-01  -4.8768949e-01   4.1701113e-01   6.2725794e-01   5.0283378e-01   9.4804181e-01  -1.7214779e-01   9.5138616e-01  -2.0628810e-01   5.9596767e-01   4.9385819e-01  -4.8440711e-01  -1.8517886e-01   8.5400428e-01   3.3738242e-01   4.0846892e-01  -6.4237406e-01   6.4634485e-01  -4.1507844e-01  -9.4825866e-01   8.7223182e-01   9.2817991e-01  -3.3903905e-01  -5.2333393e-01   1.8734335e-01  -6.5899875e-01  -8.0571980e-01   3.8411643e-01  -6.0543822e-01   6.5322869e-01   9.2347600e-01   7.8523616e-01  -4.4054174e-01  -8.9565287e-02   4.5119392e-01   2.2492891e-01   4.7233891e-01  -9.2492184e-01   4.8091935e-01  -6.1920199e-01   9.7462856e-01   1.1236559e-01  -4.4599459e-01   4.6724139e-01  -5.7868849e-01  -8.4955958e-01   7.6522390e-01   1.8154122e-02   1.2760175e-01   2.0398441e-01   1.6572886e-01  -7.8211686e-01   7.3015738e-01   9.6468017e-01  -2.1166327e-01  -5.5301317e-01   4.5992583e-01  -4.3605056e-01   2.5157624e-01   7.3097039e-01  -4.7662306e-01   3.5416666e-01  -9.8206534e-01  -4.8697929e-01   9.1041875e-01  -4.1724596e-01   5.2695552e-01  -9.3875084e-01   4.8717636e-01   7.5454428e-01   7.7149144e-02  -8.6970041e-01   5.1066132e-01   5.9522385e-01  -9.3281710e-02  -3.4997018e-01  -7.5617798e-01   4.2861385e-01  -6.1027237e-01  -2.9513068e-01   7.4579433e-01   9.1483076e-01  -1.0742927e-01  -8.3537979e-01  -1.6825188e-01   9.7265923e-01   4.8893186e-01  -2.3690138e-01   9.2942000e-01   6.7956393e-01  -4.9171331e-01  -9.9299354e-01  -9.8541451e-01  -1.9023743e-01   2.1199884e-01   5.6348798e-01   5.4265704e-01  -9.2777532e-01   5.8195628e-01  -5.3206231e-02   8.9994260e-01  -6.6895011e-01  -3.4110371e-01  -9.7553924e-01   1.2583145e-01   3.3814544e-01   4.7665962e-01  -6.7346658e-01  -3.8075067e-01   3.1399889e-01  -3.8565254e-01   3.4434201e-02   4.6915349e-01   4.2723242e-01   9.9749762e-01   4.6823942e-01   5.0656380e-01  -4.1610679e-01  -9.8156814e-01  -2.2644157e-01   2.7117482e-01  -7.7174674e-01  -8.5838711e-01   7.1518070e-01   2.3451645e-01   9.7001133e-01   1.1945572e-01   8.7025664e-01   3.3312355e-01  -2.8560714e-01  -4.6687440e-01  -6.4144470e-01   7.2517345e-01   9.8988597e-01  -5.0082375e-01  -3.1253187e-02   3.2774557e-01   2.6864232e-01   1.4149283e-01  -3.0179616e-02   9.6108011e-01   1.1025496e-02   9.6299040e-01  -1.6739447e-01   8.4591284e-01  -1.0771386e-01  -3.8974701e-01  -1.9332952e-01  -6.5219627e-01  -8.2938885e-01   9.9169191e-02  -7.0027708e-01  -5.6701246e-01  -3.7914076e-01   2.0104258e-01  -5.5320973e-01  -6.3492695e-01  -6.5327368e-01   5.0501273e-01  -7.8766611e-01   9.7804978e-02  -5.7926442e-01  -6.5350658e-01   4.0493059e-01   9.5950152e-01   7.9773184e-02   4.3711913e-01   4.3657212e-01  -6.9771639e-02  -4.5712797e-01   4.0095809e-01  -4.1709696e-01   6.6235112e-01   3.3469921e-01   1.9941186e-01  -6.8271930e-02  -9.2815238e-01   8.0523728e-01  -5.4309404e-01  -9.2274003e-01  -7.5676211e-01  -1.4478570e-01   7.1243391e-01   1.6353631e-01   1.2510321e-01  -6.7945887e-01  -4.2553513e-01   9.6005994e-01   2.0117357e-02  -5.5299985e-01   7.5539090e-01   8.3744352e-01   8.5209392e-01  -1.9797927e-01  -2.0683958e-01  -8.3604669e-01   7.5056386e-01   5.4870043e-01   2.4214808e-01   6.7849714e-01  -3.1170647e-02   7.4276470e-01   6.0847865e-01   9.7848942e-01  -8.6433214e-02  -2.5772316e-01   8.3644310e-01   8.3745195e-01  -5.2409002e-01   5.9440054e-01   6.4681573e-02   4.1441937e-01  -3.2687601e-02   4.4763806e-01   7.2224509e-01  -8.7364764e-01  -5.9445295e-01  -5.5772934e-01   9.4712260e-01  -3.5251032e-01  -3.3868836e-01  -3.0532411e-01   9.1965745e-01  -9.1207475e-02  -3.0103152e-01   8.5986348e-01  -7.2672113e-01  -5.2645955e-01  -7.5434155e-01  -7.5187588e-01  -6.8243283e-01   5.9309592e-01   2.4541312e-01  -2.7548028e-01   6.7038324e-01   6.7375023e-01   5.5187313e-01   1.2199051e-01   6.6785360e-02  -2.7682340e-01  -4.5192587e-02  -2.7932926e-01  -5.2438233e-01   8.4361990e-01   5.2911543e-01  -1.1237786e-01  -3.5301815e-01   5.9875762e-01   1.5332867e-01  -7.5965298e-01   2.1982229e-01  -7.3109405e-01   8.2324363e-01  -2.5342567e-01  -8.9634725e-01   3.2913931e-01  -9.1145646e-01   4.4565559e-01  -3.2524585e-01   1.3430446e-01   3.8178913e-03   6.1075372e-01   6.0057744e-01  -3.1632333e-01   4.0450737e-01   1.5464744e-01  -9.0670211e-01  -6.4101450e-02   2.5828587e-01  -1.2456670e-01  -9.8599118e-02  -5.0958465e-01  -5.0955496e-01   9.5112864e-01  -8.1758650e-01  -6.7854056e-01  -2.0140020e-01  -9.4049934e-01   7.7035991e-01  -7.0812212e-01   1.6108439e-01  -8.3555873e-01   6.1260879e-01  -2.5095012e-01  -8.9951337e-01   7.4556057e-01  -4.7446677e-01  -9.8589505e-01   2.5833078e-01   2.6640503e-01  -3.7049873e-01  -2.6607849e-01   2.2721002e-01   1.5249121e-01  -3.0056188e-01   9.2406301e-01   6.5406139e-01  -1.5184915e-01  -6.4727917e-01   8.7804850e-01   4.6681710e-01  -2.5891680e-01   3.2199046e-01   3.3153060e-01   2.4291738e-01   4.3814916e-01   4.7147929e-01   9.2005151e-01  -2.0050907e-01  -5.1424446e-01   8.1225363e-01   7.0933980e-01   9.6386521e-01   2.6249308e-01  -6.6604412e-01   6.2528859e-01  -5.3450674e-01  -9.5320356e-01  -6.8836810e-01   1.9880257e-01  -3.8859519e-01   2.1627309e-01   8.8701195e-03   3.3734619e-01   8.3364437e-01  -8.2462173e-01   2.6036927e-01   5.8258924e-01  -1.1453089e-01   5.9818781e-01  -7.9552135e-01  -3.6026464e-01   6.8532531e-01   8.6056566e-01  -7.1165333e-01   6.8963814e-01  -8.1466635e-01   5.1483283e-01   7.4821670e-01  -3.8412368e-03  -8.4949443e-02  -2.6671844e-01  -3.4150698e-02  -9.7320837e-01   4.9515448e-01  -5.2296970e-01   6.6294505e-01   3.8813902e-01   5.8289918e-01   6.5407357e-01  -4.0212879e-01   6.5138441e-02  -8.7468107e-01  -6.1834243e-01   3.0117955e-01   2.4936769e-01  -6.8495227e-02  -2.3213402e-01   8.6138352e-01   7.2058484e-01  -1.1335267e-01  -3.7101285e-01   5.6534982e-01   8.2581474e-01   7.9814592e-01  -7.9238041e-01  -8.7987895e-01   3.8592151e-01  -8.6405949e-01   2.6748234e-01  -2.8864114e-01  -1.6107326e-01  -2.1484126e-01  -5.9827346e-01  -9.6383410e-02   9.0738513e-01   1.0892943e-01  -4.4227161e-01   4.7728931e-01   7.9312748e-01  -3.9957781e-01   7.2822372e-01   3.4239111e-01  -1.5221664e-01   4.4464886e-01   1.1062400e-01  -5.8890688e-01  -3.5083848e-01   3.9460912e-01   6.4603354e-02   1.3443833e-01  -4.7171786e-01  -3.0920565e-01  -6.7848120e-01   2.8124362e-01   2.6176645e-04   8.2533748e-01   1.3926143e-01  -5.3096093e-02   9.0911997e-01  -1.9081817e-01   4.8659074e-01  -2.1561331e-01  -4.6711516e-01  -1.5265114e-01   3.3645433e-01   6.8202917e-01  -3.5495916e-01   9.6669181e-01   4.5900402e-01  -4.8981119e-01  -1.2850053e-01   8.8532625e-01   9.8809013e-01  -2.8296921e-01  -8.1061751e-01  -5.5127381e-02   8.3046041e-01   5.5795339e-01  -9.7488553e-01   6.3421241e-01   4.3383888e-01   1.2707956e-03   4.6737871e-01   3.4070613e-01  -1.0955941e-01   8.6233743e-01   7.7382417e-01  -7.9918576e-01   1.3502881e-01  -6.8081328e-01   2.2099073e-01  -6.0860136e-01  -8.7073671e-01  -3.9947768e-01   5.9413301e-01  -9.4240016e-01   2.3666365e-01  -8.1917785e-02  -1.4863154e-01  -2.8973599e-01   9.9537169e-01  -7.6596006e-01   9.3150193e-01   4.1308701e-01  -2.6184386e-01  -4.9209576e-01  -9.3847815e-01  -4.4851728e-01  -1.4906880e-01   5.3016620e-01  -8.8662851e-01  -4.2732230e-01  -8.2888458e-02   2.4422736e-01  -9.2212038e-01   3.0322577e-01   4.0355340e-01  -3.3328188e-01  -1.9558901e-01   2.8249928e-01   3.8860275e-01   2.1148004e-01  -8.5052381e-01  -1.6281957e-01   3.5080970e-01   3.0938335e-01  -9.4386125e-01   7.2489085e-01  -3.9169812e-01   9.1465908e-02   3.3390768e-01  -3.1173322e-01  -3.5685794e-01   6.6365363e-01  -2.1948802e-01  -5.8510779e-01   8.4330827e-01   6.7700318e-01   4.1744769e-01   6.3117110e-01   2.3015691e-01   7.3049933e-01  -7.6862045e-01  -3.5635573e-01  -5.7467847e-01   4.8621574e-01  -5.7769607e-01   9.1057816e-01   9.1183733e-01  -4.8815553e-01  -6.0248267e-01   7.6400299e-01   1.6693360e-01   5.7076527e-01   8.3580411e-01   1.4177843e-01   9.4403046e-01   5.2275997e-01   6.5185281e-01  -3.2798600e-01   2.2717618e-01  -6.1004524e-02  -4.9203555e-01   7.7510198e-01   2.4838700e-01  -6.7833358e-01   9.1426176e-02   9.3278299e-01   1.4229070e-01   8.8523864e-01   8.4999197e-01  -7.1723162e-01   1.3678986e-01  -1.8243549e-01   5.4460499e-01   9.2142846e-01   3.9312866e-01  -1.9993791e-01  -4.2958748e-01   4.7795099e-02  -8.2828311e-01  -4.6095913e-01  -5.8731941e-01   8.1404182e-01  -8.5267061e-01  -4.6143836e-01  -7.1408972e-01   5.4569933e-01  -7.0298718e-01   9.2722597e-01   4.4955352e-01  -6.9173067e-01  -9.4329542e-01  -6.3356034e-02   7.2975143e-01  -4.7744275e-01  -3.0986067e-01   4.8097599e-01  -5.7699907e-01   3.6466677e-01  -7.9345210e-01   2.1174997e-02  -7.8036486e-01   4.0329796e-01  -9.8890810e-01   1.2619613e-01  -9.3355396e-01  -7.5946434e-01   8.4292785e-01  -5.5319086e-01   4.5506530e-01  -9.7343932e-01   9.9816275e-02   6.5185047e-01  -7.3455955e-01  -5.4613555e-01   5.0396724e-01   3.7012468e-01  -5.1711381e-01  -5.7467097e-01  -1.6570829e-01  -5.5307512e-01   6.0465324e-01  -6.8278429e-01   3.1496521e-01   7.0757315e-01  -1.4871328e-01  -7.9609896e-01  -7.7330707e-01   6.5973990e-02   8.6502217e-01   8.7061667e-01   9.4774217e-02   4.4762857e-01   9.1695811e-01  -4.9103948e-01   2.1194594e-01   3.4606884e-01   2.3712311e-01  -9.5512298e-01   4.8407385e-01   1.6428925e-01   7.7973116e-01   3.4503568e-01  -3.8894383e-01   6.6634222e-01  -8.9196362e-01   9.9098397e-01  -6.3512184e-01  -5.5205804e-01  -2.1839883e-01  -3.7302260e-02   2.6389826e-01   9.1518094e-01  -1.1364250e-01   8.1177329e-01   4.7572994e-01  -8.4256686e-01   6.8486600e-02   4.2427162e-01  -8.3632966e-01  -2.4910699e-01   7.3570179e-02  -6.5884804e-01  -5.6612750e-01  -6.4300458e-01   5.1488577e-01  -7.3945971e-02   5.7202643e-01  -2.6913304e-01  -9.5834058e-01   7.3287220e-01  -4.6835499e-01  -3.9132169e-01  -9.0016494e-01  -8.6198133e-01   2.9521030e-01  -2.5797461e-01   2.3538542e-01   2.3237690e-01   8.7406716e-01  -5.9087227e-01   8.7039771e-01   3.9873488e-01  -6.2088614e-01  -7.3197190e-01   7.8934433e-01   6.8878090e-01  -2.1147425e-01   1.9483731e-01   5.1053067e-03   4.5178847e-01  -6.8832825e-01   8.8199147e-01   7.0966149e-01   2.3685199e-01  -1.0494695e-01  -8.5446866e-01   6.4703037e-01   1.1727560e-01   7.2477469e-01  -2.8299432e-01  -8.9024097e-01   6.8668357e-01  -8.5590783e-01  -7.7970674e-01   4.2694500e-01  -8.5016899e-01   1.1261567e-01  -5.2821431e-01   1.8411830e-01   6.2984057e-01   9.3490666e-02   5.5475217e-01   7.7926326e-01   2.7419778e-01  -8.1856219e-01   4.7034523e-01   9.9878695e-01   6.8567599e-02   2.3410809e-01   8.7076010e-01  -2.5898481e-01  -8.3593255e-01  -9.3500566e-01  -6.4979860e-01   2.9291658e-01   8.5088858e-01  -9.3950481e-01   3.7020253e-01   1.1463848e-01   1.6756509e-01   2.6773265e-01  -2.0884007e-01   8.7463535e-01  -1.6389149e-01   2.0029031e-01  -3.3048466e-01  -5.7995175e-02   5.5506501e-01   2.4373172e-01  -7.0572482e-02   7.1603291e-01  -1.7158370e-01   2.2583791e-01   9.8265627e-01  -6.3620731e-01   8.2943233e-01   2.5467440e-01  -2.0015150e-01   8.5714581e-01  -1.9199052e-01   2.4827054e-01   2.2616548e-01  -8.0795934e-01   7.3406364e-01   8.5263540e-01  -2.3739662e-01   1.3057571e-01  -3.7689136e-01  -6.6380012e-02  -9.1407421e-01   1.5678468e-02   6.4211153e-01  -1.5436295e-01   1.5418330e-01   7.1842266e-01   1.3115508e-01  -5.6992081e-01   9.9011948e-01  -9.1080618e-01   5.6389174e-01  -4.8421977e-01  -4.4116816e-01   1.9384761e-01   9.5513748e-01   8.5132702e-01  -6.1136561e-01  -7.6434989e-01  -7.5437762e-01   7.4784052e-01   7.0601839e-01   7.3799669e-01   5.1704166e-01   4.0805282e-01  -3.1946579e-01  -3.8502564e-01  -1.7723322e-01  -3.5003339e-01   1.5426284e-01   7.9528051e-01   5.4841832e-01  -6.4303336e-01  -9.1820745e-01  -5.5285421e-01  -1.1011156e-01  -8.0607260e-01  -8.9250552e-01   2.9446507e-01  -9.7481413e-01  -3.0987390e-01  -1.2477296e-01  -8.0447158e-01   1.3787547e-02   9.9978571e-01  -3.8421811e-01  -6.4697341e-01  -2.9246198e-01  -7.1235601e-01   3.6374789e-01   2.1985094e-01  -7.5121452e-01  -2.5129412e-01  -9.3679141e-01   2.3876428e-01   9.4638839e-01   2.0198050e-01  -5.0581894e-01  -3.3803658e-02  -8.3120628e-01   3.6101921e-01   7.2367511e-01   4.6389560e-01  -3.2887179e-01   9.6289687e-01   6.7312329e-01   6.6464491e-01   6.1943779e-01  -6.7027837e-01  -9.9718509e-02  -5.9822382e-01  -4.1152889e-01   8.4882441e-01  -2.5326312e-01  -6.2389789e-02  -6.1497446e-01  -1.4533443e-01  -1.9749451e-01   8.6429393e-01   5.6713409e-01  -9.7308029e-01  -3.5910554e-01   8.3731148e-01  -7.6123593e-01  -8.3954972e-01  -1.4356829e-01   3.9890081e-01   7.5779326e-01  -1.1941703e-01  -5.0737560e-01  -7.8559495e-02  -1.5484031e-01  -1.4848586e-01   5.9647956e-01  -8.4671136e-01   6.8033743e-01  -8.5559818e-01  -7.7891858e-01  -4.5190289e-01
  -7.4552136e-01  -9.3017573e-01  -4.1189084e-01   2.2519655e-01   3.5353587e-01   1.4881289e-01  -9.4926045e-01  -6.0733172e-01  -9.1567612e-01   9.3499326e-01  -7.2401880e-01  -7.4338109e-01   5.0625430e-01  -8.1420140e-01  -1.3224654e-01   4.8256688e-01  -1.3058248e-01  -1.7728465e-01  -8.6447389e-01  -4.0146587e-02   3.4826050e-02  -1.0915676e-01  -6.1959744e-01   2.8658169e-01   5.7022542e-01   2.9059861e-01   4.4903485e-01   4.9400671e-01  -3.0890631e-01   7.2827836e-01   1.2805764e-01  -2.4109804e-01  -7.2254590e-01  -2.0671504e-01   7.2692858e-01  -3.3573343e-01  -8.8791185e-02  -7.5772046e-01  -8.5536736e-01  -8.9505969e-01   4.4280962e-01  -6.1537746e-01  -5.5670721e-01  -5.2481842e-01   1.5948713e-01  -6.1642470e-01   3.2952895e-01  -6.9833268e-01   6.5528497e-02  -4.3206556e-01   4.7264809e-02  -8.9410941e-01  -3.7132572e-01   9.3418218e-01  -1.1434663e-01   9.2259315e-01  -3.6271370e-01   7.2340069e-01  -4.2781914e-01  -2.5016297e-01  -9.7354909e-01   9.5711681e-01  -6.3067677e-01  -4.2075074e-01  -5.2362164e-01   9.2590517e-01  -1.5736259e-01  -1.0862041e-01   3.3845648e-01   7.7725201e-01   7.5368092e-01   4.0200158e-01  -1.6795250e-01   7.3763366e-01   2.8981258e-01  -7.2939331e-01   4.4136211e-02   9.1802016e-01   1.5978300e-02  -6.2624907e-01  -3.2874747e-01  -9.2630513e-01  -8.5218911e-01   2.3297983e-01  -5.8317047e-01   2.4914491e-01   2.8846983e-01  -1.6252155e-01  -9.3910985e-01   1.3582094e-01   2.6300847e-01  -2.6012071e-01   3.6544089e-01  -8.1822892e-01  -2.3221524e-01   4.3193707e-01  -5.8331653e-01  -3.5429915e-01   6.5062009e-01   1.9625740e-01   2.8213344e-01  -4.9666946e-01   8.7777016e-01  -5.1875043e-01   2.6091373e-01   1.7493216e-01   6.1892930e-02   1.9056747e-01   2.0795599e-01   5.9244112e-01   3.8883690e-02   1.1524943e-02  -7.8059673e-01  -6.8705257e-01   3.7079851e-01   8.3103387e-01  -7.3934051e-01  -9.3009094e-01  -6.4693988e-01  -2.3716763e-02  -5.7116667e-01   8.0994773e-01  -4.6214720e-01   5.8794682e-01   9.7817042e-01  -8.1616618e-01  -1.6895682e-01  -8.1262033e-01  -4.0001673e-01  -1.4051396e-01   2.5160325e-01  -9.0238155e-01  -1.8647625e-01   9.0428199e-01  -1.2076830e-01   9.9564858e-01  -4.2614324e-01  -1.0506126e-01   8.9270397e-01   8.1507865e-01   9.7951215e-01   2.7922923e-01  -5.0195935e-01   4.8413325e-01   3.7617001e-01   2.6955166e-01  -6.7157000e-01   2.5480014e-01   6.6886676e-01   2.7822411e-01  -4.4908761e-01  -8.7919104e-01   3.5273355e-01  -2.6109165e-02   1.5709740e-01  -9.0589129e-01   5.0564459e-01   5.2224791e-01   3.5694666e-01   2.0859013e-01  -8.9262995e-01   3.7358640e-01  -1.2499600e-02   6.7557912e-01  -2.5704232e-01   2.5735989e-01  -7.0567790e-01  -9.9207649e-01  -3.5394565e-01  -5.8434138e-01  -1.9761655e-01   4.6900131e-01  -6.8155314e-01  -3.8525876e-01   7.4107427e-01  -3.3220796e-01   5.9396979e-01  -6.3424538e-01   1.7635790e-01   1.6352067e-01  -3.7201192e-01  -9.9577399e-01  -3.1845669e-02   8.2283533e-01   4.4769958e-01  -1.0824521e-01  -9.4726893e-01   1.3703641e-01  -9.7391687e-01  -3.9174022e-01   2.4106079e-01  -4.6201688e-01  -6.4563225e-01   4.5504338e-01  -3.9843345e-01   1.3023582e-01  -6.4841325e-01   1.1348888e-01   2.0843782e-01   7.0708570e-01  -5.4855083e-01  -1.2700524e-01  -8.2889396e-01   9.5554041e-01  -6.3674587e-01  -3.3128787e-01  -6.0347534e-01  -3.1417563e-01  -6.6521317e-01  -2.3552035e-01  -2.3853418e-01  -2.4918422e-03  -4.8954324e-02   3.3703883e-01   2.0338569e-01  -2.2107440e-01  -3.4125234e-01   1.9280508e-01   5.7927517e-02  -4.9525559e-01  -3.8903619e-01   4.7674252e-01  -6.7856369e-01  -8.4756831e-02   5.9765467e-01  -8.6798327e-01   4.8007778e-01  -7.4676480e-01  -7.0731057e-01  -6.3621173e-01  -4.2989823e-01   1.9208057e-01   9.0053798e-01   4.3915079e-01   1.1179066e-01   8.3005914e-01   3.7246821e-01   8.2370295e-01  -7.8103912e-01  -2.5878206e-01  -7.0811919e-01   8.5309186e-01   8.4913564e-01   8.2876056e-01   4.9771381e-01  -6.7199912e-01  -4.7562597e-01  -8.2977940e-01  -2.3927326e-01   4.7236414e-02   1.8712299e-01  -8.4855675e-01  -8.0782002e-01  -8.2487175e-01   2.3105236e-01  -4.7667465e-01  -2.9678102e-03   3.5474867e-01  -1.4265034e-01   8.5494374e-02   5.5543515e-01   1.0679426e-01  -1.9693766e-01   2.2484134e-01   3.6243100e-01   8.8568221e-01   1.2066520e-01   6.5058696e-01  -6.9673121e-01   7.1945044e-01   3.8447112e-01   7.8091339e-01   7.6678526e-01  -9.1774079e-01   1.5394144e-01  -3.9106597e-02  -4.7529255e-01   1.5683543e-01  -8.5675448e-01   6.4746982e-01   6.3645877e-01  -8.8463419e-01  -1.7815002e-02  -9.7795769e-01  -3.3814044e-01  -6.3636778e-01  -7.4004337e-01  -6.1369805e-01  -2.3233281e-01  -2.4088678e-01  -4.6509212e-01  -1.9563201e-01  -7.6264010e-01  -6.7050540e-03   2.6468577e-01  -6.5261394e-01   2.4828938e-01   3.0866050e-02  -3.4911595e-01   5.6673535e-01  -2.1661715e-01   5.2843397e-01  -7.2823068e-01  -8.1707095e-01  -2.9321955e-01  -4.8173728e-01   2.1282012e-01  -9.2077383e-01  -1.5240852e-01   3.7809875e-01  -4.6890014e-01   8.1053924e-01  -9.6644676e-01  -5.1006242e-02  -5.2272000e-01  -8.0388035e-02   2.5584731e-01   8.3917337e-01  -2.4879544e-01   2.0431739e-01   3.8387006e-01  -8.7458730e-01  -4.0462356e-01   8.3293927e-01  -6.0009906e-01   9.1574786e-01   7.9751552e-01  -1.1189813e-01   7.4413010e-01  -2.4748626e-01  -3.2672264e-01   5.9240763e-01   6.9038635e-01   4.8438096e-01   5.7033133e-01   9.0983965e-01  -2.2076356e-01  -4.0445294e-01   2.1576954e-01   2.4725507e-01   7.6707530e-01   7.0817565e-01  -3.8139880e-01  -4.6540238e-01   3.7058165e-01  -3.3565422e-01   7.2996502e-01  -4.1919505e-01   6.7414354e-01   5.6845586e-01  -1.4798067e-01  -7.3372864e-01   2.7692027e-01   3.8965436e-01  -1.7898533e-01  -8.4700044e-01   7.8366835e-02  -9.0072693e-01  -4.6113919e-01   2.2045347e-01   8.7524016e-01  -7.5906003e-01  -9.7992254e-01  -9.5523057e-01  -1.3325041e-01  -4.3959917e-01   2.4758996e-01   9.0537748e-01  -1.5493974e-02   8.8954442e-01  -8.2752246e-01  -7.0479191e-01  -7.2887051e-01  -3.0349062e-01   2.4616421e-02  -8.4062263e-01   3.5422643e-01  -5.7443959e-01   4.5697944e-01  -6.9952676e-01  -6.7429731e-01   8.3429136e-01   3.8800596e-01   8.7088629e-01  -5.5966204e-01  -2.8996245e-01   7.7166710e-01   3.7120865e-01   7.2216236e-01   2.3738384e-01  -2.5109808e-01  -7.4090227e-01  -4.9120330e-01   5.0260519e-01   3.0975873e-01   3.5315751e-01   8.8349108e-01  -6.8681585e-01  -3.5910763e-01  -3.5205005e-01  -6.1385139e-01   7.4783048e-01  -5.4853346e-01  -5.8129835e-01  -1.5281099e-01   5.2302188e-02  -7.8118260e-01  -5.6427487e-01   5.5980356e-01  -4.8071422e-01   4.5586744e-01  -3.0155661e-01   6.8804056e-01   4.8768119e-02  -1.3308811e-01   5.3392166e-01  -7.3840535e-01  -2.3723042e-01   5.5694977e-01  -8.5628726e-01   9.4019278e-02   5.1970234e-02   5.6449104e-01   7.2223032e-01   4.6254817e-01  -5.3116184e-01  -4.1063730e-01   3.0388446e-01   2.6789645e-02   2.3743060e-01  -6.1259411e-01  -2.5054047e-01  -3.3671799e-02   1.6422935e-01  -6.2846532e-01   7.3819169e-01  -4.9422791e-01   3.1781800e-02   4.7915444e-01   5.0479656e-01  -4.4241450e-01   6.2861589e-01  -3.3506965e-01   7.0125769e-01   2.6653760e-01   9.8356982e-01   5.4212618e-01  -3.1527129e-01   9.9351843e-01  -3.1201429e-01   6.7061986e-01   5.1915796e-01   9.4438432e-01  -9.9053838e-01  -9.5928405e-01   6.4527535e-02  -3.2252659e-01   8.8319292e-01  -3.7790956e-01  -5.1128579e-01   8.8259852e-01   5.6554053e-01  -8.0767466e-01   4.9620672e-01  -7.4061326e-01  -4.6530141e-01   7.0984550e-01  -6.1329006e-01   3.9650078e-03   5.5252438e-01  -2.3039983e-02   2.7265710e-01  -1.4265954e-01   9.1829194e-01   7.6975358e-01   4.6592518e-01  -5.5605694e-01   3.0853653e-01   2.3759517e-01  -3.7191831e-01   8.7247822e-01  -3.0714121e-01  -3.6955598e-01  -5.1161879e-01  -6.2912942e-01  -1.4693228e-01  -6.0773234e-01   5.1075334e-01  -7.3126288e-01   2.7489477e-01   4.1589555e-01   5.7732751e-01   2.6231339e-02  -2.1920262e-01   7.9400270e-01  -5.1580505e-01  -2.0081325e-01  -7.8029095e-01  -5.2347922e-01   4.6127461e-01  -5.8622606e-01   8.1943199e-01   2.2449649e-03   4.0347266e-01   3.3187066e-01   2.2831833e-01   3.4879871e-01  -8.4124731e-01  -3.8494374e-01  -3.5152854e-01   2.2910985e-01   9.0433783e-01   4.8670464e-01   7.2713560e-01  -4.5392181e-01  -1.4163087e-01  -2.7890007e-01  -8.0802004e-01   4.6228841e-01   3.3908292e-02  -5.7275975e-01   8.4065816e-01   7.5336758e-01  -8.1838479e-01  -5.1742347e-01   4.3694418e-01   4.5690745e-01  -5.3953114e-01   8.8252262e-01   4.5745680e-01  -9.3242958e-01   7.7051309e-01   3.8396268e-01   6.2867594e-01   5.3896172e-01  -5.3182899e-01  -9.1423369e-01   9.4650741e-02  -4.8880295e-01  -8.6756776e-01   1.2710072e-01   4.2399794e-01  -5.9504528e-01   6.4073126e-01  -5.2439127e-02  -9.5201422e-01  -8.2535339e-01   2.5174990e-01  -4.9463732e-01  -5.5030287e-01   6.6349427e-01  -2.1146999e-01  -2.1353011e-01  -3.5815040e-01   2.4874834e-01   1.3307718e-01   4.6391425e-01   2.8454226e-01  -2.8686424e-01   6.5929820e-01  -1.9049162e-01   6.2853762e-01   3.5150828e-01   8.9050893e-02   4.4826718e-02   6.0467783e-01  -4.5121656e-01  -8.6444227e-01   3.7324097e-02  -2.7784653e-01   4.1926975e-01  -9.6661652e-02   3.3162714e-01  -2.5971780e-01  -6.4453287e-01  -9.8919970e-01  -5.5664220e-02  -1.8284252e-01   4.9745680e-01   7.4426729e-01  -5.7477166e-01  -4.2746792e-01  -8.4067358e-01  -1.1970665e-02  -8.6047126e-01  -4.6091743e-01   6.7198615e-01   8.0363887e-01   7.5199392e-01   5.4350581e-01  -7.1627185e-01  -2.2198460e-01  -8.4148336e-01  -5.1770817e-01  -6.3950473e-01  -8.0076059e-01   3.5208644e-01   5.4287893e-01   4.0156705e-02  -1.2352990e-02  -2.2713569e-01   1.6379042e-01   2.7718392e-01   3.0909798e-01  -1.3828777e-01   8.2243354e-02   7.5684937e-01   3.4077781e-01   1.8949900e-01   3.1386900e-01  -8.0130714e-01   7.9541157e-02  -3.5641026e-01   9.4764862e-02   1.0078738e-01  -5.2514555e-01  -3.1611795e-01  -5.6372285e-01  -8.9796738e-01   7.3893928e-01   8.6518597e-01  -9.2480406e-01   9.3635674e-01  -4.0164877e-01   5.8472847e-01   4.3021791e-01  -6.2688015e-01  -1.0003170e-02   6.7313062e-02   5.1272056e-01  -1.6488813e-01   1.6134512e-01  -2.0259726e-01  -1.6448775e-02   9.5781707e-01   1.4687012e-01   9.0229881e-01  -2.7523973e-01  -8.8291372e-01   6.1994933e-01   1.5427104e-01  -5.8745241e-01  -2.0444604e-01  -2.9872856e-01   2.9995872e-01   2.6279570e-01  -6.4904472e-01  -1.6039024e-01   2.9387760e-01  -1.2363941e-01   5.8540567e-01   9.5886644e-01   2.4218841e-02   5.4648352e-01  -3.4730531e-01  -8.8841259e-01   7.8700147e-01   4.3762341e-01  -9.9580788e-01  -1.5506496e-01   9.5920153e-01   4.3574024e-01  -3.7132931e-01  -1.5086605e-01   8.9589780e-02   5.2804079e-01  -2.3429458e-01  -7.0348013e-01   8.5412481e-01   5.5024151e-01  -6.3664903e-01  -7.7997448e-01  -6.7189145e-02  -1.4242680e-01   5.3905997e-01  -1.2134759e-01   4.0247736e-01   9.9834767e-01   7.1512490e-01   7.8214622e-01  -8.9660732e-01   2.5674736e-01   6.0413454e-01   7.8690098e-01   8.3931855e-01  -3.9841020e-01   2.6515203e-01  -7.6131654e-01  -8.5474224e-01   7.2682175e-01  -1.8199092e-01  -7.6369118e-01   4.4239177e-01   6.9123300e-01   9.2003839e-01   5.9666166e-01  -6.9828094e-02   3.0168323e-01  -2.3647149e-01  -7.1187828e-01  -1.4569409e-01  -3.3085617e-03  -8.2130893e-01   5.7522293e-02  -7.7425187e-01   1.3215857e-01   7.6351188e-01   7.9370247e-01   8.4094597e-01  -8.6471844e-01   9.5949550e-01  -4.8870231e-01  -2.9607469e-01   4.6066994e-01   2.6751081e-01  -3.6909118e-02  -7.2414666e-01  -3.4016071e-01  -1.9388809e-01  -4.7036780e-02   4.1477600e-01  -3.2396866e-01   1.8139490e-01  -7.3829605e-01   7.5734427e-01   5.0106253e-01  -1.6830416e-01  -7.2899959e-02   8.7546287e-01   9.3140470e-01   2.6052348e-01   2.0321684e-01  -8.5766839e-01   3.8822742e-01  -1.5793256e-01  -6.1077978e-01   8.2440163e-01   5.2143508e-02   9.2256675e-01   6.9409353e-01   9.0196794e-01  -6.2418975e-01  -7.3398030e-02  -5.8194396e-01  -3.9910357e-02  -3.0116899e-01   9.4025598e-01  -7.6019476e-01   3.6984565e-01  -5.3698468e-01   3.0854626e-01  -4.4657461e-01  -1.4855038e-01   8.9905850e-01  -2.3789973e-01   5.0637059e-01  -9.8700132e-01  -6.1725800e-01   2.4459475e-03   6.8355183e-01  -7.1080258e-01   8.3486668e-01   1.1203940e-01   1.5486908e-01  -2.7315105e-01  -7.0624413e-01  -8.2330648e-01   8.1771354e-01  -3.1606729e-01   2.3614308e-01  -8.4530425e-01  -1.3684166e-01  -4.1433523e-01   3.4331792e-01  -6.9001337e-01   7.6663341e-01   3.4136963e-01  -4.3148303e-01   2.0849621e-01  -2.5521188e-01  -3.0487582e-01  -4.2204791e-01   4.6206040e-01   3.2861924e-01   5.5517396e-01  -2.5498227e-01  -8.2983619e-01   3.6560308e-01  -7.5375168e-01  -5.4940284e-01   8.5836832e-01   4.0039782e-01  -9.5299274e-01   7.7140982e-01   3.5379330e-01   7.4387879e-01  -4.0723204e-01  -2.5897849e-02  -8.0619809e-01  -9.2923568e-01   5.5423019e-01   5.8742674e-01  -1.8995384e-01   2.4939281e-01   9.7988209e-01   2.8933077e-01   5.0177558e-01  -6.4628350e-01   9.4941961e-01  -8.1412193e-02   7.3692873e-01   9.1129947e-01  -1.2002835e-01  -3.3305716e-01   8.6417056e-01  -1.9406032e-02   6.3532728e-01   4.4811758e-01  -6.4441580e-01  -9.6254790e-01   8.9626337e-01  -8.3379524e-01  -9.2888285e-01   7.9170893e-01   7.7683755e-01   6.1216514e-01   1.9179592e-01   3.6208367e-01   7.2414643e-01   5.0508198e-01  -2.5250449e-01   5.2589186e-01  -6.7000051e-02  -5.9525584e-01  -4.5442427e-01   2.4504599e-01  -6.0864570e-01  -8.5252132e-01   4.1403346e-02  -5.6680380e-01  -6.3222411e-01  -4.2615662e-01   6.0571539e-01  -4.6805533e-01  -5.1165166e-01   6.5445829e-01  -5.4874062e-02   5.3079266e-01  -8.6690828e-01  -1.4731076e-01   9.5266897e-01  -4.5701966e-01   6.5295341e-02  -5.8497065e-02  -1.8047870e-02   5.0792746e-01  -8.3399059e-01  -3.3023583e-02   3.4702853e-01   5.0501680e-01  -5.2590044e-01   5.3997277e-01   7.5728301e-01   6.9429022e-01  -5.8314435e-02  -6.9604742e-02   8.1661335e-02   5.8874871e-01   4.8537240e-01   2.8559456e-01  -5.9466725e-01  -9.2240426e-01  -9.6790699e-02   7.4141313e-02   9.4958035e-01   6.0393807e-01  -8.3747367e-01   1.5007425e-01   1.4913105e-01  -2.4715195e-01   7.7883935e-01  -7.6239160e-01  -6.6324811e-01   2.9166633e-01   8.1055925e-01  -6.7816189e-01  -1.9259726e-01  -1.4124228e-01  -4.2178569e-02  -7.0922116e-01  -5.3208781e-01  -7.1832974e-01   3.4970651e-01  -3.4640563e-01  -7.8936272e-01  -5.4937053e-01   2.4147161e-01  -4.9343354e-01   2.5311730e-01  -5.8909820e-01  -2.7790714e-01  -9.2238559e-02  -1.7185521e-01  -4.8409617e-01  -1.9034512e-01  -4.2815598e-01  -1.2771454e-01  -2.1118565e-01  -8.6780355e-02   2.1562801e-01  -6.3524690e-01   3.5704194e-01   5.6252777e-01  -7.4227667e-01   3.4257896e-01  -6.4217507e-01  -4.5917145e-01   5.4966604e-01   3.4972910e-01  -5.5833581e-01  -6.3288390e-01  -9.1654150e-01   1.2749574e-01  -3.9974941e-01   6.9826736e-02  -9.1321030e-01  -9.0731648e-01  -6.9016829e-01   9.7731134e-01  -1.1178318e-01   8.4623431e-01   7.2815441e-01   8.0321517e-01  -3.5272197e-01   9.3235252e-01   9.4884825e-01   8.8178464e-01  -9.7967130e-01   8.7773779e-01   5.9360021e-01  -6.4442735e-01  -5.2642848e-01  -5.5165114e-01   3.8125543e-01  -9.5833050e-01  -8.9413135e-01  -3.0317385e-01  -6.0595974e-01  -4.2296499e-01   2.5531712e-01  -8.5529046e-02   5.7905177e-01  -4.0680783e-01  -6.5573937e-01   9.6602863e-01   1.4928269e-01  -5.8150947e-01  -8.3066006e-01   3.4644709e-01   1.4067893e-01  -6.0194834e-01  -2.5047168e-01  -6.5073655e-01  -7.1700849e-01  -1.8353225e-01  -6.5966009e-01   3.2554304e-01  -7.6222470e-01   9.3100211e-01  -8.0067950e-01   5.8168920e-01  -6.5692794e-01  -4.2509015e-01  -8.2444583e-01   2.8849746e-01  -1.7971697e-01  -1.5708011e-01   2.1779573e-01   7.0637148e-01  -4.3613054e-01  -9.7948567e-01  -3.8271801e-02   3.7266142e-01   1.1118183e-01  -9.7784598e-01   2.5988539e-01  -3.1495759e-01   3.9510956e-01   8.9531453e-01   2.0541149e-02  -8.3258040e-01   6.4899672e-01   8.1056853e-01   2.6237447e-01   2.7568861e-01  -8.9065905e-01   1.1214173e-01  -6.8262828e-01  -7.8314190e-01   4.4276996e-02
   4.4578581e-01   8.8613034e-01   1.8699012e-01  -1.4937727e-01   3.6781383e-01  -7.1938279e-01  -8.1328271e-01  -7.2585360e-01  -3.5813733e-02  -4.8027423e-01   4.1392628e-01  -4.2428436e-01   9.9195859e-01   7.2629757e-01   5.5773046e-01   1.6098422e-01  -4.6766874e-01  -6.3294910e-01  -2.7734905e-01   9.9899405e-01  -5.6379692e-01   8.1343165e-01   8.3187729e-01  -5.1298663e-01   8.5083181e-01   9.0366756e-01   6.8474976e-01  -7.2921807e-01  -1.9930060e-01   4.6803514e-01   9.1775291e-01   7.2252116e-01   6.4535160e-02   3.4332274e-01  -5.8028612e-01   9.8890240e-01   7.6063674e-01  -1.7957599e-02  -5.6403510e-01  -9.1665846e-01   6.4222137e-01   3.1204208e-01  -7.2267233e-01  -3.8667462e-01  -3.3707645e-01   7.3379545e-01  -5.4028096e-01  -6.6442688e-01  -4.4981063e-01  -2.5598597e-01  -5.6018901e-01  -6.4241020e-01  -3.2403150e-01  -8.3372257e-01  -5.5413870e-01   7.6645833e-01  -9.6335434e-01  -8.1998533e-01   7.3280219e-03   2.1496654e-01  -2.6383082e-01   2.6131392e-01  -3.7239210e-01  -2.6327980e-01   3.3258883e-01  -5.9949943e-01  -7.9769466e-02  -6.2999087e-01   3.5391972e-01  -4.6562038e-01  -8.1644522e-01  -3.1898714e-01  -2.7121299e-01   5.5300918e-01   2.3946683e-01   3.5954239e-01  -3.6550254e-01   9.5374344e-01   1.7535278e-01  -5.1996402e-01   6.7992138e-01   9.6224473e-01  -3.1968535e-02  -1.5785345e-02  -9.2289565e-01  -5.7393816e-01  -7.9089857e-01  -2.8980417e-01  -1.7044874e-01   5.7801127e-01   7.1967927e-01  -9.4289667e-01  -8.1789172e-01  -2.3886171e-02   4.0733527e-01  -5.0755963e-01  -4.3482745e-01   1.7252855e-01   9.8894978e-01  -6.0441171e-01  -2.1439389e-01  -1.8999856e-01  -6.7403432e-01  -1.6131012e-01  -3.0609735e-01  -7.2825480e-01   8.5299466e-01  -2.5513517e-01  -2.8248070e-01   1.1810206e-01   4.7731713e-01  -9.3219661e-01   7.3357732e-01  -5.8895744e-01  -7.8020863e-01   1.4184907e-01   9.4394213e-01  -3.7819352e-01   6.0665585e-01  -4.3035933e-01  -8.1410948e-01  -2.7104363e-01  -2.8348320e-01   1.9862987e-01  -1.6077643e-01   3.9604937e-01  -5.4061383e-01  -1.3216306e-01   5.5554505e-01   1.9009330e-01   7.9052683e-01   4.5391889e-01  -3.9825160e-01   9.4742834e-01   5.4855128e-01  -1.5265445e-01   7.3198343e-01   3.6320016e-01   7.3673738e-01  -9.6986374e-01  -5.5632286e-01   1.2930027e-01  -7.7844612e-01   9.4184762e-01   4.0789689e-01   9.0327836e-01   6.4128650e-01   7.6932199e-01   9.2226249e-01   6.9673689e-01  -6.5661819e-02  -9.0897775e-01   3.5605400e-01   9.6655861e-01   6.8986400e-01   1.3616193e-01  -9.2322987e-01  -3.7886793e-01   1.3153507e-02  -8.6927766e-01   6.6027117e-01  -3.9951248e-01  -4.9368142e-01  -4.5575310e-01  -2.2829195e-01   3.9200507e-01  -6.0049050e-01  -7.1329817e-01  -4.6263998e-01  -8.4148770e-01  -4.0404397e-01  -9.1554418e-01   5.0330789e-01   3.1171143e-01   4.9312570e-01   6.1452948e-01  -6.7696749e-01  -7.6872725e-01  -5.3190448e-01   9.5090398e-01   7.1206600e-01   4.4479508e-01   8.0249825e-01   8.0809071e-01  -8.3038503e-01  -5.9706266e-01   5.7993487e-01  -1.8681360e-01   3.8376174e-01   9.5535345e-01   2.4351476e-01   2.9191263e-01   9.9371314e-01   5.3690801e-02   9.0369936e-01   8.3530134e-01   8.3820126e-01  -2.2613853e-01   8.1104381e-01   2.1142623e-02   9.7127404e-01   4.3618473e-02  -8.9814212e-01  -4.7596643e-02   9.0771950e-01  -2.6484192e-01   8.8865003e-01  -8.7338999e-01   2.8131936e-01  -3.6973649e-01  -4.0602359e-01  -1.3174564e-01   3.1427372e-01   6.0581605e-01  -3.6833471e-01  -7.4104449e-01   4.2073553e-01   2.4632147e-01  -5.2362071e-01  -8.9589383e-01   5.0783631e-02   6.3416510e-01  -5.1113749e-02   4.7672802e-01  -2.8433569e-01  -6.0027674e-01  -7.5927080e-01   7.6655844e-01   7.4168589e-01  -8.2069253e-01   5.0491344e-01  -5.4671551e-01  -9.4373252e-01   7.7390284e-01   3.7564470e-01   8.0262510e-01   8.8677976e-01  -1.5486089e-01   3.7871388e-01  -5.2994719e-01   3.1308485e-01   7.5597755e-02   5.7428383e-01  -3.5922181e-01   8.0317549e-01  -3.4141832e-01   8.1764807e-01  -4.1813737e-01   9.6609514e-01   6.9396227e-01   4.9950708e-01  -4.7698345e-01   1.2936067e-01  -3.3181545e-01   2.6825699e-01   9.2391330e-01   2.0129855e-01   9.5428303e-01  -8.8477811e-01  -3.4354872e-02   5.2169747e-01  -1.2092735e-01   7.2448756e-01   2.8615227e-04  -6.6401360e-01  -5.8077904e-01  -3.2516294e-01  -3.5925045e-01  -8.4397212e-02   8.2776489e-01  -5.5570007e-01   9.9719803e-01   2.3330115e-02   3.1295964e-01  -9.9622928e-01   9.3728070e-02   7.7675670e-01   6.9632786e-01  -7.5575250e-01  -5.6583608e-01   6.1118576e-01   5.1282799e-02   4.3740021e-01  -9.2302029e-03  -4.5854973e-01  -2.3770046e-01   2.4675703e-01  -2.9879457e-01  -4.8482761e-01  -7.1782933e-01  -5.5876510e-02   1.8808637e-01  -3.6617458e-01  -6.1213981e-01   7.3756930e-01  -3.3330238e-01   1.3885936e-01  -6.7699828e-01   5.5727106e-01  -6.2410800e-01  -8.7685532e-01   3.7562930e-01   9.5666835e-01  -9.8879333e-01   4.8270070e-01  -2.9641795e-02   2.5068204e-01  -6.8602002e-01  -8.3291434e-01  -4.2911924e-01   7.0117686e-02  -4.1824424e-02   6.1832898e-01   7.4343391e-01   1.0366534e-01   9.7672075e-01  -3.3466035e-01  -1.5168550e-01  -8.6298900e-01   6.5185025e-01   8.2579184e-01   1.5581819e-01  -5.0463930e-01  -6.8072030e-03  -9.3130818e-01  -9.9898480e-01  -3.1418917e-01   9.1522191e-01   8.1506851e-02  -5.8726017e-01   6.7324872e-01  -5.8304347e-01   7.1153292e-01  -8.9645770e-02   7.3027438e-01   2.3592126e-01   4.3196679e-01  -3.9022829e-01  -7.1356533e-01   6.1283806e-01  -7.3139853e-01  -4.6658078e-01   3.0642786e-01  -5.0659576e-01  -8.4432103e-03  -6.5732061e-01  -9.2019263e-01   4.1865623e-01   8.4482028e-01  -5.1650101e-01   3.2833130e-01  -8.4561245e-01  -6.7692669e-01   7.8133289e-01  -3.0851510e-02   7.0422939e-03  -3.5164805e-01  -1.3457280e-01  -1.8104226e-01   6.8450038e-01   9.3910357e-01  -6.8045208e-01  -1.5496720e-01  -6.4971637e-01  -4.2069392e-01  -1.8398676e-03  -7.1735492e-01   1.7138411e-02   1.5426583e-01   7.3950873e-01  -6.8233591e-01  -6.9124864e-03  -2.2040880e-01   9.3162858e-01  -6.1925191e-01  -1.9991675e-01  -3.7937612e-01  -3.8467909e-01  -1.7453579e-01   7.7167228e-01  -9.2163799e-01   9.0981330e-01  -3.6244126e-01   1.7599679e-01   5.8440842e-01  -9.0063367e-01  -9.8247242e-01   2.3871644e-01   8.3352449e-01  -7.6376061e-01  -7.5371983e-01   5.7084155e-01  -5.3012649e-01  -5.7404043e-01   8.8840065e-01  -8.8041170e-01   5.1604429e-02   5.4548360e-01   3.3386326e-01  -9.8749467e-01   6.9877236e-01  -8.9456613e-01  -2.0104552e-01  -7.3659694e-01  -3.1614129e-01  -1.5152750e-01   5.0711846e-01   3.5424286e-01   3.4313206e-01  -8.6850099e-02  -2.8780517e-01   6.5336800e-01  -3.5486123e-01  -6.1660106e-01  -1.4025714e-01  -9.9953032e-01  -9.6094745e-01  -5.6268292e-01  -9.1663855e-01  -2.8557221e-01   4.3742805e-01   1.8342370e-01   6.5858664e-01   3.6024237e-01   2.4532075e-01  -1.1533138e-01   2.9967682e-01  -8.8035015e-01   9.4690725e-03   3.1841224e-01   3.6251144e-02  -5.3508367e-01  -2.7831521e-01  -7.1366653e-01  -5.7759269e-01   2.9548840e-01  -9.5986818e-01  -9.7134219e-01   1.2333264e-01   4.9816013e-01   4.3939740e-02   6.8885469e-01   5.8404061e-01   2.4974214e-01  -4.0135555e-01  -6.5962297e-02  -8.8570112e-02  -4.7706249e-01  -6.6732683e-01   3.0384828e-01  -7.8832706e-01  -6.5718922e-01   8.7524115e-02  -5.0072699e-01   6.7381106e-01  -5.0062620e-02   4.5090304e-01  -2.2575875e-01  -2.2304311e-01  -2.2575495e-01   4.7285867e-01  -5.0288865e-01   7.9204450e-02  -1.3692660e-01  -1.7993683e-01  -8.1991378e-01  -9.0845940e-01  -1.3866390e-01   7.1758117e-01  -8.8756781e-01   2.5886691e-01   7.0612019e-03   3.7591871e-01  -3.1563350e-01   6.2205840e-01   6.3975525e-01   9.8778258e-01   6.1767087e-01   2.1254943e-01   6.2418344e-01  -3.7291167e-01  -8.9660414e-01   3.2349003e-01   7.0786407e-01  -7.8134468e-01  -6.1016022e-01  -7.8588877e-01   9.0523842e-01  -8.3526768e-01   3.1288769e-01   2.0653158e-01  -6.5983619e-01  -3.7211382e-01   1.2704741e-01   6.7561561e-02  -4.2896791e-01   7.7803533e-01   2.2900184e-01   1.7067157e-01  -1.1863311e-02   2.2611288e-01  -1.7607339e-01   9.8556774e-01   4.8837670e-01  -1.0428772e-01  -9.1209830e-01  -4.9469999e-01   5.3821561e-01  -4.4155996e-01  -1.7078642e-01   6.3742194e-01  -6.5189520e-02  -2.2025632e-02   2.4847223e-01   7.8098987e-01   7.8712441e-01   8.8649731e-01   7.0148510e-01   8.4956558e-01   6.9650042e-01  -8.8156576e-01  -1.1158548e-01   7.9536589e-01   8.4416914e-01  -3.0567223e-01  -6.3483235e-01  -4.9215753e-01  -1.2422923e-01  -7.2111423e-01  -4.0013836e-01  -3.5648960e-01   9.3811373e-01   3.1261201e-01   6.5491345e-01  -3.7130183e-01  -5.2721667e-01   9.0545836e-01   4.7472511e-01  -6.5344584e-01  -5.5075799e-01   6.0151745e-01  -3.3863350e-01   7.7131417e-01  -8.1627316e-01   5.7796502e-01   1.8354878e-01   6.4029332e-01  -7.1020919e-01   2.0216830e-01  -4.4113689e-01  -8.4827421e-01  -2.6186503e-01  -1.8575915e-01  -1.7317892e-01  -4.8860268e-01  -1.8719751e-01  -6.9084014e-01  -8.2479970e-01  -3.0042233e-01   6.2068138e-01  -1.3528580e-01   7.5486004e-01  -4.7136974e-01  -8.0561854e-01  -8.7085767e-01  -3.7204168e-01  -2.3644865e-01   1.9853841e-01  -4.6034347e-01  -3.5201637e-01   4.7298192e-01   7.3079995e-01  -5.9646608e-01  -7.0871225e-01  -6.2037418e-01   8.3726761e-02   5.1995344e-01   2.3849828e-01   3.7169749e-01  -8.3949529e-01  -1.5528563e-01  -3.1842169e-01  -7.4687298e-01  -5.6518946e-01   5.0281497e-01   8.6896808e-01   6.0595572e-01  -9.8077369e-01  -9.1156032e-01   4.1711183e-01  -9.0866178e-02   2.5252756e-01   1.6631286e-01  -4.5546094e-01   4.9480012e-01  -3.0476459e-01  -7.4455062e-01   7.0199879e-01  -9.6429915e-01   2.3726307e-01   5.7823270e-01  -6.2597856e-01  -5.9594886e-01   4.1710567e-01   3.1244949e-01  -8.2960349e-02   1.6800361e-01   9.1633207e-01   8.6539709e-02   9.1490293e-01  -4.1488841e-01   8.7786555e-01  -8.6624583e-01  -3.7396300e-01   9.0822000e-01  -2.5051392e-01  -7.6920359e-01   1.3893787e-01  -6.0714909e-01  -9.7060351e-03   6.7795955e-01  -2.4089772e-02  -2.6539104e-01   8.0723723e-01   4.6816323e-02   1.8789024e-01   4.3717650e-01  -2.7500225e-01   9.2485213e-01   7.6020331e-01  -5.3672118e-01   8.4111378e-01  -6.1087538e-02  -7.9376985e-01   3.6683849e-01   6.7705232e-01  -6.5928930e-01  -2.2258151e-01  -4.5624847e-01   8.3517256e-02  -7.5395942e-01  -1.7966297e-01   9.7556252e-01   8.3605203e-01   7.4370274e-01   8.1378140e-01  -6.4298968e-01  -4.1222284e-01   1.4048886e-01  -2.1523372e-01  -8.4318502e-01   9.6633304e-01   8.7579679e-01  -9.6247953e-01  -9.0871283e-01  -6.8278539e-01   3.9864904e-01  -4.0237035e-01  -4.1032928e-02  -9.2092971e-01  -9.3575704e-01   8.3660157e-01  -6.4219518e-01   5.9842344e-01  -3.6749947e-01   1.6348069e-02  -3.6332873e-02   3.9874476e-01  -9.7328954e-01  -8.1912501e-01   4.4772386e-01  -1.7044807e-01  -1.0796589e-01  -9.7706952e-01   6.0374185e-01  -4.7524924e-01  -5.8656726e-01  -3.2058606e-01   5.0071581e-01   4.8557784e-03   9.3025978e-01  -9.1269815e-02  -8.4531195e-01   4.1398978e-01   1.9946173e-01  -5.3293337e-01   2.4186038e-01   8.2934519e-01   8.3159560e-01  -9.4686240e-02  -9.1304839e-02   2.1144332e-01   1.8753421e-01  -5.4326778e-01  -6.2331483e-01   5.2857262e-01   9.3597633e-01  -4.3361988e-01   7.2359500e-01   3.7673971e-01  -1.0758041e-01  -3.5353697e-01  -8.3870927e-01   6.0517254e-01  -5.0185444e-01   3.6990180e-01  -5.4355781e-01  -2.7138480e-01  -5.9452643e-01  -6.1823172e-01  -3.2689252e-02  -7.0988728e-01   9.3219456e-01   7.4854985e-01   9.0547638e-01   6.0777829e-01  -6.3238917e-01   7.7650146e-01   3.5359712e-01  -1.3873522e-02   3.4837053e-02   9.0569420e-01  -1.9646035e-01  -1.2701013e-01   6.4886338e-01  -5.4033547e-01   9.2246706e-01  -9.3335771e-01  -6.1200992e-01   4.9879220e-01   7.3176918e-01  -1.0467371e-02  -9.4898751e-01   8.4055263e-01   5.6486735e-01  -6.7925914e-01   3.0761621e-01  -9.0756009e-01  -4.7163662e-01  -2.8806811e-01  -5.9215869e-01  -3.1820898e-01  -4.2314489e-01  -7.8664859e-01  -2.8484442e-01   7.6882752e-01  -9.0869402e-01  -4.4283415e-01  -5.0418600e-01  -9.7729724e-01  -2.5818495e-01   3.9764533e-01  -9.2797036e-01  -3.0789755e-01   7.5682681e-01   3.3872970e-01  -8.6763344e-01  -9.0429188e-02   8.8042893e-01   3.4546438e-01   5.9164083e-01   6.5455924e-01  -7.3859499e-01   6.3063565e-01   9.1475535e-01  -6.3575712e-01  -5.1293953e-01  -2.0203255e-01  -8.6413655e-01  -1.9281005e-01   9.4841925e-01   2.9082784e-01  -5.6779438e-01  -4.5828020e-02  -9.8587066e-01   3.0723103e-01  -7.1656512e-01  -4.5737414e-01   4.7882545e-01  -4.1361691e-01  -8.4273234e-01  -4.5352007e-01   9.9176558e-01  -5.7564754e-01  -9.9993044e-01   3.7922848e-01   4.0251454e-01   8.0380224e-01   1.4285588e-01   2.3272085e-02  -4.0559474e-01   5.1484330e-01   3.7081025e-01   1.7381393e-01  -6.9417265e-01  -6.0681686e-01  -3.7184865e-01   9.0406430e-01   4.9872985e-01   5.5560709e-01  -7.7752454e-01   1.5032052e-01  -7.7757030e-01  -5.5543705e-01  -2.9781795e-01  -8.7051041e-01  -4.7965410e-01  -4.7251230e-02  -4.7253267e-01   8.7204606e-01   2.8185807e-01   7.9493086e-01   1.2953069e-01  -7.7949343e-01   9.6035235e-01  -2.9184380e-01   2.4859006e-01   3.7567319e-01  -4.3067391e-01   8.9005293e-01  -2.5244495e-01   1.7360189e-01   9.0836812e-01   5.9240554e-01   2.2070648e-02  -6.1436963e-01  -1.9433589e-01  -8.1200111e-01   3.2536106e-01  -3.7326149e-01   3.5122911e-01  -7.5291812e-01  -1.0020157e-01  -3.2251470e-01  -2.1077746e-01   8.8272394e-01  -5.8709835e-01   3.4261261e-01   3.1146005e-02  -8.1749317e-01   2.5152413e-01  -4.3588658e-01   7.0405854e-01  -1.3942466e-01  -6.3931993e-01  -8.7347471e-01  -9.4011888e-01  -2.5511514e-02  -3.9669348e-01  -1.9834435e-01  -1.8268157e-01  -7.2430026e-01   7.8594047e-02  -2.3339638e-01  -8.2483660e-02   6.3954801e-01   6.3902532e-01   7.8394406e-01  -6.8294963e-01   9.2186588e-02   3.7759472e-01  -5.5681883e-01   6.2751420e-01   8.1979598e-01  -9.8262336e-01   5.9080651e-02   9.1164510e-01   1.3729226e-02   8.3413169e-01   7.4266649e-01  -6.4467452e-01   1.8893019e-01   7.3848362e-01   7.9335551e-01  -5.5661696e-01  -9.4890382e-01   3.9947957e-01   3.2044860e-01  -3.8015054e-01  -4.7287197e-01   1.7037629e-01   7.0064600e-02  -1.7878945e-01  -9.5741703e-01  -9.5114566e-01   1.4775915e-01  -3.8855061e-01  -9.0559057e-01   2.2957015e-01  -5.6313514e-01  -3.0417156e-01  -2.1215033e-01   2.3564435e-01   8.6344908e-02   3.2954350e-01  -8.8428037e-01   7.2201685e-01   9.8063579e-01   1.8427668e-01   1.9449918e-01  -7.9522991e-01   7.7173436e-01   8.3884582e-02   1.4414765e-01   4.9043607e-01  -3.5236750e-01   2.6865510e-01  -1.6811958e-01   2.9883647e-01   8.0460162e-01   4.0078375e-01   7.1814474e-01  -1.9437459e-02   7.9987157e-01   6.4022234e-01  -8.5189135e-01   8.4031988e-01   6.2361361e-01  -4.6835168e-01  -8.1483865e-01  -3.7804759e-02  -3.6615136e-01   6.6353924e-02  -4.2399211e-01   9.2172156e-01   4.5138278e-01  -1.6035206e-01  -1.5797492e-01   7.7652814e-01   5.7104260e-01   1.0592204e-01   6.2089019e-01  -3.6617290e-01   9.6776491e-01  -8.5905534e-01   2.9503165e-01   7.3660783e-02   5.1094500e-01  -9.8873184e-01   9.2301671e-01   5.3251669e-01   5.9141724e-01  -6.2939908e-01  -1.8742410e-01   7.0770130e-02  -9.7161274e-01   4.9996153e-01  -1.8589456e-01  -4.6425418e-01   6.4196700e-01  -1.3324754e-01  -9.2505562e-01  -3.5469071e-01   9.5661132e-01   1.0156931e-01   8.4539674e-01   7.2430006e-01  -3.1349774e-02  -4.2761041e-01  -5.2500936e-01   4.6897044e-02  -3.0736223e-01   5.7815588e-01  -1.9520206e-01  -4.8252471e-01   4.9991904e-01  -8.2501260e-01   7.8143556e-01   7.5813723e-01  -3.2424780e-01  -3.8824716e-01   2.2175925e-01   6.7077809e-01  -8.4615568e-01  -3.0784748e-01   1.4383279e-01  -4.3362556e-01   8.1595463e-01  -7.9697601e-01  -3.2347202e-01  -7.6503963e-01  -4.8140662e-01   8.6769235e-01   2.9691644e-01   3.2592302e-03   4.3715789e-01   2.7412468e-01   7.0441377e-01   3.6521284e-01  -9.9451874e-01  -4.3525188e-01   9.5160673e-01   1.7414040e-01  -9.5836423e-01  -4.8769815e-01  -9.7648598e-02  -3.5134583e-01   3.5948261e-01  -5.7469324e-01   4.6987003e-01
  -9.3357685e-01   3.6499994e-01   3.6802358e-02   1.7019377e-01  -6.0110042e-01  -9.9079045e-01  -9.8282247e-01   7.9996705e-02   3.5089650e-01  -7.5476053e-01  -7.4369974e-01  -8.9056185e-01   7.8688619e-01   9.9331137e-01   7.9181765e-01  -5.0741899e-01  -7.2743003e-01  -9.4318258e-01   7.0416382e-01  -6.1494677e-01  -9.8750974e-01  -4.7774502e-01   5.7565054e-01  -8.4312864e-01  -8.7478864e-01   1.1077125e-01   1.3360574e-01  -7.6340115e-01   9.3257471e-01  -8.1935420e-01  -6.8249854e-01   7.4640338e-01   6.7605901e-01   4.2570185e-01  -8.6678089e-01   4.5558096e-01  -8.6225921e-01  -4.7326057e-01   2.8734557e-01  -6.7400434e-01   9.7970014e-01  -3.1325082e-01   4.6342104e-01  -5.4334075e-01   2.7744943e-01   7.1736084e-02   5.9925715e-01   7.3707983e-01  -7.3888097e-01  -2.1301399e-02  -7.6421099e-01   1.1676493e-02   2.2853733e-01   6.3856918e-01  -8.1822249e-01   6.0019912e-01   6.5318575e-01   8.2147918e-01  -9.0771037e-02   9.3399008e-01  -2.8286488e-02   8.3234187e-01   7.2365821e-01  -6.4490020e-01   8.9146171e-01  -5.5459341e-01  -6.3918629e-01  -6.2021506e-01   2.7831713e-02  -8.5728733e-01   3.7256995e-01   3.3189975e-01   2.5090682e-01  -8.2020591e-01   6.6891863e-01   5.6922310e-01   6.6371210e-01   2.6012723e-01   8.9069815e-02   3.9192620e-01  -4.8909689e-01   6.4399025e-01  -6.3704705e-01  -5.5261550e-01  -8.3742919e-01  -6.6362946e-02   4.6833828e-01  -6.4800619e-01  -8.6145128e-01  -7.9001893e-01  -5.5911487e-01   6.4467182e-01   9.6854935e-01   9.7592950e-01  -4.4326332e-01   9.9151184e-01   9.7790943e-01  -6.0562389e-01   3.7427592e-01  -2.2636767e-01  -5.8248005e-01  -8.4750256e-01   1.5559265e-01  -1.2123864e-01   3.1307666e-02   9.9343469e-01   6.8528658e-01   7.5816339e-01   4.2941428e-01   1.4282734e-01   7.2112480e-02   8.4750559e-01  -5.4262946e-01   5.1326620e-01   3.5903415e-01  -8.5252769e-01   2.6640223e-01  -7.7431850e-01   3.8774118e-02   2.6008398e-01   2.7606507e-01   6.2681044e-01  -9.7071975e-01   9.6902211e-01  -5.0221127e-01   1.4663751e-01  -1.5799655e-01  -8.7433974e-01  -4.1568142e-01  -5.0314377e-01  -5.3078934e-01  -3.7910486e-02   6.7272041e-01  -2.1364688e-01  -7.5788942e-02  -7.3022669e-01   7.0864534e-01  -5.7981179e-02  -5.7065375e-01  -6.2673957e-01  -2.9867791e-01  -1.6262032e-01   2.9241130e-01  -5.6116567e-01  -2.1672717e-01  -6.0871254e-01   2.2325390e-01  -4.6295125e-01  -4.6226269e-01  -8.3487588e-01  -1.4639667e-01  -5.4696184e-01  -7.7034438e-01  -5.2227230e-01  -3.0713159e-02  -1.7920403e-01  -2.4120843e-01   9.7979468e-01   5.5916876e-01   6.5607443e-01   3.9503750e-01  -1.4999517e-01  -3.9408287e-01  -7.4841338e-01   3.7540060e-01  -5.2208704e-02   9.4699630e-01   2.6107368e-01  -1.8236361e-02   6.9785366e-01   7.9615101e-01   3.3796715e-02  -8.3183926e-01   9.0477201e-01   9.5683351e-01   5.5442703e-01   6.8037812e-01  -1.3344029e-01   6.4117336e-01   1.6208886e-01  -8.3544341e-01   6.6443656e-01   7.8085589e-01  -8.5394639e-01  -2.3503424e-01  -3.8438477e-02   2.3614227e-01  -2.9809315e-01   6.6169274e-01  -3.3021283e-01  -3.3382417e-01   1.5818400e-01  -9.1064598e-01   7.0027306e-01  -2.7050651e-01   6.3260792e-01   7.8348271e-01   3.5368053e-01  -7.4251956e-01   9.9349210e-01  -2.7582474e-01   9.3427933e-01  -7.1916068e-01  -8.2835934e-01   1.5645854e-01   5.8007483e-01  -4.3975998e-01  -2.7389770e-01   6.3635769e-01   8.7135680e-01   4.0767743e-01   4.4706901e-01  -4.6713588e-02   4.5123033e-01   5.0332768e-01  -2.8795432e-01  -5.5677104e-01  -2.7869538e-01  -2.2421023e-01   6.8995219e-01  -7.2868570e-01   7.5548822e-01  -2.3285974e-01   2.8300969e-01  -2.0514163e-01  -9.0077689e-01   9.1518297e-01  -1.1891634e-01   9.9500100e-01  -4.0387994e-01  -4.3286637e-01   5.8387715e-01   6.5957260e-01   7.3270804e-01   1.8038598e-01  -1.3052139e-01  -9.5439607e-01  -3.0013405e-01  -1.9533881e-01   2.0350709e-01   1.0191445e-02  -4.2664698e-01   1.7044175e-01  -4.0904029e-01   6.0287518e-01  -6.4799298e-01  -3.0157205e-01   5.9573460e-01  -4.4466240e-01  -1.0917484e-03   4.7534012e-01   9.3379336e-01  -8.4128818e-01   6.0972916e-01  -9.0177958e-03  -2.2384630e-01   1.7750670e-01  -5.1734565e-01  -9.7110219e-01  -8.2961798e-01   4.8204647e-01  -9.5032872e-01  -9.2714658e-02   8.0332346e-01  -4.5247650e-01   8.8378709e-02  -3.7842855e-01  -7.2942640e-01  -3.2889369e-01  -2.6132577e-01   5.4172191e-01  -6.9348583e-01   7.3631224e-01  -8.0776598e-01  -7.7163821e-01  -2.8294370e-01   3.2728652e-01  -5.8969284e-01   9.3142341e-01  -9.1299215e-01   7.3550654e-02  -7.6347758e-04  -5.0183422e-01   8.1137881e-01   3.5751956e-01  -3.9547019e-01   2.1572924e-01  -5.8497587e-01   5.3512590e-01  -9.0013965e-01   4.9584598e-01   2.8963046e-01   2.8311440e-01  -9.8812873e-01   3.7317100e-01  -3.4325394e-01   7.6334038e-01   4.4888920e-01  -4.7384676e-01   2.8491575e-01  -6.2775949e-01  -6.9311589e-01   7.7967033e-01   5.9452575e-02  -8.3067910e-02  -3.5522196e-01   7.5426291e-01  -7.0286063e-01  -9.9658007e-01   7.8893021e-01   1.5491274e-01  -5.7259025e-01   9.1545577e-01  -9.6667087e-01  -7.1447288e-01   8.4545411e-02   7.7054531e-01   6.1192028e-01   2.6006040e-01   4.8571447e-01  -3.0902952e-01  -9.8170904e-01   7.0366308e-01   2.6662926e-01   2.2483253e-01  -2.2806738e-01   2.4539515e-01  -1.6100946e-01   3.4519288e-01  -7.2757909e-01  -2.3025000e-01   7.1339896e-01  -3.8782637e-01   2.6022581e-01   1.0228679e-01   7.0580309e-01   5.7011081e-01  -2.8194795e-01   4.5740979e-01   3.2427641e-02   1.1974658e-01   4.8564075e-01   7.2892326e-02  -9.6671854e-01   5.9858674e-02  -8.4253107e-01  -1.5507753e-01  -1.0448376e-01  -4.9193517e-01  -9.5507102e-01  -8.1378160e-02  -2.1773210e-01   9.5179658e-01   7.4171271e-01  -8.8630902e-01  -5.8179231e-01   9.8730517e-02   2.3880401e-01  -2.6895023e-01   2.0010087e-01  -7.3279604e-01   8.1258932e-01  -1.3449559e-01  -7.6355692e-01  -3.4134754e-01   5.9149427e-01  -8.8836035e-01  -1.9768532e-01  -4.6646533e-01  -2.9453672e-01   5.9314712e-01  -7.3598006e-01   5.4695360e-01   3.9399613e-01  -4.7305629e-01  -5.3827137e-01   9.0558107e-01   3.9145128e-01   3.3686012e-01   1.8410079e-01  -7.0556963e-01  -6.4408362e-01  -4.3308168e-01  -4.8484487e-01   6.4248273e-01  -3.7904412e-01   1.8149340e-01   7.1113101e-01  -5.9806661e-01   3.6698238e-02  -2.0243235e-01   7.7200511e-01   2.3130907e-01   8.1218669e-02  -2.3152225e-01   7.1655892e-01  -2.3193820e-02  -1.2013231e-01  -3.8629139e-01   9.7066491e-01  -6.6360708e-01   8.2237380e-01  -5.7556575e-01  -8.6229209e-01   2.3673619e-01   3.0703242e-01  -8.2368500e-01  -2.0635073e-01  -1.9420340e-01  -5.8845000e-01   9.6603514e-01   5.9704034e-01   5.4479514e-02   7.7817035e-02   5.0270745e-01   7.5681082e-01  -1.6751156e-01  -4.8142496e-01  -2.0026725e-01  -4.1631683e-01  -6.0278838e-01   7.1154461e-01  -4.7293026e-01  -1.1024129e-01   5.9776718e-01  -6.2560689e-01   6.2892285e-01  -8.2132837e-01  -2.2498730e-01   3.3865897e-01  -6.8702488e-01  -9.5122636e-01  -4.3833987e-01  -6.4414858e-01   4.2614197e-01  -9.6723766e-01  -5.0718563e-01  -5.0082525e-01  -2.5684435e-01  -9.3690032e-01  -2.6628881e-01   4.0991167e-03  -7.2846598e-01   8.9566303e-01  -6.5397142e-01  -2.4430784e-01   2.9698798e-01   9.6163942e-01   4.4501178e-01  -6.7096334e-01   9.8590058e-01  -6.1434691e-01   7.5542092e-01   1.1637472e-01  -2.0020955e-01  -3.2864494e-01  -4.0156220e-01   5.3546843e-01   3.4000650e-01  -5.9293729e-01  -7.8872417e-01   3.6002733e-01   2.5244829e-01  -5.9909983e-01   5.1795769e-01  -5.4527275e-01  -1.2081073e-01  -3.5604629e-01   6.1563718e-01  -6.4001869e-01   7.9073754e-01   1.4997857e-01  -3.3887695e-01  -4.1086826e-02   8.3959180e-02   5.3312983e-01  -8.9604589e-01  -7.8367694e-02   1.5025934e-01  -3.9852533e-01  -7.1571874e-01  -5.4057234e-01  -4.4265833e-02  -3.5384684e-01   8.3062415e-01  -5.2774305e-01  -2.3153121e-01  -3.2000008e-01   1.9550332e-01  -8.8831869e-01  -8.8543650e-01   1.9460437e-01   1.8725544e-01   7.4477695e-01   3.3097868e-01   6.4423761e-01  -1.6300487e-01   1.6146510e-01  -8.1439501e-01   2.9860348e-01  -7.7371264e-01   3.5841544e-01   5.3374880e-01  -4.3940521e-01  -4.6679068e-01   2.2773071e-01  -5.7788820e-01   1.2376724e-02   2.8267273e-01  -8.6974482e-01   6.1153163e-01  -9.0590605e-01  -6.4120480e-01   3.8921466e-01   7.1397400e-01  -9.7948713e-01   4.0518061e-01  -7.7551403e-01  -9.5449557e-01   4.1467678e-01  -9.7171217e-01  -9.2137387e-01   8.4623874e-01  -6.9368696e-01  -2.6066917e-01   7.0107203e-01   3.8194518e-01   7.0224992e-02   2.1000637e-01  -4.4128197e-01   8.5491452e-01  -7.9288275e-01  -5.5348089e-01  -6.3901521e-02   9.0280251e-01   2.2665744e-01  -9.3988044e-01  -8.7655863e-01   9.7617199e-01  -1.9067811e-01   8.9353694e-01   1.1080651e-01  -2.0372728e-01  -7.9866612e-01   9.1082507e-01  -8.2824258e-02   1.6275522e-02   4.1066358e-01   7.9583759e-01   3.7051481e-01  -4.9469218e-01   5.5410668e-01   4.7793127e-01   8.9894646e-01   6.6969804e-01  -4.1348956e-01   5.1835958e-01   3.1964759e-01  -3.9337222e-01   9.3194244e-01  -4.8461751e-02   8.3406542e-01  -9.4979820e-02  -7.2159379e-01  -3.3767898e-01   1.6141946e-01  -7.7317409e-01   6.9811588e-01  -2.5415611e-01  -3.3429868e-01  -8.7599344e-01  -8.8105549e-01  -8.7495140e-01   1.0376987e-01  -4.9630563e-01   9.7428361e-01  -9.0239347e-01  -8.1068851e-01   6.7218134e-01   3.0227503e-01   5.2447745e-01  -5.0582150e-01   7.0198330e-01   4.3662705e-01   6.1141870e-01  -2.4391733e-01   4.7729196e-01   1.6112629e-01   4.5103778e-01   4.6220587e-01  -8.4263531e-01  -6.6109506e-01  -3.6881034e-01   3.8174572e-01   9.8774930e-01   7.5745455e-02   8.8338853e-01   5.6522774e-01  -7.0132171e-01  -5.7092933e-03   6.4715820e-02  -7.1580536e-01   3.1395670e-01  -5.0844112e-01  -1.9101221e-01   8.5681384e-01   3.1496349e-01  -6.6613328e-01   1.2863127e-01   1.8939773e-01  -4.4098959e-01   5.8468245e-01  -1.4624521e-02  -7.0848601e-01   2.5246055e-01   9.7433384e-01   2.0191671e-01  -7.0795337e-01   5.8845144e-01   7.5074812e-01  -5.8247056e-01   6.1207038e-01  -4.1736953e-01   4.2757629e-01  -4.5968650e-01  -8.3869409e-01   5.8141406e-01   9.3384222e-03  -2.1161191e-03  -8.4885062e-04  -7.3587453e-01   4.8651416e-01  -3.8008183e-01   3.1727213e-01  -8.4221726e-01   2.6072835e-01   2.4874256e-01  -1.9449874e-01   4.4858761e-01  -4.8803931e-01   6.2693582e-01   5.8343779e-01  -2.6607443e-01   4.0964869e-01   7.4730735e-01   5.2530765e-01   4.1420014e-01  -9.8582505e-01   1.2442945e-01  -6.5700779e-01  -3.4261115e-01   2.5222743e-01   4.6680831e-01   7.2129284e-01   4.6575831e-01  -5.2762898e-01  -5.8411684e-01  -8.6276396e-01   1.3004667e-01   9.8443118e-01  -3.1642567e-01   1.0233557e-01   9.9434352e-01  -2.9873711e-01   4.7276458e-01   8.7753426e-01  -8.9012047e-01  -4.2443530e-01   1.6728539e-01   2.6038837e-01  -9.8444079e-02  -1.0650890e-01  -2.3022655e-01   1.5383377e-01  -5.2316438e-01   4.6072148e-01   2.7609027e-01   3.3396732e-01   4.2405725e-01  -8.5003981e-01   8.1801666e-01   2.1981606e-01   8.7385383e-01  -1.0677771e-01  -8.7438909e-01   6.0406811e-01  -2.9675645e-01  -9.7664767e-01   2.9570231e-01   5.5528808e-01   5.4266773e-02   4.8380281e-01  -5.6633103e-01  -3.7697328e-01   6.8269946e-01  -9.7711921e-01  -2.3841341e-01   1.6095703e-01  -2.1771852e-02  -7.0253211e-01   2.3960547e-01   4.4936694e-01   8.1079696e-01  -3.1401363e-01   3.7877727e-01  -6.8915569e-01  -9.3378275e-01   5.3832605e-01  -2.3337418e-01   7.3440731e-01   1.8370519e-01   4.4035496e-01   5.8179646e-01   3.2345000e-01   5.7781885e-01  -5.3849994e-01   6.8414458e-01  -2.4516694e-01   6.7530702e-01  -7.4694193e-01   3.4883688e-01  -4.8542885e-02   7.1698496e-01   9.5652194e-01  -6.6939843e-01   1.2238170e-01   6.1943663e-01  -8.5797523e-01   2.9501693e-01  -3.1377627e-01   7.3468891e-01  -2.8447933e-01   9.9551164e-02   9.1773619e-01   4.0878267e-01  -2.2312063e-01   5.2766031e-01  -6.3228306e-01   3.5919073e-01   6.4828993e-01  -2.9544144e-01   9.2440566e-01  -9.0127170e-01  -2.8389419e-01   3.2677359e-01   3.7532509e-03  -8.0532103e-01   4.1948361e-01  -1.6515022e-01   7.7042343e-01  -7.6940351e-02  -9.8594298e-01   7.5508791e-01   8.5211221e-01  -6.2121696e-01   2.5647257e-01  -7.3548027e-01   4.2476328e-01  -8.2891498e-02  -7.0689895e-01   9.0860571e-01   9.3139819e-01   6.3293437e-01  -7.5693545e-01  -3.2218180e-03  -5.3062708e-01   5.3328569e-01   7.8594047e-01  -7.2202626e-01   3.8658460e-01   9.7346595e-01  -5.8467273e-02   6.9041948e-01  -2.1188523e-02   2.1195394e-01   5.9643222e-02  -4.2524210e-01   8.9911834e-01   1.2434678e-01   4.6754897e-01  -8.3492300e-01   6.5447607e-01   3.6302799e-02   1.0612114e-02  -7.7753288e-01  -7.6407656e-01   9.2799373e-01  -4.9421199e-01   5.9633201e-01   9.0212680e-01   8.5461762e-02   9.0587483e-02  -9.2032689e-01   3.4426962e-01  -7.7754460e-01   6.8679968e-01  -7.6133001e-01   2.7466712e-02  -6.1775645e-01  -4.6642882e-02   6.0682925e-01   1.3886664e-01   2.3720962e-03   5.2759554e-01   7.3840471e-01   1.7218481e-01  -4.9016519e-01  -6.4609991e-01   9.9725707e-01  -1.0623997e-02   2.0375760e-01   3.0610083e-01  -1.4376961e-01  -1.1101162e-01  -9.7134284e-01  -1.1617811e-01   1.1004231e-01  -9.0951426e-01  -5.5559007e-01   9.1239379e-01  -7.6446865e-01  -9.1735030e-01   3.4220498e-01  -1.1743618e-01  -7.5346391e-01   6.7018463e-01   2.6166137e-01  -3.7091426e-01   2.1823500e-01   2.8463719e-01   5.3564312e-01   7.4328132e-01  -4.4683576e-01  -9.3787737e-01   9.5883591e-01  -1.0319769e-02  -5.0647407e-01  -5.1619926e-01   9.1646212e-01  -3.0636160e-01  -9.4526586e-01   7.9042398e-01  -3.6018903e-01   9.6021570e-01   9.8796612e-01   6.4174144e-01   8.2324662e-01  -5.0457379e-01   2.1846607e-01   2.8274417e-01  -5.7099304e-01   8.3265403e-03  -8.9495174e-01  -7.4439388e-01  -7.0715346e-01   6.7287523e-01   6.1242802e-01  -8.1217468e-01   6.8785528e-01  -4.0274561e-01   6.6597046e-01   5.7465960e-01  -8.2114658e-01  -1.3914260e-01  -7.1261990e-01   7.9542882e-01   2.2196075e-01  -6.8887742e-01   6.3067812e-01  -6.4139933e-01  -8.9226529e-01  -4.2287322e-01   4.5877310e-01   5.6021761e-01  -8.6853042e-01  -8.4771914e-01  -6.1532957e-01  -4.9018334e-01   3.1725544e-01   3.8177142e-01  -2.2975169e-01   3.8521431e-01  -1.6619757e-01   7.1904801e-01   8.4841373e-01  -8.3590563e-01   6.7604832e-01   5.4148548e-01  -3.7769820e-01  -3.9995713e-01  -5.5387501e-01   5.4320639e-01  -5.9463688e-01   3.4678162e-01  -3.8956203e-01   8.0461614e-01   7.9369040e-01   3.2308496e-01   6.3614469e-02   9.2412603e-02  -7.9297711e-01   6.1023926e-01  -6.6704289e-02  -4.8610803e-01  -1.9226960e-01  -7.9918544e-01   3.4052799e-01  -4.4157142e-01  -3.5914804e-01   4.1679240e-02  -8.1592578e-01  -3.7174070e-01  -6.9345046e-01   5.0330615e-01   6.4279605e-01   2.2105701e-01   4.8247593e-01  -6.9743978e-01  -7.0132792e-01   6.3981998e-01   7.5452909e-01   8.6101981e-01   5.7887863e-01   8.7960290e-01   5.2885140e-01   3.1356044e-01  -7.9177573e-01   4.3103537e-01  -4.2115684e-01   5.6139978e-01  -7.2871596e-01  -1.8888169e-01  -4.2029877e-01   5.7625199e-01  -6.7634592e-01   2.1427757e-04   8.3541418e-01   7.8709799e-01  -7.8610215e-01   5.9102822e-01   3.6403969e-01   2.7925533e-01   7.7962566e-01  -9.3666022e-01  -3.3906187e-01   3.8474863e-01  -1.7225075e-01   4.6961699e-01   3.8325241e-01  -1.1985636e-01  -5.8424434e-01   9.4659646e-01  -7.9960356e-01   3.9541211e-01  -6.7431682e-01  -9.7386252e-01   7.4712441e-01   6.4097020e-01   4.8274739e-01  -5.7020212e-01  -8.3173903e-01  -8.4501198e-01  -3.1076239e-02   5.8714385e-01  -5.6975719e-01   3.1941382e-01   2.4442215e-01  -9.8853829e-02   2.9193678e-01   6.5017873e-01  -5.6411731e-01   7.6677344e-01  -3.7965946e-01   7.4257489e-01  -1.6646092e-01  -2.4730956e-01   1.4014410e-01   8.6256075e-01  -6.3299339e-01  -7.7049851e-02   3.0132962e-01  -7.7404985e-01   5.6817748e-01   4.5225626e-01  -5.8926515e-01   1.8172662e-01   9.3833668e-01   4.1280484e-01  -7.1473959e-01  -2.3687654e-01  -3.7792285e-01  -1.0867602e-01  -8.8350792e-01  -3.1149508e-01   7.4106159e-01  -2.7211351e-01   4.6379399e-01  -1.8854335e-01  -6.8761035e-01  -3.2642772e-02
   3.7520172e-01   3.4366561e-01   2.1158837e-01  -4.2654962e-01   2.3919629e-01  -9.3206804e-01   7.2212015e-01   4.4610375e-01   3.9312998e-01   9.9594373e-02   3.6456325e-01  -7.0088668e-01   2.8765800e-01  -8.8479147e-01  -9.3512366e-01   5.1293492e-01   3.3236874e-01  -6.0988065e-01  -7.0439986e-01  -7.3768643e-02   2.6782382e-01   7.7238373e-01  -2.9262938e-02  -6.4565524e-02   4.0061283e-01   6.0409537e-01   8.7209440e-01  -5.6510732e-01  -1.1911444e-01   4.4712680e-01   4.4492028e-01   6.8803111e-01  -6.7762092e-01  -2.7778593e-01  -2.6943907e-01  -2.1146687e-01  -9.9160010e-01   4.1224997e-01  -2.2671486e-01  -9.4464203e-01  -7.7211949e-01  -1.0803120e-01  -4.5582103e-02   2.6171935e-01  -8.7473199e-01  -5.5800658e-01   7.7361081e-01  -2.3964422e-01   9.8884514e-01  -1.6325782e-01  -1.2278634e-02  -8.2808438e-02   5.4113054e-01  -3.6118613e-01  -4.3467487e-01  -8.2034410e-01  -2.1237268e-03   7.8468146e-01  -5.7361475e-01   9.5639670e-01   6.4884731e-01  -5.4902191e-01   4.7455621e-01   9.2050663e-01  -3.8141462e-01   5.4874791e-01  -3.7874502e-01   4.8416717e-01   9.1239178e-01  -5.8611442e-01  -4.4837419e-01   8.8672998e-01   6.2762495e-01  -8.7784400e-02   6.0144573e-01  -3.4968775e-01  -2.0771962e-02   4.3728839e-01  -5.1605714e-01   1.1758025e-01   5.0786392e-01   7.0042163e-01  -6.6297638e-01  -7.5104524e-01  -3.9842837e-02   2.2181528e-01  -8.3539386e-01   2.0934160e-01   8.3669904e-01  -2.8550441e-01  -4.7916817e-01   4.7114973e-01  -4.9203091e-01   8.4615084e-01   9.0862989e-01  -9.8976711e-01   1.3434437e-02  -1.6893845e-01   7.0168845e-01  -1.8482053e-01  -4.4765024e-01  -5.7126266e-02   9.8092468e-01  -4.1369331e-02   8.3983925e-01  -4.9823358e-01   8.2582125e-01  -9.6985630e-01   4.6760927e-01   9.5320970e-01  -5.4762556e-02   7.2174110e-01  -2.3617146e-01  -7.5852169e-01   9.3236351e-01   2.0785723e-01  -1.1877247e-01   3.7273151e-01  -8.7084436e-01  -5.2718654e-01  -2.4650149e-02  -1.7926956e-01   2.3249603e-01  -6.7600931e-01  -3.2995704e-02   5.5379404e-02  -2.2712610e-01   5.8205657e-01  -9.8203816e-02   2.8924320e-01  -5.5287805e-01   5.7626601e-01   5.3541088e-01   6.8090674e-01   7.1257690e-01  -3.2775627e-01  -8.0728463e-01  -8.6940691e-02  -2.5130345e-02   9.1847722e-01  -5.4636446e-02  -4.2106484e-01   7.6319183e-01   5.4174456e-01   9.7732437e-01   3.1091755e-01  -4.5285252e-01   6.0005852e-01  -6.5972047e-01   8.5809679e-01   8.1028348e-01   4.3785527e-01  -5.9461868e-01   5.8451312e-01  -1.8235869e-01   1.6199964e-01   1.6176575e-01   7.4789358e-01  -3.3906427e-01  -9.2112333e-01  -8.9739317e-01  -5.2840780e-01  -4.9561701e-01   9.3314064e-01   1.6879147e-01  -3.9880584e-01  -1.7851204e-01   1.6006162e-01  -3.0730197e-01  -9.4274797e-01   9.9864366e-01   7.3955797e-01  -8.8708153e-01   6.6817448e-01   7.9995992e-01  -7.6666514e-01   1.8218978e-01  -1.4185012e-01   4.7676190e-01   2.5280755e-01  -9.9196480e-01   9.8260906e-01  -7.0663545e-02   2.2656733e-01  -3.9782967e-01   6.9391372e-02   2.2929827e-01  -4.2238407e-01  -8.9906661e-01  -5.9416822e-01  -1.9395004e-01  -4.7881231e-01   4.3898297e-01   8.4845399e-01  -6.6887760e-01  -2.6435256e-01   4.0008475e-01   8.5977523e-01   7.7000593e-01  -1.0490959e-01   4.0791964e-01  -4.5306234e-01  -8.7845778e-01  -7.1240459e-01   7.4998797e-01   3.1151919e-01   6.7681892e-01  -1.9064400e-01  -4.9794077e-01  -9.1023901e-01  -6.2876991e-01  -1.9317052e-01   6.1466911e-01  -3.4620786e-01  -7.9955622e-01   5.4402387e-01  -3.7226653e-01  -6.1024498e-01  -2.3288643e-01  -5.0932264e-01   3.6649458e-01   1.3088341e-01  -3.5364277e-01   8.2802293e-01   6.0305076e-01   6.1821906e-01   2.4599511e-01  -7.2808183e-01   8.9964626e-01   8.1725320e-01   1.0999255e-01  -4.1366839e-01  -3.1020533e-01  -2.2960751e-01  -2.0203898e-01   2.7820036e-01   6.1753864e-02   8.6548316e-01  -7.7877483e-01   1.2493846e-01  -1.4303814e-01  -4.9834598e-02   2.1612408e-01   5.2804215e-01  -5.4957759e-01  -1.6136062e-01  -6.8217400e-01  -6.3036588e-01  -6.8307559e-01   1.6878914e-03  -5.8960070e-01  -9.1403910e-01  -2.8460637e-01  -9.7766189e-01   5.9341752e-01   9.8558545e-02  -9.2251517e-01   7.5114778e-01   2.6731964e-01   2.0620005e-01  -2.3605118e-01   9.9456030e-01   2.1344620e-01  -9.0210929e-01  -1.7169185e-01  -9.5573504e-02   1.6366006e-02   5.7977354e-01  -5.9499768e-01  -7.3239098e-01   6.2834564e-01   7.5747562e-01   4.8023098e-01   7.2682345e-01  -6.0823769e-01   8.6795117e-03   5.1552950e-01  -1.9244148e-01  -8.8406013e-01   6.0590415e-01   3.0771911e-01  -1.1753713e-01   2.4133767e-01  -1.6545710e-01   3.4465387e-01   7.4927191e-02  -5.9152571e-01   7.1679404e-01  -3.7848067e-01   5.7187052e-01   1.5282517e-02  -7.4592513e-02   5.1455440e-01   8.9987652e-01   8.6664935e-01  -8.5587714e-01   4.2676226e-01   2.8820021e-01   6.8832311e-01   5.5212392e-01  -6.1467372e-01  -7.0122097e-01   5.2253252e-01  -3.9631994e-01  -4.6670481e-01   1.2960253e-01   9.5751836e-01  -4.2987082e-01   5.8880279e-02  -1.7973209e-01  -3.7342523e-01   6.9060125e-01   8.6177628e-01   8.4677263e-01   5.1664346e-01  -9.3342628e-01  -3.4358423e-01   7.1530042e-01   6.2927773e-01  -9.9142118e-01   6.8828625e-01   2.9966357e-01  -9.7725168e-01   6.4819878e-01  -6.8182017e-01   2.5713365e-01  -3.1948322e-01   5.2832459e-01   8.3439578e-01  -6.7229193e-01  -4.6547320e-01   2.7232304e-01  -2.5716140e-01   8.8888920e-02  -6.5993399e-01   3.7668732e-02  -8.7761659e-01  -5.1622379e-01  -1.8499878e-01  -9.4991353e-01  -3.1416241e-01   5.2946697e-01  -1.8229203e-01   6.0919839e-01   7.8303039e-01  -3.6650158e-01  -6.3956187e-01  -8.9201437e-01  -5.0043561e-01   9.8210280e-01   7.4743375e-01   6.1511779e-01   7.3531236e-02   2.4018964e-01   2.5836893e-02   5.5955178e-01  -3.9068517e-01  -2.6252858e-01   8.4406166e-01   8.2354837e-01   2.7302131e-01  -8.4532001e-02  -2.2226091e-01   9.0837829e-03   3.0194743e-01   8.6885759e-01  -8.0957744e-01  -3.3849772e-01   2.9588650e-01   7.9717066e-01   9.7575634e-01  -8.0273159e-01  -8.1166880e-01   3.1780082e-01   2.7334604e-01  -8.8856970e-01   6.0961019e-01   7.5252583e-01  -1.8980768e-01  -9.2914979e-01  -4.4962582e-01  -3.8658609e-01   3.1561718e-02   4.3329468e-01   8.1181785e-01  -4.2513443e-01   3.4900367e-01   2.6534579e-01  -6.7363802e-01   1.2364525e-01   5.1007988e-01  -4.0367792e-01  -4.5377560e-01  -2.9891564e-01  -9.2800275e-01   3.3833094e-01   8.8904369e-01   8.1868727e-01   6.0775389e-01   3.5716844e-01  -9.6836557e-01   4.0266162e-01   3.1427045e-01   8.9891360e-01  -9.4626092e-02   8.8937885e-02   5.5633547e-02   7.0864419e-01  -1.0517743e-02  -4.3804527e-02  -4.9546709e-01  -4.9994688e-01   9.4961914e-01  -2.4700461e-01   4.7696772e-01  -4.5978048e-01  -1.2150312e-01  -7.7259855e-01  -9.6697845e-02  -3.6064151e-01  -7.7437617e-01  -4.4051893e-01   3.1232852e-01  -3.5617627e-01  -1.5228417e-01  -4.5289488e-01   5.5873040e-01   8.7151020e-01  -1.0542236e-01  -2.7396703e-01  -6.3769675e-01   6.7366673e-01   4.2481414e-02   3.4042704e-01   3.3920592e-01  -9.7526414e-02  -3.3792896e-01   3.7497372e-01   1.9580039e-01   6.8969354e-02  -9.4624833e-01   6.3153280e-01   7.1617056e-01  -6.4624306e-01   2.2455456e-01  -6.6669922e-01   7.7822877e-01  -2.4757897e-01  -9.3478277e-01   3.8312162e-01   8.7741696e-01   7.1777951e-01   9.5902999e-01  -5.0437011e-01  -4.3900302e-01  -1.7298756e-01  -6.3244892e-01  -8.6411676e-01  -6.4280383e-01   4.3422536e-01  -8.8421556e-01   2.1467598e-01  -4.9952895e-01  -1.7802168e-01  -8.7567706e-01  -3.9149919e-01  -4.0866818e-01   6.5112793e-01  -6.7817762e-01  -1.4714745e-01  -5.4617353e-01   3.9315930e-01   4.3607470e-01  -1.3651780e-01  -2.6368775e-01   4.9692974e-01   6.0663706e-01   8.1235418e-01  -9.8782310e-01  -4.4441975e-01   3.9316466e-01   4.3870935e-01   7.6096337e-01  -7.3728078e-01   4.0135078e-01  -5.1189184e-01  -7.1948233e-01  -5.6228257e-01  -1.6936389e-01  -6.1277432e-01   3.9809153e-02   5.2449740e-01   7.8055016e-01  -3.5359416e-01  -3.9154125e-01   8.4593818e-01   5.0107512e-01  -5.0341939e-01   2.3096975e-01   3.6844929e-01  -7.8296600e-01  -7.3598980e-01  -2.0634513e-01  -7.9430734e-01   8.6377115e-01   7.8601461e-01  -3.7542805e-01  -8.4936109e-01   5.4449801e-01   9.8139133e-01  -7.8826756e-01   6.8424669e-01  -3.5976728e-01  -2.3535519e-01   7.7802723e-01   3.9167629e-01   3.7904338e-01   2.1193415e-01   5.6919157e-01  -4.3327657e-01   7.6564067e-01   9.3644714e-01   9.7510913e-01  -7.2314425e-01  -1.0747437e-01   6.9822930e-01  -8.4848808e-01  -3.7348288e-01  -1.1023847e-01  -4.6796391e-01   6.7364608e-01   2.4021886e-01   3.5522666e-01  -6.4009809e-01  -5.3169662e-01   3.2778891e-01  -1.3819086e-01   8.9089206e-01   9.6400221e-01   2.6266572e-01  -3.8565877e-01   4.9420136e-01  -3.6698163e-01   6.3469956e-01  -6.4239341e-02  -3.9965006e-01  -8.1802109e-01  -5.5753284e-01  -7.1799369e-01   6.0894388e-01  -6.8872910e-01   4.4087714e-01  -8.1964986e-01  -5.8122541e-01   6.6531373e-01   9.1774332e-01  -8.3145308e-01   9.3706024e-01   1.8547158e-01  -1.4375218e-01  -4.9984028e-01   8.8250597e-01   9.4281656e-01  -7.0477577e-01   7.0172100e-01   6.6352348e-01   2.1607320e-01   7.3351463e-01  -8.7152566e-01   5.9999982e-01  -4.6263005e-01   4.3504718e-01   2.6361407e-01  -4.4764516e-01  -7.0677905e-02  -6.0298015e-02  -9.6628370e-01   6.2164987e-01  -1.7845305e-01   7.0928351e-01   7.0312763e-01  -1.2101100e-01   3.6638394e-01   7.7686170e-02   6.3967022e-01  -8.7287182e-02  -8.6078660e-01   5.5922606e-01  -7.7126134e-01  -4.5197926e-01  -5.5512660e-01   4.7169120e-01  -4.1282191e-01   6.0798095e-01  -8.6328907e-01   8.8871877e-01  -1.1608138e-01   7.2908890e-01  -8.5039806e-01  -8.4197639e-01  -9.8544798e-01  -3.1628054e-01  -7.3343337e-01   6.6391630e-01  -8.3946613e-01  -1.7914237e-01   1.0757568e-01   1.2631088e-02  -7.2956787e-01  -3.3879533e-01  -2.5864310e-01  -1.5475659e-01   5.0229326e-01  -3.7022383e-01   2.2779549e-01  -3.4520128e-01   2.9425483e-01   6.2725239e-01  -3.3234166e-01  -6.3884172e-01  -2.0867598e-01   8.4827590e-01  -6.7088591e-01   2.5721764e-01   9.4401947e-01   3.6719654e-01  -3.7866903e-01   1.9917272e-01   2.8457984e-02   4.4083071e-01   5.3376294e-01   2.6469069e-01  -4.6227220e-01  -7.1603230e-02   2.3781449e-01   1.8022869e-01  -7.1167305e-01   3.8491353e-01  -7.8080957e-01  -7.6530481e-01  -7.2181821e-01   5.0696086e-01  -2.3298680e-01  -6.6909883e-02  -9.2909690e-02  -6.9883321e-01  -8.5374201e-01  -2.9105317e-01   1.4849905e-02  -7.2705663e-02  -5.9962783e-01   2.5514260e-02  -6.9470569e-01  -8.4716348e-01   5.1764700e-01  -7.6666482e-01  -7.4895622e-01  -8.8639661e-01   8.1486173e-01   1.0448502e-01  -9.0965384e-01   3.1088835e-01   9.2651885e-01   2.3061086e-01   9.6582041e-01   3.5865881e-01  -5.4007543e-01  -5.0377552e-01  -9.6840921e-01  -4.8277061e-02   3.8084729e-01  -8.4542001e-02  -4.8887830e-01  -9.9249273e-01   3.1322177e-01   9.9402175e-01  -4.2951480e-01  -7.5431085e-01  -1.5685464e-02   9.0114683e-01  -2.5327503e-01  -1.3144261e-01   6.3832785e-01   6.6981282e-01   3.5749405e-01  -5.8674772e-01  -7.3625642e-01   3.5180360e-01  -2.1197366e-01  -9.7515213e-01  -7.6216460e-01   2.6709788e-01   5.5802601e-01   3.9519785e-01  -1.0348266e-01   4.4956858e-01   6.5265523e-01  -8.0378044e-02   9.2306586e-02   3.5387250e-01  -4.4399087e-01   9.8352315e-01   9.2035255e-01   1.6240498e-01   6.9534886e-01  -7.1923228e-01   7.4834286e-01   3.1113444e-01   1.7764749e-01  -6.5902716e-01  -6.7124015e-01   6.9307437e-01   3.1371903e-01  -8.9394202e-01   2.2171981e-02  -6.3566822e-01  -8.1501323e-01  -4.3150060e-01  -9.6994439e-01   3.5071106e-02   5.8450811e-01  -2.3959654e-01   4.6759045e-01  -2.5478813e-01   4.9837533e-01   5.4173281e-01   7.1918165e-01  -6.6352059e-01  -2.2208115e-01   5.0475783e-01  -2.8831856e-01  -7.3621394e-01   6.2553773e-01  -1.9469717e-01   5.7001383e-01   2.7454171e-01   2.4612036e-01   1.5613955e-01   8.9395258e-02   9.9115566e-01   7.8217805e-01   2.2739966e-01  -7.6459805e-02  -6.7164765e-01   1.0973089e-01   3.5786765e-01   2.7033518e-01   2.4405327e-01   3.5051666e-01  -1.6843124e-01  -9.0802514e-01  -8.8338991e-01   5.4957291e-01  -9.9472092e-02  -9.7933902e-01   2.3011281e-01  -5.0738714e-01   3.5946655e-01  -2.7733665e-01   7.3926763e-01   5.2140795e-01  -7.2186113e-01  -7.1224350e-01  -5.7118449e-01  -5.5184295e-02  -8.0810328e-01  -9.1185904e-02   1.0300219e-01   7.7280432e-01   3.9801488e-01   9.2667838e-01  -8.3612377e-01  -9.1658403e-02  -3.2602996e-01  -7.3428167e-01   8.7557205e-01  -9.4645975e-02  -9.5230011e-01   2.1096270e-01  -7.8345685e-01   1.9360346e-01  -8.6842228e-01   3.4918800e-01   9.6918556e-01  -8.4138153e-01  -3.7553784e-01   8.3164397e-01   1.9775322e-01   2.7081277e-01   6.8919396e-01   8.2164209e-02   6.9017814e-01   9.1903631e-01   6.0780130e-01   1.4880927e-01  -6.9824635e-01   1.7063340e-01   3.8313086e-01  -2.4160742e-01   9.9839802e-01   6.3916634e-01   6.3996807e-01   5.2265395e-01   3.5124591e-01  -1.7615458e-01   5.7413084e-02   2.9890541e-01   3.6394892e-01   5.6898963e-01   3.0929453e-01   9.2617223e-02   1.5242132e-01   1.5327814e-01   6.5301550e-01   4.0130795e-01   6.1594759e-02   1.1644700e-02   5.3410479e-01   6.4245218e-01  -1.3953903e-01   3.1694304e-01  -2.1811350e-02  -7.4273474e-02   9.5008599e-02   4.3766360e-01   1.3504494e-01   4.5892012e-01   4.4605432e-01  -4.5973460e-01   4.4439350e-01  -2.4060996e-01   3.0704181e-01  -1.0089314e-01   8.3749393e-01  -4.6364274e-01   7.9584847e-01  -7.6233142e-01  -3.8245986e-01  -8.5906726e-01  -3.6680040e-01  -3.9735885e-01   7.3201160e-02  -1.3771504e-01  -4.6680856e-01   8.1761609e-01   2.5683306e-01   9.7751839e-01   1.6216192e-01  -5.3486253e-01   6.1999859e-01  -9.9298178e-01   6.2685003e-01  -6.3090734e-01   2.1162142e-02  -2.8544887e-01   8.6420500e-01   9.3165372e-01  -5.7954817e-03   2.6688825e-01   6.6171020e-01  -6.8828133e-01  -1.7711796e-01   1.8781289e-02  -1.7887530e-01  -4.4003961e-01   2.3680189e-01   2.2043142e-01  -4.5981977e-01  -1.5557081e-01   5.0053999e-01  -4.4865104e-01   3.1007654e-01  -4.6352287e-01  -3.3847943e-01   8.6261517e-01  -9.0615525e-01  -4.9237551e-01   5.9025886e-01  -1.9958246e-01   2.1549749e-01  -5.7521277e-01  -7.4380510e-01   3.3800392e-01  -7.8015879e-01  -9.6591679e-01  -8.3032922e-01   3.3397706e-01  -8.5813531e-01  -6.6085464e-01  -3.1130329e-01   9.2387504e-01  -7.0420797e-01   1.6911720e-01   1.5286268e-01   8.4897924e-02  -8.2456048e-01   3.5158144e-01   3.4844609e-01  -9.8604815e-02  -9.4243912e-01  -5.5192322e-01   9.5499593e-01   6.6433905e-02   8.2917872e-01   1.5119204e-01  -7.8177224e-01   9.9481585e-01  -5.6501711e-01   7.6205805e-01   6.0002571e-01   2.6734006e-01  -2.7381050e-01  -9.5890414e-01  -5.9007863e-02  -3.3659533e-02  -4.0380013e-01   8.2000603e-01  -1.4324013e-01  -5.7967260e-01   5.8496782e-01   8.5819423e-01   2.6715915e-01  -5.9823820e-01   8.7287690e-01   2.3735205e-01  -2.9551048e-01  -1.6716206e-01   8.3568363e-01  -2.0863600e-01   7.9886392e-01  -7.6973184e-02   8.5220976e-01  -9.9007296e-01  -9.9230759e-01  -6.8222965e-02   3.0645495e-01   4.1434468e-01   3.9202715e-01  -2.7858063e-01  -2.3807654e-01  -9.5748229e-01  -5.4226848e-02  -8.1553691e-01  -2.3938069e-01   1.3213022e-01  -3.0189151e-01   6.8964676e-02  -2.2947993e-01  -5.3545655e-01  -6.4846344e-01   7.1666839e-01  -3.0229258e-01   5.9599006e-01  -3.6611562e-01   4.1561932e-01   4.2042014e-01  -3.0829134e-01  -5.1283007e-01  -5.2115151e-01  -4.8067172e-01   5.8146855e-01  -2.4258234e-01  -8.0558291e-02   7.0140483e-01  -4.7098970e-01   8.8390677e-01  -5.9973573e-01   4.6137841e-01  -3.4146068e-01   7.0076046e-01  -4.2629122e-01   7.1112637e-01  -4.8223064e-01   4.2653689e-01  -8.6365687e-01   1.0243358e-01   3.7593403e-01  -3.6606529e-01  -1.1011622e-01   5.8887857e-01  -3.6517364e-01   7.3956381e-02  -5.8337742e-01  -1.0440290e-01  -5.5124826e-01  -2.4518870e-01   8.1925586e-01   5.1363304e-01   6.4425840e-01   3.2660051e-02   6.2847112e-01   9.2448458e-01   9.4454375e-01  -4.3231989e-01  -1.1210770e-01   9.5165250e-01  -2.6958057e-01   8.5458976e-01  -7.6288625e-01  -9.4847453e-01
  -5.3807911e-01   4.1066464e-01  -5.0777698e-01   7.6397245e-01  -5.0711273e-01  -4.2990483e-01   1.4079669e-01   6.1885188e-01   2.2687002e-01  -3.9198848e-02  -9.6568167e-01  -3.7666025e-01  -8.7127512e-01   3.5492229e-02   5.3548517e-01  -9.1440978e-02  -9.8903531e-01  -2.9732262e-01  -2.1561520e-01  -2.5758436e-01  -7.1728242e-01   9.5180055e-01   1.9933225e-01  -6.3039257e-01   7.9058219e-01   1.2785717e-01  -3.8162821e-01   5.3712072e-01  -8.9197442e-01  -1.0343102e-01  -7.4017710e-03  -6.7507712e-02  -4.9241353e-01  -6.8297931e-01   9.1985270e-01   3.3522021e-01   4.0379303e-01   2.5472866e-01   7.7199500e-01  -4.7964416e-01  -4.4176014e-01  -4.5560195e-02   5.0929713e-01  -7.7140511e-02   7.7609243e-01   2.2206952e-01  -5.2695115e-01  -7.9391104e-01  -9.8171776e-01  -2.1822725e-01   1.6174084e-01   6.8492265e-01   6.4900636e-01   3.9335066e-01   4.6984953e-02  -4.2676340e-01  -7.0890633e-01   7.0002367e-01  -1.0179438e-01  -6.0131454e-02   2.4395808e-01   6.8642150e-01   2.7941258e-03   3.3396923e-01  -3.9615789e-02   4.0962313e-01  -2.0402875e-01  -2.1719833e-01   7.8726019e-01   2.9196271e-01   8.7604623e-01   4.3605116e-01   7.9758222e-01  -3.9806106e-01   9.9838462e-01  -5.9354264e-01   5.4343142e-02   7.3861147e-01   6.0754573e-02   5.4087042e-02  -3.7713673e-01  -2.6944373e-01  -1.3890383e-01  -3.3919581e-01   9.9715555e-01   1.7303014e-01  -7.8655473e-01  -9.0219562e-01   4.9747572e-01  -2.2809461e-01  -3.4761593e-01  -1.7748766e-01  -6.2930408e-01  -7.6570160e-01   5.6846779e-01   2.9901338e-01  -3.4088290e-01   5.9936010e-01   8.1501817e-01  -9.0871166e-01  -4.5382593e-01  -1.7252084e-01   1.6739741e-01   8.9241107e-01  -5.1276849e-01  -2.2969112e-01  -7.3868059e-01   1.5038582e-01   5.4046596e-01   8.9823454e-02   3.3485579e-01  -7.7825915e-01  -4.0997729e-01  -5.8967609e-01  -1.5458183e-01  -6.6699994e-01  -5.2840440e-01  -2.5039084e-01   3.6300920e-01  -3.7957009e-01   7.9311553e-01  -2.7727734e-01  -2.9009204e-01   5.9139257e-01   8.8396338e-01  -6.2034124e-01   9.3310850e-02   3.0629929e-01   6.3508552e-01   5.2000417e-01   3.0457268e-01  -8.1082991e-01   3.1417844e-01   5.5569871e-02  -9.3440374e-01   3.1874406e-01   1.2153629e-01  -1.6968855e-01   8.6834501e-01  -7.1938544e-01  -9.7996646e-01  -5.5680868e-01   3.6804837e-01  -8.2533094e-01  -5.8472358e-01   4.3771021e-01   5.1705328e-01  -3.4832509e-01  -9.8149857e-01   3.5646179e-01  -5.6531445e-01  -8.9134966e-01  -6.0936113e-01  -3.5945876e-02   7.9618038e-01   5.5695981e-01  -4.5541754e-01  -6.9124196e-01   2.9124023e-02  -6.4090033e-01   9.8827639e-01   4.7700205e-01  -1.6284120e-01  -8.5386438e-01  -2.3423414e-01   6.0618288e-01  -3.7289670e-01  -7.3778372e-01   3.7767912e-01  -7.1520257e-01   9.5625298e-01   6.1750528e-01   9.3427824e-01  -3.8879602e-01  -4.2931636e-01  -9.5028761e-01  -9.7584716e-01  -9.5046028e-01  -1.2755920e-01  -3.6616753e-01   4.7216790e-01  -5.0718938e-02  -1.7465868e-01  -8.8041807e-01   3.6352018e-01  -1.3086961e-01   2.4785400e-01  -2.6321382e-01  -3.1753806e-01  -7.3472994e-01  -4.7116801e-01   4.9059970e-01  -9.4206317e-01  -2.9047183e-01  -8.3792278e-01  -6.7780916e-01  -5.8368163e-01  -7.0771634e-01  -1.3624366e-01   7.5773138e-01  -3.1928087e-02   7.6879253e-01  -3.1542586e-02   1.0857873e-01  -5.8981500e-01   9.1625464e-01   1.7085108e-01   3.0150850e-02   3.2139761e-01  -7.4120189e-01  -7.5150468e-01  -8.0951080e-01  -4.9047522e-01   5.4748575e-02  -9.8373179e-01   6.1656794e-01  -6.1854967e-01   6.0654155e-01  -6.0710021e-01  -4.2385057e-02   4.1769200e-01  -8.6705119e-01   8.5033027e-01  -9.0640383e-01  -9.5004165e-01  -9.0114518e-01  -8.5016520e-01  -8.2125649e-01   4.2996735e-01   7.0453664e-01  -2.4872316e-01  -1.0653453e-01  -4.5238839e-01   7.7994618e-01  -8.3524879e-01  -8.7686215e-02  -1.3959522e-01  -2.2091836e-01   7.2318451e-01  -2.8561187e-01   8.1855347e-01   7.0387690e-01   8.3273673e-01   8.2446767e-02   8.5137659e-01  -8.4203868e-01   1.4860705e-01   8.1045239e-01   9.6333864e-01   1.1772337e-01  -4.6100755e-01  -8.1638474e-01  -5.9992442e-01  -3.1698558e-01   4.4328443e-01  -9.2243039e-01  -9.7089134e-02   1.7495638e-01   8.7443689e-01   3.5592297e-01  -7.0896503e-01  -7.2680409e-01  -1.2547611e-01  -7.3132463e-01  -2.2434588e-03   2.4196238e-01   1.4923445e-02  -9.8400053e-01   6.7807519e-01   5.9516154e-02   2.4597340e-01  -5.5799635e-01   4.2085640e-01   8.9892466e-01  -7.5315860e-01   1.6156102e-02  -5.0493580e-01  -4.6097695e-01   4.2300842e-01   2.6437802e-01   9.4274906e-01  -6.7577368e-01   3.4585352e-01  -1.2881427e-02   8.7909696e-01   7.1286647e-01  -5.3635743e-01   1.1277681e-01  -1.9802412e-01  -7.2205349e-01   3.0055844e-01  -2.8606040e-01  -8.7080628e-01  -1.6901109e-01  -8.7354645e-01  -2.0872021e-01   6.0643830e-01  -8.0820837e-01   2.3702099e-01   3.4788627e-01  -8.0692977e-01   7.1898864e-01  -5.8360428e-01   6.1020091e-01  -4.5570372e-01   9.5238918e-01  -5.9907115e-01   3.1430307e-02  -4.6390110e-01  -2.7042388e-01  -7.3184012e-01  -5.3802297e-01  -1.6060333e-01  -7.2304334e-01  -3.1868254e-01  -4.5264962e-01   7.0902495e-02   6.9588066e-01  -1.0322381e-01   2.7304830e-01   6.2842117e-01   1.8664899e-01   4.8909202e-01  -1.9299822e-01  -2.7013397e-01  -3.5516088e-02   1.8727050e-01  -6.7962120e-01  -7.1010603e-01  -3.0252357e-01  -6.0000601e-01  -3.7133091e-01  -9.1744574e-01   3.9863808e-01   2.5563805e-01  -4.2908923e-01   5.9139729e-01   4.1996859e-01   3.0837152e-01   6.4578453e-01  -9.0466478e-01  -2.5970896e-01   8.5086600e-01   6.8154878e-01  -9.8247113e-01   6.7816226e-01  -7.4496710e-02  -6.7511216e-01   3.0404136e-01   9.8056519e-01   5.5328449e-01   8.2518287e-01   1.4829166e-01  -4.9270584e-01  -5.5071355e-01   5.0266994e-01  -5.6886102e-01  -3.6176363e-01  -8.4299302e-01  -6.3033557e-01  -8.9668361e-01  -9.5119315e-01  -2.1248085e-01  -6.5472997e-01   6.8261557e-01   2.2678682e-01   7.6272206e-01   5.1261923e-01   1.2500571e-01  -9.0225461e-01  -8.1733872e-01  -5.7616313e-01   6.5597534e-01  -6.3609440e-01   6.8380117e-01  -2.2745338e-01   2.5911191e-01  -7.3302897e-01  -3.8644518e-01   3.5096514e-01   9.0288139e-01  -4.5042636e-01   5.4397848e-01  -5.3573642e-01   3.4521547e-01   3.1450984e-01   9.3953468e-01   7.3964862e-01  -7.7656950e-01   8.5388304e-01  -5.8610519e-01   6.5777740e-01  -9.2631958e-02  -3.6326317e-01   1.5984178e-01  -4.9712682e-01  -7.3801898e-01  -2.2128772e-01  -6.3719038e-01   7.8812092e-01   3.6439958e-01  -3.4741910e-01   3.2365303e-01   7.6183148e-01  -7.0207388e-02   1.9174860e-01  -4.1609803e-01   1.1092484e-01   3.1166402e-01   5.3595891e-01  -9.6773625e-01  -2.7624959e-01   1.2651385e-01  -3.7452657e-01   1.7112736e-01   7.7380605e-01  -7.7736559e-01  -1.0978434e-01   9.5745922e-01  -6.1323089e-01   5.1021672e-01  -2.9456866e-01   3.3650281e-01   7.5925657e-01  -6.7350696e-01  -9.3049838e-01  -3.9420464e-02  -2.3958857e-01   2.9495147e-02   3.2492339e-02   2.3373372e-01  -5.5872602e-01   3.4527135e-01   7.8597026e-01  -3.7999396e-04   2.7785212e-01   6.7001703e-02  -4.1857627e-01  -6.3026192e-02   3.5277797e-01   3.5185918e-01   5.1896242e-01   4.6262465e-02  -3.1941531e-01   8.9740074e-01  -6.7738475e-01   5.7065334e-01  -1.3301264e-01  -8.5461783e-01   7.0829347e-01   2.3439973e-01  -7.3386463e-01   2.5239061e-01   1.7650482e-01   1.5924555e-01  -5.8436874e-01  -3.2556257e-01   9.6370328e-01   5.2967103e-01   4.8740225e-01   1.1749800e-03  -6.4116704e-01  -4.5128656e-01   6.6920723e-02   8.4899271e-01   3.9959175e-01   4.0414961e-02  -2.1344902e-01  -4.0207285e-01  -7.4123875e-01   8.1169071e-01   7.6061118e-01   7.5456648e-01  -3.6185632e-01   6.6258630e-01   4.4070110e-01  -7.4369028e-01  -2.2190961e-01  -4.9163847e-01   9.5878139e-01  -4.3178535e-01   9.2977319e-01  -4.2181394e-01  -3.1783734e-02   8.3024705e-01  -2.1779061e-01  -5.0221865e-01   5.8577150e-01   8.9052759e-01   4.1500378e-01  -6.9223148e-01  -9.3680175e-01   3.9260381e-01   3.6495684e-01   8.8179830e-02  -6.1071015e-01   5.2723611e-01  -8.2625760e-01   5.3257581e-01   2.2744242e-01   4.1815598e-01  -5.8691307e-01   3.9543134e-01   5.6868384e-01  -8.0171539e-01  -4.5365332e-01  -5.4254107e-01  -6.1665349e-01   6.4679898e-01  -8.2160560e-02   2.8886366e-01   1.7429599e-01   9.5051782e-01   9.8229189e-01  -8.0563922e-01  -5.2318708e-01   7.4838221e-01  -7.1531804e-01  -7.9033595e-01  -3.0645633e-02   9.2343023e-01   6.3402386e-01  -4.0816602e-01   4.1106530e-01   5.5418956e-01   7.9713283e-01   1.3145751e-01   8.2817904e-01  -8.6130970e-01   5.6162247e-01  -7.7924977e-01   6.5762576e-01   1.7788832e-03   4.3244532e-01  -8.1316279e-01   7.5892231e-01   3.3793723e-01   6.9748953e-01   3.5915590e-01   9.5389476e-01   8.7609120e-01  -2.3837052e-01   1.6260500e-01   5.8541265e-01  -4.5002768e-01  -3.2812789e-01  -8.4851697e-01   4.5604214e-01   6.1147203e-01   3.3022294e-01  -2.9471485e-01   6.1668409e-01   1.0884712e-01   8.6922977e-01   8.6496730e-01  -2.1796969e-01   3.3548564e-01   5.1269736e-01  -2.8208513e-01   8.5982251e-01  -6.6781997e-01  -7.2171247e-01   4.6125953e-01   5.0184242e-02  -2.3787191e-01   5.4265853e-01   2.5526414e-01  -5.3589594e-01   1.5851713e-01  -3.4848806e-01  -4.1252894e-01   6.6142175e-01  -3.2992077e-01  -3.4135848e-01   4.0543151e-01  -7.6330737e-01  -7.6882501e-01   5.2724138e-01   9.9323686e-01   5.2164904e-01  -7.0098738e-01  -5.9848494e-01  -5.4243982e-01   5.0850067e-01  -1.2650639e-01   9.9687665e-01   6.7319350e-01   1.3586065e-01   8.5811707e-01   6.6331175e-01   7.5576490e-01   3.6713898e-01  -5.5823521e-01   8.6558117e-01  -1.6321119e-01   9.7344642e-01   2.8905238e-01   3.2379645e-01   4.6183988e-02  -4.0134129e-01  -2.7153267e-01  -9.3411659e-01  -8.1469873e-01  -6.6738679e-01   9.5424614e-01  -2.2138111e-01   2.8119410e-01   3.3841233e-01   9.9477186e-01   8.5047091e-02   8.6406309e-01  -3.9108595e-01  -8.0745611e-01   1.7885140e-01  -4.2421466e-01  -4.1481521e-01   1.6743965e-01  -9.7198910e-01   1.6711203e-01  -1.6663722e-01  -3.1664425e-01  -6.2503936e-01  -4.2726381e-01  -2.7301153e-01   5.9369820e-01  -1.5071426e-01   4.5250642e-01  -4.2635535e-01  -5.0037363e-01  -3.1991063e-01   3.4505323e-01   8.0306066e-01   7.4989601e-01   5.2120109e-02   8.4536233e-01  -3.1411549e-01   2.2975429e-01  -8.3871583e-01  -7.8638316e-01  -7.0952609e-02  -4.1736720e-01   6.8686393e-01   4.7851975e-01  -8.0043181e-01   5.3599169e-01  -6.5814998e-01  -3.8727907e-01   9.7579254e-01  -4.2781860e-01   9.7575795e-01  -2.7305265e-01   3.1668664e-01   4.1247165e-01  -6.1728524e-01   5.5525365e-01  -7.9377225e-01   9.8966738e-01  -5.3067342e-01   7.2594716e-01  -4.4599014e-01   2.9797174e-01  -9.6621463e-01  -9.4162632e-01  -7.2129959e-02   6.0231280e-01  -1.5759292e-01  -5.8472381e-01   4.1443365e-03   4.4621060e-01   5.5192734e-03   1.9670264e-01   5.7682896e-01  -4.1318377e-01  -2.3452390e-01  -9.4791503e-01   7.6956630e-02   7.2497210e-01   8.1354361e-01  -5.0491684e-01  -7.8844493e-01  -9.1982273e-01   2.5546237e-01  -8.2285500e-01  -9.4998571e-01  -6.5981108e-01   4.9604651e-01  -7.1316253e-01   5.1168831e-01  -1.2804692e-01  -7.2666117e-01  -4.6630840e-01   4.9283301e-01  -8.3120360e-02   5.2482416e-01   1.2325412e-01  -2.3639293e-01   1.7275871e-01  -5.2939467e-02   1.4221154e-01   2.9267695e-02   2.4786704e-01   5.4219426e-01  -9.8477704e-01  -4.3847836e-01   2.8063289e-01  -5.2725897e-01   7.0432762e-01   5.7479819e-01   5.0818200e-01   8.7238531e-01  -9.9338345e-01  -8.1347291e-01   3.6971659e-01   2.9183437e-01  -8.6800726e-01  -8.6540438e-01  -8.0006217e-01  -4.4636428e-01  -2.8862112e-01  -4.3594928e-01  -4.5519135e-01   2.2767751e-01   4.7205076e-01   6.3539532e-01  -7.8117093e-01   7.9891158e-02   7.9048923e-01  -8.3510604e-01  -2.5462982e-01  -9.5223111e-01   5.7416740e-01  -3.1938993e-01   1.9626834e-02  -9.4500835e-01   2.4752922e-01  -6.9137689e-01  -6.1128641e-01  -4.8393110e-01   5.1986447e-01  -4.5361693e-01  -4.5546463e-01  -1.7702959e-01  -2.8029892e-01  -9.7639780e-02   7.8235441e-01  -9.0571729e-01   2.2446912e-01  -6.8105852e-01  -9.6026341e-02  -8.2430252e-01  -9.7228453e-01  -3.4744760e-01  -4.3898967e-01  -7.6280234e-01  -9.1670768e-01  -4.3103355e-01   6.3964972e-01  -7.5668396e-02  -8.7141753e-01  -9.5188472e-01  -6.0106708e-01  -8.6549576e-01   4.1667715e-01   7.6113939e-02  -1.0368208e-01   8.2236711e-01  -5.5630496e-01  -7.0139629e-02   8.4317486e-01  -8.3685457e-01  -6.5552759e-01   2.0420499e-01  -8.1257687e-01  -9.3384826e-01  -9.6305747e-01  -8.9801148e-01   1.9936333e-01   1.7297135e-01   6.9552705e-01   7.3962173e-01   7.9431259e-01  -6.0529217e-01   7.5087226e-01  -4.1481801e-01  -9.9601012e-01  -7.3902567e-01  -1.9619919e-02   3.4656534e-01   9.3234684e-01  -7.4466173e-01  -4.6091435e-01  -6.5205656e-01  -9.5343869e-01   7.9095324e-01   3.4953843e-01   4.0897859e-01  -4.1646207e-01   6.5486645e-01  -5.1871172e-01  -4.2004359e-01   9.4860393e-01  -1.6220438e-01   2.7992725e-01   2.0114003e-02   6.8634211e-01   4.2855214e-01   9.9757652e-01  -7.0132882e-02  -6.5351153e-01   2.8128399e-01   1.5947996e-01  -2.9661557e-01  -9.6327312e-01  -6.7926108e-01   1.1517903e-01   3.5856341e-01  -3.7832803e-01  -8.5304234e-01   9.4576101e-02   2.3791543e-01   6.5405220e-01  -4.0465850e-01  -1.5094417e-01  -3.8310496e-01  -2.4741619e-01   6.0099585e-01  -4.0487841e-01  -8.9920558e-01  -4.3888815e-01   6.1135066e-01  -8.5110745e-01  -9.2065759e-01  -1.9218954e-01   4.0848935e-01  -7.2352301e-01   2.0555750e-01   8.7132693e-01  -3.6771277e-01   5.5394148e-01  -3.7955836e-01   6.6508983e-01  -4.9974661e-03   3.2847002e-01  -2.9697322e-01   7.4915304e-02   1.9667122e-01   4.3541309e-01  -9.4603687e-01  -3.9278830e-01   7.8254335e-01   9.8383380e-01  -1.6051253e-01  -3.2890610e-01   1.0901096e-01   1.7488351e-01  -2.2060382e-01  -9.1230123e-01  -8.1193131e-01   4.9575827e-01  -2.1240046e-01   8.9528088e-01  -9.7543218e-01  -9.7570320e-01  -3.9054608e-01   2.7057053e-01   6.6019234e-01   2.9119616e-01  -4.1976896e-01   3.4078662e-01   3.7381834e-01  -2.2174622e-01  -9.5250798e-01   5.0783737e-01   8.6972317e-01   3.5724096e-01  -2.8015967e-01  -9.8873240e-01   5.4829567e-01  -5.9729640e-01  -2.3816857e-01  -7.5748072e-01  -7.5237375e-01   7.5930310e-01  -9.4320512e-02  -4.9759760e-01  -8.8975213e-02   7.2214419e-01   3.5310559e-01   6.3483774e-01  -7.9081638e-01   8.4387606e-01   8.7239397e-01  -3.6562770e-01  -7.0845049e-01  -5.4880610e-01   9.0532069e-02   9.8287992e-01   8.7708027e-01  -2.2384090e-01  -9.6019788e-01  -9.1286099e-01  -1.4072339e-03  -9.1817579e-01  -7.2776374e-01   5.2238620e-01  -9.4701098e-01   3.3457515e-01  -4.1793896e-01   8.8193123e-02  -5.9441870e-01  -8.8779598e-01   1.0987476e-01   4.5694283e-01   2.0064422e-01  -9.4253327e-02   1.0824625e-01   4.6362260e-01  -3.9037117e-01   2.0425009e-01   5.1461674e-01  -5.4846647e-02  -8.9035374e-01  -5.5423014e-01  -2.9782286e-01   4.6094332e-01   8.5236335e-01  -8.6925655e-01  -1.3956013e-01   5.5616242e-01  -7.7800698e-01   9.7982343e-01  -3.2522994e-01   3.9097647e-01  -4.4659294e-01  -4.5638451e-01  -6.3453710e-01   8.7943430e-01   7.7282821e-01  -3.7091795e-02   8.8418433e-01   6.7641377e-01  -2.4901774e-01  -7.5146015e-01  -9.9688773e-01   7.3486071e-01   6.8354241e-01   8.0326002e-01   6.6131004e-01  -8.1847550e-01  -5.5268719e-01  -8.8791802e-01   1.2065336e-01   4.2520442e-01  -7.8795928e-01  -8.6116467e-01   4.5078217e-01  -9.6532382e-01   7.4235944e-01  -8.3881141e-01   1.0102858e-01   9.1787556e-01  -9.0552137e-01  -9.8137454e-01   5.0102257e-01  -1.8853914e-01   7.7199966e-01  -7.1639590e-01  -5.3713000e-01  -9.1507691e-01  -7.3858759e-01   7.3692633e-01  -1.9662565e-01   2.6071677e-01  -7.9391196e-01  -2.6239313e-02  -7.3828525e-01  -1.6782858e-01  -4.6213828e-01   8.5213561e-01  -4.7488898e-01  -2.7246579e-01  -1.2677551e-01   8.5953231e-01   9.7116974e-01  -8.1000511e-01   4.2602069e-01   7.5003679e-01  -3.5802912e-01   6.0931448e-01  -8.8849598e-01  -8.1551139e-01   7.0915830e-01   5.5895427e-01   5.5119435e-01   5.7677385e-01   9.6388945e-02   4.7014896e-02   1.8294275e-01  -7.1442337e-01   1.8067970e-02
   3.4422535e-01  -7.6840976e-01   1.3914307e-01   9.0292115e-01   1.1779970e-02  -9.4794431e-01   4.5120396e-01   2.0006110e-01   2.5326150e-01  -9.4754495e-01   3.9497145e-01  -3.3400911e-01  -5.9127258e-01  -1.7157595e-01  -9.5332150e-01  -9.3250362e-01  -1.0291798e-01  -2.2904675e-01  -5.8045346e-01  -6.4984875e-01   1.2704266e-01   7.2407360e-01   8.8470428e-01   9.6057423e-01  -8.5120627e-01  -2.0528764e-01   3.7048827e-01  -9.1503299e-01   2.5203482e-01   5.0898213e-01   3.3151643e-01  -8.7627463e-01   8.7347107e-01  -4.1110410e-01  -2.2852815e-01   6.9293855e-01  -3.6048962e-01   2.2203882e-01  -7.9633240e-01   8.6350911e-01   3.6717158e-01   4.3036315e-01   7.6198827e-01   6.5783461e-01  -6.6331047e-02  -3.6939717e-01  -5.8894854e-02   8.2506129e-01  -9.9862649e-01  -4.5400497e-02  -9.7008801e-01   7.7654728e-01   5.5737997e-01   9.7776721e-02  -6.3965629e-01  -7.7298147e-01   3.8627015e-01   7.7172137e-01  -2.3862774e-01   9.2152535e-01  -5.6996658e-01  -9.7049956e-01  -1.9101430e-01  -3.8060912e-01   5.4181595e-01  -6.4014987e-01  -4.1004503e-01   1.4389467e-01  -8.6941747e-01  -2.1096641e-01   4.4845269e-01  -5.8845221e-01  -7.4877480e-01  -7.0291326e-02  -6.8831179e-01  -7.9690935e-01  -5.9072292e-01   5.8805406e-01  -7.2687110e-01   5.8044851e-01   4.1372676e-02  -3.7252105e-01  -1.4051659e-01  -7.7320075e-01  -3.2117060e-01   9.8726897e-01  -6.1441729e-03   5.4645875e-01  -4.7687097e-01  -2.1127226e-01   9.3019631e-01   2.3933943e-01   5.8046623e-01  -6.3196080e-01   9.8840271e-01  -8.0105711e-01   5.5689714e-01  -7.4141630e-01  -2.3048643e-01   1.8209617e-01  -7.1564846e-02   2.3405596e-01  -4.6873123e-01  -7.1285982e-01   8.9362081e-01  -4.2964237e-01  -3.5230875e-01  -1.5798015e-01  -5.7131243e-01   7.0854712e-01   6.0180237e-01  -8.6446292e-01   9.6566868e-01  -2.5443055e-02   4.0963793e-01   5.8555601e-01  -5.9638876e-02   1.9357483e-01  -7.2525594e-01   3.0577357e-01  -6.5619416e-01   2.6491293e-01  -3.2901801e-01   1.9370152e-01   9.0349654e-01   4.9525131e-01   5.3253127e-01   7.0885166e-01   9.6951057e-01  -1.5632825e-01  -1.4774396e-01   5.5523485e-01  -8.9936981e-01   1.6233682e-02   9.1840014e-01  -4.9362238e-01  -1.5264272e-01   6.4927956e-01  -5.7695364e-01   5.5960968e-01  -7.7775683e-01   9.8245687e-01   8.7486492e-01   7.5226175e-01   6.7640985e-02   8.6082431e-01   8.9791420e-01  -2.6660589e-01   6.8708534e-01   9.0436782e-01  -5.0734452e-01  -5.5515275e-01   8.4345153e-01  -3.8194170e-01   4.2619378e-02   8.3644002e-02   2.8260590e-01  -3.6544051e-01  -5.0936075e-01   6.4630566e-01   2.1915826e-01  -4.1316874e-01  -2.9349002e-01  -5.6165171e-01  -1.3852888e-01   1.0269777e-01   7.1057462e-01  -4.9874926e-01   8.6968914e-01  -7.3474122e-02   7.8667973e-01   1.1464316e-01  -2.3144199e-01  -8.2693976e-02   7.5838366e-01   9.9758791e-01   4.7052131e-01  -7.8672088e-01   8.6080737e-01  -7.5810748e-01  -5.2993786e-01   5.3844009e-03  -1.1118219e-02   5.6424771e-01   9.1656843e-01  -3.1783684e-01   9.0166966e-01   1.6156082e-01   7.4570565e-01   5.5378038e-02   4.6732027e-01  -1.0687731e-01  -9.4638047e-02   5.1530784e-01   1.2262041e-01  -3.3979294e-01  -8.7434092e-01  -4.2082116e-01  -5.3393625e-01  -2.7926050e-01  -1.2784352e-01  -6.6487542e-01   9.5343993e-01   6.0202959e-01   5.3262905e-01   8.1233047e-01  -4.7322867e-01   9.2932423e-01  -2.2376957e-02   2.2798485e-01  -3.1661148e-01  -8.8687423e-01  -3.1150760e-01  -4.4223187e-02  -1.6301358e-01  -9.4989052e-01  -3.3367767e-01   3.0954918e-02  -3.3327673e-01   5.9059470e-01  -2.5437910e-01   2.1093489e-01  -7.0099178e-01  -4.6453931e-01   2.8980303e-01   2.9775365e-01   3.6622177e-01  -2.5043132e-01  -5.3120099e-01  -6.8870068e-01   1.2989339e-02  -7.8017697e-01  -4.8726473e-01   7.2335144e-02   6.4980678e-01  -3.0377635e-01  -1.7044775e-01   3.6555422e-01   2.2111309e-01  -4.0002564e-01   9.2321701e-01  -1.9852809e-01  -9.8644987e-02   3.2066268e-02   1.6620090e-02   7.3514330e-01  -7.2651266e-01  -4.6788251e-01   5.5883438e-01   2.6956408e-01   7.3512845e-01  -2.8826381e-01   8.1040011e-01  -4.8283846e-01   8.2680665e-01   7.4122227e-01  -6.6422816e-01   7.8388496e-01   3.9927221e-01   6.6221720e-01  -6.3667311e-01   9.1568973e-01  -7.7059442e-01  -7.9172932e-01   2.7950443e-01  -2.0221723e-01   7.3749363e-02  -9.4975831e-01  -8.8223281e-01   2.1255500e-01   5.0709174e-01  -5.6749208e-01  -8.5681207e-01   5.9718761e-01  -3.2601492e-03  -8.9968647e-01  -5.1895245e-01   3.9238854e-01  -5.1220718e-01   8.4771498e-01   7.1471700e-01  -4.0850157e-01  -7.3748334e-01  -3.9431875e-03  -1.1781435e-01   7.3587275e-01   2.5295511e-01   4.5715867e-01   6.6767834e-01  -4.5004824e-02   4.9870416e-01   3.7880573e-01   5.6275854e-01   9.0118310e-01   2.0176130e-01  -9.2533246e-01  -4.1577144e-01  -3.7665185e-01  -8.3789467e-01   3.1464318e-01  -9.8584546e-01   8.6513053e-02   6.3982797e-01   7.3333472e-01   7.9609088e-01   5.3659709e-01  -4.0009468e-01  -5.1251078e-01   5.4688765e-01   4.3010707e-01   5.5654152e-01   2.4008968e-01  -7.4961395e-01   9.4771343e-01  -3.5270285e-01  -8.4614838e-02   7.6992754e-01   1.3899888e-01  -8.8324231e-01   1.0295286e-01  -1.7480870e-01   1.0642836e-02   9.0735825e-01   2.3006782e-01  -7.2058398e-01  -5.0347115e-01  -5.0792987e-01  -5.6552492e-01   4.5204361e-01  -6.0336545e-01   8.3514443e-02   5.3897854e-01   7.4804573e-02   2.3969142e-01  -8.1203405e-02   7.6090750e-01   8.6043690e-01  -9.5959412e-01  -2.8883427e-01   9.7149716e-01  -5.8358339e-01   4.5785780e-01  -7.5289862e-01   8.1732665e-01   8.6133911e-01  -6.8454543e-01  -8.5730230e-01  -9.9089700e-01   9.4643121e-01  -6.7168530e-01  -4.3070802e-01   3.1885458e-01   7.5314072e-01  -4.8622181e-02  -6.5957614e-01  -5.5134968e-01  -7.8171206e-01   1.1993327e-01  -8.8954710e-01   1.9623494e-01  -3.7604742e-02  -9.4075916e-01  -1.2655646e-01   3.0928101e-01  -2.9500340e-01   6.9156101e-01   2.1419785e-01  -2.6526318e-01  -1.7279505e-01   9.2708002e-02  -6.6764217e-01  -9.7227857e-01  -3.2357882e-01   5.2846405e-01   3.2078147e-01  -8.5394864e-01   6.6605469e-01   6.9050403e-01   5.5793348e-01  -1.5254375e-01   1.1221348e-01   5.9264933e-02   4.9257059e-01  -7.0447783e-01   3.0349635e-01   5.4947083e-01   7.6222417e-01   8.8289547e-02  -2.2096314e-01   8.4226710e-01  -9.6112501e-01   6.8307365e-01   2.7658668e-01  -5.5661728e-01  -4.6519142e-01  -4.4064749e-01   3.3468980e-01   5.7893755e-01   9.9479272e-01  -1.2876622e-01   1.7114604e-01  -1.9463092e-01  -4.3052839e-01   2.3429803e-01  -2.4768719e-01  -4.8478947e-01  -1.0911855e-01   7.7876335e-02   5.7776394e-01   4.5292409e-01   1.9229896e-01  -9.5426220e-01   8.7661487e-01   8.8460233e-01  -9.8113478e-02   9.0259444e-01  -9.1252025e-02  -6.8991330e-01  -3.8022483e-01  -8.4599005e-01   6.7091010e-01  -8.4440861e-01  -7.7432981e-01   4.1982445e-01  -5.5217409e-01  -1.0098802e-01  -2.6576078e-01   3.2167532e-01   2.6079885e-02   3.3342213e-01   3.4175081e-01  -8.3562280e-02  -3.5693693e-01   1.7065845e-01  -1.7307928e-01  -5.7659607e-01  -4.3667994e-01   3.0752541e-01   1.7226730e-01  -7.0468931e-02   5.7408554e-01  -3.8432232e-01   6.0699798e-01  -5.0923654e-01  -5.3857135e-01  -5.4158457e-01   6.5188911e-01  -3.4249577e-01   2.0664617e-01   5.7039049e-01   6.8879593e-01   1.6962159e-01  -2.8508160e-01  -5.7247974e-02  -3.3963473e-01  -3.1502182e-01   9.1103793e-01  -2.2507957e-01  -2.0776045e-01   1.3916306e-01  -6.4002678e-01  -9.4412406e-01   6.2510596e-01  -2.8022251e-01  -9.3353202e-01   9.1843398e-01  -2.7368528e-01   6.1714078e-01   1.4694306e-01  -4.4792907e-02  -9.7015397e-01  -1.0806594e-01  -4.6311000e-01   9.0686646e-01   6.1896460e-01   2.7418940e-01   2.9768130e-01  -4.2065351e-01  -3.8733209e-01  -8.5391412e-01   4.8669279e-01  -1.2310422e-02   7.6496208e-01  -2.4799279e-01  -4.4040332e-01   8.8608999e-01  -1.5915092e-01  -6.3611619e-01   3.5719997e-01  -8.4637225e-01   2.4687475e-02   4.2297020e-02   4.6120531e-01  -5.6923902e-01  -4.5020442e-01   1.9820684e-01   4.0109085e-01  -4.6093615e-01  -6.8016932e-01   4.6950108e-01   6.2515692e-01   8.6802877e-01   1.2596896e-01   1.3607961e-01  -1.3625862e-01   7.0489727e-01  -4.8118877e-02  -5.3061418e-01  -5.3754732e-01   1.9885015e-01   4.5368501e-01  -2.6083357e-01  -9.0914716e-01  -9.1771954e-01   8.6368990e-01  -3.8038386e-01   5.5724465e-01  -6.3235400e-01   3.1038079e-01  -1.8354421e-01  -1.5350775e-01  -5.3168868e-01   8.2623335e-01   2.8109608e-01   5.8237940e-01   6.3287485e-01  -6.3551768e-01   3.0639792e-01   3.5912345e-01  -6.1095869e-01  -7.0191933e-01  -3.1627089e-01  -1.4748371e-01  -8.7043031e-01  -2.4484449e-01  -7.7147957e-01  -4.5939730e-01  -1.7415710e-01  -9.3441761e-01   8.5703489e-01  -3.4346351e-01  -9.5603092e-01   3.9038743e-01   6.4444738e-01  -3.6354477e-04  -1.2268886e-01  -8.2165708e-01   6.6492167e-01  -4.8060372e-01   6.2682714e-01  -6.4400627e-02  -9.5862294e-01   2.0637506e-01  -1.5331699e-01  -5.4518081e-01  -3.3728350e-01   5.9462772e-01   5.8641786e-01   3.8496872e-01   7.3730906e-01   4.3831313e-01  -4.5012596e-01  -9.4570645e-02   2.6365904e-01  -1.9699145e-01  -7.5564460e-01   4.8974449e-01   5.4172157e-01   5.6245038e-01  -2.0146869e-02   6.1668410e-01   1.5273241e-01  -6.9809959e-01  -8.6316433e-01  -1.6521567e-02   8.8156639e-01  -5.5281903e-01   8.0790629e-01   7.1254492e-01   9.8492263e-01   6.6720178e-01   1.4478816e-01   8.8695114e-01  -5.2816744e-02  -5.1686089e-01   1.4073468e-01   3.0068240e-02  -9.1848855e-01  -7.9460794e-01  -8.2795161e-01  -1.6202840e-01   3.6868926e-01  -2.2532198e-01   6.6387183e-01  -5.7838200e-01  -9.0242733e-01   6.4642198e-01   8.9588159e-01   1.6204058e-01  -5.7189404e-01  -2.2442600e-01  -1.0468579e-02   1.7546718e-01   1.3241994e-01   7.8348038e-01   5.6560908e-01  -5.1022873e-01   5.5448419e-01   7.0731233e-02  -3.0688148e-01  -8.1303671e-01  -2.9678018e-01   7.7055821e-01  -5.2006939e-01   1.9134473e-02   3.0364252e-01   9.9648093e-01   9.5471016e-01  -7.8695831e-01   4.4128882e-02  -5.4600941e-01   6.1801735e-01   2.8617425e-01  -9.0444533e-01  -4.3151585e-01   7.6832974e-01  -5.0407819e-01  -5.9495884e-01  -8.0412074e-01  -1.2929825e-01   5.1040557e-02  -9.0683548e-01  -5.4759212e-01  -3.2528443e-02  -1.5436994e-01   2.0096607e-02   8.9285493e-01   8.3317262e-01   7.1695057e-01   3.1108775e-01   3.2191509e-01  -1.2943249e-01   4.8466243e-01   5.8491129e-01   4.7183908e-01  -2.1644434e-01  -3.6351126e-02   1.5421402e-01  -6.2231442e-01  -5.2037953e-01  -7.2906609e-02   3.7551950e-01  -8.9986157e-02  -9.4905535e-01  -8.4237848e-01   9.5846940e-01  -4.2192866e-01  -7.2585877e-02  -4.5718475e-01  -5.5253565e-01   1.6623132e-01   2.0163553e-01  -8.9342299e-01  -3.6186448e-01   8.6511613e-01  -6.9177084e-01  -1.6422494e-01  -8.2778950e-01  -5.8684089e-01   4.3470325e-01   3.8048032e-02  -7.6057484e-01   6.6962234e-01  -5.6648954e-01   8.3876906e-01  -2.6470970e-01  -9.4142970e-01  -6.0049882e-01  -1.1743685e-01   1.4340939e-01   1.7934790e-01  -5.3125421e-01  -8.5404445e-01  -2.0372866e-01  -7.4871559e-01  -2.1360712e-01  -2.8050983e-01  -6.2595779e-01   3.7625041e-01  -3.5254314e-01  -7.7802946e-01  -3.9363317e-02   1.5635255e-01   7.3112727e-01  -7.4724458e-01  -2.2662271e-01   7.7244046e-01  -5.3399173e-02   3.2665790e-01  -6.4888198e-01  -5.1959321e-02   3.3628715e-01  -9.1354860e-01  -1.5101725e-01  -9.4169414e-01  -7.1648510e-01   6.6377662e-01  -6.7998720e-01   6.6301202e-01  -7.1069414e-01  -8.4201073e-01   9.0109528e-01   1.1893734e-04   6.9951067e-01   4.4933929e-01  -4.5325920e-01   8.9387560e-01  -5.4079398e-01   8.9350753e-01  -9.9013528e-02  -4.1781663e-01  -1.1074354e-01   4.2283394e-01  -4.8635551e-01  -9.6522870e-01  -4.9928215e-01   5.6314326e-01  -4.9517814e-01  -5.0298624e-01  -1.2374353e-01  -1.7210672e-01   6.8082210e-01   4.6469614e-02   3.0112837e-01  -9.7699837e-01   9.3006462e-01   5.8268454e-01   6.2512035e-01  -9.2256761e-01  -3.0153576e-01   8.7437482e-01   4.2018761e-02  -5.7200205e-01   4.5343923e-02   1.3542019e-01  -9.5419372e-01   4.1836272e-01   3.7666451e-02  -7.3930100e-01   1.5984199e-01  -5.5615755e-01   8.5426172e-01   9.1974599e-01  -3.0254195e-01  -8.9940054e-02  -2.9844306e-01   3.5795469e-01   6.2243055e-01  -3.7415231e-01  -6.7982020e-01  -2.4856869e-01   4.2413314e-01  -2.3076515e-03  -9.1700954e-01  -9.0826689e-01   5.4549806e-02   5.3552885e-01  -8.3309468e-02  -8.2942962e-01  -5.5899126e-01  -5.7376603e-01   1.9983380e-01  -4.8774978e-01   8.0193814e-01   1.8020205e-02  -1.9221156e-02   1.8996105e-01  -5.4164623e-04  -8.9086264e-01   1.9592649e-01  -3.2857549e-01  -6.0910335e-01  -1.6903665e-01  -4.3806001e-01  -5.5680858e-01   8.6660636e-01  -3.0559063e-02  -1.7309998e-01   4.7336296e-01   4.7522577e-01  -7.8008605e-01  -4.1419355e-01  -7.6509001e-01   5.3398744e-01  -8.6988382e-01   1.6196665e-01   4.1207799e-01  -6.0416552e-01  -8.7715076e-01  -4.6233772e-01  -2.1461771e-01   2.8625669e-01  -9.7318507e-01  -2.9594963e-01   3.4268525e-01  -2.5177334e-01   2.1695349e-01  -9.2051968e-01  -4.8810379e-01  -2.6006803e-01  -5.2116741e-01   8.2477882e-01  -9.7627501e-01   3.6167704e-01  -6.8041544e-01  -2.4610909e-01   1.6934572e-01   4.9097208e-01  -3.7615178e-01  -2.9225737e-01   4.7171403e-01  -8.7415594e-01   6.6296366e-01   8.3499813e-01  -6.8894455e-01  -2.5221774e-01  -2.4080512e-01   8.7977823e-01  -6.9062066e-01  -7.0359504e-01  -2.9928718e-01   8.4312123e-01  -4.3524343e-01   3.3415696e-02  -4.4362247e-01   9.4444082e-01  -6.0598252e-01  -5.6081846e-01  -9.9947906e-01  -1.0809826e-01   7.9814809e-01  -7.6398089e-01  -2.9394023e-01   9.2208434e-01   4.0209661e-01   2.2304529e-01  -8.2406846e-01   3.8367468e-01  -8.2956329e-01   8.0824418e-01   6.0948220e-01  -3.6586126e-01  -8.0982309e-01  -9.6584266e-01   9.6361502e-01   2.9922211e-01  -1.8103570e-02   9.2197742e-01  -6.0269367e-01   7.6247144e-01  -1.9095368e-01  -4.0918475e-01  -8.2923579e-01  -5.3890097e-01   7.2475507e-02  -5.4597250e-01   1.8346992e-01   7.9396736e-01  -9.9569319e-01  -2.4848113e-01  -9.3493290e-01  -6.8804701e-01  -5.0024738e-01   9.3763595e-01   2.0863558e-01  -3.3648993e-01  -5.4937521e-01  -9.5268550e-01  -6.3369623e-01   4.4594726e-01   6.3723198e-01  -3.7805428e-01   9.8290101e-01   2.1235962e-01  -3.8471868e-01  -6.2405470e-01  -4.3391939e-02   4.4056082e-01  -2.4492273e-01   6.2522357e-01  -9.1997840e-01   8.7715943e-01  -4.9900756e-01   2.0037445e-01  -6.2067513e-02   4.0566712e-01   8.6198151e-01   5.0744038e-01  -8.7478602e-01  -9.3186281e-01  -8.9367856e-01   8.7274988e-01  -7.2163852e-01   1.7750411e-01   5.1309749e-01   9.8885250e-01   4.8111938e-01   6.4436970e-01  -3.1047866e-01  -5.9337203e-01   3.3010314e-01  -9.2424766e-01   6.8394986e-01  -7.3494549e-01   7.9816634e-01  -4.2098550e-01  -1.8929448e-01   9.8772560e-01  -6.2807142e-01   1.2251294e-01   2.4356015e-01   8.6538023e-01   8.7540432e-01  -5.2222269e-01  -4.2707703e-01   2.0807641e-01   5.1730354e-01  -7.9402975e-01  -8.9798057e-01   1.6188416e-01  -8.4270363e-01  -1.4038962e-01   7.9473693e-01   3.4508121e-01   9.6413082e-01  -4.6261736e-01   9.4750754e-03   2.7945810e-02  -5.6582356e-01   4.6028804e-01   6.3241594e-01  -9.8039637e-01   5.7296564e-01   2.4707950e-01  -1.2923470e-01   1.7459637e-01   5.9055155e-01   4.5619884e-01   8.7718775e-01   4.6787404e-03  -5.2038684e-01   6.1233512e-01   3.0574714e-01   4.5607172e-01  -2.1708781e-01   6.3573247e-01  -9.2695748e-01  -8.4069475e-01  -2.5089502e-01   6.4241130e-01  -8.9584028e-01   6.1878337e-01  -3.1780468e-01   7.1134444e-01  -6.7377635e-01   8.6789783e-01   4.4382761e-01  -3.3567952e-01  -2.9878768e-01   9.4084097e-01  -7.2830674e-01  -5.6039366e-01   8.5690596e-01  -7.8965081e-02  -8.2711911e-01  -3.2020373e-01  -5.8577841e-01   9.8238184e-01   3.8339395e-01  -5.2978339e-01   2.1950958e-01   4.1229623e-01   5.2826563e-01  -1.4647164e-01   4.2975889e-01  -5.1459431e-01  -4.8813221e-01   9.0240827e-01   4.0374983e-01   1.8257197e-01  -2.8920917e-01   5.2186171e-01  -9.7970441e-01  -4.3413307e-01  -2.8488218e-01   4.1148437e-01  -6.0818959e-01  -6.7513165e-01   5.7760910e-01   3.5340015e-01
