  -9.5310492e-01   5.1250594e-01  -7.2869872e-01  -4.2678510e-01   5.4304502e-02  -8.6124729e-01   6.0185490e-01   3.7117362e-01   2.1414835e-01  -4.4620051e-01   2.7090645e-01   9.3826274e-01  -5.3855384e-01   2.7311429e-01  -5.7480773e-01  -6.0237904e-01   2.1607318e-01   4.3634335e-01  -2.3239705e-01   1.7075426e-01  -2.4943949e-01  -6.6263451e-01  -3.9393088e-01  -9.5125474e-01   6.2295684e-01  -6.9720489e-01  -1.0068364e-01   5.6245595e-01  -8.6353017e-01  -1.6850196e-03   7.3890273e-01  -2.7249174e-02   9.9918953e-01  -4.7624719e-01  -9.5854354e-01  -5.1040995e-02  -1.0182313e-01  -1.0301785e-01  -6.1324311e-01   1.6939926e-01   6.4579899e-01   5.3511240e-01   4.4936775e-01  -5.4045624e-01   2.4901756e-01   8.7583882e-01  -1.6431698e-01  -1.1576778e-01   7.0892123e-01  -5.9742633e-01  -2.2910131e-01  -2.2167168e-01  -8.7826436e-02   9.1473826e-01   6.7350050e-01  -1.2042863e-01   6.5753280e-01   3.8083872e-01  -6.2874310e-01   9.1390027e-01  -2.4874678e-01   1.4803085e-01   1.1066321e-01  -5.0400035e-01   8.1359694e-02   1.1675529e-01  -8.2431098e-01   3.2424528e-01  -7.5207992e-01   1.0666704e-02  -8.9856635e-01   8.7966844e-01  -8.0640118e-01  -8.1774324e-01   4.8851881e-01   3.4901560e-01   7.4170786e-01  -8.6605559e-01   9.2513879e-01  -2.4127782e-01   4.3210854e-01  -9.2460791e-01  -3.1374926e-01  -9.6862225e-02  -3.2574612e-01  -3.5210563e-01   2.8675191e-01   4.3917855e-01  -2.4497998e-01  -4.9581643e-01   1.7142798e-01   7.4785081e-01   9.2571614e-01   7.7030684e-01  -2.7890876e-01   2.7140921e-01   6.2426705e-01   7.1890856e-01  -1.5478362e-01   9.7933469e-01   4.5908773e-01  -1.1162915e-01  -8.8220783e-01   5.4177217e-01  -2.6240214e-01  -8.0705660e-02   1.9191742e-01   3.2492627e-01   8.8874806e-02   2.8395944e-01  -4.3113655e-01   1.4299807e-01  -2.3686010e-01   1.9795550e-01   3.1808148e-01  -8.1151418e-01  -2.8064566e-01   8.9699853e-01   9.5249967e-01   7.1781487e-01   9.5443814e-01   9.4650820e-01  -6.2137974e-01   6.4298044e-01  -8.7481189e-01   6.5559745e-01   8.1815569e-01  -5.9946250e-01   1.8822569e-01   7.6921250e-01   4.0697972e-01  -9.0930125e-01  -9.9716111e-01  -7.3612545e-01   3.1664618e-01   5.0722052e-01  -3.3018461e-02  -9.1889733e-01   1.6136048e-01  -9.8290674e-01  -6.6774582e-01  -2.5700893e-03   3.2087046e-02  -6.7732321e-01   7.2785507e-01  -8.7689222e-01  -1.5404992e-02   3.1138005e-01   3.1771597e-01  -5.5557268e-01  -7.0702972e-01  -4.2174000e-01   9.5030459e-01  -5.3457756e-01  -6.5961887e-01   9.1187168e-01  -3.9846019e-01  -8.7803950e-01  -8.9102946e-01   9.6480948e-01  -7.1257696e-01  -4.1034596e-01  -2.7029167e-01   3.2109295e-01  -1.6086518e-01   6.7142653e-01  -9.4265017e-02   6.4087462e-02  -8.4267723e-01   3.1375400e-01   7.4201284e-01  -6.0387126e-01  -2.3032665e-01  -7.6565220e-01  -3.2219694e-01  -1.0585697e-01  -7.5125339e-02   1.8617820e-01   5.6935815e-01  -6.6958612e-01   1.1424342e-01  -3.3059113e-01  -5.0469978e-01  -1.4986381e-01   7.1821538e-01   1.2813079e-01   7.7957223e-01   3.5604310e-01   6.9849318e-01   6.6365162e-01   1.2695300e-01  -7.0971696e-02  -7.4857883e-01  -6.4151679e-01   2.6829522e-01  -8.0930475e-01  -6.8440650e-01  -3.7325294e-01  -2.2292510e-01   3.6376997e-01   7.7293193e-01  -5.4401869e-01   9.8207521e-01  -1.9089779e-02  -1.0649723e-01   6.8847843e-01  -5.9152421e-01  -3.3043630e-01   2.6163856e-01  -6.4488126e-01  -8.3234052e-01  -4.7029362e-01   1.7724174e-01   5.9650158e-03   1.0571288e-02  -9.4225932e-01   3.1316210e-01  -8.2672274e-01   7.3732556e-01  -3.8289860e-01  -6.0375176e-01   3.6929544e-02  -1.8761631e-01   7.8968484e-01  -2.5710971e-01  -9.4058749e-02  -2.5259629e-01  -9.5465908e-01  -7.6363705e-01   1.2508721e-01   6.1306057e-01  -7.8898326e-01   5.1262860e-01   2.2449141e-01  -3.8724506e-02  -5.2922547e-01   2.9241021e-01  -1.6926867e-01   8.9443366e-01  -7.6722655e-01   4.5731465e-01  -1.9189294e-01  -8.1560803e-02  -3.3704225e-01   8.1340154e-01   8.4900247e-01  -5.7507074e-01  -4.1820679e-01   9.0743145e-01   2.0787433e-01   4.8020099e-01   4.6784489e-01  -4.5890340e-01  -2.1792315e-01   5.2050888e-01   1.3835217e-02   7.3060635e-01   7.4238448e-01   1.6839667e-01   8.7749828e-01  -6.6633853e-01   8.2611555e-01   6.8596004e-01  -1.7565065e-01   7.7780925e-01   3.1211615e-01   9.0953376e-03   1.2968302e-01   8.4389616e-01   2.6501339e-01   1.4009708e-01  -5.3516107e-02   4.7242298e-01   6.6439069e-01   6.4358525e-01   9.3787167e-01  -6.5217853e-01  -4.3553651e-01   5.0985848e-01  -4.8182564e-01   1.3048725e-01   1.4523785e-01  -9.1603406e-01  -3.2982486e-01   7.5498755e-01  -8.5214561e-01   3.8657369e-02   6.5014519e-01   2.4854872e-01   5.0844600e-01   1.2708970e-02   1.0552087e-02  -2.8244122e-01  -2.4138333e-01  -7.3615906e-01  -6.9135868e-01   2.9820460e-01   6.8969380e-02  -2.9677183e-01   1.3687551e-01   8.3111117e-01  -1.8823729e-01   2.7240232e-01  -7.9715509e-01  -8.3256474e-01  -7.4105690e-01  -1.8498396e-01  -4.8041305e-01   1.5787301e-02   7.2147502e-01   2.4182936e-02   8.4841646e-01   5.3931086e-01  -8.9280066e-01   7.9678270e-01   3.6371697e-01   3.5648689e-01  -3.0125107e-01   3.7336243e-01  -9.2822198e-01  -3.3045881e-01   3.0495750e-01   6.8124665e-01   3.3230615e-01   9.9743205e-02  -2.4108082e-01   6.0143656e-01  -1.6214041e-01   1.0033223e-01  -4.3570042e-01   1.9437059e-01   9.0714160e-01   2.3568298e-01  -4.8378737e-01  -8.9993082e-01  -3.7828893e-01  -5.3999713e-01  -5.8859978e-01   2.8807382e-01   4.9490281e-01  -3.1964956e-01  -9.1302066e-01   5.6798917e-01   3.5260033e-01   2.3394709e-02   5.7521144e-03   2.9612608e-01   2.9586808e-01  -5.7097124e-01  -3.5622399e-01  -1.3062597e-01  -1.3411661e-01  -5.9973451e-01   6.8419635e-02   5.0778946e-02   7.9785552e-01   5.5455961e-01  -3.6065488e-01   6.8028644e-01   3.2302819e-01  -9.0218674e-01   4.2055138e-01   3.1014884e-01  -4.5447035e-01   1.3869844e-01  -5.1199487e-01   1.6724054e-01  -8.5371206e-01  -6.1129067e-01  -2.2559945e-02   2.5822842e-01   6.1198906e-01  -5.9679540e-01   4.9149087e-01  -6.8025849e-02   5.4573178e-01   3.5347393e-01   4.2847177e-01   7.1546366e-01   9.4922858e-01   8.2602196e-01   1.6218249e-01   1.3872287e-01   6.5352649e-01   8.1919555e-02   8.3984492e-01  -2.0077050e-01  -2.5891240e-01  -4.8748622e-01  -4.5533167e-01  -1.7586021e-01   8.2087406e-01   8.6690668e-03  -2.7981376e-01   5.9293282e-01   8.0589987e-01   9.2808835e-01  -4.0757727e-01  -6.1331865e-01   7.7887306e-01   2.0620802e-01   6.6851959e-01   4.6013008e-01   7.7182084e-02   2.0669317e-01   3.5231530e-01  -2.1837778e-01  -8.3142264e-01  -4.4290907e-01  -1.4673275e-02   9.8980519e-01  -2.2392509e-01  -4.4895329e-01  -8.3874216e-01  -7.3578762e-01   3.4095105e-01   3.8483073e-01   5.1621074e-01  -5.2919784e-01  -5.1497547e-01   7.1306919e-01  -3.4351107e-01  -1.7501184e-01   3.6415709e-01   5.8440524e-01   5.4981960e-01   1.1403328e-01  -6.4643825e-01  -5.1305923e-01   3.7534367e-01  -2.5188901e-01   8.3603905e-01   7.4766454e-01   1.2072495e-01   4.6330535e-01   7.1902069e-02  -3.3711658e-01  -8.4165327e-01  -9.9066322e-01  -2.9073943e-01   8.5759398e-01   2.2540086e-02  -3.0075418e-01   4.4661821e-01  -1.8959342e-01  -4.3429917e-01   2.2965431e-01   3.4297403e-01   1.9518888e-01   3.3395603e-01   9.7955668e-01  -6.5784392e-01  -4.6555801e-01   8.1972801e-02   4.2586469e-01   2.4059523e-01   6.0155075e-01  -4.4091148e-01   1.7379623e-02   2.0408212e-01   8.5138849e-01  -7.4027488e-01  -1.3098695e-01  -2.3531243e-02   3.1839605e-01   8.2252111e-01  -3.0698504e-01  -6.9131459e-01  -1.1040795e-01   1.4376583e-02   1.9657216e-01  -6.3981329e-01  -7.4690540e-02  -5.4292525e-01   3.9011658e-01   8.0045297e-01  -6.2285473e-01   3.8101343e-01   9.4128665e-01  -8.9923509e-01  -7.8103906e-01  -3.3489961e-01   3.4731012e-01  -5.5468234e-01   8.1923731e-01  -4.8886411e-01  -1.0778535e-01  -5.0367741e-01  -9.2130289e-01   1.5777065e-01  -6.1727151e-01  -1.5278666e-01   4.4596061e-01  -3.1094330e-01   4.6132695e-01  -1.6085256e-02  -3.9899308e-01   2.2884531e-03   4.3396262e-01  -7.1385884e-01  -7.2373872e-01  -7.6527119e-01   3.1305372e-02   4.1040317e-01   4.8282294e-01  -3.6081245e-01  -9.5892282e-01   6.9223231e-01   9.2189407e-02   2.2414626e-01   5.4641300e-01   4.3252452e-01  -9.7699261e-01  -6.8921335e-01   9.1146070e-01   5.4193704e-01   3.0276977e-01  -8.8508130e-01  -9.3943256e-01  -6.2235465e-02   5.4594599e-01   6.8174991e-01  -1.9553302e-01   2.5147187e-01   5.5031306e-01  -2.3168124e-01   2.4222642e-01   8.9504692e-01   8.7611050e-01   9.1462588e-01   5.5767904e-01  -8.0319495e-01  -8.5471641e-02  -5.2968857e-01   3.1596438e-01   4.8302907e-01  -7.7884151e-01  -4.4118549e-01  -1.8354714e-01   4.6839283e-01  -2.9723680e-01  -4.1670389e-01   4.3083051e-01  -4.1701002e-02  -7.9687150e-01  -3.4855207e-02   9.8746697e-02   9.3281310e-01  -3.2976979e-01  -4.7479291e-01  -5.9459124e-01  -8.4943770e-01   5.8453432e-02  -2.2383719e-01  -8.5578546e-01  -9.4920678e-01   5.4625882e-01  -9.1899760e-01  -7.4186338e-01   2.0481915e-01   9.0328943e-02  -3.3270640e-01   2.5343117e-01  -2.3494348e-01  -2.1491842e-01  -2.8704691e-01  -3.7705925e-01   5.4707609e-01   6.8990599e-01  -2.6767218e-01  -8.2592396e-01  -9.5970413e-01   5.0432599e-01   2.0830022e-02  -3.1981628e-01   6.4050636e-01   4.3656185e-01  -7.1485718e-01   5.0825672e-01   7.5895597e-02  -8.9921596e-01  -9.4087342e-03  -1.5874163e-01   3.7558755e-01   9.9191668e-01  -8.3065055e-01  -9.5623668e-01  -1.5004208e-01   8.0194398e-01  -4.8960348e-01  -1.2287833e-01   9.9950215e-01   2.1514916e-01   9.1162178e-01  -1.2161724e-01   5.7249965e-02  -3.5800057e-01  -6.8755446e-01  -8.0321556e-01  -9.8309079e-01   3.8722112e-01   9.4816519e-01   9.0174078e-01   6.8345117e-01  -1.8683508e-01   4.0334676e-01  -6.6822408e-01  -6.5573451e-01   7.6355095e-01   5.4007317e-01   5.8714344e-01   1.3027279e-01  -5.5218674e-02  -6.7395810e-01  -8.2027834e-01   9.8901650e-01   2.8300431e-01  -4.3012451e-01  -6.2996897e-01  -2.5808755e-01  -6.1748890e-01   7.0250871e-01  -1.2094323e-01   2.9231115e-01  -1.0248889e-01  -7.6789060e-01  -1.3916028e-01   5.6670732e-01  -9.7394975e-01   1.4624121e-02  -9.4140346e-01   3.4255099e-01   9.5702532e-01   5.8641062e-01   3.1175617e-01  -5.1332983e-01  -6.4151184e-01  -7.9948656e-01  -5.4599883e-01   9.5436385e-02   1.2962004e-01  -9.6256718e-02  -4.2472231e-01   8.5766325e-01   9.4422330e-01   8.0229767e-01  -6.4665904e-01   8.8668201e-01  -3.7338415e-01   6.3748849e-01   4.0167501e-01  -6.0394131e-01  -7.0142387e-01  -2.2162576e-01  -7.0278911e-01   5.9192390e-01  -1.6017574e-02  -5.1942227e-01  -1.6918453e-01   6.0590833e-01   4.4729370e-01   9.9775816e-01   3.9273486e-02  -2.0357847e-01   8.6690918e-01  -7.4034894e-02   7.6582879e-01  -8.8727698e-01  -6.2034852e-01   1.6629471e-01   7.3512661e-01   7.0710428e-01   4.6240093e-02  -4.5567064e-01  -7.1650216e-01   6.3605049e-02   4.0311507e-01   6.3077622e-01  -3.9178502e-02   1.8386729e-01   4.4345455e-01   8.0644787e-01   1.0346059e-01   6.8790001e-01   1.8047879e-01  -4.7774911e-01  -4.5359333e-03   3.1512429e-01   8.7447135e-01   3.2106359e-01   2.3540316e-01   8.3245400e-01   2.1214033e-01  -3.7510413e-01  -3.5814995e-02   3.1979099e-01   7.3953392e-01  -5.5698836e-01   2.6241424e-01   1.9752154e-01  -8.7669665e-01  -2.8691004e-01  -9.9562991e-01   2.3281568e-01   1.6030370e-01  -1.6159247e-01  -7.3035980e-01   7.2871307e-01   1.4187397e-01  -8.1875521e-01  -9.5086280e-01   9.2866204e-02  -5.1280316e-01  -5.5349194e-02  -9.4634702e-01   5.9789055e-01  -6.0316649e-01   6.4922228e-01  -9.9560217e-01  -7.9725158e-01   7.8951657e-01  -7.8751597e-01  -7.8505342e-01   7.9804746e-01   2.0253563e-02  -7.0398611e-01   4.4170036e-02   2.4542580e-01   2.4081138e-01  -2.0299974e-01   5.2325056e-01  -2.9956633e-01  -6.0602518e-01  -2.2748764e-01   7.4997696e-01   5.6002670e-01  -3.3577571e-01   4.8995191e-01  -4.0290539e-01   6.1826265e-01   9.5818865e-02  -6.9758926e-01  -7.5177701e-01   9.5928630e-01   8.8370884e-01   9.4847500e-01   9.5537587e-01  -1.9310852e-01   7.0664681e-01   7.6099244e-01   9.8109452e-01   1.6194358e-01  -1.7389945e-01   4.9561800e-01   9.0895777e-02   7.4603106e-01   5.8580848e-01   9.8441250e-01  -2.5123524e-01  -1.4057889e-01   2.0207038e-01   6.5655775e-01  -3.1630147e-02  -1.1006377e-01   8.9718435e-01   7.0063545e-01  -9.3127820e-01  -6.8110770e-01   8.7322822e-01  -8.1955697e-01   7.9634730e-01  -4.6962209e-01  -9.0735042e-01  -6.9861354e-02   9.2985444e-01   7.9749670e-01   9.8232655e-01   4.2050930e-01  -8.2167924e-01  -7.2076888e-01  -2.2800962e-01  -7.6426209e-01  -8.0554666e-01  -6.3953653e-01  -9.4678056e-01  -7.0470215e-01   3.8738824e-01   1.1866817e-01   8.1902666e-01  -6.3127100e-01  -4.0358650e-01   2.4255175e-01  -4.2181108e-03  -6.7900663e-01   2.9859335e-01   6.0537680e-01  -9.0234453e-01  -7.6769952e-01  -6.2942611e-01  -7.0845172e-01  -1.5059504e-01  -5.7158777e-01  -5.0048100e-01  -2.6177009e-01  -8.0932393e-01   7.1008165e-01   8.9430807e-01   2.6336128e-01   9.2169764e-01   4.9001245e-01   1.4573586e-01  -1.1593308e-01  -1.7001080e-01  -2.4328123e-01  -9.1055663e-01  -5.2810598e-01   2.2340067e-01   8.7152742e-01   2.6918534e-02   1.7044795e-02   4.3749589e-01  -2.2679711e-01  -4.2408580e-02  -3.4987265e-01   2.0978532e-01  -8.6661479e-01  -8.1956869e-01  -4.8391378e-01   9.2220837e-01  -5.9365779e-02  -8.8956479e-01  -5.3199454e-01  -7.9154867e-02   3.0183334e-01  -6.9526018e-01  -9.6020259e-01  -6.9295518e-01   4.6135760e-01   2.7182101e-01   7.6024955e-01  -8.6717080e-01  -3.3965583e-01  -5.6612645e-01  -1.7858509e-02  -9.9678850e-01   1.1914351e-01   4.8352942e-01  -4.2935112e-01  -4.7546875e-01  -9.3199148e-01  -9.5607042e-02   2.8465601e-01  -3.7910020e-01   9.0393039e-01   4.5607750e-01  -5.8911376e-01   2.4456473e-01  -9.8479302e-01  -8.3600469e-01   6.4903964e-01  -5.5665815e-01   5.2244021e-01  -8.3332451e-01  -4.1128721e-01   9.8005759e-01   8.1105133e-01   8.3654324e-02   8.7915973e-01  -9.9915099e-01  -9.4315520e-01   3.9995996e-01  -6.4347546e-01   6.2692366e-01   7.5460637e-01  -2.1670552e-01  -7.0219265e-01  -5.3925773e-01  -9.2408809e-01  -6.6758581e-01   7.9465897e-01  -6.8369680e-01  -5.3364375e-01   7.7974125e-01  -6.9931365e-01   8.1515159e-01  -4.0334027e-01  -3.3606963e-02   6.2108286e-01   4.1583467e-01   9.1722865e-01  -8.9645687e-01   8.8540219e-01  -5.1845674e-01  -2.1675138e-01   1.6023494e-01  -5.7975113e-01   9.3507905e-02   8.7166529e-01   4.7127166e-01  -9.0584511e-01   3.2606268e-01  -8.7473459e-01   3.5455484e-01   1.1536097e-01   9.5613358e-01   8.9891188e-01   7.7097753e-01   2.1532198e-02  -4.0782213e-01   8.4917626e-02  -2.6621940e-01  -1.2036752e-01   7.5636410e-01   3.0434106e-01   5.1844147e-02  -6.3436131e-01   6.3725643e-01  -2.3512354e-01   5.8086990e-01   8.8796437e-01  -1.4986430e-01  -8.7033952e-01   1.5617869e-01  -6.3353326e-02  -5.0637855e-01   7.9134674e-01  -3.3725759e-01  -5.8730265e-01  -3.1722902e-01   9.1015017e-01   1.1630299e-01   8.4852881e-01  -8.9577567e-01   5.6076685e-01   2.3517817e-01   2.2744463e-01   4.0213301e-01  -3.0718944e-01  -1.7914979e-02   2.6650263e-01  -3.1027571e-01  -6.9290124e-01  -8.5974574e-01   8.0405322e-01   7.6220038e-01   7.0358256e-01  -6.3077649e-01   5.2653160e-01  -8.1581950e-01   6.3863666e-01  -7.5856150e-01   5.5156269e-01  -9.4775503e-01   4.3676194e-01   5.0420482e-01   1.3691112e-01   1.0793953e-01   2.3353728e-01  -9.9622113e-01  -6.3042448e-01   1.5794943e-01  -8.5775212e-01   6.8134402e-01  -4.9889492e-01   9.3195187e-01   1.9156055e-01   1.0516772e-01   2.9473512e-01   1.1437484e-01  -4.8029267e-01   3.9481099e-01   4.7833432e-01  -3.7724284e-02   5.5192464e-01  -4.5346244e-01   9.3252583e-01  -9.6643317e-01  -1.8067907e-01  -5.4419098e-01  -3.1879679e-03   5.9860728e-01  -8.7664940e-01  -1.9827423e-01   2.7682532e-01  -2.4296895e-01  -5.3782942e-01  -4.6400684e-01  -4.5270648e-01   2.1486439e-01  -6.5069714e-02  -9.9701678e-01   7.7465020e-01  -8.6815907e-01   7.8237554e-01  -5.2561004e-01   6.0217189e-01  -7.2234303e-01   2.9666453e-01  -9.1333685e-01  -1.8965010e-01
