  -2.0385791e-02  -4.5964918e-01  -9.4701837e-01   9.4360158e-01   1.9910354e-01  -4.8364006e-01   1.4649573e-01  -1.8933175e-01  -5.9881358e-01   4.4000236e-01  -9.4116308e-01   7.2674349e-01   9.5458456e-01  -5.4588090e-01  -9.9881183e-01  -4.9741538e-01   7.0804771e-01   5.8710886e-01  -2.7911315e-01  -4.0844161e-01  -1.8233868e-01   7.3110771e-01   1.6181371e-01  -2.1342898e-01  -6.0554036e-01  -7.7818684e-01   9.9818723e-01  -4.7882534e-01  -3.5852877e-01  -9.0673406e-01  -9.1790745e-01  -9.1882130e-01   9.3450292e-01   1.5841738e-02   8.4077323e-01   9.5061206e-01  -3.4976274e-01   2.4114266e-01   2.5077999e-01   4.6774904e-01   2.4005148e-01   4.9912215e-01  -6.6989489e-01   3.4335079e-01   6.4600926e-01  -8.9970281e-01   9.7727006e-01   8.5271235e-01  -1.2916286e-01  -9.9637722e-01  -3.1280546e-01  -8.7800212e-01   7.1468047e-01   3.0748203e-01  -6.0439915e-01  -8.3401005e-01   7.7892093e-01   6.8310506e-01   9.0130362e-01  -9.1293897e-01  -7.0698806e-01  -5.1438787e-01   6.0769111e-01  -2.5877679e-01  -6.2810834e-01  -1.2969636e-01  -8.9304825e-01   3.3599536e-01   6.0912361e-01  -1.5360664e-01  -6.0683365e-01   4.4195749e-01  -5.7434150e-01   7.2572510e-01  -8.7548290e-01  -8.2544232e-01  -5.1946650e-01  -4.2227217e-01  -6.6486777e-01   5.2752071e-01  -1.4516360e-01   9.3905830e-01  -2.0477266e-01  -5.0646728e-01   6.5652652e-01   5.1444754e-01  -6.2982498e-01  -9.9149595e-01   8.1389079e-01  -2.9736183e-02   4.1481145e-01   9.2229751e-01   8.3251183e-02  -2.3330180e-03  -7.8828440e-01   7.7882053e-01   7.4201603e-01   2.0315038e-01  -4.1905243e-01   5.3936604e-01  -7.9103058e-01  -3.0457147e-01   3.0528423e-02  -9.8553694e-01   5.7544264e-01   4.2919285e-01   7.8974137e-01   6.5083425e-01   5.0800499e-01  -9.9199912e-01   1.1343548e-01  -6.2561919e-02  -7.0620818e-01  -2.5966895e-01  -7.5830513e-01   1.6356729e-01   8.5394765e-01   8.4335608e-01  -2.9720725e-01  -6.7970667e-02   3.9732723e-01  -7.8739265e-01  -6.8628641e-01  -3.7031901e-01   1.2361289e-01  -3.1388190e-02  -7.7565684e-01  -7.2691853e-01   7.6674863e-01   1.2113747e-01  -1.3351505e-01  -3.4144859e-01   1.4232701e-01   2.8541578e-02   5.6427739e-01  -6.9457135e-01  -3.0999700e-01  -6.0195174e-01  -6.0143211e-01   3.4326392e-01  -6.4837100e-01  -4.1673369e-01  -8.3119047e-01   3.6122993e-01   5.9559982e-01   9.0983097e-01   9.2799536e-01   8.5088101e-01   8.2925841e-01  -5.5657353e-01  -9.8793534e-01  -9.2585532e-02  -4.2268801e-01   9.0276727e-01  -3.3735909e-01  -5.9285236e-01   7.8501368e-01  -6.0375358e-01   3.7577397e-01  -6.2542650e-01  -2.7644488e-01   5.1402103e-01   2.1185810e-01   6.2996441e-01   4.3723946e-01  -2.4458877e-01   1.7389988e-01   4.3158473e-01  -7.1526941e-02   7.1496725e-01   4.5276716e-01  -8.8686133e-01   4.9660501e-01  -6.5530206e-01  -8.1567850e-01  -2.4936099e-01   8.4407145e-01   9.6628549e-01   8.5346983e-01   1.1038559e-01  -1.1999491e-01  -6.3367396e-01   9.1128407e-01  -4.2269720e-01   8.7349108e-01  -6.7471020e-01  -8.1381637e-01   4.2171126e-01   4.4085707e-01   6.4329916e-01  -8.0336077e-01  -8.6559538e-01  -5.3925271e-01  -6.0010982e-01   7.3402711e-01  -3.5785967e-03   8.5846826e-01   5.3736797e-01  -1.7524634e-01   3.9582921e-01   4.1157260e-01   9.1408342e-01  -8.4205216e-01   2.7644892e-01   3.4550971e-01   6.4092651e-01  -2.9153484e-01  -1.4790910e-01  -9.4736878e-01  -2.7977032e-01   7.1401746e-01  -5.4642693e-01  -3.0507619e-02  -5.5213104e-01   1.4807947e-01   2.7203073e-01   4.6540544e-01   8.3379620e-01  -1.6079496e-01   8.4079569e-01  -5.2223959e-01   3.9825312e-01   1.9119645e-01  -7.3036244e-01  -7.8218683e-01   8.9796071e-01  -8.9806856e-01   3.6686208e-01   2.2012829e-01   5.0311675e-01  -4.9942205e-01   1.7524841e-01   1.0427850e-02   2.6972897e-01  -7.3484974e-01  -9.3669539e-01  -1.6797523e-01   8.0665129e-02  -8.6060275e-01  -1.5817147e-01   3.5179213e-01   4.5107332e-01   8.3758961e-01   1.2478639e-01   3.8354226e-01   1.7289546e-01  -3.9292024e-01   2.1317436e-01   4.3772900e-01   9.5419289e-01   5.1572644e-02   1.1193455e-01  -3.9819239e-01  -9.3194548e-01  -4.7959946e-01   5.8910344e-01   9.6180484e-01   4.3869994e-01  -9.5131338e-01   4.5035362e-01  -9.4725454e-01   1.6310266e-02   7.4299159e-01   3.4254286e-01   7.4896862e-01   4.6238830e-01  -5.8826250e-01   7.7528350e-01  -5.8688237e-01   3.2276940e-01  -6.0179629e-01  -8.1043462e-01   9.2041282e-01  -3.9519400e-02   9.4696179e-01   3.8404369e-01   1.7735345e-01   3.1545636e-01  -3.4629114e-01  -7.2311014e-01  -7.2926534e-02  -5.9139173e-01  -9.0615396e-01  -9.6709761e-01  -4.1742405e-01  -4.5187517e-01   3.6860909e-01   4.1931962e-01  -5.9905087e-02   1.6075116e-01  -6.5352779e-01  -6.3707184e-01  -7.3525191e-01  -4.2494168e-01  -5.6760991e-01   4.4717916e-01   7.4799807e-01  -6.7884632e-01   5.1026331e-02   1.6662761e-01   7.8901253e-01   3.6310283e-01  -5.5275850e-01   6.1008384e-01  -5.0024158e-01  -3.5924489e-01  -4.3093423e-01   7.5612208e-01   6.1011072e-01  -4.0746809e-01  -1.1182492e-01   2.8456135e-01   9.6127196e-01  -2.2541843e-01  -7.5493716e-01   6.9417419e-01   8.5715827e-01  -7.2427808e-01   5.7595871e-01  -1.1215378e-01   3.4938145e-01   7.3639935e-01   9.0125562e-01   1.8283586e-01   6.3674535e-01  -5.2558178e-01  -4.8132640e-01  -7.3571673e-01   6.8031911e-01  -8.5291770e-01  -7.6696329e-02  -6.2930736e-01   5.2568985e-01  -6.4889863e-01  -6.9270007e-01  -9.9573471e-01  -5.5625565e-01  -5.0984014e-01   6.0291752e-01   3.5714660e-02   6.1358256e-02  -1.4327215e-01   6.6224796e-01  -7.3944874e-01  -7.3030719e-01   6.8131100e-01  -6.6888044e-01  -7.7471341e-01  -9.4620680e-01   7.8904777e-01   6.8048865e-01   9.6875644e-01  -3.8496423e-01   3.2737022e-01   6.7284309e-01   9.8159184e-01   8.6350085e-02   4.4736944e-02  -9.0927343e-01   4.1818944e-01  -5.8801392e-01   1.4220775e-01   7.2760431e-01   2.0208884e-01   8.5379624e-01  -4.9556469e-01   4.1316269e-01  -1.9360914e-01   5.9594314e-01  -2.6142161e-02   8.8767145e-01   2.9948732e-01  -3.7257228e-01   4.1288989e-02  -3.9276557e-01  -5.8924007e-01  -6.6830401e-01   8.9998030e-01  -7.4365397e-01  -4.4761738e-01  -8.6066853e-01  -5.5471746e-01   1.2499571e-01   9.9926099e-01  -1.0158306e-01   3.1387802e-01   2.7302829e-01   6.0605590e-01  -4.0700360e-01   2.4922488e-01  -4.4678985e-01  -5.6181597e-01   2.4102723e-01  -4.7875756e-01   9.9756371e-01   1.8417430e-03   9.3376377e-01   5.6678424e-01   7.5321792e-01  -8.4082237e-01  -8.2117202e-01   9.9261560e-01  -2.9478948e-01  -3.1536622e-02   6.6870623e-01  -5.9217013e-01   1.7701966e-01   6.2189603e-02   2.7260951e-01   1.6301959e-01  -7.4412775e-01   7.1571656e-01  -9.1821136e-01  -2.2854594e-01  -2.8363209e-01  -7.0919948e-01   7.1603008e-02  -7.7802330e-01   4.7330991e-01  -6.3823344e-01  -2.8213939e-02  -6.8027867e-01   8.1915907e-01   5.3535238e-01  -7.2967495e-01   1.6393412e-01   5.7932236e-01  -4.1076366e-01  -1.2875084e-01   5.8827787e-01   6.8133761e-01  -7.8858661e-01  -3.6097280e-01  -3.3214204e-01  -8.7975138e-01  -1.6006576e-02   5.1706350e-01   7.6404686e-02   2.3607067e-01   7.8383638e-01  -3.0316427e-01   9.3873096e-01  -8.6284650e-01  -4.3875917e-01  -4.7080094e-01  -8.6107353e-01   5.7720019e-01  -7.3917971e-01   3.4746598e-01  -7.3090545e-01   3.6879649e-01  -3.0148604e-01  -2.7024324e-02  -2.7218850e-01   1.0221648e-02   3.8158845e-01  -2.8359812e-01   5.1055514e-01   6.8358175e-01  -9.6661131e-01   3.2247735e-01  -1.6887245e-01  -8.5712100e-01   4.8669087e-01   2.2080050e-02  -6.0082605e-01   4.5898534e-01  -4.9558495e-01   2.6919051e-01   3.0582938e-01   3.6108260e-01   5.8887813e-01  -7.5081799e-01   1.7854463e-01   9.6991063e-01  -2.5244989e-01   5.6932395e-01   4.6167034e-01   5.6745071e-01  -1.2249257e-01  -3.3367420e-02   4.3390410e-01  -6.3589480e-01  -2.9321360e-02  -2.4592971e-01   6.7292934e-01  -1.1544832e-01  -7.6710703e-01  -7.4167328e-02   9.5819075e-01  -2.3087406e-01  -4.7655341e-01   1.0813425e-01  -8.0973046e-01  -6.3103887e-02   4.2857796e-01   2.6242558e-01   3.5728670e-01  -6.5474445e-01   8.7583355e-02  -3.3409872e-01   5.7514405e-01   9.9278660e-01  -1.0637196e-01  -6.9276863e-01   9.1207624e-02   9.1668802e-01  -1.9644370e-01   6.2285632e-01  -2.6049853e-01  -3.7679897e-01   3.1989459e-01   9.0698420e-02   4.8154044e-02   5.9477171e-02  -3.9987483e-01  -2.7207079e-01   8.4688410e-01  -6.5545616e-01  -4.4866260e-01   3.6303116e-01   5.0793783e-02   4.1678922e-01   6.6901809e-01  -1.0100298e-02  -6.7079749e-01   9.3297864e-01  -4.4735478e-01   7.9289661e-01  -2.9208452e-01   4.8642783e-01  -3.2435468e-01   7.5784105e-01   3.8431897e-01   9.3334628e-01  -1.2989316e-01   7.8612433e-01  -6.6952991e-01   6.5499407e-01  -4.5618287e-02   3.3000071e-01   4.1954739e-01  -3.3997994e-01  -9.0816367e-01  -6.1642366e-01  -4.9649008e-01   6.7649883e-01  -3.5490941e-01   1.3353926e-02  -9.8990538e-01   1.2153709e-01  -3.3739220e-01  -2.1751253e-01   2.4685679e-01  -9.0529055e-01   1.9436189e-01  -2.2219420e-01   1.2784335e-01  -4.5479379e-01   3.8328629e-01   4.7966801e-02   4.3998361e-01   1.7632335e-01   5.8237563e-01  -2.8643633e-01  -8.3783415e-01   6.9519273e-01  -4.9598679e-01  -7.6592165e-01   5.5756936e-01  -9.9727188e-01  -3.7552971e-01   1.3742650e-01   5.9023625e-01  -5.2702289e-01  -3.4565734e-02  -5.4231379e-03  -5.2933550e-01   8.5370862e-01   5.5742482e-02  -5.8755366e-01  -5.6473231e-01  -7.9791421e-01   7.8032116e-01  -4.4740707e-01  -8.3988786e-01   2.2568434e-01   7.3584465e-01   4.3482697e-01  -8.5707690e-01   5.2736866e-01   5.2600992e-01   2.6967095e-01   5.6992176e-01   3.5483182e-01   2.1590831e-01   2.5782941e-01   3.1666542e-01   9.4391208e-02  -4.5386133e-01  -2.2586364e-01   5.7510387e-01   8.3918281e-01   5.2474851e-01  -4.8355311e-01  -6.3547392e-01   3.1967917e-02  -2.6610637e-01   4.7317729e-01  -9.6857060e-01   6.5577620e-01  -6.8500664e-01  -4.4694571e-01  -1.1307033e-01   3.9181982e-02   4.4940440e-01  -4.4990245e-01   4.6202310e-01  -1.6502153e-01   6.7016106e-01   1.9548549e-01  -7.8638566e-01   5.0979043e-01  -2.6937468e-03  -9.7546502e-01   6.2572692e-01   1.7745094e-01  -3.9035121e-01   7.8351303e-01  -8.8796180e-01   5.9445417e-02  -3.6044616e-01  -6.0660957e-01   8.5470813e-01   3.8540962e-01   9.6916772e-03  -1.3000528e-01   1.0514342e-01  -7.0294338e-01  -7.9391475e-01   1.6616406e-01   6.6345125e-02  -8.6009113e-01   1.6509836e-01   9.0638200e-01  -2.1987768e-01  -8.5562856e-01  -3.7178818e-01  -3.7118258e-02   8.6908401e-01  -8.1328108e-01  -6.5140908e-01   6.4046711e-01   6.5408729e-01  -9.8535001e-01  -6.5195908e-01  -2.0342207e-01   7.6069198e-01  -9.6204256e-01   4.9911597e-01  -6.1595831e-01   3.8199426e-01  -4.9784685e-01   6.8291431e-01  -5.8732478e-02   9.5103123e-02  -9.9602297e-01  -9.8523349e-01  -3.5111536e-01   7.6572529e-01   5.3279773e-01  -8.3660980e-01   6.4628076e-01   5.4992262e-01  -8.2745778e-01   9.7390975e-01  -8.1375664e-01  -6.0076761e-01  -2.9088062e-01   2.8207165e-01   7.1087679e-01   3.3220039e-02  -4.7152152e-01   1.0161702e-01  -2.8766142e-01  -5.8408485e-01  -7.8570220e-01   8.0829210e-01   4.2028584e-01   9.2050782e-02   1.7463844e-01  -3.2845072e-01   1.4926252e-01   7.3854216e-01   1.0616576e-01  -3.0457056e-01   3.5854807e-01  -5.6065524e-02  -6.5334175e-01   6.0414228e-01  -8.3997306e-01  -1.7415460e-01  -1.3945234e-01   4.6562957e-01   3.2841339e-01   7.1656615e-01  -8.3602139e-01   8.9205260e-01  -1.0101159e-01   2.2045914e-01  -9.2590638e-01  -3.0367017e-01   3.0187961e-01   1.4430436e-01  -5.2505191e-01   3.4164913e-01   2.3972913e-01  -8.0696369e-01  -3.8917659e-01  -4.6954758e-01   9.1271076e-01  -3.7981809e-01   3.3292347e-01   2.4526224e-01  -1.5149296e-01   4.7204840e-01  -6.7737551e-01   8.9480973e-01  -6.5383129e-01   2.6928771e-01   4.1641767e-01   8.3587130e-01  -8.7748258e-01  -9.1906733e-01  -2.1804294e-01  -9.1567099e-01   8.4002613e-02   6.9398547e-01  -4.6328286e-01  -1.7519524e-01  -2.8684058e-01  -7.7439004e-01   2.3815662e-01  -5.1811857e-01  -3.8724535e-02  -4.7544526e-01   4.4492587e-01  -1.1503640e-01   5.3669838e-01   5.7644230e-01  -3.6976702e-01  -4.2777433e-01  -8.2357570e-01   7.4177869e-01   8.1024259e-01  -6.5826405e-01  -6.3888352e-01   7.1046303e-01   8.7003362e-01  -7.4421957e-01  -5.8142131e-01  -9.6526225e-01  -7.7178605e-01  -7.0278792e-01   3.5440146e-01   8.5214384e-01   9.8756401e-01   4.3313197e-01  -7.7261478e-01  -6.2677085e-01   8.2389182e-01  -2.3951356e-01  -6.8273776e-01   3.9651583e-01  -1.5170359e-01  -2.0987448e-03  -6.6622343e-02  -5.2815177e-02   7.9267139e-02   1.0999322e-01  -5.6382651e-01  -7.2148286e-01  -7.7692157e-02   3.0788067e-01   4.1233637e-01  -4.7994557e-02  -8.5997177e-01   8.8963995e-01   5.0174351e-01   3.4926265e-01  -8.6401043e-01   4.8989552e-01   5.4641823e-01   1.0038565e-01  -3.1808443e-01  -3.8839480e-01  -9.3140072e-01   6.5183286e-01  -6.8756730e-01   5.0549297e-01  -9.8566950e-01   5.1518914e-02  -3.3260862e-01   4.1911353e-01   4.1543784e-01  -9.4816625e-01  -9.5176260e-01   2.1878479e-01  -9.6863316e-01   8.5801819e-01  -8.7072975e-01  -3.7837081e-01   5.3746885e-01  -9.2255799e-01   2.1210482e-01  -7.1048244e-01  -8.0679960e-01  -5.4894575e-01  -7.6434814e-01   2.9939120e-01  -4.5890297e-02  -6.2512658e-01   9.3855338e-01   5.2470638e-01  -3.8606710e-01  -7.1343228e-02   4.6446250e-01  -1.8198849e-01  -2.5446486e-01  -8.7289353e-01  -5.6182328e-01  -1.0298834e-01  -6.3208428e-01  -2.2636536e-01  -9.7982253e-01  -5.3453812e-01  -8.4176166e-01   9.0489278e-01  -9.3497470e-01   8.2414576e-02   9.3303316e-01   3.4584547e-01  -7.1837571e-01   5.5105769e-01   8.8513238e-01   5.1347886e-01  -3.9665648e-02  -2.1095741e-02   4.9200610e-01   9.5962184e-02   2.9397892e-01   2.1285519e-01   7.7853322e-01  -7.5399990e-01   8.7608882e-01  -1.6485337e-01   9.1249305e-01  -1.3396687e-03   4.9383146e-01  -7.8440928e-01  -9.3772165e-01   5.2586409e-01  -2.0612216e-01   2.9772162e-01   8.0286001e-01   1.4355701e-01   3.0339429e-01   4.8284798e-01   3.9632080e-01  -5.3005721e-01  -5.9022782e-01  -9.8214861e-01  -6.2327674e-01   9.7080233e-01  -3.7403824e-01  -2.0376799e-01   9.2440535e-01  -6.7380757e-01  -1.0942854e-01   5.2616425e-01   9.2279287e-01   4.9201047e-01  -2.2687579e-02  -6.1320254e-01   2.6636138e-01  -8.5145589e-01  -5.7738968e-01  -5.8145590e-01  -3.9805036e-01   9.6807247e-02   3.3624855e-01  -7.7604033e-01   8.1413188e-01  -5.7996217e-01  -4.8926429e-01   9.0102848e-01  -8.2506978e-01   3.7882194e-01  -5.2278142e-01   9.0711035e-01  -8.8153308e-01  -9.5241282e-01  -9.8946564e-01   9.5792217e-01   9.9096931e-01  -6.0143883e-01   1.0831482e-01  -3.7942018e-01   5.9072239e-01  -7.0708767e-01  -9.4804076e-01   3.4189357e-01  -2.6805225e-01  -8.3386074e-01   1.2309429e-01  -1.9804032e-01  -7.9463891e-01   5.5697235e-01  -8.1468372e-01   2.7367687e-01   9.2231916e-01  -9.3546401e-01  -7.6280864e-01  -4.9781853e-01  -5.9055395e-01  -3.5037744e-01  -8.8142284e-01  -2.2307451e-01  -5.1754051e-01  -5.5893391e-01   6.1055767e-01  -2.8031168e-01   9.5614246e-01  -9.0401291e-01  -4.3690785e-01  -1.7612934e-01   2.1647985e-01   3.9355911e-01  -8.9374950e-01   5.0386695e-01   7.3660238e-01   9.6260261e-01  -4.6716298e-01  -4.7460227e-01  -6.1066588e-01   4.2879480e-01   1.7822639e-02  -1.4368517e-01  -6.5230109e-01   7.9928263e-01  -7.6143951e-01  -4.1345692e-01   8.8935789e-01   3.6391793e-01  -1.4118183e-01   2.8597928e-01  -1.8313972e-01  -4.3576880e-01  -4.9823094e-01   1.6942864e-01   1.6750283e-01  -5.3016189e-01  -4.4804179e-01  -5.3925048e-02  -9.5462788e-01  -2.0283123e-04  -6.4946408e-01  -6.4965330e-01  -5.8213644e-01   1.7878049e-01   9.9249269e-01   1.8032709e-01  -4.1088434e-02   8.2525403e-01   7.8791053e-01  -9.4287169e-01  -5.2016829e-01  -2.2652387e-01  -1.2662881e-01  -3.1345044e-01  -1.9655594e-01  -8.4254320e-01  -5.1390761e-01  -2.6196826e-01  -1.2614982e-01   5.1560740e-03   5.5526892e-01  -9.0152527e-01  -3.9439208e-01   8.7001893e-01  -8.1463279e-01  -6.2976224e-01   1.2623423e-01  -1.4767206e-01  -9.6882236e-01   1.4767130e-01  -3.3178587e-01   9.0262549e-01  -1.2259669e-01  -8.2006345e-01
   7.8316594e-01  -7.9082113e-01   3.3890050e-01  -4.7641706e-01   3.6194354e-01  -7.5143070e-01  -6.3640004e-01  -9.5005184e-01   4.9338811e-01   9.0487195e-01   4.6047943e-01   8.9652512e-01  -4.7378277e-01   8.6076839e-01  -7.5532012e-01  -3.3984321e-02   4.6833226e-01  -9.0885024e-02   1.6405807e-01   4.6451001e-01   8.5683423e-01   9.3516991e-01   1.2281462e-01   8.1010097e-01   3.2989671e-01   6.3873827e-01  -3.3344384e-02   8.4599626e-01  -2.0161993e-01  -2.4815491e-01   3.9961393e-01  -4.8046907e-01   3.9595860e-01   4.6924102e-01  -2.3191813e-01   7.2025497e-01  -3.5186664e-01  -5.0103308e-01  -7.0511845e-01  -5.5450408e-01  -8.1756452e-01  -5.3152911e-01   7.5912829e-01   2.7049299e-02   6.9849193e-01   3.1073408e-01  -9.1700214e-01  -6.7259016e-01   6.6549710e-01  -2.3081493e-01  -2.9998532e-01  -9.5919693e-01  -6.4555263e-01   7.5682566e-01  -3.0986128e-01  -6.2614984e-01  -2.2467827e-01   9.2900918e-01  -2.6340662e-01  -6.4264377e-01   6.2824892e-01   9.7120138e-01  -1.7323765e-01   7.0482358e-01   7.4724326e-01  -1.7491393e-01  -4.7624588e-01   4.7876757e-01   4.9109692e-01   6.7920554e-01  -9.1774413e-01  -6.5752099e-01   5.1175232e-02   4.1025396e-01  -7.4493111e-01   9.1868604e-01  -7.1693081e-01   4.5071414e-01   9.8506730e-01   9.8183504e-01   2.9941969e-01   5.6476181e-01  -3.8233631e-01   2.0020497e-01   2.2852524e-01   4.9896448e-01   8.5479267e-01  -8.2440461e-02  -3.9561004e-01   7.5346798e-01   4.4542799e-01   3.2437282e-01  -9.9409685e-01  -7.8785404e-01   7.2283113e-01  -4.4803966e-01  -7.0488012e-01   2.9369960e-01   9.9018378e-01   8.5121043e-01  -3.1410015e-01   9.6015584e-01  -3.8470831e-01   7.9044656e-01  -1.9941894e-01  -5.5346870e-01   4.2173724e-02   5.7017907e-01   2.6772427e-01  -3.9106527e-01   2.1480980e-01  -8.2004977e-01  -5.5635955e-01   6.6351744e-01   9.9200591e-01  -2.7197530e-01  -9.7371833e-02   8.8341181e-01  -8.4872284e-01  -4.4733294e-01   3.6314218e-01  -8.3725280e-01   5.3610344e-02  -1.8258633e-01  -2.6946287e-01   9.0374598e-01   3.2584364e-01   5.7608692e-01   2.4415314e-01   6.5789244e-01   6.2405548e-01  -9.9502763e-01   9.8087155e-01   8.1008644e-01   7.3242760e-03   1.5681682e-01   3.0231141e-01   8.6075215e-01   2.6186387e-01  -6.4170576e-01  -5.4541400e-01  -6.6593862e-02  -2.9206726e-01   2.1517394e-01  -4.5511603e-01  -8.9572589e-01  -4.3197069e-01  -1.8105497e-01   8.9946512e-01  -5.5781088e-01  -9.2615341e-01   2.7188154e-01   4.1359930e-01   1.7095847e-01   1.3769120e-02   8.1437714e-01  -2.6088782e-01  -6.5042769e-01  -1.4895227e-01  -9.0904857e-01  -6.0828481e-01  -6.7516247e-01  -1.9107968e-01   2.6444263e-01   5.4262118e-01   6.2796416e-01  -5.0749231e-01   5.5494627e-01  -1.7692516e-01   5.4747298e-01   7.9707448e-01  -5.8064657e-01   2.2907912e-01   1.3687214e-01   6.3984260e-01  -3.3885298e-01  -4.3240082e-01  -7.1643977e-01  -9.7273647e-01   2.4201017e-01   3.5160126e-01  -5.8776394e-01   5.1896491e-01   5.6019206e-01   8.3639389e-01   9.7165146e-01  -3.3657891e-01  -3.9673429e-01  -8.7389798e-01   6.6411825e-01   8.8209254e-01   3.8033100e-01  -6.6535648e-01   1.3161568e-01   4.1362158e-01  -8.5788989e-01   8.1673667e-01  -3.0065037e-01  -8.9392418e-02  -1.9116901e-01  -6.9382078e-01  -2.6882116e-02  -1.4298031e-01  -1.8547208e-01  -3.0051216e-01  -2.4348893e-01  -3.7209561e-01  -5.4848240e-01   8.3795112e-01   6.4253454e-01   5.7017398e-02   1.4351366e-01  -4.6973351e-01   7.9224037e-01   5.5895032e-01  -2.5041280e-01  -4.0065635e-01  -3.2419778e-02  -9.7428744e-01  -4.6629084e-01  -2.2438526e-01  -3.8318645e-01   9.2798865e-01   7.6957048e-01   7.8174372e-01   5.7250777e-01   4.4109261e-01  -4.5560781e-01  -8.4350127e-01   3.7293807e-01  -9.2097012e-01   9.9776603e-01   7.2032464e-01  -6.8309515e-01   6.7133331e-01   9.5044429e-01  -2.4884708e-01  -4.3788238e-01  -4.7626240e-01  -4.4295990e-01   4.3711691e-01  -1.8227979e-01  -1.2786820e-01  -6.4881149e-01  -6.3952100e-01  -3.2644543e-01  -5.0374858e-01  -5.7267169e-01  -9.2104337e-02  -7.6745979e-03   5.5831512e-01  -3.8508356e-01   1.4114046e-01   3.6176005e-01   4.2772505e-01   1.2634298e-01  -6.9764621e-01  -9.9541993e-01  -8.1732867e-01   1.6179731e-01  -6.1531404e-01   7.2035771e-01  -9.3446918e-01   2.1021476e-01  -6.5293370e-01   3.6165160e-01  -1.4496714e-01   9.2194299e-01  -9.3826936e-01   3.4811001e-01  -4.2620074e-01   3.9566294e-01   5.5222242e-03  -3.7550152e-02   3.3367338e-02   2.1848059e-01   5.9586183e-01  -7.2983115e-01   5.8663747e-01  -4.0428433e-01  -1.3154975e-01  -1.4928684e-01   7.7067237e-01   7.6111648e-01   2.8654525e-01   9.8335884e-01  -8.3089223e-01   3.4847892e-01   4.6213663e-01  -3.1979191e-01  -1.4693716e-02   8.4859095e-01  -1.5527873e-01   6.3550251e-02   2.5881519e-01   6.0450298e-01  -7.2617028e-02  -4.9369572e-01   3.0685136e-01  -5.4902387e-01   9.8783245e-01  -8.6568573e-01  -8.5450914e-01  -3.3761066e-01  -7.1313010e-01   9.1648365e-01  -6.0053618e-01  -8.6162065e-01   6.6834026e-01   9.9745579e-01  -1.5330408e-01   6.8190463e-01  -3.1252638e-01   6.7803448e-01  -9.1217313e-01   7.0816589e-01   8.0691824e-01  -5.0515009e-01   9.3124762e-01   3.7188511e-01   4.4470225e-01   7.9336136e-01  -1.8754733e-01   4.3369861e-02  -3.4737400e-01   8.7209291e-01  -3.4459635e-01  -2.1617528e-01   6.1036993e-01  -7.1602188e-01  -2.7793092e-01   2.1399152e-01   2.7219621e-01  -7.4201366e-01  -6.3726893e-01   2.2607561e-01   7.6563014e-01  -5.0662834e-01  -2.4140917e-01  -6.5118299e-01  -8.7316271e-01   9.6480957e-01  -7.3233579e-01  -2.9561324e-01  -8.1655805e-01   5.7585222e-01  -5.8438747e-01   2.7198613e-01   7.8308563e-01  -9.1896462e-01  -1.4325297e-01  -4.0745064e-01  -6.1930286e-01  -1.8253481e-01   6.2316412e-01  -7.1393369e-01   5.8966162e-01  -8.5479445e-02   9.9973048e-01   9.7394266e-01  -2.8463312e-01  -4.8496266e-01  -7.3590657e-02  -8.0583773e-01   5.9452518e-01   1.4422781e-01  -7.6854634e-01   4.4314648e-01  -4.6470428e-01   2.5455379e-01  -3.5963346e-01  -9.5645924e-01   3.7475923e-01   7.3009161e-01  -4.8427421e-01  -9.3992080e-01   9.5359126e-01   1.3553856e-03   6.6397135e-01   8.5167443e-02  -5.5953339e-01   4.7869553e-02   3.7968603e-02   5.4200412e-01   5.1384606e-01   9.5282355e-01   6.7476394e-01  -4.9533720e-01  -1.7402862e-01  -7.8443498e-01  -6.5371493e-01   5.6698479e-01  -6.7672968e-01   5.9754788e-01   9.5144508e-02  -6.9304469e-01  -6.7215047e-01  -1.6862731e-01   3.9655832e-01  -2.9307069e-01   2.9660351e-01  -4.2453179e-01   4.7158851e-01   6.9638853e-01  -1.7221733e-01   8.1506497e-01  -8.5402219e-01   2.4199145e-01   8.6761144e-01  -2.9968713e-01   2.9090552e-01   1.7079113e-01  -4.6604378e-01  -3.7270958e-01   2.2524097e-01  -8.2334421e-01   8.5819427e-01  -4.7141119e-01   7.3852518e-01   3.1192085e-01   8.2942929e-01   8.1151508e-01  -8.3994699e-01  -8.7447880e-01  -7.5979520e-01  -2.5024381e-01   6.5275147e-01  -7.7121559e-01   6.4403163e-01   9.7456939e-01   8.7562487e-01   4.5837386e-01  -9.7688130e-01   3.4264078e-01  -9.7241547e-01   6.0031410e-02   2.2665927e-01   7.6908927e-01  -8.2515184e-01   3.3942494e-01  -6.8944563e-01   8.9470890e-01  -4.6615344e-01  -7.6909009e-01   5.7852032e-01  -3.4762490e-02  -9.9827332e-01  -5.0069369e-01  -1.9472422e-01  -2.5844672e-01  -1.1772532e-01   1.4062007e-01  -8.3825573e-01   3.6278862e-01   9.3766171e-01   8.8494552e-01   2.1438611e-01  -6.4539457e-01   4.9789960e-01   8.5753693e-01   9.4964378e-01  -7.8097957e-01  -7.5442161e-02  -1.1494691e-01   5.4864441e-01  -1.6119876e-01  -3.4687975e-01   8.8592695e-01   1.3074259e-01  -6.7168838e-01   1.3454309e-01   6.8595008e-01   3.9078616e-01  -2.7623715e-01   5.5100991e-01   4.9802615e-01  -9.0341621e-01  -7.5766611e-01  -1.2684040e-01  -9.3299150e-01  -4.2900980e-01   7.2095110e-01  -8.0674198e-01   5.8926017e-01  -6.3508964e-01   7.0622975e-01  -6.0981650e-01   8.0375834e-01   2.2634177e-01   6.9531904e-01   6.0028983e-01   7.8983082e-01  -2.3570535e-01   6.3369882e-01   7.6667543e-02  -9.7336112e-01   6.8915497e-02  -5.3453157e-01  -8.9461655e-01  -8.1756045e-01   7.7217009e-01  -8.7579712e-01   6.5672585e-01   3.3365866e-01   9.8231447e-01  -9.1609408e-02   4.1746521e-01   9.3150965e-01  -7.9680803e-01  -1.2639095e-01   6.1734417e-01   8.6138454e-01   3.6519500e-01  -3.3373345e-02  -9.6585617e-01  -5.3374246e-01   9.0352338e-01   8.8242697e-01  -3.2159542e-02   2.3775086e-02  -1.6448964e-01  -6.4980481e-01   5.3389714e-01  -1.1710487e-01  -4.5493274e-01  -5.2415296e-01   8.6624612e-01  -2.7031989e-01   5.2603961e-01  -2.8332904e-01  -4.6062134e-02  -9.9025157e-01   4.0856506e-02   2.5588355e-02   8.8158391e-01  -7.6890670e-01   3.5591467e-01  -7.6428760e-01  -5.6116291e-01  -9.9404100e-01   4.8121360e-01  -5.4125207e-01   8.8276783e-02   8.6630318e-01  -4.3617799e-01   1.0263325e-01   8.6705250e-01  -6.3053611e-01  -4.7733022e-01  -7.7605191e-01  -4.2179563e-01  -3.8854443e-01   1.1166370e-01   7.8688485e-01   5.7828491e-01  -1.5723161e-02   9.0388032e-01  -6.2964717e-01   2.3450617e-01   2.2069096e-01   3.8468223e-02  -5.5216702e-01  -5.4924908e-01  -9.3391359e-03  -2.9493177e-01   4.5177980e-01  -5.8862686e-01   5.7957088e-01  -6.8750843e-02   6.8644326e-02   8.7057002e-01   1.2889494e-01  -1.7047884e-01  -9.7444317e-01   6.0139910e-02   1.0308403e-01   7.5774850e-01   7.3669890e-01  -8.0550899e-01  -4.1962580e-02   3.6071303e-01  -1.5157740e-01  -6.2198922e-01  -2.1637069e-01  -1.2134907e-01  -7.4854129e-01   4.7210115e-01  -5.1057555e-01  -2.4911670e-01  -9.8593413e-01  -1.0125044e-02   5.3829115e-02  -5.9573577e-01  -1.0427640e-01   6.8957818e-01   6.9131572e-01  -1.1967269e-01   5.8980691e-01   6.8801045e-01  -8.1787940e-01  -5.1556572e-01  -8.3139205e-01  -6.2092116e-01   7.6471467e-01   6.9473720e-01   6.3107151e-01  -6.9198116e-01   9.9412260e-01  -6.3929601e-01  -7.9436484e-01   2.1538532e-01   3.6481543e-01  -1.4080897e-01  -9.6262140e-02   5.9543653e-01   2.7918495e-01   3.2822003e-01  -4.2108563e-02  -1.2647123e-01   1.3460380e-01   9.1656310e-01   4.0854779e-01  -1.7114117e-01   6.8706613e-01  -3.3077772e-01  -7.0396125e-01   8.8244021e-01  -4.9580492e-01   9.7814042e-01   8.2662357e-01   5.8700286e-01  -6.0983246e-01  -4.2132390e-01   5.4465858e-02   2.6868625e-01   3.5232047e-01   6.5048877e-01   2.0309452e-01  -6.3425710e-01   3.9639640e-01  -4.2068589e-01   5.6289639e-01  -7.8721818e-02  -7.4542136e-01  -8.8906807e-01   7.0817301e-01   1.4602740e-01   9.4250703e-01   4.2700772e-01  -5.3764669e-01  -8.3255689e-01   4.7973707e-01  -3.9701325e-02   6.7506167e-01   9.8107748e-01   4.6692258e-01  -5.6655028e-02   4.7857738e-01  -6.4922204e-01   8.1916690e-01   6.7390859e-04  -8.8816497e-01  -8.5586061e-01  -2.9543505e-01  -2.1501955e-01   1.8195963e-01   7.5225779e-01   6.2044043e-01  -3.8485178e-01   5.1972039e-01   5.4307230e-01   7.1960879e-01  -6.4300944e-01   7.5688750e-01   2.8424496e-01   9.9292099e-01  -6.1589957e-01   7.9196309e-01   7.8497959e-01  -9.5475459e-01   6.6585814e-01  -9.5913318e-01   8.8468272e-01  -8.5902207e-01  -4.3712118e-01  -5.6341398e-01  -5.4708604e-01  -6.8430117e-01   2.4295950e-01   1.1781781e-01   7.4891994e-01  -7.6085274e-02   7.5372104e-01  -8.6910068e-01  -2.7614082e-01   5.6533206e-02  -1.4337566e-01   7.3426162e-01   6.0520869e-01   7.0338473e-01   6.8705603e-01  -6.7136920e-01  -1.9880002e-01   8.0529247e-01  -8.0735382e-01   9.4828143e-01  -4.7923426e-01   4.6448422e-01  -5.0130145e-01   3.2946178e-01   8.4829124e-01  -6.3144482e-01  -2.4975426e-01   6.2210325e-01  -7.5437427e-02  -1.4298188e-01  -6.5012736e-01   1.4595227e-01  -5.5846974e-01  -1.7701681e-01   3.9880553e-01  -1.6661474e-01  -4.6127908e-01   6.3820616e-01   8.2403202e-02   5.6408529e-02  -4.5823796e-01  -7.9237935e-01  -7.1105972e-01  -9.9023514e-02   4.4051907e-01   2.2184076e-01   9.1262232e-01   2.4785376e-01   7.2169373e-01  -2.4948134e-01  -9.7223525e-01  -4.3362126e-01  -4.5886923e-01  -2.4369158e-01  -5.5327681e-01   8.2529027e-01   9.4043262e-01   2.1283361e-01   7.6287785e-01   8.1699782e-01   2.2494104e-01  -6.3384582e-01   4.0825295e-01  -1.2604520e-01   2.7780153e-01   6.8996208e-01  -4.8375635e-01   7.4024815e-01   6.5932657e-01  -2.5983760e-01  -1.4596404e-01  -4.1734161e-01   9.2691122e-01  -4.9586651e-01  -1.3188789e-01   6.7749036e-01  -5.8929568e-01   3.9412004e-01  -6.8349673e-01  -3.0974553e-01  -9.8098269e-01  -7.5594154e-01  -3.7164273e-02   3.0824844e-01   9.5804707e-01  -9.6075415e-01   6.1708229e-01   9.1147758e-01  -5.7369069e-01   8.9765869e-01   3.4620043e-01   4.1460723e-01   8.0038898e-01  -1.5664755e-01   8.7669176e-01   5.6172860e-01   9.9560987e-01  -7.6735783e-01   8.2883797e-01   2.5661841e-01  -4.0557011e-01  -5.7002448e-01   2.9347993e-01  -8.6426549e-01  -4.7762466e-01   1.5061968e-01  -4.8962700e-01   6.0606873e-01   3.1473532e-02   2.6050751e-01  -6.5967942e-01  -3.2738698e-01  -3.3679025e-01   9.4851756e-01  -4.1980228e-01  -1.1594578e-01   6.8131708e-02   9.3787047e-01   7.9712049e-01   1.1256565e-01  -8.7906959e-01   8.8785056e-01   8.0142793e-01  -3.5810897e-01  -9.6429419e-01   1.1172630e-02  -2.2101803e-01  -9.0039585e-01   1.3191237e-01   8.5389753e-01   4.4626532e-01  -5.2810430e-01  -3.2435627e-01   4.3291539e-01   7.2412389e-01   2.3420938e-01  -3.6629303e-01  -7.9785468e-01  -9.7493072e-01  -9.4415735e-03  -8.0251520e-01   5.9865251e-01   3.6384712e-01   9.4003029e-01  -5.8511391e-01   8.6414000e-01   6.8880012e-01  -2.8175570e-01   9.5040151e-01  -4.8179908e-01   7.4139350e-01   3.7863670e-01   9.7798243e-01   9.4596978e-01  -5.8233041e-01  -2.7443780e-01   3.7739246e-01   5.6027548e-01   3.0857580e-01  -3.2844920e-01   9.6456403e-01  -9.5806371e-01   1.2389694e-01   8.0751887e-01  -4.5537538e-01   1.4778729e-01  -9.9907316e-01   4.6827155e-01   3.7665230e-02   7.4404511e-01  -6.5257835e-01  -9.5694626e-01   3.3468895e-01  -8.1716422e-01   5.8508734e-01   3.2061267e-01  -3.6645717e-01   9.0720758e-01  -1.2842197e-01  -3.1992672e-01  -6.5571555e-01   2.3428118e-01  -2.2706044e-01  -2.9033537e-02   3.4012997e-02  -2.8902877e-01  -1.2762672e-01   4.0892188e-01  -1.0109466e-01   6.8994430e-01  -6.4282197e-01  -2.6720256e-01   8.6158619e-01   7.9731664e-01   2.8170923e-01  -8.4917482e-01   9.4925622e-02   9.0971374e-01  -3.6404177e-01   5.3903464e-01   1.3861672e-01  -2.5930377e-01   5.4499133e-02  -2.6297964e-01   4.9028141e-01  -6.8468217e-01  -7.7192811e-01   5.3841295e-01  -3.5559654e-01   1.1283760e-01  -5.2871418e-01   2.5817924e-01   2.7873358e-01  -3.8083684e-01  -7.7675995e-01  -1.8778994e-01  -6.5502955e-01  -6.3598886e-01  -1.2022576e-01  -3.6354658e-01  -3.9979801e-01   8.3521775e-01  -6.8440478e-01   7.6844953e-01   7.8897562e-01  -5.8326655e-01   5.7071575e-01   1.6330347e-01  -2.7821162e-01  -9.4908245e-01  -6.3856294e-01   9.8662037e-01   9.2416082e-01   9.0786279e-01  -6.1532244e-01  -8.4381032e-01   3.7846565e-01   1.9499677e-01  -6.1778863e-01  -9.5679528e-01  -1.0013118e-01   2.3440733e-02  -6.6247100e-01   6.7126079e-01   4.6583240e-01  -1.0870205e-03  -5.7116879e-01   5.1579314e-01   1.3884219e-01   4.1055481e-01  -3.0554074e-01   6.5114114e-01   5.2972283e-01   9.8537867e-01   8.3248109e-01   7.1225232e-01  -4.7241469e-01  -9.9557474e-01   7.8220258e-01  -8.2917823e-01  -5.2765123e-01   1.8960465e-02  -4.4999232e-01  -1.0140281e-01  -3.7231285e-01   5.6166179e-02   2.3123087e-01  -9.3186972e-01  -7.4637147e-01  -1.4567034e-01  -9.1309543e-01   7.9168893e-01  -4.8601321e-01  -1.9685304e-02   7.7458532e-01  -8.9387910e-01  -7.1553461e-01   1.7941461e-01   4.0335423e-01   7.2999811e-01   1.3979958e-01   6.4126669e-01  -4.5835179e-02  -9.5727086e-01  -8.1932408e-01  -8.7104971e-01   3.0314499e-01  -3.8771300e-01   8.1819035e-01  -5.3341741e-02   9.6097586e-01   2.2321485e-01   5.4268950e-01  -9.8596642e-01  -4.1607129e-01  -8.3186661e-01  -4.6896458e-02   2.8385304e-01  -3.3918761e-01   9.3590131e-01  -4.5137117e-02  -8.6552261e-01  -9.8189472e-01  -9.2549797e-02   1.0728124e-01  -9.3715874e-01  -2.7284594e-01  -9.7535231e-01  -3.6812136e-01   1.5311406e-01   2.1429624e-02  -1.7306859e-01   3.9268644e-01  -8.3440232e-01
   4.3644232e-02  -3.3589853e-01   1.6210035e-01  -5.7820654e-01   3.2291567e-02   7.7440851e-01   3.4710669e-01   4.3284440e-01   5.9040197e-01  -3.4590860e-01   7.5103396e-01   3.1306899e-01  -6.1894553e-01  -6.8453643e-01  -3.5323940e-01   4.9944988e-01   7.5436683e-02  -6.2553452e-01   8.6864245e-01   5.2101355e-01   2.2999122e-01  -3.3191567e-01  -2.2522530e-01   1.3852188e-01  -4.1101489e-03   3.2336730e-01   8.6247049e-01  -6.0115994e-01  -7.1646686e-01  -8.0768657e-01   1.2886762e-01  -5.2081524e-02  -2.2485652e-01   1.7743545e-01   9.7736873e-01  -2.1336973e-01   9.9134891e-01  -9.5462242e-01  -9.5130215e-01  -7.7516565e-01   3.9081677e-01   4.1750359e-01   8.6553237e-01   1.9979436e-01   3.4321989e-01  -8.9905009e-01   9.0425175e-01  -3.5077583e-01  -3.5516435e-01  -6.8197595e-01  -1.1590560e-01  -4.4262992e-01  -8.5670735e-01  -8.6828305e-01   5.3464660e-01   2.0888335e-01   6.0963347e-01   6.6858729e-01   4.0790301e-01   8.1534511e-01   3.3003851e-01   2.5585054e-01  -9.0802748e-01   7.0045166e-01  -2.9881128e-01  -1.5813886e-01   2.1260477e-01   1.9930974e-01  -4.0985594e-01  -4.0139053e-01  -7.8413456e-01   1.0633021e-01   3.1822282e-01  -9.4169234e-01  -1.6770073e-01   6.3067178e-01  -1.9402112e-01   2.0192392e-02  -1.2461881e-02   1.4972259e-01  -7.6280319e-01   6.6705759e-01   4.7077475e-01  -8.9533224e-01   9.2058617e-01   7.2253650e-01   1.3401393e-01   4.9139514e-01   8.8053592e-02  -2.0738059e-01  -7.8113590e-01   6.5539196e-01  -4.9808360e-01  -9.0655915e-01  -9.6517336e-01  -6.1284986e-01  -3.1000508e-01  -3.9871397e-02   9.6631380e-01  -9.1220682e-01  -8.5515674e-01  -4.3821947e-01  -3.7955592e-01  -9.2570829e-01   3.4738020e-01   9.9755156e-01  -8.1092591e-01  -9.5886572e-01  -6.9269434e-01   1.0736801e-01   9.8541410e-01  -7.1315371e-01  -8.4917213e-01  -7.2079898e-01  -3.3142369e-01   6.7265993e-01   9.1233272e-01  -1.9567344e-01   5.1061173e-01   9.5259672e-01  -4.7058218e-01   7.7167058e-01   7.6969605e-01   5.8382462e-01  -9.5870237e-01  -1.4536929e-01  -5.1045602e-01   9.2833275e-01  -6.0235920e-01  -5.1417941e-01   8.3965762e-01  -6.3304317e-01   3.3547543e-01  -6.9604719e-01  -9.2394188e-02   4.9494307e-01   8.3106812e-01  -2.7082894e-01   8.1101571e-01  -5.9298002e-01   8.6161390e-01   7.1273315e-01  -7.4223124e-02  -6.8395754e-01  -4.7200716e-01  -7.1535427e-01  -3.9447437e-01  -3.2963656e-01   9.6965603e-01  -4.6168022e-01   2.9537586e-01   4.9066743e-01  -2.2443385e-02   8.6767666e-02   1.8968377e-01   1.0701977e-01  -9.5994222e-01   4.4437685e-02  -1.4529189e-01  -8.6409503e-01   1.8751554e-01  -4.3088981e-01   6.5323089e-01   3.7461814e-01   5.4565121e-01  -9.7839377e-01  -8.9278190e-01   6.8661605e-01   2.6469908e-01   5.5989037e-01   1.9732627e-01   2.0733730e-01  -5.9769553e-01   5.7036642e-01   2.4309124e-01   2.7793015e-01   4.1785529e-03  -7.1167151e-01   5.2802704e-01   9.3871778e-01   7.5525109e-01  -7.8316637e-01   2.6327538e-01  -9.8939652e-01  -9.5237068e-01  -9.5941389e-01  -4.8890195e-01  -4.9005588e-01   7.3392873e-01  -4.7443159e-01  -8.1104197e-03  -5.5961293e-01   2.5050944e-01   6.7069264e-01  -5.4621870e-01  -1.5128796e-01  -5.3242860e-01   5.6789246e-01  -9.6994117e-01  -4.1864634e-01  -1.7163024e-01  -2.7911155e-01   1.1218960e-01   7.6191005e-01  -7.1269192e-01   1.0175061e-02  -8.2884770e-01   6.8169164e-02  -7.8600001e-01   2.3146378e-01  -9.9458199e-01  -1.3771648e-01  -7.4771559e-01   3.0425772e-01  -3.8702404e-01  -1.1870318e-01  -9.4957145e-01   1.6882189e-01  -9.5466417e-01  -9.7291331e-01  -2.5371451e-01   6.2249497e-01  -1.2481744e-01   8.1312822e-01   4.6109325e-01   6.8191690e-01   9.9963965e-01  -1.1130765e-01   8.3598339e-01  -3.3253006e-01   3.5115501e-01   4.2544375e-01   8.2400124e-01   8.9335147e-01  -6.7805767e-01   1.9993009e-02  -7.9270180e-01  -2.3202112e-01  -9.3929217e-01  -5.4922376e-01  -7.3078201e-01   6.1401365e-01   5.8756771e-01   5.1471092e-01   6.3324163e-01  -1.0955204e-02   4.3875595e-01  -1.9675797e-01  -7.5709010e-02  -2.3567601e-01   7.7868060e-02  -5.3020125e-01  -3.3399943e-01  -2.4331651e-01   3.7616891e-02   2.8306228e-01   1.0938117e-02   1.8014389e-01   2.6991813e-01  -2.8664728e-01  -7.7672472e-02   4.6752851e-01   1.6649024e-01   5.7131960e-01  -5.1792752e-01   6.4768405e-02   5.6924843e-01  -1.9288417e-01   2.6125597e-01  -7.6430977e-01  -3.4562185e-02  -6.1125907e-01   2.5331248e-01   5.8851196e-01   2.2388816e-01  -7.3958200e-01  -3.8385953e-02   8.9688376e-01  -8.0026154e-01   6.2755250e-01   2.0721039e-01   6.8728605e-01  -8.9647745e-01  -6.3039778e-01  -4.0100975e-01   9.9121480e-01  -5.6300690e-01  -9.0957784e-01  -6.4879297e-01   3.3042405e-01  -9.8828088e-01  -8.8581128e-01   1.4289189e-01   2.6961963e-01   3.9620882e-01   9.6832734e-01  -6.7541022e-01  -1.2131013e-01   8.9544813e-01   4.7731941e-01  -4.0014582e-01  -3.7405124e-01   6.5459136e-01   5.5356956e-01   3.8801095e-01   2.1469835e-01  -7.6376623e-01   4.5170275e-01  -3.4198194e-01   9.1431676e-01  -1.2627482e-01  -2.8518097e-01   6.6361996e-01  -6.7087629e-01   4.0171123e-01  -5.0876584e-01   7.1123778e-01   8.7975380e-02   4.6712424e-01   8.4575597e-01  -1.7170992e-02   8.1752118e-01   3.4424022e-01  -6.5388819e-01   9.9250684e-01   1.6119571e-02   8.8433424e-01   5.3413741e-01  -9.8134383e-02  -7.3492658e-01   5.7957163e-01   4.3648298e-01   8.4231262e-01   3.1500172e-01  -9.2436512e-01  -9.5392924e-01  -1.3134900e-01  -9.4233516e-01  -3.8336341e-01  -2.6825171e-01   7.1932490e-01   9.3688581e-01   4.5168833e-01  -7.8828480e-01  -9.7710863e-01  -6.9117297e-01   5.1377446e-01  -9.8256746e-01   5.5973116e-01  -7.3321736e-01   2.9960325e-01  -4.5747596e-01  -6.5510429e-02  -5.5148697e-01   2.1384581e-01   8.1813867e-01   6.3690431e-01   3.1084631e-01  -9.2347184e-01   7.2311517e-01   8.2683259e-01   3.4874036e-01  -9.5820172e-01  -4.5344903e-01   3.8350420e-02   9.4042973e-01  -7.2180797e-01   6.0769636e-01  -3.7232465e-01  -7.9643084e-01   9.1397469e-01   4.7990361e-01   6.8750709e-01   1.3776118e-01  -4.8907159e-01  -2.9314392e-01   5.5913443e-01  -6.1427131e-01  -7.2212489e-01  -3.0314227e-01  -9.6530041e-01  -8.8791923e-01   5.4916619e-01   5.7870288e-01  -3.3747061e-01  -1.9706041e-01  -5.5121132e-01   9.7543630e-02   9.3583615e-02   9.6982693e-02   5.7192198e-01  -9.5911920e-02   8.3506187e-01   4.5432114e-01   8.4354044e-01  -3.8764100e-01  -4.2416408e-01  -3.5270557e-01   2.8867328e-01   7.0535225e-01   1.6076128e-01  -8.1193374e-01   4.7853693e-02  -2.4489151e-01  -7.4560219e-01  -1.1963606e-01   7.3783996e-02  -2.2341659e-01  -9.1971297e-02   6.1166284e-02  -4.0877622e-01  -6.0997619e-01  -4.4726923e-01   6.6891837e-01  -1.3282324e-01  -5.6972645e-02  -2.9971999e-01  -5.2350534e-01  -6.4873409e-01   6.1264098e-01   2.4936899e-01  -9.8102115e-01  -3.2821280e-01   5.9126654e-04  -6.6783510e-01   1.8838891e-01  -9.9246558e-01   4.1094525e-01  -5.1014126e-01   9.0336269e-03   4.5958872e-01  -8.7940606e-01   2.2056124e-01  -2.2384035e-01  -1.6341984e-01  -2.2766465e-02  -8.7500918e-01   8.4267319e-01  -9.6966086e-03  -6.1287517e-01  -3.7359400e-01   3.9373968e-01  -6.4895066e-01   6.0008116e-01  -2.3492755e-01  -4.1915432e-01  -9.2041885e-01   1.7210081e-01   5.9327836e-01  -6.3213903e-01   4.7829328e-01  -9.4437671e-01  -8.1907884e-01   9.3614681e-01   2.4826828e-01  -2.4384188e-01   9.8404174e-01   9.9330105e-01  -6.6493607e-01  -1.3823629e-01   5.9732980e-02  -2.2934473e-01   9.9954604e-01  -8.2612223e-01  -9.4192382e-01  -2.6837419e-01   3.6939354e-01   6.2215865e-01   1.2074849e-01  -3.3893246e-01   4.6291794e-01   8.6464284e-01   2.0097834e-01   9.4280406e-02   7.7639997e-01  -6.2624263e-01  -8.5218094e-01   3.0329882e-01   6.6105434e-01   2.4337545e-01   1.6649009e-01  -7.4560507e-01  -6.0176204e-01   4.9786810e-01  -5.8494552e-01   2.9211549e-02  -3.6148056e-01   8.1205124e-01  -5.7037019e-01  -1.5751786e-01   4.5436043e-01   5.6133205e-01  -9.9065625e-01  -3.0333727e-01   8.4095439e-02   8.7123691e-01   9.9386277e-01   5.9257051e-01  -3.4195696e-01   2.4038256e-01  -9.1293649e-01   7.2133271e-01   2.0193978e-01  -7.6919488e-01  -6.1682148e-03   4.1848304e-01  -4.6536450e-01  -4.6592729e-01  -4.8758449e-01  -4.0642317e-01  -7.2918016e-01  -8.8343305e-01   2.8706371e-01  -1.3390333e-01  -6.6887320e-01   1.3391030e-01   8.4730037e-01   6.5760167e-01  -5.4784424e-01   5.7154279e-01   3.3846754e-02  -5.4002121e-01   7.5926089e-01  -1.1000686e-01  -5.8810206e-01  -8.5491162e-01  -9.9319564e-01   8.4014872e-01  -1.0081733e-02  -7.2460039e-03   8.1537900e-01   7.8460164e-01  -3.3574410e-01   2.6410473e-01  -4.8650646e-01   4.8150240e-01  -9.0254491e-01   8.5390158e-02  -6.7254071e-01  -3.1302490e-01  -2.2754059e-01  -6.4074630e-01   8.0321625e-03   7.5734510e-01  -5.5630123e-01   9.0674731e-01  -5.6399990e-01   3.8132677e-01  -4.6992594e-01   6.4610510e-01  -9.1880016e-01   6.1020001e-01  -2.8809454e-01  -8.2942188e-01  -8.1097255e-01   6.8630240e-01  -8.5189051e-01  -2.3816396e-01  -5.3501517e-01  -5.8635854e-01   2.5646051e-02  -2.3394601e-01   3.3529072e-01   5.9365407e-01  -1.0925815e-01  -4.0583574e-01  -1.7842991e-01   4.7738748e-01  -4.8359140e-01  -3.0008524e-01  -4.9400963e-01  -7.1828392e-03   9.2857684e-01   5.8566430e-01   3.0645168e-01   9.7025624e-01   9.8386972e-01   5.9118290e-01  -6.8973489e-01   7.3832732e-01   6.6484725e-01  -5.8710146e-01   8.8633231e-01  -8.2670143e-01  -5.2037244e-01  -1.6378558e-01   9.6772331e-01  -7.7614129e-01  -2.7805943e-01  -2.2532084e-01   1.1685179e-01   9.2451076e-01   6.6248278e-01  -1.5759291e-01   2.7591928e-01   4.3778395e-01  -1.1894563e-01   5.1007832e-01  -3.2259469e-02   8.7113628e-01   8.3354671e-01   9.5784340e-01   9.2327800e-01  -3.3510689e-01   3.8836798e-01   3.6827296e-01  -6.4270049e-01  -3.9603599e-01   4.0954930e-01  -9.4966565e-01   5.2869713e-01   3.9981773e-01   4.4028713e-01  -9.0306121e-01  -7.2878253e-01   4.8774539e-01   2.7855279e-01  -9.2094344e-01  -4.0119102e-01   2.0222821e-01  -4.5984633e-01   7.7741445e-01  -9.6119164e-01  -4.4605790e-01   3.4014541e-01  -3.7743301e-01  -9.7893490e-01  -7.9815074e-01   4.6794191e-03  -6.2039086e-01  -7.9150405e-01   7.0676267e-01  -5.2614131e-01  -8.7668003e-01   9.7555602e-01  -2.6153801e-01   3.3049414e-01  -1.1808934e-01   3.0517023e-01  -3.7596260e-01   7.5355559e-02   7.0642634e-01   2.5398399e-01   4.9865969e-01  -5.0317047e-01  -9.2584022e-01   7.2265672e-02  -2.8814103e-01   8.7997981e-01   8.6666384e-02  -2.8653845e-01   8.1392498e-01  -9.1458511e-01   8.2412218e-02   4.6468032e-01   4.2712703e-01   9.4816014e-01   4.6677185e-01   4.9988208e-01   3.9627552e-01   8.0092703e-01   2.2645881e-01   7.8617435e-01  -3.4562234e-01  -1.3586826e-02   2.9336720e-02  -6.4480530e-01   8.7319480e-01  -4.8793695e-01  -7.6562497e-01  -3.3944946e-01   5.0545365e-01   7.7645654e-01  -3.6871361e-01   5.9257419e-01  -6.2312797e-01   3.3732256e-01   9.4122375e-01  -2.1715253e-01  -2.0532730e-01   3.9258147e-01   6.0698354e-01  -6.5967109e-01  -5.2131433e-01   1.4843197e-01   4.1922410e-01   4.9390370e-01  -5.6050734e-01   8.0795747e-01   9.1138926e-01  -8.8667108e-01  -8.7086577e-01   9.8953759e-01  -4.3811328e-01   2.8363085e-01  -4.6424689e-01  -6.0416709e-01  -9.0803883e-01  -9.8860009e-01  -8.3130836e-01   7.8997305e-01  -9.6900007e-01  -8.8593084e-01   9.8813744e-01   5.4950152e-01   9.9878792e-01   5.1800089e-01  -2.4218807e-01   7.0818945e-01  -5.0422712e-01  -2.5185451e-01   1.2153905e-01   8.0899942e-01   4.0002938e-02  -7.7042685e-01   4.9537584e-01  -6.4287749e-01   7.1251638e-01  -1.4521386e-02  -7.3367295e-01  -1.7086935e-01   2.7846916e-01  -6.7409710e-01   4.8384469e-01   5.6018168e-01   9.6276726e-01  -9.3523715e-01  -7.5478125e-01   3.6064150e-01   3.8625650e-01  -8.9664986e-01  -7.4977921e-01  -1.7054345e-02  -7.1249195e-01  -8.2993739e-03   8.1963594e-01  -3.7197958e-01  -4.2609358e-01  -6.3274885e-01  -6.6436458e-01  -5.1350861e-01  -7.2275575e-01  -5.9751512e-01  -5.7871597e-01  -9.0475049e-01   9.5557069e-01   9.7448963e-01  -7.8850345e-01  -4.6894749e-01   6.1441246e-01  -6.3781109e-01   3.1961664e-01   5.0262423e-01   3.0077001e-02   2.2204687e-02   8.8527934e-01  -6.3139231e-01   9.1074923e-01  -9.9209376e-01  -4.2169435e-01  -1.5520426e-02   4.5599863e-01  -4.7552629e-01  -2.0658593e-01   3.8534590e-01  -4.8554622e-01   8.2108128e-03  -9.8833421e-01  -1.9979056e-01  -8.7869331e-01  -1.7162210e-01   1.3481059e-01  -8.8427447e-01  -1.0508963e-01   3.3675723e-01   5.4270247e-01   4.2521851e-01  -8.9142414e-01   7.6814387e-01   7.9115501e-01   9.0943120e-01   3.5223776e-01  -7.7429957e-03  -3.2416247e-03   9.7581187e-01   4.3355180e-01  -5.4495055e-01  -9.0275296e-01   6.6099669e-01   5.7839790e-01  -3.0768809e-01   8.5974996e-01   6.6006994e-01   1.8648175e-01  -9.8618215e-01  -3.8054190e-01   8.7291397e-01  -9.5565692e-01   5.6511125e-01  -7.1834201e-02  -1.5679292e-01   6.6847563e-01  -5.8275641e-01  -6.4976798e-01  -7.2427411e-01  -6.2869426e-02  -8.7951204e-01  -6.8590180e-01  -6.9579173e-02   7.1717374e-01  -8.9733297e-01  -1.3324228e-01  -5.4920449e-01  -4.2209380e-01  -5.2789793e-01  -1.9021995e-01  -2.3180133e-01   5.8703414e-01   4.1027993e-01   8.6267782e-01  -7.1093859e-01   5.1854877e-01   7.2954282e-02  -6.0737179e-01   1.3379946e-01   8.7712109e-01  -7.9954734e-01  -1.3376619e-01  -2.6759301e-01   9.5568179e-01  -1.5032307e-01   7.9961049e-01   4.0988064e-01  -3.4776056e-01  -1.2691074e-01  -6.7297026e-02   4.5412366e-01   8.1836903e-01  -9.9762817e-01  -6.6667613e-02   2.7301321e-01  -1.0230764e-01  -3.7317950e-01   9.6453277e-01  -9.0914189e-01  -4.9153347e-01   4.2912304e-01  -6.3721472e-01  -5.9308983e-01   1.6547939e-01  -6.9137369e-01   7.4655608e-02  -2.8021523e-01  -6.9672270e-01  -4.1560942e-01   9.4604160e-01   3.0685277e-01  -1.4893907e-01   1.5495346e-01   6.4970693e-01  -8.5981115e-01   3.8174137e-01  -8.2839048e-01  -3.4046769e-01   3.8064437e-01   1.7177549e-01  -4.4575720e-01   8.1580041e-01  -7.3363267e-01  -2.6639035e-01   6.0625138e-01   2.0364877e-01  -8.5895731e-01  -7.5989693e-01   4.4536921e-01  -5.3704383e-01  -8.4916755e-01  -3.6563456e-01  -2.2762173e-01  -4.0478923e-01   8.6708796e-01   1.9066467e-02   9.9597997e-01  -1.0399052e-01  -9.3693342e-01  -3.8834925e-01   6.1096867e-01   2.9146363e-01   7.4311267e-01   4.3868376e-01   9.7672926e-01  -7.7327255e-02  -6.1543743e-01   4.9512137e-01  -7.7892990e-01   9.3584440e-01   9.9350652e-01   7.2673334e-01   2.8790664e-01   2.8533226e-01   1.2765281e-01  -9.2639073e-01  -7.8126606e-01   7.7116679e-01   2.2333982e-01  -3.2560382e-01   5.6967967e-01  -9.3980073e-01   7.6861782e-01   7.5209174e-01  -5.3738521e-01  -4.1202998e-01  -4.0165677e-01   2.6061260e-01   9.6887158e-01  -3.4538581e-01   7.8751228e-01  -2.4234277e-01   1.6980509e-01  -9.7095841e-01   2.2708431e-01   2.8485338e-01   2.3845450e-01   3.8211898e-01   5.8240137e-01  -9.3183724e-01  -9.8800712e-01   2.2937622e-01   1.9552156e-01   2.0238730e-01  -9.3291445e-02   4.3994217e-01   2.2082135e-01  -5.2778388e-01   3.4817382e-01   5.3328186e-01   1.5714829e-01   2.0184051e-01   4.9042982e-01  -7.5843167e-01  -7.7923702e-01   8.3101430e-01   6.7629103e-01   9.1654985e-01   9.3466592e-01   1.6460908e-02   1.4151587e-01   2.6446950e-03  -6.1870137e-01  -5.2949449e-01   5.8765165e-01  -9.6124775e-01   4.5232972e-01  -7.2083856e-03  -4.2667624e-01  -8.8341620e-01  -9.5094826e-01   1.7934528e-01   7.3672071e-01  -3.0153875e-01   6.7453387e-01  -3.1199030e-02   2.2575508e-01  -7.6035530e-01   5.1117288e-01  -3.9465194e-01  -2.0026054e-01   8.0949239e-01  -4.8767777e-01   3.6213446e-01  -2.0415472e-01  -2.6739400e-02   8.6540970e-01   2.0790414e-01   6.6134291e-01  -4.1310611e-01   1.8478539e-01   7.7794525e-01  -4.7129083e-01  -8.7301731e-02  -5.7326986e-01  -6.9120419e-02   8.1001031e-02  -8.8983279e-02   5.0095806e-01  -9.4996927e-01  -8.9718026e-01   2.5960248e-01   6.8940299e-01   1.5444821e-01   7.5160758e-01   1.6256836e-01  -2.7678756e-02  -9.0824816e-01   9.9024714e-01   5.2578347e-01   5.2315362e-01  -9.4115539e-01  -9.1058584e-01   1.4426024e-01
   2.8222700e-01  -2.2884391e-01  -5.3415655e-01  -4.3396941e-01  -4.8136002e-01  -8.3161870e-01   2.4237534e-01  -3.3029843e-01  -1.5091784e-01  -4.2174322e-01  -7.9638576e-02   8.9590951e-01   5.3074895e-01  -3.6056588e-01  -4.6386697e-01   8.7472171e-01  -3.8167991e-01   9.4093928e-01   5.9957321e-01  -8.3978485e-01   9.7651389e-01  -4.8949989e-02  -1.8653390e-01  -2.2324652e-02   2.9021144e-01  -7.4337181e-01  -1.6877126e-01  -6.7809770e-01  -6.5843108e-01  -3.6475251e-01   1.5481683e-01   8.8102357e-01   5.6428636e-01   4.2712942e-01  -3.6065169e-01   7.1150537e-01  -8.8346489e-01  -2.8696163e-01   5.5081116e-02  -9.7015728e-01   5.7918976e-01   4.2708685e-01  -9.1762339e-01  -8.0132171e-01  -5.2403129e-02  -4.1411042e-01  -8.7340942e-01   8.4083319e-01  -1.0236841e-01   4.6348973e-01  -9.5044559e-01  -3.1321512e-01   3.3895337e-01   7.0294398e-02   5.2810909e-01   9.6625302e-01   6.5580567e-01  -2.4360945e-01  -8.7081781e-01  -3.9053009e-01  -8.8524727e-01  -5.9635282e-01  -6.8081298e-02  -3.2775493e-01  -6.5981975e-01   5.7953591e-01   3.9637433e-01   8.5744276e-01   5.0006020e-01  -7.0948038e-01   5.2652041e-01   6.8800824e-01  -8.8413462e-01  -7.3632129e-01   4.1138053e-01   9.7003095e-01   1.1455254e-01  -9.2451206e-01  -3.3015173e-03   8.8910062e-02   4.8465803e-01   9.8059648e-01   8.8695889e-01   3.2481032e-01   5.5419652e-01  -4.1974967e-01   1.9833682e-01  -9.2514862e-01   4.1500371e-01   3.7813071e-01   6.8690159e-01  -4.2395124e-01   5.6043577e-01   1.5216936e-01   2.0719464e-01  -3.6964951e-01   4.6579245e-01   4.6465801e-01   1.9706230e-01   1.1840140e-01   2.1999744e-03   9.8327438e-01  -2.8106495e-01  -1.9191614e-01   4.4120755e-01   2.0401895e-01  -2.6855874e-01   6.4496179e-01  -8.1505110e-01  -1.5761890e-01   5.4961093e-01  -3.0284715e-01   7.7358227e-01   3.9147206e-01  -4.9674904e-01  -9.0838932e-01  -2.4295106e-01  -3.4526084e-01  -3.5292652e-01   4.9941376e-02  -9.5091875e-01  -1.9099901e-01  -8.0605177e-01   8.5705881e-01   5.4219781e-01   3.0705017e-01  -7.9265711e-01   4.6006850e-01   4.8003188e-01   9.3833718e-01   1.0397134e-01   2.0070260e-01   2.0296458e-01   4.2747629e-01   7.3195108e-01  -2.3466741e-01   5.2748991e-01  -2.1176529e-01   5.9331588e-01   1.2956681e-01   4.4691337e-01  -9.5182656e-01  -4.2050960e-01  -2.4646763e-01   1.9130582e-01   8.7901521e-01  -9.8096646e-01   2.9299611e-01   3.2385536e-01  -4.0795663e-01  -5.6682687e-01   9.5278565e-01  -5.3293585e-01  -9.8169791e-01  -5.8778256e-01  -9.7277875e-01   5.5840710e-01  -9.4229045e-01  -4.3291498e-01  -5.7317830e-01   1.9151529e-01  -5.5034089e-01  -2.1399016e-01  -5.2507408e-01  -9.6940634e-01   6.8973619e-01  -3.2079844e-01   1.1366201e-01  -1.8509404e-01   7.4441665e-01  -7.6531638e-01  -6.8991330e-02   4.9080644e-01  -3.7013055e-01  -9.6607400e-01  -6.1755138e-01   6.9230808e-01   5.6842454e-02   8.6360878e-01   7.7035098e-01   4.0380251e-01  -6.7764394e-01  -2.3598475e-02   2.4310046e-01   8.7772167e-01  -7.6853505e-02   3.7224800e-01   3.9786248e-01   1.8021873e-01  -3.8347530e-01  -4.3689774e-01   5.4042468e-03  -8.2573151e-01  -9.1692903e-02   3.0176023e-01  -3.1661393e-02  -6.4282729e-01   5.9627941e-01   3.8910473e-01   5.5969015e-01   3.1194930e-01  -6.6610913e-01  -3.1240715e-01   4.7836743e-01  -5.2650513e-01   9.1208790e-01  -1.8193054e-01  -3.6164286e-02  -5.2069156e-01   1.2819965e-02  -1.5030364e-01  -8.0363258e-01   4.1883293e-01  -8.9347347e-01  -4.6043150e-02  -6.4181196e-01  -7.2624836e-02   1.6893780e-02  -6.7021922e-01   1.4567986e-01  -1.2132115e-01  -2.5969681e-01  -8.7419389e-01   3.0622356e-01  -1.1348605e-01  -4.4459487e-01   4.6126359e-01   7.9591376e-01   6.1768320e-01   2.1719583e-01  -4.4135156e-02  -5.7618968e-01  -1.4591824e-01   3.2317039e-01   8.9890093e-01   6.7290258e-01  -2.7330491e-01  -8.0032463e-01  -7.8018224e-01  -6.5422579e-01  -2.4275654e-01   4.0833787e-01  -1.7815050e-01   7.0175781e-01  -8.2916766e-01  -8.2801778e-01   3.9797051e-01  -9.9035321e-01  -5.9386731e-01  -1.3760736e-01   3.9714544e-01  -2.4373214e-01  -4.3058391e-01   3.1491101e-02  -4.1244669e-01  -8.1533337e-02  -3.1955674e-01   1.5642504e-01  -4.7319137e-02   7.0396451e-01   6.2068573e-01   5.0384688e-01   4.3404920e-01  -5.7796931e-01  -8.0720720e-01   5.6057314e-01  -9.1889945e-02   2.6169394e-01   1.7129374e-01   9.1630716e-01   7.6707292e-01  -9.8969215e-01   6.3138868e-01  -1.4286558e-01   4.7924111e-01  -8.9342796e-02   2.3232319e-01  -2.0272039e-01  -2.8709109e-01  -6.0503158e-01  -9.8701249e-01   9.6001474e-01  -6.3469743e-01   5.9786122e-01   2.6924619e-01  -7.5197958e-02   1.9346329e-01   5.1185647e-01   7.6818553e-01  -5.6624270e-01  -7.0838516e-01  -6.0685622e-01  -8.2107991e-01  -8.3521966e-01  -4.3980775e-01   2.7733697e-01  -7.5731362e-02   1.9414597e-01   2.9895711e-01  -4.9724938e-01   4.3056706e-01  -2.2313214e-02   2.0694183e-01   5.4531398e-01  -3.8891564e-01   5.6755458e-02  -9.4234319e-01   4.9473159e-01   5.4356175e-02   1.9450200e-01   3.3529423e-01  -3.6426448e-01   5.0736610e-01  -5.5864374e-01  -2.3528024e-01  -2.0364728e-01   3.9391695e-01   2.1423521e-01  -4.0059742e-01  -5.1548267e-01   2.5989359e-01  -6.8243114e-01  -3.1993066e-01   7.3630049e-01   1.6095921e-01  -3.5005157e-01   9.1926304e-01   3.2647843e-01  -7.1955707e-01   2.0797648e-01   9.2937943e-01   9.3970480e-01   9.9883061e-01  -2.4287708e-01  -8.8238637e-01   5.2315739e-01   1.9486687e-02  -7.7697780e-01  -1.2703661e-01   6.2711417e-01   9.6172375e-01   4.1412335e-01  -3.1882479e-01   7.4925193e-02  -1.7555418e-01  -7.7676249e-01  -2.8436338e-01   4.7956349e-01  -3.9107875e-01   4.9454049e-01  -5.8285215e-01  -7.1212976e-01   3.8463109e-01  -7.6474769e-01   9.9848934e-01  -7.3687361e-01   8.3051850e-01  -9.9169767e-01   5.7475961e-01   8.7494982e-01   5.8955976e-01   2.1628767e-01  -8.2320607e-01   5.2869159e-01  -2.6380886e-01   1.1352534e-01   2.6159275e-01  -6.4366652e-01   6.8570848e-01   2.7466870e-01   2.8364124e-01   7.7397597e-01   1.2432927e-01   4.6295087e-01   5.3809674e-01   7.7054873e-03   9.4743676e-01   2.5820283e-01  -9.3003898e-01   5.5117657e-02   1.8273158e-01   3.9780374e-01  -6.0831035e-01   1.5939510e-01   5.0361508e-01   3.0078812e-01  -8.9230919e-01   3.3022636e-01  -7.7901809e-01   5.1293008e-01  -6.8591210e-01   7.1980628e-01  -4.0850432e-01  -7.4845144e-01  -7.2336501e-01  -8.7575827e-01  -6.8030003e-01  -6.0415196e-01  -3.5571234e-01   2.9829679e-01   2.3962824e-01  -1.4207516e-01  -9.3401092e-01   7.7161160e-02  -6.3236704e-01  -3.0619276e-01  -2.6302355e-01  -3.7823066e-01   4.3097106e-01  -2.4967952e-01   4.8874341e-01  -9.1102133e-01   1.8692773e-01   9.5261987e-02  -8.2373740e-01   9.2166695e-01   2.6624462e-01   6.7829830e-01   4.8470442e-02  -1.1639302e-01  -6.2050535e-01  -1.3404298e-01   3.0829169e-01   3.3291921e-01  -5.0152206e-01  -8.8084957e-01   9.7513256e-01  -5.3080332e-01  -3.2183982e-01   4.8926574e-01  -8.4755905e-01  -8.5885684e-01   2.7834949e-01  -8.6083116e-01   1.1171007e-01   7.8962738e-03  -3.9037172e-01  -5.3483505e-01  -9.9192060e-01  -2.5317389e-01  -4.2699950e-01   9.0409023e-01  -2.3453008e-02   1.0814526e-01  -1.5759804e-01  -3.7356008e-01   1.6709989e-01   5.6903631e-01   5.2376156e-01  -6.0443347e-01   5.2015891e-01  -2.1621256e-03  -6.5998145e-01   2.4081638e-01   8.6409503e-01  -9.6870219e-01   1.1672051e-01   6.6524375e-01  -5.4834562e-01  -3.6450542e-01  -8.8814059e-01  -4.0562752e-01  -9.6488767e-01   1.1334870e-01   5.5847407e-01   3.0089232e-01  -8.5437463e-01   7.2405217e-01   4.8931586e-01  -1.5257736e-01  -1.0446813e-01   7.1968100e-01  -5.7548330e-01  -4.0619937e-01  -1.6970742e-01  -4.0675208e-01  -3.2395984e-01  -1.7127526e-01  -1.6876528e-01  -8.3662099e-01   3.0438882e-01   3.3415584e-01  -9.3247743e-01   5.0469048e-01   7.6834734e-01   3.7243484e-01   2.8184447e-01  -8.2180950e-01   3.8998333e-01   1.8713264e-01   2.4788267e-01  -3.3146947e-01  -7.3354810e-01  -1.6099809e-01  -3.4113364e-01   7.3018614e-01   4.5045918e-01   1.5806358e-01  -9.7877595e-01  -2.6195560e-01  -1.0531561e-01   2.5386071e-01   2.5070431e-01  -8.3875506e-01  -5.9309707e-01   1.2462274e-01  -7.3748370e-01  -7.3644188e-01   7.6452820e-01  -2.3565299e-01  -3.5988016e-01  -9.0867340e-01  -6.2423754e-01   8.3622285e-01  -7.0276804e-01  -2.1883088e-01   8.3041402e-02  -7.4635538e-01  -8.2053902e-01  -8.0858238e-01   9.5191448e-02   7.0571596e-01  -4.0168838e-01  -2.2967306e-01   3.4672994e-02  -5.5737519e-01  -5.8215697e-01   3.2953987e-01   3.7213848e-01   1.5502172e-01   7.2657947e-01  -3.4903649e-02  -9.9042196e-01  -6.1117900e-01  -2.8678037e-01  -9.4039445e-01  -2.5322908e-01  -6.0698500e-02  -1.7638800e-01   7.7662956e-01   7.5943487e-01  -9.5523751e-01   8.0758787e-01  -5.8126733e-01  -3.7362693e-01   3.8978285e-01   8.3512672e-01  -6.4519822e-01   1.3848447e-01   9.9789972e-01  -7.9592006e-02   8.8668364e-01  -2.5196151e-02  -1.2070414e-01   9.0912790e-01   1.2005899e-02   8.0307552e-01   8.5963226e-01   1.0607581e-01   4.9779667e-01  -6.5746595e-01  -1.0584432e-01   5.2923488e-01   9.2568973e-01   8.4568169e-01  -9.5788154e-01  -9.0468896e-01  -8.2018203e-01   8.5468603e-01   5.4915521e-01   5.5103245e-01   5.6095929e-01  -8.4489128e-01   2.6659196e-01   3.4795783e-02   3.7946267e-01   3.7445378e-01  -4.0501759e-01  -6.2037538e-01  -2.3558897e-01  -5.4837875e-01   6.9966812e-01  -9.7966124e-01   7.4867085e-01   9.9636679e-01   5.5812771e-01  -5.4430540e-02   8.4632332e-01   6.3793234e-01  -7.9130384e-01  -5.3151034e-01  -1.3491190e-01  -4.0886857e-01   6.8925066e-01  -7.3774436e-01   2.8712808e-01  -9.4020222e-01  -3.3500389e-02   2.4774313e-01   5.9249172e-02  -1.9754773e-01  -3.9730542e-01   9.0779722e-01  -2.1507724e-01   1.9669178e-01  -5.3893260e-01  -4.3326528e-01   7.3126407e-01  -4.4114469e-01   1.0069016e-02  -4.9645099e-01  -9.6493138e-01  -7.9891762e-01   7.1097220e-01  -9.6588017e-01  -1.5779482e-01  -9.2559792e-01   1.9131149e-01  -2.0079246e-01   3.4968127e-02  -4.7080808e-01  -6.2044316e-02   8.6586810e-01   3.9842477e-01   2.3039044e-01   5.9974865e-01  -8.4738404e-01  -4.6832827e-01  -5.4424328e-01   3.4920080e-01   8.4081688e-01  -5.3847318e-01   3.4991807e-01   3.0257475e-02  -8.8156151e-01   7.9268239e-01  -1.6065011e-01  -3.1127754e-01   1.3647758e-03  -9.8074894e-01   7.3414087e-01  -4.7066820e-02  -3.7285354e-01  -5.2123740e-01   9.8169716e-01  -3.5439831e-01   9.2478399e-01   2.9841422e-01  -9.4829705e-01   9.3770940e-01  -4.7066131e-01  -1.4774156e-01   3.8789909e-02   2.0942167e-01   9.1167587e-01   9.1015126e-01   2.9622271e-01  -8.2187649e-01   2.5045973e-01  -8.0897637e-01   2.7503342e-01   3.2287906e-01  -6.3759746e-01   4.4401530e-01  -6.1459667e-01  -1.5355011e-01  -2.9056065e-01  -9.6378251e-01   7.2986353e-01  -9.9879120e-01  -8.4067538e-01   2.2063389e-01   8.4303966e-01   4.5278668e-01   4.9596026e-01   3.2133140e-02   5.3946057e-01  -8.4544783e-01  -7.7865747e-01  -5.3359706e-01   2.4931469e-01  -4.2438260e-01   7.4450069e-02   5.7864248e-01  -4.0339350e-01  -1.1207177e-01   8.4757561e-01   6.6758939e-01   9.3213853e-01   9.5830364e-01   7.9943832e-01  -5.0757323e-01   2.9615597e-01  -9.9393123e-01   2.1075339e-01  -6.0918485e-01   6.5058725e-01  -1.8022512e-01  -7.9234525e-01  -2.9703722e-01  -9.7218941e-01   1.1880165e-01   7.5836016e-01  -6.2758607e-01  -6.8853773e-01  -4.4054743e-01  -1.6519948e-01  -5.6289431e-01  -9.6526309e-01   2.6924210e-01  -1.0155596e-01  -1.4383602e-01   2.3002450e-01   2.3104992e-01  -5.2100873e-01  -6.4470897e-02  -2.9629031e-01   7.6389253e-01  -9.0364648e-01   6.2096877e-01   9.9809895e-01  -8.3817338e-01   8.2497446e-01   8.6985250e-01  -9.2568305e-01   9.2458797e-01   5.1557663e-01   5.3889713e-01  -2.9298600e-01  -9.8890005e-01   9.4601765e-01   2.3987341e-01  -2.4292167e-01  -5.6540847e-01   2.0397274e-01   6.4858929e-01   2.8548821e-01  -2.7064794e-01  -3.5385187e-01  -7.6454529e-02   7.4691907e-01   3.6868331e-01  -3.1292933e-01  -2.1056185e-01   7.3825998e-01   3.0428649e-01  -5.4576791e-02  -8.8398644e-01  -8.1383201e-01   8.7146198e-01  -4.0413380e-01  -3.6900726e-01  -1.6558527e-01   6.8972520e-01   3.5575091e-01  -7.3001437e-01  -7.9028711e-01  -5.4793634e-01  -3.7465895e-02  -4.4436843e-01   9.2332635e-02  -2.3352280e-01   4.6389115e-01   6.8316221e-01  -8.7001300e-01   9.0211959e-01   3.4065279e-01   8.9521643e-01   4.9130901e-01   9.8432028e-01  -8.2416832e-01   2.3773015e-01  -2.3142703e-01   4.0716607e-01  -3.0662168e-01   6.7154794e-01  -1.6642130e-01   1.3162597e-01  -5.3877187e-03  -5.8494779e-01   2.4811988e-01  -2.5923415e-01  -6.8909063e-01  -3.5063954e-01   8.9313252e-01  -5.1141260e-01  -9.3256973e-01   7.6631062e-01  -7.7121353e-01  -9.2727897e-01  -8.7669416e-01   3.4948275e-01   1.7476825e-01   8.5763767e-01   8.2122037e-01  -4.2294871e-01   3.1235703e-01  -2.5900874e-01   9.0950834e-01   6.4228496e-02  -2.9252612e-01   2.0661820e-01  -9.3135097e-01  -7.0398121e-02  -5.7458102e-02   9.9700343e-02   9.3977002e-01   4.1679845e-01  -2.1406141e-01   5.9683666e-02  -1.6513820e-01  -5.1948192e-02   3.2275132e-01   7.8147757e-01   9.9566398e-01   6.6566809e-01   5.5423485e-02  -8.4519683e-01  -6.0326936e-01   5.8032499e-01  -1.0152437e-01   1.4255323e-01   9.7117388e-01   4.0241147e-01   9.1152982e-01   7.3040821e-02  -6.8613128e-01  -6.2722118e-02   9.9005087e-01   1.5099729e-01   4.1488729e-01  -3.1955141e-01   7.9384880e-01  -3.4515649e-01   8.5863099e-01   3.9575683e-01  -5.2833146e-01   7.0002988e-01  -3.8901101e-01   2.4640585e-01   4.4140566e-02  -7.4633126e-01  -6.4622989e-01   1.0194907e-01   8.8750607e-01  -6.0759364e-01   5.9678923e-01   7.8179860e-01   6.1316147e-01  -2.5608005e-01   8.5117338e-01  -9.6769576e-01   1.9617289e-01   8.5064149e-01   4.7581904e-01  -3.9365127e-01   7.5470801e-01   1.2704823e-01   8.5266745e-01  -6.3205778e-01  -1.9593867e-01   6.6629321e-01   6.0866240e-01   4.6614228e-01   7.2193407e-01   4.0069857e-01  -2.2747235e-01   9.9620631e-01  -9.3150368e-01   4.5799939e-01  -1.0061180e-01  -3.0900294e-02   8.3041475e-01   1.9232233e-01   4.9547008e-01   6.3091628e-01  -1.3680862e-02  -5.6688298e-01  -8.1089510e-01   4.8921457e-01   6.9260686e-01   5.0880217e-01  -6.3210208e-01  -6.8220142e-01  -9.2646620e-01   1.1924466e-01   9.6457638e-01   8.2259620e-01  -7.0979235e-01  -7.0549405e-01   5.2908846e-01   1.2725989e-01  -6.2649889e-01   8.7654786e-02   6.2949104e-01   2.6184336e-01  -8.1145949e-01   7.2999405e-01   5.7816499e-01   2.3390391e-01   1.5064839e-01  -4.7799313e-01   9.5392858e-01  -5.5773835e-01   7.8770215e-01  -5.9483587e-02   1.6087783e-01   9.8379646e-01  -3.1995772e-01  -7.2753281e-01   9.8339261e-01   8.1941671e-01   8.9054229e-01  -4.1205415e-01   1.5043764e-01   5.3067453e-01   6.0482060e-01   2.4048190e-01  -1.7953838e-02   6.1813427e-02   9.3346715e-01  -2.7099776e-01  -1.7296410e-01  -9.4379134e-02   9.9514073e-01   3.4125939e-01  -3.1859527e-02  -9.7921612e-01  -3.5765266e-01   8.9455824e-01   3.8003432e-01  -2.8884815e-01  -3.4276940e-01  -1.9325642e-01   1.9416283e-01  -7.4240207e-01   4.4319703e-01  -2.2113335e-01   4.1087522e-01  -8.9900468e-01  -5.4947929e-01   2.1431339e-01   9.9286994e-01  -2.1750139e-01   1.0178658e-01  -8.8391598e-01  -7.3654545e-01   5.0087360e-01   7.0344404e-01  -2.6406357e-01   2.2249080e-01  -5.7807540e-02  -5.9229421e-01  -2.8938043e-01   1.0156625e-01  -9.4882029e-01  -9.2647746e-01   9.1504364e-01   5.9173774e-01   8.8185878e-02   8.9127370e-01  -9.4007120e-01  -5.5892030e-01  -8.8894267e-01  -4.3294476e-01  -3.4301145e-01   8.9378580e-01   6.1479111e-01  -5.8554368e-01   3.9024639e-02  -4.5812118e-01   6.9213133e-01  -5.2724577e-01  -3.7331159e-01   4.0314686e-02   3.9999560e-01   7.8836042e-01   7.1507874e-02   1.8475296e-01   9.8484317e-01   2.8022756e-01  -4.6482116e-02   4.7855772e-01  -9.0415867e-01  -6.0595769e-01   2.5749138e-01  -6.5301955e-01   7.3390179e-01   7.8598743e-01  -7.9211743e-01  -3.0454526e-01   8.4985212e-01  -8.1956039e-01  -5.3691606e-01  -3.0559952e-01   4.4036940e-01  -5.2574516e-01  -7.1956261e-01  -1.1400720e-01   7.4768908e-01
   7.2219647e-01   6.0841916e-01   4.1782497e-01  -5.5997412e-01   2.5287917e-02  -9.0204215e-01  -7.9564448e-01  -9.3612050e-01   9.6380296e-01  -9.0693189e-01  -5.7827994e-01   6.8512855e-02  -1.2198844e-01  -6.4003670e-01   2.3899500e-01   2.3255512e-01   2.8068649e-01   9.7159897e-01  -4.7890932e-02  -3.8096566e-01   9.6083676e-02  -7.9245763e-01   8.4968740e-01  -3.6334760e-01  -6.4299115e-02  -5.3724364e-02  -1.8332166e-01  -1.7060346e-02  -9.7268304e-01   3.8465583e-01   4.3530124e-01   4.4492141e-01  -5.1590169e-01  -4.9205775e-01   8.0988728e-01   4.7500982e-01  -3.2576979e-02   9.5529078e-01   1.6239602e-01  -2.0275468e-02  -7.8681518e-01  -9.1672932e-01   4.7784985e-01  -4.7770713e-01   5.6153908e-01   8.5847249e-01   7.1226513e-01  -5.7843084e-01  -8.8253696e-01  -9.6026685e-01  -5.7331618e-01   4.1484647e-01  -1.0781422e-02  -8.3606147e-01  -2.3589191e-01  -6.7826181e-01   9.8724469e-01   6.9669285e-01   7.8923943e-01   7.0626687e-01  -5.0615933e-01   6.2872040e-01  -3.1891203e-01  -8.2760093e-01  -9.4508561e-01  -5.8361923e-01  -2.0503176e-01  -6.1383901e-01  -4.9399332e-01  -1.5942453e-01  -2.8167258e-01  -2.7334634e-02   2.3114080e-01  -2.3322319e-01   7.8569238e-01   5.2438356e-01   9.1289288e-01  -3.9595103e-01  -5.9458994e-01   3.2657324e-01  -3.4829662e-01   7.3922234e-01   7.5253505e-01   7.9647461e-01   1.1651220e-02  -9.7224320e-01  -5.8938773e-01   5.8289033e-01  -3.4145462e-02   6.6442097e-01   5.0589380e-01   8.0853756e-01   8.6532646e-01  -4.1209029e-01  -5.6196343e-01   9.0006156e-01   3.9702011e-02  -3.9521715e-01  -5.4911708e-01  -3.2231356e-01  -9.0958368e-01  -2.2082533e-01   2.9439822e-01  -9.7069954e-01  -9.1567754e-02  -1.9330409e-01  -8.8010900e-01   4.4612445e-01  -1.2367354e-01   9.3334331e-02   3.7952629e-01   6.5623560e-01  -4.9223282e-01   5.2637799e-01   3.0389101e-01   7.2852527e-01  -5.9769262e-01  -1.7812109e-01  -6.0003078e-01  -7.1937858e-02   1.0360535e-02  -9.6056943e-01  -6.8955369e-01   5.3547295e-01  -9.3952086e-01   2.9731758e-01   5.9449148e-01   2.2664325e-01   8.2453727e-02   9.9653447e-01  -9.1575014e-01   8.8459314e-01   4.2163855e-01   2.9838876e-01  -6.4617219e-01  -1.8222090e-01  -3.9409133e-01  -4.3667122e-01   9.4512203e-01   6.1979842e-01   5.1246031e-01   1.4427547e-01   1.6199494e-01   4.7107822e-02   9.8162912e-01   2.5268685e-02   6.3599147e-01  -3.7168256e-01  -2.6204755e-02   8.2388860e-01  -8.2572358e-01   5.7796373e-01  -9.1134884e-01  -8.7107458e-01   5.4441234e-01   9.5269066e-01  -1.0135674e-01   9.6877569e-01   8.5240608e-01   9.7954887e-01   9.1275171e-01  -9.9200327e-01   2.1471378e-01   5.9525379e-01  -2.1867225e-02  -2.8845051e-01   9.2955817e-01  -2.8480798e-01  -1.0764729e-01  -1.2322905e-01   9.7125693e-01  -6.3027021e-01  -7.6125077e-01   8.0415100e-01   2.2454324e-01  -1.2687448e-01   4.2551582e-01   7.7843164e-02  -4.8179587e-01   6.0484244e-01   8.7029311e-01   5.7001786e-01   3.1626193e-01  -6.4563412e-01  -5.4594697e-03  -4.0810450e-01   2.1542577e-01   5.3008545e-02  -4.6614331e-01   7.6311132e-01   8.4005072e-01   9.4119773e-01   7.0585284e-01   4.2691842e-01  -9.1656440e-01   6.4587638e-01  -5.7827291e-01  -7.3207221e-01  -9.2149853e-01  -2.1342585e-01   8.0462888e-01  -5.1997428e-01  -1.9638822e-01  -2.2688173e-01  -1.9990349e-01   3.4761995e-01   2.3468538e-01  -4.7335947e-01  -4.0614415e-01  -3.6523238e-01  -1.1588585e-01   3.8933493e-01   8.6580892e-01  -7.7864222e-01   2.6165333e-01  -6.2231568e-01  -1.1719484e-01   6.7124521e-01   7.7875914e-01   7.9131998e-01   6.1804572e-01   1.7125649e-01   3.1246322e-01  -5.1640436e-01   1.0866315e-01  -9.2616239e-01  -5.2237041e-01   2.7204580e-01   7.2331511e-01   1.4126225e-01  -2.1794947e-01  -9.6075171e-01  -2.3140717e-01   8.1210253e-01   7.0965856e-01   9.2229506e-02  -7.2726904e-01   1.9181932e-01  -1.7724458e-01  -1.1591375e-01  -8.7530300e-01  -7.9985530e-01  -2.3068189e-01  -6.6332847e-01   7.2323153e-01  -9.4343355e-01   2.3295507e-01   1.1883407e-01   8.6337936e-01  -6.6586418e-01  -7.0642629e-01   1.7719448e-01   2.8528021e-01  -9.7830417e-01   6.6359018e-01  -4.7101337e-01  -9.4346397e-01  -8.6512788e-01   2.4553575e-01   2.5163775e-01  -4.2927160e-01  -8.4490010e-01   7.4068033e-02   6.4356811e-01   4.5359535e-01  -5.9335560e-01  -2.2331443e-01   9.4609455e-01  -4.8802155e-02   2.2687113e-02  -7.1731854e-01   2.8636011e-01   6.5233035e-01  -4.2221434e-01  -3.9869830e-01  -5.5411644e-01   2.8664604e-01  -4.0640411e-02   9.0457919e-01   3.3639758e-01  -4.5783588e-02   9.2158528e-01  -2.9982347e-03  -6.2324125e-01  -9.7117979e-01  -6.9701390e-01  -1.3236056e-01   5.3968772e-01   2.9929564e-01  -7.4567792e-01  -6.9627575e-01  -1.6716098e-01   1.7978713e-01  -6.6846171e-01  -1.3893389e-01  -8.2029882e-01  -3.9401021e-01  -7.7241487e-01   1.9809174e-01  -9.6838783e-02  -2.5102712e-01   4.5542579e-01   2.3534471e-01  -5.0004140e-01   9.2492785e-01   4.1572398e-01  -1.7391417e-01   2.6348403e-01  -3.4760865e-01  -5.7664396e-01   4.8797277e-01  -3.5656961e-01  -3.9072269e-01   2.9390632e-01   4.1754837e-01  -4.5110515e-03   4.4578623e-01   4.7990830e-02   2.8103342e-01   9.2441872e-01   5.0434352e-01   1.7199405e-02   3.7277386e-01  -3.3386492e-01  -3.0035969e-01   1.9260381e-01  -6.5742884e-02  -6.5165411e-01   9.4734914e-01   1.3529157e-01  -7.7118523e-01   2.1305768e-01   6.0748670e-01  -4.2910647e-01   9.0255170e-01   8.6988623e-03   6.8480331e-01   3.1122956e-01  -9.2113450e-01  -2.4507216e-01  -5.0396258e-01  -3.7583154e-02   1.3138605e-01   9.3714560e-01  -3.9367618e-01   4.0525938e-01   8.3360597e-01   2.2065630e-02   9.6522066e-01  -7.5585775e-01   6.6280983e-01   2.3028941e-01  -7.2601593e-01   5.8481454e-01  -8.1597284e-01  -1.9878932e-01  -8.6885550e-01   9.8460781e-01   2.6755466e-01   4.9899546e-01  -1.8235167e-01   1.5207493e-01   1.3515956e-01  -4.3793199e-01  -8.9107718e-01  -6.7028687e-01  -4.0589173e-02   4.2664061e-01   8.0415064e-01  -6.3296834e-01   9.9861924e-01   1.0275061e-01  -5.2895897e-01  -9.4841117e-02   7.6830120e-01   6.3407755e-01   7.4460907e-01   6.0109182e-01   1.0004877e-01   4.4676986e-01  -8.2460638e-01  -6.3073753e-01   5.0102143e-01  -2.6507138e-01   2.0790331e-02   3.4675353e-01   2.2180561e-01  -4.2939874e-01   1.1185276e-01  -8.6321297e-01  -1.7964520e-01  -1.5964485e-01   8.3591917e-01   5.7954737e-01   2.4448046e-03   3.1544968e-01   9.1491584e-01   3.7222793e-02  -8.8116959e-01  -9.2220452e-01  -5.0765575e-01   5.3424526e-01  -9.9423872e-01  -6.1381809e-02  -1.5824439e-01  -4.8771029e-01   6.7417265e-01  -4.6492861e-01   9.2188542e-01   7.4819270e-01   3.1512838e-01   8.4704593e-01  -9.1741545e-02  -8.8459540e-01   2.1618347e-01  -6.2081314e-01  -2.2452966e-01   3.5603246e-01   9.0739056e-01   5.1390644e-01  -1.3863131e-01   6.9587935e-01   3.5063895e-01  -2.9780717e-01   3.3872942e-01  -9.4699134e-01  -3.2576413e-01   8.2298364e-01  -9.7295116e-01  -2.4822891e-01  -3.1033847e-01   1.2010650e-01  -6.6260074e-01  -5.9034551e-01  -7.5000175e-01  -2.3078767e-02  -6.4970459e-01   3.0764697e-01  -1.0809593e-01  -9.9266465e-01   2.4049281e-01  -3.7857505e-02  -1.0773156e-01   3.7855742e-01  -2.5409280e-01  -4.5502013e-01  -4.1513365e-01  -8.3656461e-01  -5.5772225e-01  -8.9973623e-01   1.7410730e-02  -9.7258944e-01   9.0950243e-01  -8.1607780e-01   5.4262283e-01   2.1894895e-01  -7.3882596e-01   6.7601974e-01   5.6244661e-01  -2.8688583e-01  -3.3376048e-01   5.5002069e-01  -1.9136087e-02  -8.3982819e-01  -5.2677384e-01  -7.4715928e-01   9.6107435e-01  -4.5871398e-01   2.4742084e-01   5.0728994e-01   8.0544703e-01   4.3000085e-03   3.0512057e-01   4.8282755e-01   2.9596139e-02  -8.5553267e-01  -3.3654671e-01   4.4599043e-01   8.0816395e-01   7.9406142e-01   9.1531739e-01   3.1523925e-02  -6.2620943e-01   9.4365374e-01  -5.6158846e-01  -8.0685937e-01  -9.8906375e-01  -9.9539347e-01  -1.0264252e-01  -2.4439575e-01   9.8837698e-01  -5.7075962e-01   2.8763747e-01  -1.0674961e-01  -5.6483170e-01  -4.6732496e-01   2.9498241e-01   8.1405938e-01  -5.5534408e-01  -7.9051696e-01   7.8140489e-01   2.0187017e-01   5.8517147e-01  -8.5132049e-01  -5.3980776e-01  -3.3034684e-01   4.1118867e-01   3.7842356e-01  -4.7362407e-01   2.8896456e-03   5.6656273e-01  -7.6517284e-01   9.4344158e-02   2.2506111e-01  -6.8387250e-01   6.9496231e-01   6.5299059e-01  -4.2725221e-01  -2.7883654e-01   7.3894427e-01   9.9160596e-01   4.0848947e-01   1.0063464e-01  -3.4405638e-01  -4.4678591e-01  -1.7611506e-01   4.1370913e-01   7.8034251e-01  -4.0935115e-01  -2.7839044e-01  -4.3301856e-02   3.7098639e-01  -5.8892161e-02  -6.6064936e-01  -5.8479779e-01   5.2270656e-01  -9.0799605e-01   9.4327519e-01   7.4267840e-03   2.8622622e-01  -8.9868119e-01  -8.8046927e-01  -1.3567294e-01  -6.3786580e-01   9.0201998e-01   2.9496810e-01  -4.4115299e-01  -8.3880443e-01   9.0392856e-01  -3.8188902e-01  -8.8410064e-01  -1.0010202e-01  -1.0194874e-01  -5.3480891e-01  -9.6757626e-01   5.6144413e-01   7.6862110e-03  -5.3872386e-01   6.8675805e-01   3.3803476e-01   9.9883550e-01   5.4863680e-01   9.1743087e-01   1.4077904e-01  -8.1821434e-01  -9.9243682e-01   3.6378136e-01   2.8803026e-01   8.3643923e-01   1.6074160e-01   6.8367791e-01  -7.1479592e-01  -2.7211287e-01  -4.8715299e-01   5.2470137e-01  -2.8269317e-01  -3.3828649e-01  -4.4303034e-01   5.6349491e-01  -6.6188511e-01   4.8212325e-01   8.6382398e-01  -7.9167698e-01   2.2467415e-01   3.2717951e-02   1.3545277e-01  -2.2778616e-01  -2.6146033e-01  -4.1977534e-03  -7.0933568e-01  -5.0167294e-01  -5.6900587e-01  -1.6402318e-01   9.6356654e-02   9.2031597e-01   6.4703719e-01  -7.8124284e-01  -6.4124631e-01   1.2549099e-01  -4.3083524e-01  -7.0746322e-01  -5.5008203e-01   2.3304558e-02   8.0455862e-01   2.8015711e-02   6.0642412e-01  -8.0008972e-01   5.8484031e-01  -2.5180425e-01  -4.7717140e-01   6.2865255e-01  -5.9198626e-01  -6.5744769e-01  -9.6846282e-01  -6.0228208e-01   9.7279484e-01   9.7380663e-01   7.7302010e-01  -4.6890762e-01   6.6747841e-01  -7.6696436e-01   6.3792562e-01  -4.3244177e-02  -6.4524919e-01  -4.7981222e-01   6.9060064e-01  -4.7531859e-01   4.1896635e-01  -9.6418068e-02  -2.3085370e-01   6.2438542e-01   9.8453865e-01   4.8964207e-01   3.8234148e-01  -8.3203872e-01   9.6158822e-02   8.4058286e-01  -7.2527675e-01  -5.0328406e-01   4.3435784e-01   4.3607090e-01   1.3174794e-01  -1.2988573e-01   1.0140078e-01  -6.3731739e-01   3.6272760e-01  -8.8540152e-01   8.6474002e-01  -5.1084817e-01  -9.0315268e-01  -5.2886509e-01   3.8145828e-01  -4.1811271e-01  -6.0236791e-01   8.0109286e-01  -9.1973105e-01   8.3423726e-01  -9.1525298e-01  -5.4216380e-01   2.6457304e-01   2.4707400e-01   9.2528260e-01   2.5163708e-01   2.2585424e-01  -9.3814717e-01  -1.6912707e-01  -6.0008873e-01  -8.0782500e-01  -4.0883066e-01   1.3094565e-01   4.5155763e-01  -6.2190593e-01  -2.5040254e-01   6.4575186e-01   7.4049672e-01  -4.7864227e-01   6.8259771e-01   1.4880663e-01   6.5729249e-01   8.7754416e-01  -4.8874335e-01   1.3785721e-01   6.5943168e-01   5.8112445e-02  -5.3619957e-01  -3.2304779e-01  -2.0893437e-01   4.1157393e-01   6.6853487e-01   6.6530738e-01   3.2350351e-01   6.3433346e-01  -6.6121667e-01   3.0337855e-01  -9.5602490e-01   7.8534925e-01   9.1581113e-01  -1.1745354e-01  -4.6224226e-01  -4.8560922e-01   3.3281085e-01   1.6085226e-01   9.1584404e-01  -5.8845786e-01   1.9032721e-01   1.0427048e-01  -8.5756822e-01   5.2302468e-01   7.7754089e-01   1.7331010e-01   4.2780785e-01  -8.0940924e-01  -7.9846955e-01  -4.7275736e-01  -1.4162927e-01  -5.8796610e-01   9.7860124e-01  -6.2652229e-03   1.3230932e-01   7.9899977e-01  -2.5122376e-01  -6.8210796e-01   1.3332379e-01  -4.5244994e-01  -3.4981310e-01  -5.2525499e-01  -3.4397517e-01   7.3111325e-01   1.1404547e-01   9.3579413e-01  -5.1822092e-01  -7.2679121e-01   5.0497340e-01   2.1001158e-01  -5.7061253e-01  -1.0627419e-01  -4.5113546e-01   7.9429018e-01  -6.9240175e-01  -4.5451527e-01   4.4901343e-01  -9.8683952e-01  -1.2113618e-02   4.1526946e-01   7.3744366e-01  -9.3584865e-01   9.2826867e-01  -5.0853090e-02  -8.7145380e-01  -3.8999619e-01  -2.8188185e-01   2.8068550e-01   5.2976722e-01   3.9906885e-01  -7.4043332e-01   1.3880788e-01   5.8642129e-01   9.8476785e-01   1.5076607e-01  -3.0923854e-01  -8.4177918e-01  -6.7990992e-01   7.1798567e-01  -9.9508033e-01  -1.4258110e-01   6.6187766e-02   7.9388320e-01   8.9462667e-01   6.0670753e-01   7.8147762e-01   5.1886375e-01   7.6436757e-01  -6.0510469e-03  -8.6515102e-01  -9.8880636e-01  -7.4508541e-01  -2.6609270e-02  -2.7380652e-01   1.2141544e-01  -5.6344706e-01   3.3966351e-01   2.9643419e-01  -9.3277071e-01   2.7420077e-01   1.1299710e-02  -7.2180692e-01   8.4947720e-02   8.6341510e-02  -1.2414641e-01   9.0002727e-01   7.5806286e-01   1.8381214e-01   8.5700505e-01  -1.3272878e-01   8.6716983e-01  -3.2061880e-01   1.1952528e-01   6.1760943e-01   1.2838970e-02  -5.3952279e-02  -7.5787345e-01  -5.9500038e-01   9.8562009e-01  -9.4823376e-01   6.0181380e-01   3.9682990e-01  -5.0074875e-02   3.5920989e-01   9.9594924e-01  -1.9516501e-01   9.6962004e-01   6.2944005e-01   7.6135126e-01   8.2631353e-01  -6.3861479e-01   8.9332291e-01  -8.8209294e-01  -2.4357285e-01  -7.9284353e-01  -9.8612691e-01  -3.0713715e-01  -7.1728849e-01  -7.9840545e-01   9.2202621e-02  -1.4439119e-01  -5.7327500e-01   4.8111536e-02  -2.3249845e-01  -9.6618913e-01   5.8726909e-01   8.1660795e-01  -5.7180135e-01   6.4517369e-01   2.9113850e-01   8.4437910e-01   2.9658266e-01   4.8521319e-01   4.0475787e-01  -4.1583257e-01   1.9871886e-01   3.1250368e-01   4.9160228e-01  -8.8101080e-01  -6.0407662e-01   1.4338252e-01   6.3927260e-01   6.4260896e-01  -7.3650114e-02   8.2189221e-01  -7.9099037e-01   2.2541927e-01  -4.6981961e-01  -3.1481783e-01  -8.5657817e-01  -4.3568697e-01   9.1144857e-01  -1.3358980e-01  -3.4802409e-02   7.6668294e-01  -4.8766106e-01   6.3283490e-01  -3.1048648e-01   7.4327393e-01  -3.7312621e-01  -7.3972439e-01   6.5361788e-01  -5.6301935e-02  -7.3088736e-01  -6.0094532e-01   5.5121104e-01  -9.9419534e-01   9.3592999e-02  -3.3406244e-01  -4.0739554e-01  -4.6562637e-02  -5.9957593e-01  -7.4102343e-02   2.8716996e-01  -8.3064464e-01   7.5777946e-01  -7.3915127e-01  -5.1144799e-01  -5.4020901e-01  -3.1578160e-01   4.5041091e-01  -7.5721103e-01   3.1089799e-01   6.2220447e-01  -1.5210947e-01   7.9761070e-01   8.7829112e-01  -8.5059967e-01  -2.3112189e-01  -4.2767534e-01   3.2206387e-01  -1.6440604e-01  -9.7855047e-01  -8.2953173e-01   2.0533698e-01  -9.9979768e-01  -8.7475645e-01  -5.8638956e-01   3.8151233e-01   9.7964192e-01   3.2710920e-01  -1.8479413e-04  -8.9123121e-01   6.7983772e-01   4.4233006e-01   7.7426172e-01   2.4480842e-01  -6.4569763e-01  -6.6376450e-01   3.3306360e-01  -7.1799015e-01  -9.5896896e-01   1.6899612e-01  -8.7835038e-01  -5.4970092e-01  -7.9338922e-01   8.8482835e-01  -2.4207955e-01  -5.9362039e-01   1.4554609e-01   4.2102282e-01   9.2105560e-01   8.6333994e-01  -1.4930718e-01  -8.2658589e-01   8.8970390e-01  -3.8411178e-01  -2.7646256e-01   1.1785173e-01  -8.7399556e-01  -9.9581746e-01  -4.0116419e-01   5.3927094e-01   9.4117944e-01  -7.4306464e-01  -6.1010868e-01  -7.0641209e-01  -7.2387744e-01  -3.1611729e-01  -8.4704437e-01  -7.3591478e-01   8.8648855e-01  -6.6970232e-03   7.2335465e-01   3.0366930e-01   6.0877327e-01   3.5527079e-01   9.8777786e-01   3.6652467e-01   8.8818333e-01   6.0247802e-01  -6.5972182e-01   4.2971796e-01   2.5785593e-02   5.8713203e-01  -7.2402144e-02   6.1977266e-01  -2.5529004e-01  -6.1135602e-01  -3.3593654e-01  -4.4056304e-01  -7.4222660e-01  -5.9619632e-01  -1.1357511e-01  -8.9174764e-01  -4.2937383e-01  -2.7031929e-01   6.6081806e-01   2.4489395e-01   6.0886022e-01   4.0154537e-01  -8.5794831e-01   4.4266753e-03   5.7579507e-01  -3.3915817e-01   1.6505962e-01  -4.9560122e-01   8.9743606e-01  -2.5687924e-01   5.7787044e-01  -1.4044287e-01  -4.2732797e-01   1.3025158e-01   3.2073311e-01   7.6568734e-01  -8.5608721e-01   9.4062013e-01  -3.0779009e-01   2.3623382e-02  -1.8742642e-01   4.1201080e-01   4.3792224e-01  -4.0991644e-01   5.1970786e-01   4.8574573e-01  -9.7842936e-01
   2.1870341e-01  -8.0853133e-01  -5.4564280e-01  -3.5610373e-01   6.6629973e-01   6.4404951e-01  -2.3611312e-01   4.1599571e-01  -7.0586466e-01  -4.1885968e-01  -9.6055043e-01  -8.7946442e-01   4.7839723e-01  -6.0903533e-01   4.5926440e-01  -4.8436885e-01   9.3803896e-01  -7.4776750e-01   7.2684255e-01  -3.1600131e-01  -7.4034343e-01   2.2090660e-01   9.7909031e-01  -7.4831271e-01  -4.7168329e-01  -9.3294451e-01  -6.7814694e-01   1.5830574e-02   5.2607505e-01  -1.4594645e-01  -6.0148260e-01  -1.6540533e-01  -5.5358744e-01  -9.1715981e-01   1.9222942e-01   2.0081232e-01  -4.8543474e-01   4.4375056e-02  -5.2495432e-01  -3.4709910e-01   7.4113488e-01  -1.1564596e-01   2.3340558e-01  -5.3437833e-01  -6.9596806e-02  -9.6278519e-01   2.7423046e-01  -5.1945662e-01   2.2768042e-01  -2.3595170e-01   2.5025452e-02  -8.0745705e-01   7.2776730e-01  -4.5338776e-01   4.1709503e-01  -4.8353238e-01  -1.1794662e-01  -7.2718977e-01  -9.0250987e-01  -4.6474767e-01   9.2092585e-01   1.6804857e-01  -1.9972353e-01  -4.0166395e-02  -3.2226399e-01  -9.9592318e-01  -8.3278324e-01  -8.1242913e-01   1.5986982e-01   9.5849317e-02  -5.9049857e-01  -7.2106955e-01  -9.3057076e-01   8.1537610e-01   1.0967790e-01   2.0345779e-01  -7.1128225e-01   3.4645430e-01   8.9609038e-01  -1.3664086e-01   4.5740939e-01   6.5158746e-01  -4.1639303e-01  -9.5442488e-01  -8.4845663e-01  -3.8349750e-01   2.4353487e-01   2.0859762e-01   8.4995314e-01   2.7444383e-01  -1.8898708e-01  -2.3452359e-01  -7.5748894e-01  -2.1009999e-01   3.7399900e-01  -3.8740756e-01  -7.4963455e-01   6.1832235e-01   5.8016514e-01   7.2888093e-01   3.7830721e-01   5.5219944e-01   5.6509276e-02   8.5797027e-01   4.7731107e-01   4.0660333e-01   1.4439479e-01  -5.6399604e-01   5.5914656e-01   7.4909563e-01  -6.6664221e-01   9.5223505e-02  -9.2373532e-01  -6.7150168e-01  -7.6620300e-01   2.9764086e-01  -9.3904943e-01   1.8050457e-01   1.3712771e-02  -1.5859562e-01  -1.7838887e-01   8.8612149e-01   8.6307068e-01   5.2643719e-01  -4.3852232e-01   5.8689788e-01   6.7188682e-01  -2.6542182e-01   8.6139160e-01   2.6963994e-02   8.7917092e-01  -7.1109069e-02  -1.9375529e-01   1.4108466e-01  -1.5697977e-01   5.5091050e-01  -8.6066945e-01  -8.9130160e-01   4.2364553e-01   7.9169549e-01  -6.7838036e-01  -9.4843597e-01  -8.6806804e-01   6.1932169e-01  -7.8134605e-01  -7.7038807e-01   9.2199422e-01   5.2881603e-01  -1.7491263e-01   2.8094611e-01  -2.2690301e-01   4.2937120e-01  -1.3961059e-01  -2.5483985e-01   4.4144995e-01   3.4333800e-01  -7.0648699e-01   7.5946408e-02  -2.1045426e-01   3.0951130e-01  -1.2117321e-01  -4.8250291e-01  -3.3749318e-01  -6.4129603e-01   4.2538924e-01  -6.3830766e-01   9.9992804e-01   7.7557802e-01   3.0053960e-01   5.9302601e-01  -4.1790177e-01   5.1767978e-01  -9.8733123e-01  -2.0089730e-01  -1.3571599e-01  -3.3835973e-01   1.3476914e-01   9.2628970e-01  -8.2022585e-01  -2.4491467e-01   5.2675366e-01   6.5445336e-01  -4.0205762e-01  -1.0655709e-02   4.5424715e-01  -9.0399416e-01   3.7250933e-02   6.6555868e-02  -6.3064968e-01  -6.1714464e-01   8.6620288e-01  -5.8813910e-01  -9.1909223e-01   6.5529848e-01   9.1558671e-01   8.9243350e-01   1.4625910e-01  -6.9459436e-01   1.8426915e-02   6.7632621e-02  -6.8200583e-01   8.0785065e-01  -3.3448657e-02  -2.5957622e-01   4.8944335e-02  -9.6794920e-02  -2.1891855e-01  -7.0706701e-01   3.5236511e-01   7.6376619e-01   1.1964673e-01  -9.7425634e-01  -5.4070885e-01   7.2527898e-01  -8.6759561e-03  -2.6772929e-01   7.1611776e-01  -7.6056677e-01  -1.7081040e-01   4.0629916e-01  -3.5791947e-01   1.4622009e-01   5.5201228e-01  -4.7522898e-01   8.0642655e-01  -6.1275548e-01  -3.8939107e-01  -9.1318904e-01   5.1787726e-01  -8.8395599e-01   6.9558647e-01   7.9935856e-01  -6.3243251e-01  -3.0141371e-01   2.9636088e-01   5.4006950e-01   4.7401276e-01  -1.3629299e-02   9.9840714e-01   6.6240359e-01   9.2744330e-01   5.8407577e-02  -2.0125388e-01  -7.8567993e-01   2.2485847e-01   5.3185084e-01   5.4395546e-01  -4.2566819e-01   1.5352884e-01   3.2773610e-01   3.3925573e-01   1.1188208e-01   8.3341993e-01   5.9262355e-01   6.3705592e-01  -5.2786469e-01  -3.5187300e-01  -5.9131029e-01   8.5123299e-01   7.7696212e-01  -2.0581877e-01  -3.8323861e-01  -3.5861429e-01   3.0128558e-02  -3.2562979e-01   4.8645134e-01   7.0274610e-01   6.9342742e-02  -6.1847189e-01   5.6322565e-02   6.1828785e-01   6.3392502e-02   9.0350472e-01   1.5948907e-01   7.8846046e-01  -3.5400921e-01   8.7816121e-01  -1.1774106e-01   9.8998071e-02  -8.6467320e-01   1.5000678e-01   2.9525063e-01  -7.9795831e-01   5.0227256e-02   8.9917782e-02   2.4893631e-01   1.1035206e-01  -9.1378921e-01  -1.9080780e-01  -9.3792841e-01  -3.8625890e-02   8.2986940e-01   4.6239669e-01   9.2898780e-01   3.8967560e-01  -3.6632406e-01  -5.9131492e-01   5.9240775e-01  -4.5841333e-01  -6.5864456e-01  -5.0305329e-01  -1.1414237e-01   6.2396566e-01  -6.0367758e-01  -3.4734173e-02  -7.9955164e-01   7.9131822e-01   7.3245426e-01   9.2056356e-01  -5.0939931e-01  -7.4877896e-01   5.4518040e-01  -3.0922396e-01   2.6762872e-01   6.5553927e-01   1.8398348e-02   7.7096795e-01  -8.0602211e-01   2.8953097e-01  -5.9161335e-01   2.6738462e-01  -1.0808138e-01   6.1792663e-01  -7.4229527e-01  -4.9306144e-01   4.2250036e-01  -2.0895260e-01  -1.3379463e-01   2.6499720e-01  -9.4689030e-01   8.9850007e-01  -4.2371418e-01  -9.3571191e-01  -2.5504950e-01   5.2089915e-01   9.3118823e-01   7.9578226e-01   5.7292578e-02   7.2556865e-01   8.9327627e-01   7.4373069e-01  -7.5882380e-01   8.7577305e-01  -6.9534433e-01   2.1662328e-01   6.0217895e-01  -9.0325546e-01   7.0568989e-01   7.6574172e-02   1.7847535e-01   2.7586083e-01   9.8248078e-01  -7.6899141e-01   1.6398552e-01   5.1826832e-01  -8.1273965e-01  -8.8596447e-01   3.7274154e-01  -4.3861493e-01   2.9923278e-01   3.2005665e-02  -4.0974379e-01  -6.8026820e-01  -4.3446249e-01  -8.5808190e-01   6.6191137e-01   9.0080161e-01   3.7847547e-01   5.4462328e-01  -4.3982415e-01   9.1628288e-01  -2.8808262e-01   8.6756502e-01   6.7243197e-01   6.0488839e-01   2.0180331e-01   8.3493627e-01  -8.3835723e-01   5.5870354e-01   8.3413907e-01  -4.0676990e-02   3.4354917e-02   1.9805884e-01   9.0100652e-01   5.3020109e-01   1.3438659e-01   2.7864398e-01   4.3757598e-01   5.7858167e-01   4.2139988e-01  -3.8972693e-01  -7.5014722e-01   9.1783856e-01   5.3069036e-01  -9.7362747e-01  -9.4289653e-01   6.8134541e-01  -5.5774875e-01   6.6829406e-01   4.2099703e-01   9.6628347e-01   8.1002167e-01   8.8358354e-01  -2.6896171e-01  -5.5636980e-01   9.5418408e-01   2.0810064e-02   7.5259768e-01   7.2441809e-01   1.1079256e-02  -1.9060589e-01   2.5699178e-01  -6.1542010e-01   8.7944842e-01   9.2729537e-02   1.5456907e-03  -6.5710881e-01   8.6808357e-02  -1.1789140e-01  -8.8464158e-01  -6.2370522e-03   5.5258277e-02   1.9815948e-01  -9.3419491e-01  -1.9859849e-01  -5.8871416e-01   5.1770700e-01  -6.3827904e-01   4.7128900e-01  -7.5187139e-02  -3.0034426e-01  -7.2429850e-01   4.3984883e-01   4.9952034e-01   3.8317960e-03   3.0542170e-03   6.3009509e-01  -6.6173418e-02   1.2270514e-01  -7.5859161e-01  -6.3213495e-01   1.2098635e-01   1.7149218e-01   7.8947500e-01   5.8706593e-01   6.7057457e-01  -7.7048774e-01  -1.4802550e-01   3.4403885e-01  -3.6952292e-01  -2.7284238e-01  -4.6912412e-01   5.7577423e-01  -4.9557618e-01   6.8137088e-01  -6.5936376e-01  -5.7770448e-01   8.4061605e-02   2.6961136e-01  -6.5894333e-01   4.5170851e-01   1.4739695e-01   2.0295474e-01   9.7305745e-01   5.9483549e-01  -5.2642752e-01   6.0424919e-01   6.6606545e-01   8.4904574e-01   9.1834292e-01  -1.6224880e-01  -9.5741730e-01   3.1531449e-01   7.3544909e-01   3.9368947e-02  -2.6829297e-01  -9.4680944e-01   8.7476345e-01   5.5970136e-01   3.9293812e-01   3.4391849e-01  -6.2030093e-01   5.3171951e-01   6.2519900e-01  -3.0311156e-01   7.5894719e-03  -4.4802847e-02   6.6769519e-01  -9.4503693e-01   4.4950116e-01   6.3973874e-01  -2.2413815e-01  -4.0285771e-01  -9.0011634e-02  -9.8802750e-01  -5.7617867e-01   4.0727623e-01   1.6051472e-01   5.7368678e-01  -7.7026758e-01   7.9730712e-01   5.4159765e-01  -6.0904231e-01   5.6112462e-01  -7.7276339e-01   9.1529548e-01   1.8536719e-02   4.6178608e-01  -1.1536412e-01   1.9700082e-01  -5.2173786e-01   7.9904424e-01   8.3504898e-01  -7.9391096e-01  -1.7723859e-01  -7.5361606e-01  -8.4740035e-01  -9.1356826e-01  -1.4161616e-01   4.6365634e-01   1.6873883e-01  -1.2959540e-01   4.7975824e-02  -8.8559773e-01   4.4842875e-01   1.3221500e-01   5.6000850e-01  -9.3712943e-02   2.6955086e-01  -7.8311748e-01  -3.9750508e-01  -1.9631732e-01  -1.9842449e-01   5.8887877e-01  -9.7947305e-01  -2.5198767e-02  -2.7783998e-01   3.9410290e-01   6.6021966e-01  -7.0299526e-01  -6.7287373e-01  -2.0257024e-01  -5.2473467e-01  -7.3674217e-01   8.2894539e-02  -9.1536128e-01   2.9851485e-01   7.1129939e-01  -5.0977073e-01   8.4329035e-01   4.8243684e-01  -1.5809767e-01   7.4526792e-01   9.2156614e-01  -5.3535523e-01   9.3377697e-01  -7.7534521e-01   7.5849310e-01  -8.8714012e-01  -3.8998782e-01  -8.5140966e-01   9.3070293e-01   8.0040825e-01   7.9429108e-01  -5.0969938e-01   9.0828552e-01  -4.6049303e-01   8.1798447e-01   4.8460461e-01   3.2531093e-01   8.6646714e-01  -1.7324056e-01  -3.3870842e-01   4.8054538e-01  -8.6829576e-01  -1.7204518e-01   1.3241087e-01  -6.7932391e-01   3.0556049e-01  -2.7764189e-01   7.6729247e-01  -1.3097775e-01   1.0987793e-01   9.4750335e-01   9.9339978e-01   2.1480789e-01   6.6983471e-01   8.8529847e-01  -3.2898601e-01   3.3453196e-02   1.2646682e-02  -2.2955469e-01  -7.2971203e-01  -4.2360954e-01   4.0761305e-01   2.3847811e-01  -5.4327934e-01   2.9692817e-01  -6.0327766e-01  -7.2123985e-01  -3.6185083e-02   9.0729694e-01  -4.3784236e-01  -7.5337885e-01   2.3480499e-01  -4.0493138e-02  -2.7548603e-01  -9.5572845e-01   8.3563291e-01  -7.8996103e-01  -6.6237222e-01  -8.0245152e-01   3.0433868e-01   6.1283683e-02   8.4446185e-01  -7.7680563e-01  -5.0290094e-01   1.7424227e-01  -6.0880457e-02   7.2394876e-01  -5.7960920e-02   7.1144804e-01  -5.1140752e-01   2.1938423e-01   8.2588067e-01   4.6373612e-01  -1.3639790e-01  -4.9887776e-01   4.8003012e-01  -3.5700748e-01  -1.3725966e-01  -8.8819895e-01   4.6632079e-01  -5.9469569e-01   7.5889215e-01  -6.7348944e-01  -8.7154517e-01   5.6907784e-01   1.0434827e-01  -4.8152382e-01  -2.1100552e-01   1.2617962e-01   3.3565994e-01  -3.7499478e-01   3.5458203e-02   7.2192566e-01  -9.9148797e-01   5.7186955e-01  -8.7735563e-01   9.0677284e-01   6.6520849e-01  -6.2633727e-01   6.6556652e-01  -4.2423518e-01   9.2796505e-01   4.9254302e-01   5.0315101e-01  -3.9380827e-01  -8.1327810e-01   8.5801967e-01  -7.0009055e-01   1.7255795e-01  -7.3439651e-01   4.4170355e-01  -9.8083633e-01   9.7526349e-03   7.3845486e-01  -4.5841111e-01  -4.1778780e-01  -8.2422721e-01   6.5989533e-01   2.4862038e-01  -5.3326307e-01  -5.4311536e-01   1.6470634e-01   7.6729363e-01   9.5902976e-01   7.5080473e-01   6.2540946e-01   8.0646386e-01   9.6942994e-02   7.7022991e-01   5.4880836e-01  -2.6846853e-01  -9.3332944e-01   1.0231906e-01   1.2820137e-01  -4.0103362e-02   2.2377125e-01   8.0470316e-01  -1.7309744e-01  -5.0534475e-01  -6.6758858e-01   4.2446071e-01  -2.1279290e-01   4.4366567e-02  -8.6016394e-02  -3.0963437e-01  -9.0191215e-01   6.4796034e-01  -6.5312371e-02   5.4905751e-01  -4.8234470e-01   3.9992694e-01   2.9852937e-02   3.4656918e-01   4.2977110e-01  -8.3578669e-02  -4.2241723e-01   3.6333308e-02  -6.0028426e-01  -7.9168588e-03  -1.4517226e-01   1.8031182e-01   1.2468318e-01  -5.9277476e-01  -1.0309577e-01   8.5022725e-01   8.4037376e-01   6.9009135e-01   9.0819994e-01   1.4205502e-01   1.8862962e-01   2.9808310e-01  -6.1345151e-01   2.8152838e-01  -7.1079848e-02   3.3722905e-01  -2.7017211e-01   4.8122065e-01   1.6586052e-01  -4.0108326e-01   2.6260391e-02   7.0636174e-01   1.9575955e-01  -9.2109486e-01  -8.8232204e-01  -5.9341715e-01  -7.1901431e-01  -7.4901888e-01   8.7923267e-01   3.8937559e-01   2.2799496e-01  -4.9242593e-01   2.9763867e-01   9.3008449e-01  -1.5579854e-01  -5.9813314e-01   3.1153387e-02  -8.8434631e-01  -3.2669954e-01  -3.8196763e-01   1.1520832e-01   6.3339394e-01   2.5437376e-01   8.5171570e-02   7.5172278e-01  -7.6579328e-01  -4.7503970e-01   9.5992643e-01   4.1213505e-01   4.7914432e-01  -7.8189249e-01  -7.8141157e-01  -5.0110251e-01   6.0510408e-01  -8.8212155e-01  -7.4764101e-01  -6.1734569e-01   5.6054751e-01   3.1260955e-01  -1.1572679e-01   9.6434362e-02  -7.1127516e-01   3.8683034e-02  -1.9905024e-01   6.1431728e-03  -8.7622146e-01   7.9007410e-01   5.6589041e-01   7.9936596e-01  -9.2320573e-01   5.0836363e-01  -2.7593364e-01  -8.4553228e-01   1.2082360e-01  -5.0436121e-01  -9.9160427e-01   6.1735832e-01   5.9549420e-02   4.8549863e-01  -6.0189838e-01  -7.0940768e-01   9.4140704e-01  -1.0844787e-01  -1.5530536e-01  -8.6532520e-01   9.5832880e-01   2.1796920e-01   9.3595950e-01   9.4102147e-01   5.8532972e-01  -3.9968253e-01   2.1717064e-02  -1.4677240e-01  -5.4106313e-01  -9.1670698e-01   6.2962717e-01  -7.8059234e-01   9.6143118e-01   5.9699546e-01   6.3619419e-02  -2.9896148e-01  -2.5013840e-01  -1.0713952e-01  -7.9500279e-01   1.0798719e-01  -4.0336399e-01   1.2988699e-01   4.4852418e-01  -3.6447474e-02  -1.7111351e-01  -3.3222577e-01   5.5779539e-03   6.5553420e-01  -7.7649002e-01  -5.4792404e-01  -2.2813209e-01   8.3974462e-01  -2.1666037e-01   9.4960013e-01   9.4087475e-01  -6.8728393e-01   4.9366988e-01   5.7808807e-01  -2.6636971e-01   6.5379816e-01   2.6470427e-01  -8.2481431e-01   4.7040084e-02  -7.3590626e-01  -6.0434240e-01  -5.6170890e-01   3.8088278e-01   9.2276763e-03   2.1295741e-01  -9.0550661e-01   5.6260606e-01   8.9378620e-01  -2.2576695e-01   4.2299478e-01   6.8269631e-01  -9.1137936e-02   2.6731360e-01  -1.6476592e-01   2.7370654e-01   6.3619367e-01   7.5140276e-01   6.1150480e-01  -4.9765951e-01   7.7826637e-02   6.5976175e-01   4.2498800e-01   7.6333413e-02  -1.3103253e-01   8.5713487e-01   3.5342369e-01   4.2106932e-01   4.7519677e-02   2.8583704e-01   4.7581222e-01  -7.4215060e-01  -5.9587045e-01   9.7169974e-01  -4.5330769e-01   8.6787051e-01  -5.3195592e-01  -6.2932092e-01  -7.0391609e-01  -8.1345924e-01  -2.1834688e-01   9.8570580e-01  -6.5259859e-01  -7.5391002e-01  -5.8712235e-01   8.9982605e-01  -4.2409292e-01  -1.5311590e-03  -8.7692832e-01   8.4694293e-01   3.6870603e-01   2.0310245e-01   3.2380604e-01   2.1692377e-01  -6.3203960e-01  -8.9745993e-01  -7.4987660e-02  -9.8608557e-01  -8.9372943e-02  -5.6879498e-01  -4.0110620e-01  -1.5115057e-01  -3.4896579e-01   9.4280700e-01   7.0602572e-01   3.6736070e-01  -1.8331349e-01  -5.2490745e-01  -2.3107694e-02  -1.3079798e-01  -4.3122754e-01   1.4570742e-01   1.1300816e-01  -8.9273269e-01  -4.5107289e-01  -7.9210428e-02   6.5030275e-01  -1.3197736e-01  -1.6714640e-01   1.6217871e-01   8.0192364e-01   8.8490961e-01  -4.2133747e-01   3.5168797e-01   9.3776096e-01  -8.4148412e-01   9.9477147e-01   1.2835911e-02   7.7814363e-01  -3.3112373e-01  -8.4545060e-01  -3.2530365e-01   4.6342343e-01   1.1420136e-01   4.2728505e-01   1.6232648e-01   9.4119856e-01  -8.1586789e-01  -3.0524286e-01  -7.8293377e-01   8.1811864e-01  -6.4007635e-01  -9.6555428e-01  -9.7513819e-01   3.2272795e-01   8.4777295e-01   7.3839436e-01   6.9756518e-01  -6.4476768e-01  -8.6877501e-01   9.7526584e-01   5.1585926e-01  -8.3802378e-01  -7.8706674e-01   5.6730137e-01  -8.8637500e-01   2.7174639e-01  -6.9361248e-01  -7.1637802e-02  -1.4745685e-01  -1.7865308e-01   6.2336837e-01   1.0817025e-01   4.4995039e-01   1.5754757e-01  -5.7788438e-01  -5.3657124e-01   1.0204147e-01  -1.8838240e-01   8.7901788e-01  -6.1576019e-01  -1.2000346e-01   6.8996100e-01   4.6557273e-02  -7.7673928e-01   5.0044373e-01  -4.8782702e-01   3.1018364e-01  -8.1461673e-02   2.1476756e-01  -9.1521624e-01   5.8013911e-02  -9.9041844e-02   7.7844185e-01   9.8496632e-01  -3.3963375e-02  -5.2396077e-01   3.4025178e-01  -2.6946068e-01   2.9601646e-03  -4.1854813e-01  -3.3338074e-01   4.8066706e-01  -8.2521647e-02  -5.9474318e-01   1.7605008e-01   3.0579831e-01  -2.1122118e-01  -4.3898955e-02  -1.6545522e-01
  -1.2347321e-01  -8.9466966e-01  -9.7600604e-01   6.8080663e-02   7.5397346e-01  -6.5116554e-01  -5.5039509e-01   8.1642158e-01  -5.2764864e-01  -7.3704290e-01  -6.9287740e-02  -4.9211517e-01  -6.4180427e-01   7.8531648e-01   7.4847303e-01  -7.7021822e-01  -2.1524267e-02   6.4503747e-01  -7.0340051e-01  -8.0676984e-01   9.2779418e-01  -8.6922999e-01   5.3675542e-01  -9.4311278e-01   3.3754833e-01  -6.0822634e-01  -3.4171549e-02   3.9200083e-01  -5.5264666e-01   8.7191529e-01   9.3468545e-01   3.9419310e-01   3.3786922e-01   3.9025289e-01   9.5543895e-01  -6.1704674e-01  -7.3312379e-01  -6.0266256e-01  -9.9911008e-01  -5.8808493e-01  -4.1918788e-02   4.7190621e-01  -7.1186625e-02  -6.4291647e-02   5.5123960e-01  -9.1115948e-01   7.4561540e-01   4.6618636e-01   4.6331987e-01   8.3171333e-01  -7.4072157e-01   2.1415768e-02   3.5699213e-01  -4.9249541e-01  -8.3065701e-03   9.7233935e-01   2.9560602e-01   9.9010054e-01  -6.2380382e-01  -1.9533508e-01   4.7917820e-01  -9.9253392e-01  -9.9185195e-02   9.7201478e-01  -3.9987603e-01   7.6539112e-01   8.9043704e-01  -6.3426445e-01  -3.6281310e-01  -1.1280551e-01  -2.5064140e-01  -7.6610982e-01   5.2415937e-01   4.3254587e-01  -5.4240541e-01  -4.0047657e-01  -2.0988814e-01   6.0127486e-01  -7.0727575e-02  -1.1539355e-01  -9.9604247e-01  -1.4276819e-01   1.5287754e-01   5.2343840e-03  -9.1450631e-01   6.1780661e-01   4.7604468e-01   6.7161341e-01  -5.2294067e-02  -1.4099134e-01  -4.8756351e-01   7.5731377e-01  -7.7141685e-01  -4.3671922e-01   1.3644512e-01   5.1192592e-02   3.5116504e-01  -5.2814179e-01  -6.6557050e-03   2.5493695e-01   6.2983468e-02   6.8105398e-01   2.1287670e-01  -5.2289188e-01  -5.2673986e-01   6.6814451e-02  -6.9870802e-01   6.9513056e-02  -9.7512778e-01   9.0302028e-01  -1.4629242e-02   3.1282092e-01  -6.9041706e-01  -8.4133389e-01   2.4580424e-01   4.5012092e-01  -4.1369945e-01  -9.2406378e-02   2.5701694e-01  -8.1188241e-01   4.4327146e-02   2.2306373e-01   8.1644823e-01   8.9266099e-01   2.3080945e-01  -4.6429088e-01   4.4480077e-01   5.4994423e-01   6.7431713e-01  -1.7060021e-01  -9.0899154e-01   5.6896592e-01   7.8906012e-01   3.1731548e-01  -9.4446807e-02  -8.2616614e-01   8.8155781e-01  -4.7879561e-01   8.7973877e-01  -3.8456399e-01   2.3170599e-01   2.9163864e-01   8.2711326e-01  -6.8966367e-02   8.3302851e-01  -1.4377261e-01   8.4114422e-01  -6.8358420e-01  -4.0912393e-02   9.1196136e-01  -2.0784748e-01  -7.3153527e-01  -2.0772142e-01   1.0017399e-01  -8.5248374e-02  -1.6873148e-02   4.3266955e-01  -7.1633436e-01   9.1089711e-01   9.8067210e-01   9.1899346e-01  -2.9074203e-01  -1.1393864e-01   7.1904440e-01  -7.6819070e-01   1.3292613e-01  -9.5617190e-01  -6.6162822e-01   6.2875679e-01  -9.2607116e-01  -4.5129938e-01  -5.8736487e-01   8.4145192e-01   6.2407132e-01  -6.4146865e-01  -3.9925467e-02  -2.1873913e-01   8.7310729e-01   1.0021313e-01   2.9352096e-01  -8.8572744e-01   8.9140011e-01   3.9475847e-01   5.1756044e-01   2.7749272e-01  -8.3963596e-01  -9.7040681e-01  -8.9459235e-01   9.4642916e-01  -1.6707258e-01  -4.1043555e-01  -3.1619037e-01   1.0533336e-01  -4.4365813e-01   3.3408906e-01  -4.0037038e-01  -9.0557019e-01   2.4080443e-02  -2.3753303e-03   5.7265164e-01  -6.9624439e-01   6.1106889e-01   6.2192347e-01   8.5310793e-01   4.4232798e-01  -2.7240482e-01  -8.4445812e-01   5.0866820e-02  -5.8497776e-01  -2.8682865e-01   1.1317151e-01   8.6959320e-01  -4.7658581e-01   6.8795312e-01  -1.2328679e-01   7.1546803e-01  -7.0623955e-01   3.2534467e-01   4.4281248e-01  -9.9241914e-02  -5.3752881e-01  -4.3747957e-01   9.9866524e-01  -4.1266953e-01   8.0512522e-01  -9.8375345e-01  -8.2293596e-01   2.0029992e-01  -9.4787684e-01   3.9565511e-01   3.3360219e-01  -5.0828183e-01   3.0296313e-01   4.0183813e-01   1.9102336e-01  -8.3362776e-01   6.6647281e-03  -9.4222583e-01   9.5264919e-01  -8.1489492e-01   2.0308529e-01   9.8750025e-01  -3.5091440e-01  -2.0379870e-02  -8.4543050e-01  -6.0047245e-01  -4.7687228e-01  -6.9186893e-01   3.0511540e-02  -3.0276123e-01   4.1691737e-01   7.8365583e-01  -5.9067715e-01   5.1174600e-01   3.1694537e-01   8.2801952e-01   7.2650603e-01   3.5814445e-01  -4.7390636e-01  -8.7776274e-01   2.8022556e-01  -1.0195044e-01   3.8647285e-01  -1.2889701e-01   7.7563762e-01  -4.6030429e-01  -8.1149928e-01  -6.4644197e-01  -1.6768584e-01   9.6471569e-01  -7.3539650e-01  -1.2267557e-01  -2.0390424e-01  -4.5131510e-01   4.2800096e-02   9.7424095e-01  -8.2870805e-01   2.7754429e-01   5.7679468e-01  -7.4418131e-01   8.2524881e-01  -1.4803372e-01   8.1033165e-01  -6.7842993e-01  -7.5080115e-04   3.6482683e-01   4.5726928e-01   1.4384138e-02  -6.5315733e-01   2.8685927e-01  -2.7839710e-01  -7.4656780e-01   4.1964172e-01   5.8524846e-01   5.4621002e-01   3.4952845e-01   5.4879621e-01  -2.9771570e-01   8.7693728e-01   2.0722240e-01  -7.2731134e-01   1.2322337e-01   4.9114937e-01   7.3442912e-01  -6.3867866e-01  -4.6313673e-01  -6.6253140e-03  -1.2524876e-01   6.5267608e-01   3.9063596e-01  -6.2256267e-01   7.2424667e-01   7.4529727e-01  -1.8135765e-01   6.8941116e-01   3.0373364e-01  -8.0564386e-01   6.6270559e-01   2.9992877e-01  -5.4308004e-01  -9.9391457e-03   6.3658414e-01  -9.4852950e-01   6.1021842e-01   6.6872891e-01  -6.6746760e-01  -8.5696165e-01   5.4293589e-01  -9.0591621e-01  -8.2224454e-02   2.7608327e-01  -4.7543675e-01   8.2014000e-01   4.8908829e-01  -5.4281181e-01   1.7212800e-01  -9.3422797e-01  -7.5300814e-01  -8.7123095e-01  -4.2026687e-01  -1.2319720e-01   1.6534282e-01   3.0344364e-03  -8.2359675e-01   5.0866548e-01   6.7326930e-01   2.4994793e-01  -9.3220859e-02  -8.5762175e-01  -7.2490755e-01  -4.1434185e-01  -1.6833114e-01  -2.9526546e-01   2.1052977e-01  -6.6107765e-01   4.8573793e-01  -4.9856943e-01   3.6372198e-01  -7.0919620e-01   7.7666490e-01  -4.4486028e-01  -6.9921984e-01   4.7829280e-01   8.3560338e-01   2.8010839e-01   6.3297201e-02  -3.6624653e-01  -9.6520623e-01  -1.6486962e-01   8.8289395e-01  -4.8274239e-01  -1.0227799e-01   2.3751272e-02  -3.7643736e-01   4.9595133e-01  -6.9451742e-01   4.0249663e-01   5.2842503e-01  -6.0207290e-01   8.2251210e-01   5.9925399e-01   6.9414643e-01  -4.0924675e-01   4.2688406e-01   7.8656114e-01   3.9822754e-01  -8.0279745e-01   3.0413518e-01   6.3470561e-01   5.4097496e-01  -3.4133339e-01   9.4363878e-01  -5.7644699e-01  -6.3484913e-01   6.2390829e-01  -8.3981242e-01   4.6485546e-02  -7.6806470e-01  -4.7597062e-01   9.1644491e-01  -5.4196991e-01   8.3126717e-01  -5.4300454e-01   8.6967664e-01   1.2100791e-01   3.9773683e-01   4.8259055e-02   4.3807644e-01   5.1293340e-01  -1.6267062e-01  -3.6779234e-01   5.7472594e-01   9.2210470e-01  -9.7757818e-01   5.0347669e-01   8.8552407e-01   8.5228343e-01   2.2785259e-01   8.1340401e-01   6.4699280e-03   9.1082623e-01  -9.8093915e-01   1.9176291e-01   9.3743193e-01  -8.9434857e-01   4.8155188e-01  -2.0547588e-01  -1.8400559e-01  -8.7137044e-01  -9.0276755e-01   1.3334026e-01  -8.3138555e-01  -4.4312383e-01   7.3610527e-01   2.0805789e-01   8.8473618e-01  -2.0475316e-01   8.5307163e-02   2.9250580e-02  -3.7604560e-01   6.6759566e-02   3.7119503e-01  -9.2912001e-01  -4.3138460e-01   7.6183184e-01  -2.2283723e-01  -7.8371098e-01   5.2702647e-01  -8.0067773e-01  -2.6754679e-01   8.9971918e-01  -7.0420686e-01  -3.9667574e-01  -8.8880432e-01   4.6684174e-01   6.4836536e-01  -2.7614991e-01  -3.9476661e-01  -9.1912301e-01  -6.9309767e-01   5.9030908e-01  -8.2417605e-01  -9.6590610e-01  -4.7738108e-01   3.4509263e-01  -8.9878844e-01  -1.9986259e-01   5.1779710e-01  -3.5535352e-01  -8.0978485e-01   1.5267242e-01  -6.8903107e-01   2.4248640e-01   8.4134765e-01  -2.9847261e-01   8.4102801e-01   8.3564367e-01   6.1463275e-01  -3.4792975e-01  -4.8368551e-01  -4.1103886e-01   6.7458146e-01  -8.1230780e-01  -4.8390497e-01   8.5293811e-03   6.3253657e-02   6.7782394e-01  -7.2249231e-01  -3.3767966e-01   9.2617231e-01  -5.7825835e-01  -5.6783503e-01  -2.0052310e-01   8.1632795e-01   5.7571403e-01  -9.9462034e-01  -3.8352055e-01  -8.4475159e-01   6.8572007e-01  -9.8157400e-01   2.3540793e-01   6.8966282e-01   3.8694109e-01  -3.2471403e-01  -3.0250438e-02   1.3680480e-02   3.8568790e-01  -2.1441381e-01   1.7498418e-02  -6.0009819e-01   2.0787446e-01  -1.5284585e-01  -4.0545156e-03  -1.8854803e-01  -7.7799017e-01   1.6038368e-01   1.1239025e-01  -6.9815499e-02  -5.8434757e-02  -8.3272575e-01  -5.6931504e-01  -5.6350491e-01   5.0432996e-01  -6.0451034e-01   7.7028260e-01   7.8847787e-01  -9.3867930e-01  -2.3459758e-02   1.6739079e-01   5.6747301e-01   4.8883520e-01   4.0939151e-02   6.7356935e-01  -4.4064051e-01  -8.8159368e-01  -9.9971502e-01  -9.5806139e-01  -5.8045538e-01  -2.2170726e-01  -9.7813326e-02  -7.3146673e-02  -1.5454134e-01  -6.2399299e-01  -1.6150152e-01  -8.2396346e-01   5.2110664e-01   4.2087122e-01   2.4595770e-01  -8.8576075e-02  -7.4542435e-01  -8.0411271e-01  -7.2295446e-01   7.5422323e-01  -6.0292502e-01   5.5850429e-01   2.2919072e-01   2.2273482e-01  -5.7197607e-01   8.3962266e-01   4.9995137e-01   8.4559567e-01   5.0513866e-01   6.4347665e-01  -5.9912364e-01  -9.2582108e-01  -3.3586143e-01  -5.5346046e-01  -7.6894400e-01   5.6179650e-01  -2.7608903e-01   2.7201183e-01  -6.2116153e-01   5.2467839e-01  -4.7494253e-01   8.7711551e-01   3.1641416e-01  -5.6043172e-01   9.2006727e-02   8.6785134e-01   9.4867957e-01   5.4332244e-01  -9.7786344e-01  -4.1921979e-02  -3.5164427e-02  -2.7549520e-01  -2.4113071e-01  -1.8070190e-01   6.9577114e-01   2.9112337e-01  -2.2637597e-01  -5.9639237e-01   1.7642848e-01  -4.1414890e-01   8.4764032e-01  -4.0339804e-01   2.4986209e-01   4.7165838e-01  -2.3724844e-01  -5.0430250e-01   5.5700926e-01  -9.0945010e-01   4.7161251e-01  -8.3821259e-02   2.2060745e-02  -8.8160473e-01   5.8555027e-01   3.9019829e-01   9.2881172e-01  -8.4412892e-01  -2.4851919e-01   3.8721223e-01  -5.5601447e-04   6.7955173e-01  -5.7154827e-01   1.7376874e-01   9.4824735e-01  -3.2038046e-01  -1.5457880e-01   9.4189401e-01  -2.9509182e-01  -3.6590590e-02   4.0126625e-01   3.9342589e-01  -8.7599121e-01  -4.7758893e-01  -2.2770359e-01  -8.0937174e-01  -8.8849107e-01   8.9833356e-01   2.5202927e-01  -1.2394235e-01  -1.7000030e-01   1.7493868e-01  -5.9464501e-01  -4.5350897e-01   9.8659457e-01  -4.8901259e-01  -8.0479045e-01  -3.4917847e-01  -3.1205461e-01   9.3055416e-01   2.4892477e-02   9.5677356e-01   8.5266512e-01  -3.4993323e-01  -9.6570333e-01   6.4275282e-01   1.4601028e-01   6.4272383e-01   5.3635980e-01   4.1354051e-01  -8.6982729e-01   3.9767769e-01   7.5661971e-01  -7.9545702e-01  -1.0387241e-01   9.6919813e-01   1.1124164e-01   9.0722085e-01  -9.5969425e-01   5.5391646e-01   4.1292148e-01   8.7308177e-01  -7.8735873e-01   2.3247100e-02  -7.9311419e-01   2.6674808e-01  -9.2406143e-01  -2.4551021e-01  -8.6094366e-01   5.3643714e-01  -8.1985044e-02   1.3038922e-01  -2.8176140e-01  -5.3638641e-01  -4.6476968e-01   7.1026073e-01  -7.1336498e-01   5.4972964e-01   4.1921345e-01  -9.6239963e-01   9.1424925e-01  -3.0726813e-02   1.8673403e-01  -1.8133733e-01   3.4338623e-01  -9.1301042e-01   3.3790628e-01  -8.0885496e-01  -3.3531449e-01  -6.1250787e-01  -7.8774948e-01  -7.1229849e-01  -6.9189439e-01  -6.9214983e-01   3.0200085e-02   5.9143874e-01  -1.4561868e-01  -1.9817990e-01   3.4577494e-01   3.8442621e-02   8.5332140e-01  -3.8175265e-01   2.0497740e-01  -9.2476072e-01   4.5576841e-01   3.9703046e-01   8.2772692e-01  -3.9001034e-02  -8.0741069e-01   9.5154399e-01   6.7533017e-02   5.7184166e-01  -5.4783795e-01   8.2800263e-02  -9.4420071e-02  -3.1274471e-01   7.3130053e-02   7.6516251e-01   8.1773485e-02   8.1834063e-01  -5.4487458e-01  -9.1743519e-01   4.5607555e-01   9.7655855e-01  -6.7928276e-01  -2.8684934e-01  -9.3045802e-02   6.0335272e-01  -9.1694380e-01  -7.3242686e-01   6.6214995e-01   7.6243543e-01  -4.0248805e-01   9.2968658e-01   7.8745952e-01  -3.1519993e-01  -2.6702979e-01  -5.5187190e-01   5.8938485e-01   9.7043027e-01  -1.3698594e-01  -1.9679561e-01   6.4603671e-01  -3.6751849e-01   7.3053196e-01   2.5809689e-02   9.1707911e-01  -8.6566065e-01   5.7645555e-01  -9.1247712e-01   9.7901944e-01  -3.1914401e-01  -8.5756432e-01   9.7969829e-02   6.9631503e-01   2.5394740e-02   9.1895892e-01  -8.7425119e-01  -8.4381752e-01   6.9126042e-01  -6.0293926e-01  -7.0112129e-01  -7.4968296e-01  -4.5746048e-01  -6.8311527e-01  -6.6467804e-01   1.5825327e-01   5.2330107e-01  -5.4473291e-01   7.6812464e-01   8.9817827e-01  -3.7056434e-01   3.1161991e-02   5.6798042e-01   7.9745320e-02  -6.7728614e-01  -4.0135369e-01   9.1699665e-01   7.0946127e-01  -2.6100427e-01   5.0014136e-01   2.6542979e-01  -1.1508424e-01   3.7881103e-01   9.3750189e-01   6.2565998e-01   8.9185373e-01  -6.6909158e-01   4.7515536e-01  -4.4762947e-01   8.3698458e-01  -6.9738587e-01  -9.2662958e-02  -5.9666242e-01  -2.9754184e-01   5.9351167e-01   3.9360496e-01   7.1912866e-01   7.6357638e-01  -1.3180447e-01   4.6555340e-01  -1.8550977e-01  -3.5631806e-02   7.0960494e-01   2.5144868e-01   6.8519404e-01  -9.7250008e-01   4.0341262e-01  -3.3708746e-01  -9.4448629e-01  -5.7617383e-01   5.5611037e-01   9.0037251e-01  -6.6982851e-01   5.1615696e-01  -2.4476029e-01   4.0876018e-02  -1.0787480e-01  -2.0537840e-01  -2.4375181e-01   6.1415267e-01   7.2101215e-01   4.2565244e-01  -7.6405742e-02   7.2187949e-01   7.4844665e-01   5.1244138e-01   2.7270116e-02  -8.0972916e-01  -2.5570214e-01  -2.0214264e-02  -9.7378423e-01   8.2973281e-01   7.6349568e-01  -4.9191726e-01   6.7546833e-01   9.8158085e-01  -5.8108484e-01   7.7964805e-01  -3.0790703e-01   6.0441958e-01  -4.5552242e-01   5.8858336e-01  -9.2383002e-01  -4.7607009e-01   8.7667880e-01   5.2870031e-02   2.2786967e-01   3.1747692e-01  -1.3824000e-01   4.9306238e-01  -7.2800165e-03   7.0106600e-01  -5.7242586e-01  -1.9434996e-01  -4.2445413e-01  -8.9703328e-01  -2.2259437e-01   3.3145237e-01  -2.6152441e-01   4.9635019e-01  -7.4474940e-01   6.3193445e-01   2.9585905e-01  -5.3048517e-01  -8.1660473e-01  -1.6433190e-01   3.5963052e-01  -3.2914467e-01   3.4075313e-01  -6.9110663e-01  -5.2016059e-01   3.1529524e-01   7.7037933e-01   9.4517314e-01   2.9051604e-01   1.4836418e-01  -9.3333072e-01   6.5750763e-01  -6.8788449e-01  -9.9288275e-01  -7.3309786e-01  -1.2286774e-01  -8.2185230e-01   1.5680551e-01   6.8692220e-01  -9.4186861e-01   1.4951947e-01   8.1136647e-01   1.2424911e-01  -7.5460025e-01   9.7572803e-02   9.8901747e-01   3.9583409e-01   4.0514872e-01   9.7530363e-01   1.5533861e-01  -4.4618860e-01  -3.7719391e-01  -4.8248090e-01  -2.4385145e-01   6.5530603e-01  -1.9920296e-01  -1.4619602e-01  -4.2052743e-01  -5.6643731e-01  -3.8565923e-01   9.8552724e-01   5.5218749e-01  -3.7924254e-01   6.1486080e-01  -4.1958049e-01  -6.8720162e-01   7.6315208e-01   7.5943316e-01   2.4327140e-01  -5.1298245e-02  -8.4468783e-01   1.3286134e-01   9.7979202e-02   3.0454584e-01   5.0423913e-02  -9.1451586e-01  -8.6921831e-01  -5.5439219e-01  -4.6863092e-01   8.6583365e-01  -4.6298211e-01  -2.3574748e-01   4.4769554e-01  -1.6661104e-01   4.3489592e-01  -9.6286247e-01  -4.8523347e-01  -1.2473994e-01  -5.4296589e-01   7.0704702e-01  -3.6524431e-01  -5.9555906e-02   5.7055277e-01   1.6231758e-02   7.9638905e-01  -2.2224967e-01   4.9671161e-01  -7.5373038e-01  -6.8265579e-01   4.3039095e-01   4.2417844e-01   9.4254622e-01   2.7618323e-01   8.7302756e-02  -5.8799564e-02   7.2571553e-01  -5.1105948e-01  -9.0577651e-01   2.4461357e-01  -5.3967251e-01   1.9383226e-01   3.7061451e-01   3.9071111e-01   5.5291057e-01   3.2044758e-01   8.6036706e-01  -8.6955249e-01   3.3602042e-01  -9.9289762e-01  -7.9564581e-01   8.3024108e-01   3.2359460e-01   9.2131530e-01  -6.7353410e-01   6.9601392e-01  -6.4849597e-01   5.9169579e-01  -6.9614243e-01  -1.9608358e-01  -4.9506133e-01   1.0183345e-01  -9.3514879e-01  -6.7340995e-01   7.5521791e-01  -4.4523686e-01   2.3637643e-01  -4.7451581e-01  -3.7199795e-02   6.4683042e-01   4.6466884e-01  -7.0656972e-01   2.3786185e-01  -7.5900374e-01   6.9071248e-01  -4.7668886e-01   4.4263472e-01  -4.3982242e-01  -6.1516490e-02   1.2763735e-01   8.4744541e-01  -5.2894122e-01  -7.1111760e-01
