  -9.3790447e-01  -3.5276304e-01  -7.6222304e-01   2.0403381e-01   4.6338563e-01  -1.1314140e-01  -6.9495636e-01  -1.9171282e-01  -7.2492731e-01   4.4059774e-01   7.9899093e-01   4.5206534e-01   9.0949374e-01  -5.3624647e-01   4.9084639e-01   4.5570658e-01  -6.1320978e-01  -8.8760940e-01  -4.4592589e-01  -3.1308831e-02  -8.3844215e-01   7.2073076e-01   6.6380356e-01  -3.2460120e-01  -9.0069227e-01  -9.4610448e-01   9.7535341e-01   6.9009724e-01   6.3614513e-02   9.8208988e-01  -6.6351120e-01  -9.0934073e-01   7.7422395e-02  -1.9430434e-01  -8.9918942e-01  -6.8167792e-01  -6.9245637e-01  -7.7824547e-01  -4.6208889e-01  -6.8514962e-01  -3.7581253e-02  -9.3713626e-01   6.8115035e-01  -4.0880937e-01   3.7803759e-02  -1.5777382e-01   6.2228737e-01  -7.4284982e-01   5.7234041e-01  -5.2393275e-01   9.4705950e-01   7.5624017e-01  -7.6499839e-01  -7.6533502e-02  -7.7344445e-01  -1.5717309e-01  -5.1208023e-01   2.4562262e-01  -1.5604989e-02  -5.8793777e-01   3.0078265e-01  -6.8208850e-02  -3.4882389e-01  -7.1927352e-01   1.1302288e-01   5.4935268e-01  -5.9598706e-01   2.9756972e-01   9.5363892e-01   5.4289393e-01   4.6954315e-01  -7.7466654e-01  -3.9099268e-01   6.3082259e-01   6.5044438e-01  -4.1405181e-01   6.4421056e-01  -5.5362263e-01   1.4535107e-01  -8.3068509e-02  -9.5227515e-01  -4.1619722e-01  -9.1981027e-01   5.2494712e-01  -8.7528661e-02  -6.7115769e-02  -6.2134120e-01  -2.8537196e-02  -4.1271256e-01  -9.7465037e-01  -9.9856486e-01   9.3138662e-01   2.5381332e-01  -2.4752134e-01  -6.2515849e-02   1.0208404e-01  -6.1738898e-01   4.7757106e-01  -7.1037618e-01   3.8799026e-01   9.2642474e-01  -2.0431392e-01  -9.2992998e-02  -6.8178220e-01   1.2912878e-01   2.3645529e-01  -2.3949931e-01   8.1433627e-01   2.3582793e-01   6.7526623e-01  -8.9902193e-01  -7.1726295e-01  -7.1580922e-01   1.7946158e-01   3.2788172e-01   7.0205436e-01  -3.2217861e-01  -3.2248341e-01  -3.9542384e-03  -3.8217082e-01   2.7685259e-01   4.2297165e-01  -6.3122909e-01   9.5021326e-01   3.8958167e-01   2.8158294e-02   8.4971531e-01  -3.1281295e-01  -8.4358499e-01   2.3003992e-01  -8.4333226e-01   9.5001413e-01  -6.0567552e-01  -4.1772193e-01   2.6144490e-01  -3.7397741e-01   7.7631126e-01  -4.0360183e-01  -8.5562745e-01  -9.4623398e-01  -7.8050897e-01   2.6418140e-01   4.0809572e-01  -6.9866686e-01   8.3095511e-01  -2.5614470e-01  -2.9384644e-01  -1.3767886e-01   5.4811102e-02  -8.8988773e-01  -5.8893460e-01   1.6499072e-01   7.8573744e-01   6.7323505e-01  -1.6895404e-01  -3.2027911e-01   4.8975745e-01  -4.9579607e-01  -8.5663349e-01  -9.7833268e-01   6.6356389e-02   7.9573844e-01  -8.6615213e-01   1.2785119e-01   5.7521210e-01  -8.8716447e-01   1.4125075e-03   2.0264166e-02  -5.3648515e-01  -9.3422557e-01   9.2754418e-01   1.8718787e-01  -9.8814376e-01   4.9518115e-01  -4.2133763e-01  -1.9115559e-01  -5.4393854e-01  -8.9176522e-01   5.3302221e-01   5.5844236e-01   8.7634647e-01  -6.3168693e-01   2.0434394e-01  -1.4589967e-01   3.4402400e-01  -9.7559624e-01   2.9013725e-01   8.7042989e-01   1.2305415e-01   9.0158616e-01  -1.6460706e-01   1.4431652e-01   6.8213430e-01  -7.0979140e-01   4.0521092e-01  -7.2215987e-01   1.9221309e-02   9.5353179e-01  -3.7127965e-01  -9.3193694e-01  -6.4863614e-01   5.6144460e-01   4.1600218e-01   8.1863207e-01   4.0995252e-01  -5.6462565e-01  -2.9235129e-01  -5.7675837e-01   7.4604853e-01   2.2526625e-01  -5.2088679e-01  -9.6324455e-01  -9.6178594e-01   4.1523898e-01  -7.3256393e-01   9.3942274e-01   3.0446949e-01   9.0459353e-01   8.3602171e-01   7.2641226e-02  -6.9932883e-01   2.9490901e-01   8.8880128e-02  -7.6989682e-01   5.8104892e-01  -6.2492306e-01   2.7911496e-01  -1.7493936e-01  -2.6651061e-01   7.4057087e-01   8.9779581e-01  -1.3187816e-01   6.2754634e-01   3.8498866e-01  -4.2882571e-02  -7.6971732e-01   1.8747364e-01  -2.3509679e-01  -6.5208002e-01   8.0124566e-01   4.3202115e-01  -2.3615885e-01  -1.0862078e-02  -5.8532174e-01  -2.3549965e-02  -8.5060254e-01  -9.1492503e-01   5.8220808e-01  -3.7671718e-01  -1.7050850e-02   6.4164132e-01  -1.9444314e-01  -7.9650161e-01   1.7271762e-01   3.1674634e-01   8.5714377e-01  -6.0967311e-01   1.4345304e-01   1.5269450e-01   3.6786127e-01  -6.8031361e-01  -6.8319004e-01   9.1699111e-01   6.1825305e-01   6.2927249e-01   5.7063137e-01  -5.7628057e-01   2.8347281e-01   3.7030949e-01  -9.4878397e-01   1.8118390e-01  -8.1084494e-01  -8.5504972e-01   8.9016124e-01  -3.6677004e-01   6.1965212e-01   3.7576827e-01  -7.2214720e-01  -7.2394205e-01  -1.2579201e-01  -5.3666246e-01  -2.4362662e-01   5.7357977e-02  -6.5184224e-01   4.6880064e-01   6.3725841e-01   5.1748986e-01  -7.8625539e-02   8.7985379e-01  -2.5571612e-01  -2.8390089e-01   9.2283513e-01  -8.7333881e-01  -5.5586683e-01   5.4661602e-01  -4.3825718e-01  -7.5463540e-01  -2.8868452e-01   3.4503885e-01   9.4936620e-01  -1.0327158e-01  -9.3122803e-01   9.1122162e-01  -8.4561972e-02  -7.3697214e-01  -4.4581150e-01  -3.1835067e-01   7.9943540e-01  -3.4710837e-01   3.4016100e-01  -5.8507470e-01   2.2503290e-01   1.7369990e-01  -6.5535510e-01  -2.1496872e-01  -5.4108710e-01   4.3013706e-02  -5.5456973e-01   4.6673450e-01  -6.5917912e-01   7.3344256e-01  -9.4246890e-01  -6.3138084e-01  -5.8268926e-01  -6.0913746e-01   9.0279496e-01   6.6313965e-01  -4.3489678e-01  -2.2817837e-01   6.4951292e-01  -8.0602574e-01   6.9774735e-02   9.7992764e-01  -6.4333057e-01   1.8158522e-01   7.5300777e-01  -9.8383774e-01  -8.8452431e-01  -5.5165298e-01  -2.0116079e-01  -9.8526599e-01   4.0466198e-01  -6.9110036e-01   4.7755392e-01  -5.9679572e-01  -9.6877027e-02  -8.6763057e-01   3.8667299e-01  -5.3279427e-01   3.3232796e-01   4.1937174e-01   3.9751550e-01  -7.3896299e-01   2.9942982e-01  -7.9970471e-01  -2.0329485e-01   6.3211011e-01   8.4777629e-01  -1.0246107e-02   8.0958778e-01   4.1641053e-01   5.4029757e-01   7.3069812e-01  -7.3875270e-01   5.7011257e-01  -6.3556554e-01   2.8635878e-01  -7.3954992e-01   3.6632946e-01  -5.8400770e-01  -1.0558271e-01  -8.7271663e-01   3.2341674e-01   8.6573980e-02   4.7638500e-01   6.3377169e-01  -1.9859437e-02   7.5950516e-01  -9.8871074e-01  -2.3264879e-02   3.1804393e-01  -4.3766984e-02   6.0973105e-02   1.6569777e-01   4.4501784e-01  -8.0832419e-01   8.9817570e-01   7.2316718e-01   7.3855554e-02   1.7863037e-01   5.4762853e-01  -6.3144446e-01   6.6601696e-02   2.9632070e-01   4.6704328e-01  -9.1712581e-01   6.5970567e-01   5.5987141e-01  -5.0758729e-01  -7.1678458e-02   8.7837858e-01   3.5957351e-01   7.2264414e-01   7.4207421e-01  -3.6265724e-01  -4.5737668e-01   2.1493624e-01   4.4134345e-01   2.9115181e-01  -3.5370095e-01   7.3717608e-01  -9.6386756e-01  -4.4919037e-01   6.5646990e-01  -6.9829919e-01   3.6823906e-02  -6.1230425e-01  -2.8792314e-01  -6.7816288e-02  -4.4488403e-01  -6.4220037e-01  -5.0922849e-01   9.4325688e-01  -8.9232562e-01  -3.1225385e-01   5.7055134e-01  -6.7900307e-01  -2.6272516e-01   1.5157597e-01  -7.1591730e-02   2.4338833e-01   6.4296837e-01   4.0291310e-01  -6.7345838e-01   9.5144816e-01   3.1317917e-01  -4.2160885e-01  -7.7199826e-01   4.3906640e-01  -4.4463861e-01  -4.9489668e-01   5.9379610e-01  -1.1728997e-01   1.2421314e-01  -5.8116302e-01   5.0637043e-01   8.4513001e-01  -1.0723756e-01   5.6337113e-02   8.0722191e-01   4.4761912e-01   7.0769936e-01   2.7930645e-01  -4.6419582e-02  -7.7605215e-01  -1.3478154e-01  -7.6017479e-01   6.9125465e-01  -2.1968561e-01  -3.7528076e-01   8.2940284e-01  -2.1862900e-01  -9.0299043e-01  -9.8475880e-01  -9.5319638e-01  -4.2243288e-02   5.1031265e-01  -8.7851490e-01  -3.1129305e-01   1.2842256e-01   4.2848074e-01  -7.0002595e-01   2.6326030e-01   3.1043026e-01  -7.6032932e-01   2.4673065e-01  -2.3904608e-02   3.0711987e-01  -9.3108051e-01  -7.4012008e-01   3.9959616e-01   5.2381944e-01   6.5242292e-01  -1.7288493e-01   3.3312496e-01  -9.9975851e-01  -8.0509110e-01   3.2628601e-01  -7.0063148e-01  -4.9705333e-02   7.4268078e-01   9.1406566e-02   9.0721579e-02  -7.7532879e-01  -6.7895579e-01  -1.2753357e-02  -1.4699461e-01   6.7506021e-01   2.4785700e-01  -2.4847313e-01   5.3769340e-01  -7.5348271e-01   2.7990517e-01   2.7390499e-01  -1.9116399e-02   7.7621251e-01  -4.3883897e-01  -9.3560599e-01  -3.5207500e-01   8.4353081e-01   9.1746261e-01  -6.1238036e-01  -1.2485422e-01   7.0749625e-01   4.4111176e-01   8.0039870e-01  -7.9115030e-01   1.2575520e-01  -6.4316327e-01  -2.8945291e-02  -3.1371896e-01   5.2227859e-01   4.3644867e-01   6.4336830e-01   7.5595090e-01   4.6519528e-02   9.5626474e-01   3.2304932e-01  -8.9724673e-01   5.0265698e-01   2.1475186e-01  -8.5189808e-01  -8.5788203e-01   3.9511323e-01  -1.3269336e-01   3.7815619e-01   1.1307645e-01   2.1475829e-02  -2.8232155e-01   8.8405498e-01   5.0587479e-01  -7.2521221e-01  -1.2197037e-01   8.6746781e-01  -2.7440707e-01   3.8733219e-01  -6.1428099e-01   4.0671319e-01   8.6839006e-01   9.8052426e-01  -1.5826455e-01  -8.7217833e-01   1.1159548e-01   3.2892033e-01  -6.0763941e-01   3.1781571e-01   6.9709417e-01   4.2985274e-01   3.2968146e-01  -3.3919428e-01  -1.1720070e-01  -1.5781804e-01   8.3157086e-01  -1.5280558e-02   4.4023498e-01  -8.6732191e-01   9.4041256e-01   2.3012916e-01  -4.6998672e-01  -2.4535168e-01  -6.5743666e-01   2.2680502e-01   3.7551780e-01  -7.5554803e-01  -5.1565145e-01  -4.1467326e-01   2.0324303e-01  -9.0766687e-01   5.2012482e-01  -7.8785670e-01  -6.2889016e-01  -7.4877796e-01  -3.9176066e-01  -3.6829434e-01  -1.7884901e-01  -2.2544356e-01   1.6682417e-01   3.8496567e-01   8.1833535e-01   3.5982406e-01  -6.7371772e-01   1.0734921e-02   6.6121850e-01   4.9441320e-01   7.7525166e-01   6.4515760e-01  -2.9582953e-01   8.5781849e-01  -5.5588031e-01  -5.7233908e-01  -6.5798884e-01  -2.3455539e-01  -3.4137652e-01   7.0771454e-01  -1.2163132e-01   2.0017871e-01  -2.0794968e-01   4.8398678e-01  -7.2278486e-01   5.6788058e-02  -8.3499495e-01  -9.4747736e-01   9.6048799e-01   9.5473511e-01   5.5354992e-01  -1.6171933e-01  -3.6056406e-01   2.1444942e-01  -3.6806404e-01   4.6175963e-01   9.6910189e-01  -3.6670596e-01   9.7737274e-02  -8.2749964e-01  -7.4796213e-01  -2.6267651e-01   7.0582575e-01   9.7558962e-01  -8.5935896e-01  -2.3039082e-02   3.1839176e-01   4.5239814e-02  -4.0950680e-01   6.0417036e-01   7.7671839e-01  -7.5386116e-02   6.6960423e-02   5.3037452e-01   2.5095378e-01   7.1382307e-01  -4.1881150e-01   5.7761175e-01  -1.5791625e-01  -3.8009139e-01  -4.5472944e-02  -5.9991430e-01  -8.4235660e-02   1.6941342e-01  -6.6191823e-01   2.3590794e-01   7.4255979e-03  -7.7633049e-01  -9.8365065e-01  -5.3533183e-01  -7.0857909e-01   6.4623522e-01  -6.5334843e-01  -5.6044240e-01  -2.3284841e-01   2.3209657e-01   2.2313680e-01   8.4226844e-01   3.4271683e-01   8.6928075e-01  -3.8885279e-02  -8.9488706e-01  -4.1606375e-01   6.1941431e-01   3.7683259e-01  -2.4257979e-02  -4.3911648e-02   4.2270675e-04   4.2586184e-01   6.9607529e-01  -3.6302092e-01   2.0179608e-01   8.8874130e-01  -3.2363370e-01  -3.6437168e-01   4.9638580e-01   1.6546928e-01   7.1495132e-02   5.2216356e-01  -5.0982676e-01  -6.7482760e-01  -9.7700585e-01   9.5524762e-02  -7.2212137e-01   2.6539856e-02   3.4651860e-02  -1.5464761e-01   4.3853556e-01   6.7923560e-01   9.9197495e-01   3.0995531e-01   5.0303252e-01   9.6077141e-01  -3.2205934e-01  -7.3415020e-01  -2.9948232e-01   6.1178815e-01  -9.6958559e-01  -3.1365499e-01   2.9326970e-01  -6.7189729e-01   8.8011290e-01  -4.7988531e-01  -7.8188940e-01  -8.6732301e-02   9.1746412e-01  -4.1101552e-01  -2.1635072e-01   4.4777985e-01  -6.0035600e-01   2.0072940e-01   8.9762516e-01   6.0332274e-01   9.9466545e-01   8.3066395e-01  -1.7790057e-01   6.6716427e-01  -9.5010673e-01   7.8842155e-01  -9.6056510e-01  -4.9515069e-01  -5.9483554e-01   9.5421641e-01  -9.3575591e-01   4.9766166e-01   5.4390396e-01  -7.6811634e-01   5.0056262e-01  -4.3780266e-01   9.4570827e-01   1.4535501e-01  -3.6468682e-01   2.7272781e-01  -4.7438416e-01   1.6624248e-01  -6.8750078e-01  -3.0427778e-01  -9.7654152e-01   3.4008891e-01   9.9478583e-01   6.6889154e-01  -4.9900455e-01   8.3563078e-01   9.1531647e-02  -3.3358913e-01  -6.9311094e-01  -2.2795041e-01  -3.5777200e-02  -7.1084906e-02   4.2478410e-02   5.0007052e-01  -9.3589850e-01  -4.2770195e-02   2.2982343e-01  -5.5183835e-01   4.4700476e-01   8.7893408e-01  -4.5094245e-02  -5.7201714e-01  -4.1747301e-01   4.8736509e-01  -6.2997681e-01  -5.8192586e-01   7.3418256e-01  -2.0178135e-01   9.2216570e-01  -3.7613724e-02   1.4009189e-01   4.8216122e-01   1.1496620e-01   9.3265243e-01  -5.9548708e-01  -9.8686403e-02   2.6941538e-01  -6.7621771e-01   7.1777611e-01   2.2974838e-01  -4.8766170e-01  -7.7290163e-01  -3.4415661e-01   5.4533521e-01  -3.4842827e-02   4.0219994e-01  -2.2748950e-02   5.3774841e-01   7.1258788e-01   2.2972244e-01   8.2778853e-01  -6.2901589e-02  -9.8562788e-01  -6.9744532e-01  -3.8643046e-01   9.9255526e-01  -9.6398369e-01   4.3114676e-01   3.4963975e-02   4.9278678e-01  -4.7687688e-01  -4.8762547e-01   1.9508126e-01   3.9272517e-01   6.3617137e-01  -9.1261843e-01   7.0649808e-01   6.2466263e-01   8.7838406e-01  -2.7524963e-01  -1.1082122e-01  -5.3400297e-01  -1.4161831e-01  -1.7099368e-01   1.6585287e-01  -5.9014634e-01  -6.9591154e-01   6.5668766e-01   9.3897641e-01   4.9143843e-01   4.7442351e-01   8.3254634e-01  -7.6717471e-01  -1.2644268e-01   4.3782404e-01  -3.0779144e-01  -2.4383656e-01  -6.7626318e-01   9.8660898e-01   4.9942746e-01  -5.9392443e-01   1.8225767e-01  -1.7026120e-01  -3.2772613e-01   8.9740589e-01  -2.8574077e-01  -1.9787762e-01  -1.8636704e-01  -7.7970196e-01   5.9454588e-01   4.2471852e-01   9.3935326e-01  -2.9689794e-01  -1.5490746e-01   4.0238927e-01   4.6740388e-01   9.4400882e-01  -7.5386424e-01  -1.4370762e-01  -6.1914045e-01   1.0793140e-01  -3.7053891e-01   1.6700494e-01   5.1175181e-01   4.7991379e-01   2.5813884e-01   8.1505112e-01   5.8669616e-01  -3.0542793e-01  -7.7961287e-01  -7.9553780e-01  -7.3257918e-01  -3.0631520e-01   3.3130256e-01  -9.2023692e-01  -9.2622961e-01   9.4918484e-01  -7.1662951e-01  -8.1496297e-02   3.5022992e-01  -4.7814867e-01  -8.0717934e-02  -4.9844773e-01  -6.7255856e-01  -6.7269040e-01   1.9145473e-01   3.9439257e-01  -1.9058132e-01   5.9011608e-01  -4.5562511e-01  -4.5930535e-01   5.8571635e-01  -6.8143044e-01  -4.9176898e-01  -9.6485778e-01  -2.0128848e-01  -4.0574856e-02  -3.0926039e-01  -6.5055849e-01  -3.8823946e-01  -6.0554452e-02  -1.9646976e-01   6.1458902e-02  -5.4243237e-01   5.4249391e-01   9.9743491e-02   7.0131783e-02  -1.5289360e-01   1.9708255e-01   4.8971144e-01  -2.2727822e-01  -8.2699200e-01  -1.4874319e-01  -6.5863124e-01   7.6896425e-01   1.8847746e-01   7.2534214e-02  -5.7122323e-01  -4.0342042e-01   1.3307195e-01   1.7224130e-04   6.1222260e-01  -4.8806555e-01   1.6443034e-02  -9.1979804e-01   5.1313147e-01  -7.2819991e-01   6.9676553e-01  -9.6644523e-01  -9.6235399e-01   5.2020174e-01   7.9566126e-01  -9.0747620e-01   3.6921349e-01  -5.5973686e-01   6.2892429e-01   5.8964434e-02   3.6754094e-01  -9.0143670e-01   2.6364810e-01  -5.9255519e-01  -8.1255903e-01  -8.5432244e-01  -5.3677933e-01  -5.5932618e-01  -4.2788001e-01  -9.9181553e-01   1.9171721e-02  -3.3897880e-01   6.0912606e-01  -7.8843570e-01  -7.4235753e-01  -7.8827026e-02  -1.7150033e-01   8.2354848e-01   3.9428432e-01   5.3495522e-01  -5.4769772e-01  -1.8786649e-01  -6.9291220e-01   4.7046928e-01  -4.2869882e-02   9.4104257e-01   9.7354793e-01  -1.5035710e-01   6.6351466e-01   1.9929585e-01   3.6877315e-01  -2.6040992e-01   4.2051317e-01   4.3440880e-01  -1.6298795e-01   7.3373110e-01   9.4434703e-01  -1.8639684e-01   4.3488226e-01   1.6088674e-01  -4.3587998e-01   4.3808798e-01  -6.6897495e-01  -3.8650566e-01   1.3622506e-02   6.8821692e-01  -5.0303205e-01  -6.1019329e-01   5.1562833e-01  -4.8353666e-01   5.6878063e-01  -6.0519920e-02  -5.2370194e-01   2.3923410e-01   5.1949599e-01  -3.8704614e-01   6.3161980e-02   1.0543990e-01  -8.2197744e-01   5.9958493e-03  -3.0005604e-01   6.4188925e-01  -2.2446399e-01  -8.8139340e-01   1.5531041e-01  -4.7619196e-01  -2.6022476e-02   8.6651432e-01   1.8457516e-01   3.3112621e-01   7.3548937e-01   9.0112202e-01
  -2.6162833e-01  -3.8554948e-01  -9.9477127e-01   7.0655332e-01   5.2872199e-01  -4.6816047e-01   3.6486796e-01  -7.4491027e-01  -8.1867822e-01   6.6730979e-01  -6.5482110e-01  -6.7082381e-01  -9.1710261e-01  -2.5167299e-01   4.1013559e-01   5.8324217e-01   1.1999356e-01  -8.8264017e-01  -8.9340669e-01   5.2434315e-01  -4.5947042e-01  -6.6792194e-01  -1.9681967e-01   1.7159577e-01   3.2611843e-01  -9.7432877e-01  -9.4327061e-01   7.3851224e-01   6.7912530e-01   6.8552986e-01   1.4536969e-01   7.8796323e-01   3.9710022e-01  -5.8417256e-01  -7.6216206e-02   5.1304017e-01  -7.4202855e-01  -4.7459868e-01  -5.8267654e-01  -9.6696194e-01  -7.6834547e-02  -7.5113167e-01  -1.7081687e-01   9.6702759e-01   4.7171646e-01  -4.3741901e-01   9.1745103e-01  -2.6600725e-01  -9.7640158e-01  -5.3975896e-01   4.3111595e-01  -7.6571476e-01   5.9772114e-01  -7.4364336e-01  -7.5844392e-01  -7.9841020e-03   2.0733297e-01   1.8482898e-01   5.2257098e-01   1.2990480e-01   9.2697578e-01  -5.3807521e-01   1.0743522e-01   8.5156187e-01   5.6899176e-02   2.9244945e-01  -4.0580296e-01  -5.2050092e-01  -5.5239210e-01   2.7785022e-02  -5.3591865e-01   1.5067761e-01  -2.0469027e-01   9.3522337e-01  -3.8896417e-01   4.4910583e-01  -8.2961864e-01  -3.7166695e-02   6.7035967e-01  -9.7270672e-01   5.6259635e-01   2.4015825e-02  -6.3450914e-01   9.5853529e-01  -8.9966285e-01   7.8896436e-01   8.4454422e-01  -6.5798483e-01  -3.1109086e-01  -2.2649249e-01  -2.9626880e-01   8.8425505e-01  -7.0908945e-01  -9.7087137e-01   1.2538819e-01  -3.7610702e-01  -9.0907594e-01  -6.2843061e-01  -6.2012256e-01  -5.4082835e-01  -5.0976762e-01  -6.6430529e-01  -7.3551151e-01  -3.9351232e-01  -4.7900190e-01   4.9828567e-02  -7.5545628e-01  -1.9299633e-01   3.1205204e-01   4.5313949e-01   4.8490301e-01   9.8835698e-01   3.6017590e-01  -7.8959985e-01   6.9668381e-01  -3.2558195e-01   5.0182219e-02  -5.5487013e-01   4.4184808e-01  -7.5380040e-01  -2.7419904e-01  -4.6000547e-02   5.8657454e-01  -7.2963347e-01   7.3127715e-01   7.1479602e-01  -2.8987553e-01  -6.9879967e-01   4.7556303e-01  -1.6758485e-01  -6.9077905e-01   9.7382135e-02   2.6824491e-01   3.6908053e-02   2.1070892e-01  -9.7821613e-01  -6.9384846e-01  -2.6095962e-02   2.6267491e-01   2.2705321e-01   8.8036257e-02   9.9367646e-01   2.7108784e-01   3.3114100e-01   4.0524765e-01   9.6528061e-01   8.6003931e-01   6.4149305e-01  -6.7345578e-02   3.8399293e-01   2.7989268e-01  -2.5019952e-01   9.8287237e-01   9.0921756e-01  -4.4248969e-01  -3.7193798e-01  -5.0945650e-01  -5.6312437e-01   6.2516882e-01   4.9290381e-01   5.2431772e-01  -3.7663553e-01  -2.7513746e-01   9.2479294e-01   4.1103004e-01   8.8787361e-01   1.1650650e-01  -3.9639933e-01  -2.5589616e-01   9.3091985e-01   3.1329135e-01   2.9326949e-01   5.7119570e-01   5.0602991e-01  -9.1018439e-01   3.3287166e-01  -4.1431393e-01  -6.5634563e-01  -9.9467804e-01  -7.6264941e-02   1.3752974e-01  -1.1896661e-01  -7.5014727e-02  -7.4038793e-01   7.1951553e-01  -5.5653985e-01  -7.8344013e-01   9.5666744e-02  -3.3805722e-01  -6.0193480e-01   1.8945822e-01  -5.2381574e-01  -9.7711842e-01   5.9758372e-01  -1.7664510e-01   1.5204613e-01  -6.3990949e-01  -1.4083436e-01  -9.2765495e-01  -3.3750149e-01  -4.5382970e-01  -8.4300459e-01   5.7975951e-03   1.9422216e-01  -8.5005110e-01  -8.7145131e-01   1.5524139e-01   7.9048281e-01   6.2660516e-01  -8.3234964e-01   2.1195373e-01  -9.3812879e-01   2.8959914e-01   1.1099721e-01   3.6407499e-01  -1.9643171e-01   7.9058091e-01   3.4015689e-01  -4.3919879e-01  -2.8231910e-01   7.8970355e-02   8.9793853e-01   7.5291871e-01  -2.1133164e-01   6.8873838e-01  -4.4418802e-01   3.2050811e-01  -9.6437704e-01   4.5034523e-01  -7.6570230e-01   8.4412563e-01   8.2146056e-01   9.3723552e-01  -7.2424926e-01  -2.5714466e-02   5.1307506e-01   4.5350456e-02   3.8326683e-01   2.1323502e-01   3.4654736e-01  -7.0452335e-01  -2.5706724e-01  -3.4916757e-01   9.0061827e-01  -5.2746658e-01  -6.7661206e-02  -4.8788060e-03  -6.2308714e-01  -6.2370211e-01   1.3069265e-01   6.1818625e-01  -1.6688235e-01  -9.8651034e-01   2.1085630e-01   8.8361460e-01   7.0569276e-02   1.8697958e-01  -5.9752607e-01  -4.4421822e-01  -5.7446812e-02   1.2167539e-01   6.9376326e-01   8.7035710e-01  -4.6289821e-01  -1.2473761e-01  -7.7706747e-01  -4.2855612e-01  -8.0686119e-01   5.7263963e-01  -4.8195434e-01   8.6433266e-01  -2.3073303e-01   1.8463182e-01   8.2500258e-02  -4.1733804e-01  -7.0859160e-02  -6.7794205e-01  -7.2111502e-01   9.4315926e-01   8.3361473e-01   6.7854517e-01   1.1124944e-02  -7.5799657e-01   7.0593512e-01   4.9139476e-02   8.7140715e-01  -5.0644835e-01  -9.3084427e-01   1.2518855e-01   2.7603893e-01   7.1938213e-01  -5.2992295e-01  -4.1018260e-01  -9.9652859e-01   8.1732780e-01   3.0112955e-02  -5.4445659e-01   2.4816177e-01   9.6913806e-01  -4.7362893e-01   8.5432558e-01   6.6684059e-01   6.2036049e-01  -5.8791369e-01   3.8380595e-01  -4.6857489e-03  -1.6178436e-01  -5.9376969e-01  -5.9938999e-01  -3.0035315e-01   4.6504602e-01   3.0209932e-01   6.8029139e-01   6.7907635e-01  -5.0748578e-01   4.8071672e-01   9.7311845e-01  -6.5428536e-01   2.2795698e-01   5.8525882e-01  -6.9398727e-01   7.4397753e-01   2.0998101e-01  -1.6140427e-01   7.6329045e-01   8.6410691e-01   1.9346239e-01   3.4017277e-01  -7.8905076e-01   7.4513381e-01  -1.3086023e-01  -9.6403546e-01   3.0534513e-01  -9.7821071e-01  -2.2649657e-01   9.8865617e-01  -4.6802701e-01   8.1322678e-01  -2.9003159e-02   6.3243949e-01  -5.5407261e-01  -3.9859739e-01  -5.7324732e-01  -2.8252736e-01  -7.2061481e-01  -7.4098724e-01  -4.8403311e-01   4.6980711e-01  -9.2703879e-01   1.7750009e-01   7.9953270e-01   8.9607184e-01   7.5321070e-01   1.5508860e-02   4.7235343e-01   7.3368297e-01  -8.5915458e-01   7.8243608e-01   2.3134457e-01   3.8115585e-01  -2.5544568e-01  -9.6707215e-01  -8.1675994e-01  -4.4882408e-01  -5.9830766e-01   2.7941042e-01   4.5544031e-01  -8.4937677e-01  -2.7899108e-02  -1.2085197e-01   2.4195897e-01  -3.8170684e-02   9.8960328e-02  -5.2058966e-01   3.7560868e-01  -9.1778622e-03   2.2351136e-01  -6.9761129e-01  -7.1529223e-01  -5.1421479e-01  -7.4466789e-02   9.4693116e-01  -3.8509542e-02  -9.5502380e-01   1.2246728e-01   7.1486473e-01  -6.0726209e-02   9.5336980e-01   5.2144568e-01   1.8468106e-01  -9.0433200e-01   9.0796169e-01  -6.4561966e-02   1.4965320e-01   1.5133239e-02   3.3669588e-01   7.1076905e-01  -3.6641394e-01  -5.4277939e-01   7.7621190e-01  -6.0611714e-02  -3.6260727e-01   4.7555980e-02  -6.0206867e-01  -5.2546134e-01  -3.9677551e-01   2.4673005e-01  -4.7320693e-01   9.2055562e-01   5.5434489e-01   2.4380652e-01  -2.7986238e-01  -6.4598761e-01  -9.5127711e-01  -5.7480302e-01   5.3771393e-01   6.9188248e-01   2.6518949e-01  -6.6589835e-01   4.3378501e-01   6.6107048e-01  -3.3275084e-01   6.4486861e-01   5.0365554e-01  -4.7067334e-01  -5.5550068e-01  -5.3325035e-01   9.8060684e-01   5.1346247e-01  -1.3089309e-01   4.4146841e-01   5.1838808e-01  -5.0401278e-01  -3.6294889e-01  -1.4794659e-01  -9.5232892e-01  -9.8671047e-01   2.3462302e-01  -9.7459224e-01  -6.6524798e-01   4.9560556e-02   3.7300987e-01   6.7464504e-01  -4.0535969e-01  -2.3012898e-01   1.5766669e-01   1.3566407e-01   1.9919982e-01   4.4874375e-01  -5.9271011e-01  -7.3126607e-01   5.1410979e-01  -2.7096171e-01  -5.4041527e-01  -2.1241411e-01  -3.6910816e-01  -4.8031204e-01   1.8452223e-01   8.5854374e-01  -1.0119821e-04   3.5092482e-01  -6.8613099e-01  -5.2482447e-01   7.1840113e-01   1.6407124e-01  -3.6920342e-01  -6.3651775e-01  -8.0859513e-01  -2.8788298e-01  -9.1828382e-01  -2.1034925e-01  -1.3457398e-01  -4.7417074e-01  -3.5167164e-01   3.2466017e-02   8.9772164e-01   6.8382337e-01  -3.7002089e-01   2.8852008e-01   5.4694847e-02   7.8312384e-01  -9.3470987e-02   1.7752508e-01  -1.9953112e-01   7.2236621e-01   9.9404017e-01   1.1149232e-01   8.3485646e-01  -5.4897768e-01   2.9322055e-01  -5.9231992e-01   7.5511719e-03   1.6837911e-01  -7.8598282e-02   5.9258763e-02   1.4264652e-01   2.1611857e-01  -7.1807550e-01  -6.0671360e-01   4.5215970e-01  -8.2399618e-01  -1.9533735e-01  -9.6380683e-01  -8.3286113e-01  -7.1834994e-01  -7.5169340e-01   2.0349620e-01  -8.1864653e-01  -6.3530715e-01   1.3155276e-01   3.3547593e-01   7.2021699e-01   5.7689740e-01  -7.3498502e-01   8.1877989e-01   1.0115428e-01  -8.9210871e-01   1.8053811e-01   2.2031719e-01  -1.8407560e-01  -3.6105960e-01  -3.5698757e-01  -5.6975319e-02  -7.7952396e-01   1.0680869e-01  -8.2513438e-01  -5.8842656e-02  -4.1981136e-01  -7.9867461e-02   6.2014584e-01   5.3609641e-01  -2.5993770e-01  -8.5395879e-01  -1.5976037e-01  -8.8186903e-01  -8.6441827e-01  -2.0727769e-01   1.2481504e-01  -3.5184804e-01   6.7781812e-01   8.8333331e-01  -1.6568221e-01  -7.9642910e-01  -4.8175271e-01  -7.0984497e-01  -5.8842116e-01  -2.2402965e-02   9.4134420e-01   4.6151036e-01   8.7473842e-01   5.2032672e-01  -9.0958870e-01   7.8892363e-01   8.5097521e-01  -2.2193424e-01   3.1270481e-01   1.9516769e-01  -8.4605708e-01   5.0683083e-01  -6.0086988e-01   7.8268244e-01   3.5454107e-01   7.4087821e-02   6.8315995e-01   3.5456150e-01  -8.9455894e-01   9.0965075e-01   1.3639152e-01   1.4510635e-01   4.6299978e-01   2.8802595e-01   4.8405044e-01  -7.7543866e-01  -5.4938379e-02  -1.3441330e-01   4.3758977e-01  -4.4192398e-01   8.7506594e-01  -9.2548814e-01   8.2621196e-01   1.3375916e-01  -6.5703603e-01   7.9906546e-01  -7.6944764e-01   6.2389974e-01  -3.5912821e-01  -9.0315354e-01   1.6200734e-01   6.2878247e-01  -2.5955703e-01  -1.0683358e-01   2.9125626e-01  -7.2123811e-01  -7.6535746e-02  -9.8566462e-01   4.9370675e-01   9.0635188e-01  -3.4855015e-01  -2.7869345e-01  -8.3196216e-02  -5.3911208e-03   6.8713051e-01   1.7344103e-01  -6.1223282e-01  -7.2441532e-01   6.0251370e-01  -2.9071944e-01   5.0953963e-01   4.2773904e-01  -1.0088376e-01   2.8814448e-01   7.4620971e-01   2.1196660e-01   9.2679092e-02  -9.5274542e-01  -6.5177220e-01  -4.1500398e-01  -8.5425504e-01   4.8736887e-01   3.8724823e-01   3.9695510e-01   8.2977752e-01   6.3282067e-01  -9.4138189e-01   2.5839957e-01  -4.3553957e-01   5.7702815e-01  -1.8238937e-01   9.7277335e-01  -1.3280777e-01   1.8139428e-01   9.1691795e-01   7.0922503e-01  -1.8090379e-01  -9.6655107e-01   4.3669259e-01   9.7377429e-01  -1.3270422e-01  -4.0189206e-01  -8.9737910e-01  -2.9873089e-01   2.4764419e-01   5.3097432e-01  -3.9596855e-01   2.4349517e-01   1.1154441e-01  -2.0362346e-02  -3.4351889e-01   4.6992151e-01  -2.7538911e-01   9.3368511e-01   4.6360817e-01   3.7610498e-01   6.7482563e-01  -2.6641122e-01  -9.5105387e-02   3.1514187e-01  -3.0715167e-01  -7.1582262e-01   3.9394699e-01   1.3828408e-01   4.8981347e-01  -6.1085728e-01   5.0947197e-01  -4.9002453e-01  -2.8363330e-01  -3.7013846e-01  -4.1695427e-01  -9.4498111e-01   6.5346356e-02   5.8538236e-02  -9.6689719e-01   3.6721818e-01  -3.9763851e-02  -2.6765735e-01  -8.2742358e-01  -4.9186418e-01   6.5126166e-01  -8.9627658e-01   6.5192783e-01  -4.5345368e-01  -2.4893562e-01   2.2747144e-01  -8.3212673e-02   6.5790835e-01   5.9562485e-01  -8.2493890e-02  -2.6315182e-01   5.9065904e-01   2.9691338e-01   2.0476784e-01   2.9842603e-01   4.9246493e-01   3.5650410e-01  -6.1245429e-01  -6.8965911e-01   9.9175100e-02  -6.4580500e-01  -8.8112815e-01  -5.8940014e-01   1.6679913e-01   4.8567687e-01  -9.9801834e-01   4.3206850e-01  -3.2575712e-01  -6.3019820e-01  -8.2237416e-01  -5.7857988e-01  -8.6276235e-01  -3.8830185e-01   7.0993933e-01  -7.8220853e-01   8.0600439e-01   1.9579404e-01  -8.8070222e-01   3.1356863e-02   8.2582577e-01   2.8585629e-01  -8.3285007e-01   6.1169878e-01   7.4388102e-01  -9.5051000e-01   8.8556135e-01  -4.7879119e-01   4.1283624e-01  -7.8283971e-01   5.4573946e-01   8.0201802e-01  -5.2900926e-01  -1.5227926e-01   5.7697083e-01  -8.1179381e-02  -8.1854258e-01  -2.6086597e-01   4.8387791e-01  -4.2207217e-01   9.6265441e-01   5.4930478e-01  -9.4320126e-02  -6.2217317e-01  -4.2283535e-01  -5.5877865e-01   3.9273011e-01   6.4666607e-01  -8.8600411e-01   9.8854117e-01   7.3165725e-01   8.5822607e-01  -1.1335139e-02  -9.6258929e-01  -6.5049028e-01  -8.2528404e-01   3.0123593e-01  -1.2742268e-01   1.3095467e-01   4.6323084e-02  -9.7261789e-01   2.8812828e-01   1.9161205e-01   5.0269213e-01  -8.4451597e-01   9.6113420e-01  -9.6791911e-01   3.6931269e-02   1.1603324e-01   3.0832360e-01  -6.1445417e-01  -7.3158857e-01   1.2251241e-01  -7.4709370e-02   1.1073170e-01   5.9267226e-01  -9.2216259e-01   4.5826277e-01   7.0205713e-01  -2.9566181e-01  -8.9410234e-01   4.7256174e-01   3.1753196e-01  -7.6964633e-01   1.1062134e-01  -5.0042706e-01  -6.5190611e-01  -9.2732379e-01   6.1046636e-01   2.1283766e-01  -2.8507102e-02   1.9262579e-01   3.0997157e-01   3.0153613e-01  -7.0119847e-03  -2.5550041e-01   1.6185737e-01  -1.3541302e-01  -9.6156196e-01   3.8129564e-01   2.6750536e-01  -1.7629309e-01   8.5092429e-01  -2.7892557e-01  -3.1770716e-01   7.4005192e-01  -2.3150252e-02  -6.2011876e-01  -6.3215755e-01   3.7393607e-01   2.2644355e-01   1.1022263e-01  -9.9389543e-01   8.5895324e-01   1.6530725e-01  -6.2404890e-01  -5.4975678e-02   4.0316543e-01  -6.4331359e-01  -9.8445506e-01  -2.1320928e-01  -1.9176471e-01  -5.7606354e-01  -8.5540733e-01  -5.0966828e-01   6.2811084e-01  -2.9718694e-01  -6.5128180e-01   1.3580808e-01  -5.2217717e-03  -9.5177924e-01  -1.1006068e-01   8.2380074e-01   1.4552147e-01  -3.1771622e-01   1.2120153e-01   2.1280053e-01   4.9185693e-01  -3.0425276e-01   1.3285735e-01  -7.7104189e-01  -9.0550341e-01  -1.8639592e-01  -5.8980431e-01   4.1531789e-01  -3.7414314e-02   8.3201588e-01  -7.7911685e-01   3.3852202e-01   6.5623104e-01  -3.9709891e-01  -1.4065172e-01  -8.0957533e-01  -5.9256730e-02  -1.2237139e-02  -3.3531753e-01   8.8923546e-01  -9.7192373e-01   3.7102199e-01   1.3085162e-01   4.7549768e-01  -1.1554025e-01   6.0898332e-01  -3.4649412e-01  -1.1422922e-01   4.0652499e-01   1.5519266e-01  -7.9864298e-01   9.4409603e-01  -8.0828659e-01  -3.2924129e-01   5.7666209e-01   8.5115374e-02  -9.0434687e-01   6.8544520e-01  -1.0773546e-01   2.2796071e-01  -3.6310310e-01   5.1410656e-01   8.5175699e-01   2.7202824e-01  -3.5269961e-01   9.8342087e-01  -6.0571638e-01  -6.8868627e-01   9.9847296e-01   2.2839189e-01  -3.5411672e-01  -7.1797587e-01  -9.9511287e-02  -8.5946141e-01   4.7875796e-01   6.2763691e-01  -2.5440439e-01  -7.4928365e-02   4.1630685e-01  -8.9223489e-01   7.3454183e-01  -9.7458383e-01   4.9251428e-01  -4.6150221e-01   8.3992665e-01  -1.7921578e-02  -5.2595540e-01   8.0227944e-01  -4.7785619e-01  -9.7046890e-01  -1.6458049e-01  -8.8127266e-01  -6.4114135e-01  -4.3987735e-01  -6.1499796e-01  -3.0669280e-01  -7.9277463e-02   5.2132982e-01   9.2021517e-02   7.7861324e-01   7.8501377e-01  -8.8622227e-02   7.1853446e-01  -5.5869478e-01  -4.2174977e-01   6.3070033e-01  -4.4673404e-02  -5.2040645e-01  -1.3987410e-01  -4.4793632e-01   9.8910105e-01  -1.0629574e-02   3.0036907e-01   4.9231401e-01   3.0353314e-01  -6.0015205e-02  -2.5408055e-01   1.2831697e-01   9.0478788e-01   5.3192483e-02   8.4501063e-01   8.9493212e-01   1.0767915e-01   4.6058765e-01  -5.0479812e-01  -9.1264255e-01  -3.7387936e-01  -3.1492087e-01  -4.1828268e-01  -9.9818185e-01   9.5207383e-01  -4.7301750e-01  -9.3290938e-01   5.5963978e-01  -1.1221815e-01  -4.9185127e-01   8.8616175e-01   3.3138824e-02   5.3558290e-01  -2.7491179e-01  -8.8414259e-01  -8.5067423e-02  -7.1836403e-01   4.1687975e-01  -1.4132404e-01  -6.9900651e-01   3.1279100e-02  -9.4658337e-01  -3.0062922e-01   1.2314556e-01   4.3014277e-01  -1.5488774e-01  -7.4894776e-01   5.2924799e-01   7.5067299e-01   2.0295725e-01  -8.4054946e-01   7.1825265e-01  -3.9560289e-01  -5.9362615e-01   9.1054410e-01   8.4938581e-01   2.2990798e-01   5.7707363e-01  -4.9760653e-01   4.2019480e-01   8.8716688e-02   3.0364256e-01   5.3899069e-01   1.3722852e-01  -9.0157264e-02  -2.5626375e-01   3.9608242e-01   8.7133436e-01   2.7460213e-01  -7.0248208e-01   1.5914535e-01  -9.7329719e-01   8.9509923e-01  -9.8489226e-01   1.9502355e-01   3.7003331e-01   7.7448332e-01   4.0771951e-02  -5.6139851e-01  -7.3913800e-01   2.1171136e-01
  -7.4955865e-01   5.6310149e-01   9.8048217e-02   7.2586720e-01   3.6229075e-01  -1.3711678e-01   9.3872501e-01   4.3911899e-01  -2.3658884e-01   7.2667850e-01  -9.9664233e-01   9.4611560e-01  -6.6524686e-01  -9.8947328e-01   6.4384335e-01  -9.6125906e-01  -3.4666553e-01  -4.3033341e-01   6.3505887e-01   2.7754479e-01   8.3089358e-01   2.0551206e-01  -9.9369626e-01  -5.7424085e-01   8.1262860e-01   2.6296521e-01   5.1947483e-01   4.4375382e-01   5.2264883e-01   7.4282021e-01  -9.3418527e-01   2.8941168e-01  -4.6955294e-01   9.5482442e-01  -1.8396679e-01  -5.0856930e-01   6.2981429e-01  -8.4429908e-01  -9.4935441e-01   5.9816034e-01  -3.0263844e-02  -7.5785347e-01  -3.8405274e-01  -8.4590402e-01   1.4150741e-01   8.9380755e-01   3.3301853e-01   2.0852054e-01   8.5340043e-01  -1.3006096e-01  -6.0041834e-01  -1.7903662e-01   9.3347405e-01  -1.8174178e-01   7.6582218e-01   4.4390962e-01  -5.8181254e-01   7.4512306e-01  -2.4001978e-01   5.3447095e-01  -7.0904889e-01  -7.0917468e-01  -2.4023456e-02   7.8012464e-01  -2.0738858e-02   9.2672184e-01  -2.1994348e-01   1.8972233e-01   9.5831908e-01   6.6209518e-01  -4.2877131e-01   9.5555835e-01   1.8635273e-01   3.7044509e-01   9.2279764e-01   1.3968850e-01  -7.2237109e-01   4.3664186e-01  -3.9931841e-01  -4.6961067e-01   8.9034578e-01   2.9776288e-01   8.8731099e-01   6.1776025e-01   1.5210725e-01  -8.0719488e-01   1.6338769e-01  -7.8011326e-01  -2.0088978e-01   9.2931037e-01  -5.2389537e-01  -5.1506768e-01  -2.3529295e-01   5.8161654e-01  -1.2275003e-01   7.0647107e-01   9.5437118e-02  -3.8781871e-01  -9.3064939e-01   6.8017882e-01  -5.0482030e-02   8.0164458e-01  -7.9748591e-01  -1.6005592e-01   8.7314527e-01   2.9342437e-01   6.4072422e-01   2.9240488e-01  -8.2213039e-02  -6.8111749e-01  -4.6783504e-01  -5.1797427e-01   7.7086145e-01   4.3077408e-01  -3.2586679e-01   3.2589382e-01   8.0029952e-01   7.5669767e-01  -2.5239068e-01  -7.1531714e-01  -4.1695087e-01   3.9063926e-01   9.5121492e-01  -8.8989943e-01   5.8411379e-01   4.6628637e-01  -3.7677747e-01  -1.7308824e-01   6.2899272e-01  -6.7692772e-01  -2.3563716e-01  -1.2026720e-01  -2.0510288e-01   3.8833530e-01   8.7182246e-02  -9.7253774e-01  -3.6176315e-01   9.7779207e-01  -8.1499076e-01  -3.4927183e-01   9.4891805e-02  -9.6410623e-01  -9.0474387e-01  -4.2205052e-01   3.2046993e-01   6.9552119e-01  -8.9569822e-01  -4.5845450e-01   7.0108267e-01  -8.7739549e-01   6.4564347e-01  -7.3303195e-01  -5.7705037e-01   9.5268753e-01   9.5987028e-01  -9.4681927e-01   6.6671498e-01  -1.8725203e-01   4.3955175e-01   8.5567830e-01   2.8162145e-01   9.5957443e-01   3.3706196e-01   2.4499475e-01   1.0331904e-01   3.2179086e-01   4.4831670e-01   3.1848677e-01   7.4469771e-01   9.8353350e-02   8.0331969e-01  -3.0784911e-01   2.3752256e-01   6.2221190e-01   9.4847028e-01   7.4209140e-01   2.2869778e-02   8.2083960e-01   8.5221682e-01  -7.7808189e-01  -6.3289756e-01  -3.6756978e-01  -5.9055943e-01   1.6307701e-01   3.7221078e-01  -8.7557650e-02  -5.7672531e-01   6.4750484e-01  -9.9276371e-01  -1.1842516e-01   7.3475630e-01   1.4358067e-02  -9.4643373e-02  -5.7027352e-01   3.4256471e-01   7.7540030e-01   1.1635128e-01   2.2527438e-01   4.8052490e-02  -1.9568846e-01  -6.9200658e-01  -1.8132080e-01  -3.7078760e-01   3.3810925e-01  -7.1260065e-01  -9.2117881e-01  -7.3987356e-01  -3.9116477e-01  -5.5943707e-01  -4.4037571e-02   7.1142198e-01   4.7070119e-01   2.1030264e-01   2.9749719e-01  -6.7531601e-01  -7.0126025e-01  -7.7413565e-01   3.3597160e-01   4.7443568e-01   3.0303954e-01  -8.5674891e-01   2.8513626e-01   1.4633429e-01  -9.2331629e-01   2.3057873e-02   6.1485879e-01   1.9153049e-01  -9.9942619e-01  -8.2530429e-01  -5.5591791e-02   6.5669598e-01   1.1474435e-01   7.0950598e-01   5.0298931e-01   2.1444102e-01   2.8549704e-01   4.0744079e-01  -7.0769993e-01   3.4356877e-03  -8.6593458e-01   6.2993194e-01   4.8742731e-01   9.3601149e-01   8.7680262e-01  -6.5437813e-01  -9.9334181e-01   6.2253503e-01  -2.6694109e-01  -7.2581395e-01  -4.4445162e-01   1.4223462e-01   3.4371539e-01  -5.4390815e-01  -9.3545971e-01   1.7739177e-01   8.4650800e-01  -2.0151399e-01  -2.2373904e-01  -1.3350726e-01   7.6947487e-01  -6.1096945e-01   7.2340678e-01  -9.4741247e-01  -8.8048544e-01  -7.1647551e-01  -7.3113350e-01  -9.8931838e-01   8.5859154e-01  -1.0603329e-01  -8.8454023e-01   2.7944980e-01   6.8436191e-01   5.0020836e-01   5.5125318e-01   6.7003435e-01  -6.7817497e-01  -7.6644913e-01  -4.1370260e-01  -4.1140809e-01   2.2811444e-01  -1.7617986e-01  -6.3112267e-01   2.8191557e-01  -3.2095273e-01  -5.7017119e-01  -1.8335650e-03   8.9905077e-01  -3.3832377e-01   1.1638898e-01  -7.2321517e-01   2.5572695e-01  -9.7458594e-01   4.0045891e-01  -8.7125252e-01   3.9876176e-01  -3.2058199e-01   2.1482063e-01  -9.4256151e-01   8.0705077e-01   9.0519139e-01   5.5575308e-01  -2.6799528e-01   8.3252358e-01  -3.2554036e-01  -1.7587709e-01  -3.8873560e-01  -4.1478124e-01  -8.6425904e-01   8.3295209e-01  -1.2031618e-01   5.4943759e-01  -1.1960194e-01  -1.0174435e-02   7.9640462e-01  -8.9915353e-01   2.1536797e-01  -5.7345121e-01   5.8829264e-01  -6.9584416e-01   8.3792061e-02  -5.9464772e-02  -8.7543373e-01  -4.0982726e-01  -7.2806753e-01   5.0451484e-01   9.5310705e-01   5.7797870e-01  -8.5625988e-01   4.1505786e-01   3.6800197e-01  -5.5877297e-01  -2.3100357e-01   1.5311935e-01   7.0936313e-01   7.7271498e-01  -3.4521176e-01  -5.6080064e-01  -1.2572437e-01   5.7394460e-01  -9.9109845e-02   7.8169108e-01   2.2309276e-01  -9.5736324e-02  -4.1408203e-01  -7.0946887e-01   6.9516205e-02  -7.5357548e-01  -3.9289381e-01   8.9685011e-01  -9.0519107e-01   2.3569098e-01   1.5798047e-01  -3.0024351e-01   1.7190746e-01   7.1176963e-01  -6.7290975e-01  -6.7846442e-01  -3.1605618e-01  -9.3858173e-01  -1.5205630e-01   1.0157601e-01   7.0289865e-01   1.4405238e-02   4.7271447e-01  -2.6248905e-01  -9.5170170e-01  -4.9272883e-02   3.3532817e-01   4.2715061e-01   7.3188409e-01  -5.2091626e-01  -9.2310028e-01   8.6045048e-01  -9.6311807e-01  -2.4413112e-01   4.3680827e-01   3.0418234e-01   8.5707890e-01   6.4476870e-01  -2.4206095e-01  -5.5687233e-01  -2.5235246e-01  -7.9960157e-01  -1.7703239e-01   9.3635954e-01   8.4915295e-01  -3.8794270e-02  -5.7065943e-01  -1.8790586e-01   9.5221417e-01  -3.9120259e-01   4.6425558e-01   1.8344778e-01  -7.7363792e-01   4.3653433e-03  -7.0003087e-01  -6.8385515e-01   9.4681618e-02   8.4121252e-01   6.3310044e-01   2.0489654e-01  -7.0235079e-01   5.5341568e-01  -1.8005628e-01  -5.7172294e-01   5.7280395e-01   5.0584376e-02  -7.8495554e-01   3.7581785e-01   3.2473625e-01  -3.2853906e-01  -4.0767999e-01  -6.2756235e-01   2.8044106e-01   4.6460637e-01  -7.3223182e-01  -4.9603727e-01   2.0840255e-01   5.2844705e-01  -4.8088857e-01   1.5739562e-01  -4.7447195e-01   1.8097797e-01  -6.0629793e-01  -6.6686559e-02   1.7445505e-01   5.9844949e-01  -5.3833216e-01  -7.5748374e-01   5.3673646e-01  -2.9321706e-01   6.0180938e-01  -7.3152395e-01   2.1185200e-01  -4.7964187e-01  -2.0888036e-01  -5.7410320e-01   7.7349399e-01  -1.3859348e-01   3.2535094e-01  -7.2549746e-01  -5.9760562e-01   5.2045979e-01  -9.3697326e-01   6.5602189e-02   1.6999061e-02  -3.3169042e-01   7.4998926e-01   1.4581948e-01   7.0258430e-01  -3.8953477e-02  -9.0783959e-01  -6.5345769e-01   2.0597326e-01  -6.5276013e-02  -9.0066670e-01   4.6622963e-01   3.5246893e-01  -9.2943393e-01   7.4165673e-02  -4.6318206e-01   5.1920075e-01   3.9440879e-01  -9.2278155e-01  -6.3162984e-01  -3.4641559e-01  -7.7958214e-01  -4.0769691e-01   8.7780420e-01   7.7125586e-01  -1.3391409e-01  -5.9691882e-02  -5.6862967e-01  -8.7841069e-01  -5.0972657e-01  -5.0726381e-01  -4.7797519e-02  -7.4127927e-01   2.7826063e-01   5.7242690e-01  -8.6974712e-01  -6.9850619e-03  -7.4789645e-01  -1.2180490e-01  -3.2847166e-02   5.0908418e-02  -5.4906699e-01  -2.8310442e-01   2.8809136e-01  -8.6482947e-01  -6.3566170e-01  -6.5410893e-02  -5.6468486e-01  -3.8246204e-02   9.1212683e-01  -5.6541951e-01  -8.8659919e-01  -5.5359278e-01  -4.6985098e-01   7.7472359e-01  -2.8886172e-01  -4.6471163e-01  -1.4540970e-01  -6.0796223e-01   5.2088731e-01   3.5567854e-01   6.7343277e-01   7.6018051e-01   8.9987739e-01  -3.9210198e-01  -6.0215015e-01   7.3497478e-01  -7.5184639e-01  -4.4471316e-01  -7.2317707e-02   5.1417104e-01   4.0460055e-01  -5.4736046e-01   4.8318777e-01  -5.1129199e-01   5.8688264e-01  -3.1959559e-01   1.4864679e-02   7.7215649e-01   6.8565499e-01   8.7697718e-01  -5.1012643e-01  -6.7432626e-01  -4.3130011e-01   8.8532850e-01   7.3990397e-02  -5.0621511e-01  -7.9107940e-01   3.2089197e-01  -5.9432254e-01  -1.5825258e-01   1.5960057e-02  -8.5650906e-01   5.8013476e-02  -5.9425828e-01   9.4130658e-01  -5.0151366e-01  -6.2508252e-01  -8.9880651e-01  -2.6863589e-01   2.2574175e-01   4.7302303e-01  -9.1823025e-01   1.5367684e-01  -4.9635935e-01  -3.2424726e-01  -7.2559187e-01   9.9412261e-01   2.8120891e-01   4.4095481e-01   1.7515770e-02   6.4601151e-01   8.1373724e-01   4.2467149e-01  -1.5496998e-01  -6.7180369e-01  -7.9329935e-01   2.5664132e-01  -2.0143748e-02   3.1767923e-01  -9.0407260e-01  -6.5757092e-01   6.1292237e-01  -6.1297919e-02  -8.3886505e-01  -9.9569068e-01  -4.5068790e-01   5.0365013e-01   7.5247481e-01  -3.0261703e-01  -2.7582548e-01  -9.0673145e-01   8.7933470e-01  -1.4586302e-01  -7.2275222e-01  -7.0623841e-01   7.7216430e-01  -7.4105313e-01   3.9793128e-01  -9.9572501e-01  -5.6516969e-03   1.7469451e-01   2.3891296e-01   9.2389244e-01  -8.3974019e-01  -6.8189184e-01   8.1245748e-01  -8.3431203e-01   9.9152646e-01  -3.0303401e-01  -8.2812443e-01  -1.9280046e-01  -9.0419606e-01   2.9085693e-01  -8.3142396e-01   6.6941804e-01   1.4369457e-01  -5.9725106e-02   7.9231183e-01  -3.5230006e-01   5.6276065e-01  -8.0048506e-01  -9.9566736e-01   7.0404978e-01   9.9915216e-01  -3.1763644e-01   2.0007298e-01  -6.2482411e-01  -1.3811571e-01  -2.7642236e-01   9.7590222e-01  -8.7487809e-01  -4.3732930e-01   5.1699220e-01  -9.7572868e-01   3.7448921e-01   3.9756019e-01   8.3889328e-01  -3.6112903e-01  -1.4611783e-01   7.0461642e-01   2.8359676e-02   1.3266164e-01  -7.1754761e-01   3.7032904e-02   2.1406761e-01  -7.7942511e-01  -5.4529176e-01   1.1615854e-01   2.4028577e-01   6.5777096e-01  -4.6259768e-01   6.1721765e-01  -8.7517448e-01   9.3700250e-01  -5.8907089e-01  -7.7802677e-01   5.8690158e-01   7.7291826e-01  -3.0859733e-01   1.2786286e-01  -6.6341506e-01  -3.8982493e-01   2.2487835e-01   6.2013959e-01   5.5733836e-01   9.2461325e-01   7.7318672e-01   3.5035228e-01   6.6266241e-02  -8.0884722e-02   9.4708664e-01  -9.1970786e-01   7.1957313e-01  -1.3169162e-01   1.2079849e-01   3.6200691e-02  -7.4412091e-01   5.1174197e-01  -7.2575656e-01  -1.6689975e-01   2.1954661e-02  -9.6132291e-01   9.5274685e-01  -6.2544059e-01   3.3538922e-01  -6.6592509e-01  -4.3298751e-01  -8.2169557e-01   9.4615744e-01   6.6046334e-01   1.7730139e-01  -3.9955815e-01  -9.3569193e-01  -9.5696014e-01   5.8916610e-01   3.4705325e-01  -4.4311581e-01   5.1425789e-01   3.1919609e-01  -6.4078094e-01  -7.6716960e-01   3.3727320e-01  -5.3598803e-01   7.7950520e-02  -8.5655297e-01  -1.6728057e-01  -9.1508830e-01   9.0043464e-01   7.0906041e-01  -7.5481422e-02   7.1428630e-01   1.6312828e-01   2.8933761e-01  -9.4089425e-01   9.6161193e-01   9.1069205e-01   4.2758247e-01  -2.4740417e-02  -3.0508796e-01   1.3997145e-01  -8.5398476e-01   4.8474916e-01  -2.5329604e-01   7.4730399e-01  -5.0127220e-01  -3.1843411e-01   4.8812795e-01  -8.1524802e-01  -3.0459380e-01   3.8110409e-01   5.7319055e-01   9.1418675e-01  -8.6439787e-03  -7.5141720e-01  -4.1199162e-01  -3.7023446e-02   5.8867187e-01   4.6657585e-01  -5.2799151e-01  -5.6573543e-01   9.8145671e-01  -7.9586794e-02  -5.5659696e-01   1.3142969e-01   9.9725978e-01   9.2959910e-02   1.2300598e-02   2.4367774e-01   9.7899651e-01  -5.5889645e-01   9.5435480e-01   7.7957435e-02   2.1355641e-01  -7.7673493e-02   2.0478766e-01  -7.3268795e-01  -5.1614179e-01  -9.1339798e-01   9.6908059e-01   4.6998185e-01   9.5354272e-01  -5.1200124e-01  -2.2007205e-02   9.0707287e-01  -4.3135168e-01  -8.7227983e-01   5.0253387e-01   6.8677871e-01   6.9887895e-01   6.8867825e-01   6.6981722e-01   7.5646637e-02   9.6127060e-01  -4.8514112e-01   7.5934108e-01  -4.0020341e-02   3.1666523e-01   2.1827940e-01   3.2729636e-03   8.2032800e-01   9.5009899e-01  -1.7227884e-01  -9.1391079e-01  -9.8833692e-02   4.2052329e-01  -6.4787895e-01   1.8793038e-01  -1.0704433e-01  -4.6021427e-01   4.4044648e-01  -2.7608980e-01   8.0351779e-01  -6.0356505e-01  -3.8961389e-01  -3.8950586e-01   6.1523369e-01   8.8481159e-01   4.4814378e-01  -5.5513795e-01  -1.7460307e-01  -3.9059881e-01  -6.8407695e-01  -6.8237432e-01   7.4758481e-01   1.0760309e-01   5.8761124e-01   3.0763088e-01   9.0942298e-01   4.4499358e-01   3.0292782e-01   8.9192230e-01   2.2758651e-01  -9.5207885e-01  -1.0518896e-01   9.2285804e-01  -1.4679308e-02  -1.0088969e-01   5.6873317e-01   4.5192893e-01   3.5970197e-01  -6.6070360e-01   8.1694936e-01   6.9063674e-02   3.8894713e-01   9.1590821e-01   9.4061294e-02   5.4964192e-01  -2.9915733e-01   9.0048699e-01  -4.1173464e-01   5.3565674e-01   6.0181770e-02  -9.2209332e-01   7.9412009e-01  -7.0249698e-01   4.7871416e-01  -8.9165138e-01  -4.1547969e-01  -8.4732408e-01  -1.0659597e-01   8.1318560e-01  -8.2538981e-01  -2.2903709e-01  -7.9514949e-01   1.8326643e-02  -9.3875359e-01   1.9444350e-01  -1.2728550e-01  -9.9762940e-01  -3.2792701e-01   8.1007239e-01   6.7412235e-01   9.5025154e-02  -4.2633606e-01  -9.8203930e-01   9.9840614e-01  -6.9841985e-01  -1.4160937e-02  -9.8203236e-01   9.5595711e-01   8.0622305e-01   3.6395608e-01   7.9633325e-01  -8.5395504e-01   2.1047380e-01   3.5130511e-01  -2.9820455e-01   6.2345623e-01   7.2468345e-01  -7.6433482e-01  -1.7193431e-01  -9.0457282e-02   4.0136137e-01  -3.4687576e-01   7.7714720e-01   5.1722381e-01  -5.1246282e-01   5.3754042e-01  -9.3592046e-01  -9.8001747e-01   5.4419268e-02  -6.1737561e-01   9.6935156e-01   1.6962691e-01  -1.3712912e-01   8.1481144e-01  -6.0901794e-01   3.1671956e-01  -4.9073307e-01  -6.9522153e-01  -6.5532822e-01   1.4156825e-01   3.1204291e-01  -3.0475483e-01  -2.2291199e-01   4.3362169e-01   7.7141076e-03  -7.9465871e-01   1.2036316e-01   7.4755784e-01   2.2376553e-01  -3.0004164e-01   9.9123872e-01  -6.0565896e-01   1.9274235e-01  -3.7808671e-01   1.3435320e-02   6.5833427e-01  -3.4713567e-01   8.2255612e-01   5.8277613e-02   1.4064443e-01  -7.0597365e-01  -2.8889069e-01   3.5945086e-01   6.2969935e-01   5.3845021e-01  -4.8960010e-01  -8.9260416e-01  -8.1415764e-01  -2.5594112e-01   1.2455064e-01   2.5461672e-01   3.0113562e-01  -7.2341538e-01  -2.6649866e-01  -1.3847679e-02   7.4482476e-01   2.2386998e-01  -6.5869917e-01   5.5731687e-01  -6.6673137e-01   4.2310419e-01  -4.2173940e-01  -7.0866081e-01  -2.7819048e-01   1.2261295e-01  -4.7301651e-02  -4.5396826e-01   1.7122352e-01  -4.2995052e-02   6.8874890e-01   2.0548962e-01  -3.2899669e-01  -6.6987384e-01   3.9302291e-01  -4.6401157e-01  -3.7167295e-01   4.0083057e-01  -4.4693437e-01   3.9676393e-01  -4.6482261e-01   9.2379708e-01  -4.8564179e-01  -1.9583449e-01   2.9640593e-01   6.8276358e-01  -3.6108547e-01   2.9465322e-01  -8.2121614e-01  -7.4477204e-01   5.1897323e-01   6.6253215e-01  -9.2024131e-01  -9.5667484e-01   6.6861953e-01  -5.8294101e-01   5.3727637e-01   5.3979991e-01   8.1381516e-01  -1.6415776e-01  -1.3175004e-01   8.7797890e-01   9.6666983e-01  -5.0629883e-01  -1.6824223e-01  -9.3665094e-01   9.3550431e-01  -6.7027923e-01   5.3084377e-01  -4.5027364e-01  -4.4852177e-01   8.1183769e-01  -9.7090600e-01   8.3226176e-02  -8.4240966e-01  -7.2699037e-01   1.1683293e-01   9.5910314e-01  -7.1131018e-01   8.6191878e-01  -5.5697930e-01  -1.3684775e-01  -7.6604045e-01   2.5560643e-01  -7.4950174e-01   2.2670742e-01  -3.9279157e-01   4.2579907e-01   8.1024438e-01   2.9683178e-01   2.6058997e-01   5.8347151e-01   2.6859624e-01  -1.6761885e-01  -4.1578811e-01   4.7003816e-01  -2.9302532e-01   1.8113008e-01  -1.4603413e-01   8.3903418e-01   6.4557626e-02  -4.9374687e-01  -3.7848640e-01
   8.2218889e-01  -2.9560466e-01  -2.3863357e-01  -6.2032549e-01  -2.1721825e-01   3.9145053e-01   2.5241415e-01  -8.1424754e-01  -5.7447721e-01   6.8372903e-02  -7.5233430e-01   5.9013472e-01   3.1090963e-01   9.2106516e-01   4.8243915e-01  -1.9154063e-01  -7.0613506e-02  -9.2532687e-01   3.4824284e-01  -4.4056066e-01   9.4892122e-01  -1.8153706e-01   1.9399831e-01  -6.4944869e-01   4.0810861e-01   2.3563314e-01  -6.1858901e-01  -6.6119451e-01   5.8053124e-01   1.4025056e-02   9.7941314e-01   6.8423635e-02  -3.1949123e-01   6.5135515e-02  -9.5319225e-01  -2.0958786e-01  -8.4228919e-01  -2.2278667e-01  -8.2340275e-01  -6.6485215e-01   3.5622409e-01   9.2134919e-01   4.5023702e-01  -3.3315799e-01  -3.8327582e-01  -4.7935780e-01  -4.6080057e-01   9.5597463e-02   8.7177857e-02   5.4731970e-01  -5.0968709e-01  -7.5951219e-01   6.1180895e-01  -6.4497268e-01   7.8555602e-01  -6.1122942e-02  -8.6253100e-01   9.4208937e-01   1.3616718e-01   3.4938045e-01  -7.6544429e-01   8.2682099e-01  -2.7973720e-01   5.2359449e-01  -8.5632135e-01   3.9362443e-01  -6.6906902e-02   1.3974474e-01  -6.8924257e-01   8.5907706e-01  -2.4757805e-01  -9.1235522e-01  -6.0041053e-02   8.0091806e-01  -6.9635419e-01   6.0271306e-01   4.5746669e-01   7.0477423e-01  -9.4321263e-01  -3.0006915e-01  -8.4658739e-01   1.6060673e-01  -4.4013831e-01  -3.6528255e-01   2.0053324e-01   5.8740237e-01   2.9292397e-01   2.1627023e-01   3.2728797e-01   3.1572313e-01  -4.2673530e-02  -9.7442660e-01   5.8343594e-01  -4.8314795e-01  -8.8234672e-02   3.2831309e-01  -5.0584424e-01   2.5181570e-01   5.6654372e-01  -4.0507335e-02   6.4942127e-01  -9.5996780e-01   9.9243183e-01   7.2586152e-01   6.2936787e-01  -5.5653018e-01   2.8467595e-01   2.0635660e-01   1.5723430e-01   9.7172215e-01  -1.2939558e-01   1.4200774e-01  -3.1095790e-01   9.5126310e-01   7.6634369e-01   9.4837270e-01   4.8142782e-01  -1.0474514e-01  -4.2700250e-01   4.3212522e-01  -6.4621802e-01   4.6388046e-01   8.5015558e-01   8.3203063e-01  -9.4051874e-02   8.3383228e-01   8.2633783e-01  -4.4175560e-01  -3.7588227e-02  -1.5754447e-01   2.3621553e-01   1.7306563e-01  -5.6723088e-01   6.9360237e-01  -4.8288141e-01  -6.7211629e-01  -6.9573798e-01  -6.0027934e-02   2.8705718e-01  -9.9163853e-01   7.6879091e-02  -2.3825750e-01  -7.7720325e-01  -8.5576315e-01   6.3781049e-01  -2.3353358e-01   3.7824000e-01   9.8033298e-01   6.5404498e-01  -9.1940549e-01   7.7976463e-01  -4.3299988e-01   2.4876937e-01   7.3057740e-01  -3.9744580e-02  -6.2674248e-01  -4.1490482e-01   9.3494602e-01  -8.0734010e-01  -7.6894211e-01   1.0569715e-01  -1.8972782e-01  -4.1995994e-01  -4.4682426e-01  -2.7964192e-01  -7.7734289e-01   3.1085974e-01  -7.7161065e-01  -9.6462373e-01  -9.4665980e-01  -8.9051738e-01  -6.2565481e-01  -9.2734120e-01   4.3521572e-01  -4.7000236e-01   3.1394711e-02  -4.4061839e-01   4.5449203e-02  -4.0056012e-01   9.4732931e-01   5.7503646e-01   8.6659931e-01   3.9971173e-01  -5.3167316e-02   7.7198716e-01   7.4607524e-02   9.2197647e-01   8.4501113e-01   4.5296520e-01  -6.2971122e-01   2.5368982e-01  -1.8312591e-01   8.3615275e-01   8.1989242e-01   9.8078252e-01   8.7047381e-01   2.0789420e-01   1.0004346e-01   4.7056579e-01   8.7233115e-01  -5.7277547e-02   9.7540453e-01   7.5420727e-01   5.7854406e-01   4.6806418e-01   6.9460004e-01   3.7163118e-01  -2.3176597e-01  -6.6702644e-01  -1.2548027e-01  -5.7430515e-01  -2.0923425e-01  -3.7712563e-02  -8.1917089e-01  -1.0778573e-01  -4.6641444e-01   9.4561133e-01  -7.1401595e-01   6.0692591e-01  -7.3950676e-01   9.8410255e-01   5.3518953e-01   4.8120864e-03  -5.8814092e-01   7.3295194e-01   3.7110825e-01   5.8068580e-01  -4.8444447e-02   3.5875010e-01   1.7189431e-01   7.6363847e-01  -4.1385278e-01   9.6616783e-01   2.6729121e-01  -9.3080637e-01  -8.5934048e-01  -9.1652885e-01  -4.1046265e-01  -1.5824698e-02   8.8104598e-01   9.3426046e-01  -1.2309233e-01  -7.6839409e-01   6.4141272e-01  -8.8910031e-01   7.5753422e-01   6.3931315e-01   7.8984091e-02   9.2793968e-01  -1.2430475e-01   8.9744593e-01  -5.2250572e-01   8.0015789e-01   2.9808086e-01  -7.7854186e-02  -6.2952859e-01  -5.5749794e-01  -6.4552265e-01   2.6076115e-01   1.1395851e-03  -5.1236317e-01   7.4911134e-01   8.9660014e-01   6.4632281e-01  -9.8213383e-02   4.3564441e-01   6.8693993e-01   3.8358291e-01   2.6198069e-01  -5.0574131e-01   6.1541584e-01   9.5714959e-01  -4.4197981e-01  -7.8592480e-01   7.5251645e-01   3.8244006e-01   7.8681289e-01   6.4893644e-01   1.5587247e-01  -2.6892553e-01   6.3293878e-02   8.4470626e-01  -5.0492313e-01   2.3414229e-01  -2.2518989e-01   8.8768226e-01   5.7422622e-01  -5.7981463e-01   7.8020550e-01   7.7737624e-01   6.6815029e-01  -9.8720948e-01  -6.9945798e-01   4.5916521e-01  -6.7481019e-01  -2.7520541e-01   5.4619519e-01   1.5641700e-01   3.8583673e-02  -9.2297974e-01  -8.5580577e-01   4.4868781e-01   6.2112203e-02   5.9148037e-01   9.0129409e-02   3.7964657e-01   7.6100608e-01  -2.7002265e-01  -7.2599220e-01   7.7938886e-01   7.7917103e-01  -3.0772974e-01   3.7769066e-01  -7.6623727e-01   1.1577377e-01  -4.3574298e-01   3.6054871e-01   9.9292113e-01  -3.7899936e-01  -4.4393368e-01   2.7251266e-01   9.1171004e-01  -1.4341612e-01  -7.5916653e-01   7.8422974e-01   6.3083444e-01  -6.6949970e-01   8.3577884e-01  -7.8745370e-01   6.5249650e-01  -5.0785257e-01   6.1840771e-01  -4.3385960e-01   7.0869927e-01  -3.4160145e-01  -2.7339294e-01  -1.4232985e-01  -7.8547771e-01   4.8061520e-01   4.7365590e-01  -8.8398837e-01   1.2382695e-01  -6.9889402e-01   8.7224950e-02   6.4599458e-01   4.5488329e-01   6.5610425e-01  -7.2341192e-01   6.5346609e-01  -8.7697220e-01  -3.4459090e-01  -7.1393634e-01   3.8018921e-01  -7.0519797e-02  -5.2439073e-01  -5.3973586e-01   3.4516990e-01  -7.5536873e-02   3.6366369e-01   7.5125311e-01  -6.0255448e-01  -1.2664456e-01  -8.3693390e-01  -6.4214324e-02  -3.0978857e-01   6.6777713e-01   1.6067587e-02   3.5135795e-01   8.5987745e-01   8.9992602e-01  -4.2510373e-01  -6.1849172e-01  -1.7381115e-01   4.8747984e-01  -9.6014529e-01  -3.3003261e-01  -5.1082662e-01  -6.4187789e-01   5.5932571e-01  -4.8202381e-01   9.3916388e-02  -3.9530342e-01  -3.8653291e-02  -4.0985022e-01  -1.1659241e-01  -9.1134191e-01  -6.2052278e-01  -2.5508748e-01  -6.7127940e-02  -3.7591659e-01  -6.1278442e-01   4.1683910e-01   3.4770039e-01   6.8142322e-01  -7.1823106e-01   9.8237301e-01   2.3372990e-01   6.5703262e-01   5.8245361e-01  -7.7762958e-02   4.1604582e-01  -9.5843960e-01   2.9368258e-01  -3.1411932e-01  -3.9775233e-02  -1.2990739e-01   1.0565614e-01  -9.0707132e-02   6.1149642e-02  -3.0361978e-02   2.8689215e-01  -5.4647722e-01  -8.0491346e-02   9.4967417e-02   1.5619111e-01  -3.6264383e-01  -1.3950282e-01   6.8711838e-01  -6.7105599e-01  -4.9090291e-01   7.7046816e-01  -9.7652516e-01   5.9940494e-01  -5.5218621e-01   4.5782866e-01   2.8318887e-01  -7.3849119e-01  -3.4527235e-01  -1.6087400e-01   5.6760820e-01  -1.4417533e-01  -2.7020610e-01  -4.6770480e-01  -6.6630403e-02  -7.9621114e-01  -5.5677287e-01   4.6420615e-01  -7.7430069e-02   8.9467914e-01  -2.1104294e-01  -1.7607842e-01   4.0848690e-01   4.1508245e-01   2.1350945e-01   8.2180185e-01  -5.8686125e-01   4.8319093e-01  -3.7700331e-01  -8.6103244e-01   9.4060056e-01  -7.6969264e-01  -7.4196999e-01   5.9256674e-01   6.1671859e-01  -9.2661707e-01  -5.2705670e-01   2.1850578e-01   5.1024100e-01   6.2634894e-01  -1.9512779e-02  -3.5747052e-01   7.0905183e-01   6.5210838e-01   5.9460916e-01   7.5387698e-01  -3.1151185e-02  -8.8696077e-01  -3.0111762e-01  -8.7000855e-01  -1.5091392e-01  -9.1316208e-01  -5.6028337e-02   2.7672754e-01   6.9662770e-01  -4.5615577e-01   6.5691423e-01   6.1525054e-01   8.8635441e-01  -2.7366564e-01   8.6846526e-01   8.7039200e-01   9.2720036e-01   1.9092913e-01  -8.1274344e-01  -7.2387769e-01  -8.8024141e-01  -6.9945938e-01   4.0559390e-01  -2.4997057e-01  -5.2503145e-01   5.4852405e-01   2.0996330e-01   3.4962054e-01   1.3989573e-01   2.1589916e-01  -6.4903571e-01   8.9555567e-01  -6.4381154e-01  -2.1758488e-01   1.7154328e-01   5.6321153e-01  -2.4865993e-02   4.5691454e-01   2.7039151e-01  -9.6230513e-02   3.4264347e-02   7.6900175e-01   7.5640847e-01   6.0494206e-01   4.4575605e-01  -3.7361497e-02  -6.0134438e-01  -6.1567059e-01   3.5575152e-01  -1.4561811e-01  -8.4442935e-01   1.6338914e-01   8.5990398e-01   6.1662686e-01  -3.5577093e-01  -8.8540954e-01  -5.5497758e-01   4.4319284e-01  -1.7052461e-01   7.0124247e-01  -7.7907191e-01  -6.0188852e-02   5.4968509e-01   5.2853321e-01  -1.2353937e-01  -6.1132035e-01   7.5097916e-01  -2.6883429e-02  -2.3207337e-01  -1.4984816e-01  -3.6997458e-01   2.2584012e-01  -5.3926376e-01   9.2790827e-01  -9.0589380e-02   9.3941963e-01   4.3793214e-01  -1.7659394e-01   3.5354620e-01  -7.4380404e-01   6.1603280e-01   6.9382670e-01  -8.6834803e-01  -6.2789526e-01  -9.2921670e-01   5.3890837e-01   1.0232629e-01   7.6073256e-02   1.7491117e-01   5.4226337e-01   5.9399840e-01  -7.0994664e-02   9.6711284e-02  -8.2676163e-01  -6.4259959e-01   8.4780822e-01   9.3682052e-01   4.1353968e-01   8.1995213e-01   4.6036930e-01   6.3563170e-02  -8.7770056e-01   6.7263138e-01  -5.2902884e-01   2.8434576e-01  -8.9807528e-01  -1.2350533e-01   5.8059578e-01   5.5222724e-01   5.9317044e-01   4.2180564e-01  -6.0011174e-01   1.8179869e-01   4.8986419e-01  -2.9835575e-01   9.7894832e-02   7.4116122e-01   8.9702580e-01  -7.2066166e-01   4.1333574e-01   9.7856872e-01   8.4205805e-01  -5.7243098e-01   3.4876972e-01   5.3670547e-01   5.2753200e-01  -7.5892075e-01  -5.9859990e-02  -7.2703534e-01   2.3586009e-01   6.5759702e-01  -8.1914354e-01   1.4759915e-01  -5.1624099e-02   9.8934186e-01  -9.4043291e-01   2.6937015e-01  -6.2455211e-01  -4.3909834e-01   8.4017765e-01   4.5749695e-02  -6.4065922e-02   4.0733734e-01  -4.5667312e-02   6.5012683e-01  -7.8813230e-01  -9.4345761e-01   3.3537980e-01  -7.5913285e-01  -4.2959224e-01  -6.3313068e-01  -8.1268513e-01  -3.5223590e-01  -2.0460524e-01   2.0278060e-01   4.9290947e-01  -2.9855519e-01   9.9091842e-01  -8.8595884e-01  -4.6120930e-01  -4.4667423e-01   7.4361457e-01  -3.0093576e-01  -9.9179816e-01   1.1370637e-01  -4.6589205e-01  -1.5736407e-01  -5.6270321e-01  -8.1954314e-01  -7.7062627e-01  -3.2156939e-02  -4.3589305e-01   4.8972036e-01   6.4775494e-01   9.4039416e-01  -2.9765408e-01   8.4510913e-01  -9.9988524e-02  -7.1716893e-01  -7.3178535e-01  -9.9538670e-01  -1.3428041e-02   7.9541445e-01  -5.0206744e-01   9.8222765e-01  -5.8110391e-01  -9.8283975e-01   4.5585466e-01  -6.9659651e-01  -1.3887632e-02  -3.9823352e-01  -8.7080968e-02   6.7906615e-01   9.6642508e-01  -3.7336260e-01  -3.0343469e-02  -2.7513631e-01   3.9501507e-01  -4.7888537e-01   9.1484042e-02  -1.2937260e-01  -5.8260016e-01  -5.6333754e-01   3.7968341e-01   5.2148640e-01   3.8709112e-01  -9.1647426e-01   4.3666992e-01   1.1949338e-01  -7.3176056e-01  -8.9878854e-01  -7.7215732e-01  -8.8542671e-01   4.7966379e-01  -8.4609702e-01  -5.9378961e-01   1.7527878e-01   6.8339310e-01   6.9652903e-01  -7.5030103e-01   2.9124371e-01  -8.5683378e-01  -4.4265799e-01   3.4033151e-01   5.0023386e-01  -9.7576428e-01  -5.1068446e-01  -8.1180673e-02  -1.0536928e-01  -5.2772631e-01  -2.3604037e-01  -3.2347133e-02  -3.0276016e-02  -3.0634034e-01  -1.1487867e-01  -6.8207015e-01   1.7444205e-01  -7.2296340e-02   1.3375632e-01  -6.1988451e-01  -3.6512279e-02   7.7073366e-01  -6.1631807e-01  -6.1940384e-01  -1.1647170e-01  -5.2436341e-01  -3.0051965e-02  -2.5465200e-01   7.5694446e-01   3.7021323e-01  -1.2367998e-01  -2.3533353e-01  -2.4647517e-01  -2.0053858e-01  -5.9068047e-01   5.7359012e-01   4.0329057e-01   2.2334175e-02  -1.8418940e-01  -1.3118571e-01   2.8216525e-01   8.5042794e-01  -5.1505014e-01  -5.6518083e-01  -7.1161946e-01  -2.1961537e-01   9.5645241e-01  -9.3288961e-01   9.2704570e-01   5.4852932e-01   8.0527485e-01  -5.5938043e-01   6.1979801e-01   1.0206399e-01  -7.1540766e-01   6.4346466e-01   8.2291299e-01   2.5890865e-04   7.5240663e-01   7.5207905e-01  -1.9620272e-01   3.8299568e-01   6.0098481e-01   4.9887260e-01   5.1140077e-01  -5.2083977e-01   3.0723932e-01   8.4393925e-01   2.2208899e-01  -5.2121247e-01  -9.6020203e-02   3.4145349e-01   8.4112254e-01  -5.5240599e-01  -7.1317482e-01  -7.0264979e-01  -5.8223640e-01  -5.8314500e-01   2.1686590e-01  -1.1276958e-01   2.7766697e-02  -4.1279311e-01   3.4281516e-01  -7.4646472e-01   6.3812208e-01  -8.9459069e-01   9.5641815e-02   6.8391468e-01   6.1995852e-01  -8.1156650e-02  -2.9767158e-01  -9.8435253e-01  -4.0578918e-01  -6.2638380e-01   9.1057156e-02   6.7427213e-01  -3.2338079e-01  -1.4983777e-01  -9.3054705e-01   5.4089523e-02  -7.7521836e-01  -1.2634537e-01   2.5545487e-01   8.9166529e-01   2.5241676e-01   8.5520007e-01   4.4262313e-01  -9.1332084e-01   9.5316934e-01   6.7800185e-01   4.0712042e-01   1.9028703e-01   5.6294649e-01  -8.2483108e-01   8.0606304e-01  -1.5804955e-01  -9.0152080e-01  -7.7266097e-01   8.6262908e-01   8.1449199e-01  -8.0313197e-01   3.5627003e-01   4.6156314e-01   7.7868776e-01   9.4924517e-01  -1.8259988e-01   3.6872832e-01  -1.8628083e-02   2.6913388e-01  -1.3356337e-01   3.7495153e-01  -4.3776242e-01   1.0261664e-01   8.2613355e-01   2.2668921e-01   1.2205716e-01  -5.5766051e-01  -6.6695709e-01   6.2351317e-01   7.7568759e-02   9.7390163e-01   9.9587416e-01  -2.6823319e-01   2.3721230e-01  -5.1384293e-01  -4.6621121e-01  -3.8831638e-01  -4.5974300e-01   7.9818329e-01  -9.8013103e-01  -3.3662597e-01   9.5858605e-01  -2.6512113e-01   1.6229029e-01   7.8039570e-02   3.3667153e-01  -4.3464108e-01   9.9601576e-01   3.2723781e-01  -9.0561743e-01  -2.2199409e-01  -1.9492270e-01  -8.1890190e-01   2.3921429e-01  -4.9968495e-01  -9.5071396e-01  -8.8853053e-01  -1.7968372e-01  -6.8511315e-01  -4.1687644e-01  -8.2328857e-01   1.5858275e-01  -3.2118663e-02   4.8062201e-01   9.2127404e-01  -8.1128072e-01   5.3924178e-01   1.7385175e-01  -2.4763632e-01   5.9756156e-01  -9.6349025e-01  -4.8646146e-01   2.7702384e-01   1.3533343e-02  -4.6239155e-01  -4.8529044e-01  -2.6433030e-01   9.6820625e-03  -3.1214552e-01  -2.5398070e-02  -9.7105693e-01  -3.2707143e-02  -1.3456943e-01   2.8503915e-01   3.6407148e-01  -2.4363075e-01   1.0008279e-02  -6.2899259e-01   7.0147509e-01  -8.6958315e-01  -9.9872184e-01   6.2679024e-01  -7.0401745e-01   1.6523201e-01   9.1048988e-01  -6.7365413e-01   8.5719109e-01   8.5587114e-01   9.6756446e-01  -4.5287352e-01  -2.5411811e-01  -4.0838829e-01  -9.8056789e-01   6.7718688e-01   4.4708476e-01  -5.5064546e-01   9.2367865e-01   6.2011474e-01  -7.3483964e-01  -6.5860468e-01  -3.0263853e-01   7.7266243e-01   9.4018209e-01   1.7627988e-03  -2.7211996e-01  -5.0614492e-01  -6.2269139e-02  -6.5078521e-01   9.6936724e-01   5.0582301e-01   9.9654383e-01  -9.8260821e-01  -6.6220312e-01  -9.8633954e-01   7.7611072e-02   4.9249943e-01  -4.8737080e-01  -1.4383109e-01   3.9997599e-01  -1.2924572e-01  -3.7530172e-01   3.5632632e-01   7.4691575e-01  -2.1422856e-01  -2.5854690e-01  -1.7215009e-01  -4.1410772e-01  -6.0829945e-01   6.3339187e-01  -8.0261214e-01   1.6533361e-01  -4.7865794e-01   1.8129938e-01   3.5903705e-01  -5.6909313e-01  -2.8092764e-02  -5.9580926e-01  -9.8327782e-01  -7.9205189e-02   9.9699531e-01  -8.4771731e-01  -7.9590413e-01  -5.1263479e-01   1.3162531e-01  -2.1166882e-01   6.2626534e-01   6.1306672e-01   8.2682697e-01  -7.9981079e-01  -2.2576907e-01   5.4461723e-01   8.8446844e-01  -9.3529760e-01  -5.7523253e-01  -7.6793277e-01   9.8378127e-01  -6.4495190e-01   3.3375972e-01   3.2284327e-01  -4.2681664e-01   2.6309318e-01  -2.2663016e-01  -2.1112048e-02  -9.0929369e-01   7.8795595e-01  -4.0092340e-03   9.0277221e-01   1.1610144e-01   1.5544641e-01  -2.9463296e-01   6.4627507e-01   3.0336760e-01   6.4881417e-02  -3.7055830e-01   4.1156923e-01  -2.2825424e-02   9.7286573e-01  -4.6604789e-01  -7.5575878e-01  -2.3465673e-02   7.6156211e-01  -5.7855625e-02  -9.6000276e-01  -5.4934144e-01  -1.2546031e-01   9.4754423e-02  -4.0544881e-01  -9.4864433e-01  -2.0839666e-01   9.7496321e-02  -3.0157068e-01  -8.1892530e-01   7.3279613e-01   7.7381844e-01   4.9362470e-01
   2.4519473e-02   4.6129363e-01  -8.7774702e-01   8.1305331e-01  -8.4196938e-01   3.7245962e-01   4.3621614e-01  -6.4694282e-01  -1.8405507e-02  -3.1088720e-01   7.7483858e-01  -1.7476053e-01   9.7334880e-01   5.1067598e-01   5.9405804e-01   2.1109713e-01   2.7985816e-01   4.7460322e-01  -9.5012908e-01  -6.3655835e-01  -8.9024016e-01   4.8636589e-01   3.7217580e-01  -2.2977054e-01  -2.8749041e-02  -6.8214922e-01   4.1881116e-01   9.8919648e-01   7.4375115e-01  -7.3199129e-01  -8.7259720e-01  -6.7785081e-01  -3.2809591e-01   8.4673917e-01   4.6606593e-01   2.9074458e-01  -8.7483748e-01  -8.0379050e-01   8.1417553e-02  -6.8749397e-01  -8.1417283e-01   8.8007406e-01   7.2153284e-01  -1.2975730e-01  -1.7370934e-01   7.6981652e-01  -8.4353007e-01  -8.6956108e-01  -4.7114778e-01   8.1883892e-01  -4.0457460e-01   4.3758827e-01  -8.8155483e-01   2.1055015e-01   7.3995989e-01  -9.8939587e-02   7.4136301e-01  -5.1613711e-01  -6.8593848e-01  -7.8479404e-01  -5.3163773e-01  -2.3736682e-01   3.2557100e-01  -1.8716894e-01   5.6599011e-01  -5.1577477e-02  -3.6063494e-01  -8.1389925e-01   7.4465148e-01   5.2819879e-01  -5.9464230e-01  -3.5347443e-01   9.1750728e-01  -9.5946472e-01  -9.7827163e-01  -3.1852083e-01  -8.8786032e-01  -4.3119428e-01  -4.3034126e-01  -6.4209300e-01  -7.1852836e-01   1.5918134e-01   1.5264524e-01   9.6633081e-01   3.9435458e-01   3.3333395e-01   4.1655837e-01   9.4052745e-01  -4.4288176e-01   6.2486201e-01  -5.0838613e-01  -3.6831214e-02   3.7413470e-01  -8.9973509e-01  -7.1316622e-01  -7.0886407e-01  -6.4173586e-02  -9.5943925e-01   8.2175574e-01   6.7208557e-01   3.2167715e-02  -5.4730308e-01   1.1226633e-01   3.7166431e-01   3.7591890e-01  -6.3604039e-01  -3.2478166e-01   3.3636562e-01   9.0135190e-01   9.5868992e-01   9.3210269e-01   9.0389836e-01   6.9217197e-01   5.8643732e-02   6.1891658e-01   4.0476401e-01  -2.0857495e-02  -6.3913375e-01  -1.0668203e-01  -3.4151158e-01  -3.0488460e-01  -9.4181977e-01   2.6556087e-02  -4.7619427e-01   4.9028886e-01   1.6629273e-01   1.8566986e-01  -9.9459763e-01  -2.9637026e-01   3.9866308e-01   1.2954293e-01  -8.3806548e-01  -1.8959267e-01   7.1587709e-01   4.2752922e-01   7.0877882e-01   1.6739452e-02   9.1390251e-01   8.5448005e-01   1.6437601e-01   7.8336741e-01   2.3718280e-01   3.6128223e-01   6.5682841e-02  -1.1292871e-01   4.2856169e-01   9.4121676e-01   4.8247025e-02   4.0629285e-01   9.6443505e-01  -6.4081066e-02  -1.2377507e-01  -6.9316948e-01   7.3651152e-01   2.4014952e-02   9.0432034e-01  -9.8349043e-01  -8.6276575e-02  -7.7134049e-01   7.3009261e-01  -7.8110626e-01   4.3316991e-01   7.6002532e-01   1.9614250e-01   7.9667957e-04   7.3504550e-01  -4.1339407e-01  -2.7819529e-02  -4.5507762e-01  -2.3079476e-01  -8.5345144e-01   3.3176614e-01  -8.6457792e-01  -9.4029430e-01   4.4288492e-01   7.0728883e-01  -7.5012376e-01   2.6282061e-01  -8.0971658e-01  -3.5796496e-01  -3.8305759e-01   1.9643518e-01   8.4953423e-02   4.2078675e-01   2.1069239e-01  -4.7878077e-01   4.5597777e-01   2.0952725e-02  -4.8125575e-01   3.3755631e-01   5.9432517e-01   9.3485857e-01  -2.2609140e-01   8.1653622e-01  -7.2102717e-01   2.3229346e-01  -3.0257373e-01  -8.4894617e-01   7.1572403e-01  -2.7381271e-01   4.1649036e-02  -6.0419424e-01  -2.0309785e-01   6.6118734e-02  -8.7631667e-01   3.4065343e-01   4.8309919e-01   6.9242627e-01   3.0655726e-01  -7.5005527e-01   7.6993575e-01  -8.7351244e-01   1.7014501e-01  -1.5342813e-01  -4.1725572e-01  -1.1447616e-01  -4.9951256e-01  -5.7543908e-01   5.1292018e-02  -7.3660748e-01   1.9935333e-01   1.5256402e-01   3.7803867e-01  -1.8282488e-01   4.6303748e-01   4.6229537e-01  -4.7203114e-01  -7.1629740e-01   4.6673975e-01   8.0007958e-01   1.0910739e-01  -4.8840172e-01  -3.2257412e-01  -4.5365351e-01   6.5009730e-01   7.2086470e-01   3.3155654e-01   3.4406132e-01   3.6556271e-01  -4.7275054e-01   4.1254028e-02  -7.3916479e-01   4.0066811e-02  -4.1311284e-01  -9.1967362e-01  -8.1773246e-01   3.6526897e-01   3.0305216e-01   4.7141897e-01   3.5972915e-02   1.1360282e-01  -2.7877088e-01   3.8958311e-01   4.0137498e-02   3.8534030e-01  -1.9616760e-01  -6.3884974e-01  -3.5275996e-01  -6.6241489e-01  -8.5279709e-04  -6.8513911e-01  -5.1513819e-01   9.1288347e-01  -9.4839449e-01  -1.6082449e-01   9.8256040e-01  -8.0277953e-01  -5.6930669e-02  -2.7044280e-01   3.3315924e-01   7.4931795e-01   6.7087174e-01   5.9365299e-01   9.3020736e-01  -7.2366615e-02  -9.2722003e-01  -5.1635204e-02   6.9627953e-01  -2.0141737e-01  -8.9823498e-03  -6.6868945e-01   2.1406751e-01   4.3492570e-01  -8.1052775e-01  -9.8998151e-01   8.4997237e-02   2.2744727e-01  -3.0371725e-01  -5.7593819e-01   9.4840386e-01   4.4367125e-01   6.2010088e-01   4.7495045e-01  -9.5679745e-01  -3.5146462e-01   9.9580445e-01  -9.3199589e-01  -2.3621032e-01  -3.7851515e-01  -7.7987039e-01  -7.1475097e-01   7.9438208e-01   3.5189083e-01   6.9882447e-01  -5.9825842e-01   4.2240168e-01   3.0053835e-01  -3.9620173e-01  -4.3032855e-01   3.4810807e-01  -3.6324710e-01  -1.3025072e-01   6.7507650e-01  -8.8574106e-01   1.4046503e-01  -5.1931701e-03   9.3421705e-02   1.6091181e-01   9.3324047e-01   1.7828674e-01   9.3276399e-01   7.3505547e-01  -2.3638262e-01  -4.1153605e-01  -8.0569455e-01   6.7049613e-01  -8.0687831e-01   3.1866056e-02  -7.0523487e-01   1.1918841e-01   6.5460921e-01  -1.2223830e-01   1.7671086e-01   6.7542468e-01  -2.8495259e-01   7.2442889e-01  -3.6854068e-01   1.3063815e-01  -3.2434041e-01   9.1538010e-01   1.3104124e-01   7.7820634e-01  -6.3103148e-02   2.5461411e-01   1.7665339e-01   7.2622339e-02   9.8252770e-01   2.1647493e-01   2.9104874e-01   8.4586386e-01   9.1543448e-01  -6.2455402e-02   4.7084597e-01   7.9026061e-01   2.5219679e-01  -2.7059084e-01  -8.1061833e-01  -3.2309414e-01   9.6964966e-01   3.3060270e-01   2.1235846e-01   2.6234043e-01   9.0085934e-01  -7.2407609e-02  -2.6205739e-01  -6.2516890e-01  -8.1334848e-02  -5.4099756e-01  -8.7950044e-01   6.8514136e-01   5.9719297e-02  -5.0979712e-02   8.6112156e-01   6.0150809e-01   8.5779134e-01  -3.5382284e-01   9.4192278e-01  -9.6722286e-01   2.3466642e-01  -1.8755682e-01   1.4329341e-03  -6.5330591e-01  -9.3600225e-01  -6.9178114e-01   4.1511306e-01   2.6071852e-01  -2.5514710e-01  -6.0606220e-01  -8.6924534e-01  -7.5625456e-01   9.3162713e-01   1.7732773e-01  -3.3691716e-01  -7.7816358e-01  -8.9253265e-01   3.1791543e-01  -8.2588334e-01   4.0940422e-01  -4.8638778e-01  -2.4096005e-01  -4.0997816e-01   7.8211947e-01   9.9709191e-01   6.5434683e-01  -5.1711417e-01   6.2484082e-01  -9.3568600e-01  -2.2808291e-01   6.2891137e-01  -4.9255498e-01  -8.9792249e-01   1.9003532e-01  -4.3286195e-01  -5.4264583e-01   1.2019464e-01   5.5257220e-01   4.4066764e-01   9.7486848e-01   6.8666758e-01  -4.0016782e-01  -9.8053561e-02  -1.4688403e-01   7.4899020e-01  -9.4587163e-01   7.4169198e-01  -5.7955168e-01  -8.2160891e-01  -5.4640138e-01  -5.1184212e-01   2.1042419e-01   6.8506060e-01   8.9773052e-01  -9.4862055e-01  -1.5342368e-01   3.4139163e-01   6.3948850e-01   9.2512090e-02   4.6551556e-01  -1.5380910e-01  -7.0762339e-02   9.3203398e-02   2.0363984e-01   4.8074135e-01  -5.4413414e-01  -4.4219491e-01   2.6033683e-01   1.9884095e-02  -3.4863213e-01   6.6285013e-01  -5.5611913e-01   2.4830990e-01  -6.8101475e-01  -2.3114226e-01   6.3498038e-02  -8.4170826e-01  -5.5340654e-01  -5.6813856e-01   3.0298990e-01  -3.2890652e-01   2.8949178e-01  -4.7655487e-01  -4.7725740e-01  -9.2934645e-01  -6.3276901e-01  -1.1686383e-02  -2.2864383e-01   4.6742370e-01   6.6927710e-01   2.9194555e-01   9.5215567e-01   8.5290443e-01  -1.4160919e-01   2.9556466e-01  -8.8571393e-01  -8.9231281e-01  -6.6704783e-01   8.5839959e-01   6.7344352e-01  -1.2751561e-02   2.5252716e-01   9.7290404e-02  -7.3553729e-01   4.1034429e-01  -3.5907159e-01   1.1068811e-01  -3.8742752e-01  -1.1993553e-01   4.3831430e-01   2.5768140e-01   8.4359452e-01   3.6774905e-01   7.4983460e-01  -7.3823104e-01  -8.7847765e-01   9.8192626e-01  -2.1195816e-02  -8.5708598e-01   6.9012638e-01  -7.7572742e-01   8.0727510e-01  -9.2757741e-01   5.2850444e-01   6.0505920e-01  -9.8789429e-01   7.3861258e-01   8.9935770e-01  -8.8566006e-01   2.6296021e-01   1.8234237e-01   7.7454523e-01  -3.2895383e-01  -4.4190171e-01  -6.7057923e-01  -6.6193025e-01  -2.9975935e-01   4.7008319e-01   8.1085822e-01   5.9892474e-01  -2.3175578e-01   1.8895749e-03   8.4062236e-02   8.8959387e-01  -7.0939926e-01  -9.3500428e-01  -8.8672002e-01  -8.1029196e-01  -2.7431783e-01  -4.3226121e-02  -2.4558144e-01  -5.8376127e-02  -8.0538446e-01   1.5886381e-01  -9.6445996e-01   1.7211099e-01  -4.2856539e-01  -3.0619261e-01  -2.5927825e-01   7.9658029e-01  -1.0010604e-01  -9.7414910e-01  -2.0302423e-01  -1.0835142e-01   7.6019900e-01  -6.5457192e-01  -6.4749739e-01  -2.3205595e-01   5.6227057e-02   9.7375698e-01   8.7628510e-01  -7.1515670e-01   9.6474428e-01   6.0573696e-01   6.4240497e-01  -3.9783220e-02  -6.9054049e-02   7.6113864e-02  -7.1526526e-01   3.7980877e-01   6.6237487e-01   7.1568605e-01   7.0772649e-01   4.5797310e-01  -8.5700770e-01   2.0997107e-01   5.2250964e-01  -1.5823522e-01   6.6666353e-01  -9.7162203e-01   6.5919108e-01  -6.0578189e-01   1.9431766e-01   3.9258246e-01  -8.7201576e-01  -6.8440106e-01  -7.7567409e-02   7.4480525e-01  -1.0353199e-01  -4.0452799e-01  -4.5299419e-01  -6.9415461e-01   3.8632211e-02  -4.3989935e-01  -5.2993410e-01  -9.5717510e-02   9.5236214e-01   8.5536380e-01   6.6601789e-01  -1.3586403e-01  -8.5864578e-02  -8.8801976e-01   2.8232676e-01   6.8588083e-02   4.3306925e-01  -1.1501301e-01  -5.2634061e-01   1.0459077e-01  -7.5559826e-02   7.1916537e-01  -1.8940917e-01  -6.4405007e-02  -5.4101335e-01  -8.8762703e-02   4.9859670e-01  -9.0416105e-01  -2.8690381e-01   3.8650552e-01  -4.0207497e-01  -1.6541942e-01   9.6581251e-02   7.0077490e-01  -2.7807217e-01   9.5662310e-01  -1.8844720e-02   5.8230848e-01   8.4413904e-01   6.8303146e-01  -3.2163357e-01   1.1318637e-02   3.7464260e-01   2.4899254e-01   7.7876876e-01   7.8901441e-01  -6.1259670e-01   8.1431787e-01  -3.0614097e-01  -9.5951096e-01  -1.8390332e-01   9.1016289e-01   3.8296437e-01   4.8810799e-01   2.6753949e-01   6.8402601e-01   4.1673885e-01   3.8780588e-01  -1.5525171e-01  -9.0750106e-01  -6.4012930e-01  -7.4096677e-01  -6.8885833e-01  -4.0585787e-01  -7.8859045e-01  -9.8149620e-02   3.0170389e-01   7.2903238e-01   9.3201057e-01   8.9726332e-02   5.1668560e-02   4.2994960e-01   2.7078534e-01  -2.0267776e-01  -6.4268865e-01  -5.8185114e-01   3.8130788e-01   3.2462524e-01   4.4979427e-01   7.9274262e-01  -3.1674127e-01   7.5934336e-01   9.8565821e-01   3.0136643e-02  -4.9460417e-02  -6.7867961e-01  -4.7944155e-01   8.8503473e-01  -4.1294914e-01   9.8580795e-01   7.4335358e-01  -9.0222812e-02  -3.7281037e-01  -9.7668698e-01  -4.0494189e-01   7.7954576e-02  -9.5076215e-01   4.6343263e-01  -1.2870686e-01   6.8863954e-01  -4.2078357e-01   7.8973196e-01  -7.9071044e-02  -6.8720373e-01   3.7612967e-01   9.4538425e-01  -6.7797653e-01   5.6719927e-01  -6.1960593e-01   7.5124288e-01   6.2103337e-01  -1.5968606e-01   7.8041863e-01  -4.5756551e-01  -3.8377909e-01   4.0264161e-01  -7.3012620e-01   4.8290021e-01  -2.3207141e-01   8.6099836e-02   3.2347848e-02  -2.9559387e-02  -1.4232508e-01   8.7766256e-01  -2.8105182e-02   5.2576205e-01   5.6428743e-01  -3.5630634e-03   3.7197724e-02  -9.3654584e-01   7.9842599e-01  -6.6363615e-02   1.0873636e-03  -7.2314561e-01  -2.6829238e-01  -2.5588329e-01   4.0424107e-01  -4.8041860e-01   3.6358671e-01   9.4010488e-01   7.1872816e-01  -8.0953928e-01  -9.9320429e-01  -6.0889835e-01  -6.7994458e-01   9.2315924e-01   1.7642076e-01   8.8400587e-01  -7.5261847e-01   2.3741932e-01  -1.5388196e-02  -4.9598246e-01   3.0449750e-02  -3.1424700e-01   1.3491640e-01  -3.2648175e-01  -7.9415730e-01   3.5129626e-01   4.3473099e-01  -6.9456795e-01  -8.0197376e-01  -2.3482270e-01   7.9492202e-01  -6.1369805e-01   2.2353674e-03   7.0357684e-01   3.0331940e-01  -5.4169336e-01   1.0980790e-01  -5.7072068e-02   4.0873060e-01   9.9308009e-01   4.5846539e-01   6.4949916e-02   3.7628998e-01   1.2470859e-01  -6.8770233e-01  -8.7773762e-01  -2.6374704e-01  -3.2651226e-01  -9.3796788e-01  -7.9537920e-01  -5.4763866e-01   1.5964917e-01  -2.1828871e-01  -1.1001313e-01   8.1916918e-02  -2.0839332e-01   7.6500794e-01   3.4218569e-01  -1.8343099e-01  -1.1480835e-01   3.6473487e-01  -7.3471795e-01  -3.3785016e-01  -1.5753393e-01  -7.7466617e-01   5.9296788e-02   1.0435442e-01  -1.3905270e-01  -3.0839668e-01  -4.8134952e-01   6.8443183e-01   7.7846886e-01   2.1088084e-01   3.6685265e-01  -4.5600992e-01  -4.2087551e-01   2.9778780e-01  -9.7833469e-01  -6.2936423e-01   7.4556985e-01  -7.5735949e-01  -6.1280969e-01   2.1090708e-01  -8.5686928e-02   7.9532490e-01  -5.5403222e-01  -8.5008063e-01   7.0512264e-01   5.0508143e-01  -5.5831225e-01  -3.3571182e-01   2.9954938e-01  -9.9394772e-01  -1.1245168e-01  -4.2294114e-01  -5.4880604e-01   9.8505827e-01  -9.0999075e-01   8.8332465e-02  -1.8498051e-01  -8.9139045e-01  -7.7570492e-02  -6.9620010e-01   2.8167099e-02   8.9926945e-01   6.1716022e-01   3.8923850e-01   1.3325826e-01  -5.4578708e-01  -3.9566684e-01  -8.1580571e-01  -4.3996201e-01  -3.5873499e-01  -9.1354298e-01   1.1950118e-01  -4.7895336e-03  -5.3625597e-01  -4.9951965e-01  -3.1888810e-01  -7.9806963e-01  -7.4785636e-01   1.2972238e-01  -7.1650322e-01   4.8915264e-01  -9.3867474e-01  -2.9731413e-01   1.9615355e-01   3.3300424e-01   9.0922682e-02  -3.4285922e-01   9.9894826e-01   7.1302447e-01   6.9940747e-01   1.7290269e-01   6.0001470e-01   2.6739833e-01   6.7450993e-01   2.8081468e-01   7.1302254e-01   5.8134808e-01  -3.5082452e-01   9.4574701e-01  -3.6523797e-01  -4.4290884e-01   7.8689484e-01  -7.6702694e-01   4.6675584e-01   9.2351232e-02   3.1187977e-01  -7.1642526e-01  -9.8097114e-01   5.0119944e-01  -5.4260184e-01  -3.6383030e-01  -9.9150551e-01   1.2475948e-02  -8.9979380e-01   1.0495170e-01  -3.8819759e-01  -9.2907153e-01   9.4034185e-01   7.1420896e-01   8.4223464e-01  -8.6156935e-01  -4.2509605e-01  -2.5392681e-01   7.5235818e-01  -2.5950311e-02  -3.5862457e-01   2.2872549e-01  -9.3770727e-01  -6.9442370e-01  -3.3837990e-01  -2.0971337e-01  -6.2573851e-01   4.9746987e-01  -9.8112395e-01  -3.0384728e-01   2.1935255e-01  -9.8676731e-01   1.7706329e-01  -3.0126232e-02   6.9841757e-01   5.4735513e-01   5.8398713e-01   7.5307565e-01   5.7995663e-01   3.2311924e-01   6.7469120e-01   6.2194899e-01  -1.6882687e-01  -7.6096523e-01  -1.4123708e-01  -1.3531152e-01   5.8099432e-01   4.9437924e-01   5.4039283e-01  -2.1708781e-01  -4.2732244e-01  -7.4187994e-01  -1.9670865e-01   1.6248639e-01  -4.8783146e-01   5.1554668e-01  -5.4359895e-01  -3.6656077e-01   2.2578637e-01  -7.0812964e-01   6.6484830e-01  -8.0268405e-01  -2.3217778e-01   6.1027148e-01  -3.3195772e-01   9.5846641e-02   1.8446766e-01   3.7027600e-01   2.3331992e-02   8.5916381e-01   4.1406694e-01  -5.9806691e-02  -8.3276779e-02   3.5413247e-01  -1.0170272e-01  -2.8959388e-01  -6.0000320e-01  -9.1797705e-01  -6.8886353e-01  -3.7236898e-02   7.3451942e-01  -1.2598941e-01   2.2702240e-01   4.9872147e-01   3.7616819e-01   3.7071667e-01   1.5855104e-01  -2.7765002e-01  -5.4307649e-02   8.1104869e-01  -9.1420339e-01   8.1099104e-02  -2.2825222e-01  -5.2595918e-01   1.8610723e-01   3.5311823e-01   8.3485504e-01  -8.3508960e-01  -5.7712109e-01   1.4270066e-01  -2.3478229e-02  -1.1486596e-01  -8.0222150e-01   6.7021027e-01   8.7362715e-01  -9.7748739e-01  -4.2067597e-01   6.5657303e-01   4.5499459e-01  -5.8634274e-01   1.4985949e-01  -3.5706001e-01  -1.9652538e-01  -4.5416009e-01   1.9974942e-01   2.8993128e-01  -7.0952848e-01   2.1555162e-01   9.6359740e-01  -7.2516390e-01  -1.1691322e-01  -9.6115063e-01  -2.5910704e-01   1.2455864e-01  -7.1238901e-01  -9.2908128e-01  -7.4931002e-01  -3.6430050e-01  -7.8225540e-01   4.7617106e-01  -7.9292903e-01  -9.3758508e-01  -8.7901730e-01  -7.4573751e-01   5.5986871e-01  -8.9504672e-01  -2.4518304e-02   3.2661328e-01   3.4548314e-01  -6.0550632e-01   7.7495909e-01   3.7207550e-02   8.2346067e-04  -3.9639458e-01
  -5.6754878e-01   8.8689121e-01  -6.8033874e-01   2.8036876e-02   7.0852400e-01  -3.0705646e-01  -5.7683211e-01   2.2424347e-01  -8.9745110e-01   8.2433793e-01   2.6907447e-01   5.3318630e-01  -1.9059625e-02   6.9948178e-01  -4.9290479e-01  -6.1140710e-01  -7.9538168e-02  -6.1628189e-01  -5.5942195e-01  -2.6094013e-02  -7.7261726e-01  -3.7372482e-01  -7.1273327e-01   2.8319105e-01   5.5141890e-01   7.8766632e-01  -7.0382971e-02   8.2976515e-01  -6.8272657e-02  -8.5670498e-01   9.0675459e-01  -6.0205876e-01   3.3413498e-01   9.5037312e-01   1.8798740e-01  -2.1329791e-01   3.7547657e-01  -8.9358756e-01  -1.8544694e-01  -1.8581445e-01  -4.1676336e-01   6.0787133e-01   4.4624891e-01   9.7037035e-01  -8.5395213e-01   2.0400915e-01  -1.9470028e-01   2.0437598e-02  -6.6413287e-01   2.0643906e-01  -9.6992494e-01  -6.6233056e-01  -6.7911272e-01   6.5065264e-01  -3.4053690e-01   1.0203624e-01  -5.7494276e-01  -3.4776726e-02   7.0678067e-01  -1.3933951e-01  -8.6094956e-02   1.2165032e-01  -7.6235805e-01   9.8564676e-01  -2.1476224e-01   3.9595262e-01  -2.0276967e-01  -1.2635915e-01   4.2537500e-01  -2.0554062e-01   4.4827399e-01  -2.0380992e-01   6.0773373e-01  -6.7122866e-01   2.2328573e-01   8.2186443e-01   4.8961144e-01  -3.8231769e-01   2.6943234e-02   5.6613950e-01   8.4626263e-01  -9.1282063e-02   5.4031417e-01   2.7379888e-01  -9.6899136e-01  -9.8950472e-01   3.7777219e-02  -5.9578201e-01   4.1586485e-01  -2.5353702e-01  -8.3630572e-01  -2.8823659e-02   4.6969238e-01   1.7747794e-01   7.8202157e-01   4.6437511e-01  -1.3210650e-01  -3.4116193e-02   9.8183037e-01   4.6370022e-01   7.4302189e-01  -8.4209965e-01  -4.2590845e-01  -2.8110988e-01   5.4351049e-01   8.3578146e-01  -7.6291616e-02  -7.1447200e-01  -7.6317939e-01  -2.9444835e-01   9.3288155e-02   6.2792294e-01   8.3649652e-01  -3.1931427e-01   3.6890472e-01   6.4526629e-01   1.4959653e-01  -8.6300230e-01   1.8935757e-01   3.7452186e-01  -6.7243980e-01   4.3930639e-01  -7.5356120e-01  -3.7076184e-01   9.3366492e-01   7.2521462e-01  -2.3569504e-01   5.3123357e-02  -6.9056252e-01  -1.8942975e-01  -7.4814071e-01   8.0998824e-02  -8.8230765e-01  -5.6445935e-01  -8.8024762e-01  -6.3901050e-01  -7.0552509e-01  -3.3494658e-01   6.0663203e-01   6.4540045e-01   3.7503291e-01  -5.0315873e-01  -5.4572971e-02  -5.7810248e-01  -2.2342091e-01  -5.7232367e-01  -6.1936233e-01   6.7113128e-01   5.6390590e-01   8.9111568e-01   1.4240623e-01   7.7776733e-01  -8.4837057e-01  -3.4300209e-01  -9.5027135e-01  -8.2048892e-01  -6.3298507e-01  -5.2903490e-01  -2.3435239e-01   1.0555211e-01  -8.6022798e-01  -6.5806106e-01  -5.8809184e-01   4.9637249e-01  -4.0659905e-01   9.5135572e-01  -6.4341217e-01  -6.3082117e-01   4.5240969e-01   8.8864270e-01  -4.0007979e-01   9.3527550e-01  -9.9118689e-01   1.6375983e-01  -5.9481635e-01  -5.4258066e-01  -7.8795184e-01  -2.5442566e-02  -3.3932272e-01  -5.3047156e-02  -2.1842366e-01   2.2589201e-01   7.9275889e-01   1.8412176e-01  -2.2773023e-01  -5.2493298e-01  -9.6368049e-01  -3.0752955e-01  -8.5407444e-01  -6.9647596e-01   5.4928529e-01  -5.0714520e-01  -3.5064635e-01   9.3095085e-01   5.2682039e-02   4.9535436e-01   1.5652653e-02   6.8060275e-01   6.7707089e-01   1.9396758e-02   9.6961018e-02   1.2467865e-01  -5.1703743e-02  -8.4342829e-01   7.0390922e-01   3.4310263e-01  -5.9117822e-01  -8.6098652e-01   5.2489655e-01  -2.4032371e-01   4.6113471e-01   8.2966708e-01  -3.9218828e-01  -5.5823009e-01   8.7143317e-01   5.3705077e-01  -7.5674090e-01  -7.0713925e-01   9.7357313e-01  -8.7427998e-02   9.3897488e-01   5.9520071e-01   1.3348397e-01  -3.6229369e-01  -1.9958355e-01  -3.8256842e-01   7.3797888e-01   6.0473979e-01   3.0576872e-01  -6.3465070e-01  -7.3889598e-01  -3.4153411e-01   5.6936552e-01  -8.2943172e-01  -2.8023870e-02  -6.6722182e-01  -6.4911075e-01  -8.1886079e-01  -9.4262090e-01  -8.8984615e-02  -8.3556467e-01   8.7642428e-01  -6.2329734e-01  -8.8255862e-01  -4.3305287e-01  -6.0884023e-01  -9.3642791e-01  -2.5412313e-01   6.0371193e-01   2.0687654e-01   4.3671797e-02  -7.8145443e-01   9.0027001e-02  -5.0861297e-01   1.2307096e-01   5.9332432e-01   7.1813991e-01   8.2427329e-01  -9.8991871e-01  -9.8272860e-01  -8.9565711e-01  -7.2866080e-01   8.5708128e-01  -6.0480272e-01   8.1670890e-01  -4.6839418e-01   6.5137443e-01  -3.3715124e-01   4.7110969e-02   3.7345719e-01  -5.0073456e-01   4.6395503e-01   9.2953785e-01  -4.1148466e-01  -6.3971359e-01   6.5796206e-01  -3.2825307e-01   3.6665539e-01  -4.8211804e-01  -2.0848710e-01  -2.2681892e-01  -6.8743251e-01  -3.1441213e-01   1.4769564e-01   1.7622107e-02   9.5829339e-01  -4.4770244e-01   2.8158003e-01   7.7426325e-01   5.3295279e-01  -3.1397010e-01  -9.9997132e-01  -1.9410892e-01  -2.8187515e-01   2.6403405e-01  -2.9270257e-01   2.7170863e-01   4.9127333e-03  -6.3420238e-01  -5.0959577e-01   8.2529089e-02  -8.3079579e-01  -1.2034864e-01  -9.3741442e-01  -1.0530863e-01   5.8058057e-01  -8.3488362e-01  -1.8273857e-01  -1.8428244e-01  -6.7333514e-01  -7.2374754e-01  -1.7073048e-01   7.0722284e-01   1.9074959e-01   8.0018387e-01   2.7111832e-01  -5.8132148e-01  -7.0242288e-01  -4.8448449e-01   3.3058090e-01   2.8961019e-01   6.6208296e-01  -7.1677275e-01   9.2833869e-01  -8.1483566e-01  -8.6601461e-01  -3.9424107e-01  -9.9684327e-03   3.1710574e-03   1.3199371e-01  -5.4646392e-01   4.9597117e-01   6.7700403e-01  -4.8388969e-01  -3.1391914e-01  -1.9423342e-01  -1.3432318e-01  -9.1943686e-02  -4.5909381e-01  -3.9864447e-01  -9.4319880e-01   1.8783608e-01   7.2119790e-01  -2.6496973e-01   3.2221308e-01  -1.8188817e-01  -1.6055860e-01  -9.2288136e-01   3.3547121e-01  -6.1036107e-01  -5.6888132e-02  -4.5677840e-01  -7.6818950e-02  -8.9679377e-01  -5.4145609e-01  -9.7728598e-01  -9.1690509e-01  -7.1231460e-01   3.9482162e-02  -5.7205975e-01  -6.9393682e-01  -7.6879728e-01   9.0538097e-01   3.3234520e-02  -1.0332232e-01  -4.7081612e-01   7.6559672e-01  -7.7661489e-01   6.4863225e-02   5.1340670e-01   7.0844442e-01  -8.4984140e-01   2.4351497e-01  -4.8329633e-01  -6.9748792e-01  -2.1026698e-01  -3.1551482e-01  -6.8869473e-01  -8.8923230e-01   6.2815541e-01  -3.4349692e-01   2.7294338e-01   8.5485111e-01   1.1098515e-01  -2.9385025e-02   9.8178705e-01   5.9438657e-01   4.9825547e-01  -2.9898544e-01  -8.3582889e-01  -5.3892986e-01   7.2672898e-02   7.5497261e-01   8.1458621e-01  -9.7834519e-01  -1.8649023e-01  -4.8428738e-01   9.5554723e-01  -4.1686949e-01  -2.4263049e-01   6.4627719e-01   6.4678057e-01   7.6919243e-01   5.4067774e-01   4.6149176e-02   4.6455657e-01  -7.7249147e-01   7.2306840e-01  -8.3529046e-02  -1.3330778e-01  -1.2935204e-02   8.4659319e-01  -5.0866259e-01   3.9477226e-01  -1.6389563e-01  -2.6924263e-01  -6.7691672e-01   1.4608200e-01  -6.9115002e-01   9.2163517e-01   5.5460784e-01   7.4362226e-01  -8.4128025e-01   1.0891340e-01   4.6667800e-01   7.2549647e-01  -7.2102176e-01  -3.1224257e-01   2.7088224e-01   1.6349929e-01   5.7974417e-01   6.0875819e-01   5.5873786e-01  -2.0101574e-01  -5.4435917e-01  -1.6059422e-01  -5.7016421e-01   6.4468091e-01  -8.7551400e-01  -2.1490836e-01   6.1017745e-01   4.9921063e-01   9.1653303e-01   9.4988605e-01  -4.3414552e-01   7.5213598e-01   3.3156331e-01   7.6115241e-01  -9.4474896e-01   9.6977561e-01  -5.2508925e-01  -3.5512254e-01   6.2763510e-01  -7.3251439e-02   5.4792092e-01  -4.0845356e-01  -2.4422540e-01  -6.5099768e-01  -7.2937401e-01   1.4587579e-01   8.9593029e-01  -4.6784337e-02   4.4315365e-01   2.9897556e-01  -6.1989955e-01   9.3894236e-01   1.3836509e-01   8.5245846e-01   4.9434394e-01   1.9485759e-01   3.0208295e-01   6.0055017e-01  -7.4888194e-01  -1.6763606e-01   7.8170919e-01   7.3833132e-01  -6.6376511e-01  -2.7391774e-01  -9.2923661e-01   5.3343889e-02   8.4334516e-03   3.2174682e-01  -5.2384714e-01  -3.1005993e-01  -6.9306134e-02  -2.1063433e-01   8.1207911e-01   2.7015079e-03  -9.8253770e-01  -4.7495326e-01   4.2786889e-01  -7.7313642e-01   8.2995865e-01  -5.7407082e-02   2.8510823e-01   7.0902230e-01   3.6971476e-01  -2.3951371e-01  -7.3121797e-01   3.1945124e-01  -4.2530159e-01   9.5676340e-01   1.7207968e-01   6.5667364e-01   4.2956494e-02   2.7421593e-01   7.1815771e-01   1.8177728e-01   1.2529661e-02  -6.9116039e-02  -6.7765828e-01   7.2391171e-01  -5.5308581e-01  -9.6324434e-01   2.8831225e-01  -4.3528757e-01  -5.3066348e-01   7.7499887e-03  -4.9296772e-01  -5.4569855e-04  -9.7658081e-01   6.8408748e-01   7.4627370e-01  -2.0083010e-01   1.8334659e-01  -5.9425742e-01   6.1742298e-01  -4.4148200e-01  -9.0560546e-01  -2.6557100e-01   9.0545651e-01  -6.9434738e-01  -5.8516642e-01  -6.2322875e-01  -6.0921010e-01  -5.8987656e-01   3.7841742e-01   6.5359112e-01  -2.6965417e-01   4.9027481e-01  -9.2851132e-01   8.4568041e-01   1.5666509e-01   1.1771107e-01  -5.9819086e-01   3.6741183e-01  -5.7229709e-01   2.9303434e-01   6.4298987e-01   2.2082043e-01   1.4284266e-01  -2.3418293e-01  -7.1003755e-01  -6.8127411e-01   1.8695629e-01  -4.5998541e-02   7.4951875e-01   6.1827346e-01  -9.7681888e-01   8.0726435e-01   2.3918592e-01  -2.6112577e-01   7.5173209e-01   7.6869239e-01   3.6816419e-01   3.9337868e-01   6.6750735e-01  -3.4040290e-01   5.3219016e-01   7.3943247e-01  -8.6727844e-01   7.6926780e-01   4.0544941e-01  -8.6533081e-01  -8.2691890e-01   4.7987745e-01   7.8436273e-01  -6.5806234e-01  -1.8354696e-01   6.8380755e-01  -9.5559236e-01   9.4183764e-01   5.2435552e-01   6.6765390e-01  -5.3330591e-01  -2.2078688e-01  -3.2121588e-01  -3.5551136e-01   3.7951724e-01  -6.0063944e-01   3.0503676e-01   7.9281460e-01  -7.3080853e-01  -1.8379906e-01  -7.1352930e-01   2.0835062e-01  -9.4045286e-01   4.3230690e-01   1.1010174e-01  -4.6865754e-01   4.2380480e-01  -2.9504557e-01  -5.6622160e-01  -7.6299863e-01   3.2722961e-01   7.9563378e-01   4.9498041e-01  -1.8318528e-01   1.0889008e-01  -9.0366493e-01  -3.0151008e-01   3.0930483e-01  -1.8958113e-01  -5.3590215e-01   9.9447889e-01  -2.9760040e-01   3.3453652e-02   8.7049255e-01   1.6835541e-01   3.2748850e-01  -1.1825474e-01   5.1793242e-01  -2.6205869e-01   8.2989206e-01   6.6238725e-01   1.6697907e-01  -8.8052510e-01   2.9679112e-01  -2.9136454e-01  -3.0505288e-01   4.5986315e-01  -1.6449166e-01   4.1610766e-01  -2.2524062e-01   9.0735909e-01  -9.2855830e-01   3.6740793e-01   9.0967774e-01   6.1046508e-01   7.0550152e-01   5.0526689e-01   5.7224882e-01  -7.7836810e-02  -7.5266577e-01  -6.5803040e-01  -7.6013760e-01  -9.2549003e-02  -5.5772642e-01   6.9127458e-02   1.6129137e-02  -9.3167679e-01  -1.3249803e-01  -5.4359010e-01   4.5343438e-01  -2.7205669e-01  -9.8300867e-01  -8.7861512e-01   8.6310610e-01  -3.4408121e-01  -2.9907876e-01   5.9161194e-01  -5.5965482e-01  -7.3518582e-01  -1.3530524e-01  -3.1075270e-01  -9.7130943e-01   5.2255611e-01   8.9369923e-01  -4.0968271e-01  -8.4553651e-02  -2.2901651e-01   9.0219266e-01  -9.1255497e-01  -6.6568123e-02  -9.8923408e-02   2.2387491e-01  -4.3554491e-01   7.5505911e-01  -9.8984060e-02  -4.1138868e-01   8.8507416e-01   6.1464659e-01  -1.9623596e-01  -8.7207988e-01  -4.7725258e-01   2.6267779e-01   6.5247820e-01  -8.8540699e-01  -2.2099433e-02  -5.7154365e-01  -2.5916130e-01   1.6590972e-01  -1.7314028e-02   4.7774684e-01   9.8624415e-01   1.1693977e-01  -3.8249287e-01   2.6316898e-01  -1.1550427e-01   1.8614752e-01  -1.3784762e-01  -6.4315183e-01  -6.4357029e-01  -2.8448827e-01   9.2587326e-01   1.4313812e-01  -7.8967034e-01   6.4339780e-01  -3.9514256e-01  -7.4740307e-01  -6.9650743e-01   2.7004450e-01  -1.6358319e-01  -2.3979507e-01   8.2172192e-01  -8.7658943e-01   6.9779524e-01   3.1418954e-01  -6.8913403e-01  -7.0533367e-01  -8.3529307e-01  -6.0100340e-01   2.5958891e-01   2.6766808e-01  -7.8753061e-01   1.9090413e-01  -1.2184826e-01  -9.2064208e-01  -6.9919056e-02  -3.5194018e-01   5.6974992e-01  -5.5430039e-01  -9.3384113e-01  -5.3821704e-01   9.6357779e-02  -1.1657044e-01  -1.5219591e-01  -1.6249208e-01   9.9129183e-01  -8.0334625e-01   5.6073776e-01  -2.2108181e-01   6.7156921e-02   6.7309498e-01   4.1405483e-02  -6.8114604e-01  -2.7979372e-02   8.8897935e-01  -1.5108872e-01   9.9505964e-01  -5.0008645e-01  -9.2714772e-01   4.4104519e-01   3.0342439e-01  -2.4312963e-01  -3.3301509e-01   5.9707803e-01  -6.2817197e-01  -7.5189403e-01   3.8615145e-01   5.5795591e-01   6.9022057e-01  -6.0919849e-01   6.5601805e-01  -2.0292755e-01  -2.2420617e-01  -8.8602533e-01  -8.9235965e-01   1.8544753e-01  -3.8511937e-01  -4.1839670e-01   6.3257527e-01  -3.9238784e-01  -7.1570675e-02  -3.2710554e-02  -4.4671425e-01   2.1892058e-01  -5.8960947e-01   5.8312133e-01   5.5911491e-01  -7.7128742e-01   1.5321484e-01   1.8659932e-01  -2.4853221e-01   1.1587970e-02  -9.5204004e-01   8.3802766e-01   1.7587461e-01   8.2317027e-01   2.0838818e-01  -2.4018465e-01  -2.8926906e-02   7.5194180e-01  -8.3632342e-01   3.4437445e-01   5.0106922e-01   6.4768663e-01  -7.1262722e-02  -4.8541684e-01  -7.6710784e-01   5.5612508e-02   7.0471592e-01  -9.2435977e-01  -6.9140505e-01   3.7299136e-01   5.2310923e-01  -4.2106705e-01   3.7188237e-01   2.1608508e-01   6.0805479e-01  -8.0886576e-01   2.7575148e-01   2.3489508e-01  -1.5052670e-01   8.4766429e-01   7.5018494e-01   6.8001732e-02  -8.0607182e-01   3.8949387e-01   3.0792471e-01  -4.1914604e-01  -3.1572152e-01   4.8991487e-01   4.6286837e-01  -8.3989897e-01  -3.4184926e-01  -1.3315807e-01   4.5761413e-01  -4.0964235e-01  -2.1764727e-01   7.1513993e-01  -8.2771203e-01   6.5482118e-01   2.0903938e-01  -8.8200751e-01   5.0634685e-01  -4.2718996e-01   3.5417899e-01  -1.0658714e-01   5.3505956e-01  -1.4464817e-04   6.4887350e-01   5.7620297e-02   2.6291526e-01  -7.5321484e-01   6.5303386e-01  -6.3813884e-01   5.8395640e-01   3.7253198e-01  -5.6894767e-01  -6.3434943e-01  -8.3234226e-01  -6.5469701e-01  -9.5537306e-01   7.0469570e-01   1.0487123e-01   9.1562667e-01  -8.2416428e-01  -6.9491138e-03   9.3157258e-01   7.7708903e-01  -6.2299479e-01  -2.2301585e-01   4.0712424e-01   8.7266376e-01   5.4999041e-01  -1.6971001e-01   5.3612242e-02  -2.1247637e-01   6.5809894e-01  -6.1048470e-01  -1.0383047e-02  -1.1347336e-01  -4.0357710e-01   8.4766185e-01  -4.9397184e-01  -4.1289659e-01   3.3749417e-01   7.4474823e-01   6.6498669e-01  -7.0997403e-02   9.4622221e-01   3.0518207e-01   6.7772647e-01   5.6364861e-01   9.7609379e-02   6.4092412e-01  -4.8190391e-01  -2.3059890e-01  -2.3892149e-02   9.7208106e-01  -3.8745355e-01  -4.0823714e-01   1.6674460e-01   1.9372019e-01   1.4621492e-01  -8.1175978e-01   6.1154151e-01  -7.4396135e-01  -2.0279262e-01  -1.4522830e-01  -8.3168039e-01   8.7402092e-02   7.2626345e-01  -2.0822593e-01   6.3083095e-01   1.6485192e-01   5.8165882e-01  -1.8940000e-01   9.2176160e-01   5.4395158e-01   5.1034029e-01  -8.5771747e-01   8.0526096e-01  -3.5963532e-01  -5.2120958e-01   9.8683124e-01  -5.0183086e-01  -7.6825622e-01   7.9777461e-01   3.5098250e-01  -3.5345178e-01  -3.1686009e-01   3.9721481e-02   6.1153268e-01   6.9656804e-01   1.9388575e-01  -6.8594375e-02   3.1311864e-01   1.6629739e-01  -5.7609987e-01  -1.3857519e-01  -2.3493510e-01  -1.8761679e-02  -2.7249607e-01   7.5048086e-01   1.2689945e-01   7.4130794e-01  -8.0291154e-01   8.2374541e-01  -3.7699044e-01   5.4601947e-01   9.3906605e-01  -2.3405789e-01   4.2367979e-01   7.7644757e-01   4.6511370e-01   3.5445786e-01   7.0810344e-01   3.0321214e-01  -1.4320337e-02  -5.9742978e-01   1.4265698e-01   5.3410051e-01  -3.0187559e-01  -6.2307586e-01  -3.7293227e-01   2.6168148e-02   2.9473316e-01  -1.2108020e-01   5.5906701e-01   7.9282703e-01  -2.8853359e-01   9.7175659e-01   4.5387298e-01  -8.5179956e-01  -8.2434248e-01   7.1598841e-01   5.5211858e-01  -7.8880938e-01   5.7568219e-01  -3.9392783e-01  -7.0537152e-01  -6.7542087e-01  -2.0375476e-01  -5.5523925e-01  -7.0179572e-01  -4.0240438e-01   9.2002131e-01  -8.4922177e-02  -6.3837545e-02  -9.0838400e-01   9.0041262e-01   2.7862090e-01  -9.9939100e-01  -9.9552682e-01   2.7779142e-01   9.6671067e-01  -9.2596603e-01  -7.4994174e-01  -5.1573336e-01  -8.7142389e-01   7.7922013e-01   4.1707915e-01  -7.6824348e-01   7.4732434e-01   2.4606785e-02  -7.8260834e-01   7.5532190e-02   8.6283538e-01
   2.2733876e-01   2.1963044e-01  -1.0280436e-01  -3.9009887e-01  -7.4325874e-02   1.0697509e-01  -2.9126577e-01   1.7313850e-01  -3.0612465e-01   9.5723295e-01  -8.9779249e-02   2.2826621e-01   7.1012970e-01  -5.2807737e-01   8.3561185e-02   2.9606923e-01   6.5066503e-01   5.1380270e-01  -2.9497641e-01  -3.8875200e-01  -4.5616633e-01  -2.0523758e-01   9.4225520e-01  -6.9032347e-01   8.7433531e-01   3.3114858e-01   2.3319942e-01   7.4542568e-01  -3.6013774e-01  -4.9375766e-01   9.6705211e-01   4.5976919e-01   6.2933538e-01   8.9670713e-01  -9.8675347e-01  -9.9608586e-01  -5.1807199e-01  -2.6845272e-01   2.6814265e-01   8.8914467e-01  -5.1218580e-01   3.7090467e-01  -1.1849943e-01  -9.7768204e-02   2.4065560e-01   3.3013116e-01  -4.3776923e-01   2.1666973e-01   7.2086500e-01   2.0143401e-01  -8.4384557e-01  -3.1645130e-01   3.4893512e-01  -5.3707104e-02   3.6064052e-01  -8.6346215e-01  -2.8656388e-01  -8.9882833e-01   8.8558729e-01  -2.2218336e-01   3.3857585e-02  -8.1957597e-01  -1.6092294e-01   2.7629715e-01   5.3929519e-01  -3.1172484e-01   5.5603541e-01  -4.6479966e-01  -4.0010097e-01   4.6975164e-01   1.1057741e-01   5.0522571e-01   5.0389544e-01  -4.2034714e-01   5.1901905e-01   7.9966749e-01  -9.9644060e-01   8.5052352e-01  -6.9506328e-01  -5.9031680e-01  -1.3502778e-01   8.5223301e-01  -9.0560898e-01  -7.6416795e-01   6.0718247e-01  -1.4473141e-01  -1.5652207e-02   8.5644310e-01   5.6314908e-01   9.1694021e-01  -7.5290956e-01   3.3010173e-01  -5.6364374e-01   2.6208198e-01   1.6679937e-01  -7.2344056e-01   3.9972473e-02  -3.5403732e-01   6.3516663e-01  -7.0263059e-03   4.2958439e-01   3.3136597e-01  -8.4952620e-01  -2.4279843e-01  -9.4864118e-01   8.7621586e-01   2.6712969e-01  -3.5408738e-01   9.6285643e-01   1.4907115e-01   5.8487155e-01  -2.3014763e-01  -3.4019077e-02   8.4544895e-02   8.1037024e-01   8.1288853e-01  -2.6904331e-02   2.0863721e-01  -2.0982494e-01  -2.9666549e-01   7.7672677e-01   5.8272119e-01   6.6439142e-01   7.6528943e-01  -9.0927382e-01   5.6087900e-01   6.9258844e-01  -8.3640542e-01   2.3239146e-01   5.5271107e-01   1.2298609e-01  -6.3477745e-01  -6.9280629e-01  -6.8592591e-01   7.4437675e-01   6.2346159e-03  -8.9828219e-01  -5.5874582e-01   9.6621470e-02  -7.7023775e-01   8.7062339e-02   1.9845225e-01  -4.8970965e-01  -6.9429197e-01  -9.2140279e-01   5.4225685e-01  -9.9317953e-01   8.6395237e-01   1.0166216e-01  -6.4386542e-01  -8.1952987e-01   1.5266583e-02   4.2267442e-01  -4.3016535e-01  -9.8670900e-01   3.6773967e-01   7.7809610e-01  -1.1812964e-02  -9.9771902e-02   8.6456469e-01   7.8470777e-01  -3.3329226e-01   1.5281106e-01  -6.0043040e-01  -8.8152885e-01  -9.2051290e-02  -6.0880015e-01   3.4858579e-02  -9.4324894e-01   3.2088150e-01  -8.4902593e-01   5.6205027e-01  -3.4751784e-01  -3.9292555e-01  -2.8272805e-01   1.4685188e-01   2.5699194e-03   5.1058627e-01   3.1190437e-01  -6.7063202e-01  -8.0410743e-01  -4.5801321e-01  -6.1136731e-01   1.5991826e-01  -1.0553803e-01  -6.7099443e-01   2.7612455e-01  -1.7576801e-02   1.9550721e-01  -7.4908906e-01   8.6368143e-01   9.9122882e-01  -7.3760836e-01   6.5670988e-01  -9.3816441e-01   3.0622164e-01   5.7388077e-01   6.7456181e-01   9.0440387e-01   3.1872658e-01   7.3800680e-01  -3.5025089e-01   5.5985301e-01   1.9746642e-01   1.1304278e-01   3.1369212e-01  -9.5804023e-01   9.5972169e-01  -2.8745093e-01  -8.5078002e-01  -2.1042210e-01  -5.8618598e-02  -5.5308995e-01   7.2286501e-01  -3.3202995e-01   3.2449764e-01   6.9139782e-01  -9.4046641e-01  -2.7804012e-01  -4.5240853e-01  -3.7924607e-01   6.8866652e-02  -5.5624792e-01  -8.0130218e-01  -4.6333112e-01  -8.5265097e-01   7.4254387e-01   5.9021236e-01  -2.6279967e-01  -1.9544380e-01  -3.0050846e-01  -5.3210053e-01  -8.3895821e-01   3.1239838e-01  -6.1470046e-01   9.0418913e-01   9.3841173e-01   1.9401977e-01  -8.6480522e-01   5.8434490e-01   7.5790058e-01   4.8805452e-01  -2.0283013e-01   1.8001318e-01  -1.0263668e-01   6.1034364e-01  -5.3697083e-02  -6.1375833e-01  -3.7243802e-02  -8.2795688e-01   1.7121953e-01  -1.7489665e-01   9.9025552e-01  -1.7578112e-01  -2.8590144e-01  -2.1895941e-01   7.7278112e-01  -3.1382790e-01   9.0196527e-02   2.5630096e-01   5.9987982e-01   4.3354988e-01  -5.3652562e-01  -8.5036595e-02   1.3167608e-01  -9.6375326e-01  -2.5053262e-01  -2.3955915e-01  -9.4522581e-02   4.6662921e-01   1.7571327e-01   7.4270155e-01   2.1855004e-01  -6.7108401e-01   4.5051786e-01  -9.4606980e-02  -2.6995898e-01  -7.7975978e-01   5.7840999e-01   2.5187895e-02   2.2433924e-01   1.8269021e-01   9.7515679e-02  -7.7129169e-01   6.6908631e-01   6.2625897e-01   1.9014672e-01  -6.4264606e-01   5.9203757e-01  -2.2147313e-01  -5.5482579e-01  -6.8321436e-01   8.3858426e-01   7.6655419e-01   9.2472968e-01   2.2147298e-01  -5.6311202e-01   8.6943301e-01   7.0537641e-01  -7.8234815e-01  -1.0157054e-01   8.5990482e-02  -5.2037761e-01  -8.9012816e-01   7.0988966e-01  -8.3722443e-01   7.2065553e-01  -7.5781064e-01   1.0177186e-01  -5.5491491e-01  -7.7229249e-01   8.1171615e-01   4.7190512e-01  -7.3534599e-01   2.4949914e-02   4.2803153e-01   7.9940007e-03   2.8629485e-01   8.9956622e-01   6.7047994e-01   1.9521532e-01  -5.0992861e-01   9.1958332e-01  -5.6946503e-01   5.6372001e-01   4.1707855e-01  -6.2130943e-01   6.4932503e-01   3.0618685e-02   6.5000430e-01   7.6791373e-01   6.7398848e-01   7.3123672e-01  -4.6817115e-01   2.7647109e-01  -2.0894567e-01   3.3840603e-01  -8.1866356e-01   7.3635960e-01   7.0136586e-01   7.1822401e-01   9.2477656e-01  -9.8584172e-01  -8.6000441e-01  -7.0486643e-01   2.8335363e-01  -1.6467307e-01   3.8032628e-01   5.2316943e-01  -9.1292241e-01  -6.2074366e-01  -5.6989494e-01   7.7211255e-01   8.8017066e-01   6.7453790e-01  -7.9403155e-01   4.5608078e-02   5.3708400e-02   6.7243466e-01  -4.7938833e-01  -1.5441564e-01  -7.8253921e-01  -9.0799452e-01  -5.6746361e-01   2.7540373e-01   9.9397456e-01   8.0605240e-01  -4.8175310e-01   2.6854834e-02   8.0757182e-01  -3.2939821e-01  -7.9247996e-01  -9.9234494e-01  -6.8685619e-01  -7.5490440e-01   6.0856538e-01  -2.0800578e-01  -9.1359191e-01  -3.9473505e-01   6.5557925e-02   6.2640240e-01  -8.3769418e-02  -7.0557535e-01  -6.5769171e-01  -4.4988083e-01   9.6416284e-01  -3.2754277e-01  -1.4135929e-01  -8.5168301e-01  -2.1220097e-01  -8.3793456e-01   3.6564786e-01  -1.7446335e-01  -5.7910216e-01  -1.4908226e-01   8.6008841e-01  -7.9924015e-01  -6.6250012e-01   1.8400015e-01  -4.3855387e-01  -7.4345963e-01   9.5171077e-01  -3.2668486e-01  -4.9945065e-01   5.8828936e-01  -8.5782826e-01  -7.5303908e-02   2.0289720e-01  -1.0162960e-01  -3.7094770e-01   8.8997919e-01   6.1111262e-01   8.0948530e-01  -8.8145361e-02  -7.3866968e-01   2.6505672e-01   7.2904236e-01  -2.2941550e-01  -9.8101987e-01  -1.0066741e-01  -5.6343302e-01   3.7378204e-01  -5.6779675e-01  -7.6846976e-01  -8.8348240e-02   2.9224799e-01  -7.1300039e-01   3.5439086e-01  -9.3123082e-01  -2.1999705e-01  -4.4272636e-01  -9.1227317e-01  -9.9836872e-01   7.4033986e-01  -4.4019906e-01  -3.3481906e-01   2.0086781e-02   4.0483572e-01   9.6104147e-02  -6.1892046e-01   5.9436585e-01  -3.1527916e-01   7.4229561e-01   2.1630089e-01  -7.3071025e-01   5.2674703e-02  -4.3843624e-01   4.5337229e-01   8.8469887e-01  -7.4467672e-01   7.2612131e-01  -3.9131435e-01  -8.1857657e-02  -5.5388086e-02  -7.4030636e-01   5.7420866e-01  -1.3327842e-01  -6.9736578e-01   1.8548084e-01  -6.8017139e-01  -8.2354811e-01  -8.0012119e-01   2.0997327e-01  -6.2676515e-01  -5.7458707e-01   9.8114659e-01  -1.3099530e-01   3.2552562e-01  -4.3572757e-01   2.3095428e-01   9.9657952e-02  -7.9490911e-01   2.7255394e-01  -3.4992408e-01   6.5757238e-01   8.0676267e-01   2.7589922e-02  -6.4073433e-01  -7.5053530e-01   5.1732360e-01  -5.1833789e-01  -4.4446480e-01  -9.8845830e-01   3.5970722e-01  -5.4137172e-01   6.1730989e-01  -3.7032366e-01  -7.5223544e-01   5.6286049e-01  -1.0865160e-01  -2.2149968e-01  -5.0736193e-01  -4.1084669e-01  -4.1689494e-01  -1.9671328e-01  -8.2515837e-01   6.0190175e-01   4.8342766e-01  -8.9390416e-01   3.2871489e-02  -2.1533084e-01   6.3940792e-01  -9.3684644e-01   4.7141537e-01  -1.0201206e-01   3.4528034e-01   9.0172054e-01   6.0793277e-01   7.2971375e-01  -8.7827373e-01   3.5082677e-01  -9.3908001e-01  -9.9723335e-01   4.0983993e-01   8.1759550e-01  -2.6010919e-02   6.2947983e-01   2.5680814e-01   7.9402232e-01   6.4087417e-01  -3.2602824e-01   4.5125913e-01  -3.5215871e-01   9.9682909e-01   4.0056903e-01  -1.6594999e-01   7.2886898e-01  -3.5354992e-01  -4.8114043e-01  -1.1694598e-02  -8.7134906e-01   4.3596421e-01  -8.2157298e-02   7.5349526e-01   1.0693324e-01   6.4686395e-01  -1.9307694e-01   7.4899216e-01   7.5636643e-01   2.9962105e-01   7.4459018e-01  -8.5851983e-01   9.7658789e-01  -9.4576472e-01   1.4343300e-01  -4.2072579e-01   4.8637579e-01  -6.3528504e-01   3.8675802e-01  -1.3884462e-01   4.3954708e-01  -8.4516242e-01   3.4124481e-01   9.3674799e-01  -4.5747705e-01   2.0589232e-01   6.5744931e-01  -1.9169632e-01  -6.7727246e-01   8.6451017e-01   1.3671876e-01   7.7934100e-01  -7.5745857e-02  -7.5219091e-01  -2.7239541e-01  -6.2794241e-01  -5.7062834e-01   8.2751534e-01   8.4189614e-01  -6.2713432e-01  -6.6619516e-01  -2.8352173e-01  -3.9713966e-01   3.8979462e-01   3.0124477e-01   7.1058649e-01  -5.4816232e-01  -4.5955179e-01   6.6159035e-01  -3.1254646e-01   8.4688441e-01  -1.4736047e-01   6.4015985e-03   4.2129351e-01   1.5700701e-01  -8.0568562e-01  -9.2715002e-01  -9.8235331e-01  -7.3747971e-01  -5.0158723e-01   4.4014635e-01   5.5033785e-01   8.7191264e-01  -3.2505312e-02  -2.0951043e-02   2.7208395e-01   4.5125858e-01   3.2707375e-01  -5.7696693e-01  -9.0796002e-01   2.0251356e-01  -9.3956168e-01  -8.2944084e-01  -6.1384569e-01  -3.9978654e-01   4.6772220e-01   3.2079742e-01   1.6742222e-01  -1.2326590e-01  -3.8027697e-01  -7.0730353e-02   7.3952757e-01   9.8264560e-01   6.8026982e-02  -1.0314876e-01  -9.6781903e-01   7.0947773e-01  -4.1194401e-01  -4.1534937e-01   8.2358922e-01  -2.5010746e-01  -1.8150115e-02  -1.5476180e-01  -1.2482315e-01   8.2867296e-02   7.7930956e-01  -5.0854024e-01   1.7249917e-01  -7.3113028e-01   3.3472000e-01  -6.2523913e-01  -3.7743094e-01  -5.5352249e-01   3.8778047e-01   3.3758388e-01  -4.2387269e-01  -3.7010834e-01  -8.6749456e-01   2.0430584e-01   5.2644059e-01  -9.5880931e-01   7.5363445e-02   9.3824958e-01  -1.9261360e-01   3.1338715e-01   1.7834678e-01   8.9704485e-01   2.1855320e-01   2.4081794e-01  -2.1419370e-01  -9.0658787e-01   1.7066918e-01  -4.3396540e-02   4.0676266e-01  -1.4854153e-01  -1.7502196e-02  -5.9389434e-01  -2.7128547e-01   3.4309325e-01   4.9121661e-01   5.8401253e-01   3.8855766e-02  -2.1089526e-01   3.8048089e-01   2.1334683e-01   5.4753369e-01  -9.5873082e-01  -7.7763020e-01  -4.7262243e-01   5.7140274e-01   8.0903241e-01   4.2094507e-01   4.9814950e-01   8.1380727e-01   8.8926168e-01  -6.5755492e-01   8.3020868e-01  -7.4381073e-01  -1.4445801e-01   9.1843979e-01  -5.2633711e-01  -7.2506050e-02  -6.5629011e-01  -6.6519374e-01   9.8787467e-01  -1.1893261e-01  -1.5709089e-01   2.5645554e-01   8.4871845e-01  -9.0999370e-01   6.8451826e-01   6.0729011e-01   8.5643933e-01   6.4787071e-01  -7.9311141e-01  -3.7841402e-01   8.5089773e-01   4.5908051e-01   1.7383019e-01  -7.0136105e-01  -2.0857442e-01   7.8251429e-01   6.5373638e-01   2.0202267e-01  -1.1541470e-01  -6.0428157e-02  -6.9900208e-01   5.2574892e-01   7.0111787e-01  -4.4562137e-01   5.9376323e-01   9.1799085e-01  -5.7244184e-01   6.9429289e-01   6.5572130e-01   5.6193671e-01  -5.7591653e-01  -1.8874119e-01   1.4284574e-01   4.6266887e-01  -6.8392496e-01   3.4532035e-02  -2.5316979e-01   9.1430829e-01   5.4993719e-01  -7.4496935e-01  -2.4583723e-01   5.1055667e-01  -1.7264173e-01   9.3151608e-01  -4.5877881e-02  -6.5935724e-01  -8.7280812e-01   1.8053046e-01  -1.1163042e-01  -7.3957066e-01   1.3782894e-01  -1.8975104e-01  -1.0348832e-01   2.5392677e-01  -9.1683983e-01   1.2728969e-01   4.2282039e-02  -4.7275130e-01  -6.3790551e-03   3.2336741e-02   2.7109284e-01   8.6347757e-01  -3.5075223e-01   3.8034993e-01  -7.4304719e-02  -3.6828882e-01  -1.6087696e-01  -2.0781625e-01   6.3550939e-01  -6.0987326e-01  -6.3824086e-01   3.2552827e-01   7.4190576e-01   8.8401169e-01   9.3279579e-01   5.2748921e-01  -4.8058803e-01   2.8564574e-02  -4.0033325e-01  -8.1380110e-01  -2.5734128e-01  -5.3318353e-01  -9.8673050e-01  -1.1736392e-01  -9.2800195e-01   2.0458580e-01  -3.5422548e-01   6.9244931e-01   8.7481062e-02  -7.2291620e-01   9.5016872e-01   1.5609970e-01  -8.8526231e-01  -4.4092992e-01  -9.6402519e-01  -9.0818911e-01   5.5794227e-01   9.7418098e-01  -6.1546125e-01   6.9452638e-01  -9.3178488e-01   8.8285711e-02   8.0575119e-01  -2.9775662e-01  -9.7020775e-01   9.6073278e-01  -7.8991652e-01   2.3012509e-01  -1.7252209e-01  -5.0886498e-01  -3.0541552e-01  -3.6510740e-01   6.9942799e-01  -8.7913360e-01   6.2696144e-01   6.8287718e-01   6.8123058e-01  -8.3619174e-01  -7.8339905e-01   7.4983499e-01   7.6181022e-01  -1.9174840e-01  -3.4590217e-01  -9.4275046e-01   7.0993900e-01  -4.4732316e-01   7.4634281e-01   8.7688664e-01   1.3793748e-01   8.3511505e-01  -1.7038180e-01   4.1636921e-01  -3.5810041e-01   4.9164860e-01   1.4929019e-01   7.9718164e-01   5.5831178e-04  -1.5812481e-01  -1.9283473e-01  -6.5196769e-02  -4.5089642e-01  -3.4618116e-01   6.8882482e-01  -9.0849599e-02   4.4368794e-01   1.9927673e-01  -5.2762795e-01   5.2421621e-01   1.1855382e-01   2.1039651e-01   8.3572365e-01  -6.0691220e-01  -7.2921477e-01  -1.9077923e-01   9.7127377e-01   2.2043661e-01  -9.9597424e-01   7.0709056e-01  -9.5203418e-01   5.4731635e-01   3.4224336e-01   7.1543321e-01  -2.5098712e-01   7.1712728e-01  -6.2997547e-01   2.6282609e-01   6.3703976e-01  -1.6189226e-01   7.4769299e-01   3.8806016e-01   5.0857748e-01  -4.3733168e-01   3.6602515e-01   2.4755146e-01  -1.6288800e-01  -3.9373906e-01  -6.3917140e-01   9.3989130e-01  -1.9210349e-01  -2.2593270e-01   5.6552743e-01  -2.0059412e-02  -2.8877124e-01  -6.5736506e-01   9.1997274e-01  -1.1848256e-01   7.0787106e-01  -3.4645991e-01  -8.2787952e-01   3.6578476e-01  -6.1889559e-01   7.3860449e-02   6.7500503e-01   8.1386407e-01   2.1940359e-01   9.4192773e-01   3.5275045e-01  -2.1272761e-01  -7.6249300e-01   5.8728643e-01   5.3049839e-01  -6.4232618e-01  -9.5846966e-02  -6.8180023e-02   7.1752865e-01   5.8258173e-01  -1.8661651e-01  -4.9863135e-01   5.0962387e-01   4.2264346e-01   2.3113511e-01   8.6250644e-01  -7.3222478e-01   4.7688872e-01  -7.1289050e-01  -1.0835488e-01   5.6578083e-01  -4.3142701e-01   5.9712067e-01  -8.1281499e-01   9.6954636e-01   9.9427158e-01   7.6702283e-01   9.9612099e-01   6.6251353e-01   8.4473640e-01   8.5685295e-01  -3.2242260e-01   9.5192313e-01  -8.4275896e-03   1.2202735e-01   4.9507147e-01  -2.8088645e-01  -4.0829881e-01  -1.2464863e-01   3.0792100e-01   8.4376440e-01   8.9912750e-02  -4.6203480e-02  -2.0509136e-01  -1.2991509e-01   3.9058049e-01   1.5272775e-01  -7.8315728e-01   5.0195664e-01   6.8848487e-01   4.8271501e-02  -3.7636886e-01  -5.6562061e-01   3.2401165e-01  -3.1102080e-01  -6.7824616e-01   2.7107650e-01  -8.2679194e-01   9.8745412e-01   1.2789155e-01   9.8798544e-01  -3.4504327e-01  -9.5922260e-01   2.6263454e-01   2.8221980e-02  -2.5399509e-01   9.0568331e-02   4.9144991e-01   2.1325002e-01   1.9718409e-01  -8.0530045e-01  -5.5894528e-01  -1.2988977e-01  -6.9674504e-01  -7.7161557e-01   7.6785483e-01   7.4533726e-02  -4.4028851e-01   6.2886270e-01  -1.3406922e-03  -8.2846303e-01   2.9057905e-01  -1.2138182e-01   6.3807823e-01  -1.5819720e-01  -1.2377511e-01   5.7205443e-01   4.8588089e-01  -1.9097059e-01  -9.9670089e-02   9.9686087e-01   6.6676370e-01  -6.2877943e-01   1.9071111e-01   7.2374768e-01   9.1529345e-01   9.5088312e-01   7.1543058e-01   8.3748120e-01   9.6154446e-01   9.2311046e-01   4.8515947e-01  -2.6436641e-01   3.9727210e-01  -9.6652739e-01   9.8974777e-01   5.5536508e-01   9.6098601e-03   4.1656289e-01   4.2535566e-01   2.6734754e-01   9.4550686e-02   3.6818606e-02  -4.3452179e-01   3.1425542e-01   7.7963132e-01  -3.4481768e-01   7.1948560e-01
