   5.3498674e-01   7.9441041e-01  -2.7901659e-03  -3.6077673e-01  -5.0409629e-01   5.3481847e-01  -6.5002819e-01   1.8743281e-01   8.4155751e-01  -5.1881191e-01  -6.7456708e-01  -5.0946248e-01  -2.9087719e-01  -7.3062155e-01  -1.9598364e-01  -2.7385876e-01   6.1846589e-01  -5.9957090e-01  -7.3736185e-01  -8.5434083e-02  -3.2279369e-01  -7.2713752e-02  -4.8962169e-01  -5.9591450e-01   4.2028117e-01   1.5924431e-02   8.9221597e-01   7.8345960e-01  -2.2448226e-01   5.5353214e-01   7.1325406e-01  -1.0453780e-01   8.2604796e-01  -9.3078798e-01  -2.0119230e-01   5.7358476e-01   5.1215356e-01  -2.2529178e-01  -4.9452781e-01   2.9986548e-01   1.4973898e-01  -5.1750829e-01  -4.2443165e-01   8.7322330e-01   1.9406857e-01   9.8137178e-01  -9.4682728e-01   8.2513491e-02   2.5521274e-01   7.5398189e-01   5.7990881e-01   7.7921615e-01  -3.5527922e-02  -4.0257909e-01  -5.8828627e-01  -6.0541308e-01  -7.1693945e-01   3.0580564e-01  -7.2975314e-01  -6.1050526e-01  -2.9515742e-01  -7.9464670e-01  -5.5459059e-01   8.0736051e-01   8.5838338e-01   5.6227222e-02   3.0143073e-01   3.1663492e-01  -8.5374380e-01   7.4375605e-01   5.2896621e-01   5.3640097e-01  -6.3688899e-01  -3.2746479e-02  -7.8995636e-01  -1.5705998e-01   9.9522546e-01  -1.0950948e-01  -3.5803394e-01  -4.3633578e-01   2.1850874e-01  -6.0999447e-01  -8.1885763e-01  -3.7731898e-01   7.4250573e-01   1.6569526e-01   5.9434410e-01  -6.6504067e-01   6.3550891e-01  -7.9783637e-01  -7.5654897e-01   4.2923899e-01  -2.9853785e-01  -7.9782328e-01  -1.4503014e-01   7.4849496e-02   9.4835495e-03   6.4759687e-01   6.5773679e-01  -3.5995283e-01   1.9919641e-01  -7.7181869e-01   4.9230642e-01   4.7464904e-01  -3.8542131e-01   7.6061474e-01  -3.6011576e-01  -3.7281232e-01  -3.2668954e-01   7.6861742e-01   6.5483401e-02  -4.9655187e-01   7.2663894e-01  -1.3246992e-02   2.2255105e-01  -4.1024785e-01   1.2579550e-01   6.5724812e-01  -4.3105381e-01   7.1681055e-01   1.5924517e-01  -5.3364328e-01   5.6368777e-01   8.2687130e-01   2.9022474e-01  -9.4705104e-01   5.1833162e-01  -4.7320764e-01  -4.8930035e-01  -7.6372235e-01   7.5713955e-01  -2.2337295e-01  -1.4291825e-01  -5.2670701e-01   7.5627377e-01  -8.6864855e-01  -7.6494840e-01  -1.3487799e-01   7.9729503e-01  -5.7135220e-01   4.1328761e-01  -6.6410896e-02  -8.2000801e-02  -4.5643075e-01   4.8969583e-01   7.1092133e-01   2.1375259e-01   2.6234997e-01   5.7428488e-01  -1.0316573e-01   3.2407841e-02   3.8151176e-01   3.7963214e-01   4.9973538e-01  -2.4973164e-01   2.3057619e-01   6.5178881e-01   7.3114336e-02  -1.6723451e-01  -8.1499437e-01   3.7436871e-01  -2.6135378e-01  -6.0448206e-01  -9.9723726e-01  -4.1915609e-01   8.1935566e-02  -7.5103593e-01   8.2999480e-01  -5.3750152e-01  -2.9075202e-01  -3.5397768e-02  -7.3524829e-01   2.4610271e-01  -5.1798423e-01  -3.2306917e-01   3.9737964e-01  -1.7359516e-01   4.3187388e-01  -2.1552410e-01   5.6495553e-01   3.2664692e-01  -6.1956338e-01  -3.1234957e-01   8.1468721e-01  -9.4177947e-01  -1.2372225e-01  -8.3480145e-02   4.4288296e-01   1.0903853e-01  -2.6155894e-01  -2.6444019e-01  -3.6826425e-01  -8.8811280e-01  -4.3091647e-01   1.1085240e-01  -1.1482103e-01  -2.8742508e-01  -5.3199984e-01  -2.8495253e-01  -1.5821744e-01  -5.8423262e-02  -7.0115955e-01   2.1276149e-01  -1.3905194e-01   7.7301141e-01   1.8615126e-01   8.6754929e-01   6.0417692e-02   6.4852364e-01  -9.4545796e-01  -2.3781864e-02  -8.5175390e-01   9.5672419e-01  -9.0527446e-01   4.3681047e-01   6.1074522e-01   4.1099159e-01  -3.0917072e-02  -5.2018025e-01   3.0139617e-01  -4.5381379e-01   3.3731153e-01  -1.0082279e-01   3.5086443e-01   3.3457389e-01  -3.7733431e-01  -1.3851602e-01  -1.0704541e-01  -6.5829552e-01  -1.6205220e-01  -2.9349434e-01   6.1816319e-01   6.1812275e-01   6.9042640e-02   7.5024251e-01  -1.6746953e-01  -2.9680501e-01   3.4006649e-01   9.2810456e-01   7.0375141e-01   7.1938654e-01   6.4486451e-01  -4.6395402e-01   5.9102341e-01   6.6868501e-01   6.3030850e-01   5.8114825e-01  -5.3785815e-01  -7.6814741e-01   1.3213890e-01  -9.7262516e-01   5.1477889e-01   2.0019358e-01   2.0976251e-01   1.7217436e-03   3.9699859e-01   4.6972469e-01   7.7370233e-01   2.5620726e-01  -3.1641451e-01   2.3768954e-01  -3.5399032e-01  -7.0764549e-01   1.9625040e-01  -9.1911285e-01   6.4289621e-01  -1.1762883e-01   4.6344583e-01   3.9985446e-01  -2.3133417e-01   4.8111532e-01   4.6394243e-01   2.1400260e-01   7.3787197e-01  -6.8010382e-01   7.6653541e-01   1.8556315e-01  -2.8514104e-01  -4.8920762e-01  -9.5538507e-01  -4.8739373e-01   6.1515708e-02   2.6673038e-01   3.6511624e-01   9.5898597e-01  -6.6269390e-01   2.7581385e-01   5.4791762e-01   9.7126939e-01  -4.3291994e-01   9.3903496e-01   7.6238930e-01  -1.1504163e-01  -8.2544331e-01  -2.0705147e-01   5.5520819e-01  -5.9319270e-01   3.6908759e-01  -3.6428510e-02   1.3203760e-01  -9.4164358e-01  -7.3349740e-02   7.4861523e-01  -6.3106959e-01  -9.8914814e-01  -1.9750996e-01  -5.6536120e-02   4.2062293e-01  -7.2165629e-01  -5.7980368e-01   2.9722568e-01  -7.7047496e-02   2.1187835e-01   5.8524204e-02  -2.6911980e-01  -2.0265040e-01  -4.8299812e-01  -8.2063801e-01  -4.2236435e-01   8.1310427e-01   7.7054267e-01   8.4871978e-01   6.4535970e-01   1.5417491e-01   2.0210617e-01  -4.5976502e-02   5.9855530e-01   8.2240711e-01   6.5270870e-01   9.0084280e-01   6.8309515e-01  -7.1881049e-01   7.2764960e-01   8.3780434e-01   4.7986149e-01  -6.8257672e-01   3.0730799e-01  -2.6205635e-01  -7.7306596e-01  -2.4612847e-01   5.1657198e-01   9.1742872e-01   9.9921366e-01  -7.9161141e-01  -4.7722463e-01   9.1280246e-01   1.8653655e-01   3.4461389e-01  -2.0593932e-01   9.3428166e-01   2.5688693e-01   7.2890239e-01  -2.5572121e-02   3.8649317e-02  -5.8094339e-01  -5.7922136e-01   5.1538984e-01   7.1299007e-01  -1.6247182e-02   3.9805550e-01   2.4975770e-01  -2.0987204e-01  -3.8413159e-01  -2.6336434e-01   2.6422505e-01   2.0084978e-01   3.8250741e-01   1.4194497e-01   1.7037473e-01   1.1241530e-01  -7.7106280e-01   8.6758010e-01   9.6165532e-01  -9.0870958e-01   6.8955947e-01  -2.2758872e-02  -3.5825140e-01   3.6275099e-02   9.9416070e-02   1.0242168e-01  -4.0633428e-01  -2.8482712e-01   8.6901836e-02   6.4584039e-02   3.9704151e-01  -7.3559885e-01   9.5926125e-01  -9.6861579e-01  -8.1273589e-01   6.5302879e-01  -7.4331638e-01   1.8026273e-01  -4.1344704e-01  -1.7552465e-01   5.3059238e-01  -7.4259089e-01   8.8486934e-01   6.8673382e-01   6.6555759e-01   7.2412163e-01   7.3725453e-01   3.5778500e-01  -8.4280025e-01  -8.4315897e-01   1.1589759e-01   3.8204951e-01   3.3136848e-01  -6.5336498e-01   2.5915751e-01  -5.9556383e-01  -4.2032272e-01   6.5353595e-01   3.9604576e-01   1.5305670e-01  -5.4429921e-01  -2.1364150e-01  -2.1608174e-01   9.8633624e-01   3.1153586e-01  -9.9863582e-01  -9.9738556e-01  -4.3840496e-01  -2.5750416e-01   2.4068773e-01   8.8073290e-01  -2.8659923e-01   5.6613849e-01  -1.5076655e-01  -5.4756553e-01  -2.6484464e-01  -7.1242549e-01   8.7335766e-01  -7.9122699e-01  -6.4171920e-01  -9.1879085e-01   2.6057274e-02   9.7700356e-01  -6.0879693e-01  -2.2651359e-01   5.9399688e-01   3.6453241e-01  -6.3451939e-01   9.0773400e-01  -2.5714595e-01  -8.4891062e-01   1.3333919e-01   4.4837321e-01  -9.9684960e-01   6.4105719e-01  -7.0527170e-01   4.1213206e-01  -9.2148204e-01  -4.6561327e-01  -6.7626949e-02  -7.0314849e-01  -6.2744586e-01  -7.3145248e-01   8.3012844e-01  -4.8286420e-01  -4.3086368e-01  -7.8343084e-01   7.7168125e-01   7.0331953e-01  -3.6195552e-01   6.6936237e-01   4.4034652e-01  -8.7193324e-01   6.6286706e-01   4.1825891e-02   8.6890622e-01  -7.7184483e-01   6.1379400e-02   8.8440858e-01  -4.5547787e-01  -7.6959203e-01  -1.7398878e-01  -9.9661176e-01   8.8033884e-01   6.9019479e-01  -7.1569701e-01   1.0427424e-01   4.2018752e-01  -6.2611052e-01   6.4767174e-01   8.1784763e-01  -8.6582929e-01  -6.6732596e-01  -1.4830380e-01   2.0563234e-01  -5.4410029e-01  -6.1342902e-02  -2.4108966e-01   9.2787952e-02   3.1559947e-01  -1.5803176e-01  -1.3753525e-01  -6.9179702e-02   1.4523523e-01  -8.3858466e-01   5.5948255e-01   2.7573923e-01   7.7587106e-01  -5.7685583e-01  -3.2747466e-01  -2.1589973e-02   6.3950254e-01   8.2172125e-02   3.4563907e-01   7.8019689e-01   1.8690425e-01  -2.7203349e-01  -9.3926774e-01  -7.4349964e-01  -7.4388896e-01   2.3038373e-01   6.8597255e-01  -3.6771395e-01   2.0674128e-02  -8.4627384e-01  -6.9529504e-01   2.3619909e-01  -6.9185683e-01  -8.8476063e-01   8.8897769e-01   3.0685656e-01  -2.2670913e-01   7.3006878e-01   3.3822116e-01   1.8016074e-01   4.8746825e-01   8.5356705e-01   9.6378677e-01  -6.8273845e-01   3.6758938e-01  -3.3906121e-01   2.9190277e-01   4.3224376e-01  -9.1927366e-02   5.1770854e-02   7.0487752e-01   6.4309756e-01  -4.5584497e-01   6.7636606e-01  -5.0710098e-01  -4.2007258e-01   3.4009326e-01   5.7827821e-02   1.3731091e-01   1.3244984e-01   2.4203959e-01  -1.2314701e-01   3.3695185e-01  -6.6671717e-01  -2.3889870e-01   8.1429829e-02  -8.5247974e-01  -8.0813471e-01   2.0986213e-01  -8.9604550e-02  -6.5244220e-01   3.9694400e-01  -8.8185133e-01   7.4870472e-01  -4.5855221e-01   8.6793109e-01  -7.0286926e-01  -4.9849574e-01  -2.5851619e-01  -4.1252164e-01  -2.3762842e-01   1.4885988e-02  -1.9010059e-01   6.6407761e-01  -8.4675202e-01   3.2248328e-01   5.2476125e-02   6.1738111e-01   9.5357191e-02  -8.6962050e-01  -3.6196709e-01  -9.2257429e-01  -5.7255504e-01  -5.8331595e-01  -7.6088966e-03   9.6721020e-01   5.9023660e-01  -3.9560010e-01   7.7379845e-01   8.6284698e-01  -7.5791910e-01   1.5154748e-01   4.5863935e-01   9.4664605e-03   6.8590967e-01  -2.0545683e-01  -8.1699054e-01  -4.6979135e-01   5.1969134e-01   4.0748570e-01  -7.7289211e-02  -4.0294566e-01   4.3082907e-01   5.7767641e-02  -8.0573607e-01  -2.4164098e-01   5.8395622e-01   5.8058462e-01   6.3676598e-01  -2.9943708e-01  -3.7530080e-01  -7.0976257e-01   3.1302183e-01   1.2003221e-01   6.0794179e-01   9.6665061e-01   4.3152596e-01   9.2244718e-01   1.1980301e-01   6.5857700e-01  -6.0897415e-01   6.6512818e-01   6.2338623e-01   8.0496407e-01  -8.9863341e-01   1.7373708e-01  -4.2259997e-01   6.5234979e-01  -8.1989986e-01  -6.0861738e-01   5.2514983e-01   4.2799966e-03  -6.0351461e-01   1.3671446e-01  -9.9318726e-01   4.7473586e-01   2.1822019e-01  -7.8601071e-01   1.5406525e-01  -6.1857349e-02   4.8132740e-01  -4.8148378e-01   7.2733080e-02  -4.1349701e-02  -2.5236682e-01   8.2130856e-01  -6.4516676e-01   5.9072002e-02   4.6105839e-01   5.0281197e-01   9.8672397e-01  -5.6133139e-01  -6.0110998e-01  -4.4402261e-02  -6.7098211e-01  -9.6500094e-01   4.0793119e-01  -1.3589966e-01   2.3065179e-01   2.4866052e-01  -8.0190653e-01   8.4405089e-01  -4.0773842e-01  -1.4531174e-01  -2.8825815e-01   8.4458479e-01  -2.7813409e-01   9.2506627e-01  -9.8246280e-03   1.1732968e-01  -3.2101079e-01  -9.3434522e-01   9.7394433e-01   1.8166322e-01  -6.0108493e-01  -2.6019046e-01   8.4265432e-01   5.3851760e-01  -8.3662446e-02  -2.0188508e-01   6.6260186e-02  -9.1023633e-01   3.1625285e-01   4.8296112e-01  -1.0226230e-02   2.0734608e-01   5.6335053e-01   9.2566923e-02   7.2784576e-01  -9.4911610e-02   9.7488341e-01   2.4648505e-01   1.8578872e-01   6.9883745e-01   2.9456516e-01  -2.6681120e-01  -7.9761712e-01  -2.5155501e-01  -6.6355462e-01   8.4742310e-02  -7.7251033e-01   7.7741619e-01  -6.1010200e-01  -9.3681680e-01  -3.4500508e-01  -8.9761108e-01   2.4259844e-01   1.7474714e-01  -1.8907987e-01  -8.2404803e-01  -7.4924207e-02   4.3715200e-01  -4.0275467e-01  -2.3515229e-01  -6.3937681e-01  -4.5298216e-01   7.7891699e-01   9.9125099e-01  -9.8973252e-01  -4.9547560e-01  -9.3313062e-01  -6.7965477e-01  -8.0432764e-01  -7.6325212e-01  -9.0545348e-02   3.1804864e-01   8.3700390e-01  -6.0537485e-01  -5.1572919e-01   7.8031125e-01  -7.7236504e-02   8.2468357e-01   3.8321970e-01  -3.8356613e-01   7.5037127e-01   8.8331193e-02  -6.8450812e-01  -4.3044965e-01  -5.6273289e-01  -6.3462940e-01  -4.2059163e-01  -3.0226169e-01   8.4618342e-01   2.7494311e-01   5.6633388e-01   2.5124240e-01   5.5183448e-01  -9.8487954e-01  -7.2408168e-01   2.4271234e-01  -1.8154595e-01  -9.5095781e-01   8.1339515e-01  -5.2280365e-01  -7.4406879e-01  -8.0115441e-01   3.1045218e-01   4.4317087e-01   1.7453264e-01  -2.7379216e-01   7.7445203e-01  -6.2295047e-01   4.7701719e-01  -5.6115141e-01   7.7362747e-01  -8.4354281e-01   9.5249933e-01  -8.7733736e-01  -9.1439187e-01   5.3213434e-01   6.9612193e-01   1.5237655e-01   6.8717293e-01  -4.0573417e-01   6.3372885e-01  -7.8080856e-01  -6.6686574e-01   5.7768965e-01  -8.4904256e-01   7.8561382e-01  -9.2963346e-02   7.6272853e-01   3.7198369e-01   9.0965408e-01   1.2763744e-01   6.4561462e-01   5.6809558e-01  -7.6748032e-01   2.9811511e-01  -2.4484379e-01   8.3820646e-01   1.4765251e-02   8.2083381e-01  -8.4984412e-01  -4.8610423e-01   7.2613730e-01  -2.6492726e-01  -6.2135467e-01  -8.2647424e-01  -4.5126377e-01   1.3832584e-01   4.9774032e-01   9.0772078e-01   1.9665376e-01   1.3673834e-01   6.7740339e-01   2.1940489e-01  -7.1544184e-01   4.2498621e-01  -9.6154698e-01  -8.3202968e-01  -9.9625939e-01   2.5314066e-01   5.5923822e-01   7.5736182e-01  -3.0181546e-01  -5.5922131e-02  -1.8628245e-01   8.9283459e-01  -5.2408204e-01  -3.0128819e-01   2.2501534e-01   2.8597879e-01  -5.1144661e-01   7.6009064e-01  -2.4546551e-01  -9.1526991e-01   4.2233926e-01  -1.8426992e-01  -6.5453102e-01  -5.9796892e-01   4.1630186e-01  -6.2767383e-01   6.8814874e-01   1.5390288e-01   9.4970177e-01  -5.2662454e-01  -9.4780979e-01   3.9472311e-02   2.3658471e-04  -1.8634526e-01  -3.8604946e-01  -1.1664869e-02   6.0972758e-02   3.0894409e-01   3.7215690e-01  -6.1400330e-01   2.9667899e-01   3.9033870e-01   2.7908855e-01   6.5781474e-01   3.3931255e-01  -8.9411525e-01  -8.7073162e-01   8.3537840e-01  -1.5121443e-01  -1.3705159e-01  -3.6475766e-01   4.4795707e-01   5.3293201e-01  -9.4121528e-01  -8.4008743e-01  -6.6725730e-01  -4.2000735e-01  -6.2912547e-01   9.7581261e-02   8.8196934e-01  -8.8902428e-01  -4.1971526e-01  -2.8670938e-01  -8.5203606e-01  -9.6355973e-01   2.8220855e-01   8.7391541e-01   2.2162985e-01   5.5592967e-01   6.6727715e-01  -6.0380954e-02  -7.4891210e-01   8.3386636e-01   9.0527908e-01   3.5862252e-01  -1.8900421e-01   2.7013708e-01  -5.7748356e-01   9.6959912e-01  -8.8147244e-01   5.5431532e-01   8.3846100e-01   8.4834723e-01  -1.0860465e-02  -8.4616582e-01  -9.9980410e-01   2.2377615e-01  -7.8086122e-01   2.9577721e-01   7.1313976e-01  -2.7289207e-01  -8.1100065e-01  -7.8634170e-01  -1.4530945e-01   5.5184069e-01   8.9200045e-01  -5.3211608e-01   2.9140059e-02   8.5083023e-01   5.8185447e-02   5.3606746e-01  -8.1655414e-01  -6.3525551e-02   3.8158943e-01   7.6688474e-01   6.3178262e-02  -4.6412471e-01  -2.7758326e-01  -7.1712214e-01  -7.2674951e-01   5.8389467e-01  -5.2039299e-01   4.4614694e-02   1.1764329e-01   2.3941762e-01  -4.7392724e-02   2.8794263e-01   2.7118632e-01  -1.9564014e-01  -1.5735261e-01  -3.8889157e-01   3.2889224e-01   1.6119256e-01   5.6533478e-01  -6.6127119e-01   2.1628359e-01  -6.9786895e-01  -5.0048590e-01   1.2756458e-01   3.1738919e-02   5.0714867e-01  -2.0001167e-01  -2.3505168e-01   7.5181443e-01   8.9797688e-01   8.2311678e-01  -4.1610671e-01   1.0246676e-01  -1.7613964e-01   2.6509788e-01   1.6568959e-01  -6.7058118e-02  -8.9502442e-01  -4.8961265e-01   2.6356903e-01  -9.2946178e-01  -7.7567187e-01  -7.9068678e-01   2.3593216e-01  -7.6510192e-01  -1.2446019e-01   9.4725932e-01   1.3097661e-02   1.6702570e-01  -7.5914165e-01   9.2959814e-01   2.4547107e-01  -7.7754914e-01  -4.9234096e-02   6.5088963e-01   8.3141831e-01   3.6872583e-01   2.8469825e-02  -3.0117663e-01  -6.2499137e-01   2.1226152e-02   5.5208520e-02  -9.1370949e-01   1.1266151e-01  -6.1965977e-01   7.7307614e-01  -6.5151757e-01  -2.6326489e-01  -2.5379242e-01  -9.6800629e-01   9.6030653e-01   4.8794493e-01  -2.9013821e-01  -5.0410501e-01   7.3973218e-01   3.7277174e-01   2.1406364e-01   3.7604145e-01   2.7810039e-01   7.0568294e-01  -2.0979466e-01   3.9979088e-01   6.3188333e-01  -8.5723950e-01   7.7447565e-01   5.4905090e-01  -6.7100142e-01  -4.1103926e-01   1.8664016e-01
   1.9661225e-01  -3.5104938e-01   6.1584075e-01  -2.6958736e-01   7.7899961e-01   6.7211946e-02   2.0039801e-01  -3.6240687e-01   6.3863542e-01   1.9450757e-01   4.3091304e-01   8.6562255e-01   3.8599209e-01  -1.3753312e-01  -5.6113040e-02  -8.5330021e-01  -2.4752012e-01  -2.4987809e-01   5.8417732e-01  -4.9437772e-01   7.4495634e-01  -4.7329939e-01  -7.3421011e-01   3.1479718e-01   2.9891489e-01  -2.1690409e-01   5.0275408e-01   8.5525283e-01   3.3251025e-01   2.4898637e-01  -6.5666731e-01   8.3448893e-01   6.5197066e-01   4.9432521e-01  -7.5489069e-01   2.2272987e-01  -7.3738548e-01   7.0168410e-01   4.8535063e-01   3.9525381e-01  -6.0304547e-01   2.8003200e-01   5.4536462e-02   7.6764620e-01   8.5112223e-01  -4.1555443e-01   4.8020601e-02   1.6392623e-02   9.6389572e-01  -2.6606819e-01  -1.7666869e-01   6.1092985e-01   2.4720658e-01  -7.6336825e-01  -2.7895393e-01   1.2833581e-01   4.8364886e-01   1.0585306e-01   2.4160144e-02  -3.9686429e-01  -5.0092586e-01   8.8967892e-01   8.4228972e-01  -3.2747268e-01   8.6579963e-01   2.4731041e-01  -5.7778665e-01  -1.9840585e-01   2.9362180e-02   7.7028222e-02   1.9570097e-02  -3.6460976e-01  -6.7689857e-01   7.3725065e-01  -1.4043858e-01  -7.8539184e-01   9.4184631e-01  -7.5196598e-01  -3.4262805e-01   2.7066974e-01   4.9676237e-01   2.7877456e-01   4.4304391e-01  -7.7144900e-01  -5.5517071e-01   9.7531040e-01   5.1031673e-01   1.9639500e-01   5.6186169e-02  -4.0948905e-01   9.9769343e-01   7.7723209e-01  -6.2742575e-01   8.1134338e-01   5.6516417e-01   7.4774487e-01   2.7904447e-02  -2.6203511e-01   6.1359599e-01  -9.4559856e-02   3.4264614e-01  -2.5050310e-01  -2.3958985e-01  -5.1962326e-01   3.9755284e-01  -8.5726125e-01   4.1721910e-01  -5.7607422e-02   1.2726459e-01   8.4842362e-01  -7.2323173e-01   3.8356913e-01   6.4114870e-01   3.7966216e-01   2.5822050e-01  -5.1063575e-01   4.6566442e-01  -8.7896778e-01  -4.0639460e-01   1.0996721e-01  -4.5576472e-01   7.8963776e-01  -1.8153467e-01  -4.4879675e-01  -8.0219755e-01  -7.4159326e-01   6.5058501e-02  -1.7821804e-02   2.1278106e-01   9.8134818e-03   3.7976471e-01   5.9726117e-02   2.8757820e-01   8.4141537e-02   9.3077514e-01   8.0446840e-01   3.6634806e-01   5.4067311e-01   5.4267682e-01  -8.8773631e-01   3.7169415e-01  -9.3925341e-01   1.7280244e-01   3.2052513e-01  -8.0461948e-01  -8.0123296e-03   2.5623163e-01   3.6947028e-01   6.7679365e-01  -1.3613807e-01   1.9529896e-01  -7.5430862e-01   9.3466081e-01  -2.6802776e-01   8.6015144e-01   7.9245840e-01  -3.4544188e-02   4.7191921e-01  -4.0568760e-01  -1.9057978e-01  -5.4366678e-01   5.6293046e-01   9.9146080e-01  -7.6852977e-01   1.6661269e-01  -4.6791410e-01   1.9314489e-01  -3.7134684e-01   5.9307678e-01  -8.7285422e-01   6.7766031e-01  -1.6015812e-01  -7.9519770e-01  -3.4565620e-01  -2.8703308e-01   2.2987502e-01   9.9696004e-01  -4.0674982e-01  -2.7132738e-01  -5.5647383e-01   4.4882145e-01   7.5535087e-01   8.7218004e-01  -4.4652146e-01  -2.2552877e-01  -6.5885685e-01  -4.6666356e-01   3.5873962e-01  -7.1758370e-01  -2.0837507e-02  -9.9703327e-01   2.3375260e-01   6.1309074e-01   8.6378013e-02   9.7637085e-01   9.0678421e-01   4.4964399e-01   5.6862538e-01   1.5854191e-02  -6.7070829e-01   7.7539151e-02  -1.7464947e-02   6.4176373e-01  -1.8944885e-01  -5.6296119e-01   1.3536970e-01   6.7930349e-01   6.3362115e-01  -1.6310131e-01  -3.9013155e-01   6.2145755e-01   8.7517658e-01  -4.5674414e-01   4.0194218e-01   7.4732096e-01  -8.3250151e-01   9.8281396e-01   4.3211254e-01   6.1315734e-01   9.1811846e-01  -5.8039525e-02  -8.6835237e-01  -9.4124267e-01   4.3813480e-01   4.0304915e-01  -2.2403105e-01   3.6173260e-01  -2.8979824e-02   6.0389716e-01  -9.1000037e-01  -5.3760280e-01  -7.4733805e-01  -8.9341095e-01  -1.2584406e-01   5.1608993e-02  -2.9755107e-01  -4.2284012e-01  -3.1816170e-02   3.7820752e-01   3.3503271e-01  -1.8441118e-01  -4.2772375e-02   5.8543136e-01  -8.2002042e-01  -9.1030823e-01  -3.6956654e-01   9.7468610e-01   3.6576729e-02  -7.5887123e-01  -1.7515087e-01   1.4552933e-01   7.7793222e-01  -9.2071989e-02   8.7353728e-01  -6.7149332e-01  -8.9217152e-01  -7.8859555e-01   3.8155496e-01  -2.5952778e-01  -7.1752951e-01   3.3812795e-01   3.6739114e-01   3.9189814e-01   3.4231754e-01  -1.4429706e-01  -3.5783853e-01   3.0474386e-01  -3.3863150e-01  -9.4724831e-02   8.3650046e-01   5.3033567e-02  -4.0451403e-02  -5.7770607e-01  -4.4550312e-01  -7.5512854e-01  -6.7991966e-01  -8.4463723e-02   2.9277785e-01  -3.6035828e-01   4.9560553e-01   9.9397855e-01   8.6546252e-01   1.1804617e-02   7.1822763e-01  -5.5099030e-01  -2.8295661e-03   4.0527435e-01   6.9953022e-01   5.7754764e-01  -7.8410208e-01   3.4491779e-01   1.5988923e-01  -6.0457652e-01   2.5176363e-02   7.1562280e-01  -5.2482420e-01  -4.7439395e-01   2.9090546e-01  -8.6350437e-01   3.9354762e-01  -6.3253897e-01   8.1607173e-01  -5.2299033e-01  -4.3986179e-01  -6.7221196e-01   8.3750176e-01   8.3088034e-04   9.4941624e-01   6.0966200e-01  -7.6702620e-01  -9.6357991e-01  -3.7631549e-01  -6.4452607e-01  -1.5250823e-01   8.9628911e-01   9.3458577e-01  -7.0518499e-02   6.5212738e-01   6.4572876e-02  -9.2713240e-01   1.6847272e-01  -5.6787331e-01  -2.4463426e-02  -8.2341544e-01  -8.0241771e-02   1.8083402e-01  -7.7951789e-01  -4.7146515e-01  -5.3214629e-01   7.7648700e-01  -4.1362780e-01   5.7295776e-01  -5.1650282e-01  -9.9189417e-01   1.8224831e-01  -6.1885563e-01   7.7303959e-01   3.8097842e-01   2.7680678e-01  -3.3215906e-01  -6.7535859e-02  -1.3649597e-01   4.7332268e-03   6.6548284e-01   5.3704787e-01   2.2567315e-01  -2.5472360e-01  -1.9210017e-01  -6.5343257e-01   8.3340447e-01   7.8176599e-01   3.9900242e-01   8.8516806e-01   2.0443553e-01   8.1576747e-01   2.0757192e-01   9.9051500e-01  -1.3866357e-01  -9.7646683e-01   1.0556747e-01  -2.6680714e-01   9.5269528e-01  -4.7683020e-01  -4.2337674e-01   7.8006702e-01   8.5557339e-01  -1.6015990e-01  -1.8862883e-01   9.6686489e-01   4.2227272e-01  -2.6512867e-01  -7.1984330e-01  -9.4874623e-01  -4.5432554e-01   8.2544534e-01  -6.5336856e-01  -5.2936335e-01  -2.2566871e-01  -6.2170480e-02   9.5561475e-01  -9.8959411e-01  -8.4405437e-01  -7.1206864e-01  -8.9749757e-01  -2.5742317e-01   3.5934488e-01  -7.1249508e-01  -5.2056876e-01   4.2101474e-01   8.9744914e-01   1.0702522e-01   5.7585799e-02   6.4053923e-01   3.1736466e-02   3.7518463e-01   9.3347857e-01  -9.7886854e-01  -1.0103759e-01  -3.3978478e-01   4.9215298e-01   2.3028834e-01   4.7902191e-01   6.9945554e-01  -5.9737277e-01  -1.6397373e-02   4.5727980e-01   9.3083835e-01  -5.7119659e-01   6.6747712e-01  -1.1231976e-02  -2.0170348e-01   6.2245766e-01  -9.3742249e-01   2.2354321e-01   5.6589702e-01  -9.3108999e-01  -1.1674810e-01   4.8067602e-01   6.1086036e-01   6.9433519e-01  -5.5560976e-01   3.0996726e-01  -6.6370343e-01  -6.2305392e-02  -6.3870977e-01  -5.1086977e-01   4.9032814e-01  -7.0665973e-01  -3.1072593e-01  -7.0633675e-02  -7.1213103e-02  -8.6152611e-01   1.2091233e-01  -4.5208874e-01  -5.3804044e-01  -7.5683315e-01  -4.2853277e-01   1.2858439e-01  -4.1624198e-01  -3.3239125e-01  -7.8321500e-01  -3.1083713e-01  -6.9091167e-01   3.8819979e-01  -3.6261202e-01  -6.0788536e-01  -8.3832619e-01   5.7052615e-01  -4.7199960e-02   1.3590584e-01   1.3512439e-01  -2.0589489e-01   3.4620579e-01  -1.5881524e-01  -3.3856462e-01  -9.4632519e-01  -2.5468699e-01  -2.2750717e-01   8.8429046e-01   7.9454814e-01   2.7143676e-01  -2.6461560e-01  -4.4195921e-01   6.8616554e-01  -5.0894419e-01  -8.5940303e-01  -3.4713085e-01   4.9117042e-01  -9.3986943e-01   3.4312587e-01  -7.1135802e-01   7.9004989e-01   9.4845777e-02  -6.2221627e-01   7.5385077e-01   3.7972148e-02   3.9040112e-01   5.3837386e-01   8.6772454e-01   4.7727778e-01  -7.4130310e-01  -7.4338726e-01  -7.7764267e-01  -9.4889112e-01   7.7765175e-02  -6.8017173e-01  -1.8459500e-01  -6.1330395e-01   8.8575780e-01   8.2618779e-01   3.9050754e-01   7.2951220e-01  -1.3654902e-01   1.7373214e-01  -1.8168527e-01   2.6548130e-01   1.6414563e-01  -1.6495083e-01  -5.5706926e-01  -4.1560394e-01   8.1569728e-01  -2.9144345e-02   4.6203160e-01  -4.3137966e-01   1.9574161e-01   9.2712699e-01  -5.5415482e-01   3.2408242e-01   7.8651418e-01   6.7801675e-01  -3.1346184e-02  -3.7388276e-01   2.2485437e-01  -8.8100674e-01   7.9429347e-01  -3.9507806e-01  -8.6434576e-01   7.3540092e-01  -7.4118994e-02   4.9134786e-01  -4.6061629e-02   9.4052208e-01  -1.0767094e-01  -7.5174764e-01  -5.7503055e-01   6.6153111e-02   1.1870852e-01  -7.8604005e-02  -7.1911870e-01   7.9934002e-01  -4.2850847e-01  -3.4027438e-01  -8.4183487e-02   9.3285522e-01   8.3104101e-01   4.7731717e-01  -4.4394292e-01  -9.2088528e-01  -7.6037404e-01  -5.0132162e-01   6.1904807e-01  -2.4020585e-01  -3.0843948e-01  -6.2844234e-01  -9.1409403e-01  -3.8703908e-01   2.0534962e-01  -4.6384134e-01   7.2033696e-01   4.3824700e-01   4.5036112e-01  -1.7662981e-01   5.6210454e-01  -6.7717105e-01   3.5405625e-01  -6.0592645e-01   2.9623035e-01  -4.1348808e-01   3.3790944e-01   5.2557202e-01   8.4618608e-01  -5.2017259e-01   5.6667522e-01  -5.3847363e-01  -4.1823960e-02  -5.5742647e-01  -5.0022230e-01   6.8688003e-01   1.6735537e-01  -1.5320887e-01   5.4222294e-01   2.3596956e-01   9.9629694e-01  -8.1009126e-02  -2.6433683e-01  -2.7883208e-01   6.8666226e-01  -2.3709188e-01  -1.0830688e-01  -3.7188612e-01   8.4350725e-01  -2.4993647e-01   2.1147622e-01   1.6957976e-01  -1.2035289e-01   2.3013554e-01  -9.2526734e-01   9.0336632e-01   4.6019669e-01   4.1704392e-01   5.1113888e-01  -4.1284698e-01   7.4688622e-01   2.3475271e-03   6.3165941e-02  -1.5103862e-01  -1.9561960e-01   6.1712726e-01   8.5104264e-01  -8.6186053e-01   4.7877396e-01  -3.6480152e-01   8.5395258e-02  -6.4712846e-01  -3.6104079e-01   8.3283124e-01  -4.5364144e-02  -7.2797257e-01  -6.1568363e-01   6.1269868e-01  -3.9503678e-01   3.2130828e-01   1.8086493e-01  -7.9914238e-01   9.4162858e-01   1.9044691e-01  -1.8270100e-01  -2.2028778e-01  -5.6139614e-01   3.1005660e-01  -2.6427678e-01  -8.0125755e-01   9.9555997e-01   3.6806798e-01  -9.9595532e-01  -9.7809288e-02   8.2785531e-01   7.4047500e-01   1.9617196e-01   5.4145635e-01  -1.2029646e-01  -3.3397263e-01  -5.8908463e-01  -3.5896806e-01  -2.7650202e-01   8.7779451e-01  -6.0631211e-01   7.4127853e-01   2.1797557e-01   9.7899356e-01  -2.7757350e-01   1.2672510e-01   1.6828744e-01   7.9977988e-01  -5.0400323e-01   9.7318058e-01   4.6662812e-01  -2.5655510e-02   9.3135878e-01  -8.0930160e-02   4.1536041e-01  -4.7747794e-01   8.0582201e-01  -4.8665484e-01  -4.0369048e-01   2.7643577e-01  -3.1731134e-01  -6.3606939e-01  -7.2274469e-01   5.0326033e-02   4.3513620e-01   7.6017187e-01   7.2652179e-01   9.8633575e-01   7.3489672e-01   7.6798952e-01   6.1187839e-01  -1.6194135e-01  -7.7409328e-01   9.2494236e-01   2.3750174e-01   9.7359772e-01  -9.0601253e-01  -7.4599193e-02  -6.4235631e-01  -6.1241769e-01  -8.1639986e-01   1.2353505e-02  -8.9501339e-01   4.5252606e-01  -9.1554478e-01   7.1433122e-01  -3.3925507e-01  -2.9447971e-01   3.4321055e-01   5.7378653e-01   6.0348563e-01   6.6505778e-01  -5.1299328e-01  -8.8362553e-01  -5.6161400e-01  -3.8946414e-01  -7.1530872e-01   6.8523545e-01   6.6895778e-01   5.9730217e-01  -1.3393436e-01   8.3759909e-01   8.8414333e-02   4.4363888e-01  -4.5472445e-01   4.8233854e-01   6.0883025e-01  -8.6851265e-01  -1.5622050e-03   4.8485520e-01  -6.6325414e-01  -8.1452952e-01  -2.2019806e-01   7.6279739e-01   3.9997981e-01   7.5802043e-01  -3.2315736e-01  -5.4805783e-01  -6.6109612e-01   9.6536814e-01   9.0401070e-01   5.3560290e-01  -2.4537365e-01   6.7508761e-01   8.5842988e-01   1.9794834e-01  -4.3360404e-02   3.2900946e-01   2.3122889e-01  -8.4744111e-01   3.4820936e-01  -6.5019944e-01  -7.8847339e-01  -5.7951790e-02  -3.5241469e-02  -6.5970360e-01  -7.1281077e-01  -6.4893854e-01  -1.9428080e-01   1.1213100e-01  -2.1361120e-01   1.5173879e-01  -3.1347017e-01   3.7110659e-01   9.1038813e-01  -2.1171034e-01  -7.8270140e-01   5.5158416e-02  -6.2865150e-01  -4.1439947e-01   8.5197189e-01  -5.9517425e-01   1.2460269e-02  -7.9476266e-01  -6.5660338e-01   2.0663217e-01  -4.8501045e-01  -5.0108763e-01  -2.9967983e-01   7.5479011e-01  -3.0211860e-01  -2.8838199e-02  -9.5763217e-01   3.0036936e-01   7.9926210e-01   4.1183877e-01  -9.9595178e-01  -2.9207869e-01   6.3310295e-01  -2.1811675e-01  -5.0194317e-01  -2.1479072e-02   7.5254514e-01  -3.5577421e-01  -2.5445567e-01   6.8314897e-01   2.2703939e-01  -4.6226744e-01  -3.1947432e-01   9.3293737e-01  -7.9541156e-01  -6.1874084e-01   3.4721943e-01  -6.0537691e-01  -1.9684139e-02   1.9515927e-01   6.0275024e-01   7.3608391e-01   5.6094310e-02  -1.3031264e-01  -7.1004892e-01   4.7932931e-01  -1.6180677e-01  -6.9531581e-01  -8.7433483e-01   1.4942678e-01   7.6378334e-02   2.7782129e-01  -3.7646174e-01  -3.6214937e-01  -8.4844094e-01  -7.8203747e-01  -9.0891027e-01   8.4881637e-01   4.7869117e-01  -3.7688475e-01  -9.3608065e-01  -5.1146135e-01  -2.8671739e-01   5.8798047e-01  -5.7900401e-01  -3.0006596e-01  -8.8625839e-01   2.6284627e-01  -4.4483506e-01   4.1102509e-01  -4.7411160e-01   2.7732601e-01   2.8403916e-01   4.1139723e-01   4.3537269e-02   2.9796700e-01   3.9407433e-01   8.7387896e-02  -1.8417197e-01   3.6667424e-03   1.3998717e-02   5.1195653e-01   7.1658457e-01   4.4493459e-01   7.1052655e-01  -1.0459697e-01   8.7250738e-01  -3.5872641e-01   5.7859219e-02  -9.4807547e-01   1.9655603e-01  -1.2729447e-01   3.8314252e-01  -9.2826494e-01  -1.0484783e-02   5.0145754e-01   7.8634991e-01  -3.8870773e-01  -9.5179275e-01   6.9018263e-01   8.4829159e-01   6.8898739e-01  -9.2972389e-01  -7.1929908e-01   2.8783831e-03   2.6677956e-01   4.3779383e-01   9.1377467e-01   3.6251431e-01  -6.6063004e-01   7.4713892e-01  -2.3502519e-01  -2.3284679e-01   7.2662082e-02   5.5408696e-01   8.0466302e-01   1.1433784e-02   4.5121974e-01  -3.1004150e-01  -5.8482407e-01  -2.2468578e-01   3.7319406e-01  -2.3065302e-01   6.3069089e-01   9.5305829e-01  -2.0260675e-01   7.6258473e-01   6.4317946e-01  -4.0071904e-01  -2.9304469e-01   3.7534191e-01   9.2566453e-01   3.8137599e-01   9.7898994e-01  -8.1307904e-01   2.9239659e-02   7.9016707e-01  -4.5695098e-01   1.3695681e-01   4.4300419e-02   1.4020067e-01  -5.5132672e-01   5.7252344e-02  -2.2247161e-02  -6.2255365e-01   7.3259334e-01   6.7473376e-01  -4.9191514e-01  -6.3072987e-01   4.1120812e-01   8.6099783e-01  -5.6738212e-01  -4.6551532e-01   9.3767462e-01   8.8751441e-01   6.4367167e-01  -7.4040323e-01   8.3235105e-01  -5.6159550e-01  -3.6517760e-01  -3.1416157e-01   8.3026624e-01   3.1340964e-01  -3.2124883e-01   7.6098759e-01  -8.6868306e-01  -6.0621033e-01  -8.1597046e-01  -8.1419541e-02  -9.2755763e-01  -5.5897970e-01  -9.9529747e-01  -4.8549480e-01   2.9196669e-01   5.5113014e-01   3.1661825e-02   2.0499298e-01  -3.4128051e-01   2.2851343e-01   2.3460796e-02   6.1400506e-01   5.7163206e-01   6.8029207e-01  -5.6586302e-01   8.9579349e-01   7.3855749e-01   9.7529570e-01  -5.6145093e-01  -8.0130907e-02   6.0234771e-01  -5.5704531e-01  -5.7910861e-01  -4.8721064e-01   4.9506814e-01  -3.9125658e-01   5.5292346e-01  -5.8979171e-02   9.6817104e-02  -7.4684531e-01  -6.3787377e-01  -7.9290112e-01  -4.0835695e-01  -6.7125704e-01   8.7692889e-01   7.6161613e-01  -1.8909825e-01  -1.9036518e-01  -2.3431851e-01  -9.9105436e-02   9.5110109e-01  -9.0947060e-01   5.6492846e-01  -6.8908895e-01  -7.1969114e-01  -6.7751714e-01   5.8064126e-01   4.8553731e-01  -4.5500867e-01   2.5275118e-01  -5.3996492e-01  -6.6625302e-01   3.2490692e-01   7.3296733e-01   8.4099160e-02  -5.4499740e-01   6.4470494e-01  -7.9938646e-01  -9.0301159e-01  -5.3598860e-01  -7.5302914e-01  -1.0280193e-01   6.7878006e-01  -3.3967097e-01  -8.9018658e-01  -1.6585601e-01  -6.7174902e-01   4.3066722e-01   5.3945840e-01   4.5280524e-01  -4.8540611e-01   6.8792080e-01  -8.5742115e-01  -2.2147659e-01  -6.2744060e-01   6.6771280e-01  -8.2979306e-01  -1.7619727e-01   9.1242871e-01   2.9977446e-01   8.7639670e-01   1.5014920e-01  -8.1207159e-01  -9.0501809e-01  -4.3241909e-01   4.9306824e-01   9.0512519e-01  -7.3294088e-01  -1.4003089e-01
  -6.7454038e-01  -1.2939126e-01   6.3238214e-01  -9.6548300e-01   2.1069871e-01   6.5230051e-02  -8.5336997e-01   6.9209912e-02   4.9485065e-01   7.6105650e-01  -7.4575743e-01   6.4720391e-01   7.6211270e-01  -4.1472082e-01  -3.3166581e-01  -8.7563339e-01   5.6950556e-01   3.1847571e-01  -8.9803810e-01   2.2253476e-01   1.9994346e-01  -1.3351876e-01  -4.0851378e-01   5.4490265e-01  -8.1756060e-01  -4.1317441e-01   7.2269756e-01  -2.7852703e-01  -9.8397878e-01  -7.5673821e-01  -3.2489063e-01   9.4865819e-01  -7.4240754e-01   3.5934254e-01  -2.5057221e-01  -6.7110293e-01   3.3178112e-01  -9.7193078e-01  -2.5090825e-01   4.6552417e-01   4.4831740e-02  -4.3667662e-01  -2.3462016e-01   3.9236636e-01  -1.5451749e-01   6.6797889e-01   4.3877331e-01   5.4838806e-01   7.1464385e-01  -7.4641525e-01  -6.6206213e-01  -6.4948106e-01  -1.8446621e-01  -4.9977898e-01   9.7215673e-01  -9.6664303e-01   1.6242127e-01   5.2257239e-01  -7.4592445e-02  -6.3390018e-01   4.4086801e-01   7.7977535e-01   4.6816423e-01   5.3571569e-01  -9.4037387e-01  -3.2974522e-01  -3.5335373e-01  -5.5092440e-01   3.8024823e-01  -4.0300826e-01  -4.8329373e-01   6.9267647e-01   3.1051682e-01  -9.1018793e-01  -8.9738974e-01   5.9035131e-01   9.7222512e-02   5.8840203e-01  -4.8655127e-01   8.1730117e-01  -7.4401010e-01   7.7292894e-01  -3.3998963e-01  -2.8252236e-01   5.5852168e-01   7.9436413e-02  -1.6445231e-01  -2.3796636e-01  -8.9087750e-01  -9.8184974e-01  -3.2128754e-01  -2.3035158e-02  -7.8681350e-01   3.1454512e-01   3.9251295e-02   1.9056020e-01   5.3791849e-01  -7.1198107e-01   9.8361108e-01   3.0721136e-01   7.1263625e-01   4.3102764e-01  -1.4832951e-01  -4.1844692e-01   7.2134405e-01   4.5270151e-01   2.0627583e-01  -2.9149103e-01  -1.3364659e-01  -8.2661598e-01   8.8218981e-01  -4.7794359e-01  -9.8820002e-01   7.3222399e-01   5.7437763e-01  -4.1012978e-01  -3.5672049e-01   3.9305504e-01   4.3874501e-01   5.8440984e-01  -3.9691734e-01  -6.6532990e-02   6.7422524e-01   5.5405015e-01   6.5653402e-01  -2.3875185e-02   4.4074565e-01   1.6812098e-01  -6.7453700e-01   8.2661001e-01  -2.6670554e-01   4.7299317e-01  -8.5356108e-01   1.8943287e-01  -3.0824953e-01  -2.6652424e-01  -3.9158757e-01   6.3281441e-01   5.6583812e-02  -7.2759740e-01   1.9298551e-01  -2.5639208e-01   2.5416871e-01   4.2531649e-01   1.2936127e-01   7.6121039e-01   2.4722229e-01  -5.9263283e-01  -1.8799281e-01   5.6291589e-01  -4.6120322e-01  -9.6107709e-02   8.0324485e-01  -4.6307401e-01   7.4039219e-01  -2.2507622e-01   1.4637482e-01  -2.6846912e-01  -8.3066139e-01   5.6371086e-01  -4.4549510e-01  -6.3995104e-01  -4.9355871e-01  -3.9310837e-01  -8.9747363e-01  -9.9215480e-01   3.0654387e-01  -2.2468694e-01   3.6482128e-01   8.6525908e-02   9.2711322e-01   4.6338694e-01  -4.2471145e-01  -2.4225229e-01  -7.5452707e-01   5.5093662e-01  -5.8759097e-01  -9.5461769e-01   8.4228522e-01  -8.3844399e-01   3.9556405e-01   2.0345002e-01   6.8259485e-01   1.1907689e-01  -9.8195122e-01  -1.9206011e-01   8.8036012e-01   9.2630280e-01  -3.3605190e-01  -4.9446073e-01  -8.4951043e-01   5.5961545e-01  -4.7396306e-01   3.8431084e-03   9.7096957e-01   1.9388075e-01  -6.9112730e-01   1.6202497e-01   5.9053299e-01   8.8873808e-01   5.8263610e-01   4.9458050e-01  -6.8035433e-01  -9.8611969e-02   1.9563580e-01  -1.3755756e-01  -8.5806127e-01   2.5002797e-01  -4.7180403e-02   7.4521064e-01  -5.8582828e-01   6.4379843e-01   9.9561765e-01  -4.8756122e-01   4.1738318e-01   2.9627159e-01   7.6891285e-01  -4.6849139e-01   9.7350374e-01   3.6700237e-02   1.5217836e-01   6.6272871e-02   5.5710412e-01   1.5201665e-01  -8.2321685e-01  -9.6122513e-01  -3.5967368e-01   4.4812222e-01   8.2859264e-01  -5.9074296e-01  -1.1124142e-01  -2.0565222e-01  -1.4758996e-01   6.6354267e-01  -2.3113056e-01   2.3752683e-01  -9.6887770e-01   1.3002017e-01   5.7188843e-01  -1.0440043e-01   7.8458673e-01   6.8273226e-01  -4.5999192e-01   4.5100356e-01   1.3525415e-01   4.7257868e-01   9.4315345e-01  -6.8118054e-01   8.0396261e-01  -9.6135800e-01   3.7346709e-02   1.3430463e-01   8.0336380e-01   8.4433568e-01  -9.4238965e-01   3.2014782e-01   9.8254449e-01   3.0404399e-01  -9.0853199e-01   4.0485306e-01  -1.9021313e-01   5.5324131e-01  -6.7292180e-01   9.0498336e-01  -4.7009178e-01  -1.6168189e-01  -6.9700115e-01   3.7787738e-02   9.3781765e-02   9.5117031e-01   6.8989607e-01   7.3022524e-01  -7.7619009e-01   6.0878442e-01  -9.7297973e-01   6.6732791e-01   7.0570513e-01  -9.4029316e-02  -4.5306907e-01  -3.8452209e-01   9.4559542e-01  -8.7516920e-01   6.7311269e-01   4.9168902e-01   1.5901878e-01   1.3439554e-01  -2.1631994e-01  -8.7528523e-01  -2.6618789e-01  -2.6701887e-01   3.2973631e-01  -1.9242138e-01  -8.0507217e-02   6.4737351e-01   9.3165494e-01   5.2934577e-01   5.8448199e-01  -8.7712193e-01   4.2910473e-01  -7.6779769e-02  -4.5114020e-01   6.9439521e-01   9.0770542e-01  -8.9714915e-02  -9.2599619e-01   4.7755823e-02   6.7250320e-02  -9.6888531e-01  -3.6592351e-01  -1.4850966e-01   4.6619475e-01  -3.1252865e-01  -3.0519321e-01  -8.8420569e-01   4.3186083e-01   4.9725348e-01  -2.9126052e-01   3.9317164e-01   9.9987897e-01  -3.5300570e-01  -3.6483720e-01   7.9239214e-02   7.3786191e-01  -1.4356378e-01  -5.3270562e-01   5.0800895e-01   7.3605768e-01  -6.6118881e-01  -6.7579446e-01   7.7605021e-01   9.3942029e-01   2.2373127e-01   6.9635437e-01  -7.3600378e-01   4.1793838e-01  -7.9374350e-01   8.2714497e-01   2.6073052e-01   3.0435081e-01  -7.9481816e-01   3.4759411e-01  -5.0828823e-01   7.3155125e-01  -7.6746397e-01   3.1137191e-01  -5.6781761e-01   5.1682928e-01  -1.5122315e-01   2.0684471e-01  -8.6091045e-01  -7.4731766e-01   4.6827217e-01   2.5103334e-01   1.5314020e-01   2.0406448e-01   5.4597193e-01  -5.4701155e-01   8.7538512e-01  -2.3843220e-02  -7.0772541e-01   5.7017986e-02   1.5857165e-01  -9.8242469e-01   5.6046310e-01   6.0116440e-01  -6.1155874e-02  -4.5349698e-01  -9.8892285e-01  -5.6984264e-01  -4.8680265e-01   7.1292299e-01   9.5478889e-01  -1.7494770e-01   9.3487817e-01   2.3086893e-01   3.4101291e-01  -1.9398796e-02  -4.6647880e-01  -1.3199509e-01  -8.4194524e-01  -5.4046049e-01   9.2048511e-01  -1.2512009e-01   6.7314961e-01   1.6950335e-01  -9.1012987e-01   2.6307543e-01   4.2145202e-01  -9.9899487e-01  -1.0860064e-01   2.6229446e-01  -4.1416826e-01  -2.2442413e-01   5.0512322e-01   5.7154204e-01   9.0209896e-01   1.9111185e-01  -4.1899988e-01   9.0539110e-01   7.0784378e-02   1.7353221e-01   9.6943033e-01  -2.2013986e-01  -5.6061279e-01   6.7030884e-01   6.6761832e-01  -9.6282193e-02   8.6753040e-01   7.9217210e-01  -7.7517858e-01  -7.4345618e-01   4.6925904e-01   4.0292429e-01  -5.5085521e-01  -7.6075811e-01  -3.4725520e-01  -1.4422574e-01  -5.2075694e-02  -5.6995546e-01   4.9716004e-01  -3.7401989e-01  -2.8826034e-01  -4.2919597e-01  -6.9012906e-01  -5.9622323e-01   2.4530528e-01  -4.9548629e-01  -4.8555107e-01  -3.0422730e-01   7.8529793e-01   3.4336874e-01   5.4331259e-01   7.0993427e-01  -7.6769983e-01   8.0485056e-01  -4.5171620e-01  -7.2417254e-01  -7.0763252e-01   2.8127148e-01   9.3894830e-01  -1.2057374e-01  -1.8968042e-01  -8.0606149e-01   3.1785022e-01   5.7222600e-01   6.0109279e-01  -5.2705679e-01  -6.4570569e-01   1.8898980e-01  -3.0935439e-01   7.5343672e-01   9.4815941e-01  -8.7665860e-01  -9.0900970e-01  -6.0410029e-01  -4.6840830e-01  -4.2801790e-01  -6.0238451e-02  -9.1952763e-01  -9.9138572e-01   1.4301442e-01  -6.8329018e-01   6.7347790e-01  -5.7024406e-01  -2.0335882e-01   6.5445315e-01  -7.7141263e-01  -2.2487247e-02  -2.5419436e-01   4.3591974e-02   8.8434575e-01   5.9125875e-01  -5.1028271e-01   6.6063308e-01  -2.2612903e-01   7.5831177e-01  -9.6294412e-01   6.0750599e-01   3.0985980e-01   7.1904334e-01  -7.7075484e-02   2.0741789e-01   3.0286745e-01  -9.8005525e-01   6.6341776e-01  -1.8089297e-02  -1.3454860e-01  -2.7479638e-01   7.0568683e-01  -2.2068685e-01  -7.3501219e-01   7.4224029e-01  -4.2591633e-01  -6.3631715e-01   4.6341258e-01   5.7127201e-01   4.7071986e-01   4.2908296e-01  -8.0744832e-01   7.8583019e-01   5.6709477e-01  -1.0503231e-01  -8.1633117e-01  -1.2563494e-01  -3.2424531e-02  -1.3067941e-02   4.2003960e-01   1.5529058e-01   2.1298560e-01  -3.6700586e-01   2.6260807e-01  -2.8058908e-01  -1.9238706e-01   3.5881448e-01  -3.7692704e-01  -8.6634466e-03  -1.7078084e-01  -9.5804093e-01   2.0580251e-01   5.7046023e-02   9.2097012e-01  -2.2524456e-01  -6.8445290e-01   9.3741972e-01   6.6201381e-01  -5.1190135e-01  -1.6829396e-02  -7.0338938e-01  -8.1678297e-01  -1.5121623e-01   9.4811139e-02   5.3203234e-01  -8.7261826e-01   9.1508437e-01   1.5313052e-01  -6.9120847e-01  -1.6831912e-02  -3.5184246e-01  -5.0540484e-01  -7.2164718e-01  -8.5957868e-01  -7.3059426e-01   6.2547847e-01   8.8036941e-01   7.0108037e-02   8.0806130e-01   6.5392739e-01  -8.2909534e-01   1.5541752e-01  -5.3902618e-01  -8.0880502e-01   8.8918354e-01   5.8634579e-01  -3.2747749e-01  -5.2491951e-01   8.9051756e-02   2.7899730e-01  -8.5776812e-01   2.6869920e-01  -6.2657165e-01  -6.0343684e-01   4.8478165e-01  -2.6457153e-01  -9.6816903e-01   4.5298990e-01  -8.4102406e-01  -2.1769923e-01  -9.4017218e-01  -5.4656543e-01  -2.5527310e-01  -2.0074996e-02  -2.6293558e-01   5.0697868e-01   1.9716334e-01  -3.3191780e-01   1.5879907e-01  -6.6701358e-01  -1.9845741e-01  -1.6426619e-01   5.5424537e-01   3.0405502e-01   7.8321925e-01  -8.0733825e-01  -9.8651082e-01  -5.2411886e-01  -9.1454820e-01   7.6004775e-01  -7.1495087e-01   4.0807293e-01  -2.4397338e-02  -7.6390928e-01  -1.2425102e-01  -4.1357638e-01   1.4321955e-02   1.4680386e-01  -5.4746650e-01  -8.0687829e-01   7.5567437e-01  -9.7457998e-01  -1.4649864e-02   4.5283139e-01  -2.9810300e-01  -3.7050398e-01  -2.5921004e-01  -8.3115161e-01  -9.1987982e-01   9.7134538e-01  -4.0451053e-01  -9.3661820e-01  -4.3826262e-03  -2.0917801e-01  -1.9861832e-01   6.7654282e-01   8.3511339e-01   2.5581989e-01  -1.4751728e-01   8.9067900e-01  -9.2391877e-01  -3.7133787e-01   8.2145065e-01   8.0730856e-01  -4.8887214e-01   7.3328518e-01   6.0075085e-01  -5.2693250e-01   6.0573044e-01  -8.9141522e-01  -6.2305500e-01   2.3874001e-01  -8.0260287e-01   5.0287310e-01  -8.1820491e-01   4.7131827e-01  -4.4274890e-01   6.4177949e-01  -6.4965375e-01   8.5008035e-01   3.4004953e-01   4.6250854e-01  -4.0109348e-01   4.1499565e-01   4.4918036e-01   6.2853381e-01  -1.0747975e-01  -5.4951622e-01   7.8329754e-02  -6.8510773e-01  -2.7716883e-01   1.5855318e-01  -5.0195756e-01  -1.9203333e-01  -9.2027069e-01   5.7698943e-03   2.6508836e-01   3.2141923e-01   2.7404130e-01   8.5244522e-01   9.8021225e-01   3.4431111e-02  -3.9742373e-01   9.4864700e-02   9.8701579e-01   8.0923850e-01  -2.3926230e-01  -7.1729044e-01  -8.8296012e-01  -8.4617198e-01  -9.3540567e-01   2.8490556e-01  -2.0906054e-01  -9.8103254e-01   9.1640707e-01   3.2053967e-01  -7.9135494e-01  -7.1296872e-01   6.0061528e-01  -1.9627847e-01   6.6546171e-01  -4.3602054e-02  -1.9667516e-01   6.4125346e-03   4.6244529e-01   9.6228512e-01  -9.8261654e-01   1.3451338e-01  -6.4096984e-01   8.4969776e-01   7.7271552e-01   2.2905807e-01   8.8696127e-01   6.4671219e-01  -8.2380395e-01  -1.6008838e-01   8.4672899e-01  -3.6466289e-01   8.3184239e-01   6.0014654e-01   4.1865596e-02   1.8353700e-01  -2.2514428e-01   6.6116995e-01   8.7730202e-01  -6.3686729e-02   7.7748382e-01   7.1971352e-01  -7.1634800e-02   5.0174713e-01   2.2253918e-01   9.4663654e-01  -4.6339644e-01   9.4546196e-01  -4.8058689e-01  -1.8716848e-01   5.0440756e-01   5.7772166e-01  -6.6596458e-01  -7.9699219e-01   1.2105405e-01   4.9581408e-01  -7.3937618e-01   9.0639763e-01   7.8822923e-01   3.2067665e-01   6.4116890e-01  -6.7471360e-01   5.1151295e-01   2.1767627e-01  -5.7307239e-01  -5.4778853e-01  -3.2471970e-01  -1.9643685e-01   2.9069153e-01   9.4475054e-01   8.0324161e-01   9.3658460e-01   5.6964443e-01   4.8122767e-01   3.8478324e-01  -8.2035548e-01  -9.5840007e-02  -6.6252002e-01  -5.1667855e-01  -1.9030072e-01   9.6990637e-01  -8.6917141e-01  -3.4537607e-01  -1.8617058e-01   3.2633748e-01  -4.6792300e-01  -8.4972241e-01  -9.1637401e-01  -3.9815036e-01   1.8865136e-01  -6.3403070e-01  -4.3554426e-01   2.3255587e-01   5.3232824e-01  -7.7073886e-01  -4.8360885e-01   9.6684692e-01   4.3932145e-01   1.2067558e-01   8.0033749e-02   4.4985042e-01  -4.1927793e-01   3.6897271e-01   6.3055856e-01  -6.0884654e-01   3.3118239e-02   9.1686351e-01   3.6721650e-01   1.1524449e-01  -7.6278591e-01   3.6062360e-01  -1.0450656e-01  -7.2551220e-01  -4.0496589e-01   4.4118282e-01   3.5121303e-01   1.5778505e-01   7.1830345e-01   3.5015484e-01   8.1866720e-01  -4.4882476e-03  -1.5664886e-01  -9.4332769e-01   5.6114814e-01  -7.4099659e-01   9.4336847e-01   8.4119908e-01  -7.7492792e-01   2.9154030e-01  -5.8783803e-01   8.8042529e-01  -8.8526770e-01  -8.5040165e-01   2.9668665e-01   1.1556884e-01   7.0815885e-01   7.9219674e-01   9.1576468e-01   8.9790616e-01  -8.4131647e-01  -3.1707802e-01   4.1788999e-01   9.5730614e-02  -3.0673693e-01   4.7954408e-01   1.8981821e-01  -5.0423748e-01  -9.9910454e-01  -3.4948042e-01  -1.5267112e-01  -7.8448960e-01  -4.7670075e-01  -2.3403090e-02   9.0109237e-02   3.3341210e-01   3.9644817e-01  -4.4911711e-01   8.3836872e-01  -4.3574155e-01  -8.0223807e-01   2.3257452e-01  -1.8476374e-01  -1.8999413e-01  -8.0707328e-01   6.1954236e-01   3.6710332e-01   4.3063049e-02  -2.8357597e-01   6.2295075e-03  -5.3796114e-01  -9.0981158e-01  -5.5982069e-01  -5.3992125e-01  -3.6749128e-02   8.7601944e-02   1.2145975e-01  -9.0858154e-01   7.4073358e-01  -1.0739244e-01  -3.3646767e-01  -3.5577803e-01   1.9421196e-01   9.8836497e-01   1.6773525e-01  -4.3218469e-01  -1.7083411e-02  -3.8439181e-01   6.2710906e-01  -5.6431590e-01   6.1512833e-01   3.4247690e-01   2.2832609e-01   2.0171951e-01  -3.4934239e-01  -5.1865664e-01   3.3644295e-01  -4.9453211e-01  -9.8119796e-01  -4.2556841e-01  -2.9409615e-01   8.0323776e-02  -9.4006517e-01  -5.2833868e-01   7.3488153e-01   9.1887027e-01  -6.1549036e-01  -8.7840276e-01   1.1205188e-02   7.2668734e-01  -5.3054370e-01   5.9672982e-01  -1.9274013e-02  -5.1398632e-01   4.8211996e-01  -3.4716942e-01  -8.6809459e-01   7.5801509e-01   6.1551322e-01   6.3621085e-01   1.5867023e-01   1.1817516e-01   2.6271722e-01  -1.9776532e-01  -9.1498836e-01   9.2909398e-01  -7.3622643e-01   1.1736544e-01   9.9928043e-01  -9.0720899e-01   5.8130675e-01   9.0686094e-01  -6.5089816e-01  -1.4229835e-01   8.0732354e-01  -1.7705173e-01   6.9818782e-02   2.9285410e-01   8.4660079e-01   8.1356533e-01   4.6470270e-02  -8.1591922e-01   7.1564524e-01   5.1873438e-01  -6.6614432e-01   8.7955583e-01  -8.8965223e-01   8.1847353e-01   5.4434922e-02   6.9586617e-03   9.7359791e-01   1.6665412e-02  -1.8062721e-01  -9.4728728e-01  -3.4960705e-01  -4.5005927e-01   6.4730468e-01  -7.1717572e-01   7.5343220e-01  -6.7710333e-01  -1.7646920e-01   3.5254390e-01  -9.7225119e-01  -6.8972773e-01   8.0884425e-01   8.4048751e-01  -8.6277534e-01   7.3153478e-01   5.0492456e-01   9.6352868e-01   1.0610210e-01  -8.7636787e-01   4.6059156e-01   8.3298901e-01  -1.8505039e-02   5.4812435e-02   6.2689835e-01  -3.2082882e-01  -2.1407398e-01  -6.7957674e-01   9.8368750e-02  -7.2726460e-01  -3.1102553e-01   3.2723419e-01   1.6962177e-01   3.0501719e-01   4.6229331e-03   9.5097557e-01   3.6882500e-01  -1.8996556e-01  -9.9317647e-01  -6.6663686e-01   1.0812978e-01  -7.7508447e-01  -8.0948312e-01   7.4221405e-01  -4.0795670e-01  -1.3300911e-01  -3.1564467e-01  -7.4701620e-01  -4.3973044e-01  -7.5942772e-01   5.6016567e-02  -9.8788395e-01  -9.0794957e-01  -3.5378682e-01   1.9602171e-01   2.3876502e-02  -8.2279498e-01   3.7908680e-01   7.5461503e-01   9.8332481e-01   6.7805478e-01   7.6975050e-01   8.1044979e-01   1.0491569e-01   5.5993055e-01  -9.8176970e-01  -5.9220400e-01   8.6611557e-01   7.5450052e-01  -3.7117749e-01   1.7136161e-01  -4.0827825e-01  -6.7640920e-01   6.3947393e-01  -2.4272638e-01  -4.1590817e-01   2.8652361e-01   7.5488041e-01   5.1769158e-01  -7.4936638e-01   9.5028283e-01   5.3464400e-01  -8.8325944e-01  -7.0747675e-02  -4.9012865e-01   1.7025555e-01
  -7.4289592e-01   2.1576734e-01   2.9412733e-01  -8.5710543e-01  -8.1385195e-01  -2.5585951e-01  -7.7048067e-01  -9.8841096e-01  -2.5823317e-01  -6.0561760e-01   3.9190729e-03   5.8798491e-02  -6.1935257e-01  -9.0208713e-01   3.6912152e-01   1.3457476e-01  -9.3157050e-02   6.5087243e-01  -5.1117197e-01   4.8408318e-01  -2.5127298e-01  -1.5582181e-01  -2.3591299e-01   4.2591541e-01  -7.7206752e-01   8.4193677e-01   4.2515469e-01  -7.3292437e-01   1.5485008e-01   4.2117340e-01   9.1994836e-01   1.5721070e-02   8.2245738e-01   3.5112895e-01  -8.2496543e-01   5.1529052e-01   7.7144366e-01  -8.6248663e-01  -4.4563091e-01  -8.0746137e-01  -3.6084778e-01   9.1321815e-01  -6.9483642e-01   3.9813941e-01  -9.6938136e-01  -8.9846751e-02  -9.4221182e-01   4.6366629e-01   2.5942294e-02  -2.7019975e-01  -7.5193095e-01   3.1258246e-01   5.0846765e-01  -5.8382231e-01  -3.7813076e-01   8.4402704e-01   2.7652432e-01  -8.3895766e-01  -3.5419033e-01  -5.0156789e-02  -5.2712227e-01   2.7595121e-01   7.9871305e-01  -8.1316498e-02  -9.9931693e-01   3.9214588e-02   2.8116202e-01  -2.3974189e-01   4.9389736e-01  -8.0003741e-01   2.2453472e-01  -9.8659517e-01   7.3987659e-01  -1.9380257e-01  -7.3490588e-01   7.6007137e-01  -1.9372304e-01  -1.6975879e-01   1.8811198e-01   5.0489109e-01   5.5333452e-01  -4.1947466e-01   7.1836047e-01   1.8954400e-02  -6.9423274e-01  -3.0571802e-01   2.5924855e-01  -4.1845368e-02   8.4286986e-01   3.2274228e-01  -3.6281610e-01  -8.0218583e-01   8.6404519e-01  -4.2992597e-01  -5.5877867e-01   1.3179983e-01  -8.3393070e-01   1.8032190e-01   7.2665917e-01  -3.6363930e-01   5.1109872e-01  -4.4116864e-01  -3.0263814e-02  -9.3609531e-01   8.1172174e-01  -5.8316453e-01  -1.6061777e-01  -9.4087725e-01   9.9897583e-01   2.7949175e-01  -6.9620298e-01  -1.8737947e-01   5.9031820e-01   1.5244534e-01   1.2174879e-01  -2.6167058e-01   3.5495743e-01   5.7865321e-01  -9.5317347e-01   7.3856689e-01  -9.9034869e-01   5.3660419e-01  -6.7806697e-01   2.5051781e-01  -6.2961775e-01  -5.2778226e-01   2.2501112e-01   4.9664951e-01  -2.3730248e-01  -1.4040239e-01   7.9528321e-01  -4.0950556e-01  -2.0984857e-01   6.0707918e-01  -1.2618609e-01  -6.0950738e-01  -3.3629042e-01   8.2282416e-01   5.0957237e-01  -1.4085342e-01   8.1987719e-01   9.0024635e-01  -8.2029960e-02  -1.9051325e-01  -1.7967536e-01  -4.9200682e-01  -3.0294886e-01   8.2011616e-03   9.3834759e-01  -3.4366293e-02   7.4434780e-01   9.5925268e-01   8.7756640e-01   7.9988625e-01   7.5522402e-01  -4.3385617e-01  -4.7876508e-01   7.3521671e-01   1.0647931e-01   8.5216855e-01   4.3726995e-01  -2.5828497e-02  -6.0423783e-01  -4.5750483e-01  -5.6647199e-01  -4.1124649e-01  -5.5828951e-01   7.3380462e-02  -9.3070419e-01   3.4653836e-01   8.9889746e-01   2.6420695e-02   4.1544081e-01  -7.2571496e-01  -8.7705117e-01   1.8129330e-02   8.9756332e-01   8.0719970e-01  -7.3566006e-01  -3.1036564e-01  -8.8825780e-01  -2.7938935e-01   4.5612199e-01  -7.0091779e-01   5.4119263e-01   6.7677128e-01   7.2559145e-01  -3.9899767e-02  -7.1275306e-01  -6.8799787e-01   3.1259000e-01  -1.1678120e-02  -6.5517464e-01  -9.9721721e-01  -7.2096219e-01   7.4890681e-01   4.6079587e-01  -2.1482155e-01  -6.4849650e-01  -9.3824472e-01   7.6519075e-01  -2.6515505e-01  -9.5866181e-01  -4.2188733e-01   1.7963891e-01   6.2996367e-01  -4.7192010e-01   3.3521064e-01  -8.2691628e-01  -8.9988789e-01   3.0221681e-01   2.0413145e-01  -6.0525453e-01  -8.2443491e-01   7.2219121e-01  -2.3389759e-01  -5.1013805e-01   5.8878964e-01  -7.2415444e-01  -1.3934954e-01  -7.7455870e-01   6.6270860e-01   8.3008187e-01   3.4323028e-01   2.1022283e-01   4.5120424e-01  -7.7486253e-01   9.8000062e-01   3.9676142e-01  -8.1693742e-01  -3.3603093e-02  -3.4581595e-01  -8.8068580e-01   3.1691254e-01  -8.2895844e-02   3.9363746e-01   4.5108918e-01  -6.1377255e-01   7.2665156e-01  -1.1140439e-01   5.5004433e-01   8.3838449e-02   3.6927242e-02  -5.8085921e-01  -2.5344481e-01   6.1795535e-01  -8.5778271e-01   5.4587572e-01   9.2197919e-01   3.9766768e-01   7.0328848e-01  -3.4695689e-02   4.4778866e-01   5.0074485e-01  -5.1884611e-01  -9.4198665e-01   8.9208571e-01  -7.7986050e-01   9.7973352e-01  -1.3450571e-01   9.1952913e-01   8.7464044e-01  -7.8046167e-01  -3.1780858e-01   7.4424883e-01   5.8491339e-02  -2.6058858e-01   2.2288602e-01  -1.7796570e-01   1.2040385e-01   5.1945072e-01  -3.0078875e-01   6.6852638e-01   9.0180906e-01   6.8575227e-01  -6.9968122e-01  -1.2460390e-01  -6.0755584e-01   7.1338333e-01  -1.5068399e-01   4.8893785e-01   9.0606926e-01   8.6211212e-01  -2.4453334e-01  -6.5175558e-01   8.7045552e-01  -3.7695841e-01   2.9751650e-01   5.1611687e-01   1.9660621e-02  -2.6245610e-01  -3.7373041e-01  -2.9602457e-01  -4.1218337e-01  -7.2491300e-01  -1.0108384e-01  -9.1679327e-01  -9.6859162e-01   8.3307559e-01   5.2261633e-01   8.2200257e-01  -4.9524446e-01   9.6079584e-01  -9.7323390e-02  -6.6454925e-01  -7.2106353e-01   9.4683835e-01   6.6539227e-01   9.4367987e-01  -1.4062110e-01   8.7820252e-02   1.2353553e-01   9.2466841e-01  -7.9329188e-02   1.0194922e-01  -6.3004279e-01  -6.9078413e-01   9.4818530e-01  -8.9454710e-01  -5.4735882e-01  -8.5851610e-01  -2.3762867e-01  -1.4534971e-02   6.8311112e-01   3.7235745e-01  -3.0289330e-01  -1.8073003e-01  -5.0650237e-01   2.0777646e-01  -2.8096885e-01   1.9242399e-01  -9.0827665e-01   2.9744079e-01  -7.9939903e-02  -3.1681756e-04   6.5479300e-02  -2.7893908e-01   1.4673003e-01  -9.9235105e-01  -5.6171368e-01  -5.6894832e-01  -5.7953257e-01  -1.7031256e-01  -5.9761577e-01   6.1055409e-01  -9.6917506e-01  -4.1751540e-01  -5.7281464e-01  -1.0634073e-02  -4.0653609e-02   2.5470753e-01   1.7098717e-01  -6.2229073e-01  -9.9101937e-02  -8.5792263e-02   8.5297828e-01  -7.7281706e-01  -8.6905333e-01  -5.8585582e-01   5.5594304e-01  -9.7033562e-01   4.1987594e-01  -7.8378642e-01  -3.4392057e-01   8.6915619e-01  -5.2200621e-01  -5.0684748e-01   7.9248095e-01  -7.0336040e-01  -3.3215263e-01  -3.4955089e-01  -4.1103860e-01   8.6189185e-01  -9.1740618e-01  -9.2532343e-01  -2.2786832e-01   6.2592018e-02   9.9086617e-01   3.8228540e-02  -3.8370003e-01  -7.7589156e-01   2.5685236e-01   5.4134215e-01  -8.7084489e-01  -8.0694663e-01   5.2736827e-01   3.5569289e-02  -6.1661930e-01   2.6443481e-01   4.3509493e-01  -7.0003177e-01  -9.9062747e-01   8.5367929e-01   2.6392440e-02   2.2398250e-01  -5.6107290e-01   7.8327581e-01  -1.7577802e-02   7.2805900e-01  -5.2898939e-01  -4.2605616e-01   8.0867460e-01   6.4024079e-01   1.6631230e-01  -9.1302807e-01  -3.1888905e-01   8.6639497e-01  -4.7704395e-01   3.6716013e-02   4.1761554e-01  -9.7693027e-01   6.0389559e-02   5.8690518e-01  -2.8636695e-02   6.8886872e-01  -2.0048175e-01  -1.9986560e-01   8.6437132e-01  -3.1094981e-01   4.2886870e-01   3.6930685e-01   6.3646893e-01  -6.5085099e-01   3.2969752e-01  -2.8330531e-01   4.9962566e-01  -4.9180863e-01  -5.8541876e-01   6.4649501e-04   1.1292983e-01  -5.4089733e-01  -4.7027837e-01   6.4136618e-01  -1.5367254e-02   3.7119145e-02   4.7105659e-01   8.6711563e-01   7.6980612e-01  -3.7552846e-01   8.1486301e-01   7.2103759e-01   6.2217228e-01   2.0790471e-01  -5.1720762e-03   9.6650346e-01  -1.2987110e-01   5.5296523e-01  -8.0307743e-01   3.8363589e-01  -3.6248050e-01   5.3912351e-02  -6.6222752e-01   7.0224700e-01   1.6242148e-01   4.8415709e-01   7.0163315e-01   3.3463823e-01  -5.6394243e-01   8.6082076e-01  -4.0744817e-01   6.0876112e-01  -9.8295896e-01   4.4659616e-01  -8.1495705e-01   5.7591222e-01  -4.5302153e-01  -7.4667147e-01  -3.2000265e-02   7.7665553e-01  -9.6103486e-01  -5.2227466e-01   5.5014699e-01   2.0734344e-03  -3.3089993e-01  -6.3215450e-01  -4.9309692e-01  -2.5860575e-01  -8.1840086e-01   7.6042043e-01  -1.4540679e-01   1.4108108e-01   8.2538339e-01  -8.4913211e-01  -8.5190889e-02  -6.9089351e-01   9.3219196e-01   9.1262351e-01   6.0517471e-01   5.8365204e-01   9.6321350e-01  -8.8300419e-01  -4.3375723e-01   4.5967287e-01   6.5720448e-03  -3.3562481e-01  -8.3141950e-01   1.2819143e-01   3.5685360e-02  -5.8066545e-01   6.0928176e-01  -1.6151358e-01  -6.5817282e-01  -5.1699701e-01  -6.4948071e-01   3.7145060e-01   2.7041617e-01  -1.2779522e-01  -8.5200765e-01  -9.0000688e-01   5.6146814e-01  -3.0207813e-01   6.3395282e-01  -6.9994664e-01  -2.3486385e-01  -3.5481206e-01   8.5800297e-01  -2.0333490e-01  -7.3493249e-01   9.8985261e-01  -8.8599252e-01   1.3742353e-01  -7.7436397e-01  -9.0957026e-01   3.8407608e-01  -4.9496014e-01   5.0754669e-01   1.1411721e-01   2.8090231e-01   4.3140427e-01  -3.4103642e-01   3.4634284e-01  -5.7291711e-01  -3.7533169e-01   1.9024458e-01  -6.8179787e-01   9.8315786e-01   2.1797630e-01   5.4611016e-01  -7.3332172e-01   3.0613416e-01   1.4556638e-01   1.6526499e-01  -2.0959452e-01  -2.9780644e-01  -7.4824965e-01  -6.2971084e-01   1.2003890e-01   4.3466355e-01   2.9085074e-01  -8.5852647e-02   4.5560995e-01  -6.0117207e-02  -2.3517085e-02   5.9199865e-01  -1.7786073e-01   4.7985867e-01  -4.2021643e-01   4.1035316e-01  -1.2117807e-01   4.0459394e-01   7.9453868e-01  -9.1289312e-01  -9.0244981e-01  -3.7073544e-01  -2.5900608e-01   3.6079264e-01   7.4414105e-02  -6.2116781e-01   6.7747217e-01  -2.4469793e-01  -9.2085083e-01   4.1860473e-01   5.2707195e-01  -1.0992705e-01  -3.5496575e-01   1.5834843e-01   8.7805385e-01  -4.6605943e-01   9.2925001e-02  -8.7127248e-01   8.9214876e-01  -1.8305057e-01  -2.9614462e-01  -8.1556367e-01   5.6768368e-01   3.5483693e-01  -7.2219127e-01  -1.0848868e-01   4.7275616e-01   2.8095954e-01  -5.0107792e-01   5.0642765e-02   1.1223255e-01  -5.8686512e-01   8.4041332e-01   8.3139893e-01   1.7163618e-01  -2.4262697e-01   7.1983283e-02   5.4468064e-01   7.4182590e-01  -7.0286462e-01   1.0030266e-01  -7.9714499e-01  -5.4821768e-01  -4.7635582e-01  -6.1508928e-01  -8.8446243e-01   1.6292415e-01  -3.5878051e-01  -2.6139229e-01   3.4364979e-01   9.4366519e-02   2.5891789e-01   9.1933102e-01   7.4896135e-01  -8.1013139e-01  -6.5521578e-01  -6.2477089e-01   8.6400797e-01  -3.4031407e-01  -7.3665857e-01   8.4111291e-01   8.0744242e-01  -1.6890836e-01  -9.6969724e-01  -4.2144012e-01  -8.2620351e-01   2.2217399e-01   4.8614455e-01   6.3908899e-01   9.5873868e-01   1.4178006e-01  -6.8354806e-02   7.5571637e-01   1.5148368e-01   1.2428679e-02  -9.5210441e-01   8.9843307e-01   6.4862599e-01   6.2492389e-01  -6.3321329e-01   9.1315737e-01   6.5322908e-01  -7.9259953e-01  -1.3227461e-01   7.3445310e-01  -5.6401238e-01   4.7240684e-02   1.9308415e-01   4.9271165e-01  -7.0803603e-02  -6.1768893e-01  -6.6930177e-01  -3.6320468e-01  -6.0324150e-01   4.7788163e-01   5.4691284e-01  -7.0087380e-01  -8.2190310e-01   6.9266974e-01   4.2672879e-01   6.9796447e-01  -8.1192394e-01   8.3415796e-01  -7.0862958e-04   1.7684251e-01   6.7158694e-01   7.6016603e-01   8.7914758e-01   3.3873107e-01   4.4519551e-01  -6.4400893e-02   5.4049470e-01  -4.4680221e-01  -3.4681791e-01   6.2547677e-01  -7.8966789e-02  -4.7858094e-01   8.2433719e-01   1.4333548e-01   6.3590931e-01  -6.5430734e-01  -5.8976808e-01   8.5360701e-02   7.1171384e-01  -7.7811635e-01   6.6883007e-01  -9.5720274e-01  -7.5685997e-01   6.5731764e-01   8.4991271e-01  -9.0277457e-01  -8.5961052e-01   7.3637670e-01  -7.1469779e-01   2.7480537e-01   1.6241327e-01   6.2570098e-01   7.9007424e-01  -2.2001226e-01   2.2703719e-01   8.4589209e-01  -9.8663651e-01   1.1426317e-01  -4.5807381e-01  -3.2599821e-01   9.0156675e-01   3.6541651e-01  -3.7330910e-01   4.9692896e-01  -8.1431762e-01  -4.2689635e-02   8.2322232e-01  -4.6762021e-01  -5.2596373e-01   8.7135282e-01   6.4443693e-01   3.6751043e-01  -3.9756025e-02   1.2043918e-01   4.0312905e-01  -4.8124301e-01   9.3518827e-01   3.3828747e-01  -6.5958253e-01   2.8977040e-01  -4.6487570e-01  -8.9131234e-01   4.7119863e-01  -4.7102409e-01  -5.0948810e-01   3.6094312e-01   9.8315836e-01   6.6729758e-01   3.9993635e-01  -2.0924908e-01  -6.2647457e-01   5.1414096e-01  -8.8384948e-01  -5.3698250e-01  -6.9364956e-01   4.9676700e-01  -5.6406043e-01  -8.9060043e-01   3.7051511e-01  -1.9293331e-02   6.0453433e-01  -6.2486827e-01   2.4179200e-01  -1.9250776e-01  -5.6006405e-01   6.1642069e-01  -5.6814581e-01   4.7100385e-01  -8.1274178e-01   2.9969964e-01   4.1599437e-01  -9.2624352e-01   8.0300562e-01  -4.0779377e-01  -7.9810649e-01  -8.3889215e-01  -2.8444254e-01   3.8248416e-01  -4.0795049e-01   6.5480448e-01   9.8175384e-02  -5.3921722e-01   2.2278276e-01  -8.7359663e-01   6.6100564e-01  -4.3069437e-01  -8.4970986e-01  -6.1840559e-01  -5.6739828e-01  -6.9596881e-02  -3.2703461e-01   5.8022117e-01   9.2723711e-02   5.7142609e-01   7.7736439e-01   5.5439215e-03  -5.0153857e-01  -1.5488498e-01  -7.0704727e-01   7.0605259e-01  -2.6145473e-01  -9.0836707e-01  -9.1876867e-01   9.8922467e-01  -5.0755051e-01   5.8959973e-01  -3.3010973e-01  -5.1263747e-01   1.5046452e-01   5.0244368e-01   2.0899988e-01  -8.9693160e-01  -1.4763135e-01   2.4379779e-01  -9.9656342e-01   1.7326873e-01  -9.4952901e-01  -8.2755354e-01   1.9491414e-01  -3.3088168e-02   2.6351396e-01   1.7294085e-01   7.1324594e-02   1.5250538e-01   2.7784799e-01  -9.5001939e-01  -9.0319187e-01   1.8162025e-01   2.2124695e-01  -9.0326278e-01   4.5129047e-01   1.0426946e-01   6.5648289e-01   2.4239470e-01  -8.9318094e-01   2.1606207e-01   2.3685933e-01   8.5747730e-01   5.8771898e-01   4.5538281e-01  -7.7522356e-01   1.2180335e-01  -9.5975231e-01  -4.1279520e-01  -8.9666740e-01   6.2354371e-01   9.6295403e-01   1.5187866e-01   4.7970217e-01   5.9141576e-01  -7.8400984e-01   8.8143984e-03   5.1178685e-01   2.4970979e-01  -4.2723627e-01   1.4678658e-01   9.8771324e-01   7.5474993e-01  -2.2386196e-01  -8.3417131e-01  -6.4295769e-01  -5.7014925e-01   5.0784257e-02   4.0749356e-01  -1.6897119e-01   4.3597997e-01   7.2014623e-01   4.3810427e-03  -9.3051617e-01  -7.6037639e-01  -1.1571022e-01   6.7646570e-01  -6.5413429e-02   5.1402643e-01   8.7694038e-01   2.2829975e-01  -3.0085182e-01   1.5293503e-01  -1.9173892e-01  -1.0429466e-01   9.0346578e-01  -9.8782795e-02   5.0190144e-01  -1.3307261e-01   5.5048834e-01  -8.6188934e-01  -6.0289121e-02   9.5783706e-01   4.0956959e-01   3.6706796e-01  -5.3691575e-01  -2.9706270e-02  -9.8396210e-01   1.2217133e-01   6.2818807e-01   8.1018278e-01  -9.1738622e-01   2.5056308e-01  -4.2228632e-01   5.0680688e-01  -5.2027969e-01   4.7605214e-01  -6.9289344e-01  -3.2222977e-01  -4.3989309e-01   3.5467301e-01   9.5986315e-01  -2.5528485e-01  -2.8668273e-01   5.2324921e-01   9.9274898e-01  -8.4948257e-01   6.6248709e-01   2.9022850e-02  -5.2560791e-01   2.3856473e-01   2.0040109e-01  -6.3135988e-01   5.1815956e-01   9.7163618e-01  -4.7176433e-01   3.9469683e-01   4.3376741e-01  -6.9719172e-01   2.4884785e-01  -3.4246393e-02   8.0688990e-01   1.3920325e-01   2.6511453e-01   4.3141048e-01  -7.6604815e-01  -4.5768144e-01   5.8727847e-01  -3.5452727e-01   5.4914902e-01   2.6488395e-01  -9.4188153e-01  -6.5459978e-02   2.8463737e-01   5.5572067e-02   4.7141966e-01   9.9978208e-01  -3.7780239e-01  -3.4074867e-01  -5.9861530e-01   6.8183701e-02  -6.9800417e-01  -9.5688801e-01  -3.9646637e-01  -2.2680953e-01   5.4497267e-01  -4.6812184e-01  -4.1145313e-02  -4.7327260e-01   4.6298332e-01   3.4083264e-01   8.3049475e-01  -6.1049160e-01   6.6662234e-01  -6.6394432e-01  -7.7889790e-01  -8.0648362e-02   2.2421133e-02  -2.7833031e-01   3.8597555e-01  -5.8338577e-01  -9.1390454e-01   3.8726541e-02   7.8995103e-01   6.7060384e-01   5.2166805e-01  -6.4847730e-01   5.9665763e-02  -1.5038321e-01  -3.6157642e-01  -7.4234821e-01   2.7584510e-01  -1.9363098e-01  -1.3866528e-01   1.0164368e-01  -8.2815540e-01  -7.3279851e-01   5.9658468e-01  -7.1075807e-01   3.2106686e-01   6.4493538e-01   9.3311827e-01   6.0596714e-01  -8.2462454e-01   1.9563034e-01  -3.0098923e-01   2.3580709e-01  -5.2254476e-01   8.0334496e-01  -6.8073060e-01   1.4000049e-01   2.6217270e-01   1.4938307e-01  -3.4439702e-01  -1.4628454e-01   6.6553302e-01   5.2267283e-01  -1.9276299e-01   6.9589589e-01  -7.6642241e-01  -1.8885075e-01  -9.8200734e-01   6.8101792e-01   3.3392637e-02   1.4485718e-01  -8.4104464e-02  -4.2456600e-01   9.7992292e-01
   4.4427667e-01  -1.8602642e-02  -8.5855629e-01  -4.4472229e-01  -2.1334984e-01   2.1995171e-01   1.4640649e-02  -4.1578523e-01  -4.9511472e-01   6.4084022e-01   6.5462126e-01   1.7372260e-01   9.0452516e-01  -5.2347980e-01   9.7874283e-01   9.0109533e-01   1.0157861e-01  -3.5570809e-01  -3.6343241e-01   5.4414770e-01  -4.7327210e-01   1.6248807e-01   8.9029082e-02   2.7291861e-02  -8.0919130e-01   2.0566421e-01  -5.3517120e-01   7.9090234e-03   3.5039376e-01   3.0526350e-01  -2.1219524e-01   4.6901692e-01  -8.0074673e-01   6.4694176e-01   7.0024869e-03   5.4866849e-01   4.4867444e-01   3.5682023e-01   3.2790033e-01  -8.6118593e-01  -8.9558113e-01  -9.0290110e-01  -7.7221622e-01   3.8035653e-01   9.5547528e-01  -5.5889255e-01   3.3649184e-01   6.3824611e-01  -6.3689155e-01   7.4660503e-01   7.6185580e-01   1.7145191e-01   7.1558728e-01   1.9221079e-01  -9.5282100e-01   4.7482728e-01  -2.7639890e-01  -4.4710752e-01  -8.4640903e-01  -9.3317247e-01  -9.3753006e-01  -2.7793416e-01   5.0182345e-01  -6.4853380e-01   3.0085829e-01  -9.0636769e-03  -3.9633557e-01  -8.2608173e-01  -8.0167104e-01   3.4037791e-01   1.1771465e-01   2.2830807e-01  -8.6409585e-01  -8.8484068e-01   7.1408539e-01   2.5314192e-01  -4.4580176e-01   3.7136973e-01  -3.1623111e-01  -4.0727102e-01  -4.3106446e-01   6.0316874e-01   3.2141380e-01   6.1952177e-01  -7.4058374e-01   4.4225417e-01  -1.3316316e-01   7.2221919e-01   2.0958666e-01   5.8567439e-01   9.2783952e-01  -2.6063615e-01  -3.6522983e-01   6.1047854e-01  -1.9627264e-01   6.6893282e-01  -4.1210074e-01  -1.9558784e-01   2.4207430e-01   9.0889981e-01   9.5028949e-01   4.9281160e-01   2.4079326e-01  -3.1770238e-01   9.9989917e-01   8.8274214e-01  -8.2574508e-01  -9.7307792e-01   2.9544805e-02  -4.4824164e-02  -2.5952758e-01   3.9386356e-02   7.9767911e-01  -3.5454642e-01   6.4818082e-01   6.2243883e-01  -4.3270499e-01   8.7716616e-01  -8.2210026e-01  -8.0360595e-01   7.0263575e-01   1.7940273e-01  -5.3104067e-01   3.4442264e-01   5.2238694e-02  -8.2162783e-01  -8.2728955e-01   9.4362687e-01  -4.8585839e-01  -6.7695343e-01  -4.0998305e-03  -3.0046816e-01   7.1092392e-01  -8.4005429e-01   5.9394538e-01   5.3652155e-01   5.2201724e-01   9.7234902e-01  -8.6336383e-01   5.9626065e-01  -2.0240917e-01  -1.0884509e-01   2.6882392e-01   3.5767422e-01   5.6291548e-01   3.0356252e-02   8.6752057e-01   6.2188678e-01  -7.2994731e-01   3.3143561e-01   9.3921400e-01  -9.4235638e-01  -6.3266684e-01   2.1582570e-01  -2.2902920e-01  -2.6361472e-01  -9.3708277e-01   9.6402292e-01  -4.5300070e-01   4.6116838e-01   4.3022069e-01  -4.9091272e-02   9.7410203e-02  -7.2975489e-01   5.2945835e-01   1.1259300e-01   7.8669841e-01  -5.7800559e-01  -7.9453163e-01  -6.8193318e-01   1.6600548e-01   3.1751966e-01   8.1580731e-01   7.6361378e-01  -6.5178760e-01   8.5783913e-01   7.7416236e-01   1.9797391e-01   1.4361385e-01  -3.1947179e-01  -2.8844186e-01  -2.9803640e-01  -6.1920869e-01  -3.5530944e-02   5.2412216e-01   3.9702496e-01   8.6326425e-01   5.8187652e-01  -1.1573813e-01  -6.4928758e-01  -4.9019835e-01   7.4173838e-01  -1.7934951e-01  -7.1443429e-01  -6.9732951e-02  -6.5219158e-01   1.4664670e-01  -2.1070838e-01  -8.4023806e-01  -9.3914790e-01  -1.0662239e-01   3.0980312e-01  -6.0960497e-01   4.8821057e-01  -8.6142532e-01  -9.2663117e-01  -2.0794087e-02   7.7499746e-01   6.9025602e-01  -5.0576366e-02   8.6325275e-03   8.2102866e-01   2.1201355e-01  -6.2250873e-01   7.6180434e-01  -8.4157803e-02  -1.2946254e-01   5.3720293e-01   4.3601892e-01  -1.5689225e-01   7.6284170e-01   1.9395362e-01  -2.4927462e-01  -9.1350026e-01   2.9639282e-01  -9.5060524e-01   6.1240519e-01  -1.8413633e-01  -8.3172024e-01  -7.9555905e-01   5.5697571e-01   3.4438354e-01  -1.1631511e-01   5.3620297e-01   3.2977984e-01  -3.3372671e-01  -3.0754233e-01  -9.2838061e-01  -7.9044558e-01   7.9787430e-01  -1.6162715e-01  -4.8220762e-02  -1.8344326e-01  -5.0506784e-01   8.7032540e-02   7.7476340e-01   7.2770676e-01   2.6855447e-01  -4.3366325e-01  -6.3610273e-02  -3.6128038e-01   7.3992557e-02  -9.6305466e-01   9.9667989e-01  -5.3963870e-01   5.8679263e-01  -4.6225106e-01   3.6823267e-02   1.4081393e-01  -7.2253320e-01   5.7022920e-01  -7.8103635e-01  -6.3256171e-01   8.8919643e-01  -6.8676858e-01  -1.1280642e-02  -7.7786346e-01  -7.5505115e-01  -1.0311228e-01   5.7997580e-01   5.1523522e-01   6.1082120e-01  -6.3481251e-01  -5.6449763e-01   5.1516506e-01   2.9040202e-01  -7.9899092e-01  -8.4110682e-01   3.5373836e-01   7.7073087e-01   1.4705590e-01  -5.6230548e-01  -5.9905141e-02  -4.4531138e-01   8.5203305e-01   2.3541411e-01  -8.5185969e-01  -7.5211626e-01  -8.3836899e-02   6.5483715e-01   7.8310056e-01   6.9675718e-01   8.0469239e-02   9.4915070e-01  -3.3596594e-01  -8.3564596e-01  -1.5524197e-01  -8.4855663e-01   2.3718714e-01   8.0665044e-01   3.3257411e-01  -4.8743222e-02  -2.3209133e-01  -4.2369132e-01   4.8188441e-01  -2.0825924e-01   4.5799339e-01   2.1371434e-01   6.5825788e-01   2.4599011e-01   1.1511592e-01  -2.6464436e-01  -2.9029208e-01  -6.3319321e-01  -9.1967728e-01   4.9239795e-01   5.8112372e-01   4.2116068e-01   7.6814573e-01   1.4831491e-01  -6.3853584e-01   8.5400966e-02  -1.0935172e-01  -2.4675333e-01   7.5901823e-01  -7.9265887e-01   9.4025058e-01  -4.4611345e-01   6.7878298e-01  -1.1281485e-01   6.8240825e-01   6.8996549e-01   8.2327039e-01   9.4634698e-01  -1.5593055e-01   8.4768119e-01   8.9455236e-01  -1.9530494e-01  -7.5780569e-01   3.5643136e-01   9.0624967e-01   9.5065636e-01   6.2782141e-01  -7.8641563e-01  -8.2004595e-01   6.0106510e-01   5.6117000e-01   7.2808327e-01   8.9712521e-01   8.1517433e-01   3.6657081e-01   8.1429309e-01   6.0860440e-01   2.9163258e-01   3.1171766e-01   7.4846945e-01  -4.0841767e-01   1.1486910e-01   8.1246252e-01  -9.5225119e-01  -1.1932907e-01  -6.7837861e-01  -7.1783456e-01  -8.6125683e-02  -9.0045556e-01   6.5484293e-01  -1.1462541e-01  -1.9599312e-01  -6.5206414e-01   4.9085924e-01  -1.9028243e-01   8.0217887e-01  -9.6187304e-01   4.5511267e-02  -2.5290126e-01  -3.5236168e-01  -7.0954308e-01  -2.1562935e-01  -9.7019440e-01  -8.5489895e-02  -5.2336862e-01  -4.9776583e-01   2.4491217e-01   3.3687793e-01  -9.8721579e-01   8.0226316e-01   6.4497784e-01   4.3987459e-01   1.5483938e-01   2.6864550e-01  -3.2935119e-01  -5.0811363e-01  -7.0497301e-01   5.0217032e-01  -6.1694791e-01   3.7894817e-01  -9.1279064e-01  -5.4818444e-01   7.8185715e-01  -7.6607214e-01  -2.9232601e-01  -5.9999169e-01   5.9358080e-01   1.9915062e-01   6.8873782e-01  -1.9744815e-01  -9.1814166e-01   3.3823207e-01  -7.8089691e-01  -1.8257869e-01   4.6449305e-01  -5.9866615e-01   1.7904302e-01   9.3097947e-01   3.5559559e-01  -1.3855868e-01   6.3441007e-02  -6.3083571e-01  -2.0348645e-01  -6.1905199e-01  -4.3875691e-01  -5.1169360e-01  -9.6920183e-01   6.6256742e-01  -5.0721557e-02   5.3893557e-01   4.5045776e-01   8.4029635e-01   6.6539545e-01  -4.8855825e-01   6.3174727e-01  -8.1102220e-02   2.0509021e-01   4.9082829e-01   4.5000722e-01   5.9794568e-01  -1.6197229e-01   3.0495469e-01  -4.5983981e-01  -4.0288210e-01  -9.7675060e-01  -5.2003267e-01   8.0815237e-01  -2.9136007e-01  -8.1787841e-01   2.7849841e-01  -6.0118120e-01  -4.4773030e-01  -9.6792371e-01   5.2096671e-01  -5.6181012e-01   1.4258685e-01  -1.4033517e-01  -2.9412064e-01  -5.3339834e-01  -2.0961875e-01  -1.5112786e-01  -8.4008937e-01   8.7671942e-02  -4.2484527e-01  -5.7510289e-01   3.5951645e-01  -6.5985825e-01  -4.3501456e-02  -7.5210979e-02   2.0809700e-01  -4.7645593e-01   2.0886387e-01  -5.1894687e-01   8.0251972e-01   1.8626914e-01  -4.5293925e-01  -3.9131337e-01   3.9607786e-01  -6.1472792e-01  -2.8404019e-03  -4.5895284e-01   3.7503712e-01   9.6619144e-01   1.9859957e-01  -2.1806160e-01   5.5667386e-01   6.8184434e-01   4.0167638e-01  -7.8611081e-01   6.4943266e-01   4.4050196e-01  -3.2599682e-01  -3.2031769e-01   7.3448853e-01   3.8691347e-01  -5.4724259e-02   2.8740221e-01   2.2168828e-01   4.3654719e-01  -1.4448307e-01   3.8007321e-01  -7.2657135e-01  -2.1190177e-01  -3.6653722e-01  -8.1686054e-01  -5.2553472e-01   8.5516564e-01   6.9601953e-01   4.0457014e-01   3.0650454e-01   2.5185999e-01   7.1315705e-01   5.2506092e-01   4.2644778e-01  -3.0504182e-02  -2.6734056e-01  -3.8543478e-01  -7.9558352e-01  -4.7385404e-01   5.5974299e-01   9.9985046e-01   7.9873373e-01  -4.0624275e-01   7.6769753e-01   4.6125204e-01   7.7537026e-01  -2.6124171e-01   7.2984475e-01  -1.8501451e-01   4.6868550e-02   3.1119762e-01  -3.3095653e-01  -8.9755344e-01   4.4840595e-01  -1.3535251e-01  -2.7057059e-01  -4.8226582e-01  -5.5913581e-01  -1.1979037e-01   3.5630761e-01  -8.4145407e-01  -2.3405777e-01  -7.7393098e-01   7.3489093e-01  -3.9008079e-02  -5.7426489e-01  -4.6781679e-01  -1.9130508e-02   3.5195417e-01  -7.3934163e-02   8.5603833e-01   4.1132433e-01   6.7491906e-01  -9.6684703e-01  -6.1098327e-01  -8.4326842e-01  -5.4501415e-01   2.2904074e-01  -2.6286896e-01  -2.7580030e-01   7.8381030e-01   8.7942512e-01  -3.7430611e-01   5.7582005e-01  -5.7150300e-01   8.5582335e-01  -7.7496507e-02  -9.4747721e-01  -1.0395274e-01  -5.3631213e-01   7.9529300e-02  -3.6495695e-01  -2.2599057e-01  -8.8271590e-01  -9.6428002e-01  -3.4942356e-01   9.2977881e-01  -8.0398697e-01   3.7907497e-02  -6.7412882e-01   4.4237611e-02   6.0171569e-01  -3.8712571e-01   6.5288141e-01  -1.4278979e-01   2.6143371e-02  -4.3389149e-01  -7.9631397e-01   6.5154179e-01   1.9345591e-01  -8.9282217e-01  -7.6176779e-01  -7.4373516e-01   8.4509516e-01   4.0018993e-01   2.5078560e-01  -5.5726924e-01   7.1362238e-01   9.6362303e-01  -4.4011890e-01   9.2450016e-01  -4.6507273e-01  -2.1532692e-01  -7.0749346e-01  -1.6335787e-01   7.4151297e-01  -6.3367069e-02  -3.6895372e-01  -1.8600313e-01   6.1986809e-01  -6.9437488e-02  -1.9286343e-01   6.8254841e-01  -9.9375639e-01   8.6265044e-01  -4.9148478e-01  -2.6739172e-01  -2.0583256e-01  -3.2550859e-01   1.0930720e-01  -9.6760290e-01   1.2429727e-01  -8.3003229e-01  -7.2376717e-01   9.5606313e-01   6.4443359e-01   2.4505195e-01   4.8890325e-01   4.3557160e-01  -2.0638471e-01  -7.7353530e-01  -1.4628149e-01  -7.1369633e-01  -9.8422206e-01  -9.4362679e-01  -7.9508321e-01  -7.2357497e-01  -2.5730747e-01  -4.2301700e-01   4.6654580e-01  -4.5015148e-02  -8.5880023e-01  -5.8751638e-01   2.3566093e-01  -2.3691276e-01  -7.8660807e-01  -3.7492032e-01   7.7203752e-02  -6.6226489e-01   2.7000581e-01   7.0490156e-01  -5.1499785e-01   8.0860996e-01   5.5974262e-01   9.0063345e-01   4.0519966e-01  -3.9671009e-01  -9.3806734e-01  -9.1965176e-01   7.3230310e-02   2.8329005e-01   7.4519146e-01   5.0084992e-02   9.2899665e-01  -2.8655356e-01  -9.4941806e-01  -5.6142460e-01   6.1747186e-01   4.9580213e-01  -5.5429507e-01  -9.5069178e-01  -8.2740775e-01   1.2357378e-01  -4.6068624e-01   2.6906273e-01   4.7853343e-01  -9.8391252e-02   2.1584914e-01   2.1602310e-01   7.6704191e-02  -1.0472195e-01   4.9496756e-01   7.8915356e-01  -1.7606539e-01   5.6103174e-01  -8.6533166e-01   7.1340284e-01  -1.0858254e-01   9.7882840e-01   9.6551564e-02  -1.0232576e-03   4.5229703e-01   5.9746705e-01   5.5084077e-01  -1.0250339e-01   5.9849098e-01  -2.6849418e-01   6.3573792e-01   1.2356605e-01   2.6021106e-01   3.4120417e-01   2.4233469e-01  -4.0552986e-01   6.5089317e-01  -4.4785541e-01   3.4301026e-02  -7.1454782e-01  -2.8899392e-01  -8.5666660e-01  -3.9653061e-01  -5.1573774e-01   1.6794689e-01   3.0162050e-01   2.8384328e-02  -1.6074046e-02   8.2825607e-01  -3.8690151e-01   7.8038225e-01   1.3547938e-03   8.4247797e-01   5.8870635e-01   5.0577943e-01  -9.6409245e-01   2.7778698e-01  -3.8133538e-02   4.2661465e-01   7.5736863e-01   8.3284268e-01   5.9635684e-01  -9.3073696e-01   7.9659787e-01  -3.9805382e-01  -6.2108757e-01  -2.1897832e-01  -7.2080610e-01  -8.2769374e-01   5.0067227e-01   3.1803294e-02   8.1798680e-01   6.9733207e-01  -4.5185299e-01  -9.4471632e-01  -2.8818239e-01   7.1457845e-01  -7.4600815e-02   1.1799965e-02  -8.4220886e-01  -7.2130475e-01  -8.2928014e-01   9.2390552e-01   2.3962439e-01  -6.5061573e-01   1.8471785e-01   1.1369910e-01  -7.8169334e-01  -4.1032789e-01  -4.0614564e-01   4.3477059e-01  -2.1311875e-01   3.3556473e-01   8.3683918e-01  -4.8622117e-01  -5.3777439e-01  -1.3242879e-01   2.2107028e-01  -4.7381535e-01  -1.0899892e-01   3.7384883e-01  -5.7040640e-01  -9.7540574e-01   4.0409009e-01   3.9262825e-01  -9.3487914e-01   5.1854339e-01   5.3988039e-01  -9.5598772e-01  -3.3417083e-01  -6.1440441e-01  -8.5830952e-02   9.8897256e-01  -6.4711381e-01  -9.5763171e-01   2.4795942e-01  -1.8397774e-01  -2.8352170e-01  -2.0806188e-01  -6.6191565e-01  -5.3938158e-01   6.3151819e-01  -7.0646054e-01  -5.4063987e-02  -4.4702501e-01  -3.0949319e-01  -4.2013766e-01  -4.0105645e-01   6.3843192e-01   8.1130974e-01  -2.1143156e-01   2.9924709e-01   5.2838927e-01  -2.2795833e-01  -8.6746820e-03  -7.2602602e-01   4.5702273e-01  -2.0221776e-01   5.1653396e-03   7.1858783e-01   1.0941641e-01   8.9180959e-02  -2.8132361e-01   5.1122971e-02   5.4766438e-01  -8.2844754e-01  -5.4024675e-01   4.9961129e-02  -1.8245815e-01  -8.7686074e-01  -8.4781821e-01   9.8723763e-01  -4.4384886e-02   2.9430835e-01   5.2847942e-01  -6.3616515e-01   8.3071424e-02   8.0785760e-01  -4.5913802e-01  -6.0701320e-01  -7.5798840e-01   9.8618518e-01   4.2269809e-01  -4.7409826e-01  -3.7877412e-02   9.0498655e-01   9.6856688e-01   5.0565393e-01   9.7244324e-02   2.9191047e-01  -6.6653232e-01   1.2952884e-01   8.7821239e-01   8.3690639e-01   8.3223702e-01   4.9678230e-01   4.0870816e-01  -8.0464281e-01  -6.9912480e-01   3.9699266e-01  -7.8310762e-02   5.5975590e-01   4.4041212e-01   9.7905524e-01   6.6509463e-01   5.6856619e-01   9.0906368e-01  -3.5410336e-01   3.5529862e-01   6.8374402e-01  -8.9566436e-01  -1.3227269e-02   5.2333363e-01  -8.6702400e-01   6.1803724e-01   9.4638370e-01   2.7314213e-01  -2.4474304e-01   5.6787743e-01  -8.7345143e-01   4.5866610e-02   2.6171592e-01   4.8535712e-01   4.0910615e-01  -5.0917534e-01  -9.4305870e-01  -6.7646802e-01   7.9592240e-03   4.8364495e-01  -3.0628837e-01   8.5025968e-01  -8.4815037e-01  -4.2713708e-01   7.7975409e-01  -5.6739675e-01  -7.2165792e-01   3.2612792e-01   7.8508051e-01   1.9313044e-01  -6.7035920e-01   1.5173768e-01   2.4819854e-02  -1.3155444e-02   3.3469543e-02  -3.0571648e-01   3.2628426e-01  -9.5087598e-01  -2.6410434e-03   1.8086649e-01   1.5171421e-01  -4.7200949e-01  -5.8090895e-01  -5.4589678e-01   3.3799193e-02  -8.5005691e-01   7.4440682e-01   1.6087007e-01  -8.4071418e-01   6.7006376e-01   9.9907593e-02   8.1124859e-01  -9.9908637e-01  -3.0915002e-01   5.0428961e-01   7.5002878e-01  -4.3076021e-01  -2.3362090e-01   4.1426964e-01  -1.0252576e-01   2.6734381e-01  -9.9362763e-01   9.5244808e-01   4.8338833e-01   7.4300434e-01   9.4988727e-01  -1.7816545e-01  -2.7368803e-01  -8.9525056e-02  -9.5281810e-01   3.9334001e-01  -7.4452828e-01   1.2400220e-01   4.1101436e-02  -6.5777070e-01   1.0048805e-01  -5.6025047e-01   4.1407254e-01   9.9052182e-01  -4.6793281e-01   4.9455632e-01   7.4031306e-01  -7.9169618e-01  -8.3789748e-01  -8.7444958e-01   9.5937185e-01  -4.6153840e-01  -6.1324183e-01   2.3515701e-01   9.9518190e-01   3.2448303e-01  -9.4224448e-01  -9.7274627e-01   9.5344301e-01  -9.1771618e-01  -4.1756715e-01   6.6180662e-01  -6.0211157e-02   7.6166355e-01  -4.3622723e-01   4.9718910e-01   3.2711808e-01  -4.9524552e-01  -7.0005110e-01  -2.1603620e-01  -8.8608611e-01   2.4254875e-01  -3.7695548e-01  -3.6827523e-01   6.8243481e-01  -1.7882645e-01   2.1901507e-01  -7.9804074e-02   1.2781341e-01  -9.7105824e-01  -9.7258387e-01   1.2373540e-01  -8.5240239e-01   9.8360586e-01  -2.5395764e-01   7.9988959e-01   7.6790307e-01   8.4362143e-01  -6.1768268e-01  -1.3871555e-02  -9.2772715e-01  -4.4176391e-01   5.9600406e-01   6.1029284e-01  -3.6882774e-01   3.9909785e-01   6.7493028e-01  -5.4038626e-01  -1.0665518e-02   4.2211234e-01   3.5239114e-01  -8.9148289e-02   5.0290954e-01  -8.9972061e-02   4.5636638e-01   6.1463260e-01  -9.4300228e-01  -9.5355868e-01   8.9856992e-01   8.7591813e-01   6.7087903e-01  -1.3073354e-01   8.5198153e-01
   3.5091481e-01  -9.7232177e-01   3.5900780e-02   6.5901754e-01  -1.8173054e-01   4.6152167e-01   3.9293140e-01  -4.8719109e-01   4.6725588e-01  -4.6938126e-01  -9.9733448e-01   9.7457126e-01  -7.6129267e-01   3.8871490e-01  -4.2234093e-01   4.4787594e-01  -7.8849098e-01   3.1477590e-01   6.5675188e-01   3.4944763e-01  -3.8052135e-02  -5.3797790e-01   7.7078958e-01  -2.6212415e-01   7.7015788e-01   3.3785958e-01   4.2069307e-01   8.6609228e-01   7.7693728e-01  -2.8965929e-01  -1.4427186e-03  -8.3180597e-01  -3.8803976e-01  -1.1095112e-01  -7.3780904e-01  -4.3656103e-01   9.7785654e-01  -1.4085019e-01   2.0997498e-02  -5.4173097e-01  -7.8477530e-01   1.8180781e-01  -5.3349720e-01   9.0264548e-01   7.9002208e-01   9.7418047e-01   5.9170618e-01   3.1757424e-01  -7.1430370e-01   9.4002065e-01   6.4723905e-01   5.7755090e-01  -6.3612285e-01   9.9001977e-01   6.5999135e-01   3.0813699e-01   1.1015902e-01  -7.8972218e-01  -9.4445149e-01   7.5305773e-01  -6.1412318e-01  -2.9157260e-01  -5.0368024e-01  -6.3869108e-01   7.6609502e-01   5.5922660e-01  -1.5866079e-01   7.5849116e-01  -4.6847642e-01   3.3414494e-01   6.3375684e-01   1.9191731e-01  -5.8435719e-01  -4.0093869e-01  -5.3712898e-01  -7.8661270e-01  -6.4847122e-02  -7.8808100e-01   2.6260084e-01   8.2875811e-01  -2.7494437e-01   9.5830462e-01   3.4705824e-01  -9.7271426e-01   8.9004805e-01   2.8401604e-01   9.4260533e-01   1.7756027e-01   6.4070411e-01   4.4884833e-01   9.6217469e-01   3.7836235e-01   5.0297230e-01  -3.8744717e-01   2.3979804e-01   2.7255426e-01  -7.8077208e-02  -6.7218243e-01  -9.8194256e-01   9.3180495e-01  -2.1670823e-01   1.6493484e-01  -8.4133404e-01   4.4028825e-01   5.5045493e-01  -8.8992059e-01  -7.0739109e-02   1.9714898e-03   8.8162003e-01   7.0842384e-01   9.2878392e-01  -6.8524365e-01  -1.5544861e-01  -7.8028543e-01  -4.6705932e-01   2.8043836e-01   9.4580655e-01  -2.1750043e-01  -3.4697624e-01  -5.9079805e-01  -6.0951979e-01  -6.3228308e-01   6.5148420e-01   8.5895235e-01   1.6374880e-01   6.9106509e-01   1.7090244e-01   6.4440238e-01   9.1736909e-01  -6.5701698e-02   1.1032995e-01   7.1591220e-01   5.9818847e-01  -8.7250721e-01  -6.4986321e-01   5.1781064e-01  -6.6735727e-01   8.4995340e-01   9.8325806e-01   1.4911398e-01   1.0216342e-01   7.2754715e-01  -5.3417302e-01   4.0991429e-02   8.6399038e-01   5.2412078e-01  -6.7436005e-01   1.9211860e-01   1.7406855e-01   4.3892852e-01   3.3067279e-01   5.6136701e-01   9.6737991e-01   8.1613197e-01  -1.4239492e-01   3.4506030e-01   9.0486363e-01   9.9569854e-01   2.1582796e-01  -6.5969887e-01   4.1345871e-01  -4.5293996e-01   2.8886191e-01  -9.5611819e-01   5.8225351e-01  -2.9558332e-01  -9.9493872e-01   8.0517612e-01  -3.7008298e-01  -4.6185692e-01  -9.8217405e-01  -7.7464813e-01  -4.1367172e-01  -9.9613415e-01   7.6968259e-01   6.6502547e-01  -8.1633372e-01   7.2154069e-01  -5.4584927e-01  -1.8927695e-01  -4.5886685e-01   8.3989999e-01  -2.6843163e-02  -5.0125025e-01  -9.4585689e-01   8.5270182e-01   5.3992924e-02  -5.8337321e-01   1.7301581e-01  -6.8188309e-01   6.9202881e-01   6.8356314e-01  -5.7066484e-01   3.0930143e-01   2.9121597e-01   1.9471513e-02   7.2459024e-01   5.7530264e-01   5.1781187e-01   8.0037344e-02  -9.8897432e-02  -7.3006908e-01  -6.2492218e-01  -8.4217061e-01   6.7674575e-01  -7.3532786e-01   4.0105518e-02  -4.9133305e-01  -8.7970324e-01   1.1223791e-01   2.8975008e-01  -1.6379988e-01  -1.9539908e-02   1.4861789e-01   7.3191786e-01   2.5189404e-01   3.3739469e-02   9.6094117e-01  -9.1169316e-01  -4.7676017e-01   6.9835309e-01   4.8506825e-01   2.8529875e-01   8.2351939e-01  -9.0594456e-01  -6.4581238e-01  -7.0323288e-01  -9.0042783e-01  -4.6117503e-01   7.1550032e-01   4.8025156e-01   8.2912353e-01  -9.9975924e-02  -7.9003563e-01   4.9603012e-01   3.4178904e-01  -8.5666681e-01   2.4209540e-01   9.9986213e-01   3.4985950e-01  -3.3938312e-01   1.7752428e-01   3.9365935e-02   4.8140135e-01  -5.5664187e-01   4.6911969e-03  -1.8340342e-01  -6.3037307e-01   4.4449161e-01   1.0597820e-01   9.1314511e-01  -8.8827599e-02   4.8485797e-01  -5.7523037e-01   1.2544441e-01   6.8259936e-01   7.6684677e-01  -3.2713673e-02  -7.2568834e-01  -1.7660615e-01  -1.6244999e-01  -3.0308587e-01  -5.1047849e-01  -8.5145470e-01  -3.4309458e-01   5.7787282e-01   3.7619652e-01  -1.2457338e-01  -4.6617604e-01   8.2838669e-01   6.8662692e-02   8.0712327e-01  -8.8351881e-01  -1.1759387e-02   7.5797231e-01  -1.8860691e-01   2.8034350e-01   7.1038497e-01   7.6041130e-01   9.9193306e-01   2.7733587e-01  -8.1711492e-01   1.6566013e-01   8.4140081e-01  -7.9932663e-01   4.5821273e-01  -6.9937404e-01  -3.7549974e-01   7.5866989e-01   3.2350449e-01   7.5302964e-01   7.3086532e-01  -4.7598533e-01   7.5096785e-01  -7.3334831e-01  -7.7932350e-01   2.7653587e-01  -4.5923547e-01   6.1105327e-01   4.7149645e-01  -1.4245707e-01   6.2699390e-01   5.1516908e-01   4.9279863e-01  -7.1968308e-01   2.1458147e-01  -6.4151752e-01   8.9076010e-01  -5.8430893e-01   1.1588069e-01  -8.2797716e-03   6.6503689e-01  -2.4412768e-01  -6.9705100e-01   9.8076655e-01   4.3862978e-01   8.3995536e-01  -6.8436744e-01  -3.1168854e-01  -4.7437952e-01  -6.5876666e-01  -4.7178839e-01   9.7738548e-01  -7.2086143e-01   7.8138707e-01   6.5872934e-01   7.9584925e-01  -8.1182963e-02  -4.9921946e-01   6.0339161e-01   3.2826147e-01   4.4105293e-01   3.6209523e-01   4.9474982e-01  -5.0716181e-01  -8.3711789e-01  -5.1225861e-02   1.6736524e-01   8.8268970e-01  -4.6320695e-01   1.3150089e-01   6.3285058e-01   2.9446139e-01  -8.6603659e-01  -4.3096552e-01  -4.3633843e-02   4.1025967e-01   5.0849039e-01  -4.4754241e-01  -4.9353656e-01   2.6696201e-01   8.5401440e-01   6.2107430e-01   8.2375374e-01  -6.4460796e-01  -5.0240770e-01   9.6666783e-01   4.7995725e-01   6.0692062e-01  -5.3837420e-01  -9.2759472e-01   3.4643359e-01   9.8338884e-01  -2.5522659e-01   8.2478258e-01  -3.2774843e-01  -5.9490729e-01  -8.8763587e-01  -7.6210645e-01   3.3881935e-01  -7.8045723e-01   8.2354200e-01  -3.2163626e-01   1.4318165e-01   6.9295580e-01  -4.4697353e-02   7.0340803e-01   1.4109224e-01  -2.5316695e-02  -8.1327070e-01  -3.2054365e-01  -5.6930895e-01  -5.7509658e-02  -9.5911534e-01   5.1448799e-01   7.8922692e-01   3.2056844e-01   6.0739136e-01  -4.9966830e-01   4.9278014e-01  -1.2003247e-01  -1.1865330e-01   3.5046221e-01   3.5170565e-01   6.5695737e-01  -1.1034782e-01  -9.8417472e-01   7.4627373e-01  -8.6766441e-01   4.1295640e-01   6.1732289e-01  -9.8503885e-01   3.4086233e-01   3.6101456e-01  -3.0540066e-01   3.6394202e-01  -2.4081842e-01  -4.0845762e-01  -8.5382539e-01   3.5617014e-01  -9.4667546e-01  -9.9392421e-01  -9.9713027e-01   3.9819848e-02   7.8936800e-01  -7.5867090e-03  -7.3827807e-01   5.8314229e-01  -9.3899915e-01   6.9115981e-01  -2.7632164e-01   7.9819461e-01   8.0210447e-01   2.9162251e-01   8.5745903e-01  -5.7475687e-01  -3.1106987e-01   3.8149466e-02  -5.0757681e-01  -3.0863389e-01  -4.7708632e-01   1.9918266e-01   2.0495894e-01  -1.2594851e-01  -2.4171688e-01  -4.3782725e-01  -3.5389021e-01   1.0059260e-01  -2.3873567e-01  -8.5017241e-01   9.7222450e-01  -6.4718055e-01  -7.2761992e-01  -2.8980881e-01   4.4356461e-01   5.5050042e-01   6.8950845e-01  -5.7510384e-01  -8.1874054e-01  -7.9067449e-01   3.2240470e-01  -9.8207706e-01  -3.9679367e-01   9.7722110e-01  -1.0779131e-01  -1.6110631e-01   9.1059562e-01   7.6174384e-01  -4.4947071e-01   1.1539344e-02   2.6701249e-01  -2.5413962e-01   3.8683992e-01  -4.7982723e-01  -1.7286530e-01  -7.7574004e-01  -3.3114835e-01  -5.1828352e-01   3.8679547e-01   2.4982674e-01  -3.5540438e-01  -8.9595438e-01  -6.5365653e-01  -3.6277077e-01  -9.2619907e-03  -1.5312314e-01   2.8189034e-01  -2.5745500e-01  -8.4674579e-01  -2.2368150e-01  -4.2597581e-01   1.6129849e-01  -1.6568224e-01   1.3081091e-01  -6.1266122e-01  -4.5395669e-01   6.2466487e-01  -8.1281114e-01  -8.3230449e-01   1.4535123e-01   2.6809092e-01   8.2846002e-01  -3.9153756e-01   3.4587141e-01   4.7099785e-01  -2.1708331e-01   1.3590472e-01  -7.2350083e-01  -8.2302087e-01  -9.7458873e-01  -3.1092558e-05   4.5668585e-01  -2.3956108e-02  -1.4877334e-03  -8.6560649e-02  -2.7005015e-01   3.7976210e-01  -8.3580967e-01   1.9889988e-02   3.7738328e-01  -4.2545681e-01   2.3200784e-01   1.0861348e-01   7.9754867e-01   7.6074159e-01   8.6089781e-01   8.6147413e-01   1.2176343e-01  -2.8718062e-01   9.1419300e-01  -6.3351379e-01  -5.0755034e-01   5.1267464e-01   6.9245667e-02   6.4618730e-01   7.3642732e-01   9.5475463e-01   3.7893873e-01   8.8307542e-01   9.1491971e-01   2.9492063e-02   4.1677827e-01   7.0394290e-01   6.2084592e-01  -5.8011293e-01   1.1092868e-01  -6.8345723e-01   9.2639999e-02   7.6452831e-01  -9.0787505e-01  -3.3558727e-01  -2.8917536e-01  -9.5916543e-01  -7.5547639e-01  -5.1965887e-01  -2.0354886e-01  -9.2578801e-01   5.2450174e-01  -3.8427941e-01   4.4065951e-01  -7.2168057e-01  -3.1487566e-01  -4.0108095e-01   9.3982366e-01   8.9453860e-02   3.0926053e-03   6.7040810e-01   7.6972924e-01  -2.7630282e-01   8.5518318e-01  -4.2414090e-01  -5.9104234e-02   8.0042177e-01   8.9816812e-01   6.4867555e-01   5.8587526e-01   4.7841877e-01  -9.9570188e-01   9.9188268e-01  -7.7019723e-01  -1.7021525e-01   1.0686708e-01  -2.7797560e-01   7.1072721e-01   3.1880230e-01   6.1210786e-01  -7.0770693e-03  -4.7907060e-02  -1.1025986e-01   9.5886866e-01   3.2238984e-01  -2.3681199e-01  -5.0637996e-01   7.4254709e-01  -2.5567420e-02  -8.8442011e-01   4.2008651e-01  -8.5079164e-01   7.8891421e-01  -6.1955923e-02  -3.1317355e-01   2.9376385e-01  -9.3210631e-01  -6.3811712e-02   5.8331675e-01  -3.9926297e-01   6.1366506e-01  -2.6977741e-01  -3.5760629e-01  -6.2484188e-01   7.4325761e-01   7.7458944e-01  -7.8921147e-01   7.1820847e-01  -1.8634902e-01   8.8046131e-01  -7.6961473e-01  -9.8412326e-01  -9.4790274e-01   1.7295734e-01   2.2247934e-01   2.7793483e-01  -1.5169930e-01   1.1260005e-01  -8.7077694e-01  -6.1396971e-01   8.6528299e-01   5.9728595e-01  -2.6842143e-01   5.0759650e-01  -4.1799250e-01  -9.0442187e-01   9.6185902e-01   3.9788897e-01  -4.7811447e-01   8.9876580e-02  -5.9777362e-01   7.0541235e-01  -7.4433934e-01   5.6692620e-01  -2.2169705e-01   6.2713887e-02  -1.0436977e-02   9.2795192e-01   4.8297745e-01  -9.1936821e-01   6.7569557e-01   3.1170532e-01  -4.2461269e-01  -7.4247658e-01  -3.3448761e-01   9.8799815e-01   3.2425030e-01   1.8706848e-01  -6.9026075e-01   5.0117648e-01   5.2367866e-01   6.0826723e-01  -4.1880812e-01   6.5491685e-01   4.2377768e-01   4.7951240e-01   5.2577082e-01  -6.4773480e-02  -7.9905677e-02   1.9212826e-01   7.4522723e-01  -2.6739529e-01  -6.4947794e-01   6.0545340e-01   5.0491567e-01   4.8553258e-01   4.3220118e-01  -3.7082333e-02  -8.2978553e-01  -8.0783158e-01   8.2276151e-01   5.5562006e-01   9.7971538e-01   3.9851055e-01   9.6931421e-01   9.2732472e-01  -5.4363220e-01  -1.0078118e-01  -6.8622300e-01  -8.7947021e-01  -4.4541369e-01  -3.6270376e-01   1.4294242e-01   2.5825723e-01   8.8004289e-01  -3.7185850e-01   3.9909740e-01   1.3036355e-01  -7.5607933e-01  -7.6811659e-02  -5.8874981e-01  -1.3045081e-01  -2.7908305e-01  -3.2306749e-01  -6.6899332e-02  -8.9644960e-01  -7.7660974e-02   2.2905473e-01   1.7451491e-01   8.7326413e-01   7.9132585e-01  -3.8224275e-01  -3.2437802e-01   6.7543712e-02  -8.6402323e-01   6.6957822e-01   8.6791238e-01  -4.4903329e-01  -7.0881702e-01  -6.3170669e-01  -3.1624556e-01   1.5349137e-01  -4.9365550e-02  -1.1509833e-01  -5.6997292e-01  -9.8128519e-01  -7.8604146e-01   1.1921983e-01   6.7888424e-01   9.0954421e-01   7.4599808e-01  -2.0567146e-01  -9.5898163e-01   3.0013737e-01   6.7762338e-01  -3.6164441e-01  -1.2168808e-01   3.5774114e-01   2.4132991e-02   1.5737243e-01  -5.0730327e-01  -1.2063480e-01   2.9273871e-01   9.7005542e-01  -1.4863605e-02  -3.8643305e-01  -6.1437255e-01  -7.2512105e-01  -6.6632762e-01   5.2030602e-01   5.8605522e-01  -3.4889161e-01   4.0564350e-01  -1.2198644e-01  -4.9826850e-01   1.8942421e-01   5.8686792e-01  -7.2152494e-01  -1.5274374e-01   5.1436981e-01   4.0507392e-01  -4.4405406e-01   7.3646048e-01   3.3820151e-02   6.0727286e-01  -5.5106552e-01   6.0815404e-01  -2.0791689e-01   1.2966333e-01   2.0235752e-01  -2.9917387e-01  -7.9328309e-02  -4.5239739e-01   3.2786371e-01   1.4860976e-02  -4.3634235e-01  -5.1866070e-01   6.4617486e-01   7.8569744e-01   9.6350423e-01  -7.2816781e-01  -4.0992544e-01  -6.0227546e-01   5.4856751e-01   5.7878203e-01  -1.5045144e-03  -8.0600550e-02   2.9507257e-01   5.6862568e-01  -5.9968190e-01  -5.1219434e-01  -9.6794862e-01   8.3469763e-01   1.0204253e-01   3.3608957e-01   2.1728777e-01   6.4098973e-01  -4.4517418e-01   9.1268228e-01  -8.4846194e-01  -9.0030753e-02  -2.9789670e-01  -6.4179326e-01  -1.7337236e-01   6.5504083e-01  -4.7316978e-01  -2.9721238e-01  -2.0495077e-01   9.6897342e-01  -5.7220574e-01  -4.4205532e-01   5.0799747e-01  -9.4730132e-01  -1.9046547e-02   2.7287549e-01   3.9602686e-02   3.0004691e-01   6.9701673e-01  -7.6163687e-02  -5.1863648e-01   9.9584171e-01   7.5036330e-01   9.4582017e-01   9.3980885e-01  -2.7084895e-01  -5.8371577e-01  -8.8403909e-01   1.6720780e-01  -8.7536430e-01   3.3477882e-01  -6.1888102e-01  -6.1028779e-01   4.0156417e-01  -7.4331691e-01   2.5290026e-01  -5.1600750e-02   7.2025351e-01   1.2319362e-01   4.9721047e-01  -5.6748537e-01  -6.0559140e-01  -3.6312989e-01   1.4499604e-01  -7.6727239e-01  -8.0699102e-02  -7.8012317e-01  -4.6692302e-01   4.9793440e-01   3.8600088e-01   5.9597516e-01   1.3187623e-01  -9.1180722e-01  -1.1418429e-01  -5.1758432e-01   4.8739708e-01  -2.8248916e-01  -1.8816070e-02  -2.6894331e-01   5.3215313e-01  -1.2738285e-02  -2.8216879e-01  -6.9452608e-01   7.3702069e-01   3.6357094e-01  -3.9890022e-01  -6.7390865e-01   2.9171807e-01  -7.6286449e-01  -1.2920495e-01  -3.2806875e-01  -5.5293739e-01  -3.4438231e-01   2.6396692e-02  -7.5353250e-01   3.5457958e-01   2.9859710e-02   1.0577739e-01   5.3235164e-01   7.5828199e-01   1.8568450e-01  -8.9520110e-01  -1.9985617e-01   7.0462763e-01  -5.8478053e-01  -1.1586095e-01  -1.8784673e-01  -4.4407322e-01  -6.9481440e-02   3.5643749e-01  -2.2365120e-01   3.2840197e-01  -6.1326377e-01  -7.4288927e-01  -4.5562512e-01   7.7086471e-01  -3.2371173e-01   8.4773440e-01   3.4230807e-01  -4.2622303e-01  -9.1155487e-01   2.3844541e-01  -7.6351134e-02   1.3196016e-01   7.3090094e-01   3.7448863e-01   3.7730869e-03  -3.2050336e-01   1.1271505e-01   1.7881368e-01  -9.6471824e-01   3.1259067e-01  -8.5177219e-01  -8.1018494e-01  -7.6881645e-01   6.7499143e-02  -3.3316400e-01   3.5500878e-01  -9.7759141e-01   1.4645933e-01   3.5608043e-01  -2.7520929e-01  -8.6852105e-01   4.4771198e-01   9.2312071e-01   8.8744629e-03  -8.0095188e-01   1.8359267e-02  -8.4402407e-02  -2.5020685e-01   9.7426905e-01  -4.7028192e-01   9.6402598e-01   3.7435673e-01   3.8886064e-01   4.2721543e-01  -6.4132868e-01  -6.3586277e-01   4.1291325e-01  -5.7023817e-01   4.3639839e-01   6.6583944e-01  -2.8753714e-01  -4.9509282e-01   6.2255644e-01   8.2257381e-01  -4.6306056e-01  -3.3971585e-01  -3.0378949e-01  -8.3334947e-01   7.2619013e-01   2.9475593e-01   8.8082407e-01   3.8939783e-01   7.4131188e-01   8.5788106e-01  -3.0178650e-01   8.6791400e-01  -8.4446343e-01  -3.2411774e-01   8.2820173e-01   8.3530136e-01  -2.7387846e-01  -2.8432742e-01  -9.8722844e-01   8.7628842e-01   3.9486384e-01  -8.0364119e-01   9.5869021e-01  -7.0334818e-01  -9.5280932e-01  -3.8607458e-01   1.1615260e-01  -2.7723852e-01  -6.0791067e-01   4.8506591e-02  -4.9646727e-01  -1.7634061e-02  -1.4134370e-01  -6.0443478e-01   3.1236264e-01  -1.0270138e-01   5.9476257e-01   7.7947012e-01  -2.0643618e-01  -9.8915936e-01  -5.1887327e-01  -4.9325488e-01   2.6587645e-01   6.3728603e-01  -4.3412984e-01   6.7416457e-01   4.1089840e-01   7.4054228e-01  -1.3456369e-01  -2.4283805e-01  -8.5861927e-01  -3.7368484e-01   1.2848958e-01   6.7218515e-01  -4.8075529e-01   3.0060103e-01   7.3005940e-01  -2.6436644e-01   2.5672274e-01   5.0567302e-02  -5.3406467e-01   5.7267711e-01  -2.9599859e-01  -9.7167085e-01  -1.1188816e-01  -6.6393133e-01  -1.4460108e-01  -6.3488824e-01  -6.0868074e-01
  -7.9501484e-01  -4.2863227e-02   1.2478060e-01   4.5656857e-01  -8.8268015e-01  -2.0281074e-01   7.9723145e-01  -5.9717963e-01   3.2919720e-01  -6.5867390e-01   9.5088007e-01  -8.1233120e-01  -2.5917729e-01   5.4912638e-02  -2.0831181e-01  -7.4481910e-01  -3.0944368e-01  -8.1968391e-02  -5.7279449e-01  -5.3003953e-01  -2.2502748e-01  -2.1112908e-01   2.5499599e-01  -2.7870588e-01  -3.8211253e-01   5.6979789e-01  -1.5882676e-01  -6.0086530e-01  -2.7166648e-01  -4.6353958e-01   9.8143601e-01   1.9334943e-01   2.1558203e-01  -9.3236813e-01   1.2181918e-01  -9.2890123e-01   7.3014615e-01  -4.4310420e-01  -6.1302277e-01  -5.4225785e-01  -5.3020969e-01  -2.6146360e-01  -4.7860280e-01   7.7504029e-01  -9.6607171e-01   5.9244969e-01  -4.3128227e-01   4.0684174e-01  -5.9558814e-01  -4.1020421e-01   8.9876445e-01  -8.5233971e-01  -5.5034029e-01  -2.9448135e-01   4.9834331e-01   1.7705630e-01   8.4769017e-01  -9.7905135e-01   4.5193823e-01  -8.9635129e-01  -2.7491839e-01  -1.3532538e-01  -7.9957496e-01   7.9856566e-01   2.2014115e-01  -8.0897119e-01   1.3782717e-01   3.8488857e-01  -1.2505344e-01  -9.8870982e-02  -5.6726599e-01  -1.7548393e-01   8.8336008e-01   6.4114671e-01   9.9072675e-01   6.4309684e-01  -2.4638423e-01  -1.0573229e-01   2.5498565e-01   8.5155945e-01  -4.6653996e-01  -9.6938270e-01   5.4646071e-01  -7.8258699e-01   7.5682944e-01  -5.0255998e-01   7.9237844e-01   2.7712481e-01  -3.1104907e-01  -2.6222141e-01  -4.3437664e-01   8.7998688e-01  -9.8597425e-01  -1.6012811e-01   6.3748430e-01   1.0401972e-01  -7.1429105e-01  -7.9807759e-01   2.9576053e-02   4.5549966e-01  -3.0623371e-01  -5.2164267e-02   7.4172643e-01   6.1196832e-01  -1.1495727e-01  -9.7817899e-01   4.2962862e-01  -1.4950169e-01  -7.5137193e-01  -6.9852992e-01   2.2957464e-01  -8.2855240e-01  -5.7630883e-01   2.9641733e-01  -5.9273449e-01   7.9167796e-01   5.1446856e-01  -6.6466793e-01  -6.2888193e-01   9.7539891e-01  -1.0909818e-01   9.7570262e-01   3.7422307e-02   9.2611847e-01   4.1137419e-03   1.6306847e-01   8.1468649e-01   7.1301770e-01  -1.5158445e-01   3.0106997e-01  -6.0569339e-01  -2.4400419e-01   1.8028370e-01   1.0220804e-01  -3.7597175e-01   1.4258392e-01  -3.3993819e-01  -7.9736294e-01  -1.7533027e-02  -6.4748363e-01   1.8077431e-01   3.7181814e-01  -7.2431459e-01  -4.3497714e-01  -1.1165901e-01  -2.3844491e-01   5.1279761e-02   9.0619015e-01   2.8188499e-01  -6.3084553e-01  -2.1051195e-01  -1.5253049e-01   5.0328859e-01  -8.8121422e-01  -3.0060793e-01   8.1319452e-01   5.5157897e-01  -4.7531890e-01  -6.4328975e-01   4.4673832e-01   5.9366208e-01  -9.3990604e-03  -1.9684472e-01  -2.1820075e-03  -2.8132143e-02   5.6013891e-01   7.0319567e-01  -4.3106867e-01   7.1788943e-02   7.4570633e-01   6.1897680e-01  -7.6633884e-01  -9.5230695e-01   5.3475898e-01  -6.7879099e-01  -5.3457487e-01   3.7331861e-01  -2.7187633e-01  -4.2744312e-01   8.6733313e-01  -2.8834408e-01   5.8827390e-01  -8.6478750e-01  -3.4600668e-01   6.6729294e-01  -6.0471165e-02   4.8462989e-01   7.0527658e-01   1.5966980e-01  -2.6813973e-02   9.6114425e-01   2.6641287e-01   2.9419340e-01   6.2118624e-01  -3.1175820e-01   3.5507089e-01  -5.0285472e-01  -4.0493752e-01   2.5472433e-01  -7.9207677e-01  -9.5931737e-01  -9.4636325e-01   5.6849171e-01  -7.7934561e-01  -4.9894399e-01   6.8851724e-01   4.8951408e-01  -4.0503642e-01  -6.2491549e-01   2.4090150e-02  -8.8926715e-01  -2.8889366e-01   8.9268672e-01   9.5274048e-01   7.9657143e-01   4.3651481e-01   3.6145012e-01   1.8582742e-01   2.3561133e-02  -5.6468008e-02  -9.7357980e-01   1.0090679e-01   8.4269489e-01  -2.4558706e-01  -2.9775807e-02   1.9741089e-01  -4.2009315e-01   5.9779265e-01  -3.1805317e-01  -9.6366336e-01  -8.3895968e-02   5.9626390e-01   9.6464439e-01   6.6006582e-02   6.0549724e-01  -3.7086614e-01  -2.8075513e-01  -3.6196129e-01   6.1518707e-01  -4.6898478e-01  -7.8728372e-01   7.9298490e-02   5.0608372e-01   9.7189263e-01  -7.7046804e-01   1.0378740e-01   9.8893624e-01   7.1077461e-01   1.4158470e-01  -5.0756364e-01   4.1516254e-01  -9.6896452e-01  -9.4490751e-01   4.1305175e-01   2.7639045e-01  -5.5066825e-01  -1.7698936e-01  -3.5244062e-01  -3.2295845e-01  -4.8655045e-02  -8.8034092e-01   8.9371780e-01  -7.1794026e-01   7.8760488e-01   4.0523692e-01   9.8154729e-01   6.7099369e-01   1.9599411e-01  -6.1016167e-02   8.9176954e-01   4.6473388e-01  -1.4628501e-01   8.9956152e-01  -2.0975671e-01  -5.0388953e-01   1.1619869e-01  -1.5564007e-01   5.1034229e-01  -4.0306200e-01  -5.3745243e-01  -7.4201086e-02  -6.3869468e-01   6.3324461e-03   9.8991649e-01  -1.0255631e-01  -5.0290188e-01  -2.2477333e-01   6.1045979e-01  -4.4861704e-01  -5.0489423e-01  -5.5100492e-01   1.0184695e-01   1.8761315e-01  -1.7246483e-01  -5.4642471e-01  -9.6007194e-01   3.6532231e-01   7.8363151e-01   7.4506477e-01   3.3153500e-02   9.6792596e-01  -8.4619457e-01   5.6594568e-01   4.7188635e-01   2.4284713e-01  -5.4440828e-01   6.0334433e-01   6.5363888e-01  -6.0464233e-01   9.3850686e-01   6.8442999e-01   2.7368995e-01   9.4810409e-01   8.0238311e-01   2.9595863e-01   6.2133621e-01   5.4285758e-01   3.4641347e-01   6.8519561e-01  -9.0467698e-01  -6.8524521e-01  -1.5124727e-01   8.9070305e-01   2.0728570e-01   2.9063555e-01  -2.8467177e-01   8.1308321e-01   2.7223533e-01  -1.3759918e-02   7.7645084e-01  -9.2176653e-01   7.3910843e-01   6.3385822e-01   3.4140057e-01  -9.7385867e-02   3.5645399e-01   4.4351192e-01  -4.8134598e-02  -2.5301834e-01  -8.8453673e-02   7.7808757e-01  -8.5729928e-01   6.3163057e-01   9.1550339e-01   9.9864668e-01   2.7604483e-01  -1.2900941e-01   7.6317107e-01  -8.1651896e-01   1.0549802e-01  -1.6062393e-01   7.1596038e-01   6.2322540e-01   9.5494955e-01  -4.1320734e-01   6.3708987e-01  -7.9780312e-01  -9.6857695e-02  -8.0530857e-01   2.2828568e-01  -4.6344179e-01   1.4789099e-01  -7.8878559e-01  -8.1906225e-01   3.4167617e-01  -3.0086491e-01  -6.6405878e-01  -7.3710862e-01   3.3799996e-01  -7.9437128e-01   1.2358945e-01  -3.9766888e-01  -8.3120054e-02  -6.9989001e-01   1.9289460e-01  -8.9542299e-01  -7.7718076e-01  -8.3299104e-01  -7.1322603e-02  -6.8843788e-01  -1.8941446e-01  -9.8530901e-01   6.0997977e-01  -9.8448539e-01   1.3182760e-01   3.9315387e-01   7.2571830e-01  -3.5650601e-01   7.1867587e-01   5.5303569e-01   5.1587500e-01   8.7195405e-01   5.5873578e-01   3.8332514e-01  -4.2305421e-01   5.1506095e-01   5.1103960e-02   8.8788088e-01   2.7150532e-04   2.6380269e-01   3.4911642e-01   6.0212032e-01  -2.6506747e-01  -6.4031646e-01  -8.4650861e-01   5.9004296e-01  -6.9546657e-01   5.2363414e-01   2.4415041e-01  -2.2918254e-01  -5.9394488e-01  -7.7456726e-01  -5.6499753e-01   9.0400157e-01  -6.7578170e-01  -4.0198973e-01  -2.0900009e-01   3.1677660e-01  -2.1731006e-01  -8.3929670e-02   1.6862918e-01   7.1085996e-02   6.3066924e-01   9.6263463e-01   1.9013959e-02   8.4724451e-01   6.5890222e-01  -1.9760387e-01  -8.8378891e-01   4.2158660e-01  -3.6612987e-01   5.2930547e-01  -3.6352258e-01  -4.5953512e-02   9.9817022e-01   5.5051178e-01   4.1369156e-01   8.4506935e-01  -4.4527133e-01   1.8201288e-01  -2.4439677e-01   7.2000747e-01  -6.7489804e-01  -6.4316405e-01  -7.0921770e-01   4.9786529e-01  -7.3921086e-01   1.6684229e-01   1.9447803e-01   3.3523500e-01  -5.4069092e-01   3.5296526e-01  -8.6676154e-01   6.1437852e-01  -9.8968650e-01  -9.6900088e-01  -7.0407470e-02   4.1848871e-01  -1.6174341e-01  -4.4703784e-01  -8.9413768e-01  -8.4998562e-01  -3.7978451e-01  -8.8899900e-01   6.3856311e-01   3.4014482e-01   2.1406965e-01   8.1149922e-01  -4.4809355e-01   9.6811356e-01   1.2192169e-01   6.5035367e-01   4.7168659e-01   2.7019703e-01   1.7578265e-01  -3.2696163e-01  -9.9318359e-01   9.2041580e-01   8.6695551e-01  -8.1547541e-02   2.6345861e-01  -3.2979726e-01  -8.9042946e-01   5.8223969e-01  -3.0679012e-01   2.2001315e-01   3.4770112e-01  -5.1131396e-01   4.2755196e-01  -3.1984705e-01   5.0678534e-01   3.2898051e-01   8.6670812e-01   9.7292655e-01  -5.3843453e-01  -7.5180854e-01   9.5782519e-01  -1.7141486e-01  -9.1309132e-01   1.6854303e-01  -4.4478273e-01  -3.4015267e-01   4.6329878e-01   3.6939804e-01   2.9120367e-01   4.4249365e-01  -4.9305692e-01   9.6019208e-01  -2.7303271e-01   2.6611592e-01   1.0389456e-01   7.7126866e-01   2.0108781e-01  -6.6768841e-01  -1.7305132e-01  -6.6955059e-01  -5.4248537e-01  -1.2086295e-01   5.9684926e-01   2.8684681e-01  -2.0151234e-02  -3.0150637e-01  -2.6745793e-01  -9.6099670e-01  -6.7121085e-01  -6.7324517e-01  -9.1777035e-01  -5.6041848e-01   1.7815697e-02   7.0764973e-01  -6.6361524e-01  -4.7802935e-01   6.6089453e-01   8.9555252e-01  -9.4297394e-01   7.1368388e-01  -1.6513445e-01  -4.0454490e-01   8.5729581e-01  -1.4536641e-01   1.6728339e-01   7.6721207e-01  -7.8679081e-01  -9.7915176e-01  -1.0187311e-01  -4.6151376e-01   3.5204653e-01  -6.9891531e-01   3.7211779e-01  -8.5388516e-01  -5.6610830e-01   2.6537238e-01  -3.2745036e-01   7.8288568e-01   6.5837183e-01   1.0398080e-01   2.7777907e-01   6.2077974e-01  -3.7405984e-01  -7.5792685e-01   2.0773213e-01  -6.0099850e-01   9.3227567e-02   2.3200991e-01  -2.7334275e-01   9.8870000e-01   6.7944971e-01   4.6490936e-01   6.0798281e-01  -3.0456001e-01   4.7068047e-01  -8.3489242e-01  -3.7909776e-01  -1.3724378e-01  -6.3103361e-02  -5.0564007e-01   2.8204376e-01  -5.2052289e-01  -9.0451304e-01  -3.5168074e-03   7.6341995e-01  -2.3527438e-01   7.1735061e-01   5.2475624e-01   2.6944122e-01   4.5906428e-01  -8.7851555e-02  -6.3272601e-01   2.1185102e-02  -3.1206333e-01   8.2443900e-01   3.2742271e-02   4.9407352e-01  -7.4303937e-01  -5.0637269e-01  -3.9583022e-01  -4.3098134e-01   1.3431762e-01  -5.8914811e-01   7.9568692e-01  -9.4914028e-02  -7.5487818e-01  -8.8516686e-01   3.2555583e-01   1.4222192e-01  -2.3706101e-01  -5.1297608e-01   5.4234909e-01   1.6948932e-01  -5.8387240e-01  -7.6610004e-01  -8.7939247e-01  -5.9126423e-01  -3.6854437e-01   6.8521687e-01  -6.7310063e-01   9.0111995e-01   4.3881581e-01   6.8436907e-01  -3.4894158e-02   1.3953978e-01  -7.2740659e-01   2.9565768e-01   6.0661830e-01   8.9259219e-01  -4.2693893e-01  -2.9131188e-01  -5.3284707e-01  -3.7097422e-01  -1.2070768e-01   1.8212307e-01   3.9015495e-01  -6.6643913e-01   9.0821088e-01   9.7556293e-01  -9.7846251e-01  -4.7361775e-02  -8.8871228e-01   8.3090525e-01  -4.2815516e-01   1.5571144e-01  -9.4261355e-01  -7.9251827e-01  -5.5899293e-01  -3.2131107e-01   3.3280623e-01   7.8509416e-01   1.4665501e-01  -1.5464215e-01  -7.4111365e-01  -3.4600611e-01  -5.8444620e-01   7.3706344e-01   5.6063726e-01  -7.3056509e-01   4.0358498e-01   4.3301218e-01   1.6763739e-01  -4.4409448e-01   1.5130639e-02   6.4965383e-01  -5.7730740e-01  -2.3257391e-01   1.4010856e-01  -4.9230574e-01   2.4003287e-01   8.1783823e-01  -3.4212890e-01   5.7235753e-01  -8.0492568e-01  -4.5148143e-01   1.5813600e-01  -8.9471333e-01   8.1553082e-01  -4.7150163e-01  -6.9846788e-01  -7.4820015e-01  -2.6123988e-01   8.4992415e-01   7.7361278e-01   9.9984153e-01  -4.8282184e-01  -5.1567034e-01  -2.9903202e-01   5.2791284e-01  -4.4177239e-01  -5.4752678e-01  -5.9535696e-01  -8.6902037e-01   1.1512483e-01   3.4674833e-01   5.2003144e-01   7.2771122e-01   4.5528028e-01   7.6829975e-01   7.4602565e-01   3.7587939e-01   2.0896645e-01   8.1716316e-01   3.2824075e-01   7.4194656e-01   6.0326043e-01  -3.1177797e-01  -8.3866828e-01  -6.2731078e-01   3.9399891e-01   3.7555490e-01   8.0569444e-01  -7.9217664e-01   4.6888813e-01   6.0255273e-01  -9.8541935e-01  -9.0914026e-01   6.2324421e-01  -7.6115846e-01   1.1009726e-01  -4.3395990e-01   7.9997938e-01  -6.3828064e-01  -8.4775215e-01   1.2772519e-01  -2.6103257e-01  -4.1735566e-01  -7.3050196e-01  -2.3186293e-01  -4.6318803e-01   4.5187338e-01   7.7165731e-01   3.5008843e-01  -8.3184164e-01   8.3224650e-01  -5.6191845e-01   3.0662089e-01   9.8872403e-01   2.0561611e-01  -2.8769781e-01   5.4116323e-01   4.5853938e-01   4.2088578e-01  -9.4471892e-02   4.8242914e-01  -8.4815607e-01  -6.7703518e-01   2.5101286e-01   7.2217729e-01   4.4360057e-01   2.8356999e-01  -8.0862604e-01  -9.4181130e-02   5.7530683e-01   8.7415728e-01  -3.7022682e-01  -5.3812281e-01   6.9426368e-01   1.2960742e-01  -3.7670499e-01  -2.3216914e-03   1.3159685e-01   3.6066807e-01  -9.6308034e-01  -2.0722121e-01   2.2101039e-01   1.8757425e-01   9.2172346e-01  -1.8805090e-01  -7.0445297e-01   8.8412328e-01  -8.7699902e-01   2.4524909e-01   1.1890612e-01  -8.2463025e-01  -9.7905757e-01  -1.2632817e-01   7.5835587e-01  -6.5193927e-01  -2.1549389e-01  -2.9762453e-01   7.5153216e-02   8.0403071e-01   9.9030829e-01  -9.5022935e-01   8.7978393e-01   5.3640554e-01   2.9494790e-02   8.3480728e-01   4.2212313e-01   2.7762275e-01  -2.4798755e-01   4.4051566e-01   5.3960492e-01   7.5574735e-01   7.0215182e-02   8.9763779e-01   2.4227378e-01   2.6489437e-01   9.6956094e-01  -9.3425334e-01   2.6608039e-02  -3.0050229e-01   6.0552082e-01   6.3728474e-01  -2.0738395e-01   9.5808424e-01  -4.9017859e-01  -6.7688564e-01   2.3833092e-01  -3.0593859e-01  -2.6578690e-01   3.7875528e-01  -8.9217636e-01  -5.6488056e-01  -7.5123646e-02   5.8908180e-01  -9.4134673e-01   7.1498897e-01   4.2490755e-01  -9.3976414e-01  -8.5164086e-01   8.3910935e-01  -8.6286683e-03   8.9183438e-01  -6.7097268e-01   4.5427083e-01   2.6573278e-02  -7.4798377e-01  -1.6309991e-02   3.9600996e-01   6.3881429e-01  -5.6559792e-01  -7.9665429e-03  -8.9236908e-02   7.9432257e-01   7.1276363e-01   9.7539019e-01  -5.4285858e-01  -9.6752597e-01  -7.5380309e-01  -3.4117098e-01   5.4173455e-01  -6.1197180e-01   9.1762066e-01   4.7115999e-01   6.0521537e-02  -8.3759476e-01  -9.4036636e-01  -3.9519019e-01   5.1606470e-01  -1.3977418e-01  -8.6567824e-01  -4.9803842e-01  -3.6266148e-01  -7.0735986e-02   7.7211387e-01  -8.8913638e-01  -5.4786141e-02   2.9758902e-02  -4.2341738e-01  -7.8776507e-01   9.0600731e-01  -2.7640644e-01  -4.8511608e-01  -4.7337823e-01   4.0452901e-01   6.0281383e-02   3.0592037e-01  -6.2109851e-01  -9.7994577e-01   2.2333013e-01   5.0029121e-01   2.8129790e-01   6.1608410e-01   5.5921550e-01  -3.1242516e-01  -8.2574531e-01   7.8239815e-01   4.6308563e-01   3.3366991e-01  -9.9603346e-01  -7.2687599e-01   8.4796720e-01  -1.5255670e-01  -8.8160571e-01   2.0094690e-01  -1.8507266e-02   7.3157368e-01  -2.1096083e-01   3.8115136e-01   1.8516732e-01   5.9223369e-01   9.1098425e-01  -3.8730942e-01  -1.4078258e-01  -1.2619778e-01   7.8898120e-01   4.0588040e-01   4.4451369e-01  -2.9531879e-02  -4.1354432e-01   6.1788729e-01   3.5981604e-01   3.3110726e-02  -1.9093911e-01   7.2861720e-01   7.0915863e-01  -6.9157630e-01  -3.2947613e-01  -9.1109361e-01   2.6489916e-01   1.9213711e-01   5.8685259e-01   7.6668987e-01   2.7661643e-01   5.9639496e-01   2.6900872e-01  -8.8671214e-01   3.3079267e-01  -5.1110553e-01   9.8329697e-01  -4.3638289e-01  -2.4251490e-01   1.2025646e-01  -2.9491738e-01   8.4074036e-01  -5.1371165e-01  -8.3633164e-01  -6.8927931e-01   3.4479101e-02  -1.2912117e-02   5.6249862e-01   9.4269690e-01  -7.3970024e-01  -1.5091290e-01   1.9022615e-01  -1.1836385e-01  -6.8173181e-01   6.3145155e-01   4.7382455e-01  -7.7164065e-01  -4.9334673e-01  -9.0569161e-02   8.0870880e-01  -6.8395407e-01  -4.4703980e-01  -1.5917645e-01   9.1275759e-01  -7.2233950e-01   4.4263623e-01  -1.6181555e-01  -2.0659226e-02   8.0615548e-01   3.9350533e-01  -3.9368428e-01  -2.0018471e-01  -9.7643121e-01   7.7292022e-01   5.2772478e-01  -6.2342540e-01   6.9212095e-01  -9.4144714e-01  -6.6159983e-01  -4.4980161e-01   7.1186001e-01  -3.1287378e-01  -6.7939067e-01   6.7232250e-01   8.6233650e-01  -9.2127411e-01   5.5799513e-01   3.5844945e-01   2.3054870e-01  -9.9783639e-01   6.7420246e-01   5.7363821e-01   5.1462625e-01  -2.5640749e-01   1.1970868e-01   9.5978580e-01   5.2044135e-01   5.5110292e-01  -1.2628157e-02   7.2122929e-01  -7.2249800e-01  -9.2979220e-01   4.5368895e-01  -3.5176225e-01  -5.9569171e-01  -1.5993559e-01  -5.9938805e-02  -2.2759547e-01   2.0526311e-01   1.4069671e-01  -1.3488619e-01   6.5940544e-01   7.2959623e-01   1.0680095e-01  -2.1529830e-01   1.6111230e-01  -8.9231277e-01  -6.6611092e-01  -8.1218265e-01
