   5.9784773e-01  -9.9474541e-01  -7.3434467e-01   4.5313269e-01  -5.7219301e-02   9.3076844e-01  -6.6781908e-01   6.4805226e-01  -6.3700932e-01   5.8038230e-01   2.7181713e-01  -4.8017138e-01  -1.5658924e-02   3.0930787e-01   6.1407420e-01  -7.6200128e-01   8.8402474e-01   4.4190451e-01   6.5837324e-01   1.7290780e-01  -9.3068087e-01  -7.2293553e-01  -1.4584247e-03  -9.3824658e-02   4.7393199e-01  -9.6902970e-01   5.2472331e-01   6.5072833e-02   5.8633038e-01  -8.1246430e-01  -9.6356139e-01  -9.4426213e-01   5.3271931e-01   4.1417615e-01  -6.1572727e-02  -1.7309905e-01  -3.2515035e-01   8.8134357e-01  -9.5910888e-01   7.6768231e-01  -2.5551562e-01   3.0704960e-02   1.8065997e-01  -6.9680699e-02   5.5968016e-01   1.1322669e-01  -4.3642566e-01   5.0475653e-01   1.9726465e-04   7.2665236e-01  -2.2480357e-01   1.6024878e-01  -9.9498449e-01   6.2101724e-01  -1.0853404e-01  -6.7345575e-02  -7.3550095e-01   3.2739208e-01  -3.9122507e-01  -3.0408605e-02  -4.7975271e-01   1.0665523e-02   2.1151560e-01   6.7248776e-01   5.3411115e-01  -5.7233024e-01   8.5039573e-01   2.6876685e-01  -1.7559448e-01   3.1359798e-01  -9.3443438e-01   4.1424431e-01  -5.4412716e-01   2.4049952e-01   3.9469433e-01  -1.3741479e-01  -6.2262185e-02  -6.5261513e-01   2.0866596e-01  -5.8626397e-01  -3.6574963e-01  -2.1680561e-01   6.1536177e-01   1.8839950e-01   9.0119676e-02   4.9539104e-01  -8.6630459e-01  -9.1170949e-01   3.7673402e-01   5.5467513e-01  -4.2188082e-01  -1.2281717e-01   2.0697200e-01   9.9293257e-01   9.8222892e-01  -1.9942385e-01   3.1426181e-01   7.2857598e-01   2.7128442e-01  -2.7254150e-01  -8.2107856e-01   8.9361342e-01  -7.3845019e-01   3.0759813e-01   1.4966310e-01  -6.3913185e-01   5.9130183e-01  -8.9166736e-01  -3.7627875e-01   6.8416189e-01  -7.7957885e-01   5.3294884e-01   8.8420937e-01  -4.4785312e-01   6.4864863e-02  -6.5231410e-01   7.4402232e-01   1.7371254e-01  -5.9952499e-01  -1.1197398e-01   6.4320536e-01   4.8432433e-01  -7.6521972e-01  -4.6246155e-01   2.1335443e-01  -2.0866451e-01   2.6056569e-01  -2.9170043e-01   9.9308640e-01  -4.7150842e-01  -1.5601378e-01   7.5800371e-01  -7.2021190e-01  -3.1931991e-02   7.0412840e-01   2.9843482e-01   7.1339976e-01   3.4822711e-01   3.0648373e-01  -3.8424373e-01  -6.0026375e-01  -2.1179253e-01   6.3885664e-01  -1.7917778e-01   2.0902662e-01   8.3655727e-01   3.0241729e-01   9.4013555e-01  -3.6473767e-01  -8.5092547e-01  -1.4741053e-01  -1.7788713e-01   6.9777956e-01   1.1488059e-01  -4.6558844e-01   2.7476193e-01   5.2967652e-02  -9.2465210e-01  -4.9319250e-01  -2.9361691e-01  -2.3874269e-01  -9.2934518e-01  -6.1598276e-01   6.0576396e-02  -9.0566629e-01  -1.5364472e-01   5.9683787e-01   5.7513685e-01   4.4285659e-01   3.7653662e-01  -2.5265700e-01   8.0401189e-01  -2.7260209e-01  -2.3843545e-01  -4.1964370e-01   1.8719665e-01  -1.7034547e-01   5.3225096e-01  -9.4553524e-01  -4.7000408e-01  -8.2900389e-01  -2.8070682e-01   8.2565130e-01  -7.6455838e-01  -2.9129476e-01  -3.7024566e-01  -5.0846457e-01   4.4196402e-01  -1.2104079e-01  -8.2763724e-01  -4.2926341e-02  -6.5587600e-01   1.3732827e-01  -5.1605209e-01   2.1598700e-01   4.7785365e-01   9.7553057e-01  -1.5225321e-01   2.2983930e-01  -7.0016493e-01  -1.3479681e-01  -9.1377333e-01  -4.0360696e-01   1.7731838e-01   2.8540927e-01  -8.3901963e-01   7.4438496e-02   9.8494417e-01   9.5539580e-01  -9.6883088e-02   4.2854836e-01   8.9450101e-01   5.5747112e-01   6.1982938e-01   4.5914306e-01   7.0046505e-01  -8.2751748e-01  -5.9465878e-01  -3.4505853e-01   7.6731923e-01   6.2160298e-02  -7.9390916e-01  -7.9660474e-01  -1.7155787e-01   9.1485294e-01  -3.2069757e-01  -6.9234489e-01   8.7470131e-01  -8.5688901e-02  -8.2826246e-01  -8.7638587e-01   4.2299717e-01  -1.1827222e-01  -1.3485637e-01   2.8915684e-01  -5.5652153e-01  -6.6075440e-01   9.1946239e-01   4.0821149e-01   3.4572413e-01  -7.4735777e-01   3.1588862e-01  -6.0196259e-01  -4.6293902e-01   8.6083069e-01   2.2234837e-01  -1.3987050e-01  -5.9743217e-01  -3.3911747e-01   1.5487197e-01   7.7550627e-01  -6.3428803e-01   3.3243353e-01  -7.2480370e-01  -8.2481519e-01  -6.3339591e-01  -4.9838477e-01  -9.0472409e-01  -2.7063490e-01   8.3354574e-01   2.5604203e-01   2.0559594e-01   7.2583762e-01   9.6143269e-01   3.7604893e-01  -6.6341921e-01  -9.1312688e-01  -5.8785286e-02   7.0248333e-01  -4.7162200e-01  -4.7013412e-02   5.1545763e-01  -6.4439531e-01  -1.7067343e-01   7.7768710e-01  -8.2481730e-01   4.7499372e-01  -9.2317872e-01  -5.7369473e-01   6.0266489e-01  -7.8483865e-02   6.7068799e-01   7.6276667e-01  -4.5124840e-01  -2.8103530e-01   1.6818713e-01  -7.1812765e-02   9.9905387e-02  -1.6256237e-01   7.3234146e-01   3.7135443e-01   6.2895716e-01  -1.4760448e-01   8.7291922e-01   6.5728373e-01   2.9945578e-01  -1.3315195e-01   5.9977419e-01   7.2733758e-01   2.6164758e-01   3.3636184e-01   1.7563188e-01  -1.9443706e-01   7.6360588e-01   2.0452401e-01  -8.6551209e-01   6.9521819e-01  -7.4523007e-01   8.9840433e-01  -9.5565678e-01   3.2235430e-01   3.2590457e-02   8.3163133e-01  -3.0497595e-02  -3.3530251e-01   5.5196635e-01  -7.7265618e-01   2.1202165e-01   2.9587872e-01   3.2692277e-02  -7.0534595e-01   9.5205217e-01  -4.8537500e-01   7.8951145e-01  -5.4145453e-01   2.3915603e-01  -7.8967610e-02   7.1619268e-01  -5.0526103e-01  -9.5001452e-01  -9.0752052e-01  -9.5874303e-01   2.0944275e-01   2.1001976e-01   3.6242531e-01   5.3762661e-01  -6.7359990e-01   7.8199627e-01   4.2365784e-02  -3.6810574e-01  -9.7624451e-01  -1.1849831e-01   2.2674579e-01  -2.6209479e-01  -7.8860715e-01   9.3816787e-01  -9.8485070e-01  -3.9294236e-01  -8.8030053e-01   8.5237035e-01   5.8092855e-01  -8.7444684e-02   4.6207098e-01  -9.4716424e-01  -7.8289841e-01   2.8116935e-01  -7.9973895e-01   7.1267914e-01  -1.4373352e-01  -3.2865631e-01   6.6155532e-01  -8.1100186e-02  -7.6043954e-01   1.8977840e-01   7.1411616e-02  -2.6507957e-01  -5.7527078e-01   9.1373957e-01  -7.5220846e-01  -1.0622553e-01   9.2446360e-02   9.1987917e-01  -4.8573073e-01  -8.4636662e-01  -2.9601978e-01   6.9787444e-01   7.3021305e-02   6.2244275e-01  -2.8679026e-01  -8.3530549e-01   8.7832097e-01  -6.3045941e-01   7.2000489e-01  -7.6519946e-01   6.2781799e-02   1.4139304e-01   6.1482807e-01   6.8861477e-01   7.0071226e-01   3.7869685e-01  -2.6831429e-01  -3.3309655e-01  -2.9592787e-01  -5.2287656e-01   9.9261909e-01   9.7042792e-01  -5.6885886e-02   2.6627692e-01  -1.4378373e-01  -8.5399942e-01  -8.5775295e-01  -2.7291100e-01   7.2228959e-01  -9.6864947e-02  -9.2850045e-02  -7.1890301e-01  -7.2409261e-01   7.6293404e-01   3.0083352e-02  -7.6373462e-01  -7.7651751e-01   6.6339788e-02  -1.0156027e-01   3.2980915e-01   7.2896510e-01  -6.7708141e-01   7.0614461e-01  -4.6592253e-01   4.4180335e-01  -4.1591024e-01   9.2480095e-01  -5.5585885e-01  -7.9553235e-01   6.8155515e-01  -1.2013363e-01  -3.8892289e-01   2.8038774e-01   4.0051123e-01   4.1088704e-01   4.0368111e-02   6.4487789e-01  -1.6486821e-01   9.7143383e-01   7.8389665e-01   1.6388557e-01  -3.5829680e-01   2.9486419e-01  -9.6982130e-01   6.5869009e-01   4.9060296e-01   5.1161466e-01   3.6347968e-01  -3.4752158e-01  -4.9664342e-01  -4.2268614e-01   2.9589780e-01  -3.7074782e-01  -3.6831249e-01   2.1315797e-02  -7.2339123e-02  -9.4209478e-01   2.9071230e-01  -7.9512130e-03  -9.0157512e-01  -6.4189786e-01   4.9777757e-01   6.2543430e-01   6.5146882e-01  -2.6461946e-03  -7.2710875e-01   4.8153929e-01  -5.2969082e-01   3.6624970e-01  -1.0375223e-01   7.7825387e-02  -5.5583411e-01   1.4483543e-01   4.8666372e-01   5.8116084e-01   4.9363218e-01  -5.5475043e-01  -6.1559273e-01   7.3467035e-04  -3.2200815e-01  -5.7458715e-01  -3.6212512e-01  -3.5121333e-01  -4.1530371e-01  -1.3434586e-01   8.3092244e-01   7.3939420e-01  -9.3444566e-01  -7.0235097e-02  -3.1660397e-01   4.6213499e-01  -9.7493084e-01  -9.5617879e-01  -2.6228451e-01   6.6671687e-01   2.8585717e-01   3.9143492e-01   4.6808786e-01  -4.1662421e-01   6.8021727e-01  -3.1805531e-01   6.9461927e-02  -2.3826299e-01   3.7210050e-01   3.4163831e-01   1.0445336e-03  -3.3275080e-01   8.9215543e-01  -7.8425321e-01   7.1097339e-01  -3.4868451e-01  -4.6297496e-01  -1.9517283e-01   3.5968548e-01   4.4396549e-01   7.8725609e-01   3.5423258e-01  -1.1090927e-01   3.6257611e-01  -7.5309995e-01   6.9213836e-01   6.6244181e-01  -1.5686486e-01  -4.5184887e-01  -9.7148366e-01   2.0201683e-01   4.8371522e-01  -4.1011255e-02  -2.9061670e-01  -5.1035519e-01  -7.0228115e-01  -4.7790725e-01  -5.4151810e-01   5.5179410e-01   6.5523841e-01   9.4345948e-01  -3.1423424e-01  -8.0352185e-01   9.7065586e-01  -3.3792060e-01  -9.2398047e-01   1.4525276e-01  -2.3713760e-01  -5.9995023e-01   8.1972664e-01   2.1421427e-01   8.4089103e-01  -2.7223921e-01  -5.3830710e-01  -8.3316412e-01   7.8745521e-01   7.8274100e-01   9.5700588e-01  -1.0561255e-02   3.9772162e-01  -3.6385830e-01   7.8293965e-01   8.0995681e-01  -3.8176384e-01  -1.6508405e-01  -8.6950036e-01  -5.0789882e-01   8.7553732e-01  -2.2485020e-01  -4.9175460e-01   3.0550282e-01  -4.4432525e-01  -6.9353925e-01  -3.2850897e-01   4.6113509e-01  -8.2176156e-01   5.0378728e-01   5.6789179e-01  -7.2829702e-01  -1.2923115e-01  -5.1333392e-01  -5.6799794e-01   8.5307775e-01  -8.4070099e-01   3.1180904e-01   3.9129707e-01   2.2130377e-01   6.3978297e-01  -8.6352902e-01  -8.3148361e-01  -9.2592199e-01   7.3605642e-01   1.2833941e-02   1.7284652e-01  -7.5903197e-01  -9.5496970e-02   1.2926616e-01   3.0589639e-01   2.5012247e-01  -6.5875920e-01  -7.4825475e-01   1.0188687e-02  -2.1519318e-01   8.0427011e-01  -6.7451081e-01  -8.4903265e-01   4.0227539e-01   5.5603923e-01   2.3984520e-01   4.8370815e-01   5.4992284e-01  -2.3667160e-01  -3.6805586e-01  -7.4850043e-01  -3.1817292e-01   3.4651042e-01  -6.8106149e-01  -3.7430306e-01   6.2505179e-01  -4.1133842e-02  -5.8364525e-01  -9.7302532e-01  -5.2851461e-02  -7.8782923e-01   5.5902816e-01   3.5452751e-02   5.1038594e-02  -6.2275837e-01  -6.4442124e-01   1.8285068e-01  -6.9639652e-01  -9.9023058e-01  -6.5898843e-01   6.1347699e-01  -6.2529015e-01  -5.0364939e-01  -9.4340275e-01   7.0174671e-01   5.0799821e-01  -4.6314008e-01   3.2916591e-01  -5.9022678e-01  -7.4799550e-01  -3.0825698e-01   7.8333231e-01  -5.8675963e-01   8.4836342e-01  -7.7491368e-01  -4.3293867e-01   3.3476208e-01  -8.5579944e-01  -9.2198958e-02  -3.8365525e-01   2.7160532e-01   9.3237012e-01   1.2060966e-01   2.5414823e-02   8.5340065e-01  -3.3683272e-01  -7.2544220e-01  -7.3179094e-01  -9.5615937e-01  -7.2009236e-01   1.1699395e-01   9.3578826e-01  -2.1668129e-01  -7.2799482e-01   5.5073358e-01  -2.7400458e-01   1.8896762e-01   7.6688554e-02  -6.8360296e-01   3.7345978e-01   6.4228463e-01  -2.0428676e-01  -3.3036844e-01  -2.2744304e-01  -1.2927226e-01   2.4052017e-02  -4.6219802e-01  -9.6244262e-01   3.9267656e-02  -5.3392136e-01   1.1249841e-01  -2.0319731e-01   8.8256879e-01  -2.7719621e-01   3.1946241e-01   8.9222424e-01  -8.4734676e-01  -1.5541497e-02   1.8610843e-01   9.3301289e-01   6.9773396e-01  -3.1890563e-01  -1.6708438e-01   1.0774493e-01  -9.0176852e-01   6.7654694e-02  -9.0609945e-01  -5.8971284e-01   4.3110314e-01   1.6664098e-01   6.3757852e-01  -3.0280280e-01   2.4735248e-02   6.3379409e-01  -1.0201787e-01   4.0186617e-01  -3.6692761e-01  -9.5187302e-01   7.9583104e-01   9.2374243e-01  -2.9855347e-01  -8.2966255e-03  -4.7853213e-01  -9.1460979e-01   5.7614079e-01   8.1952652e-01  -1.4491510e-01  -1.9868213e-04   1.3339090e-01   2.9110297e-01  -2.4847065e-01   8.2751115e-01  -1.8009737e-01   7.9954290e-01  -7.4015495e-01  -1.4000374e-01  -8.2020861e-01   6.8944113e-01   3.2542923e-01   8.9225862e-01   6.8732280e-01  -3.2101517e-01   3.6285622e-01   9.8961846e-01  -4.9438309e-01  -7.5974570e-02   2.0100606e-01  -5.8280542e-01  -1.9354357e-01   8.2521680e-01  -6.5218020e-01  -8.7195069e-01  -6.5719134e-01   6.0256644e-01   8.3069338e-01   9.8509970e-01  -6.8965780e-01   9.6227964e-01   2.4576104e-01  -2.7515513e-01   1.0286753e-01  -1.3232791e-01   1.3147611e-01  -5.0586738e-01   1.4006525e-01   8.2236922e-01   1.2905321e-01   1.5534039e-01  -8.7348625e-01  -8.6419045e-01   3.5190987e-01  -2.6579649e-01  -9.7192790e-01   5.3733075e-01  -5.9817964e-01  -7.6804165e-02   3.0993877e-01  -3.7174992e-01  -2.8142679e-01   6.4450173e-01   4.5720480e-01   9.4149465e-01  -5.7641686e-02  -6.9337755e-01   8.0709904e-02  -7.7810669e-01   4.8026257e-01  -1.7444669e-01   4.2502966e-01  -4.0257560e-01  -5.2828704e-01  -3.1555513e-01  -3.6230161e-02  -1.2827969e-01   7.2847433e-01  -9.4961231e-02   2.2002137e-01   6.7739893e-01  -1.5652655e-02   3.7037696e-01   9.2023360e-01  -2.7468841e-01  -7.2269216e-01  -8.4974834e-01  -4.1187632e-01   9.9594085e-01  -8.8487995e-01  -5.6451526e-01   8.1027218e-01   3.0389593e-01   6.6128779e-01   4.0271908e-01  -2.9746685e-01  -6.0236275e-01  -4.8118651e-01  -7.2523145e-01   5.0038747e-01  -3.4487253e-01  -2.8458862e-01  -1.9179427e-01   3.2508187e-01   3.1622246e-01  -1.0674260e-01   4.9992946e-01  -8.2768233e-01  -2.7352823e-01   8.5537567e-01   6.4073093e-01   3.6957250e-01   8.2102423e-02  -7.8737614e-01  -1.9244685e-01  -3.9036840e-01   1.7504317e-02  -1.6062392e-01   2.6098018e-01  -1.5083788e-01  -6.3294992e-01   5.4113655e-01  -3.6833336e-01   3.9887958e-01  -5.2618862e-01   6.0523120e-01  -1.2779536e-01   9.4643795e-02  -5.7089521e-01  -5.1759271e-01  -9.4733543e-01  -3.8641669e-01  -4.6521523e-02   3.2735054e-01   9.0762540e-01   8.6146291e-01  -6.5956957e-01  -5.8784496e-02  -6.4105257e-01   2.7849575e-01   5.8894173e-01   6.5410483e-01  -1.5335056e-01   4.9807753e-01  -4.4714875e-01   5.3868537e-01  -2.0640099e-02   6.1604433e-01  -1.5389559e-01  -1.0327165e-02   4.3262144e-01   4.0594022e-01   1.9611674e-01   4.6202592e-01   2.4765545e-01   8.2836729e-01   1.1292685e-01  -4.3101665e-01   1.9951776e-02   7.2576699e-02  -4.3593267e-01  -6.7369182e-01   5.1169396e-01   6.3627063e-01  -4.7361626e-01  -6.5026253e-01   4.5218254e-01   9.5641653e-01   3.2119980e-01   9.3121044e-01  -2.2265724e-01   7.4881392e-01  -5.9915399e-01  -1.0151288e-02  -2.1421346e-01  -4.1092310e-01   2.0304119e-02   8.1798335e-01   2.1899248e-01  -5.0134463e-01  -1.2920739e-01  -5.1881157e-01   9.6268590e-01   1.7983544e-01   8.0807678e-01  -6.3044498e-01   3.2708888e-01   2.6462522e-01   1.3548306e-01  -6.2699495e-01   5.6122087e-01  -3.7364767e-01  -7.1204035e-01   4.3835393e-01  -5.2422808e-01  -8.0350766e-01  -3.6204829e-01   1.3439435e-01  -7.6033010e-04   9.7274155e-01   9.5300771e-01   9.8446675e-01   8.6787655e-01  -9.7192272e-01   5.5475500e-01   9.5653930e-01   6.3539289e-02   5.9003815e-01   7.8397813e-01  -3.7628138e-01   9.4975666e-01  -4.4128524e-01  -4.6102417e-01   4.0203257e-01  -6.0284451e-01   1.0582877e-01   2.9920577e-01   2.3871009e-01  -7.6406354e-01   4.1797801e-01  -8.6196229e-01   1.3884568e-01  -2.9423087e-01  -5.9585722e-01   2.5667735e-02   8.5758520e-01   2.1006805e-01   7.0021928e-01  -5.7499031e-02  -2.1617258e-01   4.2666581e-01   1.4059571e-01  -4.9766235e-01   6.6680450e-02   8.0930376e-01  -5.3886536e-01   3.6819932e-01  -9.3370790e-03   5.8149956e-01  -5.4797824e-01   9.6601222e-01  -4.8742033e-01  -4.4370670e-01   4.6236392e-01  -7.8706803e-01   7.8896592e-01  -6.0220486e-01   5.0765662e-01  -6.0614030e-01  -8.7911212e-02   2.1274281e-01  -5.1349243e-03   1.8727495e-01   6.4213981e-01  -5.8724153e-01  -9.3462318e-01  -7.4879550e-01   4.4873769e-01  -1.1883482e-01  -8.7845915e-01   6.4553470e-01   7.0423333e-01  -9.2155638e-01  -7.3765173e-01   8.9788699e-01  -7.7219862e-01   5.9514539e-01   8.9515952e-01  -8.0979912e-01  -5.2362534e-01   9.1812173e-02  -9.5848542e-02  -4.4754438e-01  -7.1142119e-01  -4.2230551e-01  -7.6082828e-01  -9.3705060e-01  -1.7500919e-01   6.5775815e-02  -2.1612121e-01  -1.2773111e-01   9.4511449e-01  -1.9811121e-01  -5.5079271e-01   6.0910262e-01   2.2866857e-01   1.1409648e-01   5.5796764e-01   5.3192814e-02   9.8673848e-01  -2.3738097e-02   2.4100252e-01  -5.0135727e-01   5.2381295e-01   2.1076069e-01  -1.2905646e-01  -8.2771416e-01   8.8455454e-01  -8.8480508e-01  -6.3968617e-01  -9.0873193e-01
