   2.9898884e-01   5.5959419e-01   1.5293725e-01  -6.7114163e-01   7.5066588e-01  -5.4186909e-01   7.6473796e-01   4.7987848e-01   8.1896836e-01  -5.2149223e-01   8.6557274e-01  -4.4674853e-01  -6.2132365e-01  -1.6559895e-01  -2.7906754e-01  -8.5918111e-01   1.0695048e-02   8.8389453e-01   1.4227644e-01  -7.1230148e-01   7.6650177e-02  -8.9264763e-01  -3.4054729e-01   1.7257668e-01  -8.5777119e-01   3.4947235e-01   1.7010749e-01  -9.8039716e-01   9.0453769e-02   7.3322879e-01   9.8327069e-01  -6.8923825e-01  -2.8493565e-01  -2.8570442e-01  -3.4255606e-01  -3.6418473e-02   6.1201334e-01  -4.8949226e-02   4.6727729e-01   1.3988662e-01   7.8031734e-01   2.9552527e-01   4.4040096e-01   8.1666084e-01  -3.7165275e-01   6.4318141e-01   8.3680269e-01   9.2513855e-01  -1.7346385e-01   6.6277510e-01   5.1825079e-01   5.5270264e-01  -2.9896601e-02  -4.5221135e-01   5.0613292e-01  -4.7068285e-01  -2.4439149e-02  -7.4491777e-01   9.6119097e-01  -8.4520679e-02   8.3772939e-01  -3.7462407e-01  -1.9830688e-01   9.5485835e-01  -1.7070988e-01   1.4299749e-01  -4.6060253e-01  -9.9499827e-01   3.2648551e-01   8.5529779e-02   5.5099128e-01  -8.8225770e-02   8.5065462e-01   3.2938349e-01  -6.0324168e-01  -3.6865430e-01   7.0350518e-01   6.9542760e-01   7.0392001e-01  -3.2753590e-01   3.6751434e-01  -3.1011771e-01  -7.6280007e-01   2.3345944e-01  -5.2296113e-01  -7.6835189e-01  -3.4241077e-01   5.3595120e-01  -2.2170030e-01  -2.9472670e-01  -2.3753223e-01   2.7813755e-01  -6.5788095e-01  -3.7794112e-01   8.5581022e-01   1.7287407e-02  -6.0998320e-01   4.8030580e-01  -3.1043800e-01   8.5542963e-01   1.6696218e-01   1.3656816e-01  -4.2333737e-01  -5.6849054e-01   1.5540759e-01   4.9252107e-01   7.5532317e-01  -6.9512894e-01  -9.9248260e-01  -8.5483101e-01  -1.3074252e-01   6.5449014e-01  -2.0511599e-01   8.7374360e-01  -9.4740895e-02   8.2162002e-02  -8.1850814e-01  -7.3241031e-01   2.1951633e-01   9.4907177e-02   5.1582260e-01  -5.0592777e-01  -4.5605655e-01   9.0575328e-01  -6.9990581e-01   3.9699793e-01   3.9479191e-01   9.4125538e-01   2.0501078e-01   4.4935768e-01   7.7558746e-01   4.9062388e-01  -8.6898707e-01  -2.5084435e-02  -6.9738384e-01  -5.4166678e-02  -1.7716283e-01  -3.8950064e-01   8.4616945e-01   3.0430473e-01  -9.7881927e-01   5.6828577e-01   2.1087459e-01  -2.1502797e-01   4.2365050e-02   6.5460614e-01   1.7914450e-01  -7.6277110e-01  -8.7267866e-01  -7.0606698e-01   7.4569568e-01  -2.4590364e-01   5.8771893e-03  -3.8999617e-01  -7.3111185e-01  -2.7611160e-01  -8.6434888e-01   7.0748770e-01   3.0233820e-01  -8.4547719e-01   5.9677045e-01   8.8965144e-01   4.5401196e-01  -9.5270482e-01   9.1272479e-01   3.5998721e-01   8.0856680e-01  -9.8593714e-01   7.6561783e-02  -5.2101310e-01   1.0092839e-01  -6.3977327e-01  -5.5249388e-01  -2.2029725e-01  -1.8522648e-01   5.4747281e-01  -2.6229155e-01   4.7886572e-01   9.3122173e-01   1.0340496e-01   8.1049194e-01   6.6839112e-01  -9.2930275e-01  -4.3729146e-01   3.8298654e-01  -2.8986135e-01  -9.8346293e-01   3.8658041e-01   9.7897747e-01  -7.9022689e-01   5.2817619e-01   4.9815820e-01  -5.5574448e-01   7.9072486e-01  -2.9585336e-01  -4.2218293e-01  -6.3835422e-01  -9.7087196e-01  -1.3943406e-01   1.1164926e-01   8.3489164e-02  -6.1413038e-01  -4.9995503e-01  -3.6441839e-01   5.8611746e-01  -5.2311865e-01   6.0865095e-01   3.2353981e-01  -5.2088839e-01  -1.9264266e-01   1.6625054e-01  -6.4265398e-01  -2.5794021e-01   3.9264327e-02   9.6926470e-02   1.1021953e-01  -8.2268610e-01  -8.4518587e-01  -9.8576418e-01   9.2848771e-01   8.2182849e-01  -7.3343558e-01  -9.2044342e-01  -2.4707017e-01   7.5230284e-01  -6.2279709e-01  -8.8312960e-01   3.6059606e-01   6.6426696e-01  -1.7732740e-01  -4.8089978e-03  -6.0958797e-01   4.9935753e-02  -2.9407959e-01   8.9321751e-01   3.8700399e-01   2.6224559e-01  -2.6948838e-01   5.5457988e-01   8.9373440e-01   7.3936785e-01   9.9421031e-01   6.4814437e-01  -7.1721866e-01  -7.9193796e-01   8.6459310e-02   7.3951239e-01  -4.1269569e-01   2.6776020e-01  -1.0242375e-01   3.1531202e-01  -8.8686239e-01   9.5597756e-03   2.5571325e-01   5.0835132e-02  -9.1006430e-01   5.2879460e-01  -8.0908412e-01   3.6390909e-02  -8.1850933e-01  -8.1146146e-01   7.6184178e-01   2.2571053e-01   6.8828176e-01  -1.3605892e-01  -1.7495216e-01   9.3330404e-01   5.9388088e-01  -7.9497075e-01  -1.6920685e-01  -7.0948719e-01  -1.0754039e-01   3.9892176e-01  -2.3242358e-01   8.1332260e-01  -8.5940443e-01   9.4603015e-01   8.6415857e-02   6.6930988e-01   9.7515540e-01   1.7576677e-01   6.9946613e-01   7.8524524e-01   2.7357808e-01   5.2054763e-01  -9.6614829e-01  -8.2789721e-02  -6.3638863e-01  -1.1887970e-01   3.7217493e-01   3.6798685e-01  -7.0130851e-01   7.4343524e-01   3.7191762e-01  -2.8770387e-01  -3.6235446e-01   4.3426258e-01   5.7982853e-01  -1.0560716e-02   6.9166343e-01   9.6601795e-01  -2.4326999e-01  -4.0830636e-01   2.4299372e-01  -7.5522867e-02  -8.1484632e-01  -5.4177107e-01   6.1908500e-01  -4.6013813e-01  -2.4415625e-01   2.5175421e-01   2.8625454e-01  -6.1861646e-02  -8.0856674e-01  -9.7739104e-01   9.4145938e-01  -8.6016059e-01   2.9009184e-01  -5.1556253e-01   7.0913110e-01  -3.5521299e-01   6.3289666e-02  -5.3958763e-01  -4.8415817e-01  -3.8373490e-01   8.8396722e-01  -5.9225246e-03  -9.3579959e-01  -9.7434195e-01   4.9821288e-01   4.8405348e-01   6.8993026e-01   7.0160131e-01  -3.0654385e-03  -8.0323501e-02   8.3926478e-02   8.9636315e-02  -1.8276375e-01  -7.3023364e-01   9.9501483e-01   9.6489746e-01  -6.6057292e-01   9.2391563e-01  -4.8398660e-01   8.3695492e-01  -8.1933281e-01  -3.3721305e-01   2.8355010e-01  -8.9744577e-01  -4.6455188e-01  -1.7896550e-02   3.8253640e-01   6.5843756e-01   8.6995594e-01  -7.8782298e-01   4.2778924e-01  -4.4823832e-01   6.9827593e-03  -6.9458752e-01  -5.9986727e-01   9.5894746e-01   2.2889803e-01   9.4563817e-01  -8.7136806e-01   2.2061226e-01   2.1655208e-01   3.4040724e-01   4.4748556e-01  -9.7954629e-01   4.2327708e-01  -1.9566427e-01   2.9623255e-01   3.7974213e-01   5.1484672e-01  -1.1679438e-01  -3.3412364e-01   6.5400850e-01  -8.1796778e-01  -1.1749479e-01  -7.0700127e-01   7.0539181e-01   9.5416609e-01  -2.2505306e-01  -2.3860983e-01  -6.1912788e-01   4.9529434e-01  -7.7946393e-01  -1.1737908e-01  -7.4036570e-01   9.9002568e-01   8.6360663e-02   6.2294264e-01   2.4002055e-01   9.4474559e-01  -4.0922371e-01  -6.1384506e-01  -8.4019122e-01   3.9349770e-01  -6.6334838e-01  -3.2290718e-01   2.4806921e-01  -8.0382384e-01   4.6032965e-01  -3.4209732e-01  -6.8850758e-01   2.9072105e-01  -6.9157044e-01   2.4668683e-01   2.8916040e-01   7.1117186e-01  -4.0835160e-01  -8.6302609e-01   7.4042565e-01  -2.7980051e-01  -8.0030285e-01  -2.3903850e-01  -7.1325737e-01   6.5356592e-01  -2.1921517e-01  -5.7419881e-01   9.6894666e-01  -5.5993592e-01  -2.4216789e-01  -3.2964196e-01   5.7891686e-01  -3.5537381e-01   5.0662150e-01   3.9140758e-01  -3.9178522e-02  -9.1155760e-01   3.0650722e-02  -8.5201060e-01   1.4717190e-01   1.7954473e-01   8.0930900e-01   6.2821729e-01  -1.1659796e-01   9.7928596e-01   2.4752945e-01   7.1176429e-01  -5.8329505e-01  -3.7025142e-01   8.0796978e-01   1.3474170e-01   2.4587917e-01   8.9193761e-01  -3.9866473e-01   4.0895393e-01   5.2031783e-01   1.5455799e-01  -6.6207138e-01   7.9688310e-01  -4.1397520e-01  -9.4125745e-02   9.0912748e-02  -3.6379440e-01  -5.3495984e-01   1.1818990e-01   4.1926024e-01  -6.3208160e-01  -8.9336027e-01   1.0806246e-01   2.7160922e-01  -7.8123498e-01   8.6091249e-02  -6.8881859e-02   8.2117073e-01   5.9046277e-01   4.6699866e-01   9.2065862e-01   1.5193533e-01   1.3691598e-01   6.2442365e-01   8.1795097e-02   5.6612727e-01   9.5525236e-01  -1.2053709e-02   5.9731774e-01  -6.8182953e-01   6.5988263e-01  -1.5987379e-01   4.4051998e-01   3.1757945e-01   6.6111657e-01   8.6551277e-01  -5.2940690e-01   1.5823323e-01  -4.3501574e-01   9.6458408e-01   9.9327128e-01   3.5706052e-01  -3.3374817e-01  -9.6629390e-02   3.6051219e-01  -7.3837502e-01  -7.1356976e-01  -4.9352093e-01   9.2278934e-01  -2.3684448e-01   2.6417264e-01  -8.0040878e-01  -6.7776349e-01  -4.9835205e-01   4.0390182e-01   6.4338347e-02  -5.3075518e-01   8.9614483e-01  -1.2693501e-01  -8.8468758e-01   1.8940956e-01  -7.4968829e-01   7.9829564e-01  -1.7170995e-01   4.8142527e-01  -6.9620252e-01   3.1116620e-01   6.1194208e-02   6.4485704e-01   2.8161386e-02   1.9991663e-01   6.5855771e-01   4.3372338e-01   1.9219706e-01   4.5972549e-01  -7.8804570e-01   5.4281179e-01   5.3470033e-01  -3.0794839e-01   5.5886378e-01  -1.3866453e-02  -1.2363965e-01  -7.0729699e-01   8.4662960e-01   1.0861297e-02  -2.4623150e-01   1.2861061e-02   8.0036579e-01  -4.7016114e-01   8.9368193e-01  -2.6983115e-01  -2.8819010e-01   3.5516248e-01  -7.8665349e-01   9.7583098e-02   1.3673137e-02  -7.4327874e-01   3.2944071e-01   8.7897469e-01  -7.8146853e-02   4.8409982e-01  -6.0464621e-01   3.6782355e-01   6.0857361e-01  -5.1845564e-01   8.1205189e-01   4.2349747e-01   5.2326148e-01  -5.2614721e-01  -4.1954822e-01   1.6073014e-01   7.0867058e-01  -4.2055182e-01   5.6006469e-01   9.2661267e-02  -6.6207646e-01  -1.9363552e-01  -8.7860174e-01  -5.9671658e-01   1.3698360e-01  -3.7883549e-01   3.2852248e-01   9.8761040e-01   9.0208960e-01   9.2531799e-01   9.8848841e-01   4.1198547e-01   6.5641491e-01  -9.0759751e-01  -2.2482563e-01  -7.9508893e-01   2.0545872e-01   5.9547619e-01  -8.9351925e-01  -4.0888785e-01   9.9431579e-01   6.7616831e-01   1.5870945e-01   4.6068685e-01   9.9466554e-01   6.4089581e-01  -2.8126028e-01   8.0427718e-01   7.0449240e-01  -7.9195012e-01  -7.6607179e-02  -9.7208066e-02  -5.6896429e-01   3.4769811e-01  -9.1635895e-01   6.2096764e-01  -1.1445997e-01  -3.5608158e-01   4.2051866e-01   8.8759253e-01   8.1170033e-02  -6.5606962e-01  -3.4812543e-01   6.3165050e-01   3.4171403e-01   4.7289723e-01  -8.4160541e-01   7.1659253e-01  -6.2345151e-01   4.6212588e-01  -7.9897975e-01   2.4977922e-02   9.7382557e-03   9.6339253e-01   5.1874290e-01   4.4274618e-01  -4.3293989e-01  -9.2567372e-01   6.6371061e-01   7.4443138e-02   7.9122695e-01  -3.9685550e-01   1.2297191e-01   4.5411838e-01  -4.3128922e-01   1.0632775e-01   2.3875453e-01  -6.4932563e-01   1.7555234e-01   3.7450630e-01   2.7618490e-01  -7.5510691e-01  -9.7697096e-02  -9.7513550e-01   1.5682089e-01  -1.3031526e-01  -9.0323511e-01  -5.7404662e-01  -7.1312907e-01   4.0444418e-01  -3.9171458e-01  -2.0514877e-01   3.8645406e-01  -7.2287245e-01  -1.2652809e-02  -9.8511747e-01   8.0884108e-01   9.9053006e-01  -1.8540632e-01   2.9753123e-01   8.7883514e-01   8.5157484e-01   4.1682651e-01   1.9436557e-01  -2.1494483e-01   5.2648430e-01   7.8543518e-02   4.8695495e-01   9.8763488e-01  -6.9342255e-01   7.5162679e-01   3.3212478e-01   6.5966108e-01   9.1892039e-01  -1.3780587e-02  -3.4647009e-01   7.8643336e-01  -8.0291735e-01   1.5026965e-01   8.0954957e-01  -7.6138316e-01  -3.1109753e-01  -9.7753504e-01  -7.8593457e-01  -5.9637713e-01   9.7152414e-01   4.7183749e-01  -5.3768149e-01  -2.1653866e-01   9.3832592e-01   5.1866598e-01  -6.8494341e-01  -5.5266240e-01  -8.9377555e-01   3.6698340e-01   2.6752058e-01  -9.9681328e-02  -2.3108480e-01   3.1934993e-01   4.8689329e-01   1.8116547e-01   6.8283392e-01   5.5020033e-01  -3.7129680e-01  -9.0260689e-03  -9.9288008e-01   1.8562421e-01   7.7803165e-01   3.5756031e-01   8.1150216e-01   8.6618663e-01  -1.4089597e-04  -1.1745001e-01   9.0294221e-01  -6.3811119e-01  -9.8334233e-02  -9.4671315e-01   2.4919488e-01  -8.6060411e-01   2.9350735e-02   6.8221891e-01  -6.4275067e-01  -3.8554180e-01  -4.7613755e-01  -4.0341227e-01   9.6462953e-01   9.0927634e-01   7.8754919e-01   6.4425065e-01   9.3441702e-01  -3.5741763e-02  -8.0843439e-01   6.2654722e-01   4.0715175e-01  -4.9428932e-01   4.6261745e-01  -7.9716878e-02   2.9031584e-01  -5.3671923e-01  -7.9365698e-02   6.0734275e-01  -2.4269024e-01   8.6140567e-01   2.8766360e-01   8.4033611e-01   9.5535517e-01   8.0704738e-01   9.0311662e-01   1.0813962e-01   7.1786789e-01   6.7813142e-02  -8.7657056e-01  -3.5230854e-01   5.9114243e-01  -9.4628846e-02  -1.9953092e-02  -6.7614061e-01   9.9303384e-01  -2.6141908e-01   8.9184549e-01   7.3160943e-01  -5.8969384e-01  -5.4275892e-01   1.7745408e-01  -6.6091006e-01  -3.0542901e-01   9.0246778e-01  -5.5838408e-01   2.5022652e-01   3.5406037e-01   3.4148602e-01   8.7054636e-01  -7.6832249e-01  -2.8683184e-01   3.9528421e-02  -9.2251966e-01  -7.2546089e-01   2.7074025e-01  -6.9947006e-01  -4.5707998e-01   9.1379416e-01  -5.5021185e-01  -7.5000917e-01   3.3872247e-01  -6.6710861e-01   6.0937544e-01   8.7883506e-02   5.4757971e-01  -5.1557901e-01   4.6314552e-01   5.2137559e-01  -5.1647552e-01   1.8672969e-01  -5.7230348e-02  -3.3927514e-01  -4.9059342e-01  -2.4900351e-01  -3.2459807e-01  -4.8939498e-01   4.0034339e-01   4.5683751e-01   9.4029297e-01   1.3662548e-02  -4.2089198e-01   8.7636684e-01   7.3886033e-01   5.4036216e-01   2.8762378e-01   6.7301786e-02  -1.3518045e-01   5.8201150e-01   6.3092107e-01  -6.6295664e-01  -9.7372232e-01  -9.6997724e-01   1.9086336e-01   8.6083252e-01   1.1647279e-01  -1.0292088e-01   1.8181331e-01  -9.9654401e-01   5.9221877e-01  -7.6907731e-01  -8.8184264e-01  -6.2329991e-02   8.0356955e-01   8.0097385e-01  -9.1351201e-01   4.1557592e-01   6.0034706e-01   3.4896954e-01  -9.3408921e-01   5.9847032e-02  -2.3740646e-01  -4.2061876e-01   1.0059157e-01   7.6391401e-02  -1.5140086e-01  -7.8449649e-01  -4.5521675e-01  -2.9314748e-01  -5.4939383e-01  -7.5606736e-01   6.4119904e-01  -4.4163386e-01  -5.1209840e-01   7.9175013e-01  -7.3911999e-01   8.0279870e-02  -8.2199953e-01   5.0840833e-01   2.5080001e-02  -9.3171546e-01   7.4310403e-01   7.3994250e-01  -6.2725192e-01  -5.1836369e-01   4.9587944e-01   8.5524956e-01  -7.7386920e-01   8.6764356e-01  -8.5110205e-01  -3.3464588e-02   9.3665186e-02   4.2817242e-01  -8.6336601e-02   8.6252714e-01   6.5023498e-01  -6.0226394e-02  -4.5168108e-01  -3.9892349e-01  -6.7789200e-02   1.3165139e-01  -6.0374238e-01  -6.1219533e-01  -6.3225562e-01  -1.9390942e-01   2.1961319e-01   7.3563624e-01  -5.5773431e-01  -7.2726160e-01   5.9863355e-01   9.9331609e-01   8.4774415e-01   8.1841722e-01   6.0244664e-01  -8.6481898e-01  -2.9140333e-01  -4.0392770e-01   9.3995438e-01  -6.7871015e-01   2.6613368e-01  -5.4708930e-01  -3.7628873e-01  -2.6767672e-01  -7.9966509e-01   1.6756337e-01  -3.5844848e-01   3.2783894e-01   7.7077931e-01  -9.2816860e-01  -1.1502642e-01   1.8289673e-01   1.3089033e-01   7.0552999e-01   1.2592668e-02   5.6825859e-01  -5.6637082e-01   1.4514788e-01  -7.4252259e-01  -6.9021234e-01  -3.8282805e-01   5.5497016e-01   1.1567910e-01  -8.2304124e-01  -2.8300961e-01   5.7527133e-01   4.8672411e-01  -9.4868153e-01  -4.5328522e-01   2.4984437e-01   1.4955473e-01  -7.2651204e-02  -1.2280229e-01   8.7797175e-01  -3.0412618e-01  -8.0780476e-01  -4.4388905e-02   8.0085555e-01  -3.4012397e-01  -7.0019242e-02   6.6315889e-01   5.1586115e-01   8.2645647e-01  -4.2073369e-01   1.1240311e-02  -8.1607772e-01   4.9496121e-01   5.4304579e-01  -1.7690005e-01   8.6204303e-01  -7.4527712e-01  -2.7896403e-01   5.6740147e-01   5.7561937e-01   4.6383907e-01  -7.3527250e-01  -9.6456433e-01  -8.3664646e-01   3.8153474e-01  -9.5190147e-01   2.6033355e-01   9.0586257e-01   4.2427536e-01   7.9839641e-01   7.6635994e-01  -8.1569024e-01   3.8503825e-02  -4.0744411e-01  -2.3138317e-01  -1.4330002e-01   2.6107974e-02  -1.2982788e-01  -2.3547158e-01   9.1009940e-01  -1.8580806e-01   1.4786054e-01   3.3683814e-01  -5.2621145e-01  -7.1271915e-01  -3.0195172e-01  -8.0662565e-01   4.1255974e-01  -2.7836245e-01  -7.1852749e-01   5.0936215e-01  -8.6435153e-01   9.8055075e-01  -8.5236886e-01   6.8065251e-01  -4.2078067e-01  -1.6799338e-01   1.7616932e-01  -7.8282473e-01   5.8641397e-01   9.0696639e-01  -7.2322827e-01   8.0953288e-01   6.0045785e-01  -8.9646419e-01  -8.7596442e-01   5.2935851e-01   5.0904740e-01   7.8675166e-01   5.4629996e-01   1.8459191e-01   1.6703157e-01   1.1817954e-01  -2.8999242e-01  -6.1694312e-01  -9.5437871e-01  -2.2785007e-01   4.7748845e-01  -3.8827743e-01   1.5412090e-01  -8.6461381e-01
   4.2466329e-01  -6.3622785e-01   3.9368527e-01   8.7934397e-01  -7.6504729e-01   7.3804368e-01   3.2973482e-02   6.6747758e-01  -7.0783288e-01  -9.2898526e-02  -8.6038515e-01  -3.6268417e-01   7.1579751e-01  -6.8065172e-01   1.9146587e-01   4.2165748e-02   7.2069045e-01  -2.2931536e-01  -4.5699437e-01   4.0976445e-02  -2.2422486e-01   2.1587489e-01  -8.0806613e-01   2.2993945e-01   2.8278840e-01   7.7089097e-01   2.4034680e-01   6.9951042e-01   3.9659821e-02  -3.5214502e-01   7.5079829e-01  -8.1314528e-03   2.2340994e-01   5.9256072e-01  -6.4972002e-01  -4.2783270e-01   9.5515690e-01   9.0928925e-01  -1.4181198e-01   2.7218500e-01  -9.7387884e-01   6.8672154e-01   5.8730243e-01  -8.0222605e-01   2.6081270e-01   1.7653324e-01  -6.7377935e-01  -1.1841861e-01  -8.1285565e-02   8.6285070e-03  -4.6903250e-01   4.6695221e-01   6.8728213e-01  -2.2730745e-01   6.1158930e-01  -4.9314996e-01   2.1725252e-01  -5.8115746e-01  -2.7241490e-02   3.0663607e-01   5.9102998e-01   4.8749274e-01  -5.0180763e-01   5.1740278e-01   5.3856765e-01   1.5030317e-01  -4.3467789e-01  -1.4599523e-02   3.9545583e-01   1.3873708e-01   8.7963657e-01  -1.0483161e-01   7.7400658e-01  -6.3059937e-03  -5.0529793e-01   9.1045714e-01   8.4755571e-01   9.1959133e-01  -3.4240046e-01  -7.1087886e-01   1.0103398e-01   7.8740225e-01  -5.9594832e-01  -2.6461598e-02  -1.7197574e-01   6.2438350e-01   6.9042771e-01   7.1167465e-01  -9.6194675e-01   2.5082330e-01   5.3369945e-01  -5.2147960e-01   7.6958483e-01   3.0487562e-01  -9.9200892e-01  -1.8994652e-01  -9.1376981e-01  -6.5139764e-01  -3.7521266e-01  -3.1213873e-01  -5.1002690e-01  -2.5906535e-02  -4.1066011e-01  -7.6912983e-01   8.7800947e-01  -3.7978158e-01  -2.0188668e-01  -1.1628218e-01  -8.8508114e-01  -7.5099197e-01  -5.5956039e-01  -7.8440646e-02   6.0150132e-01   6.2902480e-01   2.1650524e-01   1.9599285e-01   6.7893817e-01   8.8647834e-01   9.5036259e-01   8.7704186e-01  -8.4536649e-01   3.6805207e-01   5.3785945e-01  -5.8043892e-01   5.7810971e-02  -2.8632517e-01   9.8865035e-02   5.9004365e-01  -4.0335713e-01  -4.9746673e-01  -6.6726883e-01   9.4626249e-01  -7.4467666e-01  -4.8521398e-01  -4.8663597e-01   4.9496869e-01   2.2762107e-01  -3.0994144e-01  -3.2889921e-01   3.9132972e-01  -5.7863972e-01   6.1800536e-01  -4.9520600e-01  -4.6011177e-01   2.0024455e-01   5.8157366e-02  -2.9571166e-01   2.6555516e-02  -3.2894086e-01  -2.4573176e-01   8.6346586e-01  -3.2594108e-01   7.8662979e-01   8.9758040e-01  -1.5348211e-01   7.4460201e-01   6.4819789e-01   8.6786349e-01   5.9014798e-01  -9.4497089e-01   8.7888028e-01   3.0193121e-01   9.3032921e-02  -4.3411882e-01  -4.5409994e-01   9.6625952e-01   5.9292599e-01  -4.4072778e-01   1.7704954e-01   7.9630512e-01  -8.7613154e-02   4.4251788e-01  -3.8528009e-01  -4.1643221e-01   2.0847964e-01   2.8063282e-01  -4.8799025e-01  -2.0865581e-01   5.0658008e-01   2.5780299e-02   4.2304381e-01  -7.6292815e-01  -5.1957099e-01  -7.4639501e-01  -3.2672649e-01   5.1346664e-01   5.9204197e-01   2.1162690e-01  -8.5914736e-01   4.0708996e-01  -9.5718679e-01   9.5285728e-01   8.8887313e-01   3.1254837e-01   3.8259259e-01  -2.8706697e-02  -7.1858072e-01  -6.5459310e-01   4.6451517e-01   6.9863085e-01   1.2253259e-02   4.1101689e-01   5.7471451e-01   3.9344892e-01   4.2058001e-01   3.9158476e-01   3.0847258e-01  -1.8955988e-01   3.8830010e-01   4.7492553e-01   1.0733271e-01  -6.1648374e-01   8.1349690e-01  -2.4586341e-02   5.7121332e-01  -2.1570636e-01   5.3882024e-01  -6.0462114e-01   5.8996884e-01   4.1959856e-01   3.2206603e-01  -5.4151613e-02   2.4479930e-02  -6.6427878e-01  -6.1120251e-01   4.8201855e-01  -2.4090810e-01   2.3426544e-01  -3.0995778e-01  -8.4547289e-01   8.7461940e-01  -6.3067073e-01   5.4113850e-01  -3.6977326e-01  -8.6950351e-01   7.6245974e-01   1.6568891e-01   2.8658591e-01   5.5893941e-01  -9.7349215e-01  -9.7848325e-01   7.7198841e-02   7.4848116e-01   8.1998985e-02  -2.1063613e-01  -2.1753678e-01  -1.0706688e-01   5.8770695e-01   1.1701390e-01   5.0436671e-01  -6.7503356e-01  -7.2479532e-02   2.2699249e-02  -2.5166974e-01  -6.4939450e-01   8.1837430e-01  -5.8403922e-01  -3.3499957e-01  -6.7196878e-01   4.4514963e-01  -8.5254491e-01  -2.8398171e-01   8.8240604e-02   1.4447286e-01  -9.2872400e-01   2.8115260e-01  -8.6548780e-01  -5.3004555e-01   4.6835665e-01  -6.6930136e-02  -1.2969493e-01   5.3338990e-01  -2.8184716e-01  -2.2134844e-01   2.5862267e-01  -8.3410359e-01   6.6343938e-01  -8.2692685e-01   8.9412743e-01   3.3710515e-01  -8.5635892e-02   6.0847727e-01   6.2491107e-01  -7.5489804e-01  -5.1332584e-01  -2.4536305e-01   6.2735407e-02   3.9225901e-01  -3.9314318e-01   9.8612357e-01  -3.9686452e-01   3.8733495e-01  -3.2677151e-01  -1.2897571e-01  -8.5369391e-01  -7.1244006e-01  -3.2715743e-02  -1.8890642e-01   7.0904936e-01  -7.5501046e-02  -8.0294270e-01   6.8885171e-01  -1.7045201e-01  -7.8204746e-01  -7.4524197e-01   8.1041518e-01   6.2489491e-01   5.6734414e-01  -7.2933572e-01   5.5575431e-01  -3.7966196e-02   6.4128679e-01  -7.6527496e-01   7.8982303e-01   4.9445679e-01   3.4753574e-01   6.5297355e-01   7.0221999e-01  -6.5438594e-01   9.2578818e-01   1.2396105e-01   3.1088242e-01  -7.0695054e-01  -6.7384259e-01   3.4833058e-01  -4.6527463e-02  -7.9137473e-01  -8.2612047e-01   8.6552731e-01   8.4868067e-01   6.6066716e-01  -3.5555519e-01  -1.4506401e-01   1.9549212e-01  -1.4258097e-01  -6.6337201e-01   9.4953802e-02  -5.8414467e-02  -1.4494157e-01  -1.8240599e-01  -9.1210874e-01  -7.0886471e-01   8.4221012e-01   6.8431634e-01  -6.4705466e-02   8.6491158e-01   6.2684142e-01   8.2451912e-01   4.1187888e-01  -8.7261670e-01   1.1832456e-01  -5.2991730e-01   5.0185406e-01   5.5465606e-01   9.1078927e-01  -7.8543197e-01  -1.6139075e-01  -3.9812658e-01  -2.0935414e-01   8.1915967e-02   5.4771069e-01  -9.2258702e-01   5.8634815e-01  -8.3685428e-01  -3.7241630e-01   1.6041403e-01   1.8988626e-01  -9.5679980e-01  -7.8243234e-01  -5.5559551e-01  -8.7047061e-01   9.1354628e-01  -9.1948468e-01  -1.6364216e-01  -5.9916900e-01   9.8584811e-01   7.4077442e-01  -8.7387460e-01  -6.9081194e-01   7.8438691e-01   4.3980509e-01   9.2532084e-01   9.1787986e-01   5.6658040e-01   2.0663281e-01  -3.2468687e-01  -3.8284661e-01  -5.0677480e-01   8.5493230e-01  -5.1796829e-01  -2.2052522e-01  -6.7738572e-01  -5.1218524e-01   4.0202923e-01   9.0759507e-02   7.7657384e-01   3.7920962e-01   2.4171584e-01   9.5369697e-01   6.1272849e-01  -8.6458046e-01   2.6894397e-01   7.4234976e-02   4.3303360e-01   2.8525203e-01   1.0248612e-01  -1.0447351e-01  -6.2763013e-01   9.5802867e-01   9.3358795e-01  -2.8821845e-01   9.2123809e-01  -8.0815176e-01   2.6716508e-01   3.1207687e-01  -2.9498229e-02  -5.6514004e-01   4.6815950e-01   7.3903056e-01  -6.1242199e-01   4.5063426e-01   4.4672228e-01   7.3654714e-01   3.6122713e-02  -3.9200622e-01   6.9542975e-01   5.7633423e-01  -8.9063957e-01  -3.2756737e-01  -7.8951775e-01  -6.5469574e-01  -7.8588923e-01  -4.9771242e-01  -6.8233037e-01   3.8552324e-01   3.3658478e-01   4.6950764e-01   1.1447401e-01   9.6922950e-01  -9.3743329e-01   8.8843729e-01   4.5981303e-01   3.1571186e-01  -1.0050915e-01  -8.1980428e-01  -8.5534607e-01  -1.4279720e-01   1.9162494e-01  -4.0297588e-01   3.8281890e-01  -9.7465576e-01   6.4490771e-01   2.9149357e-01  -2.5195536e-01   6.7173399e-02   8.5444870e-02  -3.3154888e-01   5.2328783e-01   5.4020979e-03   4.7604206e-01  -8.9866944e-01  -7.4737332e-01   2.5974790e-01  -6.9465033e-01   4.3858715e-01   7.9162649e-01  -5.8202176e-01   1.1063545e-01  -3.7935168e-01   7.9374340e-01  -7.1473901e-01   5.5617264e-01   2.6374551e-01  -5.3290519e-01   1.7639215e-01  -9.4972591e-01  -9.5376341e-01  -3.6900594e-02   4.8997581e-01  -7.8394029e-01   4.0144056e-01  -7.6287073e-02  -4.7481017e-01  -4.2659472e-01  -3.3162876e-02   3.7908569e-01  -4.2079761e-01   5.8116144e-02  -6.0415367e-01  -9.7764198e-01  -2.9771482e-01  -5.7218680e-01  -5.2566024e-02   9.0778870e-01   1.3187602e-01  -3.6667566e-01   6.8547952e-02   9.1813431e-01   1.1881128e-01  -2.3707712e-01  -1.8871623e-01  -2.1666979e-01  -5.9073293e-01  -5.7024339e-01   2.0756444e-01   7.9371537e-01  -8.0842291e-01  -6.7973875e-01   1.7183791e-01   4.1795107e-01  -6.0042598e-01  -6.6891103e-02  -2.1162195e-01   3.1192436e-01  -3.4286044e-01   9.8649734e-01   9.5250833e-01  -9.7989583e-01   9.3865151e-01   4.4343784e-01  -3.3356445e-01  -9.0553580e-01  -5.3733640e-01   9.7014123e-01   9.4442458e-01   8.7290973e-02   4.3749241e-01  -8.6000749e-01   1.7855176e-01   9.7976773e-01  -2.4797503e-01  -1.3086770e-01  -6.9005659e-01   2.2392078e-01  -1.5372584e-01   6.3210606e-01  -7.3180958e-01  -4.4551289e-01  -8.1056713e-02   7.3877196e-01   8.8104956e-01   4.8242752e-01  -3.6920148e-01   3.3879692e-01  -9.4015252e-01   4.8425448e-01   8.4336518e-02   2.7104098e-01  -8.7301315e-01   6.9917897e-01  -6.9455611e-02  -8.1442496e-01   5.0509520e-01  -5.8577374e-01  -5.1369236e-01  -9.2673173e-01  -9.6970911e-01   5.8034431e-01  -7.7009279e-01   6.3345998e-01  -4.6441830e-01   9.5963003e-01  -2.7744061e-02   8.2707665e-01  -9.3827321e-01  -7.9172303e-01  -8.9231674e-01  -5.0067422e-01  -2.1164545e-01   7.3313968e-01   9.0990292e-01   7.3810105e-02  -6.8564203e-01  -5.8445678e-01  -9.5200024e-01   2.4451955e-01   3.0809162e-01  -3.6772720e-01  -8.4508115e-01   9.4286157e-01  -9.9915254e-01   1.6458600e-01  -3.3973376e-01  -4.7548954e-01   3.4611355e-01  -6.7922370e-01  -2.5735887e-01   7.3102106e-01   7.3777615e-01  -1.7036730e-01   1.4477617e-01   3.9967256e-01   9.2585652e-01  -4.6614862e-01   8.8524627e-03   9.1856278e-01  -3.6812439e-01   3.3588477e-01  -1.2837931e-01  -6.1540751e-02   4.9227092e-01  -2.2038199e-01   5.3889853e-01   5.3774890e-01   5.1337468e-01  -5.7820662e-01   9.1125975e-01  -4.7152179e-01  -8.9718257e-01   8.1901029e-01   6.3923857e-01  -9.9997394e-01  -1.9837913e-01   5.5575079e-01   3.6632650e-01   6.4111327e-01  -6.6287239e-01  -5.5962328e-01   6.5094373e-02   4.6687494e-01   6.5285407e-01  -3.7794373e-01   3.3050546e-01  -9.5771721e-01   8.8399872e-01  -3.0421956e-01   1.8745008e-02   7.8802203e-01   8.6368089e-01   1.6465941e-01   4.0446925e-01   6.7317217e-01   5.0142332e-01  -1.6722640e-01   8.4732087e-01   1.9118421e-01   2.7527102e-01   2.4721227e-01  -6.4665547e-02   8.2062631e-01   7.2550968e-02   6.4369658e-01  -7.1695049e-01   1.7226926e-01  -3.6496236e-01   5.9830077e-01  -8.6224025e-01  -1.1295500e-01   6.9202451e-01  -6.5464585e-01   4.6256526e-01   4.9195786e-01  -3.4151402e-01   9.7007598e-01   9.1886691e-01  -4.6687512e-01  -3.2944214e-01   8.5841371e-01  -3.4385195e-01  -1.1102520e-01  -9.4718007e-01  -5.4108150e-01  -8.1424978e-01  -4.9375064e-01  -1.0454946e-01  -5.1888943e-01   5.7045520e-01  -2.6346419e-01  -1.8132218e-01  -4.8969702e-01  -2.5234836e-01  -2.2894205e-01   9.5803796e-01  -8.3827510e-01   8.7331759e-02  -6.2986292e-01   2.9249967e-01  -6.4440763e-01  -1.6833928e-01   9.7252760e-01   5.3898774e-01   8.0941612e-02   5.1801899e-01  -9.1940625e-01  -7.9736341e-01   9.3838044e-01   2.2074776e-01  -8.5635427e-01   8.7490938e-01   7.8707631e-01  -8.9001323e-01  -4.2830649e-01   8.2908174e-01   3.0082217e-01  -3.1614431e-01  -5.3010565e-01   2.0584051e-01   7.0983592e-01  -7.0849438e-01   2.8415168e-01   9.5466656e-02  -1.0660991e-01   2.9372414e-01   3.7990213e-01   2.6175963e-01  -4.5241787e-01   1.9825433e-01  -4.6803351e-01   8.3220226e-01   6.6841462e-01   7.3708566e-01  -7.9744748e-01  -4.9653496e-01   1.0842389e-01   7.2170550e-01   2.0154416e-01  -5.8870349e-01   1.1985004e-01   6.8448478e-01  -7.7628091e-01  -7.7292573e-01   1.6809265e-01  -8.0275008e-01  -8.7991239e-01  -9.4956365e-01  -2.1581298e-01   5.6093338e-01  -9.5926846e-01   1.8859573e-02   9.9935309e-01   6.5136447e-01  -1.3967511e-01   2.0881559e-01  -9.7779907e-01   1.7241769e-01   8.0492633e-02   9.1287260e-01   8.9745575e-01   2.0871239e-01   5.6997514e-01   4.8244992e-01   6.1641199e-01  -5.1664359e-01   3.5508939e-01   2.3419488e-01  -3.9855327e-02   4.5708215e-01  -1.7821438e-01   9.6617702e-01   8.1407665e-01   8.4315384e-01  -7.0313219e-01  -4.5711212e-01   3.6257407e-01  -2.0056656e-01  -8.7273758e-01  -8.9332658e-01   8.7041266e-01  -5.8077369e-01   2.5116462e-01   5.5581421e-01   3.4267513e-01   4.6573889e-01  -9.0456804e-01  -9.0049539e-01   3.9632391e-01   7.7570285e-01  -5.1231307e-02  -3.5780531e-01  -2.5225501e-01   3.9168255e-01  -2.8559365e-01   9.4370100e-01  -4.0367432e-01   1.1435573e-01   2.7090949e-01  -5.9531133e-02   9.4132761e-01  -1.6339856e-01   6.5653411e-01  -4.7591298e-02   3.5999374e-01   2.3029411e-01  -8.0555798e-01  -5.9456787e-01  -2.3966256e-01   4.4770369e-01   4.6065514e-01  -5.9314343e-01  -4.5432229e-01  -8.2752197e-01  -3.2933085e-01  -9.1579269e-01   5.3004530e-01   9.3188559e-01   3.3157180e-01  -1.1953607e-01  -5.9702139e-01  -9.4969903e-01   8.7131585e-01  -9.2222483e-01   9.2669498e-01  -8.4433015e-01  -9.9673906e-01  -9.5182645e-01  -3.1924633e-02   8.9080915e-01   1.8479490e-01   5.2202463e-01  -1.5842710e-01   8.0686518e-01   6.5131010e-01   4.4746774e-01  -3.7253447e-01  -9.4674276e-01  -1.9089386e-01   8.5017587e-01   1.2961889e-01   5.5832642e-01   8.1943342e-01   3.2242553e-01   8.5684031e-01  -9.9614567e-01  -4.5434140e-01  -8.4536855e-01   2.5937742e-02  -5.7226056e-02  -4.8792357e-01  -4.7455631e-01   2.8109453e-01   7.1295927e-01  -3.1976880e-01  -4.6353999e-01   7.3312696e-01  -5.6115624e-01   9.9460707e-01   6.3865778e-01  -8.8624934e-01   1.8316613e-01   2.9019396e-01   3.1275946e-01  -4.4528057e-01  -6.3778492e-01   3.2352752e-01   4.8457940e-01   7.7593828e-01   1.6761703e-01   2.8806639e-01  -4.6212378e-01   1.8879196e-01  -9.9111657e-01  -6.4023034e-02  -8.6317014e-01  -2.1536066e-01   5.6483176e-01   5.1880363e-02   7.4775576e-01  -2.1477850e-02  -7.4757836e-02  -5.7774086e-01  -6.6137848e-01  -5.7913061e-01   9.3887658e-01  -1.9873029e-01   9.9799279e-01  -1.3925447e-01  -9.6681214e-01  -7.3995058e-01  -5.5638008e-01  -8.5072487e-01  -3.4683410e-01  -1.2614914e-01  -8.8557482e-01  -7.8241492e-01  -5.4658787e-01   8.7807050e-01  -5.6769979e-01  -5.0213224e-02  -1.5170165e-01  -5.4687493e-01   6.6635583e-01  -5.0058377e-01   6.6847188e-01   6.1796233e-02  -3.2676591e-01   4.4290959e-01  -3.5733498e-01  -8.9440355e-01   2.3913193e-01   5.1709087e-01  -4.2281003e-01  -3.4582387e-01   9.8329773e-01  -9.0666225e-01   5.3242910e-01  -3.7962383e-01  -4.6316520e-02   2.3374190e-01   7.0931604e-01   3.9177448e-01  -3.9880058e-01   9.7569671e-01   2.8566618e-01   9.2967617e-01   1.9721463e-01  -3.9737249e-02  -8.9993855e-01  -6.6217339e-01   2.8686483e-01   9.0875428e-01  -6.9537625e-01   4.4043093e-01   8.1992376e-01  -5.9232050e-01   4.6428561e-01  -4.4025454e-01  -9.8098661e-01  -7.4331093e-01  -9.2153879e-02  -7.5784342e-01   4.2462789e-01  -9.0887186e-01   9.5224653e-01  -4.5656588e-01  -2.0046236e-01  -7.2952166e-01  -5.8401704e-01   5.5243042e-01  -4.9976156e-02   9.3944574e-01  -2.6334965e-01  -5.9997903e-01   4.0291737e-01   3.9117518e-01  -2.6884776e-01   2.1305552e-01   6.6848135e-01   3.6252233e-01   4.3709879e-01   2.9437136e-01  -2.2977041e-01   7.7563392e-02  -6.5204358e-01  -1.9049147e-01   1.5921472e-01   6.8692605e-01   4.3706738e-01   9.0594928e-01   2.6122003e-01   4.5051971e-01   5.4394363e-01   6.3587020e-01  -8.7460951e-01   2.4991031e-01   7.5661482e-01  -5.7508628e-01  -5.5531252e-01   8.2791277e-01  -8.0362461e-01   1.8828212e-02   9.0070779e-01  -9.6110310e-01  -7.9722165e-01  -6.2660431e-01   9.0174269e-02  -7.3833503e-01  -4.9723190e-01   2.7620607e-01  -3.2800668e-01  -8.8885158e-01   6.6721647e-01  -6.5448247e-01   4.5260418e-01   1.5413829e-01   4.3317960e-02   2.2726311e-01  -5.2456567e-01   7.4637410e-02  -9.0886038e-02  -6.0321396e-01  -3.6204344e-01   9.8064730e-01  -5.5737849e-01  -7.0529064e-01   2.7214310e-01  -2.7226845e-01   6.8625364e-01   9.6844521e-01  -7.4092974e-01  -9.1594150e-01  -6.2081690e-01  -3.1940733e-01  -5.7673808e-01   7.2994660e-01   8.9274058e-01  -9.6032923e-01  -7.0816383e-02   7.7953639e-02   7.4334718e-01   9.0813032e-01
  -3.2350082e-02  -1.0080411e-01  -7.1655818e-01   1.0176546e-01  -2.1157085e-01   6.6457582e-01   5.2966980e-01  -3.9150448e-01  -5.1897615e-01   7.9733977e-01   4.7581981e-01   4.6389806e-02   7.9376158e-01   8.4331242e-01   5.3638009e-01   8.5936722e-01  -4.0761773e-01   1.9392217e-01  -1.9986768e-01   2.4494183e-01  -6.4060171e-01  -8.9932225e-02  -1.9884555e-01   6.0955043e-01   6.2922362e-01  -4.2777203e-01   8.1394626e-01  -5.5221233e-01   8.6693290e-01  -7.2828289e-01   2.3102435e-01   5.8391293e-01   7.1766905e-01   9.8977261e-02   4.3713298e-01   3.7245753e-01   4.2760369e-01  -2.5962659e-01  -1.0881477e-02   1.9680190e-01  -6.3612906e-01  -8.3988692e-02  -9.2772422e-01  -6.7424913e-01  -2.6852654e-01   6.0255948e-01   1.9317441e-01   1.4767313e-01  -5.0039744e-01   7.8731106e-01  -2.8213864e-01   5.3852356e-01   8.5242875e-01   1.2643318e-01   4.1917083e-01   9.3665497e-01   8.5673145e-01  -2.1366463e-02   7.6258654e-01  -6.2461425e-01   1.2530314e-01  -3.9745034e-01   8.6024747e-01  -9.1537946e-01  -5.0748615e-02   6.8489630e-01  -6.6430376e-01   9.8172152e-02   3.6871607e-01  -7.1307795e-01  -7.7280311e-02  -1.5310342e-01   8.2709109e-01   6.6325944e-01   2.7571824e-01  -6.5131481e-01   6.5308145e-01   6.4230598e-01  -6.0194262e-01  -3.3419882e-01   8.9628702e-02   9.9261280e-01   5.7138912e-01   6.4859221e-01  -6.2996864e-01  -1.6449752e-01  -3.0317372e-01  -9.0630698e-01  -2.2106129e-02   8.0343133e-01   3.3542566e-01   2.6426386e-01  -4.9019066e-01   7.7085114e-01   4.7761782e-01  -2.8973391e-01  -6.4458034e-01  -6.6690617e-01   9.2609290e-01   6.1786853e-01   6.3161662e-01   8.3712752e-01  -8.3236592e-01   9.7935960e-01   7.8693800e-01   5.2211526e-01  -8.5919287e-02  -8.5213877e-01  -9.9540347e-01  -5.9772020e-01   9.0638470e-01   5.0153232e-01   7.2249518e-01   6.6543034e-02   4.1629866e-02   1.7559701e-01   4.0550672e-01   6.3323759e-01  -3.3022545e-02  -5.9233031e-01   7.2419490e-01  -3.4723716e-01   9.3797732e-01   9.1091506e-02   7.8121209e-01  -2.4707872e-01  -6.8369720e-01   1.9214988e-02  -6.6122238e-01  -5.4512018e-01  -8.4457577e-01   9.4774434e-01   1.6665891e-01  -4.0902951e-01  -2.1598014e-01  -3.2119042e-01  -8.2362004e-01   4.6228347e-01  -1.1456357e-02  -6.6148283e-01  -2.0151182e-01  -8.4844835e-01  -9.4857149e-01  -9.4486821e-01  -7.2426214e-01   4.4760422e-01   5.1073743e-01   7.1835665e-01   6.8654135e-01  -9.7557091e-01  -5.0528975e-01   4.0244895e-01  -6.1925818e-01  -3.2588397e-01  -1.1178093e-01  -6.3491574e-01   6.1837197e-01  -9.6198240e-01   5.7475010e-01   8.4738983e-01  -9.5887395e-01   7.4136981e-01  -4.8027713e-01   2.9856583e-01   5.2722415e-01  -9.5176650e-01   2.8156292e-01  -8.2587297e-01   3.6277541e-01   4.2012036e-01   3.8231551e-01   9.3697934e-01  -6.1481502e-01  -8.2703729e-01  -3.0299489e-02  -8.8624717e-01  -1.9825753e-01  -3.2179027e-01  -5.3128791e-02  -6.3455253e-02   3.2020436e-01   4.8278605e-01   3.8514965e-01   1.4853799e-01  -8.2072300e-01   1.9503253e-01   2.2861834e-01   2.3900258e-02   1.3557626e-01   7.6888957e-01   8.1472821e-01  -6.0723194e-01   3.4418109e-02   6.4933674e-01  -3.0645086e-01  -7.9005761e-01  -9.2245377e-01  -4.1235465e-01  -1.5046092e-01  -2.5498707e-01   2.2713663e-01  -2.0849418e-01  -5.0536027e-01  -6.1488433e-01   5.6395648e-01   6.9521865e-01  -7.0219845e-01  -8.1915789e-01   6.7220769e-01  -6.0286305e-01   8.3071039e-02  -2.0768934e-01  -1.2634232e-01   8.4978614e-01   7.1856251e-01   6.2928813e-01   4.7484458e-02   4.4963304e-01  -7.3500280e-01   3.2607832e-01  -2.1332382e-01  -1.2780995e-01  -6.5400691e-02   4.0898699e-01  -7.7280121e-01  -5.0546200e-01   5.7701883e-01   4.0880442e-01  -9.2348554e-01   5.9063460e-01  -5.1333709e-01  -3.2813846e-01  -2.6766330e-02   5.7343929e-01   5.5053532e-01  -9.9796568e-01   2.5606028e-01  -4.6769343e-01  -6.1335534e-01  -2.3241574e-01   4.6290826e-01   3.1725972e-01   9.2171621e-01  -1.3439820e-01  -6.8181008e-01  -1.0097420e-01   3.1278264e-01   4.0049413e-03   2.9936866e-01  -5.6842354e-01   7.5204934e-01  -3.5507865e-01  -4.7364320e-01   1.3155373e-01  -6.3179793e-01  -1.3164135e-01   3.0954152e-01  -9.9333642e-01  -8.9264979e-01  -5.0493463e-01  -7.9933682e-01  -1.7509280e-01   2.3921205e-01  -3.0587858e-01   9.0927268e-01  -7.6891178e-01   1.2994436e-01   7.2291201e-01  -7.1232802e-01  -2.6268108e-01   8.5403253e-01  -9.5557033e-01  -5.2375102e-01   1.3139461e-01   7.4247709e-01   2.0176234e-01   1.0697631e-01   3.4386707e-01  -9.3882629e-02   7.2110677e-01  -9.6416594e-01  -2.8986613e-01  -8.3887167e-01   7.0244078e-01   6.4967779e-01   4.5592077e-01   8.3308692e-01   1.9339860e-01   9.3264516e-01   9.1984255e-01   9.4078781e-02   1.1205196e-01  -7.4402603e-01  -9.2449559e-01   4.8416810e-01   3.7391084e-01  -6.1347227e-01  -4.6047413e-01   1.7486126e-01  -8.3141145e-01  -5.9162212e-01   3.2800213e-01  -9.1778822e-01  -8.8994640e-01   8.3508090e-01  -6.4822762e-01   3.9710188e-01   5.2299076e-01  -5.8976109e-01   9.8049032e-02  -7.0148848e-01   2.8620445e-01   3.6139594e-01   1.2785795e-01  -6.8676795e-01  -7.2263842e-02  -4.5332525e-01  -7.3545173e-01  -9.5631482e-01  -5.5940744e-01   1.0285769e-01  -4.8688982e-01   3.9285805e-01  -6.7389535e-01  -7.9324489e-01   2.2208582e-01  -4.2561476e-01   9.0031334e-02  -9.4250749e-02   2.1636104e-01  -3.5580266e-01   8.3993609e-01  -8.9500837e-01  -6.5545431e-01   4.3376414e-01  -3.8241057e-01   1.0707711e-01  -5.6935015e-01   4.3057208e-01  -6.3303467e-01   9.5859589e-01  -5.1862393e-01   9.2268663e-01  -5.1600748e-01  -7.0724104e-01  -1.2225340e-01   5.9888284e-01   4.4484175e-01  -8.0299822e-01   6.6093219e-01   8.4249990e-01  -2.9360284e-01   2.8728638e-01  -9.9889156e-01  -8.4221630e-01   9.3841688e-01   8.3343354e-01   4.6260346e-01  -9.0602885e-02   2.8321159e-01   6.3080103e-01   7.4977247e-01   3.1639526e-01  -1.5581904e-01  -5.3650639e-01   9.6929078e-01  -7.5348223e-01   8.4910748e-01  -7.8532768e-01  -5.4452561e-01   9.5457701e-01   3.6500412e-01  -9.5901919e-01  -9.2745689e-01   2.6463735e-01  -3.5328006e-01   3.0810257e-01   7.6689706e-01   6.1619452e-01  -8.6214562e-01  -6.6790705e-01  -5.0113181e-01  -1.3814495e-01   9.6875877e-01  -5.1319453e-01  -1.2199333e-01   7.5167965e-01  -7.0917795e-01  -5.3208299e-01  -4.3764910e-01  -4.7637384e-01   9.6931717e-01   7.5835492e-01   4.6813315e-01  -8.8745162e-01   9.9316970e-01   1.2240425e-01   7.2174655e-01  -8.8754184e-01   9.7050387e-01   1.8961353e-03  -2.7928169e-01  -9.6742755e-01  -5.4634356e-01   5.1789862e-01   5.1111977e-01   7.9499681e-01   7.4475797e-01   2.4009793e-01  -5.3660112e-01  -9.3304288e-01  -5.7503606e-01  -5.5758618e-01  -6.2173730e-01  -6.8488616e-01   8.1216725e-01   5.5115894e-01   2.0792571e-01  -2.1449959e-02   2.0698166e-01   1.3724779e-01  -6.3774325e-01   4.3861252e-01   1.7046945e-01  -2.1178683e-01  -7.9373851e-01  -9.1157571e-01   5.7211545e-01  -3.6698060e-01  -8.6408226e-01   8.8685784e-01  -6.2347419e-01  -3.7113893e-01   6.1300856e-01  -6.5841916e-01  -1.9708101e-01  -6.8908899e-01  -8.6043238e-01  -5.5101001e-01  -6.1407823e-02   6.4689668e-01  -9.0094519e-01  -8.6090878e-01   9.9144911e-01  -3.7146193e-01  -2.1660910e-01  -8.2527193e-02  -6.9021767e-01   2.7244847e-01  -4.5110236e-01  -3.8727221e-01   3.7681314e-01   9.7112942e-01   5.7822373e-01   4.8267752e-01  -6.0240061e-01  -9.8537786e-01   7.9339390e-01   4.7707714e-02  -2.3471036e-02   8.1075685e-01   8.8954155e-01  -9.3964393e-01  -8.3183662e-01  -3.2128869e-01   3.4083268e-01   1.0023452e-01  -9.9136189e-01   5.9597493e-01  -4.7526405e-01   2.5006554e-01  -7.7305594e-02   9.9490909e-01  -6.2315108e-01  -4.3364573e-01  -6.0883100e-01  -4.1600619e-01  -3.5846478e-01  -9.7889720e-01  -7.0775240e-01  -3.9217951e-01  -9.7320828e-01  -3.2082938e-01  -7.5893073e-02  -5.3350627e-01   9.8446735e-01  -1.7921421e-01  -6.1090577e-01  -7.2718895e-01   6.6126618e-01  -6.3612182e-02   3.0682170e-01  -2.9955971e-01   2.5837163e-01   3.6938669e-01   6.5895387e-01  -6.3760000e-01   4.7225136e-01  -8.9269371e-01  -7.6572581e-01  -7.3189368e-01  -8.1633376e-01  -9.4092482e-01   1.1255602e-01  -7.9280565e-01  -7.3401156e-03  -3.9952994e-01  -4.6925947e-01   2.9877276e-01   2.7141463e-01   1.3504585e-01   8.5242104e-01   2.0406239e-01   4.6341219e-01   2.0708002e-01  -4.0155516e-01   8.0971997e-01  -6.4418908e-02   1.9978023e-01   1.2787056e-01  -2.2441954e-02  -2.7777990e-01   6.6267441e-02   7.5593346e-01   5.0319734e-01  -5.1858271e-01  -7.5417083e-01   7.7064875e-01  -1.1180136e-01  -4.0053926e-01   3.1814019e-01   3.6417316e-02   5.5940907e-01  -5.4856968e-01   5.4060216e-01  -7.1519117e-01  -3.8400605e-01  -1.7411930e-02   9.5030648e-01  -7.9936844e-01  -8.4923193e-01   6.6364070e-01  -9.0565056e-03  -4.3560638e-02  -5.5512995e-01   5.3454540e-01  -6.1075489e-01   7.0168694e-01  -8.4616971e-02   7.7248337e-01   9.8690565e-01  -5.1975868e-01   5.1671562e-01   8.8902182e-01  -7.0380669e-01  -9.6152887e-01   9.1767610e-02   3.6897318e-01   1.9266772e-02   4.4242074e-01   8.4144164e-01   9.6337704e-01  -2.1977193e-01  -3.3228991e-01  -3.4630396e-02   8.6325199e-01  -2.7568855e-01  -4.3009998e-01   5.3040248e-01   6.0795269e-01   6.7047450e-01  -9.9062087e-01   2.0358595e-01   9.9338572e-01  -5.5991834e-01   2.7496240e-01  -6.1261122e-01   7.4552720e-01  -6.9239375e-01   3.8005252e-01  -8.2310004e-01   1.2785016e-01  -8.5105161e-01  -5.6068728e-01   2.0801419e-01   3.5619284e-01   7.3280010e-01   2.7644348e-01   2.4466199e-02   3.4883377e-01   4.8551077e-01  -5.3752329e-01   3.0465768e-01   7.4600403e-01   6.1590495e-01   7.6228464e-01  -2.2866653e-01  -5.5372396e-01   4.3796170e-02  -1.1420931e-01  -7.2449186e-01  -2.3908022e-02  -1.4761592e-01  -5.2094237e-01  -1.8770208e-01   5.9851940e-01  -9.1154388e-01  -9.0431361e-01  -3.9915280e-01   9.6327323e-01   9.7261741e-02   1.9926100e-01   3.5499176e-02  -9.9993560e-01   6.7579228e-01  -8.7119073e-01   4.1706108e-01   8.0787598e-01   3.5025127e-01   3.5811058e-01  -3.7891636e-02   8.7509163e-01  -5.2347501e-01   3.3996468e-01   3.8689040e-01   6.9834581e-01  -3.0879450e-02   2.6280733e-01  -4.8417626e-02   9.7816254e-01   8.7631153e-02   9.7012908e-01   2.8851024e-01   1.1522881e-01   5.2138479e-01   9.0327522e-01  -1.0535368e-01  -6.2351298e-02   9.8790113e-01   6.8593812e-01  -3.8687331e-01   3.0682945e-01   7.8586345e-01   3.7435248e-01  -8.5853477e-01  -1.8736020e-01   3.4928441e-01   7.6400035e-02   5.0373580e-01  -5.1767789e-01   3.9663713e-01   4.0189125e-01  -3.7616448e-01  -6.3926301e-01   4.7944911e-01   7.4818675e-01   8.4311497e-01  -9.1750808e-01   6.8501767e-01   1.5183155e-01   8.0394225e-01   4.8933170e-01  -5.5973359e-01  -3.4061050e-01   3.7626734e-01  -1.2991314e-01   2.9475069e-02  -8.7333324e-01  -9.9319339e-01  -3.0822194e-01  -6.5848194e-01  -8.7572907e-01   5.9474799e-01   5.3453270e-02   8.9305173e-01   3.9836318e-01  -4.4666678e-01  -7.8452206e-01  -5.4514301e-01  -2.3292830e-01   9.1965068e-01  -4.3656285e-01   2.6510670e-01  -1.7565278e-01  -7.3923226e-01  -4.5619944e-01  -7.7925675e-01  -3.7274041e-01   8.3471489e-01  -7.8003315e-01  -9.4106372e-01  -2.5219608e-01   1.3372398e-01  -8.0174642e-01  -1.8100425e-01  -9.3106034e-01   4.1213799e-01  -4.8751056e-01   5.1739940e-01  -7.1411619e-01  -9.5160801e-01   1.9518084e-01   2.4564589e-01  -6.7007908e-01  -7.6498930e-01   2.0742488e-01   7.8097625e-01  -3.2663731e-01   4.2014413e-01   6.4063319e-01   1.9492697e-01  -5.9612624e-01   8.9608064e-01  -4.2300977e-01  -8.1011996e-01   6.0849681e-02   7.9428468e-01  -1.9467384e-01  -4.5659438e-01   1.8671498e-01  -2.1912950e-01   5.8934335e-01   5.6019659e-01   5.4888704e-01  -9.7398036e-01  -7.7911969e-01  -1.9173138e-01  -7.4947829e-01  -2.7627845e-03   4.0882782e-01  -6.7696861e-01   9.3737984e-01   9.4884959e-01  -4.9089680e-01  -3.0871836e-02  -7.8346198e-01  -9.7711563e-01  -9.4907219e-02   4.8916760e-01   3.3276296e-01  -2.5530618e-01  -8.1898824e-01  -2.1891789e-01  -6.2025161e-01  -2.1669020e-01  -7.0944137e-01  -1.4086115e-01  -7.6704636e-01  -5.9060232e-01   2.7240731e-01  -6.4397357e-01   6.2862871e-01   8.7861993e-01   6.4627540e-01   8.1908539e-01  -3.6721425e-01   5.5554386e-01  -7.6770814e-02   6.4305767e-01   7.2247969e-01   2.4170966e-01  -2.8646354e-01  -6.6183759e-01   1.9650102e-01  -8.9643151e-01  -6.2219672e-01   3.7855184e-01  -1.4517373e-01   6.4825619e-02  -9.8563887e-01   4.9852367e-02  -6.0291750e-01  -3.5814745e-01  -7.7091210e-01   8.1096069e-01   7.8591333e-01  -5.3719837e-01  -1.7132894e-01   5.9943964e-01  -5.1304083e-01  -9.6376805e-01   7.3444264e-01  -6.1408798e-01  -9.4928618e-01  -6.1077410e-01  -9.9349458e-01   6.8442276e-01   2.8680654e-01  -3.8915503e-02  -2.5632412e-01  -1.1602934e-01   2.2270078e-01   7.5180554e-02   9.9410891e-01  -1.9798311e-01   9.4735072e-01  -8.4946813e-01   2.3431472e-01  -6.2391000e-01  -8.7766603e-01  -9.7743057e-01   3.3251678e-01  -6.4979988e-01  -1.9827522e-01   1.0900777e-01  -1.5803881e-02  -3.6417216e-01  -4.4966879e-01   9.1619815e-01   8.1473000e-01  -1.6316790e-01  -3.1735186e-01  -8.7835731e-02   7.5865719e-01  -5.6508487e-01  -1.3802288e-02   1.6566465e-01  -1.2631641e-01  -8.5227866e-01   1.0878584e-01   2.9570041e-01  -3.3853293e-01  -1.0797413e-01  -3.3686681e-01  -2.1988094e-01   2.6344916e-01  -6.7193727e-01  -9.4944788e-01  -1.0403008e-02  -1.8858824e-01   1.1582603e-01  -1.6912466e-01   3.6737049e-03  -2.7803509e-01  -2.6309968e-01  -6.6277669e-01  -2.3622539e-01   2.6705969e-01   1.7968302e-01   4.3087230e-02  -2.4073634e-01   7.6662519e-01   7.0541991e-01  -5.2959810e-03  -2.9094578e-01   6.4318252e-01  -8.2459556e-01  -6.1657087e-01   6.2871525e-01   9.8523386e-01   6.0477471e-01   9.2524567e-01   6.2281370e-01   8.9532691e-04   9.6500279e-01   6.5954905e-01   9.4550828e-01   6.4470929e-01  -6.4151827e-01  -9.3645561e-01  -2.9010453e-02   6.8722122e-02  -4.9470388e-02  -6.0358933e-01   7.1891475e-01  -9.9737043e-01   6.4692404e-01  -8.4738380e-01   8.5575394e-01  -8.6610299e-01   8.7222126e-01   9.8391698e-01   1.7732958e-02   9.3186623e-01   5.0475359e-01  -3.8777767e-01  -5.6208557e-01   5.4725660e-02  -2.5607266e-01  -1.6475390e-01  -4.9511427e-01  -7.5512843e-01  -6.2669833e-01  -2.8993942e-01   4.2804306e-01   4.3661954e-01  -3.3584462e-01  -2.8558809e-01  -5.5611348e-01   1.8251586e-01  -3.9727100e-02   6.3817590e-01  -8.7665384e-01   1.1729098e-01   1.7650615e-01   6.0791146e-01  -5.6602740e-01  -6.9773919e-01   5.5332674e-01   1.3417820e-01  -8.5934903e-01  -1.3363736e-01   1.1174838e-01   7.5659824e-01   4.4962095e-01   7.3480540e-01   8.5381546e-01   9.3841192e-01  -6.7276234e-01   1.1319296e-01   3.4510440e-01  -7.5718737e-01   3.6993525e-01  -5.9369884e-01  -2.1753396e-01   9.1539011e-02  -6.0679423e-01   7.8830799e-01   4.3242444e-01  -2.7776278e-01   8.0905425e-01  -9.8843826e-01   6.1721125e-01  -7.7042445e-01   9.1760588e-01  -3.3872597e-01   1.4657452e-01   2.1266473e-01   6.5360044e-01   2.3423676e-01   6.3093590e-01  -7.2600285e-01   7.8683430e-01  -3.7622968e-01   9.4534293e-01   5.8417075e-01  -3.4050238e-01   8.4418639e-01  -9.7430734e-01  -8.7277476e-01  -9.5310939e-01   9.8850256e-01  -5.6614006e-01  -3.5594404e-01   9.0056224e-01  -8.4162601e-01   5.4121155e-01   9.9508945e-01   5.8101023e-01   9.1263639e-01  -2.3483581e-01   3.8474389e-01   3.1278232e-01  -9.8724261e-01   8.3179106e-01   8.8730907e-01  -5.7116732e-01   7.8879574e-01  -7.7657627e-03   9.0663509e-01  -9.7264703e-01   1.5977571e-01  -4.1215710e-01  -1.2968621e-01  -3.0628058e-01  -3.8069141e-02   4.2105610e-01   1.7382193e-01   8.8991579e-01  -4.6015348e-01   5.8683479e-01  -3.3928857e-01  -3.4267526e-01   8.3169604e-01  -9.4049901e-01  -4.9134162e-01   8.4701888e-01  -2.0407223e-01   6.7050497e-01   4.5664664e-02   9.8957393e-01  -2.7425506e-01  -8.1772901e-01   2.1835109e-01   6.3786303e-01   4.8301308e-01  -1.9438391e-01   3.0321760e-01   3.2279986e-01   3.1354214e-01  -3.0297005e-01  -7.5986973e-01   6.5190366e-01   8.0144301e-01  -3.4495591e-01  -7.4879826e-01   1.6953684e-01   8.8090099e-01   9.3573636e-01  -1.2905971e-01
  -8.2619776e-02  -2.2798810e-01   3.8724354e-01  -7.4886908e-02   4.8642526e-01   8.8809202e-01  -6.2574359e-01   4.3585057e-01  -4.2943475e-01  -2.7986074e-01  -7.6166404e-01  -1.7925896e-01   7.3659691e-02   4.1347222e-01   4.2555766e-01   4.7546136e-01  -8.6632723e-01  -7.4777896e-01   9.8935653e-02   8.9005157e-01   5.7298941e-01   5.2291184e-01   1.6130353e-01   6.7984508e-01  -7.5296579e-01  -5.4004864e-01   5.7285569e-01   6.9396403e-01   6.9034295e-03  -9.5370182e-01   5.8875944e-01   5.6106189e-01   4.4727238e-01   5.5931477e-01   3.9148428e-01   7.4121823e-01   4.4143073e-01  -1.9409601e-01   7.1908647e-01  -5.2905515e-01  -7.4100559e-01   7.4030925e-01  -5.2345753e-01   7.4608175e-01  -3.1939041e-01  -2.8192134e-02   6.3441077e-01  -7.3119244e-01  -1.7164934e-01   5.4073746e-01   2.7123797e-01  -4.9042163e-01   8.1922077e-02  -2.9720504e-01  -8.2510770e-01  -2.8602415e-01   7.8830140e-01   9.7902785e-01   6.7518049e-01  -1.4654353e-01   2.5692646e-01  -2.1612967e-01   6.5737712e-01   3.1232444e-01  -3.4385637e-01   3.0266813e-01   8.2387624e-01  -1.2594165e-01   9.5367451e-01   2.7017245e-01  -6.7103173e-01   9.8563290e-01  -7.2975949e-01   7.8227049e-01   9.2379651e-01   4.3242585e-01   8.0281514e-01  -7.0850549e-01   6.9717682e-02   8.3962396e-01  -2.1712028e-01   3.5097113e-01  -1.7539245e-01  -7.0482615e-01   9.9000864e-01  -1.2968292e-01  -7.5784843e-01   6.1405490e-01  -6.8011127e-01  -1.3198539e-01   5.1370465e-01  -3.2343231e-01   3.6536115e-01  -5.2443517e-01   2.7573228e-01  -5.7806033e-02   9.2076223e-01   2.6830282e-01  -1.8560156e-01  -1.3501776e-01   8.0526367e-02  -2.2140116e-01   4.9591767e-01   7.7711825e-01  -3.1184771e-01   3.2912436e-01   2.3642628e-01  -9.7001979e-01  -2.0587317e-01   3.5215737e-01  -6.5632776e-01  -7.3262224e-01   3.4735338e-01  -7.0698739e-01   7.6574559e-01   6.1238345e-01   2.2623609e-01   5.1441174e-01  -2.3477704e-01   7.0217520e-01  -2.1666798e-01   5.4764571e-01   1.8718428e-01   6.3387317e-01  -5.2237326e-01  -2.1948387e-01  -3.2487807e-01   9.4647589e-01  -6.6208731e-01   1.3771683e-01  -6.2073628e-01  -3.0552559e-01  -3.5548481e-01   1.7565143e-01  -2.1911534e-01   3.8815153e-01  -1.0700219e-01  -8.3562626e-01   8.5573319e-02   1.5844873e-01   5.4933754e-01  -5.4582320e-01  -1.9345339e-01   6.9054623e-01  -3.0208858e-02  -5.1547356e-01  -6.9903788e-01   6.9218943e-01   2.8333520e-01   4.0387892e-01  -8.7939602e-01   8.9918707e-01   2.5841330e-02   5.5486613e-02  -2.9273320e-01  -4.9450514e-01  -6.0127652e-01  -7.7593885e-01  -9.5012020e-01   9.7739335e-01  -6.4466790e-01   4.8752472e-01  -9.7344059e-01   5.0326491e-01  -1.9017525e-01  -9.4640046e-01  -2.1846226e-01   8.0524590e-01  -3.9146408e-01  -3.5611932e-01  -1.8187795e-01  -4.7934307e-02  -8.5295872e-01  -8.4253285e-01   6.1433442e-01  -8.0488821e-02   8.8538990e-01   5.1291425e-01  -9.3770236e-01  -1.4408543e-01   6.2436085e-01   2.8508200e-01   1.6395981e-01  -3.2234100e-01   7.7581061e-01  -3.3707857e-01  -2.8213862e-01  -7.3910047e-01  -5.4642694e-01  -9.7560790e-01   9.5580976e-01  -7.9930313e-01   9.5299632e-01  -3.6960110e-01  -2.5883117e-01  -9.9076117e-01   3.5304392e-01  -6.7139462e-01  -7.7068870e-01  -4.4272039e-01  -8.6592407e-01   8.6908405e-01   8.0066804e-01  -2.0581909e-01   9.3325112e-01   3.0834613e-01   4.4041667e-01  -2.8363862e-01  -5.6453224e-01   8.4811374e-01   4.6367116e-01   9.3500614e-01   8.2252879e-01   4.9499843e-01   6.7728603e-01   7.2825482e-02   8.1106251e-01   7.9775278e-01   8.8313121e-01   5.9879780e-01   2.0515277e-01  -6.1373755e-01   6.1401632e-01   7.3007625e-01  -1.0202747e-01  -1.2910238e-01  -4.1958786e-02   2.3190816e-01  -2.4994475e-01   2.7140941e-01  -4.4515621e-01   8.8331740e-01   3.5714795e-01  -9.2518332e-01  -7.9371382e-01   4.4801109e-01  -1.3653555e-01   3.2433460e-01   3.4364843e-01   2.4292575e-01  -1.6475017e-02   5.3491173e-01   7.4024567e-01  -9.1687690e-01   5.5063247e-01  -9.6783284e-01   6.5701792e-01  -8.3967304e-01  -5.9449665e-01   5.4158104e-01  -1.1749794e-01   6.6721060e-01   6.9169992e-01   2.6158163e-03  -5.7182783e-02   3.3090152e-02   6.9747772e-01  -4.4414354e-01   7.2629280e-01   1.5817372e-01  -8.6434860e-01  -7.9997099e-01  -7.0503641e-01  -1.9807497e-01  -4.5517459e-01   5.0808193e-01  -2.2102899e-02   1.1713032e-01   7.8857242e-01   3.5363832e-01  -3.5404488e-01  -1.6466940e-01   3.2434762e-01   4.5151147e-01  -9.5300252e-01   1.8135635e-01  -6.1640199e-01   1.5865723e-01  -9.7926882e-01   7.0052355e-01  -1.4391859e-01  -3.6797699e-01  -3.3870744e-01  -8.1520366e-01  -8.6358699e-01  -1.0572885e-01   3.4964888e-01   3.9420060e-01  -9.8278511e-01  -4.2100720e-02   6.5675676e-01   5.5816328e-02   4.9389256e-01  -3.9973694e-02   1.4671973e-02  -9.1361979e-01   8.7886092e-01   8.4740642e-01  -3.4553999e-01   2.2898043e-01   9.6470474e-01   3.0984329e-01  -9.8405763e-01  -4.7852375e-01   5.6234017e-01  -9.6480850e-01   7.0413527e-01   5.5431555e-01  -2.6642997e-01   4.2495930e-01  -9.2880811e-01   6.2529927e-01   9.2235618e-01   3.5489416e-01  -2.7632511e-01  -2.3369219e-01  -8.1001066e-01  -1.6792025e-01  -1.2588103e-01  -5.4838604e-01  -2.0054893e-01   3.9137901e-01   2.9890228e-01   5.5692266e-01  -2.7199180e-01   8.1580789e-02  -7.0339635e-01  -5.3951826e-01   8.8732757e-01  -7.5148224e-01  -1.1134233e-01   3.3697103e-01  -9.9261635e-02   8.9998413e-01   3.6985884e-01  -8.6213267e-01  -2.5811115e-01   8.7722381e-01  -9.1663502e-01  -9.9374366e-01  -4.3238677e-01  -1.0674491e-01  -5.0187644e-01  -2.4410999e-01  -1.9875563e-01   7.0429112e-01   1.5775123e-01  -4.3035101e-01  -1.7052489e-02  -1.3471711e-01  -9.0387218e-02   5.6486486e-01  -3.5397290e-01   5.6474246e-01   9.5952993e-01   3.3821974e-01  -8.9427116e-01   6.8892866e-01  -7.2547098e-01   4.3308566e-01   3.6094030e-01  -6.0465735e-01  -9.2506705e-01   3.4013770e-01  -4.3643255e-03   6.9796252e-01   8.5240461e-01  -9.3957830e-01  -7.0617616e-01   4.0541634e-01  -4.7624956e-01   4.4089330e-02  -7.4044839e-01  -9.4756197e-01  -6.0053703e-01  -7.3121936e-02   1.9896832e-01  -8.6964001e-01   4.6041142e-01  -9.9425087e-01   4.8214598e-01  -6.4773990e-02   4.7048270e-01  -5.1022487e-01  -3.6355462e-01   7.4581188e-01   8.4744239e-01  -4.2102938e-02   8.2963457e-01   4.8324143e-01   6.5674705e-01  -5.9123598e-02  -5.5092413e-01  -8.6516380e-01   2.0491629e-01   8.9661401e-01  -6.7552098e-01   5.2315267e-01   4.5519532e-01  -8.5569202e-01  -2.9614916e-01   6.5032026e-01   9.5775426e-02  -6.5522374e-01  -8.0170351e-01   9.0417079e-01   4.3949545e-01  -9.1899229e-01  -1.0092134e-01   8.7572409e-01   3.4483995e-01  -8.5858181e-01  -9.1472123e-02  -7.1545779e-01  -4.0159558e-01  -8.1339300e-02  -8.9843428e-01   8.6245224e-01  -6.9835718e-01   2.0303595e-01  -2.7835094e-01  -8.8349733e-02   7.3872097e-01   1.1612202e-01   6.1735507e-02  -8.4134528e-01  -9.7583952e-01   3.6151092e-02  -1.0348263e-01   4.9579202e-01   5.9251579e-01   3.0429963e-01   3.0276199e-01  -5.2689777e-01  -8.0508444e-01  -2.7830469e-02  -1.2836227e-01   1.3658091e-01   1.7436441e-01   9.0403802e-01   7.9045460e-01   1.8541673e-01   6.2297665e-01  -8.9204127e-01  -4.2193912e-01  -3.8581138e-01   6.8006765e-01  -8.1595012e-01  -4.1649446e-01   6.4515229e-01  -6.0209681e-01  -2.5147930e-01  -3.2570334e-01   7.9003202e-01  -7.6778475e-01   1.7836233e-01   5.8608187e-01  -8.0596059e-01  -3.4257295e-01  -3.3088920e-01  -8.5575214e-01  -6.7503230e-01  -9.6712066e-01   7.9340788e-01   9.6848906e-01   9.2021040e-01   3.1955409e-01   2.6159387e-01  -9.5107831e-01   9.3631025e-02   6.2092032e-01   5.4163124e-01   7.5054191e-01   5.4414766e-01   1.6274176e-02   3.5942553e-01  -2.9301201e-01  -6.6502436e-01  -7.5212166e-01  -4.4296256e-01   9.9237714e-01  -4.1976478e-01   3.9366813e-01   5.1861720e-01  -9.0758965e-01  -1.8835328e-01  -3.5146041e-02  -2.6636260e-02  -6.1901453e-01  -7.3623194e-01  -1.4839055e-01  -4.7790725e-01  -7.9653099e-01  -8.5299234e-01  -6.5733117e-01   4.5249620e-02  -8.0578076e-01   1.7480700e-01   8.5850250e-01  -8.5685886e-01  -4.4056760e-01   6.7155601e-01  -8.5269548e-01   4.0848756e-01  -9.0080670e-02   2.7524207e-02   2.7569186e-01  -5.9659729e-01   9.3144492e-01   3.8161598e-01   8.2201343e-01   5.3666899e-01   1.9871452e-01   7.2950875e-01   1.9422330e-01  -7.9899262e-01   9.9660824e-02  -7.9169132e-01   9.6749986e-01   8.8895356e-01   5.7005367e-01   3.4227853e-02  -6.5110655e-01   2.5911050e-01   2.2155984e-01  -7.0681350e-01  -9.1716292e-02  -4.6925193e-01   7.8704199e-01   7.9672173e-01  -6.4648492e-01   3.6988040e-01   8.2512569e-01  -7.8768237e-01   2.7566168e-01   5.1926979e-01   2.4186354e-01   2.1485579e-01  -6.6431927e-01  -1.2744120e-01  -3.7516036e-01  -6.3262674e-01   6.4895045e-01   2.4950652e-01  -7.4243517e-01  -6.7285099e-01   4.1706922e-01   4.6336676e-01  -1.4856893e-01   6.4473901e-01   7.2675098e-01   7.7742541e-01   7.2067194e-01  -2.4920978e-01   7.8704853e-01  -7.4389643e-01  -4.1833740e-01  -7.9220066e-01  -5.3728094e-01  -9.4801032e-01  -8.9383029e-01  -7.7140557e-01   2.1947697e-01   6.2449945e-01   7.2071164e-01   7.7565861e-01   1.6372110e-01   3.9361106e-01   7.4223386e-01   3.5740044e-01   6.6381267e-01  -1.2551745e-02   7.9821019e-01  -3.9356865e-01  -8.4373343e-01  -5.0645754e-01   6.6565181e-01  -2.3977553e-01   4.0718858e-01  -5.4447391e-01  -4.3928392e-01  -7.5216658e-01  -8.9413383e-01  -3.7328380e-01   9.6926501e-01  -1.4030432e-01   1.2498337e-01  -4.3948208e-01  -8.0763532e-01   8.0903981e-01  -5.4295120e-01   4.7848545e-03  -9.9370069e-01   2.3100009e-01  -5.0168664e-01  -6.5785119e-02   2.0744420e-01  -4.0145930e-01  -9.8012135e-01   4.4619089e-01  -7.8769469e-01  -8.4281189e-01  -8.9017343e-01   5.9022436e-01   7.6748361e-01   2.6248359e-01   4.6302258e-02  -8.4290002e-01  -1.5041802e-01   4.5767523e-01  -8.1835078e-01   5.2651115e-01   4.1651801e-01   1.2872143e-01  -5.7010230e-01  -6.8997399e-01   7.0686563e-01  -8.8372022e-02  -4.5800089e-01   6.6589285e-02  -1.2497043e-01  -5.9563963e-01   5.5062942e-01  -6.9366912e-01  -2.7490085e-01   7.6939141e-02  -8.3742108e-01  -5.4142524e-01  -6.0181653e-01   6.1709017e-01  -6.2070416e-01   7.8924451e-01   4.9957293e-01  -8.8950288e-01  -1.5612887e-01   1.9999788e-01  -8.0948004e-01  -7.2311801e-01  -3.9844978e-01  -5.2599197e-01   3.0020491e-01  -5.7385160e-01   4.0431447e-01  -5.6969876e-01  -8.5730524e-01   8.8556168e-02   2.6778166e-01  -8.7795593e-01   7.7968594e-01  -8.5911108e-01  -6.0581964e-01  -7.2617507e-01  -5.7512249e-01  -9.0142998e-01  -3.2803683e-01   4.6565393e-01  -3.3180254e-01   5.4671946e-01   2.9530016e-01   6.4227074e-02  -3.7239886e-02   2.3292278e-01   1.8123051e-01   8.9879755e-01  -7.0756493e-01  -3.3794517e-01  -6.5907568e-01   3.7327252e-01   3.9411234e-01  -1.0897203e-01   9.1653682e-01  -2.4108614e-01   4.2564685e-01  -9.9860124e-02  -1.1528794e-01  -5.7975415e-01   3.9188048e-01   7.3972061e-01   6.8885770e-01   1.3773071e-01   2.6163231e-01   4.7891161e-01   2.7555597e-01  -9.2231768e-01   1.1550799e-01  -2.1378807e-01   9.8052502e-01   4.2626144e-01  -4.4331600e-01  -8.4343744e-01   8.2477769e-01   9.4792697e-01  -9.5131222e-02   7.7810824e-01  -2.9830158e-01   6.7910842e-01  -7.1447317e-01  -7.1223673e-02  -1.9604145e-01   2.6204108e-01   5.7023681e-01  -1.9434944e-01  -4.0536212e-01  -3.9149900e-01  -7.2634580e-02   9.3034889e-02  -7.3241656e-01  -5.3658585e-01  -3.8491621e-01  -5.5594450e-01  -3.6194775e-01  -6.0279654e-01  -3.3208166e-01   4.3825685e-01   7.8809305e-01   1.7789973e-01  -9.5449168e-01   6.2393357e-01  -7.0315053e-01  -3.6385429e-01  -8.0263838e-01   6.9683885e-01  -9.3656922e-01   4.7758980e-02   8.9969524e-01   8.5965202e-01   5.3760903e-01   9.3284555e-01   3.5628214e-01   2.4669335e-01   7.2516820e-01   3.1758337e-01  -7.9878343e-01   9.4689999e-01   7.1255468e-01  -4.1909829e-01   4.0993879e-01   3.7091381e-01   5.4965121e-02  -4.7635370e-03   9.5524023e-01  -3.2131477e-01  -3.5074973e-01  -6.6865695e-01   7.8993782e-01  -1.3846054e-01   5.9559923e-01   9.0273887e-01   4.6542923e-03  -4.2621596e-01   3.8215308e-01  -7.3197786e-03   6.5221980e-01  -1.8177169e-01  -4.0315410e-01   6.1413377e-01   9.1166829e-01  -8.3122970e-01  -8.4246609e-02  -8.8232218e-01   2.3577525e-02  -9.3813735e-01   6.2574263e-01   4.8742942e-01  -1.3594366e-02  -7.9296925e-01  -2.4817543e-01  -7.8893009e-01  -9.8442184e-02  -2.9065444e-01  -9.3406427e-01   9.5468546e-01  -6.3124275e-01  -9.2463000e-01   1.2221922e-01   6.8212503e-01   8.8787322e-01  -6.6853945e-01  -4.3761868e-01   6.8414944e-01  -5.4187089e-01   1.9208722e-01  -4.4384014e-01   3.2934540e-01   4.6958747e-01  -3.2320218e-01   1.0187927e-01  -5.5492827e-01   9.9467467e-01  -1.4842772e-01   3.8872192e-01  -3.3664404e-01  -6.1201723e-01   3.0340013e-01  -8.1136835e-01  -3.4187413e-01  -4.0276693e-02   9.2027476e-01  -5.4603291e-01   4.2101311e-01  -3.9076858e-02  -7.5697210e-01   4.7293797e-01   2.9268819e-02   5.9304267e-01   7.0898339e-01  -9.0514484e-01   6.3343906e-01   5.2273684e-01  -2.5435241e-01  -7.7931751e-02  -9.4757785e-01   8.7274684e-01  -5.9720828e-01  -3.4848914e-01  -8.6150873e-01  -5.0720417e-01   2.3956579e-01   4.7812243e-01   4.7496329e-01   6.8266190e-01   9.2984491e-01   1.2252397e-01  -5.7867293e-01   9.0381473e-01  -3.1871654e-01   4.8946562e-01   5.7381086e-01  -5.3704041e-01  -7.2810938e-01   4.5748846e-01  -4.8456898e-02  -1.3416393e-01  -5.9402476e-01  -2.6415712e-01  -8.8634119e-01  -4.9405433e-01  -6.4647652e-01  -4.8724022e-01   9.8294934e-02   5.0201116e-01   3.1858013e-01   4.9880698e-01  -8.8275066e-01   1.0131350e-01  -7.0571372e-01  -7.8701969e-01   9.2383734e-01   3.4797263e-01   9.0128675e-01  -5.5225444e-01  -7.6379099e-01   8.7391186e-01   4.6357067e-01  -4.8172428e-01  -3.0853457e-02   1.5382994e-01   7.3556132e-01  -5.4210579e-02   4.8572530e-01  -6.5144205e-01  -2.8672304e-01  -5.0799661e-01  -7.8921016e-01  -2.9479070e-01  -9.1259948e-01   2.5102801e-01  -9.7716848e-01   3.7967752e-02   3.9611757e-01   5.6376458e-01   5.6148419e-01   2.3872521e-01  -2.1478114e-01   1.8225136e-01   2.4704474e-01   8.9603380e-01   9.2592321e-01  -7.7623393e-02  -9.1263090e-01  -9.4742156e-01   2.6249460e-01   4.3812345e-01  -7.4410552e-01  -9.6081990e-01   6.1372195e-01  -9.3659206e-01   9.7707513e-01  -2.0969815e-01  -5.7362322e-01  -5.1717354e-01   1.1389972e-02   2.2330311e-01   8.2602513e-01  -3.7551338e-01   3.4329413e-01  -4.1466463e-01  -4.2754112e-01  -5.7171261e-02  -4.0790754e-01  -6.6780477e-01   6.9499307e-01  -8.8175219e-01  -4.6387397e-01   8.7642660e-01  -8.3032973e-01  -1.9668600e-01   4.2951751e-01   3.8414299e-01   3.4485633e-01   5.5226517e-01  -2.8677628e-01   6.4058507e-01   5.4506348e-02   9.7824956e-01   8.9921009e-01  -7.9242268e-02   2.0979241e-01   2.8983000e-01   1.6252228e-01   7.2723139e-02  -7.4144521e-01   2.0472225e-01  -3.1330572e-01  -2.3675377e-01   1.9648913e-01   9.4210897e-01  -6.4515519e-01   2.6783931e-02  -3.7086394e-01  -7.6202115e-01  -5.6173736e-01  -2.7304743e-02  -5.8377305e-01   2.4839578e-02  -9.4313372e-01   7.3311907e-01  -8.9081386e-01  -8.0649644e-02  -6.4131099e-01  -9.1281743e-02   2.6839243e-01  -9.7238482e-01  -5.9789245e-01  -6.0807612e-01   9.7588842e-01   7.1221156e-01  -6.4908700e-01  -2.8198215e-01   6.7535294e-01   2.0977546e-01  -4.8847950e-01   1.9921543e-01  -2.2163474e-01  -4.5899769e-01  -5.6195597e-01  -6.3367217e-01  -4.9050563e-02   3.2742711e-02  -1.3657367e-02  -4.0248638e-01  -8.0023463e-01   4.3966073e-01  -7.2266810e-01   9.5423360e-01  -7.7874558e-02   2.0140086e-01  -4.1258453e-01  -7.5595136e-02  -7.9146141e-01  -8.9950735e-01  -4.6778160e-01   2.0181995e-01   2.2741596e-01   4.9356568e-02   7.5863756e-02  -5.6502029e-01  -8.5412714e-01   1.0617100e-01   2.0146141e-01   2.2662527e-01  -9.6716129e-03  -2.1455683e-01   5.1791627e-01   7.8340449e-01  -4.5916750e-03  -6.1223542e-01   4.6330142e-01  -1.7180514e-01   4.9008837e-01   5.6966620e-01   2.2303873e-01  -1.0842528e-01   6.0447913e-01  -3.2739371e-01  -4.7104762e-01   8.9455312e-01  -8.7316229e-01   5.1811685e-01   7.2524883e-01
  -9.3682295e-01   9.4765786e-03  -3.8710765e-01  -5.2617331e-01  -3.3376869e-01   8.3284673e-01   1.3669565e-01  -7.6902604e-01   4.4307012e-01   3.8079384e-01  -2.1257855e-01   6.1769545e-01   1.5426227e-01  -4.3089807e-01  -3.3458591e-01   6.1333777e-01   9.9323220e-01   9.6470588e-01  -5.5539032e-01  -1.3322447e-01  -4.5544442e-01  -8.3451734e-01   4.0257661e-01   7.2474109e-02   5.0087940e-01  -4.0367300e-01   9.9840602e-01  -6.2081525e-01  -4.5521819e-01   4.0550207e-01  -6.0684264e-01  -7.3964366e-01  -9.4592663e-01   3.6889194e-01   7.4528776e-01   5.2090633e-02  -5.1355919e-01  -1.1070533e-02  -9.0001104e-01   6.3070802e-01   3.7868305e-02   9.4864033e-01  -4.3117407e-01   4.4127431e-01   4.5936655e-01   1.0004395e-01   1.1564986e-01   2.8346270e-01  -4.5055897e-01   3.4823407e-01   2.9700556e-01  -4.1479882e-01   1.9661775e-01  -9.3665261e-01  -4.5056774e-01  -6.5552792e-01   6.2088545e-01   4.8649310e-02   3.4514119e-01   5.9132680e-01   2.8892112e-01   7.0721509e-01  -1.5920654e-01  -7.3938849e-01  -1.2738971e-01  -9.4300130e-01  -7.1388570e-01  -4.2515172e-01  -7.5366897e-01  -4.5374431e-01  -4.2618685e-01   4.8286033e-01   8.9245135e-01  -5.2842133e-01   2.2144391e-01  -1.7597217e-02   8.9486656e-01  -3.7097858e-01   2.4631070e-01   9.7885222e-01  -5.3489186e-01  -3.8790751e-01   6.3112773e-01  -6.6773058e-01   8.7079846e-01  -2.3790694e-01   3.1075890e-02  -6.3205457e-01   9.1150852e-01  -9.6224173e-01  -2.7533581e-01   7.3637388e-01  -8.9777036e-01   6.3887848e-01  -6.6300834e-02   6.9759718e-01   6.7857375e-01  -5.0665150e-01   6.6905473e-01  -3.6598637e-01  -6.1039355e-01   4.4884170e-01  -8.4656621e-01  -2.2019687e-01  -2.0901150e-01   3.5560329e-01  -7.2257560e-01  -3.1146235e-01  -7.1604555e-01  -9.5926820e-01   4.1720724e-01   6.1964330e-01   7.9197829e-01   4.8506478e-01  -4.0339896e-01  -3.0530880e-02   5.1254742e-01   1.3059494e-01   7.0398980e-01   3.6329188e-01  -3.7532061e-01   5.0265152e-01   4.0997158e-01   9.8747125e-01  -3.1923027e-01   2.8066785e-01   4.5510465e-01  -1.9814137e-01   6.7862688e-01   5.1986524e-01  -9.2231270e-01  -8.7835219e-01   7.0978065e-01   6.6163064e-01   1.4012861e-01   2.8370944e-01  -9.3554940e-01   8.4283511e-01  -4.8260759e-02   3.7036363e-01   4.0389697e-01   7.0360908e-01   7.6605479e-01   6.6979510e-01  -4.9391334e-01   5.4675244e-02  -2.0789901e-01   1.9640678e-01   2.3113422e-01   8.2047408e-01  -4.7709504e-02   2.1435123e-01  -5.9100602e-01  -9.7243326e-01  -8.2750555e-02   8.3950427e-01   1.5737427e-01  -8.6022964e-02   8.7568016e-01   5.1930519e-01   6.9835585e-01   9.5347140e-01  -4.9237661e-01   5.9961234e-01  -3.4926460e-01   2.1080951e-01   6.4899729e-01  -5.0727060e-01   1.4573592e-01   3.5407388e-01  -3.4976720e-01   3.9240530e-02   6.1813281e-01   5.8672664e-01  -1.2629988e-01   1.8932229e-03  -9.6332846e-01  -9.1099485e-01  -3.8512027e-01  -9.9479762e-01   9.9490517e-01  -1.6302643e-01  -1.6885115e-01   4.5584084e-02  -9.2789754e-01   8.7059341e-01   2.9752590e-01  -7.1716828e-01  -4.0730854e-01  -3.0049976e-01   8.5353355e-01   6.4733633e-01   9.2439928e-01  -3.4696517e-01   9.1957098e-02  -1.3333077e-01  -9.4885845e-01   7.0730281e-01   2.2664667e-01  -1.3724695e-01  -2.8617103e-01  -3.1295712e-01  -7.7578410e-01   2.0959479e-01  -9.1309471e-01  -1.8271998e-01  -5.0142442e-03  -8.0806291e-01  -4.9454476e-01  -7.8518798e-02  -9.4825712e-01   2.6609079e-01  -6.2647515e-01  -3.9638108e-01   4.9656454e-01  -6.5317440e-01   1.3004498e-01  -7.0206636e-01  -9.6263337e-01   4.6240228e-01   9.5503923e-01   8.9809318e-02   9.3338175e-01  -6.1817951e-01   9.7007826e-01   5.8293989e-01  -8.0488670e-02   8.9601788e-01   7.7129322e-01  -6.3535351e-01  -5.8589979e-01   4.8125107e-01  -1.4384307e-01  -3.0511973e-01   3.6323232e-01  -8.4666479e-01  -2.7161095e-01  -6.4315407e-01  -9.0385765e-01   4.3403544e-01   8.3907037e-01  -7.4578747e-01   5.9980622e-01   7.1265817e-01  -7.8381181e-01  -4.4660848e-01   5.5738315e-01   2.1557749e-01   5.9508756e-02  -8.5734236e-02  -9.0133035e-01   9.4587269e-01   7.4337381e-01   1.6261129e-01  -9.5417003e-01   7.1839557e-01  -4.0937814e-01  -3.6303632e-01   4.3931706e-01   4.3124548e-01  -6.3440201e-01   8.5167648e-01   1.7514681e-01   7.6872029e-02   2.6186285e-01   3.0139175e-02   9.9944849e-01   4.5313472e-01   5.2012462e-01   2.3469572e-01   6.9540027e-01  -7.7255935e-01  -5.5127646e-01  -7.4457860e-02   9.3630263e-01  -3.7214562e-01  -9.7584907e-01   4.7222082e-01   6.0688397e-01  -8.1146708e-01   2.6861479e-01   4.2948271e-01   1.0815694e-01   9.3448423e-01   9.8174048e-01   9.4400176e-01  -3.7370496e-01  -2.1037719e-02   8.4266091e-02  -3.4524456e-01   1.1011128e-01  -4.4206656e-01  -9.4930975e-01   3.3728550e-01  -8.6226421e-01  -2.3614741e-02   1.7036054e-01   8.3334892e-01  -3.5103670e-01   4.4425025e-01  -4.9429474e-01  -3.7133437e-01  -8.8591635e-01   8.3547345e-01  -1.3017479e-01  -4.0041603e-01   4.4610024e-01  -7.0003639e-02   3.0831189e-01  -2.6050544e-01  -1.9330601e-01   3.0039500e-01  -2.4037449e-01  -5.2097399e-01  -1.0462586e-01   7.8878672e-01   7.0589851e-01   8.7508145e-02  -8.5461339e-01  -6.4331493e-01   4.6331423e-01  -8.1588827e-01  -5.5266164e-01   3.6758330e-01  -1.8746068e-01   8.1230521e-01   4.9824648e-01   7.2510478e-01  -7.5302956e-01  -1.8037335e-01   7.5453655e-01  -8.2621507e-01   2.4887326e-01  -8.2361069e-02   4.7016829e-01   3.7386792e-01  -8.2791470e-01   3.8479146e-02  -9.2349730e-01   2.7963590e-02   9.4829173e-01   9.8154178e-01  -6.8510576e-01  -8.9719552e-01   9.6957693e-01   8.9604418e-01  -3.7324662e-01  -2.1733451e-01   9.5484604e-01  -1.1841441e-01  -9.3484336e-01  -8.6515299e-01   2.0931532e-01  -9.2293811e-01   4.9768198e-01   5.7894847e-01   5.1516344e-01   3.2346344e-01   6.1843021e-01  -9.0306080e-01   2.2519953e-01  -7.7837622e-01   5.0329243e-01   8.2451969e-01  -3.7856372e-01   1.9750275e-01  -6.1097793e-01  -2.0650930e-01   9.0827320e-01  -5.9889090e-01  -2.0602595e-01   8.8616913e-02  -8.2277936e-01  -1.5691802e-01   6.0211799e-01   5.4417631e-01  -6.7941939e-01   3.3512468e-02   4.1526120e-01  -1.2495990e-01   1.9543084e-01  -4.2481608e-01   7.6859487e-02  -9.8222516e-01  -9.4855986e-01   1.8381380e-01  -8.5609693e-03   6.9035502e-01   4.9596103e-01   4.6609471e-01  -6.5114913e-02   9.8468984e-01   7.2878787e-01  -3.3032368e-01   7.8983948e-01   8.3116353e-01   3.8592741e-01   4.7391459e-01  -9.9406536e-01  -4.2861269e-01   4.7254130e-01  -1.9160187e-01  -8.2091214e-01  -1.8210856e-01  -6.1676818e-01   4.9182020e-01   6.9060517e-01  -5.5229076e-01  -6.8676111e-01   6.4759086e-01  -3.6984798e-01   2.1685684e-01  -6.8133521e-01  -8.1674497e-01   7.8003977e-01  -2.8822422e-01  -8.7391933e-01  -2.4015356e-01  -7.6153748e-01   8.1674988e-01   5.6462966e-01   5.2736363e-01   8.9017677e-01  -2.5284891e-01   8.9800672e-01   8.5000845e-01  -3.5484359e-01  -8.5316383e-01  -4.9115808e-01   8.6032013e-01  -1.7304093e-01   9.6541167e-01  -8.1551923e-01  -7.9819451e-01   4.1235319e-01  -9.0822009e-01  -9.9538904e-01   1.1959208e-01   1.4572878e-01   9.6247420e-01   6.8645304e-01  -6.9734805e-01   1.2060712e-01   5.6832914e-02  -2.1827135e-01   1.2876284e-02   6.4589494e-01  -9.4264186e-01   8.0894884e-01  -7.0871520e-01   9.6176084e-01   3.0723978e-01  -4.2829942e-01   4.0782420e-01  -4.1950977e-01  -9.3645484e-01  -1.9123879e-01  -7.7782911e-01   4.4079002e-01  -8.2403411e-01   4.6331175e-01  -3.2055974e-01  -2.9403655e-01   3.4563144e-01   3.5084889e-01  -8.5417040e-01   6.2452795e-02   2.6725966e-01  -4.3212074e-01   5.1600538e-01  -3.4799546e-01  -3.9453673e-01   1.0693068e-02   7.5284176e-03  -9.7137442e-01  -8.9182750e-01   1.0562104e-01   1.2353232e-01  -5.5664549e-01  -1.9909837e-01  -4.1564273e-01   9.1416044e-01   7.3537765e-01  -9.2127138e-01   9.3357269e-01  -7.7006430e-01   6.1284095e-01   7.5528284e-01   8.5707958e-01   8.9639107e-01  -2.8086857e-01   9.4113561e-01  -5.7450822e-01  -4.6078323e-01  -7.1631561e-01  -6.1565367e-01  -9.0671405e-01  -1.7712075e-01   7.7249538e-01  -9.4052482e-01  -9.5163709e-01   8.7131007e-01   1.3459943e-01   5.1671280e-02  -1.8604317e-01   3.7087825e-02   9.4780216e-01  -6.8277492e-01  -2.8292247e-01   7.8725534e-01  -7.7750014e-01   3.4062256e-01   1.9502839e-01   9.4755609e-01  -3.7945192e-01  -9.8483244e-01  -9.1718045e-01   7.7921122e-01   5.0452999e-01   5.2091646e-02   7.5605826e-01   8.3467928e-01   5.5496103e-01  -5.6158909e-01   4.0934220e-01  -6.7717630e-01  -3.4060673e-01   8.5203898e-01   3.0888635e-01   9.4707268e-01   8.7832408e-01  -8.0713863e-01   6.3818229e-01   7.7647825e-01  -3.6107433e-01   6.6958227e-01   3.0052039e-01   2.2442076e-01  -4.6746953e-01   6.2356235e-01   6.3994571e-01   8.7082233e-01  -7.4181659e-01   3.2113138e-01  -4.9686970e-01   5.1783386e-01   1.6429318e-01   6.3131685e-01   7.8999030e-01   4.6693696e-01  -1.7186980e-01   8.9625890e-01   9.8341026e-01  -6.8095542e-01  -5.2301095e-01   5.8168465e-01  -3.6084365e-01  -6.6236886e-01   6.2308728e-01  -8.4920513e-01  -5.8976953e-01  -5.2657575e-01   6.5418847e-01   7.9527998e-01  -4.7389544e-02  -2.8453599e-02  -2.7196346e-01  -4.6671182e-02  -2.2396103e-01   7.0273086e-01   8.2644880e-01  -5.0144887e-01  -7.4305902e-01   7.1296176e-01  -9.2051576e-01   9.7904399e-01   3.1974044e-01   7.6838996e-01  -8.9032201e-01  -9.1771907e-01   1.2824144e-01  -5.8614111e-01  -1.5965613e-01   7.5282089e-02   9.9417856e-02  -9.0742468e-01  -1.0045228e-01   3.8356364e-01   9.8006302e-01   6.8552585e-01   1.1928985e-01  -8.1918515e-01   3.6321779e-01  -6.6796506e-01   1.0451371e-01  -2.5219218e-01  -2.5134074e-01  -8.4210914e-01  -7.9960542e-01  -5.5177463e-01   5.0812804e-01   9.0217923e-01   3.5483076e-01   4.2780772e-01  -2.3488905e-01   8.4690473e-01   6.7571248e-01   3.8906209e-02   2.5417260e-02   3.5399185e-01  -2.1612779e-01   7.8382662e-01   6.6587740e-01  -5.4176645e-01  -1.9246103e-01   1.9630862e-01   2.1399139e-01   9.1570077e-01   6.7685590e-01   8.0153488e-01  -9.8953275e-01  -6.5168215e-01  -8.2382178e-01  -4.4187327e-01  -8.0117895e-01   9.7391339e-02   6.2878508e-01  -4.4078932e-01   8.4502408e-01   4.9324615e-02  -8.4801411e-01   5.1841386e-01   1.4094262e-02  -5.8710159e-01  -5.2801715e-01  -1.2744093e-01   2.8505066e-01   5.4827073e-01   5.5686188e-01   5.0718167e-01   4.2155479e-01  -9.8215950e-01  -3.4491740e-01  -4.6837132e-01   7.2844553e-01  -7.2106335e-01  -5.7285359e-01   6.3035151e-01   7.3584102e-01  -7.9503375e-01  -4.2152843e-01  -9.2627133e-01  -7.2195398e-01   7.2882010e-01   9.3478099e-01   2.3482243e-01   1.0570204e-01  -6.2737804e-01   4.5864775e-01  -3.4835635e-01  -8.4054204e-01   9.4394028e-01  -4.5680652e-01   3.2018975e-01   5.5229485e-02  -9.9889686e-01   2.1344568e-01  -2.6800230e-01  -1.1320706e-01   8.7845934e-01  -2.1156817e-02  -2.3806560e-01  -2.7574019e-01  -7.7689946e-01  -8.8453732e-01  -4.5819381e-01  -5.8427201e-01   1.5337681e-01  -6.9972432e-01  -5.5344343e-01   3.3223594e-02   1.3592365e-01  -3.9200723e-02  -8.4437682e-01  -7.3269204e-01  -8.7029460e-01  -4.7857875e-01   8.6880851e-02  -2.9723981e-01   6.2962597e-01  -2.4486487e-01  -7.8989396e-01   1.1804712e-01  -5.4284311e-01   2.9619833e-01   3.4165742e-01   6.4382104e-01   4.8314087e-01   2.2156707e-01   6.8616097e-01  -6.4750421e-01   4.6192851e-01   1.4658979e-01  -6.7389953e-01   1.6095081e-01  -3.0077850e-02  -5.2069851e-01  -3.2895909e-01  -4.4551725e-01  -1.1053791e-02  -2.5988267e-01   6.0385303e-01   8.8704654e-01  -6.4480377e-01  -1.6508237e-02  -6.9631719e-01   9.4268055e-02  -8.5691246e-01  -1.5197954e-01  -5.1462644e-01   6.0465604e-01  -7.5887545e-01  -3.5608111e-01   3.7514465e-01   9.1828076e-01  -3.6511847e-01  -8.7862805e-01  -7.3163053e-01  -6.1571475e-01   2.4264697e-02  -9.4586967e-01   6.8378471e-01  -5.1566203e-01   9.6115264e-01   8.2868756e-01  -6.6716051e-01  -9.7746778e-01   2.0665017e-01  -6.7820405e-01   4.0954658e-02  -8.8655772e-01  -1.7636918e-01   4.1296445e-01   3.8369385e-01  -6.7698377e-01   3.6195054e-01  -2.7481882e-01  -5.8800992e-01   2.6177008e-01   7.9155746e-01  -8.0864196e-01   9.0265976e-02  -2.8867904e-01   5.0342733e-01  -7.2073165e-01   2.6619827e-01  -1.6106172e-01  -1.5412679e-01   7.4289039e-01   4.4134239e-01   3.1351747e-01   4.7255235e-01   8.4749836e-03  -4.9321644e-01   2.6930554e-01  -9.6858689e-01  -3.9818615e-01  -2.2639722e-01   5.4457752e-01  -9.9529152e-01   9.8476166e-01   8.1924214e-02   4.2410958e-01  -5.5501216e-01  -5.9597665e-01   6.9413184e-01  -7.1460307e-01   6.6191805e-01   8.5592259e-01  -8.6491453e-01  -5.5050617e-02  -4.3554071e-01   7.9513183e-01  -1.1227811e-01   1.1537878e-01  -3.1514646e-01   7.6877134e-02  -9.1802864e-01   2.3359631e-01  -6.1170153e-01   6.8499279e-01   7.1014068e-01   4.3935747e-01   9.6897049e-01   3.9308950e-01  -4.1019481e-01  -9.2433978e-01   5.6050456e-01   4.1036832e-01  -5.0053164e-01   5.5477646e-01  -4.2123527e-01  -1.3050018e-01  -1.1557540e-02   4.4108293e-01   5.4959868e-01  -3.1529082e-01  -7.6216799e-01  -3.4300685e-01   6.8458890e-01   2.4413785e-01   7.3316622e-01  -6.0427194e-01  -8.6863897e-01  -8.5602955e-01  -2.8914619e-01   4.1578417e-01  -7.2106693e-01  -6.9422550e-01   2.0579005e-01   9.3423365e-01   8.5667833e-02  -7.9922387e-01  -4.9461701e-01  -1.5307872e-01  -8.4976195e-01   2.0133216e-01   1.0658301e-01  -5.4298439e-01  -7.7499296e-01   6.1230001e-02  -2.4699679e-01   9.6258369e-02  -6.9187701e-01   7.0852431e-01   2.9552558e-01  -4.5308866e-01   5.4509716e-01   4.4561354e-02  -5.9585466e-01  -2.5922770e-01  -7.2638911e-01  -9.5232229e-01   3.0093578e-01  -1.6234999e-02  -8.6304194e-01  -1.6598768e-01   9.8664386e-01  -2.0429480e-01   6.7054078e-01  -2.1727099e-01  -8.4605598e-01  -8.5680988e-01   3.1701112e-01  -2.4034809e-01   2.1612963e-01   2.6981077e-01  -4.3827452e-01  -8.4607397e-01   2.1122246e-01  -3.7484165e-01  -9.5126480e-01   1.4957871e-01  -5.1454108e-01   9.4098196e-01  -5.7029837e-02   5.5165092e-01  -4.0881538e-01  -5.9975267e-01  -4.5486497e-01  -8.4027066e-01  -5.6359537e-01   7.2331519e-03  -9.3184489e-01   8.8894814e-01   6.5531770e-01  -5.9101063e-01  -1.2918644e-01   7.3683972e-01   3.0422634e-01  -2.5995018e-01  -1.5291774e-01  -5.6709381e-01  -8.9269000e-02  -3.7969329e-01   7.1000791e-01  -1.8544356e-01  -4.2115736e-01  -2.1787149e-01  -6.9108932e-01   5.5640870e-01   2.5710333e-02   9.3726002e-01   2.8030633e-01   7.7981976e-01  -9.5227522e-01  -7.3763619e-01   3.6627777e-03   2.7814918e-01   7.6221457e-01  -3.3479014e-01   8.1524017e-01   5.7315738e-02   5.8286267e-01  -7.8896975e-01  -1.0124466e-01   6.3753098e-01  -1.0431486e-01  -2.5990741e-01   3.2141552e-01  -7.3736290e-01  -5.6073346e-01   1.4848097e-01   2.4361387e-01   6.8304680e-01  -2.9447990e-01  -9.6464420e-01  -8.1694000e-02  -3.1656348e-02   5.0123978e-01  -1.3341677e-02   9.0429069e-01  -4.8559501e-01   2.8692108e-01   3.7717312e-01   1.6468311e-01   7.6542861e-01   1.6259411e-01   8.0519922e-01  -5.2098871e-03   8.7135248e-01   8.4761315e-01   9.8351039e-01  -1.7768393e-01   8.1372069e-01  -9.8758140e-01  -9.2570495e-01   8.0337101e-01   7.2633119e-01  -1.5356925e-01  -6.9893475e-02  -3.1375761e-01   4.2707040e-01  -6.1859077e-01   1.3985464e-01   6.7676947e-01   6.7987510e-01   8.3060522e-02   9.1026192e-01   3.5302905e-01  -2.8339413e-01  -7.2140545e-01  -1.3743666e-01  -3.2357919e-01  -1.3744847e-01  -8.4835704e-02  -4.7838260e-01  -1.0872654e-01   9.0319120e-01  -3.7530800e-01  -8.9133031e-01   1.0571981e-02  -9.6396100e-02   9.3977755e-01  -6.0510402e-01  -1.9941269e-01  -3.4235762e-01   7.0894402e-01   2.6573296e-03  -4.1861302e-01  -5.7818463e-01  -8.8135043e-01  -3.6099618e-01  -9.8491624e-01  -9.0033806e-01   5.8573228e-01   2.8665168e-01  -6.0403361e-01   2.5796864e-01  -5.3735078e-01  -2.3789754e-01   7.4199598e-01  -4.1375032e-01   1.3009417e-01  -3.4817898e-01  -2.8041476e-01  -3.9940619e-01   7.5323086e-01  -2.4685610e-01  -3.1808702e-01  -9.2568388e-01   1.3649522e-01   4.7504190e-01   3.4436545e-01   7.6716350e-01  -9.5015251e-01   6.1176235e-02   3.9312126e-01  -9.7478779e-02   2.6400754e-01
   2.9930396e-01   9.4405960e-01  -3.1562314e-01   1.8192921e-02  -9.9785550e-01   6.1972970e-01   2.6991890e-01  -6.2605126e-01   9.3399439e-01  -9.0632622e-01   1.9988762e-01  -1.4478173e-01   7.7720077e-01   6.4460314e-01   3.7753378e-01  -4.7799067e-01  -4.2548013e-01  -8.5483991e-01   4.5788225e-01   5.8029671e-01   8.7875581e-01   3.2542062e-01  -6.8082251e-01   2.7680226e-01  -8.4355470e-01   6.9532928e-01  -2.9004402e-01   1.8677742e-01  -3.6879386e-01  -6.4820584e-01   7.0918180e-01   2.9805589e-01   6.0900488e-01   2.7547210e-01  -9.9387393e-01  -8.3844689e-01   5.8443202e-01   6.5621546e-01   3.4003271e-01   3.2532845e-01   5.3924509e-01  -3.0561464e-02  -4.1951341e-01   8.4175387e-01  -5.6943002e-01   6.2841087e-01   9.3230854e-01  -2.3394208e-01  -1.3374882e-01   4.1018851e-01  -3.5284783e-01   4.6201622e-01   9.4525456e-01  -9.2495323e-01   8.4859864e-01  -5.1021579e-01   5.6149532e-01  -4.8258564e-01   5.2967787e-01   2.2635633e-01  -3.4879287e-01   2.4102652e-01  -4.0233872e-01   4.1999231e-01  -2.8530388e-01   5.2704760e-02   9.4141231e-01   8.8811883e-01  -7.9636145e-01   8.6767808e-01  -1.5030210e-01  -4.5444667e-01  -2.7997123e-01   4.9171786e-01   2.5249133e-01  -8.5564684e-01   2.8064927e-01  -4.6421882e-01  -7.3251002e-01  -2.1681114e-01   1.1404844e-02  -6.1556871e-01  -8.9766197e-01   4.9326946e-01  -4.2541580e-01   8.4772312e-01  -6.8865879e-01  -5.5851399e-03  -3.5038471e-01   5.1926940e-01   9.7088026e-01   7.5913777e-01  -3.3542895e-01   5.5242009e-01  -3.6936884e-01   1.9559035e-01  -5.6924814e-01  -6.3246056e-01   6.8671062e-01  -5.3755905e-01  -8.4702387e-01   5.5396471e-01  -7.5503197e-01  -4.7754457e-01   8.2368916e-01  -3.5166166e-01   8.8600490e-01   1.9284294e-02   8.7137456e-01   6.0365197e-01   1.6586870e-01  -2.4504056e-01   5.9721052e-01  -4.1514219e-02   1.6579148e-01   6.8919409e-01  -1.0634961e-01   8.9906221e-02  -7.4674148e-01  -1.5236057e-01   2.1262546e-01   5.7032214e-01  -4.2864672e-02  -3.9125566e-01   6.4449381e-01   9.4917723e-01   6.3985005e-01   6.9656024e-01   2.4588447e-01  -6.3741430e-01  -6.7977737e-01  -6.0593873e-02  -4.8271411e-01  -7.8513125e-01   1.7205300e-01   2.4478653e-01  -5.0940092e-02   2.9907206e-01  -2.4366098e-01  -1.4183703e-01   4.7443300e-01   2.2902447e-01  -6.4250471e-01   1.7769277e-01   1.1499419e-01  -5.9416263e-02   7.6242350e-01   2.7235332e-01   9.2424998e-01  -8.3734273e-01   7.0857875e-01  -2.3146875e-01   9.2705461e-01   2.6906391e-01  -9.5663763e-01   3.4827659e-01   2.7389175e-01   6.3458539e-01  -7.9117753e-01   1.0998430e-01  -4.1166355e-01  -7.4114964e-01  -4.8064223e-01  -6.2360762e-01   6.6011781e-01   1.4790019e-01   6.1386365e-01   2.6376873e-01  -1.3588647e-01   8.7125399e-01   6.4419432e-01   9.4442396e-01  -1.7357181e-01  -5.2071058e-01  -4.7048060e-01  -7.5938629e-01   7.7587644e-01  -4.7634942e-02   8.5470076e-01   2.2878464e-01  -9.9669038e-02  -8.3431921e-01   8.7063620e-01  -4.9336628e-01  -6.1749138e-02   4.6380948e-01  -1.8897255e-01   6.0946644e-01  -7.9846230e-01  -3.9799736e-01   6.8018693e-01  -5.7943982e-01   4.2109628e-01   6.9807173e-02  -5.9944830e-01   9.8542978e-01  -5.9551987e-01   9.8646945e-01   2.3623692e-02  -4.9368587e-01  -5.3046215e-01  -5.0671773e-01   5.4425960e-01   3.7903534e-01  -4.7029873e-01   3.4912953e-01   4.9112805e-01   7.6808559e-01   2.1976902e-01   2.4722861e-01   9.8989389e-01  -6.1170607e-01   6.5791649e-01   6.8952641e-01  -7.0252845e-02  -8.9865625e-01  -2.5135922e-01  -1.0828950e-01  -9.7726999e-01   7.5070370e-01   7.8619894e-01  -3.4423328e-01  -8.8749458e-01  -4.3420453e-01   2.7666102e-01   6.3043439e-01   3.1272153e-01  -3.8313488e-01  -5.1582281e-01   4.9227113e-01   5.0509284e-01   4.7999058e-02   1.3220509e-01   5.2665666e-01   5.8250502e-01   6.3985741e-01   2.2316060e-01  -9.2278573e-01   7.6104747e-01  -4.5267834e-01  -6.6514478e-01   9.3969396e-02  -6.0787344e-02   9.8052803e-01  -1.8826895e-01   2.6165429e-01  -3.8478989e-01  -1.4928941e-01   2.9852836e-01   3.0623169e-01   6.1864831e-01  -2.0575698e-01  -8.2316488e-01  -7.9247516e-01   1.8041922e-01   2.1952267e-01   1.2156522e-01   1.2990554e-01  -6.6739967e-02   3.0142311e-01   7.4843861e-01  -2.7185563e-01   4.0421430e-01   2.1475206e-01   8.1254503e-02   1.7775648e-01   9.4609165e-01   8.1339269e-01  -5.6603585e-01   9.3292393e-01  -5.8639019e-01  -3.3134737e-01  -1.4809087e-01  -2.0874342e-02  -7.1883634e-01  -5.4603344e-01   5.1159599e-01  -7.1871395e-01   8.7004405e-01   7.7854757e-02  -4.7459036e-01  -8.0459325e-02  -8.4034026e-01  -9.7383487e-01   6.8208736e-01  -4.0668973e-01   7.2120384e-01  -6.5590542e-01   7.0655783e-01  -9.5377658e-01  -8.5517062e-02  -1.1753141e-01   5.4149325e-03   2.5764949e-01   1.7540846e-01  -8.9803606e-01   6.7353405e-02   7.8911955e-02   2.2525423e-02   7.8674188e-01  -2.7729616e-01  -6.4230442e-01  -2.5928655e-01   1.6052576e-02   2.1607040e-01   7.5288488e-01  -2.9697536e-01   8.4927272e-01  -8.3122252e-01   5.8324187e-01  -2.6716382e-02   5.4018817e-01  -7.9516816e-02   2.4876088e-01  -5.0411910e-01  -1.5824746e-01   1.4112105e-01   8.9206122e-02   4.3929823e-01   3.5359353e-02  -9.1910795e-01  -9.1804790e-01  -1.7676470e-01   4.8394824e-01   7.8366091e-01  -6.5212746e-01   5.3951160e-01   2.5693727e-01   2.8598410e-01  -5.2477904e-01  -9.3836327e-01  -7.1859634e-01   2.9764367e-01  -8.7266135e-01  -8.5057438e-01  -2.3875311e-01   6.3234296e-01   3.1829088e-01  -5.9863012e-01  -7.0864941e-01  -5.7078728e-01   2.0825617e-01  -8.3920651e-01  -6.9074207e-01  -2.3927994e-01  -9.0847029e-01   7.4208921e-01   2.9819404e-01  -8.9298262e-02   7.5084068e-01  -3.1414735e-01  -7.2270477e-01  -5.8335680e-01   7.3249902e-01   4.4222931e-01  -6.2947275e-01   1.0880234e-01  -4.6181896e-01   8.0157185e-01   7.1318036e-01   5.7556731e-01   9.8128443e-01  -8.3489494e-01  -6.3024628e-01   5.3638408e-01  -5.9640394e-01   9.8260965e-01  -7.5444193e-02   1.7294084e-01  -5.4786419e-01   6.1574436e-01   2.4140858e-01  -5.3554317e-01  -1.1300431e-01  -6.0233813e-01  -7.4769239e-01   3.6825869e-01   8.0854924e-01  -1.6510452e-01   4.3378140e-01   5.5207940e-01  -2.9362354e-01  -9.7169409e-01   3.9695759e-02   7.9222072e-02  -2.2810340e-01  -1.8478516e-01   7.9049109e-01   7.1895517e-01   9.8307276e-01  -2.6601790e-01   5.5764555e-02  -5.2079280e-02   5.0066893e-01   3.8555196e-01   8.4466715e-01  -5.4435728e-01  -6.8691064e-01  -8.1233074e-03  -7.3635568e-01   4.4799018e-01   5.3220920e-01  -6.8645622e-01  -1.8166395e-01   3.8378602e-02   7.8935053e-01   4.3862516e-01  -4.4541790e-01  -3.6752183e-01  -9.4892528e-01   6.9160098e-01   7.1780848e-01  -7.6707797e-01   3.5007621e-01   9.0129474e-01   9.4800186e-01  -8.4259516e-01  -6.6412886e-01  -9.8769192e-01  -5.9053873e-01  -3.0369781e-01   3.7988662e-01  -9.5466809e-01   8.0659991e-01   5.8448360e-01  -6.6878007e-01   8.6769383e-01   7.8717950e-02  -4.3213681e-01  -4.8457298e-02  -6.0302170e-01   6.4686025e-01   4.6999526e-01  -6.0529870e-01  -8.7467847e-01  -5.4971995e-01  -4.2965930e-01  -9.7756637e-01   9.7125287e-02  -2.6138882e-01  -4.4512771e-01  -4.9663809e-01  -8.0387846e-01   3.8454710e-01   4.8560833e-01  -1.0436957e-01   7.0035361e-01  -1.3323455e-01  -1.0365264e-01   8.9286310e-01   2.6419787e-01  -2.7713926e-01   2.7681787e-01  -5.5933205e-01  -5.0251426e-01   5.4098411e-01   4.8375013e-01  -9.0747345e-01   7.2606817e-01  -6.8495724e-01  -3.9022757e-01   5.8341770e-01  -9.5751797e-01   2.1423533e-01  -7.2201900e-01   7.8036157e-02  -6.0236234e-01   1.6980674e-02   7.8281118e-01   3.3700765e-01  -7.2673301e-01   2.8241342e-01   2.1335084e-01  -4.3060638e-01   5.3670896e-01   4.3285234e-01   9.7038584e-01   6.5852681e-01  -2.3585401e-01  -5.5374675e-01   8.4452719e-01  -5.6922634e-01   6.8699518e-01   1.8501282e-01  -1.2500534e-02   8.8345827e-01  -9.7761428e-01  -2.5202488e-01   9.7264334e-01   2.6618949e-01   9.9860185e-01   9.8093547e-02   8.8374452e-01   6.3756397e-01   6.3569855e-01  -2.2708190e-01   4.8302049e-01   9.9163555e-01   3.2776808e-01  -7.4336297e-01   9.8771235e-01   1.0558563e-01  -4.4303313e-01  -2.5530231e-01  -9.7940262e-01  -9.9278492e-01  -4.5400984e-01  -1.6814981e-01  -4.1017578e-01  -9.6772775e-02   6.3245719e-01  -8.4740611e-02   4.2958416e-01  -3.7072410e-01   9.3467178e-01  -2.3319390e-01   6.2440737e-01   9.4017218e-01   9.6373540e-01   2.8034165e-01   6.7664582e-01   5.4923677e-01  -5.6261837e-02   8.8689508e-01  -1.1389778e-01  -8.5208231e-01  -4.4011209e-01   8.2317079e-01  -9.8618316e-01  -6.8600510e-01   2.1204110e-01  -7.3514800e-01  -3.3179854e-01  -5.0078517e-01   9.4883632e-01  -7.3541921e-01  -2.2970410e-01   2.4838347e-01  -7.3506826e-01  -2.1312884e-01   2.4233044e-01   6.3574930e-01  -3.5145400e-01  -4.0822110e-01   9.7221287e-01  -5.5646264e-01  -8.2668292e-01   1.7398794e-01  -6.0591488e-01   7.3814137e-01  -8.3295632e-01   7.0881048e-01   9.3911624e-01  -2.1648684e-02   9.7392647e-01   5.6253249e-01  -5.2839683e-01   6.7625475e-01  -9.4592097e-01   8.7977808e-01  -5.6606733e-01   7.0869788e-01  -8.4550932e-01   2.4888230e-01  -2.7940890e-01   7.3083000e-01   6.5890495e-02   3.3113875e-01   8.7304829e-01   6.6297725e-01  -8.7450586e-02  -2.9460846e-01  -2.1766697e-01  -6.7590784e-01   2.0061115e-01   1.8711495e-01  -3.0401600e-01  -7.7313373e-01  -9.6169524e-01  -8.4740486e-01   3.0059221e-01  -9.2217271e-01  -1.7154922e-01  -8.6411541e-01   6.5755767e-01  -9.7315221e-01  -7.7821986e-01  -4.6773914e-01   8.8451325e-01  -7.7147297e-01  -6.3042211e-01   1.2387268e-02   2.7984626e-02  -5.3259621e-01  -6.5554607e-01  -2.3103008e-01  -9.2198228e-01  -3.2110527e-01  -3.8168180e-01  -3.4034918e-01   9.3550453e-01  -1.8611469e-01   4.9301036e-01   8.0283769e-01   9.4217962e-01  -9.2831600e-01   8.7634225e-01  -7.2273065e-02   4.1347803e-01  -3.2333898e-01  -8.8674163e-01   3.0017367e-01   7.8492972e-01   2.8722472e-01   9.2304085e-01  -6.6527204e-02   9.2075729e-01  -4.9368764e-02   5.1680334e-01   8.6882390e-01  -4.4807687e-02   4.1149501e-01  -2.1787642e-01   8.9205653e-01  -1.7475217e-01  -9.7949665e-01   2.7895786e-02   1.0028381e-01   9.7497001e-01  -3.8829678e-01   9.3820032e-01   1.6764330e-01   4.9917316e-01   9.0612337e-01   5.4059670e-01  -2.9650790e-01   2.1453921e-01  -8.3303471e-01  -9.5747699e-01   9.9244897e-01  -9.6080815e-01   9.3813149e-01  -2.1410402e-03   5.8658189e-02  -5.5411855e-01   8.7649048e-01  -9.4159504e-01  -1.4616673e-01  -4.4245949e-01  -1.3531684e-02  -7.3558034e-01   6.4545859e-01   6.3090039e-01   5.7107175e-01  -9.7774517e-01  -4.5454179e-01  -1.0112033e-01  -3.1335975e-02   9.3406191e-01  -9.5091528e-01   9.0116452e-01   9.0875736e-01   3.7885596e-01  -9.1149567e-01  -4.0069638e-02   1.4589389e-01   2.8914984e-01   6.4099298e-01   9.3303141e-01  -7.3921941e-01   2.7217192e-01  -7.9602562e-01   9.9613907e-01  -4.4064311e-01   8.0121978e-01  -7.7244018e-01   8.1864649e-01  -7.2097257e-01  -2.1396895e-01   4.9134479e-01   1.8362506e-01  -8.9485502e-01  -6.5774468e-01   3.7777402e-01   7.8057696e-01   5.7397728e-01  -1.9429770e-01   4.4397442e-01  -7.2192918e-01  -5.3301295e-01  -9.2794366e-01   2.2985737e-01   8.2149456e-01  -5.1461981e-01  -4.5024889e-01  -2.4259580e-01   4.9255124e-02  -2.4878838e-01  -8.2867587e-01  -8.5398652e-01   4.8967688e-01   4.7574488e-01   4.8637668e-01  -2.7540108e-01   8.3414274e-01   9.4355716e-01  -3.7861318e-01  -2.7541206e-01   5.7474222e-01   3.9553702e-01   8.5807903e-01  -8.5853686e-01  -6.8324530e-01   3.1945973e-01   8.5836114e-01  -5.7721336e-01  -4.5837039e-01   1.4410002e-01  -7.3995130e-01   9.2170297e-01   3.9733683e-01   5.2711455e-01   6.1826620e-01  -8.3436560e-01   7.2249635e-01  -3.8608479e-02  -5.2552166e-03  -5.3453960e-01   1.1473279e-01   7.2252749e-01   9.7845509e-01   2.9705693e-01   5.1447325e-02  -8.0477851e-01   1.0742359e-01  -1.6339085e-01   1.5372198e-01  -1.7759162e-01   4.0793564e-01  -4.6062579e-01  -6.4417191e-01   4.4733056e-01   2.5707050e-01  -5.2348968e-01   6.3625637e-01  -9.1408043e-01  -7.5843779e-01   3.2314359e-01   2.0773020e-01   4.5625016e-01   1.1386620e-02  -5.1873948e-01   6.0956161e-01   4.9029986e-01  -4.0814682e-01  -8.9110333e-01  -2.1362106e-01  -3.8498853e-01  -5.3451168e-01   2.7459209e-01   5.0757089e-01   1.5701256e-01  -5.7501013e-01  -4.5910500e-01  -8.1389012e-01  -2.0666509e-01  -6.6333099e-01   4.0721940e-01  -5.8414612e-01  -9.0256033e-01   6.5730297e-01  -2.7645971e-02  -2.8954532e-01  -2.2287600e-01   1.9654918e-01  -5.3426727e-01  -5.6344763e-02  -9.5457107e-01  -8.3716129e-01   7.8117092e-01   6.9833169e-01   7.9189470e-01   2.4058865e-01  -4.9091617e-01  -9.0917236e-01  -1.8317554e-01   9.5975171e-01  -4.2688383e-01   8.0375206e-01  -7.8880838e-01  -5.3423848e-01  -3.4569617e-01  -5.0048972e-01  -1.3035741e-01  -5.4151501e-01   7.0436177e-01  -5.6153114e-01   5.3637494e-01   9.1888342e-01  -1.1111212e-01   5.0357910e-01   2.7897784e-01   8.2567719e-01  -4.1307939e-01  -1.0791897e-01  -4.4251780e-01  -3.4528199e-01   5.5236347e-01  -7.6339644e-01   6.4736392e-01   7.7692446e-01   4.7445139e-02   3.4945942e-01  -5.9537107e-01   5.3488982e-02  -2.4857522e-01   2.1223104e-01   7.5180001e-01   4.9492310e-01   2.2911603e-01   6.8166631e-01  -5.0816540e-01  -5.0693215e-02  -4.6207279e-01  -5.9537120e-01  -9.4907935e-01   5.6807870e-03   2.2385951e-01   9.8949236e-01  -9.7542769e-01  -7.5216347e-01   1.6096060e-02  -3.3011021e-02  -1.5812060e-01   5.4866624e-02  -3.5868929e-01  -5.9339941e-01   6.2498775e-01  -5.2415051e-01   3.8729245e-01   3.0571617e-01  -8.5978136e-01  -3.9405487e-01   2.6474752e-01   7.8173349e-01   2.1231955e-02   4.5683356e-01   6.8225668e-01   9.7550665e-01   2.4934164e-01   3.4340168e-01  -1.3760661e-01   4.6978278e-01  -7.7223089e-01  -8.5923448e-01  -1.2830492e-01  -5.9455105e-02  -2.5789866e-01  -6.5556107e-01  -8.0019320e-01   6.6067342e-02   5.8843329e-01  -4.3036611e-01  -1.0260069e-01   2.8738823e-01  -3.5383183e-01   2.1492284e-01  -6.9308794e-01   2.0169543e-02  -6.4070592e-01  -6.2281519e-01  -5.4285532e-01  -2.3110156e-01  -3.1515015e-01   5.1378346e-02   3.2371238e-01  -9.2839607e-01  -6.0680303e-01  -2.7596200e-01  -6.6836506e-01  -2.7577852e-01  -1.5674241e-01   1.0414965e-01   6.7484995e-02  -5.3179602e-01  -5.2208783e-01   8.0635100e-01   9.3392614e-01  -7.0221931e-01   2.4139535e-01   1.5056049e-01   8.1558315e-01  -3.8388340e-01  -9.0727134e-01   8.6491048e-01  -2.1632168e-01   2.6555140e-01  -2.3061200e-01  -5.6422747e-01   9.5020549e-01   5.2131229e-01  -6.5966991e-01  -4.4637593e-01  -4.8143681e-01  -7.9740428e-01  -1.6717563e-01  -2.2153915e-01   7.3831895e-01   7.8143660e-01   9.0192123e-01  -2.9534451e-01  -5.1736312e-01  -6.5748257e-01  -8.0893190e-01   3.1542857e-01  -9.3958713e-01   5.0836461e-01   6.8672838e-01  -6.1655454e-01  -4.6916632e-01  -5.4825909e-01  -2.6804018e-01  -4.4961713e-01  -1.6643658e-01   8.2273864e-02  -8.6522352e-01  -8.3061983e-01   3.3233558e-01  -1.4634022e-01   9.0412090e-01   4.6200214e-01  -9.1869087e-01   3.7039357e-01   1.4734102e-01  -7.6144636e-01  -4.8565719e-01  -9.6751326e-02  -1.6142333e-01  -1.3580380e-01  -7.3710972e-03  -4.5408197e-01  -2.4184212e-01   7.1133175e-01  -2.7536857e-01   1.6674645e-01  -7.6527664e-02  -4.1329352e-01   4.6869251e-01  -5.6993585e-01   5.7906071e-01   1.9392228e-01  -9.4266972e-01  -6.2687598e-01   7.9191695e-02  -7.7506863e-01   5.9867176e-02  -1.9378113e-01  -7.2118244e-01  -9.3592212e-01  -6.0370201e-01  -9.9566248e-01   9.2652035e-01  -9.0677078e-02   7.3494932e-01   9.8737691e-01  -2.0705427e-01  -5.5248620e-01   2.0057535e-01   3.6539414e-01  -4.0015758e-02   8.0213286e-01   1.3443508e-01   6.2900865e-01  -7.8360475e-01   5.0627013e-01   2.0917921e-01  -9.2224959e-01  -3.1003724e-01   1.7564116e-01   1.0085727e-01   3.6599279e-01   3.3993041e-01   4.8280316e-01   8.8801211e-01   3.4197288e-02  -8.3236291e-01  -5.9996532e-01  -1.0359137e-01  -6.7675364e-01  -2.4245494e-01   1.4146139e-01  -5.0778853e-01   3.7477978e-01   6.2869023e-01  -4.0826913e-01  -6.8649125e-01  -3.4145660e-01   5.1112730e-01  -3.7632026e-01  -6.7471640e-01
   3.5028751e-01  -9.7477654e-01   3.7913914e-02  -6.8723167e-01  -2.8248986e-01   1.7502605e-03  -5.4581571e-01   3.2143953e-02   3.7446768e-01   9.5701945e-01  -4.0922560e-01  -8.4118009e-02   6.4179098e-01  -6.8854168e-01   5.1354206e-01  -4.8682647e-01  -9.5436288e-01  -1.8325404e-01   6.3343188e-01  -9.2875626e-01  -5.4154331e-01  -2.6454951e-01   6.9612132e-01   8.5825140e-01  -6.6587963e-01  -8.3386639e-01   4.7233485e-01   1.3843974e-01  -2.7544256e-01   1.5874222e-01  -8.5128598e-01  -1.0352041e-01  -1.2558762e-01  -3.1240742e-01  -2.2917839e-01  -5.3806992e-02  -8.4151368e-01   5.5806510e-02  -4.0096243e-01   6.8825031e-01   4.1704545e-01   7.2400270e-02  -8.6216052e-02   4.9741002e-01  -5.9156376e-01  -6.7688748e-01   6.0900332e-01   9.9269229e-03   7.9645056e-04  -4.2759799e-01  -1.7165008e-01  -2.3426397e-01  -3.3488410e-01  -5.4298917e-01  -3.1408607e-01  -4.8516209e-01   7.2186112e-01   5.7975791e-02  -8.0039716e-01  -7.8321407e-01   9.9353290e-01   3.7074652e-01  -1.9588309e-01   5.0191652e-01  -9.5903755e-01   5.0932912e-01   9.5727908e-01  -3.5065101e-01   1.2292141e-01  -3.7089485e-01  -4.2818703e-01   1.3915777e-01   9.2151868e-01   3.4737099e-01  -4.7992552e-01  -7.7588456e-01  -9.2749653e-01  -9.0578970e-01  -3.5673443e-01  -7.0106103e-01  -2.4973858e-01  -2.8888762e-01  -8.1546041e-01  -8.1058802e-01  -7.8427775e-01  -4.8775793e-01  -5.4258183e-01   5.4972926e-01  -7.3549858e-01   7.3660265e-02   9.9367777e-01   7.1968044e-02   8.3496712e-01  -9.9193867e-01  -5.1217803e-01   8.1574373e-01   9.4244060e-01   9.6144043e-01  -2.5328876e-01   7.0925368e-01   6.5139747e-01   6.2607948e-01  -7.8186790e-01   8.7906421e-01   6.7424323e-01   1.9432426e-01  -7.8182380e-01  -3.9873090e-01  -6.4235405e-01   2.9519519e-01  -7.1694010e-01  -7.7654788e-01   9.4065363e-01   1.3088622e-01   2.8933459e-01  -4.6618826e-01   9.7344909e-01   3.2270253e-01  -3.0667231e-02  -2.5902188e-01  -2.0408761e-02   9.8515812e-01   5.4521950e-02   9.5706714e-01   3.4570491e-01  -2.5204270e-01  -8.5139393e-02   2.0629679e-01   7.5653356e-01  -7.4397957e-01   3.0247502e-01  -9.1194486e-01  -4.6411971e-01  -2.8572432e-01   3.0212174e-01   2.6863686e-01   4.8574396e-01   1.6056732e-01   1.3140890e-01  -1.8299075e-02  -8.9158301e-02   1.7177642e-01  -5.3504520e-01  -1.7082267e-01   4.9144390e-02  -1.2407133e-01   5.3705297e-01  -6.9583506e-01  -7.6607698e-01   9.6971052e-01   5.0657328e-01   2.6745742e-01   8.7408016e-01   9.7007148e-03   8.9072951e-01   2.4021488e-01   2.2214690e-01   2.5779959e-01   9.3367943e-01  -7.9308805e-01  -3.5536372e-01   7.5537572e-01   3.9622312e-02  -8.9766147e-01   7.9258320e-01  -4.1704634e-01  -1.2024392e-01   8.5558812e-01  -1.0725666e-01   3.2423390e-01  -7.5737729e-01   5.0385145e-01   5.6625870e-01  -3.8553519e-01  -3.1911852e-01  -6.0616329e-01   7.8359391e-01  -1.3066625e-01   1.9971692e-01  -8.0981778e-01  -9.3650292e-01  -1.5370167e-02  -9.1493096e-02  -3.5108743e-01  -9.0880337e-01  -5.4858386e-01  -2.9899843e-01  -9.6331708e-01  -7.1411916e-01   3.3102897e-01  -4.8601457e-01   6.5127599e-01   5.2259701e-02  -7.9516940e-01  -6.6144020e-01   7.8672098e-01   7.9342576e-01  -3.5994810e-01   6.0666286e-01  -4.7041002e-01   6.6972106e-01  -2.3767384e-01  -6.7749755e-01  -2.3876314e-01   9.8690625e-01   5.3835365e-01  -4.9230137e-01  -7.9176059e-01   8.4715593e-01   7.3990471e-02   6.3211714e-01  -8.0449679e-01   7.1337460e-01   8.5806617e-01   5.6462575e-01  -6.8721440e-01   8.8866315e-01   4.4390654e-01   8.3270710e-01   6.4557293e-01   2.6694988e-01  -1.5369750e-01  -3.2690202e-01  -9.4824052e-01   9.2927958e-01  -4.4344566e-01  -6.2092543e-02   3.9756002e-01   3.9525657e-02   8.9549908e-01  -8.4048136e-02  -8.9827312e-01   2.8441298e-01  -3.8724617e-01  -6.8473792e-01   8.5897706e-02  -5.6681676e-01   6.8133202e-01   9.6209561e-01  -3.8910424e-01  -5.6292107e-01   5.5382375e-02   9.6180521e-01   8.3455317e-02  -8.7657134e-01   2.6128771e-01  -2.8241201e-01  -2.7094678e-01  -8.4696352e-01   5.3450540e-01  -1.2657871e-01   6.1707735e-02  -8.2101174e-03  -6.6290281e-01   4.5025949e-01   1.2502988e-01  -9.1746097e-01  -3.0725823e-01  -3.1879048e-01  -5.2002524e-01   2.8447831e-01   4.7605606e-01  -2.1575552e-02   4.9016686e-01  -1.4872541e-01   9.0734678e-02   1.8526776e-01   7.5193708e-01   6.5389306e-02   2.1442537e-01   2.4765997e-01   2.1349937e-02   1.4246013e-01   9.0224156e-02   9.7383691e-01  -4.3989082e-01   9.6950614e-01  -3.1469957e-01  -9.0795773e-01   8.1193785e-01   6.3673997e-01  -2.6697817e-01  -9.8006563e-01   4.0629917e-01  -5.5296826e-01   1.6739760e-01  -8.4656872e-01   7.3062688e-01  -1.2790516e-01   8.1676272e-02   1.9466440e-02  -4.0378656e-01   1.7246091e-01   8.5215329e-01  -2.5856142e-01  -8.4021453e-01  -1.0104462e-01  -8.4350641e-01  -3.1213596e-01   7.7523112e-01  -2.3813811e-03   5.7599384e-01  -4.2845379e-01   8.3394109e-01  -7.6476335e-02   7.2399908e-01  -9.4661734e-01   5.6089065e-01   4.4199809e-01  -2.1797375e-01  -5.4743449e-01   2.3847886e-01  -5.4152737e-01   6.7762817e-01   5.0945025e-01  -4.6437682e-01   3.4666324e-01  -8.1363262e-03  -8.0295475e-01   3.0105727e-02   2.9375287e-01   5.7755408e-01  -1.2044681e-01  -1.7300562e-01   4.3221725e-02   9.3386110e-01   2.1556760e-01   5.0301027e-01  -1.6640609e-01  -6.7661728e-01  -6.9068079e-01  -2.7167403e-01  -8.4804931e-01   3.4384102e-01   9.3855711e-02   9.0670599e-01  -5.3793014e-01   6.6897092e-01  -6.0769582e-01  -1.2229177e-01  -8.9817013e-01   5.8019547e-01   8.9749301e-02   4.7922077e-01  -5.6708838e-01  -9.3070311e-01   2.4880321e-01   2.7656321e-01  -5.0196247e-01   7.6426616e-01   4.6673591e-02  -7.0093123e-01   8.9956719e-01   3.8316440e-01   2.3960150e-02  -9.9279131e-02   9.0498525e-01  -1.5769236e-01  -3.3602786e-01  -5.6345972e-01  -8.5672701e-01   7.9147419e-01   1.0101870e-01   5.2686895e-01   4.5137173e-01   5.4959461e-01  -8.4529207e-01   5.3576088e-01   5.7697959e-01  -9.0993157e-01   1.8886628e-01   8.6902373e-01  -7.4540840e-01  -8.2230043e-01   6.9202499e-01  -1.5915853e-02   6.1443276e-01   9.6181993e-01   5.4602248e-02  -9.2272600e-02   3.4765074e-01  -3.2292998e-02   9.6846026e-03   2.4007453e-01   1.1566750e-01  -6.3089809e-01   2.4385164e-01   8.7210407e-01   9.5362127e-01  -2.6710982e-01   7.4131360e-01   4.4073853e-01  -2.2390064e-01   6.0668131e-01   4.3813387e-01  -6.1707145e-02   4.8515672e-01  -1.7417430e-01  -3.6885483e-01   5.0595045e-02   1.1822781e-01  -6.8798829e-01  -1.8281100e-01   5.1373498e-03  -3.1928581e-01  -5.9282622e-01   3.6600422e-01   8.6440614e-01  -5.3465844e-01  -6.5852137e-01   1.1710374e-01   8.7104290e-01  -5.0720176e-01   4.8184376e-01   4.6940390e-01   7.6934730e-01  -3.2739397e-01  -3.4072829e-01  -5.6843711e-01  -6.4997985e-01   5.6130502e-01   6.1134809e-01   9.7823680e-01  -5.6156134e-01   8.7082198e-01  -1.5683396e-01   4.7659354e-01  -7.7490320e-01  -9.2200238e-01   6.2750604e-01   3.7340499e-01  -2.7726791e-01  -1.1719171e-01   3.2153746e-01   7.2355610e-01   8.7566602e-01  -7.8784476e-01  -9.7758131e-01  -9.8991754e-01   1.3045766e-01  -8.7730182e-01  -6.9464128e-01   2.3268104e-02   1.3111515e-02  -1.4216635e-01   7.9491160e-01   6.8446009e-01  -6.2240380e-01   9.6733558e-01   4.8259398e-01   4.3249277e-01   2.1407820e-01  -5.6669294e-01   3.2342617e-01  -4.5856886e-01   9.9148669e-01  -7.1640395e-01   1.7017816e-01   3.4344876e-01  -7.7841548e-01  -5.3564397e-01   5.5891187e-01  -2.2302375e-01   1.8707552e-02  -1.1584521e-01  -2.6210065e-02  -6.2602976e-01   7.8287703e-01  -3.6644317e-01  -3.7193021e-01  -1.4300950e-01  -3.6306524e-01   7.2829285e-01  -5.3564186e-01   3.3660753e-01   8.8895976e-01  -3.0291310e-02   4.4118738e-01   7.9488984e-01  -1.8628460e-01   1.5916537e-01   3.3509282e-01  -5.9396832e-01   9.1379768e-01  -1.9241838e-01   7.1648266e-01   7.7691371e-02   2.4942140e-02  -3.6614975e-01   2.9725566e-01  -4.9898708e-01  -7.6708925e-03  -9.3511745e-01   5.0905865e-01   2.0986633e-02   3.0799296e-01  -8.2277259e-02  -4.1985264e-03  -3.5085459e-01  -9.8366588e-01  -6.0991913e-01   8.5879420e-01  -6.8222997e-01  -3.0659602e-01   5.9878379e-01   4.8931902e-01   2.6048146e-01  -1.7823244e-02  -1.5485730e-01  -1.8211342e-01  -7.4530518e-01   8.1609311e-01   1.6253111e-01   2.3026559e-01   2.5379242e-01   6.0885741e-01   1.6302331e-01   9.5460728e-01   1.6943594e-01   8.9184023e-01  -9.4619408e-02  -7.1937352e-01   1.0757646e-01   1.6148059e-01   5.1832011e-01   7.9490944e-01  -9.2528230e-01   8.4980969e-02   9.5093828e-01  -2.0806691e-01   3.0971331e-02   4.3121262e-01   9.1145479e-01   3.8874309e-01  -4.6469452e-01   3.2567157e-01  -3.5235302e-03  -7.8913462e-01   5.3070318e-01  -5.9012738e-02   9.9878186e-01   3.4030020e-01  -6.6239481e-01  -7.1773527e-01   4.9974606e-03  -6.2959699e-01   9.9353404e-01   7.8069310e-01   5.5551971e-01   3.5021393e-01   5.1457787e-01  -3.1178842e-01   2.1288479e-01   9.2869037e-02  -5.2457740e-01   5.2538330e-01   6.4137667e-01  -6.0541239e-01  -3.0888898e-01  -6.7376243e-01  -2.3299762e-01   4.4383159e-01   8.0103321e-01  -9.2138453e-01   4.6330690e-01  -7.5863982e-01  -4.8178325e-01  -5.3465950e-01   1.2802074e-03  -7.6563219e-01  -5.9569684e-01  -5.5927805e-01   4.3391195e-01   7.6766812e-01  -8.7390799e-01  -6.2792855e-01   2.9247999e-01  -1.0040743e-01   4.3932139e-01   8.5178783e-01  -8.0541869e-01   6.0947508e-01   4.8558306e-02  -5.1639060e-01  -8.1465784e-02   2.0340059e-01  -6.1942093e-02   9.8271374e-01  -7.6869850e-01   2.4495394e-01  -1.2104421e-01   3.9649645e-01  -1.3115556e-01  -6.1181757e-01  -9.5605250e-01   4.6996590e-01  -6.9062439e-01   2.4086633e-01  -1.5964956e-01  -7.1023682e-01  -8.5072450e-02  -6.8845568e-01   6.7010841e-01   9.4334100e-01  -4.0317412e-01   8.2124312e-01  -4.2004485e-01   4.2058436e-02   5.2619272e-01  -2.3918786e-01   4.7292052e-01   4.6400515e-01   4.9832094e-02   8.0031574e-01  -8.2793097e-01   5.8071423e-01  -4.3621284e-02  -8.6964144e-01   1.0657376e-01   2.7951821e-01  -1.5921604e-01  -6.2634260e-01  -8.0488787e-01  -8.0674794e-01   7.2072250e-01   3.1518687e-01  -1.9678165e-01   3.9765975e-01   1.4479575e-01  -9.5630227e-01  -8.7506964e-01  -9.2329908e-01  -3.6773964e-01  -1.8526056e-01   3.3825720e-01   6.3925916e-01  -6.1370718e-02   9.7422088e-01   4.7307780e-01   1.7882418e-01   9.9801345e-01   7.5694419e-01  -5.8095854e-01  -6.6504904e-01   5.0086878e-02   2.8138589e-01  -4.5883122e-01   2.8018577e-01   2.1648843e-01   7.7392287e-01  -4.3970139e-01  -8.8510640e-01  -1.2092032e-01   7.8698880e-01   8.5262729e-01  -5.9979294e-01   9.5120853e-01  -2.9481654e-01  -9.7841974e-01   5.5166060e-02   4.6616031e-01  -6.4310735e-01   2.7373099e-01   3.3049856e-01  -3.1242294e-01   1.6918052e-01  -4.8196273e-01   9.9797584e-01   7.6331122e-01  -7.9474544e-02  -1.8052274e-01   2.9200535e-01  -2.6581284e-02   8.0467818e-01   4.9454431e-01  -6.3227095e-01   6.3634877e-01  -9.2689857e-02  -6.0494792e-01  -3.7130401e-01   4.8802177e-01  -5.5234251e-01   6.4927750e-01  -2.3924068e-01   4.6318260e-01   9.8200019e-01   1.0284550e-01  -2.6190736e-01  -5.3629763e-01  -4.3325786e-01   9.6170916e-03   7.1901922e-01  -5.9588688e-01  -5.6845735e-01  -8.3507777e-01  -7.7424060e-01   6.7113574e-01  -1.6374565e-01   3.1374372e-01   8.5639370e-01  -5.5601225e-01   4.5502219e-01  -7.1505154e-01  -3.2847108e-01  -4.8693890e-01  -7.9251746e-01  -1.7604078e-01   5.5005350e-01  -4.2527575e-01   7.1835500e-01  -1.6248654e-01  -7.1808691e-01  -6.1959979e-01   7.6018912e-01  -1.2721148e-01  -9.2507383e-01   2.7247930e-02   1.7940796e-01  -8.2512799e-01   8.4444612e-01  -5.5613741e-01  -3.4323280e-01  -7.2651072e-01  -3.1884698e-01   4.5790010e-01   8.5636361e-01   4.9804027e-01  -8.7043083e-02   4.8803420e-01   9.3542913e-01   6.2418121e-01  -4.9379699e-01  -6.2979422e-01  -9.9064978e-01   3.4984646e-01  -7.9067773e-01  -1.7323251e-01   5.5041795e-01  -6.4235520e-01   6.0508363e-01   5.5376685e-02   7.5107433e-01   5.7590168e-01   6.0054080e-01  -5.5627102e-01   9.2032055e-01  -1.1872509e-01  -7.0593280e-01  -2.6229868e-01  -5.1459576e-01  -9.2849583e-01   7.5273906e-01  -9.4288368e-01  -2.6334635e-01  -2.4612131e-01  -5.4091667e-01   8.7351242e-03  -6.6615139e-01  -2.4949703e-01  -9.8329364e-01   5.8640979e-01  -4.5382839e-01   6.6065527e-01  -3.5462726e-01   6.8168382e-01   5.0869727e-01   2.8446611e-01  -7.4566785e-01   6.4792455e-01   5.6979237e-01  -2.1703887e-01   5.9285875e-02   5.5158121e-02  -4.4673738e-01   5.6692681e-01  -9.6778934e-01   7.4070769e-01   1.6242803e-01  -9.2975742e-01   5.2550172e-01   2.7997980e-01   3.9341787e-01  -6.6872598e-01  -5.0612005e-01   9.6017761e-02  -4.3144333e-01   9.1649953e-01   5.4787757e-01   5.6106421e-01  -1.7128266e-01   6.2360555e-01   5.4152650e-01  -7.0946977e-01  -8.9107992e-01  -7.7686305e-01  -8.9183884e-01  -6.7599391e-02  -1.8736569e-01   6.7114950e-01   3.5803059e-01  -3.6373197e-01   1.2286215e-01  -9.1581445e-01  -8.0914395e-01   8.7264544e-01   1.6859925e-02   6.5736286e-01  -3.5533214e-01   2.5259869e-01  -5.9785552e-01  -6.5920088e-01   7.1928601e-01   5.5420085e-01   4.5670503e-01  -3.2334622e-01  -3.6816329e-01   4.5981514e-01   6.8286990e-01  -3.2838139e-01  -6.6332334e-01  -6.1609120e-01  -9.3797968e-01  -9.5429102e-01   7.2766935e-01  -7.6122286e-01   5.8747924e-01   4.3175478e-01   4.6311532e-01  -2.6403985e-03  -3.4195766e-01  -2.2615650e-01  -6.2635715e-01  -7.3550475e-01   3.8475451e-01  -2.1148770e-01  -5.8984326e-01  -4.2870544e-01  -3.6335120e-02   1.7629963e-01   5.4226239e-01  -6.9484468e-01  -1.7799169e-01  -9.5407047e-01  -9.3402261e-01   2.7758021e-01  -4.9064113e-01   9.3042409e-01  -2.3568389e-01   9.1281228e-01  -1.9552462e-01   7.9817114e-01  -6.6846752e-01   7.9914053e-01   7.7923012e-01  -9.5548394e-01  -6.0847649e-01  -1.4957448e-01  -3.0473470e-02  -9.8842728e-01   3.6361864e-01  -2.0364703e-01  -8.1074677e-01  -9.0475874e-01   1.6313311e-01  -9.8504713e-01   5.5401582e-01  -6.9319490e-01   6.0915490e-02   2.0355885e-01   9.4985616e-01  -5.0998412e-01  -5.6111058e-01   4.3291554e-01  -3.5078205e-01   6.9013403e-01   2.5087706e-01   2.1082571e-01  -6.1144502e-01   1.5155043e-01   2.5892636e-01   8.7534357e-01   7.6900126e-01  -8.9613295e-01  -1.9840319e-01   1.2606127e-01  -6.6663550e-01  -1.5599445e-01  -8.9449146e-01   7.0883437e-01   7.8830431e-01   8.3530681e-01  -1.5051243e-01  -3.6642551e-02   7.9773041e-01  -1.7168457e-01   8.1781450e-01   3.4723684e-01  -6.9166294e-01   2.2010556e-01  -5.8008594e-01  -6.0175647e-02   9.4004958e-01   2.0013047e-01  -6.1285351e-01   6.2309785e-01  -8.7442196e-01   8.9785692e-02  -9.4700964e-01  -8.0404873e-02  -3.3081122e-01   4.9188536e-01   9.3699645e-01  -3.0718338e-01   1.5911291e-01  -2.0524260e-01   8.1039563e-01   6.9326315e-01  -6.5800540e-02  -4.8426284e-01   8.4927754e-01  -9.8003358e-01   1.3867048e-01   7.3455078e-01   2.1525619e-01  -1.6583899e-01  -8.6065978e-01  -1.0644863e-01  -5.7738699e-01   2.3837101e-02   5.9874470e-01  -8.0620469e-01  -3.7273145e-01  -7.2397875e-01  -6.0212885e-01  -3.3268825e-01   1.0402384e-01   3.9117419e-01  -9.9384633e-01  -8.8326404e-01  -7.1649000e-01   5.9480788e-01   6.7538177e-02   2.4171285e-01  -3.0137634e-01   9.0129692e-01  -5.3809718e-01  -1.9674374e-01   7.8242177e-01  -2.9904626e-01  -7.2122224e-01   3.6726595e-01  -2.6439025e-01   9.0526113e-01  -3.3404103e-01   8.0328394e-01  -3.6317704e-02   2.9273883e-02  -8.7395135e-02  -9.0888184e-01  -7.9707122e-01  -4.2507424e-01   8.4228507e-01  -4.2597852e-01  -5.6944957e-01  -1.4569740e-01   9.7180528e-01   9.6822600e-01  -1.6186785e-01   4.5212113e-01   2.0196119e-01  -8.5362220e-01   9.8389329e-01  -7.3317607e-01  -8.2716458e-01   2.4207991e-01  -4.2315899e-01   6.0310686e-01  -3.7422347e-01  -3.9719301e-01   5.2915117e-01   4.5323483e-01   8.9217678e-01  -4.1761281e-01  -8.5812139e-01   8.5353944e-01  -3.8829855e-01  -6.9528852e-03   5.3114389e-01   6.0059707e-01   8.1728073e-01   4.5849144e-01  -2.0277795e-01  -3.0201124e-01  -3.4012703e-02   6.7502635e-01   4.7919381e-01  -9.2611770e-01  -4.3548245e-01  -6.6916603e-01   5.9338503e-01
