   9.7069007e-01   7.1070136e-01   8.1947979e-01  -7.9707862e-01   1.7969010e-01  -5.9083795e-01  -1.6864937e-01   7.4735249e-01   7.4100908e-01  -1.1717035e-01  -9.1221885e-01   9.3145059e-01   4.8950318e-01  -9.1537990e-01  -8.5643385e-01  -1.8107111e-01   1.5303779e-01   9.8144768e-01  -3.5269970e-01  -9.6073852e-01   8.0715962e-01  -4.7075079e-01  -2.6938073e-01   9.7331814e-01  -7.9939969e-01   4.2253691e-01   2.0173344e-02   8.2120233e-01   8.9912653e-01   6.8871933e-01   7.1079866e-01  -3.6568104e-02  -1.3450258e-01  -8.6990993e-01   8.0200911e-01  -6.2112918e-01  -7.3102822e-01  -5.3937759e-03   9.3667851e-01   2.5527048e-01   1.3360640e-01  -9.3326860e-01   9.6440662e-01  -4.3158300e-01   8.4235471e-01   8.7651034e-01  -8.7596530e-01  -5.6739287e-01   6.8730508e-01   9.4331731e-01  -4.1908733e-01   9.3961431e-02  -4.7019003e-01  -5.1250266e-01   9.9990433e-01   1.1296920e-01  -8.8474500e-02   3.7670264e-01   5.6793638e-02  -4.6878159e-01  -7.4553433e-01   6.6749932e-01   9.2169364e-01  -6.0484994e-01   8.7259570e-01   6.3533604e-01  -5.2258109e-01  -6.2269508e-02   9.9804837e-01  -5.7693092e-01   7.9742966e-01   3.1778984e-01   5.5269352e-02  -8.5592065e-01   4.9185948e-01   2.8219308e-01   4.9629679e-01   2.2593659e-01   6.7414898e-01  -9.5702600e-02   8.4811763e-01  -7.2728737e-01   9.7293774e-01   9.8384817e-01   5.5306709e-01  -2.0699460e-01   5.1808015e-01   2.7058391e-02  -4.1656291e-01  -5.3683031e-01  -6.5842331e-01   6.4386219e-01  -6.4654693e-01  -7.9258279e-01  -6.2278264e-01   9.8613059e-01  -6.6276040e-01   7.7471261e-01   9.5332420e-01  -8.1966679e-01   3.8696826e-01   6.3829514e-01  -1.5100665e-01   7.2817098e-01   6.0644544e-01  -3.3944145e-02  -3.4405420e-02   6.7796718e-01   3.6097777e-01  -5.0019754e-01   1.0173509e-01  -9.9159927e-01  -8.3064978e-01   2.5111408e-01   4.1761604e-01   8.6873936e-01  -6.6401093e-01   4.1087603e-01  -1.6902058e-01  -6.2925856e-01   4.5588306e-01  -4.9411690e-01  -1.4301666e-01  -1.8442153e-01  -1.4278837e-01  -7.8571835e-01  -5.2748230e-01   9.4867040e-01   8.8758951e-01   7.9810505e-01   6.1318358e-01   4.5601968e-01  -2.8716418e-01  -5.5639806e-01  -4.4720638e-01   2.6917762e-01  -4.2329792e-01  -3.7665345e-01  -1.8588612e-01  -7.5853392e-01  -7.4062194e-01  -3.2629233e-01   4.5366984e-01  -2.1926866e-01  -7.1669900e-02   9.8729298e-01  -8.1659766e-01  -1.9055169e-01   6.9017279e-01  -1.0010349e-01  -6.6386647e-01  -3.6910423e-01   3.4048120e-01  -3.7558975e-01  -3.7041174e-01  -2.8283583e-01  -1.4993476e-01  -6.2444427e-01  -7.3748370e-01   6.3709736e-01   2.9395644e-01   8.3933655e-01   7.9115384e-01  -9.9747466e-01   1.1969266e-01   6.0330203e-01  -4.6303963e-01  -8.8914517e-01   2.0614866e-01   4.3315774e-01  -2.0130779e-01  -8.0070242e-01  -5.3374938e-01  -3.9902667e-01   5.2581291e-01   3.4568364e-01  -1.5430479e-01  -2.4329970e-02   4.4663597e-01  -2.0821467e-01   7.9916341e-01   6.2288659e-01  -1.0999032e-02   1.7802549e-01   9.6378281e-01  -8.2197800e-01  -2.3039336e-01   7.8373730e-01   7.0770495e-01   4.3353097e-01   7.6981620e-02  -5.2936431e-01   7.4237576e-01  -4.5864651e-02  -7.4378038e-01   7.2905568e-01  -3.6936815e-01  -3.5763102e-01   4.2036705e-01  -9.4807026e-01   3.1915286e-01  -6.3803099e-01  -6.7247356e-01   8.3767501e-01  -1.0296237e-01   1.3953649e-01  -8.3875856e-01   9.1552002e-01  -3.6118622e-01   5.2603789e-01   9.4656269e-01  -1.6784232e-01   5.4022546e-02   6.2062401e-01   7.9747604e-01   8.4177567e-01   1.9992049e-01   3.4287653e-01  -1.9881507e-01   1.5923132e-01  -8.3940790e-02   2.0646467e-01  -6.5532345e-01   4.6729554e-01  -1.3617664e-01  -7.0889146e-01   5.8720860e-01   6.8479173e-01  -4.2534894e-01   7.9591559e-01  -2.6603441e-02  -2.4464995e-01   9.4867706e-01  -5.0272905e-01   3.2144627e-01  -2.5224430e-01  -2.7028044e-01  -2.1813618e-01   3.5216158e-02  -6.8239054e-01   6.0739385e-01   1.0344109e-01  -6.0949968e-01   4.6042703e-01   4.4254727e-01  -9.3624478e-01   4.8461262e-01   4.7881662e-01  -1.0835181e-01  -7.7954692e-01  -7.4713537e-01  -7.4511590e-01   7.6601297e-01  -9.0411964e-01  -6.8949843e-01  -9.8675610e-01  -5.4655573e-01   8.8302172e-01   6.9504279e-01  -6.4643217e-01  -2.3181686e-02   9.7247086e-01  -1.3272546e-01  -4.5243818e-01   9.0115289e-01   3.7051788e-01  -3.7477354e-02   2.7377969e-01  -1.8101293e-01  -8.5326738e-01  -1.2609823e-01   4.7853860e-01   2.9145153e-01  -3.5850914e-01  -2.6642387e-01  -1.7174006e-01  -8.0534331e-01   3.0531602e-01   8.6707058e-01  -6.7183439e-01  -5.7165655e-01  -5.9999029e-01   2.0314679e-01   8.8542818e-01  -9.4450916e-02  -9.4086663e-01  -6.1176359e-01   9.8900719e-01   5.8598725e-01  -9.5713663e-02  -1.9061695e-01  -7.9174964e-01  -7.4931058e-01   8.2090050e-02   5.9307938e-01  -8.8147544e-01  -1.8675879e-01  -4.6144164e-02   6.9641545e-01  -4.6821348e-01   2.3958791e-01   1.3628735e-01  -2.0115876e-01  -7.1905528e-01  -6.8847394e-01   4.2888214e-01  -8.2676572e-01   4.5196177e-01   3.5142584e-01   2.9949605e-02   9.2726134e-02  -5.4179815e-01  -8.9990154e-01   7.2645198e-01  -1.4017156e-01  -7.9295484e-01  -7.6670386e-01   2.8849118e-01   1.5851063e-01  -5.3298394e-01  -9.8043459e-01   1.0795448e-01  -2.7163102e-01   3.7854354e-01   8.1995736e-01  -3.0003461e-01   8.9811509e-01  -6.6256679e-01   8.7850318e-01   5.3112963e-01  -7.8556872e-03   8.1940203e-01   2.5232543e-01   6.7965552e-01   1.4564655e-01  -6.2127745e-01  -1.8152846e-01   7.5203358e-01  -3.1752710e-01  -7.3039251e-01   1.2227920e-01   8.7879618e-01   1.8567188e-01  -6.8406110e-01  -3.2784916e-01   4.8231528e-01   7.0403832e-01  -3.4097500e-01   2.4582646e-01  -7.6992197e-01   4.2516374e-01   1.5641882e-02   3.0218564e-01   9.5935398e-01  -8.5376828e-01  -9.0951636e-01  -3.6483186e-01   8.1882366e-01   5.4005520e-01  -4.3400349e-01   4.7576427e-01   2.6069829e-01   7.4070226e-01   5.8696514e-01  -6.6132161e-01  -3.9453348e-01   5.9018328e-01   3.9373535e-01   1.0699747e-02   3.2064329e-01  -4.4142390e-01   2.8593006e-01   8.8183733e-02  -5.8151698e-01   2.3166409e-01   8.9026422e-01  -5.9724552e-01  -6.2354033e-01  -6.4830203e-01   8.0490894e-01  -6.4085274e-01  -9.2301113e-01  -5.4240108e-01   1.3989536e-02  -7.3812250e-01  -8.5618980e-01   2.7326540e-01   9.7401121e-01  -8.9924959e-01   9.2238683e-01   6.3866598e-01  -7.9412709e-02  -6.2475155e-01  -4.7450266e-01  -7.3842629e-01  -2.0992069e-02   9.7551915e-01   7.9130200e-03   8.7378720e-02  -9.7636697e-01  -2.4122060e-01  -9.5934125e-01   8.7349601e-01   5.5375855e-01   1.4947571e-02   8.9852755e-01   9.7357949e-02   4.3855614e-01  -1.5529935e-01  -5.8149292e-01   3.8160481e-01   8.1250133e-01  -7.9946177e-01   1.5932135e-01  -2.2289015e-01  -3.9497136e-01   9.5645138e-01  -7.6063732e-01   8.6174667e-02  -8.5932615e-01   2.0159855e-01   3.6301333e-01  -7.3389225e-01   8.7977198e-01   3.0685749e-01  -2.1765134e-01   9.1261780e-01  -4.6329918e-01   5.6136345e-01   8.6163976e-01   1.3984754e-01  -5.4360153e-01  -9.3245524e-01  -3.2490783e-01  -5.4038990e-01   5.4209505e-01  -9.5552369e-01   7.4248349e-02  -6.9698764e-02  -2.9244405e-01  -2.3651983e-01  -1.2818018e-01   6.4626197e-01  -5.0890194e-01  -4.3297535e-01  -2.8336690e-01  -7.8961389e-01  -6.6290583e-01  -7.8543244e-01   1.7558757e-01   8.0445049e-01   5.2876552e-01   5.2944977e-01   6.0882359e-01   3.4575256e-01  -9.9235955e-01   8.6335815e-01  -1.0341050e-01   5.6731351e-01  -7.0020963e-01   6.8062189e-01   3.2747520e-01   4.1578222e-01  -5.6134174e-01  -3.2999462e-01  -6.6363109e-01   7.7455922e-01   6.6400461e-02  -1.0518629e-01   7.3051178e-01  -8.9550426e-01   1.1806077e-01  -4.9130812e-01  -4.6917000e-02   3.4433148e-01   5.0968402e-02   6.8878425e-01  -7.6289320e-01  -2.4754325e-01  -5.4236104e-01  -5.6732915e-01   7.2019650e-01   7.2485211e-01  -4.3385598e-01  -2.3126954e-02   8.6799377e-01  -4.5405228e-02  -7.9465658e-01   2.5678604e-01  -3.7484607e-02   5.6117449e-01   8.9206837e-01   7.9627420e-01   5.7467814e-02   7.4593132e-01  -6.6713317e-01  -4.0903361e-01  -8.5986511e-02  -2.5153318e-01  -5.0348268e-01  -5.1851064e-01   3.2047592e-01  -9.8631170e-02   9.7878636e-02  -9.9936878e-01   8.6807655e-01   6.6665011e-01  -1.7235147e-01  -5.5181729e-01   9.1398308e-02   9.3901846e-01   3.6117537e-01   1.3356050e-01   8.1462551e-01   4.5232514e-01   4.4780839e-01  -5.8390983e-01   1.1413515e-01  -1.4121775e-01  -3.2563040e-01   4.2516784e-01  -6.3055688e-01   6.9765038e-01  -3.7102952e-01   3.6912779e-01   4.6620725e-01  -1.0003450e-01  -8.7778416e-01  -8.7709846e-01  -4.3677259e-01   4.6421851e-01   8.9635943e-01  -3.6310476e-01   5.8914773e-02   3.0254873e-01  -6.8875486e-01   5.0066741e-01  -1.6597849e-01   4.1414218e-01  -1.6736115e-01   5.1624452e-01   7.1422970e-01   2.7554222e-01   8.8687115e-01   2.6440107e-01   6.5734131e-01   2.2413214e-01   9.2870589e-01   6.0416446e-02   5.7311845e-01  -5.3471232e-01  -1.2301634e-01  -9.4661642e-02   8.0759470e-01  -6.8246550e-01   9.5465957e-01  -6.6276272e-01  -3.7831421e-01  -1.0790700e-01  -6.2619370e-01   5.9402980e-01  -3.4833924e-01  -7.6198285e-01   7.1187602e-01   8.4290969e-01   2.7497277e-02   4.8671343e-02   7.8097407e-01  -6.9910698e-01  -9.3678723e-02  -1.4766932e-01   7.5275046e-01  -6.5253909e-01   5.3346541e-02  -5.1258611e-01  -9.8694582e-01   8.8319352e-01  -9.1489468e-01  -5.5243220e-01  -6.7921991e-02  -6.9114755e-01   5.3365990e-02  -5.9133571e-01  -8.0573802e-01   5.2984482e-01   9.5490065e-01   4.9340262e-01   6.3563407e-01   2.0395271e-01  -7.9055738e-01  -3.2470245e-01  -3.5648676e-01  -1.9677178e-02  -9.5858411e-01  -9.2027255e-01  -3.9720787e-01  -3.1702819e-01  -5.3283501e-02   7.7322732e-01  -5.8894400e-01   3.9397734e-01   6.2680547e-01   6.7999761e-01  -8.6182331e-01   8.4942883e-01   4.4852718e-02  -4.2299767e-02   5.9544895e-01   4.3321518e-01  -1.1399604e-01   1.9442769e-01   6.4592600e-01  -1.6881908e-01   2.8029011e-01  -9.7982705e-01  -3.3708233e-03  -4.6902526e-01  -4.1931202e-01   7.2998783e-01   8.8105597e-01   1.0224090e-01  -5.3977637e-02  -6.8883070e-01  -9.6860472e-01  -9.6420623e-01  -3.3038650e-01  -7.6384181e-01   9.6087995e-01  -5.0318778e-01   9.8397685e-01   4.3865454e-01   2.6212812e-01   5.3168291e-01   9.2320237e-01   4.6246120e-01   8.9720706e-01  -4.1216970e-01   8.1515433e-02   5.8248153e-01  -2.3824315e-01  -6.5743916e-01   4.1980841e-01  -7.8859939e-01   5.0187610e-01  -9.9996311e-01   9.5298137e-01   4.6848105e-01   6.6725241e-01   3.6796800e-01  -8.6477807e-01  -3.5503857e-01   5.3112002e-01   4.4380026e-01   6.3858102e-01   7.4139895e-01   8.3824358e-01   8.7399182e-01   5.0395124e-01   5.9958654e-01  -9.0744276e-02  -9.8548812e-01   6.5161698e-01   7.3441616e-01   7.0629241e-01  -5.0761559e-01  -1.6714182e-01   3.7628663e-01   9.7695710e-01   4.7322830e-01   7.1564503e-01  -9.8710384e-01   6.7035672e-02   5.6234733e-01   1.6641565e-01  -1.3827251e-01   2.1502689e-01  -9.3577888e-01  -8.7645991e-01   1.3115313e-02  -8.1244477e-01   7.0790193e-01   6.6649461e-01   6.8714548e-01   3.6920650e-01   7.6439751e-01   3.1023598e-01  -3.5537077e-01   5.1557364e-01   2.7977939e-01   7.7227508e-01  -2.2177226e-01  -6.1960452e-01  -8.2871803e-01   4.0825405e-01  -3.8082100e-01   2.4426274e-01  -6.8745271e-02   9.6403247e-01  -7.3885367e-01  -8.0729918e-01   2.3396587e-01   6.2044360e-01   5.7478799e-01  -8.4732932e-01  -8.1185049e-01  -3.2652294e-01   7.9864330e-01   3.3144474e-01  -8.1650242e-01   1.3449942e-01  -2.1537569e-01   3.2029545e-01  -4.1345324e-01   1.4491540e-01  -1.7856301e-01  -9.2329307e-01   3.2569485e-01   6.3130735e-01  -2.3217961e-01   9.2498602e-02  -2.4209074e-01  -1.3106372e-01   3.1439580e-01   6.9860846e-01  -4.4433807e-01   8.6682918e-01   4.8080803e-01  -8.1129589e-01  -7.3280723e-01   3.3005923e-01  -5.2057372e-01  -5.0900092e-01   7.2140302e-01   9.0758755e-01   3.8913763e-01  -3.7485974e-01   7.2936561e-01  -5.7332199e-01   5.9905152e-01  -7.8543087e-01   1.0771399e-04   5.6819734e-01  -7.2546296e-01  -1.3243960e-02  -9.3835112e-01   8.7703298e-01   8.6478097e-02  -5.0369361e-01   1.9145404e-01   3.2726262e-01  -2.1758860e-01   8.1648179e-02   2.2731396e-01   5.9596814e-01  -3.8645172e-01   7.1771969e-01  -5.2386866e-01  -8.3509422e-01  -6.8584934e-01   9.7199061e-01  -6.6866813e-01  -1.5166857e-03  -8.8200240e-01  -9.0674987e-01   7.8956687e-01  -9.2456853e-01  -2.3730843e-01   9.7070089e-01  -7.3647384e-01  -9.2312684e-03  -2.4360570e-01  -8.2757294e-02   1.0447955e-01  -6.6851223e-01  -4.8532445e-01   2.1864240e-01  -3.6507929e-01  -8.7400522e-01  -9.5940951e-01  -7.4611610e-02   6.0881224e-01   5.9443233e-01  -2.4530681e-01   5.5923215e-01  -6.0482523e-01  -8.6513104e-01  -9.7440216e-01  -3.0866033e-01   2.3675376e-01  -6.8216530e-01   7.9942334e-01   7.9527111e-02  -7.0660824e-01   6.0515966e-01   9.1031097e-01  -8.1915109e-01   7.7934703e-01   1.9913371e-01   8.0314836e-01   1.2656735e-01  -2.1152281e-01  -9.1679099e-01   4.9837126e-01  -1.0743529e-01   8.2201150e-01   8.2545089e-01  -8.9396331e-01   6.1782281e-02  -5.0715726e-01   3.3442278e-02  -6.2158767e-01   4.1928094e-01  -3.6384310e-01   8.1415436e-02  -6.8462308e-01  -3.5248900e-01  -3.3313809e-01   1.7154939e-01   4.1989221e-02   4.6857148e-01   7.9830177e-01  -1.6929225e-01  -7.0980635e-01   9.9807989e-01  -1.8411001e-01  -4.0908387e-01  -9.1015998e-01  -1.2174989e-01   8.1509628e-01   7.4029088e-01   3.0546230e-01   3.9523905e-01  -6.0850109e-02  -4.6238553e-01  -6.5081780e-01   5.9394525e-01  -7.8167870e-01   6.2665354e-01   2.0247918e-01  -7.4838334e-01  -8.9410289e-01   1.4030975e-01  -1.0465719e-01  -1.8181993e-01   9.2833211e-01  -7.9758705e-02   3.1736089e-01   4.8571834e-01  -3.6152802e-02   6.4228944e-01   8.6624094e-01  -3.8537825e-03  -7.4711883e-01  -2.6241614e-01   4.9544971e-01   9.4003479e-01  -4.7120414e-01  -5.5720122e-02  -8.1416808e-01   7.9228901e-01   4.1726014e-01  -9.8781650e-01  -2.9648130e-01  -9.8447918e-01   6.0116436e-01   3.8174178e-01  -6.2517742e-01   5.8323112e-01   9.8878317e-01   5.0929887e-01   6.2282762e-01   1.5897574e-01   5.1297344e-01   9.2043331e-01   5.5458808e-01  -7.0505102e-01  -5.1036092e-01  -4.6545321e-02  -6.6595164e-01  -3.0814331e-01  -9.6236676e-02   3.7939886e-01   3.6885478e-01   9.8480011e-01   8.1524568e-01  -9.4598094e-01   5.1914563e-01  -7.5851679e-01   2.7975447e-01  -3.8941117e-01  -4.7231195e-01  -9.6571288e-01  -4.8275731e-01  -1.1122964e-01   4.0713605e-01   5.4269121e-01  -9.4891808e-01   9.8560752e-02   9.3722491e-01  -3.6209483e-01  -4.0637370e-01  -2.2313833e-01  -4.5520967e-01   5.0372073e-01   4.4726947e-02  -8.6933719e-01   1.3735695e-01  -1.8313618e-01   4.3825374e-01   3.2604620e-01   6.7173564e-01  -6.0584597e-01  -4.6265495e-01   4.9024065e-01   6.6566112e-01  -1.2289327e-01  -4.2902328e-01  -7.1370972e-01   8.9438747e-02  -4.3672173e-01   2.4919734e-01  -2.0821388e-01  -1.5860757e-01   9.5837368e-01   4.8018906e-01  -9.0581698e-01   6.4614778e-01  -3.3245474e-01   9.3186978e-01  -6.7824400e-01   3.3961768e-01   5.5016180e-01  -7.3366138e-01   5.9128619e-01   1.7960447e-01  -8.2353305e-01   9.7975532e-01   2.8050094e-01   2.4187242e-01   9.7717842e-01  -8.0803839e-01  -1.3733401e-01  -7.1572530e-01   4.9611161e-01   6.6490498e-01  -4.3534201e-01  -2.3462935e-01  -9.6024589e-01  -4.7089392e-01  -3.1182114e-01   1.0887283e-01  -2.4147659e-01   4.4367897e-01   6.0211098e-01   5.3875992e-01  -6.1407922e-01  -4.6415043e-01   7.1884426e-01  -9.2143621e-01  -1.1113394e-01  -3.0755242e-01   4.6778819e-01  -3.8836275e-01   5.9716097e-01  -5.6849945e-01  -3.4752495e-02   2.0524792e-01   1.5789916e-01  -6.8913362e-01   1.0094048e-01  -2.7369607e-01  -3.2474576e-01   4.4525947e-01  -9.8814767e-01  -5.2508343e-01  -3.9061045e-01  -9.8417472e-01   4.4232535e-01   8.8238927e-01  -9.7311133e-01   1.3720040e-01  -8.6626877e-01  -4.6947247e-01  -3.9890180e-01   3.8142581e-01   2.6958314e-01  -5.2547834e-01  -4.2611597e-01   9.0456437e-01  -5.6271232e-01  -4.8773444e-01   7.7123279e-01  -7.8466801e-01  -7.3805661e-01   6.5268494e-02   2.9061779e-01  -1.1196463e-01   7.1922400e-01  -7.3862353e-01  -4.4184604e-01
  -1.1865200e-01   3.4302409e-01  -8.6411996e-01  -8.7529207e-01   6.8458834e-01   5.5161669e-01  -2.2614924e-01   5.7449794e-01   9.4488222e-01   3.7820820e-01  -9.2919228e-01  -5.4090372e-01   2.2810463e-01   9.1189135e-01   9.3218456e-01   1.5140865e-01   4.7245132e-01   3.0655945e-01   1.0653170e-02   4.3637599e-01  -3.7499099e-01   1.9290950e-01  -4.2413401e-02  -5.8268462e-01  -1.8073336e-01  -5.9569305e-02  -4.8644355e-01  -8.8855924e-01  -4.1625768e-01  -9.9044117e-01  -1.9370724e-01   8.7304622e-01   8.7390995e-01  -5.5160490e-01   4.5175501e-01   9.3681841e-02   3.0327991e-01  -2.3991170e-01  -6.4200873e-01   6.2074206e-01   9.3336825e-02  -9.8527442e-02  -6.5714989e-01   1.6229452e-01   7.9652963e-01  -8.6852563e-01  -4.1794829e-01   8.0353022e-01  -3.6590194e-01  -7.8883757e-01  -9.5734044e-01  -1.9401876e-02   5.0717516e-01   1.4083812e-01  -5.7707306e-01  -7.5905261e-01  -1.5662772e-01   2.6359033e-01  -7.7328899e-01  -5.1306305e-01   1.3145246e-01   9.9020463e-01  -9.6322287e-01   7.1086184e-01  -4.6339875e-01  -8.8005212e-01  -5.0772670e-01   3.4815946e-01  -9.9195970e-01   1.6755040e-01  -2.2736269e-01   2.4380903e-03   3.9747132e-01  -8.0137648e-02  -7.1745451e-01  -9.5382527e-02  -4.5587572e-01   1.8378301e-01  -2.5352229e-01  -8.3680259e-01   6.3038656e-01  -1.6865625e-01  -3.6655156e-01   2.4125785e-01  -3.4543017e-03  -4.1479087e-02   8.8273389e-01  -3.7965767e-01  -2.4587338e-01   9.4910221e-01   9.2213463e-01   4.5084220e-01  -8.0475161e-01  -8.0313633e-01   5.9427641e-01  -8.9882406e-01   8.8288668e-01  -2.0150645e-01  -5.2019272e-01  -8.8047845e-01  -5.3762406e-01   8.1624034e-02  -5.4347999e-01   3.2557894e-02   3.6556338e-01   1.8713605e-01   3.6182423e-01   7.9617465e-01   2.6469233e-01   2.5440705e-01   1.2698964e-01   1.5352103e-01   8.0011617e-01  -6.3176001e-01   3.0761830e-02  -2.0491432e-01  -1.0597827e-01  -5.6020680e-01  -4.7366289e-01  -8.9143399e-01   1.1867658e-01   5.4875711e-01  -4.3026054e-01  -4.8150301e-01  -4.6035550e-01   2.0914953e-01   5.0552366e-01   6.5599374e-01  -7.1937034e-01  -6.9369638e-01   6.1167337e-01  -2.6923276e-01  -4.5373985e-01  -9.2212914e-01  -9.1865381e-01   1.5240185e-01   1.0912359e-01   6.6721046e-01   3.8926676e-01   3.6768747e-01  -9.5851474e-01  -8.0773936e-01  -5.0230416e-01   2.1215755e-01   8.1347604e-01   3.0913389e-01   7.0940819e-01   2.6139744e-01   4.4734538e-01   7.1598627e-01  -1.0804574e-01  -6.8992731e-01   3.8181903e-01   5.7758654e-01   9.2589920e-02  -9.9580342e-01  -3.9822471e-01   3.5948803e-01  -7.1725413e-01   1.1110626e-01  -2.3752560e-01   6.8251815e-01   2.6957725e-01   4.4109096e-01  -5.0624099e-01   1.5750073e-01   9.6874639e-01   7.5055050e-01  -8.6298690e-01   9.5191463e-01   8.6337709e-01   9.7058734e-01  -3.6952489e-01   5.2949279e-01  -6.9996312e-01  -6.8293009e-01  -6.3554833e-01   9.7050089e-01   6.0148954e-01  -3.8178708e-01  -1.6471630e-01  -7.0405881e-01   8.8183183e-01  -8.7538458e-01  -6.4734654e-01   6.6405328e-01   3.9673529e-02  -8.6319041e-01   7.1966951e-01   7.1613226e-01  -1.6124120e-01  -2.5188379e-01  -9.4883659e-03   9.3507803e-01   2.1313642e-01  -4.8818299e-01   6.5921457e-01   4.2206058e-01   8.9760209e-01   5.9671791e-01   1.0183494e-01  -4.7140169e-01   4.3695887e-01  -1.3147994e-01  -4.9922565e-01  -7.6939308e-01  -4.2008834e-01  -4.4276953e-01  -1.9374299e-01   7.3757841e-01  -4.8474640e-01  -7.9162779e-01   7.0071498e-01  -2.8204736e-01  -1.5514039e-01  -3.8542122e-01   6.3876833e-01  -2.5734315e-01  -3.5115649e-01   3.6334442e-01   9.5088574e-01  -2.8350213e-01   7.2156934e-01  -6.8795920e-01   4.6428034e-01   9.3808785e-01  -8.5693655e-01   9.9386255e-01  -2.5065406e-01  -2.0122912e-01   1.8756558e-01  -8.7578024e-01   8.1909856e-01   4.0592949e-01   6.6477520e-01   9.1326600e-01   8.6764615e-01  -5.3891179e-01   9.5039345e-01   2.0732823e-02   1.5386683e-01  -3.5246365e-01   1.2250538e-01  -2.1068843e-01   2.1690074e-01   6.6221222e-01   1.2698234e-01   6.8565672e-01   5.6429170e-01  -6.9610876e-02  -9.1497929e-01   9.0513964e-01   9.4622496e-01  -2.8507799e-01   1.2060572e-01  -4.7640273e-01   5.6601018e-01   4.5980522e-01   6.4864718e-01  -2.4303564e-01  -6.0995058e-01  -4.6015853e-01  -4.6806059e-01  -3.1822822e-01  -4.3082123e-01   3.5868449e-01   1.2790258e-02   6.8976976e-01  -7.6292787e-01   1.0653671e-01  -7.9516831e-01   6.8580650e-01   1.1321369e-01   5.3901771e-01   2.8147590e-01  -9.3515670e-01   4.7779220e-01  -3.2895850e-01   4.3887479e-01  -4.9921109e-01  -8.0746401e-01   2.3735449e-01   8.2401317e-01   1.3626255e-01   3.2887492e-01   8.8518684e-01  -4.5066422e-01  -1.5437034e-02   4.2353067e-01  -9.6090779e-01  -4.9650083e-01  -3.4611475e-01   4.3298416e-01  -4.9945195e-01  -2.4983200e-01  -9.9814517e-01   2.8656894e-01  -3.5977521e-01  -4.4285339e-01   4.0596341e-01   5.4605827e-01   5.7466616e-01  -1.9772414e-02   3.5515691e-01  -3.7159510e-01   3.3264510e-01   6.1751135e-01   5.6994738e-01  -8.3723082e-01   9.0529460e-01  -3.2909804e-01  -8.8574998e-01   2.8352516e-02   9.5773697e-01  -6.4496278e-01  -1.8179873e-01  -5.3973694e-01   8.7887062e-01   6.6697722e-01   8.7595249e-01  -9.3816063e-02   9.2881340e-01  -4.9361162e-01   3.6524908e-02   4.2916284e-01   1.8521731e-02   1.1781089e-02   1.3706409e-01   8.4600308e-01  -5.3838577e-01  -9.3821737e-01  -4.7682440e-01   2.3427451e-01  -7.9390261e-01  -2.2577903e-01  -4.4265269e-01  -8.9597193e-01   8.1328405e-01  -6.4421741e-02   4.9381433e-01   6.8741724e-01  -9.7282463e-01   8.6616060e-01  -4.0224206e-01   7.7839929e-01   8.1910487e-01  -1.7312531e-01  -5.1923083e-02   9.1675871e-02   4.8420011e-01  -1.0110636e-01  -7.3195352e-02  -2.6605372e-01   5.6838850e-01  -2.2828786e-01   9.8423156e-01   2.6071803e-01   1.9043110e-01  -8.9282978e-01   5.3532773e-01   2.3990126e-02   3.4809858e-01  -2.1501070e-01  -6.5097593e-01  -2.2644897e-01  -3.1478132e-01   2.9222701e-02   1.8427630e-01  -2.2919912e-01   7.6721061e-01  -9.9664037e-01  -2.5954433e-01   7.0604312e-01   1.9279655e-01  -3.1772734e-01   2.6213721e-01   5.6821982e-02   1.2497027e-01   5.1147539e-01  -6.5237377e-01   3.3746740e-02   9.0763268e-01  -4.3145476e-01   8.3429179e-02   2.3015894e-01  -4.9755676e-02   9.8563650e-01  -6.4237987e-01   1.8980291e-01   3.1691893e-01  -3.2308481e-01   3.5065572e-01  -4.9658970e-01  -6.3603015e-01  -6.0768683e-01  -8.9112797e-01   4.0920461e-01   6.3357523e-01   6.5052557e-01  -7.8854528e-01   3.2137497e-02  -1.3308790e-01  -1.1433509e-02   3.8253647e-01  -6.8895214e-01  -9.4574917e-01  -2.1061447e-01  -6.7511699e-01   4.0891934e-01  -4.9716888e-01  -3.5125407e-01   5.5240105e-01   5.0814609e-01   2.3348082e-01  -7.2185300e-01  -4.1001233e-01   1.4829476e-01   5.4710644e-01  -7.6366878e-01   9.2457124e-01  -3.7382764e-01  -9.7089503e-01   7.2282784e-01  -5.9590192e-01   1.2939946e-01  -5.1484305e-01   7.6965859e-01  -9.6645746e-01   5.9743634e-01   4.2826373e-01  -7.4951632e-01  -6.1474476e-01   5.6475779e-01  -1.6563851e-01   1.0975339e-01  -3.8640651e-01  -4.9885985e-01  -2.2533875e-01   8.4800186e-01  -5.8446053e-01  -9.8865547e-01   9.4113875e-01   9.5230673e-01   1.0237821e-01   4.1106610e-01  -4.9980178e-01  -6.0352965e-01  -8.6651721e-01   1.9379549e-01  -3.0699973e-01   4.4457009e-01  -9.3495886e-01   3.5268387e-01   8.1729245e-01   8.6599096e-01   9.5832789e-01  -7.6159124e-02  -3.1573055e-01  -5.1297102e-01   2.8202878e-02   7.9230650e-01   3.7260927e-01   2.4737965e-01  -2.6469658e-01  -7.4730587e-01   6.4105156e-01   7.7133836e-01  -5.6848962e-01   4.3531414e-01   7.3025622e-01  -5.5789385e-01  -4.6694866e-01  -7.6296355e-01  -2.9095138e-01   2.1361115e-01   4.4642055e-01   4.5744871e-01  -1.7571804e-01  -5.8050746e-03   5.5093268e-01  -9.3350321e-01   7.6163101e-01   4.5438815e-04   8.1991876e-01   4.2610886e-01   6.9075325e-01  -4.3441662e-01  -5.1565409e-01   2.2506651e-01   1.8855181e-02   6.2879012e-01  -4.0230870e-01   5.0850282e-01  -1.5333819e-01  -9.4285419e-01   2.4801079e-01  -8.9440457e-01  -3.0061314e-01  -6.4474069e-01   2.0079319e-01  -4.8510734e-01   2.2184773e-03  -8.7879777e-01  -8.6819181e-01   4.7697157e-01  -4.2668735e-01   2.8530149e-01   4.5112654e-01   6.6339232e-01   7.1001152e-01   2.9040086e-01   2.8370836e-01  -2.0830417e-01   6.5683860e-01  -5.5379647e-02  -4.4430932e-01  -7.3494970e-01  -9.8855738e-01   6.0667946e-01  -4.8811023e-01   5.8138396e-01   5.4436495e-01  -5.8610804e-01  -5.0198534e-01  -5.7635430e-01  -6.4272798e-01  -2.8200614e-01   3.1249218e-01  -7.2654678e-01   2.0741947e-01  -8.1104817e-01  -2.8261216e-01   3.1357413e-01   7.4884425e-01  -2.0211262e-01  -8.6569196e-01  -1.8720625e-01   7.5023586e-01  -6.0661927e-01   9.6443242e-01  -6.7966057e-02  -4.4127171e-01   4.6209205e-02  -4.9100279e-01   6.9657508e-01   9.3295033e-01   1.8010941e-01   5.6277619e-01   2.5100554e-01   5.2632332e-01   1.4243275e-01  -1.0605634e-01  -7.7913711e-01   6.2872080e-01   6.5827676e-01   5.4881263e-01   1.6352893e-01   6.7585109e-01  -1.8363465e-01   6.0511169e-01  -1.8782787e-02   2.7476257e-01  -9.5037689e-03  -1.5068099e-01  -1.3287834e-01   4.7306896e-01   3.6542292e-01   6.1803716e-01  -4.5385666e-01  -4.1047061e-01  -2.9986412e-01  -8.1745845e-01   2.3637636e-01  -8.7247847e-01  -2.9593483e-01   8.5487803e-01   3.9075731e-01   3.1560241e-01  -5.0189843e-01  -6.1605385e-01  -9.4894949e-01  -6.4805190e-01  -4.1004660e-01   8.7352787e-02   8.8361841e-02   1.0766787e-01  -5.9609947e-02   5.3612082e-01   9.9843620e-01  -1.2518155e-01   5.4972571e-01   5.0369141e-02   9.9550666e-01  -3.6966040e-01  -3.7374443e-02   1.5933652e-02  -9.0065362e-01  -5.5284669e-01  -3.7697107e-01   4.9461121e-01   4.9087149e-01  -3.8789927e-01  -7.2641826e-01   5.9000288e-01   7.7726137e-01   8.2534885e-02  -4.4733693e-01  -7.8700008e-01   9.6198384e-01  -9.0189631e-01  -7.6694029e-01   8.0382789e-01  -5.5181981e-01  -6.9330253e-01   2.9053511e-01   8.7642130e-01   1.6082934e-01  -5.6150645e-01   5.0677832e-02  -8.1553090e-01  -2.2923736e-01   7.7033601e-01   3.0653610e-01  -2.9951551e-01   3.0626989e-01  -2.9409654e-01   8.7395887e-02  -1.2314413e-01   4.3745224e-01   2.1590471e-01   7.8296176e-01  -8.3459885e-01  -9.9818932e-01  -2.1407827e-01   8.7337845e-01  -5.4624496e-01  -4.3881429e-02   6.0895178e-01  -1.0949030e-01   8.3705721e-02   4.9572050e-01   7.5629132e-01   3.9596195e-01  -8.2025783e-01  -5.7404768e-01  -9.0094690e-01   6.0306934e-01   4.9043181e-01   9.1665688e-01  -8.4302858e-01   5.5771738e-01  -1.1989958e-01  -7.9423746e-01  -8.6253812e-01   6.5280330e-01  -5.9677379e-01   9.1821337e-01  -3.5719018e-01  -8.3297322e-01  -7.9786376e-01  -6.6766813e-01   1.5401219e-01   9.2834006e-02  -8.0729460e-01   9.5059388e-01  -3.9638466e-02   4.6932599e-01   8.4429612e-01   2.8845686e-01  -9.0536250e-02  -3.2787747e-01   5.4732662e-01   3.7392662e-01   1.1070866e-01   9.9199751e-01  -9.9762075e-01   7.2232240e-01  -6.5014894e-01   9.6115045e-01  -1.9767478e-01   7.9672078e-02   9.6228036e-01   9.8443710e-01  -4.0927187e-01  -5.1291212e-01  -3.4655291e-01  -8.9725294e-02  -8.1440882e-01   5.2981151e-01   9.4756075e-01  -8.0812869e-01   6.5554380e-01  -3.7608835e-01   5.6002118e-01  -4.8760565e-01  -9.0288573e-01  -5.5286107e-01  -7.3794918e-01   3.2542451e-01   4.4400515e-02   2.0019536e-01  -8.3245612e-01   6.8401950e-01   4.9101432e-01   7.0072415e-01   5.0240157e-01   5.3278067e-01  -6.0330555e-01   4.5338628e-01  -1.5998017e-01   6.3729363e-01   1.3887133e-01  -9.7976492e-03   4.0437020e-02  -4.0984126e-01  -7.2265229e-01   8.2939640e-01  -7.9496379e-02  -3.3373160e-01  -2.0768439e-01   5.8253316e-01   1.8000726e-01   7.3923952e-01   8.0113099e-01  -5.2669010e-01   1.6237063e-01  -6.7895879e-01   4.3607776e-01  -2.4330875e-01   3.8469247e-02  -1.6428024e-01  -6.0123708e-01   1.0176884e-01   9.4209641e-01  -2.7018353e-01  -1.1690360e-01   2.5121172e-01   5.2782612e-01   3.3110719e-01  -8.9730379e-02   8.6361224e-01  -5.1160984e-01  -9.3147581e-01  -7.4376511e-01   5.1764537e-01   3.3403666e-01   6.0720224e-02  -9.8339308e-01   7.4697326e-01   4.6767737e-01   9.4486406e-01   8.7920712e-01   9.6111238e-01  -8.5075114e-02  -1.1725287e-01  -7.4713640e-01  -6.8229604e-01  -3.1075872e-01  -1.8084202e-01  -9.9274472e-01  -8.4167296e-01   2.1768269e-02  -8.6496264e-01  -3.9969559e-01   8.9384499e-01   2.9620418e-02   6.3391197e-01   6.0077295e-02   7.8196430e-01   9.8293832e-01  -4.6507891e-01  -4.0983369e-01  -6.0204835e-01   9.9915132e-01   2.4767974e-01   7.8743148e-01   7.3835012e-01  -4.3489431e-01  -1.5747668e-01   2.8002855e-01  -8.0586015e-01   6.2541629e-01  -1.6456054e-01   4.3382228e-01   3.6175428e-01   8.3031834e-01  -1.3212437e-01  -7.7727013e-02  -3.0241221e-01  -4.4393260e-01  -6.8597617e-01   1.3846172e-01  -8.9919645e-01  -1.2414490e-01   9.0560817e-01  -8.3236443e-01  -6.5679406e-02  -5.3282161e-01  -8.4768845e-01   1.6192757e-01  -8.8838539e-01  -9.1393707e-01  -8.3548843e-01   4.3795296e-01  -8.6262295e-01   7.0384606e-01  -1.0028865e-02  -5.9470469e-01   2.7201686e-01   8.1790979e-02  -5.3449660e-01   4.3213378e-01   2.0028561e-01   2.0764974e-01  -3.9197914e-01  -5.6528918e-02  -5.6237131e-01   4.5451273e-01  -5.6070272e-02   9.5548354e-01  -1.6870035e-01  -3.6570402e-01  -2.0842460e-01   5.5488436e-01   2.2974623e-01   7.1192245e-01   4.7888753e-01   2.9596346e-01   1.8752029e-01  -3.0027487e-01   6.8978276e-01   6.2696442e-01  -3.4924481e-01   3.3625866e-01  -8.5871779e-01   9.0424687e-01  -9.9843655e-01  -6.5808780e-01  -5.6199106e-01  -2.2981443e-01  -2.0797813e-01   1.4252800e-01   9.6765091e-02   4.9133161e-01   6.0353984e-01  -3.7111122e-01  -4.5579784e-01   8.0544742e-02   5.3548145e-01   9.0155003e-01  -3.8274582e-01  -1.4940276e-02  -8.7528167e-01   3.0098274e-01   1.3504029e-01   6.7875140e-01   4.8968673e-01   3.9122937e-01  -5.6628083e-01   4.9574494e-02  -8.1675752e-01  -2.2708142e-01  -2.5779335e-02  -8.9855961e-01   4.4168813e-01   3.1919901e-01   7.5641281e-01  -7.7453745e-01  -8.5329464e-01  -6.1936563e-01  -1.2141361e-01  -2.2760120e-01  -4.1165127e-01  -4.5549192e-01  -9.0413163e-01  -5.8212469e-01  -7.2692663e-01  -1.9345818e-01   1.5322142e-01   3.4880905e-01   7.1892333e-01  -1.6557208e-01   9.2289765e-01  -8.8250679e-01   4.2501398e-01  -3.6827461e-01   1.9381475e-01  -4.6772086e-01   8.1743292e-01  -7.5291442e-01   5.0967613e-01   3.8377874e-01  -5.5328753e-01  -6.2430497e-01   6.4491887e-02  -3.1082578e-01   8.7773331e-01   3.6014572e-01  -8.9524561e-02   9.2423090e-02   2.8375343e-01  -8.6615804e-01  -4.4154092e-01   7.1714639e-01  -6.0790600e-01   6.9818563e-01  -3.9952908e-01   1.6842717e-01  -8.6770626e-01  -1.4733746e-01   4.2275306e-01   4.0902080e-01   8.6663523e-01  -8.6682455e-02  -8.8485529e-01  -2.1402737e-01   2.6232055e-01   3.3689216e-01  -9.1413354e-01  -3.1105754e-01  -9.3491268e-01   3.6529229e-01  -3.8261954e-01   9.4398030e-01  -2.4237161e-01  -2.0722892e-01   1.8050231e-01  -5.9341314e-01   5.2085539e-01  -5.6510468e-01  -6.2808162e-01   5.3642411e-01   8.6343158e-01   8.6667088e-01  -4.5792750e-02   1.5878579e-01   6.0442647e-01  -9.4713659e-03  -5.9748425e-02   6.7665580e-01   3.1834368e-01  -4.9658235e-01   7.2497492e-01   4.6092863e-01   2.2181598e-01  -4.4689065e-02  -7.7666952e-01   4.1289495e-01  -4.4772509e-01   6.9531899e-02   1.1970657e-01   4.0772018e-01   1.8782566e-01   4.5829706e-01  -8.8463778e-01   8.4892377e-02  -4.8474046e-01  -8.7732025e-01  -6.5300448e-01   3.9376534e-01   7.9796459e-01  -4.5904641e-01  -8.4874817e-01   4.9906111e-01  -2.7736824e-01   9.8247028e-01  -5.1462012e-01  -3.7531050e-01  -4.3565365e-01  -9.7726062e-01  -6.4771603e-01   8.5556907e-01   3.2732512e-01  -3.3074603e-01   4.9054477e-01   2.9338023e-01   2.1340745e-01   2.7886412e-01  -4.4970402e-01   4.0948146e-01   9.4569231e-01   2.6886594e-01  -5.0248900e-01  -8.0550869e-01   8.0142208e-01  -3.7918774e-01   5.7369640e-01  -3.4592000e-01   8.1153399e-01   6.3771133e-02   4.8668107e-01   6.0333994e-01  -8.8694150e-01  -2.9980454e-01  -6.6647491e-01  -1.8763857e-01  -9.2831304e-01  -3.6409067e-01  -4.3328711e-01   9.7046106e-01
  -4.0996758e-01   7.2882162e-01   9.0379579e-01   7.6611099e-01  -7.8911561e-01   4.5279819e-01   4.8716468e-01   2.8247037e-01  -6.8346095e-02   4.3450446e-01   8.4195053e-01  -3.8630012e-01   2.0828335e-01   1.1441232e-01  -4.5313333e-01   9.9229289e-01   2.0104624e-01  -4.1360634e-01  -6.4302783e-02   2.5165271e-01   5.3161716e-01  -8.0984078e-01  -3.9880980e-01   6.2267688e-01  -3.5352005e-01   4.4204925e-01   6.2069566e-01  -4.3605967e-01  -6.3574570e-01  -3.2978167e-01  -9.1695766e-01   7.9360597e-01  -7.0074501e-01   2.4512720e-01   4.9513926e-01   5.5208489e-01   1.1990060e-02  -5.3218065e-01  -8.1909182e-01   7.7167689e-01  -1.9591841e-01  -5.7319232e-01   2.0022001e-02  -4.5802570e-01  -3.8863726e-01  -2.1687096e-01   3.8627254e-01   1.4565175e-01  -7.2168573e-01   1.0927105e-01  -1.7125982e-01  -1.3891582e-01  -7.3383576e-01   6.8562762e-01  -2.1198342e-01  -3.5936004e-01   6.1004320e-01  -4.1377557e-01   3.6062985e-01  -5.3746437e-02  -4.3994250e-01  -4.8296088e-01  -5.1769174e-01  -9.9118394e-01  -7.8004298e-01   1.5234290e-01  -6.3272493e-01  -1.1931004e-01   2.9742360e-01   5.7854036e-02  -2.5503619e-01  -1.6577019e-01  -4.2000153e-01   3.0262638e-01   1.4941846e-01  -9.1382644e-01   2.8118102e-01   4.8326219e-01   1.9872641e-01   7.0886974e-01   3.1710431e-01  -4.9827279e-02  -1.9090181e-01  -3.4280056e-01   9.5802270e-01  -6.4683936e-01  -2.0642819e-01   4.0200655e-02  -5.3202709e-01  -2.3610045e-01  -8.1638831e-01   7.9318350e-01  -7.5710272e-01  -9.2051493e-01   7.9333318e-01   8.8841606e-01   3.2215311e-01   3.9827902e-01  -5.0710535e-01  -3.9801662e-01   9.4061094e-01  -2.3029061e-01   1.5031796e-01  -6.6224716e-01   5.1959325e-01  -3.9583412e-01   6.8430948e-01  -7.9351875e-01   5.4197007e-01   6.6145955e-01  -8.8074552e-03   6.1560566e-01   7.1684005e-01  -9.0020632e-01  -7.3556447e-01   6.8917346e-02   1.7934869e-01   8.6264282e-01   6.5869936e-01  -5.9095176e-02   8.9325163e-01  -9.9271077e-01  -9.5009258e-01  -7.5354511e-01  -3.2971292e-01   4.7174502e-01   1.2203644e-01  -6.8020587e-01   6.8999038e-01  -6.9469647e-01  -3.4431633e-01  -3.6611622e-01   6.4675951e-01  -6.7741667e-01   8.9630288e-01  -8.8444740e-01   6.0090258e-01   4.2058934e-01   1.8424513e-01  -9.6234370e-01  -2.6403419e-01  -8.7385425e-01   2.3654324e-01   4.5742798e-01  -2.8816512e-01  -4.8117373e-01  -2.2468619e-02  -5.9631536e-01   5.6847303e-01  -8.6870752e-01  -4.3875445e-01  -2.8144358e-01   4.3445981e-01   5.4067917e-01   4.3760949e-01  -8.2589422e-01   6.4007986e-01   1.0450103e-01   1.9514136e-01  -6.5207032e-01  -7.6525530e-01   5.1038424e-01  -7.4292024e-01  -2.4372620e-01   2.3213890e-01   3.6229700e-01  -8.5431646e-01   4.8717708e-01   1.5281255e-01   7.2543293e-01   1.5745667e-01   8.1964096e-01   3.7375892e-01   9.0699177e-01   5.0902777e-01   8.5562841e-01  -8.1897923e-01  -1.5643108e-01   5.4895226e-01   2.0793212e-01  -1.7496921e-01   8.0730268e-01  -6.7113882e-01  -8.5113213e-01  -5.8021298e-02   2.2670005e-01   1.9572152e-01  -6.5367651e-02   3.9891443e-03  -7.9639617e-01   2.1055457e-01   5.1616626e-01   6.1378888e-01   4.6360039e-01  -3.8634830e-01   7.9470949e-01  -4.2734398e-01   5.1104795e-01  -7.7566619e-01   7.6384982e-01  -7.5698418e-01   5.2739385e-01  -2.9910830e-01   5.3000182e-01   8.7865498e-01  -1.8615538e-01   6.3301853e-01   2.4627011e-01  -9.6371957e-01  -7.2136329e-01   8.5256292e-01  -8.4311598e-01  -2.6138992e-02  -7.6954384e-01  -4.6848621e-01  -9.4278364e-01   8.7319555e-01  -6.1924618e-01  -7.2891600e-01   9.5626659e-01  -9.9024551e-01  -4.5833877e-01  -7.6779274e-01  -9.2428487e-01  -4.9122592e-01  -4.5865068e-01  -7.8645098e-01  -1.9884691e-01  -1.9757331e-01  -1.6411546e-01  -2.9875142e-01   1.2901220e-01   9.1756169e-01   2.8137104e-01  -5.5699995e-01   1.1017380e-01  -1.5346698e-01  -3.7866787e-01  -7.1350163e-01  -5.6712968e-01  -5.2835493e-01   8.9088405e-01  -9.0719229e-01   8.9217765e-01  -8.6070783e-01   8.2243485e-01   8.6035948e-01  -2.5275631e-01  -3.8847754e-01   2.1122179e-01  -2.2426780e-01   7.7112163e-01   9.4796833e-02  -8.2171648e-01   4.7230803e-01   3.9953486e-01   3.3803639e-01  -9.9899727e-01  -5.2702090e-01  -9.0319931e-01  -7.9913467e-01   6.0054308e-01   5.6690513e-01   6.0543631e-01  -7.4871711e-01   5.9979822e-01  -8.4378154e-01  -3.0064826e-01   7.6118020e-01   5.5672982e-01  -8.1561124e-01   5.8545574e-01  -9.5952732e-01   6.5986132e-01  -7.7234939e-01  -3.8507962e-02  -9.6677300e-01  -9.0146095e-01  -9.6549507e-01  -6.1001664e-01  -1.1803598e-02  -8.4249233e-01  -1.3303960e-01  -2.3159494e-01   8.4754421e-01  -4.2732739e-01   9.9617757e-01  -8.4691995e-01  -7.0869091e-01  -9.7171169e-01  -2.4244291e-01   7.4992107e-01  -2.0130673e-01   4.9830282e-01  -5.5475977e-01   5.3790343e-01  -6.0025899e-01   7.6674687e-01  -5.8976275e-01   9.7397822e-01  -6.7146543e-01   4.6741111e-01   7.5995703e-01   2.9081337e-01   9.2874005e-01   5.6853230e-01  -4.1096732e-01  -3.7489037e-01   9.3137294e-01   5.5199030e-02   1.2306941e-01  -5.7161710e-02   3.3957038e-01  -1.4702025e-01  -8.3073514e-01   4.2095157e-01   2.0781013e-03  -4.5704608e-01   4.5067570e-01   5.1069112e-02   2.1018652e-01  -2.4921134e-01  -3.4647775e-01  -7.3011656e-01   3.9895157e-02  -3.4515369e-02   9.5175760e-01  -1.8858241e-01  -5.4488044e-01   1.3363645e-01   7.7868089e-01   9.6947280e-01  -6.2471102e-01  -7.0313721e-01   1.1874943e-01  -7.4823777e-01  -1.6145479e-01   6.1509475e-01   2.1142643e-02  -6.0177295e-01   3.8983373e-01   1.6441144e-02  -9.2598172e-01  -4.5245955e-01  -7.7117626e-01   2.4669995e-01  -6.7464029e-01  -6.6399756e-01  -7.3440980e-01   8.0228792e-01   8.0912056e-01   9.1559406e-01   7.2592845e-01   8.4955090e-01  -7.2620556e-01   5.3498510e-01  -9.1361374e-01   3.9145716e-01   1.7974369e-01  -9.1927079e-01  -8.2157753e-01  -6.0901809e-01  -9.5740665e-02   1.1931317e-01   7.8380649e-04   1.9067713e-01   7.2067359e-01  -8.0337622e-01  -7.6762679e-01   7.4854008e-01  -5.8952554e-01  -5.7117196e-01  -3.5387472e-01  -8.5287531e-01  -7.8124313e-01  -8.5608533e-01   1.9495081e-01  -4.4960650e-01   7.0519571e-01  -1.5776138e-01  -8.2498152e-01  -9.0868331e-01   5.0428551e-01  -7.9262892e-01   4.6455660e-01  -9.3106664e-01  -1.1294150e-01  -1.8195112e-01   4.5615541e-01   3.1483273e-01   1.8753477e-01   8.4929736e-01   7.6273088e-01  -6.6115887e-01   4.8368486e-01  -3.7182842e-01  -7.4273681e-01  -8.0599486e-01  -9.0891905e-01  -8.0706838e-01   6.0536240e-01   2.1097942e-01   9.0237118e-01   2.2250695e-01  -3.4399779e-01  -5.0513155e-01   8.2699779e-01   1.6118920e-01   7.0441840e-01   5.4782611e-02   4.3880612e-02  -9.3748723e-01  -5.8984468e-01   8.3457421e-01   2.8675360e-01  -7.4636417e-01  -7.8017116e-01  -9.2387798e-01  -6.9815944e-01  -9.4604537e-01  -1.9702626e-02  -7.4806241e-01   5.9633905e-01   6.2219722e-01   6.5808633e-01  -5.5835956e-01  -6.5723023e-02   2.9579701e-01  -4.0155083e-01  -4.4006298e-01   8.4468297e-01  -8.8527334e-01  -9.6418971e-01   7.2268751e-01  -2.3325485e-01  -5.7667956e-01   9.5142713e-01  -9.6092585e-01  -1.9618872e-01   8.1840272e-01   4.0068098e-01  -3.2111367e-01   2.0749026e-01  -6.1055590e-02   1.9765215e-01   5.3148618e-01   2.3138707e-01   1.9879890e-01  -8.0343553e-01  -6.9316450e-01   1.2319377e-01  -6.2502953e-01   7.5732842e-02   8.7061341e-01   5.3563063e-01   3.9369422e-01  -5.4620641e-01   1.9051773e-01   2.9927956e-01   5.2229443e-01   6.6846871e-01   2.9501504e-01   5.5235260e-01  -6.1315213e-01   2.5589304e-01  -3.4549750e-01  -4.4771201e-01   5.0017155e-01   2.1301498e-01   3.6280559e-01   6.2484774e-01   6.3688191e-01  -1.7687316e-01  -8.8014779e-02  -1.2975882e-01  -5.3252902e-01   9.3495144e-01  -9.4950553e-01  -1.1753515e-01   6.1413647e-01   6.2503666e-01   1.4559227e-01   6.1238960e-01   1.3635499e-01  -4.0628790e-01   4.2948202e-01   5.5988880e-01   2.4478934e-02  -5.1779769e-01  -7.0463895e-01  -9.7760004e-02  -2.7120169e-01   7.8058663e-01   9.2236300e-01  -4.4023622e-02   5.0998587e-01  -5.0532698e-01   1.6938641e-01   9.3396476e-01   9.1883083e-01  -9.2127647e-02  -5.6016298e-01   7.3827459e-01   5.7446365e-01   3.7260341e-01  -3.1259617e-01  -7.5194623e-01  -7.2201569e-01  -5.9236147e-01  -7.6274341e-01  -7.2549513e-01  -9.0844358e-01  -1.8021430e-01  -2.8076535e-01   8.5292222e-01   8.1431098e-01  -5.9463325e-01  -1.5682581e-01   4.6012019e-01  -6.6121193e-01   1.4642120e-01  -9.9231810e-01   9.4085919e-01  -1.7978109e-01   3.7582169e-02   6.2802737e-01  -5.8438418e-01  -6.4057767e-01  -8.4375198e-01   1.1817333e-01   2.8408246e-01   4.7529996e-01  -4.0459964e-01   7.5027419e-01   6.3500226e-01  -7.1897896e-01   6.8960651e-01   2.4403988e-01  -7.1026865e-01   3.5230428e-01   2.3105456e-01  -3.6257256e-01  -2.9693706e-01  -6.0926224e-01   9.3862549e-01   4.8584876e-01  -2.4100047e-01  -5.8996732e-01   1.0219288e-01   8.2787267e-01  -1.9731522e-01   8.1845457e-01  -6.3452363e-01  -9.1136955e-01   1.3331597e-03  -7.9109845e-01   1.2835156e-01  -2.5350498e-01  -1.8081702e-01   3.3044449e-01  -3.2375167e-01  -2.7357423e-01  -2.0049410e-01  -4.4937037e-02   7.4662491e-01  -5.6910653e-01  -7.1218930e-01  -4.9242793e-01   7.6754893e-01  -5.4784797e-01  -1.0821300e-01  -5.0299781e-01  -9.0203235e-01  -8.7149819e-01  -3.9065144e-01  -7.7807529e-02  -5.0178844e-01   1.3386585e-01  -9.2628886e-01   2.9568459e-01   1.1468755e-01  -5.3391690e-01   1.1741040e-01  -6.0398021e-01   3.7110718e-01  -4.1760512e-01  -7.3132415e-01   9.0525086e-01   8.2736398e-01   9.2208976e-01  -3.5484435e-01   1.9415431e-01   2.1195274e-01  -5.6770043e-01   9.1792416e-01   9.7878162e-01   2.8614181e-01   4.3725851e-01  -2.6792479e-01   6.8830549e-01   7.7794183e-01  -4.7897970e-02   8.3431960e-01  -8.9787295e-02   1.5909408e-01  -4.9156019e-01   4.2828122e-01  -3.1398367e-01   7.4893620e-01  -9.7880094e-01  -1.3689422e-01  -8.2362887e-01  -3.5417424e-01   5.1565328e-01   2.7275940e-01   7.8822035e-01   6.0512915e-01   1.3450896e-01  -1.4256731e-01  -2.2409940e-01  -3.4407919e-01  -9.0809693e-01   7.6543172e-02  -1.6479012e-01   4.4918647e-01  -3.6293265e-01   1.2566074e-01   9.8543875e-01  -9.2403079e-01   4.1822663e-01   8.0966234e-01  -1.6343815e-01  -1.0813224e-03  -9.7138502e-01  -2.1494850e-01   2.9857709e-01   1.9920637e-01   2.1387393e-01  -2.3510325e-01   7.7586145e-01   7.3610715e-01   4.3132830e-01   8.8441917e-01   8.7215951e-01  -6.1642748e-01   5.1738960e-01  -2.3744186e-01  -9.3836744e-01  -7.4926687e-02  -7.8150393e-01   2.0066453e-01   8.2398467e-01   1.7876454e-01  -1.5757860e-01   5.2508868e-01   6.8858984e-01  -8.0613221e-01  -3.0398694e-01  -8.4640330e-01   4.7922644e-01  -4.5062395e-01  -4.5673142e-01  -1.6267998e-01   2.5180356e-01  -2.6966595e-04  -7.9429533e-01   5.7537973e-01  -5.5334286e-03   3.3132494e-01   3.8483561e-02   9.4348080e-01   7.5245194e-01  -5.2079638e-01  -1.1233019e-01  -1.2397972e-01  -1.1131893e-01  -3.5321164e-01  -1.9270391e-01   6.0994959e-01   3.4103284e-01  -2.7994339e-01   4.6451699e-01   5.0779208e-01  -8.8949295e-01   1.3192482e-02  -6.4438811e-01  -2.7389480e-01   3.9695357e-01  -4.1828348e-01  -4.6488098e-01   8.8587584e-01   7.3245780e-01   4.3081436e-01  -8.0634774e-02   9.2049667e-01  -1.0069976e-01  -3.0767310e-01   3.7130807e-01   6.3083327e-01   1.2474724e-01  -9.9796912e-02   7.1453369e-01   4.4377987e-01  -5.4571078e-01  -2.9334225e-01  -9.3689747e-01   7.4864784e-01  -7.2549764e-01  -1.7118417e-01  -1.7940578e-01   4.3125068e-01  -5.0539050e-01  -9.9291433e-01   9.3885330e-01   1.3129005e-01  -5.2712796e-01   6.1260592e-01  -6.4729938e-01   2.6039405e-01  -4.6417611e-01  -7.8161868e-01   9.8344508e-01   8.5520286e-01  -5.4867823e-01  -9.6174758e-01  -9.3152505e-01   3.3803797e-01   6.4907839e-01  -2.0417151e-01   4.8522428e-02   7.7856374e-01  -3.1269086e-01   7.9260322e-01  -4.9016398e-01  -5.2845349e-01   9.0093868e-01  -9.4865358e-01   8.0491726e-01   9.4218225e-01  -5.1109590e-01  -5.8584842e-01  -5.0156427e-01   5.8712441e-01  -5.1040255e-01  -7.2914520e-01   1.2792652e-01  -4.4094141e-01   2.0125767e-02   5.3012864e-01  -3.9730622e-01  -3.9002349e-02   4.0384599e-01  -7.5656945e-01  -9.6029310e-04  -8.4277842e-01   5.9283207e-02   8.1147781e-01   9.0219514e-01  -1.8783017e-01   3.6631463e-01  -2.2762152e-01  -7.3220612e-01  -1.1334699e-01  -5.1315228e-01   7.2674003e-01  -9.2384256e-01  -8.0383700e-01  -9.6467839e-01   7.9078776e-01   1.3793918e-01  -6.6293058e-01   1.3440997e-01  -7.7105530e-01  -9.1788903e-01   4.1258116e-01  -2.4395632e-01   7.1601676e-01  -5.6758338e-01   5.1870431e-01   8.6170542e-02  -6.0157047e-01   8.3391342e-01   3.6307771e-01   5.2962776e-01   8.1324156e-01  -4.6962131e-01   5.4177557e-02  -4.7728171e-01  -9.2275653e-01  -8.6545798e-02   3.1698732e-01   2.7887616e-01  -9.8819219e-01   3.3428128e-01  -7.0290746e-01   8.3960840e-01   2.1992593e-01   5.3614476e-01  -3.0281455e-01  -5.4743423e-01   1.3346645e-01  -6.4895285e-01   5.7361181e-01   9.4674005e-01  -4.7300481e-01  -2.0776292e-01   4.2075028e-01  -7.4157541e-01  -1.8545601e-01  -1.0964190e-01  -9.5924432e-01   2.8191521e-02   5.0874907e-01  -8.5036267e-01   6.0273864e-01  -9.1371518e-01  -8.9854527e-01   2.3557411e-02  -9.3640956e-01  -9.1871436e-01  -5.3752804e-01   1.1519054e-01  -5.6242998e-01   4.6835703e-01   1.1137084e-01  -9.0329215e-01   8.5754262e-01   9.7372983e-01   7.6340889e-01   8.0170010e-01   8.3302871e-01  -5.3085901e-01   4.1867872e-01   9.6913177e-01  -2.8959306e-01   3.5645756e-01  -6.5021031e-01  -3.2718307e-02  -2.3493477e-01   3.0883534e-01   9.8515574e-01   7.1807603e-01   1.9584227e-01   1.2565985e-01  -8.3287628e-01   8.2856764e-01   1.7050091e-01  -9.3308454e-01  -1.9952727e-01  -7.1910780e-01  -3.1917772e-01  -5.3026939e-01   3.8323123e-01   5.5095100e-01  -1.4086487e-01   8.7466716e-01   7.6247141e-01   5.8681329e-01  -2.2715239e-01  -6.4920716e-01  -2.2565996e-01   6.7574263e-02  -7.9317239e-01   5.8508349e-01  -1.7304488e-01   1.9019583e-01   9.8694004e-03  -1.6399917e-01   4.4674597e-01  -1.3055295e-01   9.4364894e-01  -5.2753868e-01  -7.7681835e-01  -5.2631716e-01  -1.0740305e-01   9.4661229e-02   7.7027649e-01  -2.4068085e-01  -2.4655282e-02  -6.5250144e-01   4.6305321e-01   2.2742696e-01  -4.4090122e-01  -9.4866393e-03  -6.3824055e-01  -9.7020855e-01   7.3907462e-01   3.5277721e-01  -7.4136365e-01  -4.4233416e-01  -2.9814540e-02  -1.1314688e-01  -3.6124126e-01   4.1460575e-01  -2.2034110e-02  -3.2848530e-01   8.4597247e-01   8.5953590e-01  -4.2515516e-01   2.7776277e-02   7.9948571e-01   7.5149042e-01   3.1974372e-01  -7.6292985e-01   5.1233615e-01  -5.9955945e-01   5.6477202e-01   5.1195949e-01   1.3251371e-01   5.1781114e-01   9.1722717e-01  -1.3946839e-01  -4.8317049e-01   8.5738899e-01  -3.8613412e-01   5.5705155e-01   7.6736463e-01   5.5807240e-01  -3.5820862e-02  -9.1732882e-01  -9.3044200e-01  -6.1576792e-01  -5.6673963e-01   8.8609181e-01   6.6128803e-01  -6.4518595e-01  -6.3880635e-01  -3.1837247e-01   9.1570999e-01  -2.7280051e-01  -8.2519392e-01  -9.0416186e-01  -5.1967097e-01   9.7502555e-01   1.0372959e-01  -5.6820608e-01   8.8634732e-01   3.5449393e-01  -5.6378455e-01  -5.1754084e-02   7.7428779e-01   8.0329537e-01   8.5227348e-01   7.4096552e-01  -5.7426136e-01   7.6356798e-01  -1.8640035e-01   2.3512151e-01   8.4371632e-01  -2.3542332e-01  -8.0159252e-01   3.0003911e-01   6.0467419e-01   5.6252854e-01   4.8604479e-01  -6.3817162e-01  -3.6421160e-01   8.6322890e-02  -7.2408505e-01   9.3304359e-01   5.6921477e-01   8.3882890e-01   5.4433012e-01  -6.9128191e-01   7.8226111e-01  -4.1461539e-01  -5.8716135e-01  -7.6253082e-01   3.8060418e-02   9.8142271e-01   2.1637350e-01  -3.2994252e-02  -3.6558002e-01  -3.1794500e-01  -4.8524838e-01   3.0426797e-01  -6.2788683e-01  -7.6511913e-01   6.2910003e-01  -3.2039743e-01   8.3125308e-01   4.7316878e-01   5.8333870e-01   2.0779746e-01  -8.9876613e-01   4.8928607e-01   5.6374510e-01  -1.5736619e-01   4.5235015e-01  -9.4314405e-01  -8.4009570e-01  -1.0750597e-01  -3.3966099e-01  -9.6472592e-01   6.0198235e-01   7.4092842e-01   5.5409070e-01   3.7556155e-01  -9.8267067e-01   6.4683850e-01
  -9.0363774e-01   9.0776758e-01  -7.3031494e-01   9.0010954e-01   1.5442992e-01   3.6378658e-01  -7.8523624e-01   5.6415704e-01  -8.2531467e-01  -1.5213913e-01  -9.2045277e-01  -4.2653625e-01  -6.1670710e-01   4.4412696e-01   4.7024261e-01   7.6359158e-01   7.6608261e-01   1.3473246e-01  -6.2033976e-02  -2.6452217e-01   6.4262645e-02   6.1853489e-01  -2.9344682e-01  -3.4522759e-01   7.9414175e-01  -9.0622886e-01  -1.5421619e-01  -1.6606455e-01  -5.2919358e-01  -6.8896758e-01  -6.3844512e-01   2.7595515e-01   7.2425834e-01   8.8780718e-02   7.4833442e-01   5.0212638e-01   6.0977955e-01  -4.4814352e-01   5.2234092e-01  -1.3570335e-01  -4.3187036e-01  -7.2408596e-01  -8.6577718e-01  -8.8981355e-01   9.2695196e-01  -6.0847385e-01  -6.3845060e-01   3.1531137e-01  -4.0746278e-01   6.8428999e-01  -3.9166344e-01   4.8828342e-01  -5.8698873e-02  -2.4582823e-01   8.9008513e-01  -5.4713241e-01  -8.9426373e-01   6.1759215e-01   7.9848951e-01   5.1595575e-01  -4.2516755e-01  -1.1524712e-01  -5.9587887e-01  -3.4763981e-01   5.5989560e-01  -9.5220008e-01  -8.7539332e-01   7.4256960e-01   9.4362304e-01   9.4019994e-01   6.9516347e-01   4.1275050e-01  -3.8557197e-01   7.1438466e-01   9.1272932e-01   5.8387473e-02   9.9968945e-01   9.0246001e-01   1.1913562e-02   1.0954722e-01   4.6549750e-01  -5.5520361e-01   2.6697427e-01  -3.4031019e-01  -2.5148772e-01   2.0995654e-01   9.7489396e-01  -4.0966053e-01   8.6072528e-03  -6.8841108e-01   6.3739567e-02   9.7157411e-01  -9.6393544e-01   4.9813860e-01  -2.8615776e-01  -4.2037535e-01   2.3044958e-01  -3.2943215e-02  -4.1934362e-01   3.9435698e-01   2.4408481e-01  -5.5660561e-01   8.7393945e-01   5.3420464e-01   7.6138853e-01  -6.3762226e-01  -2.2111702e-02   7.4245405e-02   3.5210766e-01  -1.5958874e-01  -6.7717357e-02   7.9893379e-01   6.2488173e-01  -2.6303878e-01   5.5161134e-01  -6.2382361e-01  -7.5597772e-02  -8.4617654e-01  -7.6099419e-01   8.0997976e-01  -7.2163942e-01  -7.1280828e-01   9.9064440e-02   8.1484638e-01   4.0444339e-02  -2.6461682e-01   1.4577314e-01  -2.6236204e-01  -2.0152907e-01  -4.4008026e-01   4.1179709e-01   9.9808070e-01   7.0424337e-01   3.4215332e-01  -3.5354901e-01  -1.0972722e-01  -5.8464914e-01   5.5128117e-01  -7.3893427e-01  -8.1801637e-01   7.6876713e-01   1.9548470e-01  -4.1464974e-01  -4.5208127e-01  -7.8905878e-01  -6.3513730e-01   2.3901025e-01  -7.2439402e-01  -9.6099230e-01   9.0190979e-02   1.5412299e-01  -3.9742381e-01   3.6144778e-01  -6.6362870e-01  -1.4297456e-01   4.4801509e-01   4.1105449e-01   5.7540128e-01   2.7476666e-01  -2.1193964e-03   4.2092048e-02   9.9028259e-01   1.2675309e-01  -6.1008605e-01  -7.8815144e-01  -6.5635058e-01   8.9188352e-01   5.5157978e-01   1.5744130e-01  -6.0751697e-02  -2.7388366e-01  -3.2165088e-01   2.2211016e-03   7.5113250e-01   4.2573839e-01  -7.2109306e-01   2.8446615e-01   3.4754814e-01  -1.6566336e-01  -6.6430761e-01  -6.0410124e-01   8.4576137e-01  -9.4550981e-01  -4.3794240e-01   4.9180277e-01  -2.8561061e-01  -7.8411149e-01   4.7978154e-01  -7.3599701e-01   9.7447101e-01   1.6096970e-01   3.7904667e-01   3.4092096e-01   6.1331373e-01  -4.7788962e-01   8.7738648e-02  -4.9159012e-01   1.6820617e-01  -5.0075735e-01   6.9705392e-01   9.5371944e-01  -5.8499244e-01  -1.3965505e-01  -6.7676783e-01  -5.7785809e-01  -2.1594533e-01   8.9116548e-01   7.5943368e-01  -1.3438340e-01  -2.7089104e-01   9.4342896e-01   5.0087312e-01  -3.4965294e-01   5.6503351e-01  -2.8485407e-02   8.1047941e-01   5.5801933e-02   8.7481880e-03  -2.1553336e-01   7.6378575e-02  -4.0619535e-01   9.8849320e-02   2.4324590e-01   5.1384865e-01  -5.3377674e-01  -1.6119909e-01   4.0611597e-02  -2.4140565e-01  -3.5563766e-01  -8.7892503e-01   6.2362467e-01   9.9789180e-01  -9.2167744e-01   8.2959999e-01  -2.2907841e-01  -4.6797281e-01   4.1977411e-01   3.8702684e-01  -4.5305098e-01   2.3242930e-01   7.4224708e-01  -3.5661467e-01   4.2250426e-01   3.7962769e-01   6.3031903e-02   8.5673786e-02   9.5616705e-01  -1.1711608e-01  -5.2995370e-03  -2.8028853e-01  -7.0686079e-01  -3.5106727e-01  -3.9526220e-01   5.7062158e-01   9.5043797e-01  -6.2195704e-01  -1.5878555e-01  -7.2523702e-01   1.3665693e-01   1.7338409e-01   1.9022998e-01  -1.4710182e-01  -1.6119213e-01  -2.7362697e-01  -2.2949474e-01   9.5979779e-01   9.6724152e-01  -7.8214479e-01  -5.4645633e-01   3.9507809e-01  -2.1473004e-01  -3.8110986e-01   7.4668225e-01   7.6644764e-01   8.2971469e-01   6.1451178e-01  -1.8689812e-01   6.5666703e-01  -4.4614761e-01  -4.1459737e-01  -7.1878406e-01   6.3652312e-01   7.5570134e-02   1.9488857e-01  -8.4471169e-01  -5.6304848e-01  -8.4348880e-03   2.2294216e-01   5.3976449e-01   8.4149963e-01  -4.9128827e-01   7.8118728e-01  -7.1412374e-01  -8.2944889e-01  -1.1611764e-01  -5.1676040e-01   5.8629105e-01   8.8759169e-01   1.5524525e-01  -9.3096745e-01   3.9279078e-01   6.9213325e-01   7.7758482e-01   1.3600468e-01  -5.1447219e-01   8.4204794e-01   4.8500435e-01   7.3129812e-01  -1.2962325e-01  -2.3664015e-01  -8.3507432e-01  -6.1638026e-02   6.0364239e-01   1.4569874e-01   1.0140110e-01   6.7935532e-01   9.9731291e-01  -4.4714941e-01   3.7799970e-01   3.6479719e-02  -4.2665313e-01  -5.8131818e-01  -3.5341830e-01  -3.8793286e-01  -7.8331071e-01  -3.5774801e-01   4.0226547e-01   5.7475409e-01  -2.9562713e-01   4.2331486e-01  -1.8369243e-01   3.1894258e-01  -3.3380471e-01   6.0559852e-02   8.7843463e-01   6.0903940e-01  -9.6199702e-01   9.5079922e-01   6.5654765e-01   4.9630672e-01  -7.2263959e-01  -9.9689843e-01   9.0330196e-01  -4.7097509e-01   8.4624550e-01   9.7500767e-01   7.9435625e-01  -5.1195021e-01  -3.0187215e-01   9.7870734e-01  -6.8792228e-01  -5.7058310e-01   8.6325029e-01  -5.9315489e-01  -1.9744219e-01   4.7089017e-01  -3.2221223e-01   6.4707202e-01   1.7951906e-01  -3.5836318e-01   4.1756329e-01   9.5900439e-02  -1.1129090e-01   8.8223762e-01  -4.4472558e-01  -1.6027203e-01   7.2843044e-02   8.0335213e-01   5.5623376e-01   1.9053502e-01   4.6187278e-01   9.6397635e-01   5.3492296e-02   4.1335177e-02   2.8441269e-01  -3.6585664e-01   2.3768283e-01   7.2839105e-01   2.5376696e-01   9.8099579e-01  -6.7190380e-01  -5.6593696e-01  -9.1629953e-01  -4.1849047e-02  -2.0997506e-01  -7.9083370e-02  -2.5786304e-01  -2.5266494e-01  -7.5217197e-01  -8.6185461e-01   1.3484364e-02   4.2725917e-01   9.9749302e-01   1.0992587e-02  -9.8189407e-01   5.3811890e-01  -1.9295224e-01  -5.7977454e-01  -4.9815108e-01   5.3291113e-01   9.8597488e-01  -7.4715662e-02   1.4948792e-01   6.9493112e-01  -7.0999973e-01   1.2438938e-01  -2.1344046e-01   3.8283587e-01   4.8621488e-01   3.1367551e-01   9.5402286e-01  -2.3979431e-01  -6.4555528e-01   2.6349796e-01   1.2236956e-01  -2.2097034e-01   4.1846169e-01   8.7995745e-01  -1.7333712e-01   6.1316034e-01   3.3973777e-01   2.0460090e-01  -8.4672505e-01  -1.6940140e-01   8.4211985e-01  -6.9352929e-02  -3.7456178e-01  -8.0427181e-01   6.3042184e-01   5.8228571e-01  -6.7880703e-01  -6.7103181e-01  -8.6071029e-01   3.2349619e-01   8.4461663e-01  -6.2117381e-01   6.2635170e-01  -1.1821309e-01  -8.2442558e-01  -6.1729532e-02  -7.4042090e-01   1.3760562e-01   1.4026372e-01  -5.5352066e-01  -7.2850993e-01   6.4644031e-01   2.1175111e-01  -9.6916187e-01  -4.6089360e-01  -3.8000023e-01   5.7417170e-01  -1.2458790e-01  -5.2434847e-01  -8.4060049e-01   8.5243326e-01   2.0937436e-01   5.3323525e-01  -5.6722093e-01   5.8362332e-02   7.7226732e-01  -1.5314379e-01   2.6699617e-01  -4.5599404e-01   1.7978432e-01  -9.2956489e-01   5.0701749e-01  -4.1477981e-01  -5.9994654e-01  -1.1932316e-03   8.5214883e-01   7.0492060e-01  -5.8943054e-01  -9.5641163e-01   9.9927975e-01  -5.7784730e-01   2.7876418e-01  -6.2607211e-01   1.1413161e-01   3.0707743e-01  -1.7576913e-02   2.7843047e-01   5.6693329e-01  -9.4098222e-01  -9.9389413e-01  -1.4999898e-01  -4.0223609e-01   3.5454209e-01  -5.9703130e-01   6.2297111e-01  -6.7021674e-01  -3.0021942e-01  -1.4236152e-01  -5.0252331e-01   5.7963362e-01  -2.7150080e-01   4.8329904e-01   8.1642222e-01  -7.8413265e-01  -3.8628830e-02  -7.3354960e-01   7.0239207e-01  -6.1325271e-01  -3.6253643e-01   5.7728917e-01  -3.9720779e-01  -8.4815785e-01  -5.8903457e-01   4.4460745e-01  -7.5222296e-01   2.4130278e-03  -3.5356716e-01  -7.2108186e-01   5.9038292e-01   9.6739187e-02   5.2535620e-01   5.2221721e-02   9.0666020e-01  -3.0205951e-01  -9.3544780e-01  -6.2320720e-02  -9.5642441e-02  -3.1701659e-01  -8.7832422e-01   7.2124912e-01  -5.7820153e-01   6.2137153e-01  -6.2889088e-01   1.7887294e-01  -2.4084839e-01   9.7224726e-01   9.2996273e-01   8.5332506e-01   4.4557103e-01  -8.7368867e-01  -2.0129804e-01  -7.9094111e-01   4.0397936e-01   6.7258764e-02   2.3485652e-01  -2.7588467e-01   4.4687449e-01  -7.7699607e-01  -1.3500469e-01   6.4680927e-01  -5.2443620e-01  -1.6650870e-01  -1.9878659e-02   6.6220005e-01   9.0997609e-01   1.6310539e-01   2.0088167e-01  -3.5331182e-01  -5.2970123e-01  -5.9086228e-01   8.5071324e-01  -9.3543119e-01   6.9983260e-01  -6.9448821e-01   2.9833444e-01  -7.7599585e-01  -9.0521222e-01  -8.3823515e-01   4.7294416e-01   9.7084470e-01   2.9987264e-01  -1.0258722e-01   1.0521906e-01  -3.6968882e-01  -4.1558686e-01  -5.6220681e-01   9.3811807e-01  -3.8492485e-01   7.1704436e-01  -4.2921371e-01   8.8839469e-01  -4.2480501e-01   8.1951630e-02   9.9143918e-01   3.6487418e-01   9.2150326e-01   6.2414631e-01  -9.5001058e-01   3.0933726e-01  -3.1144689e-01  -6.8425078e-02   5.3137453e-01  -3.7697513e-01   1.8457769e-01   1.0901704e-01  -5.0284194e-01   1.1317372e-01   3.2251109e-01  -1.4680798e-01   1.8164035e-01   9.4896732e-02  -7.5909768e-01   6.4930237e-01  -4.9600664e-02   9.5725970e-01  -4.2770259e-01  -2.1122337e-01   6.2273859e-02  -9.4294234e-01  -2.9104766e-01   8.3517135e-01  -2.0994811e-01   6.7511354e-02  -9.1756950e-01   6.3942268e-02  -1.0051409e-01   5.0782219e-01  -8.3014815e-01  -1.2023394e-01  -5.3508164e-01   5.7566379e-01   1.9157519e-01  -4.7136422e-01  -9.9044604e-01   5.2162386e-01  -2.3318829e-01   4.2218929e-01   6.0562107e-01   6.3702837e-01   8.3183648e-01  -4.7758532e-01  -9.6381696e-01  -9.0177646e-01   3.7986124e-01   2.4589857e-01  -5.6907411e-01   4.4476423e-02   6.7369341e-02   5.3300475e-01   3.5157935e-01  -3.8274819e-01  -5.7125491e-01  -6.9892590e-01  -7.8447983e-01   6.4568541e-01   8.7225012e-01   7.4830093e-01   5.8226438e-01   6.6662105e-01   8.4349497e-01  -9.2568863e-01   1.6385981e-01  -3.3662477e-01   5.5360704e-01   5.6971005e-01  -7.8448452e-01  -6.8313744e-01   5.9361121e-01   2.3095945e-01   8.2581615e-01   2.2592068e-01  -1.2476812e-01  -2.3161476e-01  -5.6245151e-01  -8.3179418e-01  -7.9546704e-01   6.5552827e-01   7.0915708e-01   5.6096310e-01   7.6029181e-03   2.6381027e-01  -3.8009096e-01  -7.1730634e-01   5.9617033e-01  -9.4239677e-01  -1.8156460e-01  -7.7848298e-01  -7.3286728e-01   3.4985916e-01   9.9342459e-01  -1.4123737e-01   3.8377333e-01  -2.8464170e-01   7.5913540e-01   2.9344958e-02  -2.6492508e-01  -6.3702280e-01   9.8328071e-01  -6.1316357e-01   5.6015996e-01   3.0014007e-01  -4.6715057e-01   9.6370535e-01   2.8042289e-01  -8.0047788e-01  -5.0165343e-01   3.5397252e-01   3.8000366e-01  -7.2122095e-01  -3.2114308e-01   4.9707728e-01  -1.1859845e-01   8.3722190e-01   7.9663125e-01  -4.1759604e-01  -9.9176889e-01   3.4477626e-01   8.9013484e-01   4.3509681e-01   7.3363885e-01   8.6137635e-01   6.5114241e-01   7.1816929e-01  -2.2523251e-01  -9.0864326e-01   2.8385960e-01  -9.6407590e-01   7.7746318e-01   1.4530669e-01   8.3506678e-01   5.7640829e-01  -8.0222885e-01   1.8318460e-01   7.6393965e-01   1.1883904e-02  -9.8599944e-01  -9.9021516e-01   2.4006496e-01  -7.1375227e-01   2.2343060e-01   4.0365075e-01  -8.3882930e-01   3.7089834e-01  -7.6172093e-01   2.4872559e-01  -4.4409415e-01   3.6041607e-02  -4.4802686e-01  -5.3451617e-01   1.2409873e-01  -5.2215217e-01  -8.3001293e-02  -5.4399536e-01   5.5737164e-02  -7.5537248e-01   5.9705429e-01  -8.0833613e-01   1.9096300e-01  -7.9806713e-01  -8.7051221e-01  -4.7480775e-01   8.1219623e-01  -1.1101037e-01   1.7464245e-01  -7.8431559e-01   4.2923680e-01   9.1437856e-01   4.0965183e-01   6.7500919e-01  -4.3060919e-01   3.6132126e-01   6.8788910e-01   4.7256098e-01   8.4000883e-01   7.3509657e-01  -3.0994506e-01   6.5466681e-01  -1.4613007e-01  -6.0542894e-01  -5.3574372e-01  -1.4835284e-01   7.8576020e-02  -6.2489333e-01   4.8924574e-01  -8.5901888e-01  -8.7223459e-01  -6.5308112e-01   4.9158470e-01  -5.9129815e-01   9.7334525e-01   6.5499202e-01   9.0664221e-01   9.2220628e-01   7.5221543e-01  -1.0063637e-02   3.3211946e-01   4.4487106e-01   2.2853074e-01   6.7223464e-01  -1.5896030e-01   7.7102633e-01   9.6703069e-01  -1.3580296e-01  -1.9330258e-01  -7.9316606e-01  -6.0660601e-01   4.7454141e-01   9.5664090e-02   5.7061380e-01  -5.0063742e-01   8.9913668e-01  -1.8705870e-01   3.6417647e-01   1.5020313e-01  -3.7011838e-01   1.2407571e-01   5.7737522e-01   2.7577380e-01  -3.9474458e-01  -8.7506415e-01  -6.4928120e-01  -2.1756677e-01   3.8633637e-01   6.1944314e-01   5.0981669e-01   3.1117601e-01   3.7198374e-01   5.0482557e-01  -7.9959215e-01   1.1830228e-02  -9.8284156e-01  -5.0475177e-01  -7.3980226e-02  -5.9047115e-01   7.8002778e-01  -7.8977592e-01  -4.4036633e-01   5.8152212e-01   5.7477710e-02   5.2472208e-01   3.2937387e-01  -9.9911160e-01   4.8045678e-01  -3.3572333e-01   7.0085087e-02   8.5981767e-01   9.3746395e-01  -7.7239653e-01  -3.2475729e-01  -2.1224525e-01   3.7749578e-01  -3.8445354e-02   3.8232167e-01  -1.8577220e-01  -2.6196692e-01   2.7862303e-01   1.7880290e-01  -3.6751236e-01  -6.3602924e-01   8.9218697e-01   2.1221201e-01   4.9231383e-01  -2.6845447e-01  -7.7596737e-02  -8.4232880e-01  -2.4564257e-01  -8.3553213e-01  -6.1290746e-01   9.6776292e-01  -7.0248810e-01   2.7135294e-01  -8.5504233e-01   9.9594965e-01  -5.9015198e-01  -4.3402608e-01   7.2170291e-01  -3.0915127e-01  -6.9799062e-01   5.9902315e-01   1.0399677e-01  -9.5199528e-01  -2.8468694e-01   1.1981169e-01   2.2520513e-01  -1.1082879e-01  -2.2540023e-01  -8.8209952e-01  -4.0694872e-02  -8.7631393e-01  -6.6943177e-01   5.5122893e-01   6.5165286e-01  -6.6237237e-01   6.3259325e-01   3.6769258e-01   6.4591656e-01  -9.6831717e-01   6.7995477e-01  -9.1724255e-01  -1.4366109e-01   2.9413721e-01   6.5549047e-01  -6.0425377e-01   1.5106287e-01  -8.3090289e-01  -4.0852717e-01   5.0300989e-01   9.5040559e-01  -7.9985339e-01  -2.7713743e-01  -3.4656259e-01  -5.2014774e-01  -2.4746850e-01  -1.0157605e-01  -8.9329296e-01   5.1070359e-01   1.5084701e-01  -9.5498755e-01   5.4090312e-01  -3.3844958e-01  -7.6952690e-02   9.1760788e-01   9.4711613e-01  -3.9244466e-01   3.1019108e-01  -2.4274106e-01   3.4968116e-01  -6.9289519e-01  -1.6213663e-01   5.9658346e-01  -5.9827840e-01  -7.1739829e-01   3.5099122e-01  -9.5662691e-01   6.6967300e-01  -9.6483988e-01  -5.6786831e-01   6.6109219e-01   8.7905883e-01   4.5720971e-01   9.0128006e-01  -8.8895660e-01   4.2048387e-01   8.3466471e-01  -8.8968633e-01  -7.3425608e-01   8.5137849e-01  -1.2275912e-01  -2.4899609e-01  -5.4966390e-01  -5.7130603e-01  -5.8864401e-01   8.3800271e-01  -7.3399499e-01  -3.7935590e-01  -4.1070434e-01  -1.9905380e-01  -1.7538798e-01   5.3803572e-01   7.2630407e-01   3.4187457e-01   3.1741579e-01   4.7461063e-01   6.5409336e-02  -5.4255475e-01   7.2051044e-01  -4.7727224e-01  -7.0508597e-01  -8.4665057e-01   3.6566433e-01  -4.9612340e-01  -5.9491027e-01   6.9660712e-01  -1.8691228e-01  -7.7830700e-01   2.3078277e-01   2.8123253e-01   7.6310625e-01  -8.8592455e-01   2.3521472e-01   7.7215403e-01  -9.9200227e-01  -6.9823183e-01   3.8612986e-01  -3.3565477e-01  -4.1890695e-01   3.7485577e-01   8.5337238e-01  -1.3321773e-01   2.6088386e-01  -3.9585555e-01  -8.6168640e-01   8.8218123e-01   9.4450509e-01  -7.9226891e-01  -5.8426007e-01  -4.9243281e-01   7.8040624e-01   7.0386250e-01   9.4408738e-01  -2.7640849e-01   5.4958055e-01   1.9641262e-01  -3.4223274e-02  -5.1481842e-01  -4.7895095e-01   7.7501896e-01  -2.5221653e-01  -1.5670366e-02   7.4413046e-03  -8.2124807e-01  -9.1631898e-01  -7.3669062e-01  -9.6386088e-01   3.3923793e-01   3.8983934e-01
  -1.3922758e-01  -5.6333420e-01   5.9059213e-01   5.8310940e-01  -9.4086907e-01  -8.9263707e-01  -6.3150868e-01  -8.4636209e-01  -4.5895485e-01   6.8606903e-01  -6.2110621e-01  -3.4106874e-01   2.8422889e-01   4.3677293e-01   2.2886048e-02  -4.2429963e-01  -8.4759721e-01   7.9980314e-01   8.8846715e-01   1.5222587e-01  -5.7491620e-01   3.7173381e-01  -8.8929529e-01   2.1608716e-01  -9.5366820e-01  -3.1290652e-01  -2.6850962e-01  -2.0932526e-01  -1.5276180e-01   6.4733810e-01   2.0975912e-01   6.2830954e-01  -9.2841591e-01  -9.0213238e-01  -3.2837682e-01  -1.9316072e-01  -1.5147036e-01   3.0889972e-02  -2.5706523e-01   8.1900117e-01  -7.5602066e-01   2.7832904e-01   9.6095142e-02  -9.4850933e-01  -1.6680636e-02  -3.0889217e-01   3.5799213e-01   9.3473325e-01   6.2407625e-01  -9.9376123e-01   4.2813748e-01   3.4883671e-01  -9.9264161e-01   6.2669725e-01  -9.0316670e-01   4.3466039e-01  -9.4120712e-01   9.9564620e-02  -1.0346932e-01   8.4770181e-01   4.0110658e-01  -2.3017850e-02  -9.5980329e-01   4.7810382e-01  -5.4605534e-01  -9.1830668e-01   9.6745614e-01  -8.4157821e-01  -1.3603863e-01   5.8012106e-01  -7.7081635e-01   8.4450045e-01   1.3173607e-01  -3.6311725e-01  -3.8579555e-01  -2.3745452e-01  -5.2399470e-01   4.5940944e-01  -1.4042831e-01   4.8405799e-02   4.8551121e-01   2.4782383e-01   8.9584488e-01   9.4502451e-01  -4.8605710e-01  -1.1695087e-01  -3.5932459e-01   7.2555625e-01   3.5498847e-01  -4.9671383e-02   9.1148690e-01   6.4324591e-01  -7.7004146e-01   7.5647754e-01  -5.0459124e-02   4.9756355e-01   4.7719289e-01  -1.1612770e-01   5.6935646e-01   8.7614632e-01  -8.5621535e-01   5.2383271e-01  -3.8034800e-01   5.9043008e-01   2.0286396e-01   4.8167652e-01   6.1416113e-02  -4.6171092e-01   4.6823021e-01   6.7159758e-01   2.1168949e-01   3.0168937e-01  -3.4432523e-02   1.7353843e-01  -5.1182331e-01   9.7973351e-01  -7.6074682e-01  -7.6515579e-03   5.5892228e-01  -1.2324700e-01   9.3190410e-02   8.2767271e-02   5.9651155e-01  -8.9323916e-01   7.8003387e-01   9.3464708e-01  -4.8814932e-01   2.2048066e-01  -3.9034702e-01  -7.2031446e-01   4.9047654e-01  -5.4893595e-01   4.4044856e-01  -8.2730647e-01  -6.5218839e-01  -8.6665932e-01  -3.3268191e-01   6.8315514e-01  -1.2676464e-01  -3.5808422e-01   2.2721822e-01   4.3331920e-01   4.7703238e-02  -3.5807274e-01   3.1849165e-01  -8.4365517e-01   4.5898782e-01   6.5531433e-01  -6.1286129e-01   2.7352125e-01  -2.0142358e-02   4.1754405e-01  -8.7590299e-01  -6.5105233e-01  -1.8373375e-01   3.2164540e-02  -4.2640295e-01   2.4607291e-01   8.7172293e-01   1.7292824e-01  -4.1406039e-01   1.3981938e-01   7.7199574e-01  -8.4106480e-01   3.8738698e-01  -5.5976282e-01   4.7619902e-01   9.4758314e-01  -7.1870687e-02  -4.4947828e-01   6.6601970e-01  -5.8092742e-01   8.6369672e-01   1.6855325e-01   2.8457596e-01  -8.6456259e-01   2.7766918e-01   1.3452377e-01  -9.3827942e-01  -3.3449309e-01  -1.2008671e-01  -4.8258707e-01  -4.2959441e-01   2.3309156e-01   8.7613393e-01   1.6912965e-01  -8.7484788e-01  -4.1797972e-01  -7.8859182e-01  -1.8310441e-01  -1.3528139e-01  -6.9937579e-01  -6.5473947e-01  -3.9904209e-01  -7.0381455e-01  -7.9082750e-01   9.6483365e-01   1.4586976e-01   4.6561359e-01  -2.5015351e-01  -2.1475394e-01   8.2874964e-02  -4.6085148e-01   8.4350393e-01  -5.6120391e-01   5.1194414e-02   3.2263906e-01  -3.9933467e-01  -7.7492770e-01  -9.5413418e-01   9.5227674e-01  -2.2262366e-01   4.6381195e-01  -1.2501642e-02   5.7738656e-01   6.5132059e-01  -4.9704477e-01   2.2013316e-01  -4.1379943e-01  -3.5785161e-02  -1.5996352e-01   5.1123593e-01   9.3724726e-01  -5.4677132e-01  -3.5399203e-01  -2.0302990e-01  -1.2249568e-01   9.8993064e-01   9.8012193e-01  -2.1057065e-01  -1.9122363e-01  -9.5870813e-01  -9.7799312e-01   8.2987171e-01   2.9485787e-01  -7.3559263e-01   7.5880871e-01  -6.1224632e-01  -4.2606234e-01   9.3718101e-01   2.5162274e-01   6.8939386e-01   6.9156618e-01  -7.8046724e-01   8.7127648e-01   1.5697692e-01   8.9641885e-01  -3.3409912e-01   6.4398026e-01  -3.5389949e-01  -2.3266667e-01   6.6965279e-01  -4.7791641e-01   3.5650437e-02  -7.3494233e-01   6.7659592e-01   6.7816708e-01   8.1744648e-01  -4.9467486e-01  -9.9603448e-01  -9.2724137e-01  -9.2119033e-01   5.0991775e-01  -8.7658808e-01   7.0852792e-01  -4.1408378e-01  -5.2869158e-01   4.8867907e-01   4.8547846e-01   6.0028571e-01  -7.7313037e-01  -8.0599799e-01   5.4869329e-01   8.7294469e-01  -7.1809148e-01   7.1237825e-01   1.3227176e-01   5.9260148e-01   6.7555593e-01   6.5507555e-01  -1.4712456e-01   2.6771102e-01  -9.9048218e-01  -4.8605262e-01   8.7163295e-01   5.7351401e-02  -5.3087239e-02   9.9007979e-01   8.4879651e-01   8.1611905e-01   6.9700793e-01   1.0385886e-01   2.8914885e-01  -3.6848397e-01   6.2364418e-01  -1.6280155e-01   4.2097980e-01  -2.0227497e-01   1.9781717e-01  -6.3684713e-03  -2.5481412e-01   5.0148529e-01  -2.8141221e-01   2.2810252e-01  -4.5259577e-01  -9.0881303e-01   3.5994826e-01  -9.9286546e-02  -6.5052350e-01  -1.9234160e-01  -3.5716169e-01   1.8067441e-01  -5.0689661e-01  -2.8081534e-01  -3.4523814e-01   3.9700205e-01  -7.8613429e-01  -9.4074078e-01  -2.8792366e-01   1.5726938e-01  -8.2933484e-02  -8.3155438e-01  -5.4276617e-03   6.7432570e-01   3.7203555e-01   1.7067902e-01   7.8741042e-01  -4.6939744e-01   6.0060322e-01   4.0228789e-01   9.5988801e-01   8.7817839e-01   6.4805903e-01   7.8081097e-01   5.1871386e-01   7.5990673e-01   5.7537956e-01   4.3678084e-01  -7.6135959e-01  -5.5446105e-01  -8.9568659e-01  -6.5484226e-01  -7.7159594e-01  -1.0237521e-01   9.4322567e-01   5.1990586e-01  -8.9522066e-01   2.6299454e-01   8.2548170e-01   2.8556431e-01  -5.2673882e-01   3.9033977e-01   6.2049360e-02   7.0058804e-01   1.4719407e-01  -3.8428975e-01  -9.6056269e-01   8.9825051e-01  -9.7080259e-02   6.3603868e-02  -5.2343860e-01  -9.0398416e-02   7.3744617e-01   4.2845059e-01   7.0298843e-01   1.5728881e-01   7.5764161e-01  -5.2799531e-01  -4.0129346e-02  -1.3893846e-01   4.1192997e-02  -2.4254868e-01  -9.5784468e-01   7.9927389e-01   7.5499169e-01   9.7761327e-01  -3.5136941e-01  -8.6211908e-01  -5.8139867e-01   7.4573796e-01   8.6893953e-01   6.9104528e-01  -4.6199895e-01   8.5228600e-02   4.6678945e-01  -3.8281885e-01  -2.3745241e-01  -3.5449607e-01   5.5687436e-01  -3.9064084e-01  -8.0786867e-01  -8.6265306e-01   9.0487092e-01  -7.2746780e-01  -4.3528536e-02  -3.7919126e-01  -9.2292087e-01   1.8633534e-01   4.3865765e-01   6.1222586e-01   7.0403289e-01   7.5364291e-01  -1.8047844e-01   3.3252789e-01  -3.9135159e-01  -1.3395278e-01   4.1840913e-01  -1.2293259e-01  -3.2207927e-02  -7.6170736e-01   5.5391776e-01  -3.4474662e-02   4.9096985e-01  -6.8221687e-01   2.8163728e-01   1.0155950e-01  -9.4499089e-01  -7.7995964e-01   5.7260816e-01   3.5082210e-01  -1.0190193e-01  -7.3822261e-01  -4.1389096e-01  -2.1768092e-01   1.9859417e-01  -2.5852886e-02  -5.1820655e-01  -4.2092778e-01  -2.4069775e-01  -6.3144828e-01  -7.7331042e-01  -2.0943139e-01   3.8598504e-01  -8.0482157e-01  -4.3515384e-01   8.0189741e-01  -9.6824580e-01  -6.8213925e-01   7.9277579e-01   6.0483620e-01  -2.1541275e-01  -3.6687263e-01  -4.7527800e-01  -6.2063554e-01   6.8432994e-01  -3.3826767e-01  -4.8989255e-01  -1.2906443e-01   2.5809249e-01   7.8748413e-01   1.1838664e-01  -4.6286340e-01   6.9724416e-01  -8.0746693e-01   2.3240468e-02  -9.2113929e-01  -8.5656054e-01  -6.6717379e-01  -7.2366209e-01  -2.6548580e-02   4.3577447e-01   7.5915446e-01  -2.3543245e-01   6.5993026e-01  -9.0051000e-02   4.2505990e-01  -5.3770370e-01   5.7270528e-01   4.0350628e-01   2.9198055e-01   8.9475441e-01   8.9355160e-01   7.2950623e-01  -4.1097415e-01   6.1023662e-01  -7.8147607e-01  -4.1211147e-01   7.5090005e-01   8.8050979e-01  -4.2229002e-02  -4.8689173e-01  -8.7645958e-01   3.0894782e-01   4.8065726e-01   9.7691983e-01  -3.5175318e-01  -8.2900058e-02   4.3221403e-01  -2.3305538e-01  -7.9375211e-01  -5.2842226e-01   1.0555847e-02  -1.3611880e-01  -1.0222561e-01   7.6358756e-01   5.0068043e-01  -8.7312354e-01  -3.1358504e-01  -6.5689416e-01   2.1106753e-01  -1.9004609e-01   4.4241315e-01  -6.8036002e-02   5.5817754e-02   1.8915466e-01   3.4402791e-01  -4.7208530e-01   9.9347614e-01   1.6241900e-02  -6.6090266e-01  -8.7767827e-01  -8.3828886e-01   5.2976859e-01   3.0251373e-01   1.4355264e-01  -5.5175249e-01  -9.6788086e-01  -7.7979703e-01  -4.3805715e-01   1.7736918e-01  -1.1272615e-01  -7.8351752e-01   9.2126036e-01   8.5620653e-02  -7.3490253e-01  -3.1733730e-01   8.2984351e-01   3.6558573e-01   8.9383167e-01   8.5043593e-01   5.6022721e-01  -3.8186882e-01   7.1668671e-01   3.7949877e-01   6.5663947e-01   5.7283392e-01  -2.2247181e-01  -6.1616551e-01  -5.7392761e-01  -7.9459711e-01   1.7215317e-01   9.2603458e-01   3.4688864e-01  -1.0666339e-01  -7.4431573e-01   1.9167399e-01   6.8876015e-02   7.6915362e-01  -7.9474795e-01  -2.8110833e-01   2.3355830e-01  -2.1367138e-01   2.1278524e-01   3.6874559e-02  -2.7472228e-01   3.0753427e-01  -4.5157227e-02   9.3148587e-01  -3.5048355e-01  -3.6266981e-01  -4.3776320e-01   1.3493755e-02   3.4711344e-01   9.6466758e-01  -8.0530294e-02  -1.6884202e-01  -6.2041010e-01  -9.8039374e-01   7.1603722e-01  -7.1631001e-01   1.4006724e-01   5.3271202e-03   6.2238913e-01  -7.1171525e-01  -4.2096870e-01  -1.6618412e-01  -3.8033367e-01   8.5090185e-01  -6.6637001e-01   4.1962949e-01   4.4674689e-01  -5.3234904e-01  -7.2821781e-02  -7.8497084e-01   6.3154829e-01  -5.2075510e-01  -1.4552779e-01   4.6414371e-01  -4.2196113e-01  -1.3312927e-01  -9.2836895e-01  -7.2107727e-01  -9.2062123e-01  -5.1543195e-02  -4.0880433e-01  -4.4892354e-01  -7.1724352e-01   1.6526053e-01  -3.7720622e-01  -6.9695211e-01  -1.0663788e-01  -9.2652937e-01  -8.4451399e-01  -9.2628037e-01  -3.9830510e-01   2.1093783e-01   9.8136027e-02   4.1984510e-01   7.6144390e-01   3.9525746e-01   4.8410016e-01  -4.3484168e-01   9.3813904e-01  -5.1976317e-01  -9.9426245e-01  -3.3133765e-01  -6.0954596e-02   4.6193581e-01   2.3557725e-01  -4.4130216e-01  -5.5548895e-01   2.1707607e-01  -3.4102181e-01  -8.3670911e-01  -5.5695607e-01   2.7087023e-01   4.4549053e-02   2.0010382e-01  -7.2383471e-01  -9.9364049e-01   8.8510102e-01  -6.8039812e-01  -9.8471941e-01   1.6056545e-01  -1.5700905e-01   5.1897567e-01   1.1992463e-01   8.7379091e-02   1.3001525e-01   5.6899773e-01   8.3595962e-01  -8.6884343e-01  -8.5258858e-01  -1.9210458e-01   6.6689956e-01  -1.9397541e-02   6.5448656e-01  -6.3626491e-01   7.0532035e-01   2.6117798e-01  -8.9589087e-01  -8.5523726e-01   1.9609146e-01  -9.3596623e-01  -9.3946700e-01   2.8923349e-01  -4.4852259e-01  -1.5830281e-02   5.6962410e-01  -1.5122038e-01   9.3331717e-01   9.8890704e-01   2.4028631e-01   5.3334575e-01  -6.0746517e-02   1.1089259e-01  -7.1468452e-01   7.8827044e-01   3.3378209e-01  -7.4796793e-01  -8.6853371e-02  -3.0241233e-01  -5.4557380e-01  -1.4951112e-01   2.4301351e-01  -3.0079014e-01  -4.1590004e-01   7.0782685e-01  -4.2966796e-01  -2.8296425e-01   4.1044628e-01   8.2955012e-01  -9.5343002e-01  -2.5175721e-01   3.5990356e-03  -2.2550881e-01  -2.2962865e-01  -7.7881141e-01   5.5464907e-01  -9.2469942e-01  -6.8045293e-01   9.5822029e-01  -6.1518532e-01   5.7623960e-01   6.6530358e-01   7.8698702e-01  -7.0813227e-01  -7.6659749e-01   3.3277855e-01  -5.2048565e-02  -9.3042635e-01   7.7110699e-01   1.7432385e-01   6.1294578e-01   3.0257223e-01  -6.7407418e-01  -8.3421250e-01  -7.2000295e-01  -6.1890211e-01  -4.1597980e-01  -5.5496110e-01  -8.4499896e-02  -6.3132439e-02   7.0313016e-01  -6.9580149e-02   7.5695340e-01  -5.4937330e-02   5.7660548e-02   9.0384464e-01   3.5396172e-02  -5.8880738e-01  -1.8891030e-01  -3.4543610e-01  -3.5594736e-01  -7.6646355e-01   6.5419907e-02   3.4492820e-01  -9.9716248e-01   7.2218395e-01   1.4836525e-02   7.7314477e-01   8.1931654e-01  -9.4530535e-01  -4.2113029e-02  -6.6985344e-01  -2.9722211e-01   5.5257942e-01   2.7561628e-01   7.9230783e-01   1.3437063e-01  -1.4273473e-01  -8.8287391e-01  -7.6694521e-01  -9.5850003e-01  -6.5653512e-01  -1.6620111e-01   7.4820241e-01   8.2453960e-01  -3.7134775e-01  -9.8131393e-02   6.9954992e-01   2.4075265e-02   5.6287615e-01   2.1721509e-01   9.2246122e-01   2.0914727e-01  -6.4258857e-02   3.8665388e-01  -2.2087470e-01  -8.1009186e-01  -3.8495816e-01  -8.8490370e-01  -7.0010295e-01   3.1567159e-01  -5.0161581e-01  -9.1805538e-01   3.8578692e-01   9.9104789e-01   9.0935001e-01  -2.8075602e-01  -2.7507081e-01   9.8345407e-01  -4.4536362e-01  -8.4045059e-01  -6.0959040e-02   4.4959306e-01   9.7190897e-01  -6.3203294e-01  -4.1843962e-01  -5.7562583e-02   4.0706875e-01  -1.1860664e-01   6.0418600e-01  -1.5227904e-01  -7.5422269e-01  -2.0995329e-01   9.0731898e-01  -5.2782964e-01   4.4014122e-01   4.1179607e-01   5.7334397e-01  -6.2478096e-01  -2.7613054e-01   3.3281842e-01  -7.7117186e-01  -7.6076527e-01   3.8911074e-02   9.5497231e-01   1.6621257e-01   4.0856517e-01  -6.8412111e-01  -6.5589336e-01   3.5478396e-01   7.2371718e-01  -6.4576202e-01  -7.5403383e-01   6.3694589e-01  -9.3291193e-01  -5.4020031e-01   1.2218066e-01   6.7058831e-01   7.6692341e-01  -1.1672751e-01   1.2804338e-01  -5.9780644e-01   3.7987777e-02   4.7388197e-01   3.2565766e-01  -8.2350001e-01   2.1347237e-01   8.7468566e-01  -2.6324619e-01  -8.6277388e-01   5.8936333e-01  -8.2325068e-01  -7.3323075e-01  -2.5165721e-01  -8.6193813e-01   6.1695183e-01   7.1858598e-03   1.3634005e-01   2.0027509e-01  -2.4609086e-01  -3.8577828e-01   7.7083486e-01   6.8711096e-01  -5.4036322e-02   9.8204801e-01   6.5339665e-01  -5.2719611e-01   4.5809811e-02  -6.6963946e-01   7.3106400e-01  -9.8498721e-01  -3.8426545e-01  -6.2755048e-01   5.8069406e-01   8.4300015e-01   6.3955566e-01  -4.9507458e-01  -9.7214820e-01  -2.5355884e-01   8.9754188e-01   2.0423624e-01  -8.8665773e-01  -7.0116147e-01  -4.8160876e-01   8.7065369e-01  -8.8501172e-01   1.4097442e-01  -9.9704793e-01   5.8316158e-01   1.9552861e-01   5.2077303e-01   7.5800727e-01  -2.0228218e-01   3.8361292e-01  -4.6707169e-01  -4.1447817e-01  -1.8137664e-01  -1.0223299e-01  -8.2341028e-02   5.5080176e-01   6.4622078e-01   6.9923207e-01   3.1972320e-01  -3.9947166e-01  -1.0252797e-01  -3.9906392e-01   4.1924305e-01   7.0973978e-01   2.5456107e-01  -6.7815075e-02  -1.3104487e-01  -6.3499860e-01   4.3997792e-01  -2.2228305e-01   8.2216786e-01   3.5161853e-01  -9.4455551e-01  -3.8074939e-01  -3.1912202e-02  -6.2871234e-01  -5.9747743e-01  -9.8997644e-01  -2.7326472e-01   1.2176099e-01   1.3374329e-01   2.4276102e-01   9.1849225e-01  -7.2218464e-01   5.4889708e-01  -5.4496553e-01   1.1813452e-02   8.8197352e-02   6.9526749e-02   7.8489900e-02  -4.9862300e-01  -6.9076676e-01   3.9978073e-01  -6.4693539e-01   3.6311845e-01   6.5316473e-01   8.5586606e-01   7.6087228e-01  -5.7434027e-01   2.6627533e-01   7.5732065e-01  -3.8873493e-01  -2.6465266e-01   8.3084421e-01   6.2646516e-01   6.4418042e-01  -5.1955248e-01  -1.6856468e-01  -9.5887835e-01   1.8983636e-01  -6.1951641e-01   4.1130940e-01   7.0390600e-01  -3.6399387e-01  -8.5131804e-01  -3.8917619e-02   7.4408599e-01   7.5348755e-03  -1.5275602e-01   2.1217436e-01   8.3518855e-01  -4.8242308e-02  -8.7121847e-03   5.6507712e-01  -9.8643203e-01  -1.3514799e-01  -6.0659884e-01  -3.7552736e-01   2.2889284e-02   7.1657378e-01  -4.0354297e-01  -1.1513194e-01  -5.6097426e-01   2.6759907e-01  -4.4022496e-01  -1.8813411e-01  -6.9744984e-01   8.7935093e-01  -7.4008123e-01  -2.1061395e-01   6.9082241e-01   6.2119022e-01  -1.4907484e-01   8.5846869e-01   7.7578323e-01  -1.5627893e-01  -8.0309434e-01   9.3381091e-01   2.6037362e-01  -3.1061140e-01   8.0870893e-01   7.0106811e-01  -9.9241720e-01   7.1156498e-01  -2.0796413e-01   9.3921096e-01   8.3171079e-01  -3.7294229e-01  -6.3912079e-01  -8.5275541e-01   2.0806510e-03  -8.2279977e-01  -1.9650204e-01  -3.7590882e-01  -9.9581390e-02   9.0146960e-01  -1.0171887e-01   5.2598571e-01  -5.7963277e-01  -7.3773223e-01  -5.9711557e-01  -5.5541700e-01   7.3177454e-01  -6.7355100e-02   9.3654871e-01   9.6601237e-02   4.4886277e-01  -3.9702923e-03   4.3775132e-01  -1.4944078e-01  -9.7779585e-01   7.1480942e-01  -1.2663697e-02
   7.5920459e-01  -9.8253150e-01   4.0665186e-01  -4.7970513e-01   7.0770672e-01   4.6296273e-01  -5.0867849e-01  -7.0934022e-01   4.4808784e-01   8.7016398e-02  -9.1597585e-01   8.1421823e-01   2.0499122e-01   8.0820444e-01   5.7043131e-01   8.1763639e-02   9.2918189e-01   3.1265784e-01   9.9875329e-01  -8.9748597e-01  -4.1657828e-01   3.4323427e-01  -9.4504977e-01  -4.7747232e-01  -3.1311465e-01   6.1009650e-01   3.1142094e-01  -4.0270268e-01  -2.7292133e-02   7.3069517e-02  -4.8661031e-02   4.1354895e-01   9.1169415e-01  -8.0618544e-01   1.0977406e-01  -8.3660767e-01   6.9701555e-01  -9.7045518e-02  -3.1356855e-01   3.9807482e-01   6.7584614e-01   8.5694434e-01  -9.7511422e-01  -8.6898313e-01   5.0824520e-01   5.1376386e-01   8.0488786e-02  -3.4459243e-01  -3.4709053e-02   5.6390987e-01   9.9145042e-02  -6.3613000e-01  -7.7603240e-01   8.1034893e-01   6.4915676e-01  -6.6803816e-01  -3.2525983e-01  -5.4385126e-01   1.9064447e-01   6.3294854e-01  -3.1109035e-01  -3.4243814e-01  -1.1927711e-01   5.4485641e-01  -6.0768798e-01   3.8394359e-01   8.5137966e-01  -3.1374586e-01   5.8314160e-01  -2.5225016e-01   9.1731273e-01  -9.1986993e-02   8.2387059e-01   4.0889457e-01  -3.6847860e-01  -5.9357431e-01   6.4392982e-01  -8.3890983e-02   8.7253280e-01  -2.1700094e-01  -4.9832506e-01   7.2070973e-01  -4.3698081e-01   8.2078838e-01  -4.8318981e-01  -5.2701723e-01   7.8150915e-01  -2.6742733e-01   6.2992091e-01  -9.2679049e-02   3.2250781e-01   6.0129419e-01  -2.6422325e-01   5.3176428e-02   4.2398093e-01  -7.4504130e-01  -7.1466084e-01   2.1765141e-01   3.3421464e-01   8.7623600e-01  -1.3317207e-01   6.3838305e-01  -7.4100593e-01   4.6285963e-01  -6.6315577e-01   4.3924802e-01   8.2220689e-01   9.5769363e-01  -5.7766364e-01  -2.6533910e-01   6.0487589e-01   6.1101176e-01   2.1193328e-01   2.6703220e-01  -9.7086963e-01   2.5405477e-01   4.2167358e-01  -6.0863464e-01   7.4961224e-02  -8.0669204e-01   4.2595230e-01   9.0489062e-01   2.3770157e-01   4.0358613e-01  -6.8852441e-01  -4.3810873e-01  -5.3677228e-01  -3.5319687e-02  -3.1294375e-01  -9.9354098e-01  -7.5832102e-01   1.8020854e-02   4.9675016e-01   9.6590386e-01   2.3305013e-01  -3.5096065e-02   3.2515833e-02  -2.3087309e-01   4.6949756e-01   1.8528290e-01   8.1677128e-01   7.1385703e-01   7.9613598e-01   4.2610873e-01   2.7702023e-01  -7.1688870e-01  -2.2222123e-01  -8.6759922e-01   9.7901290e-01   9.5493264e-01  -9.3589010e-01   6.9691156e-01   2.2075561e-01   5.1905305e-01   9.8163425e-01   4.8927655e-01  -6.1443609e-01   9.8955666e-01  -7.3772062e-01   4.3863860e-01   5.5348900e-01   7.0512814e-02   5.3087133e-01  -4.4148222e-01   4.8794490e-01  -1.4505871e-01  -8.9452112e-01   2.8893929e-01  -9.9296534e-01   5.7032133e-01  -8.3014259e-01   8.7156475e-02  -6.1623203e-01  -7.6634350e-01   7.6406768e-01   7.0328331e-01   8.5390704e-01  -4.7158303e-01  -5.2912221e-01   5.4025806e-01  -3.9854624e-01   4.6277841e-01  -6.5221866e-02   3.7479134e-01   8.2366375e-01  -5.1431765e-01  -1.6766863e-01   1.9080733e-01   6.8674812e-01   5.0552431e-01   2.4969886e-01  -7.7537420e-01  -5.1961133e-01   3.2163063e-01  -6.9880644e-01  -9.4840391e-01  -1.4365639e-01   1.1734888e-01   6.3882273e-02   6.1636043e-01  -2.1769095e-01  -5.2807035e-01  -1.1730817e-01  -3.8182078e-01  -2.3602891e-01  -2.3081197e-01  -6.0905032e-01   8.4358885e-01   2.7549501e-01  -2.9562341e-01   2.2699075e-01   9.4086273e-01  -4.0510347e-01   4.5232402e-01   7.7658901e-01  -9.9249323e-01   5.2811605e-02   9.5839911e-01   1.9600302e-02  -5.6903613e-01   5.2562995e-01  -6.3092435e-01  -5.8881566e-01   9.7180496e-01   8.7062113e-01   8.9987313e-01   3.0338599e-01  -5.1073229e-01  -9.4896504e-01   6.2454785e-01  -8.6289762e-01  -6.1350752e-01   5.4119896e-01  -5.5307531e-02   4.7959414e-01   1.0453653e-01   4.4587077e-01  -5.7618011e-01   4.3412415e-01   4.4950280e-01   3.7227237e-01  -6.9209205e-01  -7.0130307e-01  -9.4370088e-01  -4.0454616e-01   4.5290379e-01   5.9190232e-01   3.3904077e-02   1.0742685e-01   8.7530559e-01   5.5929012e-01  -4.6115920e-01  -3.6414533e-01   3.5888977e-01  -4.6104883e-01   6.1155118e-01  -4.6377716e-01   3.2543010e-01   3.9717383e-01  -7.2106942e-01   6.5754452e-01   9.0633746e-01  -1.8696414e-01  -7.6663285e-01   2.3170906e-01  -3.7883744e-01   2.9500350e-02  -6.8593515e-01   1.0125747e-01   3.6276838e-01  -4.0938864e-01  -5.7888315e-01   8.7887987e-01   2.4322818e-01  -1.4791626e-01  -1.8703099e-01   8.3437026e-01   5.5057865e-01   4.8347161e-01   9.5896092e-01   9.3916301e-01   9.2137441e-01   8.7545185e-01   7.3188958e-01   6.7922208e-01  -6.2734137e-01   9.2539318e-02  -8.6698611e-01   8.9559993e-01  -5.3516930e-02   8.1848078e-01  -6.8732902e-01  -3.5856898e-01   6.0772346e-01   1.1744994e-01  -4.0903523e-01   3.5568674e-01  -2.9073811e-01  -8.4585219e-01  -3.6056058e-01   6.3299498e-01   1.8600298e-01  -8.9906052e-01  -9.4153183e-01   3.9946542e-01   4.8378713e-01   6.9922519e-01  -8.4615572e-01   4.7321618e-01   6.7428285e-01   1.5687318e-01  -5.2341867e-01   6.7090655e-01   7.9803708e-01   3.6756517e-01   2.9603498e-01   2.4074928e-01   1.1201265e-01   4.5843434e-01   4.0312253e-01   1.4548836e-01   2.8193413e-01  -8.0058827e-01   4.1989589e-01   8.5954193e-01  -2.8459714e-01  -3.5518387e-01  -8.6263707e-02   7.9199097e-01  -2.2827968e-01   1.3148455e-01  -7.8615419e-01  -5.5552090e-01   3.9373541e-02  -1.9098263e-01  -7.5631253e-01  -8.6279865e-01  -2.7286706e-02   9.2019183e-01  -9.5069197e-01   7.4465864e-01  -3.0234551e-01   2.3482041e-01   9.9100080e-01  -4.7573274e-01  -8.2710127e-01   6.4060460e-01  -3.2384920e-01  -2.8008486e-02  -5.3884133e-01  -3.0227480e-01  -8.0732841e-01  -7.8711004e-01   1.7742292e-01  -6.4413998e-01   2.4656657e-01   6.7306196e-01   9.3510618e-01   6.4938446e-02   5.2580753e-01   8.8613883e-01   8.7660042e-01  -4.8432459e-01   6.2087534e-01   1.2554906e-02   6.9426418e-01  -9.5123988e-01  -4.4143340e-01   6.0584318e-01   8.3929095e-01  -5.2574643e-01   8.0129818e-01  -7.1994305e-01  -7.4782573e-01  -4.3781335e-01  -6.6674085e-01  -3.3729152e-01   2.9161730e-02  -3.5918489e-03  -1.2209661e-01   6.0449885e-01   2.1169183e-01  -6.7722811e-01  -1.5116308e-01  -4.3214937e-01  -7.7865056e-01  -3.9636136e-01  -7.0819399e-01  -5.0057699e-01   5.6820151e-01  -5.7320948e-01   1.8452393e-01  -4.1816462e-01   5.4894253e-01   4.4635627e-01  -8.7562382e-01  -5.8164651e-01   4.7215952e-01  -7.4268458e-01  -6.8127748e-01   8.3114493e-01   9.9997566e-01  -4.1108410e-01   3.5234171e-01   8.3330748e-01  -5.0599499e-01   3.4584358e-01  -4.0762892e-01   2.7744275e-01   1.8015446e-01  -2.7432493e-01  -9.9713880e-01  -9.0090706e-01   4.7497319e-01   3.7346576e-01  -7.3596745e-01  -8.4407543e-01  -3.5235229e-01   9.6518527e-01   6.6327965e-01   2.7921665e-02  -6.6033173e-02  -3.8916852e-01  -9.6118988e-01   5.8807001e-01   5.2225985e-01   3.1905946e-01  -4.3857085e-01   5.8047926e-01   3.4454597e-01   1.4568438e-01   7.9256625e-01  -8.0250956e-01  -5.9904497e-01  -2.6438887e-01  -7.6032513e-01  -9.7078297e-02   5.0378325e-02   8.8580447e-01  -3.0822225e-02  -9.7461930e-01  -4.4211396e-01  -8.6073450e-01  -5.4814332e-02  -1.4018897e-01   7.1060029e-01   3.9733178e-01  -5.7199725e-01  -6.6356138e-01  -2.8589200e-01  -9.0874184e-01   4.8605351e-02   3.6847829e-01  -7.3586851e-01   8.6744151e-01   2.2809684e-01   3.9612243e-01  -7.2713686e-01  -6.7117476e-01   4.7262596e-03   1.5951314e-01  -1.2274874e-02   9.5732788e-01   2.6034032e-01   7.0165374e-01  -9.8540375e-01  -3.9795662e-01  -1.5109893e-01  -1.7624141e-01  -2.2362402e-01   7.9253382e-01   6.3097408e-01   8.6295465e-01   1.7326755e-01   8.6527395e-01   5.5140636e-02   8.3852873e-02  -7.4584089e-01  -4.0444500e-01   8.7267131e-01  -9.0276734e-01  -2.1061929e-02  -2.7501793e-01  -7.0601804e-01  -3.7356899e-02   9.8745385e-01   1.8933309e-02  -6.6950443e-01  -3.3987742e-01  -7.9923804e-01  -9.4131009e-01   9.7375870e-01   6.7516067e-01  -9.2502175e-01  -2.3299302e-01  -6.6609417e-01  -6.8074221e-02   7.4110274e-01  -1.4060878e-01  -3.0138208e-01   9.1886025e-01   1.3755868e-01   6.3860924e-01   6.1661853e-01   3.8409871e-01  -1.8638373e-02   8.8943591e-01   9.7790283e-01   9.7124937e-01   1.8523769e-02  -3.5371517e-02   2.8206420e-01  -7.9422407e-01  -6.3514630e-01   3.2467749e-01   7.8191044e-01   5.4414652e-01   9.4387306e-01  -5.1557171e-01  -8.4765183e-01   8.6859133e-01  -1.0936849e-01  -8.2532790e-01  -1.9122680e-01   2.2240263e-01  -7.9559982e-02  -2.6813484e-01  -6.7893894e-01  -8.4602664e-01   8.5761744e-01   8.7678742e-01  -5.6521143e-01   7.5122953e-01   9.5047496e-01   7.0839238e-01  -6.3262802e-01  -5.9406747e-01   5.3128307e-01  -2.6869621e-01   7.2819934e-01   4.8293913e-01  -8.3380230e-01   2.4380580e-01   3.9557785e-01  -7.1948698e-01  -5.5091235e-01   9.8149229e-02   4.9703674e-01   4.2310821e-01   1.6974789e-01   5.6862145e-01  -1.9166236e-01   5.1673596e-02   5.6881099e-01  -8.2277335e-01  -9.5002391e-01  -8.6191760e-01   3.4896839e-01  -2.0361733e-01   9.5633317e-01   6.9573595e-01   8.6411059e-01   1.4694369e-01  -7.2844685e-01   5.7237910e-01  -4.2503417e-01   7.2754161e-01  -6.6709116e-01   3.7873982e-01   1.8560074e-01  -7.4575673e-01   3.1057439e-01   7.0216539e-01   7.0599856e-01  -4.6443730e-01  -2.4774969e-01  -5.3320835e-02  -8.1238798e-01  -1.2044909e-01  -2.3269222e-01   7.7483259e-01   1.2203097e-02   5.3954601e-01  -3.9851707e-02   3.0029112e-01   5.7231082e-01   9.1492664e-01   8.1220459e-01   1.3430042e-02  -8.6058078e-01   7.5069639e-01   4.5356760e-01  -1.5615573e-02   3.4826564e-01   8.8449020e-01  -3.2614556e-01   2.6012206e-01   7.6721030e-01  -4.8377871e-03  -7.6930786e-01   4.1373342e-01  -3.6092650e-01   7.8392557e-01   9.4885591e-01   4.8341010e-01  -9.2464752e-01   4.8382469e-01   2.1594537e-01  -7.8862747e-01   1.8626985e-01  -4.2083746e-02   8.6063828e-01   5.6268027e-01   7.9102940e-01   4.3785201e-01  -4.4264686e-01   9.6238790e-02  -2.8132397e-01  -6.3876055e-01   9.3235651e-01   9.3549098e-01  -6.8488259e-01   3.3326731e-01  -1.4244575e-01  -4.4515938e-03  -1.4315708e-02  -4.3358077e-01  -6.0667717e-01  -4.6574208e-01  -9.7568543e-01   1.3675065e-01   8.3504156e-01   6.1642039e-01   2.1232312e-01  -2.0526534e-01   7.2712482e-01  -5.6568168e-01   9.2895422e-01   9.9479692e-01   5.0654207e-01   1.2961131e-01   3.9931421e-01   3.8342066e-01  -4.0904681e-02  -9.1924971e-01  -1.8864145e-01   6.2970736e-01   8.8224298e-01  -9.6887162e-01  -7.8597270e-01   8.9081880e-01  -4.4127204e-01  -1.5823472e-01  -7.7429086e-01   9.6594503e-01  -1.0742692e-01  -1.9954729e-01  -9.8683901e-01   5.6726767e-01  -3.2638641e-01   3.8611784e-01   4.0305541e-01   7.8257971e-01   4.8104582e-01  -5.8004741e-02   9.2773139e-01   4.0351426e-01   7.2897443e-01   9.7980496e-01  -5.6950579e-01  -9.9320460e-01   8.8780720e-02   4.1474083e-01   4.9513060e-01   8.8856518e-01   9.1005386e-02  -2.8930857e-01  -6.7610271e-01  -5.4674877e-01  -6.8534226e-01  -9.5291973e-01  -9.1188523e-01   8.4360656e-01  -2.2821998e-01  -7.6038538e-01  -6.2803214e-01  -9.6398172e-02  -5.7374165e-01  -7.0776297e-01   2.7601384e-01  -8.7435115e-01  -7.8795266e-02  -8.9516909e-01   7.5363922e-02  -3.6112281e-01  -6.3282906e-01   7.1040999e-01  -9.1038562e-01   2.9779677e-01  -9.5970505e-01   3.0172897e-01  -2.8975834e-01   3.2086087e-01  -9.9870595e-01   8.7116033e-01  -9.6905396e-01  -7.7280429e-01   9.6846797e-01   8.5197126e-01  -9.4634550e-01  -5.2522597e-01  -2.4364583e-01   9.1953470e-01  -9.4783862e-01   5.6926998e-01   1.9837524e-01  -5.9017249e-01   8.6244886e-01  -4.3274400e-02  -9.4998007e-01   4.3917228e-01   7.4177830e-01  -5.5946112e-01  -4.9513876e-01  -6.1587951e-01   1.7571792e-02  -6.6036331e-01   1.1429995e-01  -1.7943957e-01   2.2843805e-01  -5.8192953e-01   5.1719382e-01   7.7293788e-02   3.1917796e-02  -6.2022901e-02   2.8902819e-01   7.3411674e-01   3.2600311e-01  -6.1072715e-01   2.0737201e-01  -8.7540653e-01  -4.2157411e-01   2.4341435e-01   7.6767988e-01  -5.2226175e-01   2.3782113e-02  -6.0464776e-01  -2.1750213e-01   7.7540818e-01   4.3238325e-01  -1.2913255e-01  -9.0825162e-01   7.8590193e-01  -6.0049989e-01   6.6832922e-01  -9.9138965e-01   8.1359718e-01  -8.4756009e-01  -3.0896437e-01   4.1773892e-01   7.4790738e-01  -1.2678061e-01   6.1567832e-01  -1.2166215e-02  -6.4315434e-01  -2.3853227e-02  -8.2968154e-01   2.6589673e-01   4.1356342e-02  -2.5688508e-01  -6.4563042e-01   2.7237902e-01  -1.3079019e-01  -2.1734865e-01  -9.0754218e-01   8.6745683e-01  -2.5120947e-01   9.8731438e-01  -1.1895953e-01   7.5691067e-01  -2.8785475e-02   7.2243520e-01   7.5036495e-01  -8.4384035e-01   3.1213349e-01  -3.5561448e-01  -5.7648484e-01  -4.6567533e-01   1.6937910e-01   5.3465045e-02   8.8804007e-01   1.8166730e-01   9.5369727e-01   2.1112578e-01   5.4186057e-01  -6.1340250e-03   6.5808940e-01  -2.0302737e-01  -7.4407581e-01  -2.5165682e-01  -8.4140958e-01   1.4835515e-01  -8.0524427e-01   5.7464035e-01  -1.3199364e-01  -9.9236278e-01   8.3052482e-01   7.1922681e-01  -9.3687109e-03  -3.4453443e-01   7.7824513e-01  -9.1892349e-01   7.8158060e-01   4.2553155e-01  -7.4433597e-02   4.5351790e-01  -7.7103333e-01   9.1242637e-01   1.6739431e-01   4.2970422e-02  -8.6487135e-01   8.3786203e-01   3.6505309e-01  -9.0240703e-02   8.5549504e-01   9.5637437e-01  -6.6850011e-01  -1.1183931e-01   5.5875598e-01   8.2925946e-01  -5.1504575e-01   7.8479615e-01  -6.3848678e-01   7.1372210e-01   3.7366175e-01   5.5919067e-01  -7.8285875e-01  -7.3394061e-01  -7.0237387e-01  -6.4736198e-01   2.1546290e-01   3.6091118e-01   4.8297499e-01   7.2600370e-01   4.9991544e-01   2.5486441e-01  -3.4597106e-02  -8.3273745e-01   3.3551971e-01  -6.0784050e-01  -3.9522047e-01  -4.3026763e-01   1.8550083e-01  -4.6174557e-02  -7.1491337e-01  -3.2111807e-01  -6.7767919e-01  -1.6204101e-01   9.8648583e-01   7.9879394e-02   2.8057065e-01  -7.9151763e-01  -5.1255591e-01   6.0945114e-02   3.6609265e-01  -1.8005400e-01  -1.6995424e-01  -1.3225116e-01   3.3187696e-01  -2.8380981e-01   3.9592952e-01   4.9329939e-01   2.8782853e-01  -8.3428552e-01  -8.0543584e-01   1.9553718e-01   6.4647892e-01  -9.4847920e-01  -6.3597253e-01   4.1965204e-01  -4.1601424e-01  -3.5337088e-01   7.0148539e-01   7.6893805e-01  -7.0363861e-02   5.7080392e-01   3.5645582e-01   8.7057170e-01   8.2301783e-01   4.6579756e-01   4.1921960e-01  -9.8425882e-01  -7.9298904e-01   3.7057644e-01  -6.1560622e-01  -4.5890061e-01   6.9584899e-01   7.4699793e-01   4.4998836e-01  -2.6287752e-01   3.1919090e-01  -6.2020966e-01   6.8750314e-02   4.2212247e-01  -3.7039172e-01  -8.5982476e-01   8.1330016e-01   7.1683298e-01   5.9596868e-01   2.5230568e-01   5.4981456e-01   7.3634904e-01   7.9936451e-01   7.4462183e-01   5.2586292e-01  -4.2458873e-01  -6.0681714e-01   7.1023991e-01   4.0047068e-01   1.1284552e-01  -2.7315937e-01  -7.7231582e-01  -9.0012420e-01   8.6142240e-01   5.4112537e-01  -2.0898117e-01   5.5044154e-01   8.3502259e-01   4.8032695e-01   5.1898601e-01  -4.5832432e-01  -5.4461032e-01   7.0637326e-01   2.8239260e-01   2.2518841e-01  -6.9509625e-01  -7.1300751e-01   6.7801871e-01  -7.3234319e-01  -3.7848946e-01   2.6657101e-02   6.3017840e-02   4.3240475e-01   1.3808745e-01  -7.7234098e-01   4.7278515e-01   7.0079500e-01  -4.5713901e-02   1.2812525e-01  -4.9396680e-01   6.3139936e-01   9.2635735e-01   1.9133054e-01   3.5976956e-01  -1.5274399e-01   3.0340049e-01  -9.7422528e-01  -3.4130909e-01  -5.1094382e-01   3.1746569e-01  -3.3164045e-01   6.2263154e-01  -4.2381584e-01  -6.9315647e-01  -3.1954649e-01   1.6147105e-01   4.0932759e-01   2.0383956e-01   7.5004930e-01   4.6210881e-01  -6.4795993e-01   8.0512476e-01   8.5807226e-01  -9.6991007e-01  -2.8682457e-03   4.1996653e-01   2.9421708e-01   9.4803199e-01  -3.8060508e-01   3.7102637e-01  -4.4314316e-01  -8.0546339e-02   4.8542507e-01   8.5713360e-01  -7.1386041e-01   6.0452774e-02   9.2451681e-01  -4.4192337e-02  -5.1035786e-01   2.6886976e-01  -8.5016986e-01  -8.2595307e-01  -9.8587292e-01  -1.0067896e-01   8.4504037e-01  -7.7163599e-01   3.9395903e-01   7.7007891e-01  -6.0359966e-01  -5.6856526e-01
   2.8839213e-01  -2.2561017e-02   8.6021291e-01  -1.6545706e-01   5.5447690e-01   8.9832652e-01   7.4819252e-01   9.1167528e-01  -5.5988116e-01   7.1094861e-01  -9.9207864e-01  -5.4469347e-01   7.8009379e-01  -3.8300770e-01  -6.7153130e-01  -5.2364105e-01   3.5887348e-01  -9.7628580e-01   4.9975481e-02  -8.4627707e-01   9.4122486e-01   1.3337497e-01  -5.0806584e-02   2.7944542e-01   9.7937572e-01   4.6983689e-01  -8.5255877e-01   9.8363746e-02  -3.7867398e-01  -5.3761617e-01  -3.1821860e-01  -7.6451072e-01   9.2566551e-01  -7.2074587e-01  -1.3546142e-01   5.7034033e-01  -3.0779069e-01  -3.5830115e-01   8.2283168e-01   4.3815890e-01   8.3594720e-01  -7.2455128e-01  -3.4042753e-01  -7.9581100e-01  -2.0309106e-01  -1.8418294e-01  -5.3261932e-02   7.6596346e-01   6.1870115e-01   2.8052715e-01   1.0840866e-01   8.4877097e-01   3.1451792e-01  -3.8192275e-01  -7.1460694e-01   6.0690470e-01  -7.9110771e-01   6.4602923e-01  -3.9249462e-01   7.5537397e-01   8.2581875e-01  -1.0594209e-01   3.7034357e-01  -3.2708699e-01   2.9961688e-01  -2.1832558e-01  -3.6740076e-02  -5.0189471e-02  -1.1818959e-01   8.3159528e-01   7.6834700e-01  -4.4077863e-02  -8.8017757e-01  -1.9444954e-01   2.5899173e-01   5.8068135e-01  -9.4622270e-01  -9.2519875e-02  -4.4616730e-01  -7.3025511e-01  -7.4896031e-01   3.7181559e-01   2.1327496e-01  -5.9517905e-02   5.3831355e-01  -8.8929032e-01  -6.9840420e-01   6.9510779e-01   4.4850004e-01   4.8461830e-01   8.3244632e-01  -1.5325686e-01   8.4632544e-01  -5.4265901e-01   1.1991513e-01   9.0662070e-01  -9.7796117e-01  -7.1250731e-01  -6.1315196e-01   1.8246159e-01  -1.4186511e-01   9.6393330e-01  -9.9719948e-01   4.3488337e-01  -6.8526882e-01  -3.6876791e-02  -8.3291886e-01  -1.2351220e-01  -7.3774104e-02   8.9323285e-01   6.5328333e-01  -5.2509603e-02  -9.8431024e-01  -8.9078335e-01   2.1840925e-01   5.9765744e-01   7.9410204e-01   2.0438994e-01  -7.8866237e-01   4.4946663e-01  -6.0356988e-01   2.4777540e-02  -4.0959974e-02  -1.5123290e-01   7.0674694e-01   7.5023553e-01  -5.1671787e-01   3.3809836e-01  -1.9319496e-02   2.6929256e-01  -3.1808001e-01   3.0052125e-01   8.4919738e-01  -3.4304249e-01  -8.2563680e-01  -4.7554840e-01  -6.9613076e-01   9.1154329e-01   9.6417648e-01  -9.0530217e-01   3.9306515e-01   1.0328153e-01   9.1948631e-02  -8.2339741e-02  -4.1247104e-01  -6.2057699e-01  -9.4703396e-01   9.4703902e-01   7.6074008e-01  -2.2135790e-01   3.6454964e-01  -6.2861866e-01  -7.9630664e-01  -8.4649164e-01  -6.2293643e-01  -6.5142690e-01  -9.4273445e-01  -1.9307402e-01  -2.4560376e-01  -2.2606876e-02  -3.4985451e-01   6.4892694e-01   2.0194059e-01  -1.8208300e-01   2.6517671e-01   1.4265761e-01  -3.0705430e-01   5.1425738e-01   1.8166616e-01   9.0333773e-02   2.8551997e-01   2.9941583e-01  -4.9601970e-01  -4.4222012e-01   7.3096712e-01   1.3173915e-01   2.8222431e-01  -7.5152903e-01   8.8846889e-01  -5.3020272e-01   5.8319208e-01  -3.9409052e-01   9.0880240e-01   3.8788897e-01  -8.2724261e-01   8.8712720e-01   2.9093428e-01   3.6524171e-01  -2.8429314e-02  -5.8760218e-01  -7.4454780e-01   7.0459653e-01   8.6864150e-01  -6.1732068e-01   1.4713396e-01   4.0467792e-01  -6.3126359e-02  -5.7587936e-01   7.2396343e-01  -7.5110534e-01  -3.4491193e-01  -6.8089031e-01  -1.1528506e-02  -9.7682146e-01   8.7052942e-01   4.3671065e-01   5.6139755e-01   3.6796643e-01  -3.0646431e-01   4.2627592e-01  -2.4771350e-01  -5.0494232e-01   5.9216328e-01  -8.6198743e-01  -3.6439715e-02  -7.1697269e-01   7.4238374e-01   2.2155213e-01   8.3976439e-01  -8.4334905e-01  -3.3085389e-01   1.7726096e-01   8.0048891e-01  -5.7286760e-01  -2.3377151e-01  -9.1091579e-01  -1.0518580e-01  -8.8303330e-01  -2.9233752e-01  -5.0987457e-03  -8.2833476e-02   3.6577469e-01  -4.4233993e-01   2.8924856e-01   9.2270202e-01  -8.7647637e-01  -5.6125315e-02   5.0158588e-01   7.7764948e-01   1.2094865e-02  -4.9469251e-02  -3.9333936e-01   6.3836810e-03   6.9298414e-01   8.7708945e-01  -8.4247303e-01  -7.6050742e-01  -7.0849496e-01   7.4773348e-01   5.0229652e-01  -3.2267513e-01   6.4879341e-01   1.0337126e-01   6.9912407e-01   8.1515771e-01   9.4086110e-01   9.8047976e-01  -1.3448648e-01   7.1636278e-01   8.7479268e-01  -7.5098919e-01  -2.9077864e-01   8.3043394e-01   8.6393727e-01  -4.5759112e-01   7.4768217e-01   9.3938330e-01   8.8056284e-01  -3.4783889e-01   2.0502865e-01  -9.3054294e-01  -6.1719056e-01  -1.3301891e-01  -5.2467588e-01   3.1819734e-01  -4.8459852e-01  -5.2926636e-01  -9.9323265e-02   1.9664372e-01  -1.7155539e-01  -2.7971661e-01  -5.2640228e-02   3.2636986e-01  -4.7791077e-02   9.6315919e-02  -3.2258996e-01   5.2767782e-01   7.6842005e-03  -9.8997243e-01  -3.0636894e-01  -9.9749582e-01   3.5011904e-01   3.3075030e-01   6.9169310e-01   5.9207321e-01   7.2667762e-01  -5.6368856e-02   4.1718932e-01  -3.2798044e-01  -7.8060189e-02  -9.7943781e-01  -5.5886926e-01   9.1760602e-02   6.6695816e-01   1.2083232e-01   8.2646525e-01   2.5834218e-01   1.0486555e-02  -2.3903800e-01  -9.4435288e-01  -5.0065095e-01   9.7905440e-01   6.2323388e-01  -6.0102192e-01   7.1268395e-01   4.7242114e-01  -2.0643940e-01  -9.4422499e-01   6.3981341e-02   9.3189732e-01  -7.9403864e-01   9.9603334e-01  -2.0564751e-01  -2.9796581e-01   6.8672407e-01  -4.0984490e-01   4.5388115e-01  -2.2697561e-01   4.3690864e-01   2.2385067e-02   9.3833048e-01  -7.4833825e-02  -3.6271002e-01  -1.2334204e-01   1.4046604e-01  -8.0915967e-01   4.5535165e-01  -3.4043245e-01  -1.5647622e-01  -8.1997583e-01   2.1816998e-02   8.0823435e-01   3.2236285e-01  -2.8396655e-01   5.9148215e-01   5.0253715e-01  -8.6558207e-01   8.6217748e-01   5.5654454e-02   4.0630767e-01   6.3409764e-01  -6.0018178e-02   8.4740107e-01  -5.4201843e-01   3.4557681e-02   8.0969252e-01   2.7252240e-01   7.4807179e-01  -5.2383301e-01   6.8394247e-02   4.4723354e-01   7.7053702e-01  -9.1647893e-03  -7.7227496e-02  -3.1599715e-01  -3.0735257e-01   6.6257259e-01   5.0502415e-01  -1.9091103e-01   6.3170079e-01   6.4905906e-01   4.6193682e-02   2.6164886e-01  -8.3059348e-01  -8.2828881e-01  -8.1294632e-01  -6.4251299e-01  -2.3848828e-02  -1.6373544e-01  -1.5733916e-02   9.5184691e-01   5.8235370e-01  -2.4710265e-01  -7.0859399e-01   2.4761614e-01  -2.7873751e-01  -8.0147960e-01  -6.3872265e-02  -7.1512537e-01   1.2358671e-01  -1.0606867e-01  -5.8745650e-01   5.2290847e-01  -2.2694508e-01   1.0352445e-01   1.7046855e-01   7.8188347e-01  -8.5978346e-01  -3.0487491e-01  -3.3884698e-01  -9.2068106e-01  -2.3184870e-01   3.4187677e-01  -8.5261524e-01  -7.8856875e-01  -3.4552688e-02  -8.7030645e-01   8.7624873e-01  -1.9837027e-02   2.8153979e-01   3.7663574e-01  -2.9762930e-01  -8.5522156e-01   6.7120839e-01   7.0690996e-01  -9.3451217e-01  -5.9296828e-01   8.5159095e-01   6.7654877e-01  -4.2621077e-01  -9.8540430e-01  -5.4112578e-01  -6.8495474e-01   8.3123220e-01   7.2782775e-01  -2.3243150e-01   2.5319802e-01   5.4535766e-01  -8.7621147e-01  -2.7623828e-01   5.4434242e-01   9.7153073e-01   1.4924946e-02   9.2555245e-01  -9.5338120e-01   8.9544485e-01   9.1604018e-02   5.4760119e-01  -5.0346980e-01   4.8821874e-01  -4.3102279e-01  -4.2844138e-02  -8.7343644e-01   2.9025514e-01   1.7261497e-01   7.5282416e-01  -1.1220800e-01   8.7619470e-02  -5.0192795e-01   9.2897228e-01  -2.8459117e-01   6.5726190e-01   6.7026877e-01   7.5593491e-01   7.2945811e-01   9.0780175e-01   9.7442341e-01  -3.8198995e-01  -5.9923564e-01  -3.6661074e-01  -3.2669677e-02   4.9928482e-01  -9.9805001e-01  -5.3581098e-01   2.1650254e-01  -3.3488340e-01  -4.7757051e-01  -3.7191304e-01  -9.3002552e-01   5.3093117e-01   4.3809940e-01  -6.8897670e-01  -7.9885078e-01  -6.2281497e-01  -7.0371240e-01   7.2197391e-02  -2.2194124e-01  -6.1793569e-01  -7.6517481e-01  -6.4315054e-01  -1.4273376e-01  -4.8552144e-01   8.8859453e-01  -7.3172026e-01  -9.2554857e-01   3.9599352e-01   6.9148253e-01  -1.4084067e-01  -2.2547358e-01  -9.0554518e-01  -9.7913029e-01  -2.8402694e-01   1.8251400e-01   7.4944196e-01   6.9190196e-01   3.5529998e-01  -6.9269193e-01   4.9921672e-01   8.0091561e-01  -8.5698072e-01  -4.7530971e-01   6.2250170e-01  -3.1111010e-01  -3.2815811e-01  -2.6185745e-01   6.7420143e-01   3.3912040e-01  -7.0827564e-01  -4.8138180e-01  -2.0448242e-02  -5.3357003e-01   3.1384663e-01  -9.6336001e-01  -8.9495006e-01   8.9267051e-01   4.0757100e-02  -1.4369610e-01   3.9445647e-01   4.1395214e-01   5.2680774e-01  -7.7454549e-03  -4.8493820e-01   3.9217816e-01  -8.0939994e-01   9.7746640e-01   9.7321172e-01  -1.9105298e-01   3.5153449e-01   8.5030605e-01   3.8659647e-01  -8.3904863e-01  -9.6962045e-01   2.8864082e-01   8.5844198e-01   1.1521369e-01  -3.3535538e-01  -8.1388375e-02   5.7250258e-01   1.3045401e-01   4.8836873e-02  -7.8779972e-01  -7.2928247e-01  -2.8577045e-01   2.4377620e-01  -6.7861776e-01   1.6125368e-01  -2.8217179e-02  -6.9450674e-01   3.2345714e-01  -5.9830433e-01  -4.0172391e-01   6.8034306e-01   5.6185149e-01   7.4244339e-01   7.2811357e-02  -9.4915762e-01  -6.1642076e-01  -7.4747649e-02  -1.2978888e-01  -8.2239294e-01  -1.1571446e-01  -7.9279386e-01   1.7048848e-01   1.3236146e-01   2.0656473e-01  -2.8456914e-01  -6.9976725e-02   3.4961287e-01   3.0070668e-03  -8.6775453e-01  -7.5304158e-02  -5.2000921e-01  -8.3371725e-02   2.6510766e-01  -1.7033681e-01  -7.6632151e-01  -2.9087194e-01  -5.0392654e-01  -4.2229978e-02  -4.4949937e-01   1.6029474e-01   8.9716347e-04   5.0164453e-01  -4.5413600e-01  -4.6862249e-01   8.9936928e-01   2.2613397e-01   8.8761734e-01  -7.4900923e-01   6.2384668e-01   6.2865595e-01  -3.5785439e-01  -3.6631722e-01   9.8452121e-01   1.3890270e-01   6.1119139e-01  -9.4697544e-01  -1.4645163e-01  -1.5141540e-01   1.6796149e-01   1.1827439e-01  -7.6290352e-01  -3.6812644e-01  -4.9433735e-01  -1.7035613e-02   1.9770217e-01  -5.1492938e-01   3.9133940e-01   6.2997200e-01   3.9108637e-01   9.9398972e-01   6.1584365e-01   5.4705531e-01   8.1223719e-01   3.0129203e-01   1.3333576e-01  -4.5561437e-01  -2.8343315e-01  -3.8252599e-01   2.6870895e-01   1.8635924e-02   9.5331001e-01  -6.9703861e-01  -5.6032983e-01   2.7337683e-01  -2.2800392e-01  -2.0327848e-01  -4.7455281e-01  -9.9832051e-01   7.7133497e-01  -4.7691222e-01   7.0082139e-01   5.4403242e-01   7.8901287e-01   8.5246030e-01  -8.6669872e-02  -1.0385856e-01  -8.6333336e-01   3.0041120e-02  -2.6350308e-01   1.1747559e-02  -2.7018692e-02  -2.2338753e-01  -6.5864692e-01  -5.1486205e-01  -4.1014275e-01  -9.5815180e-01  -8.4138258e-01   2.2067138e-01   7.8719645e-01  -2.0872474e-01   5.3378517e-01   3.2188058e-01   1.4477333e-01   1.8224312e-01  -5.9271373e-01   5.0401166e-01   4.0388320e-01   4.0433863e-01  -3.1094294e-01  -1.5405083e-01  -4.4829663e-02   1.4843409e-01  -3.8540134e-01   4.2379105e-01  -7.5713630e-01   5.6753566e-01   5.8588076e-01  -1.2480147e-01   7.2886769e-01  -9.2202725e-01  -3.4568771e-01  -2.9082917e-01  -5.6264987e-02   7.6177829e-01  -7.4601854e-01   1.4116147e-01  -3.5219103e-02   7.4630583e-01   3.8976731e-02   6.1543069e-01  -3.0454430e-01   4.0088413e-01  -9.0000217e-01   5.7428279e-01  -7.4826911e-01   7.2996262e-02   2.2212907e-01  -4.7076256e-01  -9.2702834e-02   7.2897772e-01  -5.8028013e-02   2.1501152e-01   4.0072167e-01   6.9235846e-01   2.7786921e-01   4.3921018e-01   2.6241744e-01  -3.4278978e-01   6.6974414e-01   2.6068523e-01  -6.1104091e-01   3.8117748e-01  -6.0190387e-01   1.6781128e-01  -1.7645053e-01   2.8110438e-01  -3.5769191e-01  -9.0951201e-01  -8.6380365e-01   5.3654250e-02  -1.4860292e-01  -4.1054684e-01  -8.5007840e-01  -8.6648344e-01   7.6739241e-01   1.8094571e-01  -1.0624389e-02  -5.6740275e-01   2.8477078e-01   1.8586549e-01   3.7263338e-01  -8.2725931e-01   7.7807769e-01   5.5281411e-01   9.6324193e-01  -9.2040480e-01   4.6097971e-01  -1.3073313e-01   8.6099139e-01  -6.9889952e-01  -4.2916873e-01  -5.1171494e-01  -9.2247959e-01  -7.2123916e-01  -6.6602455e-01  -3.1924993e-01  -5.2251685e-02  -9.3014054e-01  -4.6949714e-01   1.8285786e-01   6.5317676e-01   3.2027448e-01  -5.4422476e-01  -9.0569806e-01  -1.7876746e-01  -3.0248828e-01   6.4445847e-02  -7.0517656e-01  -4.1554832e-01  -5.2225154e-01   2.8399229e-01   7.8459242e-01  -3.4620899e-01  -5.0469710e-01  -9.2904445e-01   7.6454988e-01  -5.0510045e-01   8.5642410e-01  -9.4877946e-01  -8.2768420e-01   6.4619200e-01  -8.9397957e-01   3.6451667e-01   2.9934077e-01   4.6765318e-01   2.8224841e-01   8.0839816e-01  -6.4985382e-01  -2.8561282e-01  -2.2198831e-01   9.0692605e-01   6.9100945e-02   1.2563395e-01   1.9096416e-02   8.0975667e-01   9.2749161e-01   5.6266876e-01   8.9577847e-01   1.2958576e-01  -3.9063091e-02   4.3109938e-01  -6.3261480e-01  -7.2052668e-01   6.5180490e-01   9.5898601e-01   6.9654493e-01  -6.4783864e-01   8.0888946e-01  -7.3059532e-01  -5.2668562e-01   6.9420430e-01  -8.1256753e-01   7.5198528e-01   5.7400838e-01  -3.6229609e-01   8.6419531e-01   1.3635754e-01   2.5579636e-02  -4.4534642e-01  -1.5756267e-01  -8.6007481e-01   1.5801210e-01   2.7909971e-01  -9.6276232e-02  -3.6422798e-01   3.0644817e-01  -9.8139252e-01   2.5013919e-01  -5.2485184e-01  -8.7955807e-02   8.4906559e-02   7.4040056e-01   6.2125823e-01   7.0168095e-01  -1.8177588e-02   5.7694392e-01   3.6580263e-01   1.9977880e-02   6.7352669e-01  -9.8535548e-01   2.8257341e-01  -5.8146480e-01  -8.2137177e-01  -4.9606248e-01  -1.9399206e-01  -6.3647191e-02   3.9121933e-01  -2.5977638e-01  -9.1958101e-01  -8.1311581e-01  -5.0897312e-01   2.7260292e-01  -9.6081648e-01   9.9262569e-02  -6.1820191e-01  -7.1880592e-01   5.6342238e-02   4.3494473e-01  -4.9230230e-01  -2.4450924e-01   5.7178408e-01   7.9480915e-01  -6.9344577e-01  -8.9222240e-01   1.3447413e-01  -3.4884542e-01   5.7591869e-01  -8.3166444e-02   7.6178877e-01   2.5778121e-01  -3.3597538e-01   3.3907751e-01  -6.3694174e-01  -8.2584300e-01   1.8153535e-01  -3.9585275e-01   7.6014589e-01  -4.1466519e-01   2.1754536e-01   6.4212558e-01   1.2606357e-01   6.0162418e-01  -5.2374194e-01  -1.9135105e-02   9.5435763e-01   8.3401475e-01   8.4841869e-01   7.5913376e-01   8.0253521e-01   5.7453727e-01  -6.7539096e-01   9.5700267e-01   7.4181394e-01  -1.6336236e-01   7.3398007e-01  -3.1749502e-01  -9.5109410e-01   1.4177524e-01   7.7224248e-01  -1.0610585e-01   1.0747692e-01  -7.9553514e-01   5.3326301e-01   5.4552422e-01  -4.2876132e-01  -6.6695897e-01   1.6485121e-01   6.2207220e-01   1.7731844e-01  -5.7022473e-01   3.9677562e-01  -2.4297692e-01  -4.6184131e-01   9.3560595e-01  -6.2418797e-01  -4.4312754e-01   3.5701764e-02  -1.6439996e-01  -1.9983855e-01   2.6124009e-01   9.9238042e-01   5.1941215e-01  -1.7888639e-01   3.6464169e-01  -3.7602088e-01   3.4079036e-01  -6.7536148e-01   8.5817079e-01   5.0010737e-01   2.5323369e-01  -4.1937355e-01   7.5178850e-01   1.4036877e-01  -2.7756889e-01   2.4320491e-01  -6.3551568e-01  -6.8590602e-01   8.7956509e-01  -9.1606718e-01  -4.2068169e-01  -1.3684514e-01  -6.4853880e-01  -9.5352000e-01   1.3001474e-01   1.2873498e-01   8.2883241e-01   6.6641177e-03  -4.7181206e-01  -1.7108697e-01  -4.1609739e-01   1.9239004e-02   1.8331252e-01   2.5435364e-01  -5.3400019e-02  -9.4064338e-01  -6.4975903e-03  -6.2339913e-01  -1.2897317e-01  -6.9179998e-01   1.0176625e-01   6.4747588e-01  -5.2842362e-01  -1.9185705e-01  -7.0252102e-01  -5.3532217e-01   4.5825346e-01   3.5152474e-01   5.5013603e-01  -2.6866558e-01   2.5225260e-01   1.5849784e-02  -4.7853445e-01  -5.2845369e-01   3.0283701e-01  -6.5269516e-01   3.1045573e-01   4.3378559e-02  -2.7772822e-01  -5.9431574e-01  -4.6427041e-02   4.9322726e-01   1.4844808e-02   3.2553087e-02  -3.3359777e-01  -5.2177676e-02  -3.4110468e-01   9.3992292e-01  -6.2717083e-01  -4.3738460e-02   4.0328586e-01   7.4413852e-01  -1.5277928e-01  -5.7411304e-02  -4.1183598e-01   6.3276077e-01  -3.9059323e-01  -8.8991972e-01   1.7407919e-02  -4.8229405e-01  -6.8691591e-01   9.9508605e-01   2.5223496e-01  -5.8961848e-01  -4.9849804e-01  -5.3769647e-01  -5.3891646e-01   7.8666956e-01  -1.5439342e-01   6.9328450e-01   1.7364058e-01   5.3358982e-01  -2.0001410e-02  -8.7506509e-01  -9.7880188e-01   1.5163079e-01  -6.1496246e-01  -5.6279378e-01   7.3324972e-01   1.2806812e-01
