  -6.4389753e-01  -4.1561677e-01   7.9156097e-02  -2.9554321e-01   5.5948867e-02  -6.2194794e-02   3.4282533e-01   8.2286634e-01   3.4927190e-01  -6.5850576e-01  -2.4120136e-01  -1.9430413e-02  -9.6850247e-01   3.1329493e-01   7.6556551e-01  -6.5141351e-01  -9.2054111e-01  -3.8034869e-01   9.4026375e-01  -7.9569759e-01  -7.7683850e-01  -8.9537327e-01   8.1834017e-01   2.9979771e-02  -7.8477627e-01   7.3080244e-01  -1.2960925e-01  -4.5811051e-01  -4.2272280e-01  -4.6156884e-01  -3.7569789e-03   7.7649015e-01   3.5584291e-01   8.6077516e-01   8.7711675e-01  -4.1736982e-01   5.2714029e-01   9.9336568e-01   2.8276581e-01   7.9682262e-01   9.1368760e-02   8.1237024e-02   8.7243866e-01   9.5248626e-02   8.8546894e-02   1.2297076e-01   5.2265337e-03  -5.5018019e-01  -5.8471449e-01   6.2329952e-01   5.1566320e-02  -8.6762078e-01   9.2124855e-01   6.4412733e-02   2.6248570e-01  -5.8266853e-01  -7.5753219e-01  -2.1661985e-01  -8.0419077e-01   1.8630261e-01  -4.7088039e-01   9.3123784e-02  -3.1511384e-01   4.6311051e-01  -6.6505849e-01  -1.7349827e-01  -1.7569151e-01  -7.7829913e-01  -9.9639409e-01   6.9906958e-01   4.9579017e-01  -6.0451598e-01   6.6966368e-01   2.2593144e-01  -1.1448700e-01   3.9397286e-01  -3.7290707e-01  -6.3856523e-01  -7.2849606e-01  -4.2092473e-02  -6.3305400e-01   4.5384872e-01   5.0797804e-01  -9.0986155e-01  -3.3394902e-01  -8.3432364e-01  -5.6487909e-01  -1.2532046e-01  -7.7832282e-01   2.6987532e-01   1.9646914e-01   9.7291130e-01   5.5501320e-01  -5.8682689e-01   8.9129860e-01  -2.9060022e-02  -3.1739232e-01  -3.9666904e-02  -3.2762688e-01  -5.4577711e-01   4.4472409e-01  -3.8935150e-01  -2.1875926e-01   9.3062436e-01  -7.7911873e-01  -5.7893152e-01   3.4655246e-01   2.6415265e-01   8.2062189e-02   5.8181535e-01   4.0616434e-01  -5.7653477e-01  -3.1924104e-01  -2.1170970e-01  -3.8501824e-01   7.4506252e-01  -6.2249228e-01  -7.0171368e-01   9.0461830e-01   8.5998162e-01  -3.2795212e-01   4.4433609e-01   9.6355531e-01   7.7675303e-01   7.7615222e-01  -7.2561536e-01  -4.6979447e-01  -6.5736674e-01   9.6641679e-01   5.9322077e-03   7.2061109e-01   3.7542772e-02  -3.5411483e-01   6.9835263e-01   7.1449111e-01   5.8719040e-01  -8.9672359e-01   2.8925205e-01  -8.9290828e-01  -7.6399611e-01  -3.1610260e-01  -9.6678354e-01   5.3047919e-01   3.9472895e-01   8.4635229e-01   4.3581548e-01   6.3062537e-01   5.5516936e-01  -6.7402046e-01   4.7782603e-01   6.2982608e-01  -4.7218577e-01   6.0806796e-01   5.2386323e-01   4.5896871e-01  -4.2450529e-01   1.5586076e-01  -2.5377560e-02   2.1332296e-01  -6.0289862e-01  -8.1928298e-01   3.6777460e-01   3.2464861e-01   5.1511499e-01   5.9057598e-01  -6.2903006e-01  -9.2628030e-01   9.5755955e-01   4.3351946e-01   1.8418786e-01  -2.3597449e-01   4.7011466e-01  -3.3391994e-01   2.1926200e-01  -2.9540537e-01   2.0051299e-01   5.9225793e-01   3.7960572e-01   7.7517988e-01  -3.9060153e-01   2.8114264e-01   7.9354139e-02  -2.8791901e-02   4.4968640e-01  -7.3555510e-01   7.2781016e-01  -7.7776258e-01   4.9794130e-01  -9.7394537e-01  -3.5608894e-01   8.9001191e-01   7.3804593e-01  -4.2343375e-01  -3.4431936e-01  -1.8415882e-01   3.5191263e-01  -4.3859901e-02  -4.5813002e-01   8.5171842e-01  -3.9862044e-01  -7.3677706e-01  -2.4428904e-01   1.9675508e-01   6.6604934e-01  -9.4472756e-01   6.8107435e-01   6.8232545e-01   5.7769199e-01  -1.1114478e-01  -4.0791928e-01  -7.0567368e-01   8.7005154e-01  -3.8528789e-01   4.8536610e-01   6.2001938e-01  -1.4324682e-02  -1.7562693e-02  -8.0884297e-01  -3.2055105e-01  -4.1474467e-01  -1.3520745e-01  -5.8131981e-01   8.8373329e-01  -8.3153381e-01  -6.4810999e-01  -9.0618235e-01  -9.0124172e-01   1.8809977e-01   2.6550948e-01   1.1463264e-01   1.5830922e-01   6.3109033e-01   8.5629861e-01  -6.9236966e-01   3.2967825e-02   6.2249617e-01  -7.8902651e-01   4.6933970e-01   3.5358244e-01  -7.6863662e-01  -9.7259256e-01  -2.9028506e-01   5.6222592e-01  -6.3181765e-01   8.9364137e-01  -3.4881294e-01  -8.7175769e-01   9.0866634e-01   9.7241792e-02  -2.7168955e-01   1.3678290e-01   3.2463278e-02   2.7436627e-01  -4.0881706e-02  -5.5189199e-01   2.7589650e-02   1.3898190e-01   4.3136378e-01   7.6150816e-01  -5.2624441e-01  -5.7470589e-01   7.0940659e-01   7.5748791e-01   7.3983325e-02  -5.2758478e-01   1.0892682e-01   8.1611100e-01  -8.8283667e-01  -1.0329238e-01   5.0347914e-01  -6.6810632e-01   4.5800354e-01  -8.4088856e-01   4.8549992e-01   1.8187316e-01  -7.6020104e-01  -2.7203306e-01   6.8480625e-02  -7.2648597e-01   6.4908977e-01  -8.9545125e-01   5.3629299e-02  -9.3814982e-01   8.2347784e-01  -6.2345107e-01  -4.3008892e-01  -9.0996602e-01   1.8275923e-01   3.9421362e-01  -4.8951961e-01   9.0071833e-01   7.7827188e-01  -6.8073822e-02  -9.8937813e-01   7.4613065e-01  -8.3171912e-01   7.1663543e-01  -8.7048084e-01   7.8128556e-01  -6.2403042e-01  -9.7822010e-01   3.1743193e-01  -9.7027553e-01   4.7902420e-02  -9.4593404e-01   2.5616665e-01   2.8859071e-02   1.6689036e-01   1.5050007e-01  -1.6171665e-01  -8.9198474e-01  -4.5816711e-01  -5.4928643e-03  -3.2835599e-01   5.7661930e-01   9.4176456e-01  -9.5576771e-01  -8.9840911e-01   1.4810572e-01   4.2057083e-01   8.5557503e-01  -9.8759369e-01   8.8930900e-01  -9.6455137e-01   1.0330267e-01   7.7792268e-01   6.4787044e-01   1.9019617e-01  -4.3584937e-01   9.4128518e-01  -6.2719567e-01   8.6670895e-01   8.3266925e-01  -3.7480231e-01  -3.6208193e-01  -9.4375478e-01   7.3214609e-02  -3.2774798e-01   6.1715664e-01   8.3137670e-01   7.2330103e-01  -1.7716294e-02   9.6233596e-01  -5.1593495e-01  -7.9232531e-01  -7.1986776e-01  -7.4931174e-01   5.2598129e-01  -4.3338377e-01  -5.0310383e-01   5.6376616e-01  -2.6749244e-01   7.4667974e-01  -5.9108280e-01  -4.4524867e-02  -8.1031664e-01  -8.4817879e-01  -5.8336413e-01   5.3969664e-01   7.0298911e-01   7.4235278e-01   8.0376145e-01  -9.1438110e-01  -6.5240988e-01  -1.7694722e-01   1.1235695e-01  -2.3755427e-01  -8.2740675e-01   3.4096136e-01   5.3161306e-01  -3.3965385e-01   8.3988669e-01   3.3976477e-01  -5.6010281e-02  -8.6799131e-01   4.5534028e-01  -5.1836377e-01  -4.2753740e-01   7.5653113e-01   2.4214667e-01  -2.1359081e-01  -1.3373259e-01   6.5007832e-01   5.6978850e-01  -1.1846926e-01  -9.5612643e-01  -7.4925765e-01  -7.3876785e-01  -1.9239647e-01  -7.2418699e-01   6.6934660e-01   6.8769769e-01  -1.7418488e-01  -8.0573712e-01   1.0129651e-01   4.0234599e-02  -1.5150723e-01  -6.8791557e-01   9.8023508e-01  -2.9645213e-01  -6.6098194e-01   9.8471133e-01  -6.4511154e-01   9.7415641e-01   3.3668753e-01  -7.8866866e-01  -4.2070276e-01  -5.0508552e-01   7.8135349e-01  -2.9255442e-01   5.1479090e-02  -4.8670703e-01  -9.9262677e-01   2.1883283e-01   2.5949082e-01  -7.3898712e-01  -9.1650588e-01  -3.2484373e-01   7.2036597e-01  -7.4650965e-01   2.2293826e-02   6.9253192e-02  -5.1676975e-01  -4.7798626e-01  -8.8391133e-01  -5.3685871e-01   4.9024533e-01   8.2220703e-01   8.6405664e-01   3.5618821e-01  -8.3722808e-01  -5.8012050e-01  -9.1369016e-01   5.0910487e-01   1.6692475e-01  -1.1200671e-01   3.6646189e-01   5.4480891e-01   4.3318382e-01   8.9161695e-01   4.7264194e-01   3.6025272e-01   9.8594707e-01   3.6871314e-01   3.3023472e-01   1.2749046e-01  -1.4091634e-01  -6.2944632e-01  -1.0266015e-02   8.0080595e-01   5.4756131e-01  -2.0927927e-01  -5.3198509e-01  -3.9460596e-01  -6.2533293e-01  -6.3032502e-01  -1.3303932e-01   3.0691229e-01   9.9565066e-01   6.2827898e-01   7.4762573e-01  -2.7667844e-02  -9.5772995e-01   2.5036148e-02  -8.2398863e-01   9.9154595e-01  -8.1571957e-01   4.3762505e-01  -8.9868717e-01   3.9017901e-01   5.7089409e-01   5.9877650e-01   2.2204556e-01  -5.1990711e-01   1.5301947e-01  -3.8619965e-01   2.8905360e-02  -4.7513564e-01   4.0863343e-01   4.5620989e-01  -4.8365279e-01  -6.3909998e-01   7.3125792e-01   7.4316316e-01   6.4266216e-01   7.9529272e-01   8.0933766e-01   6.1704396e-01  -3.1360730e-01  -4.2890789e-01  -9.2224153e-01  -6.4792383e-01   9.4483912e-01   3.2581870e-01  -5.9857413e-01   5.4194500e-01  -8.8053372e-01   3.5796192e-01   9.3123556e-01   7.1443251e-01  -1.2516580e-01   7.2342352e-01   5.6905085e-01   2.8828417e-01  -4.6983613e-01  -8.7979981e-01   9.8824273e-01   4.2349468e-01  -4.5593384e-02   5.9559335e-01   9.9560271e-01  -1.5520021e-01   3.1869041e-01  -5.3953584e-01  -7.4193026e-01  -8.6973576e-01   7.4100591e-01   6.2937499e-01  -4.5545276e-01  -3.3692701e-01   7.4777339e-01   3.6451643e-01   2.0320849e-01   1.5920648e-01  -5.3811940e-01   4.9371303e-01   1.9542342e-01  -2.3413539e-01  -6.0683732e-01   7.5392604e-01   8.9260578e-01  -7.9521796e-01   2.2602437e-01   7.8891621e-01   2.8552380e-01  -5.3784945e-01  -6.8224450e-01  -6.0699439e-02   2.6417382e-01  -8.9080480e-01  -4.2209256e-01   8.3572920e-01  -9.9974836e-01  -8.9389179e-01   8.0984812e-01  -4.2365567e-01  -1.9664115e-01  -5.5542130e-01  -2.9502305e-01   9.5675811e-01   7.1163868e-01  -4.6563395e-01  -4.2462546e-01   7.4814458e-01  -5.0788622e-01  -1.4732307e-01  -9.6117839e-01  -7.8370317e-01  -1.8552122e-01   5.5709595e-01  -9.5523586e-01   3.7909835e-01   3.5673890e-01  -3.6176957e-01   9.2922270e-01  -6.8464812e-01   7.3110156e-02  -1.2248058e-01  -4.7281654e-01  -9.6408326e-01   8.2006315e-01  -2.8657208e-01  -7.6882560e-01   9.1633991e-01   7.7064914e-01  -9.7852002e-01   4.0962771e-01  -6.1242465e-01  -8.0572875e-01   3.0960738e-01   7.7640933e-01  -3.9843928e-01  -2.4204747e-01   7.8678865e-01  -8.3981897e-02   4.6869470e-01  -1.6406418e-01   3.3142415e-01   4.2096960e-01  -6.0598498e-01   6.0708227e-01   9.6024549e-01  -8.3757260e-01  -5.8217115e-01   2.1439558e-01   8.9740830e-01  -3.2648298e-01  -1.5429599e-01   5.1803070e-01   9.9357473e-01   7.3846982e-01   4.4357648e-01   8.1011472e-02   7.4369037e-01   9.4180391e-01  -3.2512858e-01  -9.2703641e-02   5.7121723e-01  -9.7909389e-01   3.3007998e-01   4.9488811e-01  -1.2243602e-02   4.0843402e-01   5.9164879e-01   7.9474591e-01  -2.5419196e-01   9.7664210e-01   7.8344526e-01   2.2581486e-01   5.0129693e-01  -4.0382270e-01  -3.8239248e-01  -6.0993618e-02   2.2833054e-01   6.4547427e-02  -5.8478850e-01  -7.1877361e-01  -9.3503193e-01  -8.3174836e-01   4.3554285e-01  -3.8808073e-01  -9.8203355e-01  -3.2054036e-01   6.2016656e-01  -5.3937337e-01   7.2959981e-01   3.7751251e-01  -6.6746502e-01   5.8241517e-01   3.3558203e-01   3.9968249e-01  -7.0872453e-01  -3.1899264e-01   2.6880614e-01   9.4937115e-01  -3.6798372e-01   8.8702326e-01   3.2236585e-01  -3.4308279e-01  -4.4400912e-01  -7.2498107e-01  -5.5996757e-01  -6.8047943e-01  -2.8308524e-01   8.2542302e-01  -9.6152112e-01   8.3761061e-01   6.8146565e-01   8.9555952e-01  -6.1620705e-01   7.8459786e-01   3.3323571e-01  -5.1409088e-01  -9.8224667e-01  -5.3194768e-01  -7.6524447e-01   4.8375766e-01  -1.7279184e-01   1.8940624e-01   9.9631507e-01   6.9261406e-02   4.0867715e-01   1.3400021e-02  -8.8660236e-01   2.6931894e-02   2.2609848e-02  -7.6264998e-01  -5.8150348e-01   1.7118244e-01   3.4716299e-01   1.6568322e-01  -1.3765974e-01   5.8649613e-01  -1.1570000e-01   1.7424701e-01   8.0069525e-01  -5.4581182e-01   9.7413824e-01   8.3191046e-01   2.6874578e-01   4.6097371e-01   1.2044990e-01   9.1219343e-02   2.6206151e-01  -3.9420241e-01   6.6982544e-01   1.6384031e-01  -2.1521399e-01   8.2665295e-01  -2.1423752e-01   8.4725067e-01  -7.4329424e-01  -4.6258430e-01   1.4874619e-01   2.9965246e-01  -5.5763644e-02  -3.9894815e-01  -5.9647083e-01   5.3715423e-01   5.6233134e-01  -5.1159258e-01   9.1277621e-01   1.6755847e-01   3.3164123e-01   9.2230441e-01   1.2303075e-02  -3.6940387e-01   1.3464392e-01  -1.0161281e-01  -8.4433582e-01   2.2789212e-01  -3.5541716e-01  -3.2018471e-01   7.9308783e-01   7.3771132e-01   6.4518655e-01  -9.1430075e-02   8.5902352e-01  -7.6723815e-01  -3.7795384e-01  -4.3020931e-01   2.5055182e-02   4.7329461e-01  -2.4856373e-01  -6.4768443e-01  -1.5114402e-01   2.0530666e-01   6.7117117e-01  -1.2856961e-01   2.5244338e-01  -8.4833216e-01   6.2489828e-01   9.1807139e-01   4.1502150e-01  -1.8497466e-01   9.8642979e-01   6.2729824e-01   3.9334981e-01  -6.3278763e-01   9.0136282e-01  -1.0092337e-01  -2.7058444e-01   5.8704347e-01   3.1063809e-01  -4.1070017e-01   5.8779945e-01  -1.1469675e-01   6.3590165e-01  -5.9273766e-02  -1.8179671e-01  -5.9773696e-01  -3.5594278e-01   3.0719415e-01   2.3886928e-01   3.0480592e-01   6.6339445e-01  -7.6875230e-01  -8.9413011e-01   9.9539882e-01  -9.7395543e-02  -2.3292989e-01  -8.7658212e-02  -3.7082609e-01   2.1742584e-01  -9.4162149e-01  -9.2356581e-01   1.0434238e-01  -1.0391265e-01   2.9239126e-01  -2.9652380e-01  -2.7679249e-03  -5.9242691e-01   3.3155518e-01  -7.2300727e-01  -7.6828523e-01  -2.8874176e-01  -5.2852141e-01  -4.9212145e-01  -5.5723284e-01  -5.8073055e-01  -2.7371407e-01   3.0606872e-01   9.0709195e-01  -1.9495389e-01  -3.3502525e-01  -6.8969650e-01   3.0504301e-01  -8.6286260e-01   1.9858699e-01   6.2840206e-02   4.9977742e-01  -3.5592408e-01   8.2555116e-01  -8.5511828e-01  -3.4181598e-02  -5.8698006e-02  -5.8872547e-01  -1.8422754e-01  -9.7975588e-01   7.3937187e-01  -4.6857822e-01  -6.5111724e-01   8.8833335e-01   1.8877385e-01   6.0696117e-01  -1.4568674e-01   1.9199231e-01  -2.5839517e-01  -2.7036110e-01   2.6452171e-01  -7.2536361e-01   7.1010347e-01   8.3296613e-01   8.0905268e-01  -5.4453735e-01  -5.6683439e-01  -5.3875345e-01   5.4547734e-01   3.7217077e-01   9.2196849e-01   1.9032106e-01  -6.2003450e-01   9.0025261e-01   5.3421510e-01  -9.6751001e-02   6.7331953e-01  -6.6872959e-01  -5.7550876e-01  -4.5548128e-01  -6.9674371e-01   1.2149653e-01   6.0687746e-01   6.2471353e-01  -8.1715272e-01  -3.7500068e-01   7.3639182e-01  -3.7844919e-01   5.6700182e-01   7.6931687e-01  -2.7842721e-01   3.7329476e-01   8.3123163e-01   5.2116466e-03   7.0932100e-01  -4.7517116e-02  -1.9450721e-01  -4.5355941e-01  -5.1400725e-01   7.1701317e-01   8.9202006e-01   8.3828255e-01   2.6476109e-01  -8.6836091e-01   3.7556481e-01  -9.8032587e-01   2.4680545e-01  -2.5926138e-01  -5.4698334e-01  -6.3925168e-01   6.7761591e-01   4.2039344e-01   8.9943346e-01  -7.2254801e-01  -8.6746504e-01   3.0784714e-01  -4.0959101e-01  -3.3019312e-01  -7.5896538e-01  -6.3681373e-01   7.7773590e-02  -6.8211710e-01  -3.9738233e-01  -6.2030387e-01   2.1869259e-01  -3.4071243e-01   6.5371796e-01   6.4934965e-01  -6.7024788e-01   6.3825431e-01   3.4731163e-01  -8.9984437e-01  -2.1132947e-01   4.1481416e-01   2.0826878e-01   3.6378585e-01  -5.0212820e-03   9.1489250e-01  -2.8559656e-01   6.0529126e-01  -9.6275318e-01   8.4209762e-01  -4.9630588e-01  -4.9565993e-01  -3.4503819e-01   3.8603430e-01  -9.3050463e-01  -3.4032211e-01   8.4070135e-03   7.5876208e-01  -5.2869269e-01  -3.2287713e-02  -2.3375766e-01  -2.5819447e-02  -8.9125713e-02  -5.7268938e-01   2.3046414e-01   3.9671372e-01   7.1167651e-01  -9.2103768e-01   8.0845082e-01   7.6750136e-01  -1.0123213e-01  -8.1484504e-01   4.8924712e-01   1.3914667e-01  -7.8988634e-01   1.3049160e-01   6.6991379e-01   9.9101038e-01   9.1543832e-01   2.7104911e-01   6.7811641e-01  -8.3458503e-01  -9.7851371e-01  -3.1247291e-01   5.7967032e-01   5.8472271e-01   9.2320319e-01   5.4394099e-01  -5.5239441e-01   5.2115735e-01  -6.9974958e-01   4.4185831e-01  -9.8586562e-01  -7.4858005e-01   4.1155769e-01   4.2494111e-02  -9.6333121e-01   5.0263116e-01  -3.5454836e-01  -9.4409456e-01   9.3784192e-01  -8.1727473e-01  -9.0042139e-01  -8.2435976e-01   3.4394799e-01   8.7358502e-01   6.7089586e-01  -8.2883273e-01   1.7765881e-01   9.2831816e-01   3.1741373e-01   8.6563721e-01  -1.1624209e-01  -3.5404894e-01   1.7155520e-01   7.9469413e-03  -9.6738811e-02  -1.9244765e-01  -2.0497052e-01  -9.7789799e-02   2.3567190e-02   1.9748775e-01  -2.5494802e-01  -4.9865714e-01   4.2128023e-01   1.2680109e-01  -4.4089742e-01  -8.5419185e-01  -7.2147706e-01   1.2073151e-01  -2.3242630e-02   1.7714154e-01   6.7886833e-01   2.0311721e-02   6.8294585e-01  -6.9696994e-01  -5.4357464e-01   8.5978846e-01   9.2152595e-01   5.9144201e-02  -9.5211183e-01   6.0481695e-01   8.2502524e-01   7.8335787e-01   6.6826861e-01   7.1932223e-01   1.5743101e-01  -6.5293487e-01   8.8450064e-01
  -2.4743088e-01  -3.4477987e-01   1.7784009e-01   4.8702362e-01  -9.1575305e-01  -4.6909939e-01   4.6077254e-01   2.5679032e-01  -1.3521722e-01   3.2114970e-01  -9.7469956e-01  -4.9115495e-02  -8.8166085e-01   9.1667130e-02   3.3371731e-01  -9.4079801e-01  -7.2121499e-01   7.1012133e-01  -3.6941973e-01   1.8765506e-01   3.6999939e-01   3.2925419e-01   6.3114462e-01  -8.3881194e-01   8.6951710e-01  -9.2052859e-01  -2.6993138e-01   2.2039273e-01  -4.7570207e-02  -2.4119013e-01   8.4289649e-01  -8.0554525e-01   4.6053839e-01   5.8074223e-01   9.3218343e-01   4.1052902e-01  -3.2861994e-01  -5.4392721e-01  -1.2684142e-01   1.3235355e-01   7.3117186e-01  -4.1449866e-02  -3.8303401e-01  -5.2643152e-01  -3.3606134e-01  -6.2234809e-01  -9.9226450e-01  -6.7849830e-01  -1.0566231e-01   8.2814681e-01  -1.4138120e-01  -7.9798696e-01  -3.6770733e-01   5.6619412e-01   5.6323423e-01  -2.9210426e-02  -1.5897071e-01  -9.3462487e-02  -9.3002126e-01   2.2767019e-01   7.3291231e-01  -8.0069116e-01  -3.1339774e-01  -8.0842823e-01   3.3659832e-01  -2.9902380e-01   8.5644939e-03   8.0813600e-01   8.0249073e-01  -8.5971442e-01   4.1904573e-01  -4.1843497e-01   5.6929363e-01   9.1552730e-01   6.0730065e-01  -4.2939299e-01  -6.9292048e-01  -8.1623180e-01   4.8240363e-01   3.3358407e-01  -7.3919738e-01  -4.9389719e-01  -5.5962484e-01   1.5709762e-01  -8.5891439e-01   3.0372812e-02   4.3984779e-01   6.3987451e-01   9.5619180e-02  -7.7349087e-01  -7.3355124e-01   9.2433228e-01   2.6692761e-01   9.6130245e-01  -3.2837536e-01  -1.5328004e-01   1.0319515e-01   4.0977620e-01  -1.5090794e-01   6.6259899e-01   5.8796834e-01   3.1503625e-01  -7.2512930e-01  -2.9225319e-01  -1.3520273e-01   1.6694813e-01   4.2103824e-01   3.8645440e-01  -1.3451418e-01   7.7963054e-01  -9.1250772e-01   1.1666822e-01  -3.8684039e-01  -6.7771036e-01  -3.7820780e-01   1.1237921e-01   8.5664232e-01   8.3455773e-01   7.3064590e-01  -9.9691803e-01  -4.9017215e-01   2.2116505e-01   3.3025371e-01  -1.8546402e-01   2.3730206e-01  -5.3346479e-01   3.6391769e-01  -2.1798596e-01  -8.8245309e-02   3.5797518e-01   2.7460519e-01  -8.0448142e-01   9.7353251e-01  -3.5493177e-01   7.3076223e-01  -1.1767964e-01   6.6035060e-01   4.6306148e-01  -1.5203226e-01  -6.5041003e-01  -8.9591251e-01  -1.1862449e-01   2.9812903e-01  -1.5676051e-01   9.0515132e-01   6.3467650e-01   9.6624470e-01   8.5004453e-01   8.6296237e-01  -8.4285197e-01  -2.4335421e-02   7.6704292e-01   9.8294713e-01  -5.0016166e-01  -8.5006279e-01   6.4452541e-01  -8.0429085e-01   9.9947788e-01  -3.9159319e-01  -5.3099325e-01   6.9641004e-01   4.8882120e-01   1.4965869e-01   4.0119147e-01   2.8388893e-01  -8.5882909e-01   1.8756631e-01  -6.8487720e-01   4.7872805e-01  -2.9088902e-01  -6.4630690e-01   6.4195865e-01   1.6201835e-01   3.8120163e-01  -4.8472451e-01   4.1945884e-01   9.7878859e-01  -6.7307006e-01   2.5274306e-01   7.8233246e-01   7.7995470e-01   3.6025105e-01   7.8219548e-01   2.8880853e-01   2.9520366e-01  -7.6743424e-01   1.9355438e-02  -2.9085316e-01  -2.2650197e-01   9.9525071e-01   8.8313358e-01  -5.5355948e-02   6.3669690e-01  -3.8726971e-01  -7.6348162e-01  -5.8446098e-01   2.0005543e-01  -5.1042968e-01   5.9742318e-01  -2.8208868e-01  -9.0404422e-01   8.6646546e-01   8.5464843e-01   7.9675459e-01  -1.7378331e-01  -8.7046222e-01  -4.5518138e-01  -8.6374225e-01  -1.1054845e-01  -8.8619521e-01  -7.1207050e-01  -4.7166149e-01  -6.5620138e-01  -5.9948730e-01  -2.4452279e-01   7.1580337e-01   5.2381204e-01  -9.9781298e-01   9.3660904e-01  -1.8215884e-01  -6.1671360e-01   6.4324586e-01  -9.7009203e-01   4.0048253e-01  -6.8642764e-01  -1.1438754e-01  -9.7254657e-01   2.1526330e-02  -8.8335830e-01  -1.1616973e-02  -1.6984143e-01  -5.7989448e-01  -6.7141799e-01   3.8344054e-01  -5.6422936e-01   5.4390741e-01  -9.4983316e-01   2.4415082e-01  -9.0498299e-01  -4.8288611e-01   7.4012254e-01  -6.0889913e-01  -8.8438590e-01   7.7356285e-01   1.7640631e-02   3.8568020e-01   5.9916923e-01  -3.9652024e-01  -8.8454328e-01  -9.8452100e-01   3.0127321e-01  -6.5739613e-02  -2.5737367e-01  -5.5505846e-01   7.4382062e-01  -5.3089281e-01   1.5856507e-01   3.3780095e-01   7.5454737e-02   6.5847822e-01  -6.2747127e-01  -2.2056019e-01  -6.5216836e-01  -8.0985720e-01   3.5646642e-01   3.9100864e-01   7.2838405e-01  -8.3875281e-01   5.4544846e-01  -8.8133845e-01  -5.5386205e-01   6.8559000e-01   3.0536798e-01  -8.2980378e-01  -8.1159655e-01  -5.1056111e-01   5.3581923e-01   2.5967795e-01   4.0620135e-01   7.1104854e-01   9.4700499e-01  -5.4804038e-01   4.7142266e-01  -4.5329292e-01   9.0898896e-01  -3.5190144e-01   4.0025484e-01  -7.1227882e-01   5.7654962e-01   5.7057414e-01   1.6537174e-01  -8.1337147e-01  -6.2812238e-02   2.7443515e-01   3.7407256e-01   1.3348059e-01  -7.7912411e-01  -6.1509546e-01   9.7658622e-01   4.1246376e-01   6.0788973e-01  -1.1409817e-01  -1.8024651e-01  -6.1142259e-01  -5.7276949e-01   9.7072383e-01   2.7794448e-01   3.9922354e-01   1.2891995e-01   8.4603237e-01   8.7227696e-01   9.3326422e-02   7.8406490e-01   8.2479940e-01   9.2920777e-01  -1.6324684e-01   6.3866227e-01  -8.6342572e-01  -6.8797563e-01  -3.4516764e-01   9.8726664e-01   6.7433168e-01  -6.8366064e-01  -9.0971784e-02   9.0261347e-01  -1.0467207e-01  -3.9706291e-01  -6.0730642e-01  -6.8514707e-01   5.1529367e-01  -8.7367637e-01  -4.5972729e-01  -2.4640360e-01   1.9190071e-01  -8.0883520e-01   1.8055256e-01  -3.3218769e-01  -1.2057013e-01  -3.9468923e-01   9.6948075e-01  -3.6656370e-01  -8.3543811e-01   5.4334724e-01  -3.7903277e-01  -8.1347689e-01   6.3505440e-01   6.6012141e-01  -7.2754023e-01  -9.1756072e-01  -2.5715430e-01  -5.9505569e-02   7.4787455e-01   9.0406989e-01  -9.6649144e-01  -9.0525591e-01   9.5910381e-01   5.0269696e-01   2.0787476e-01  -1.9006305e-01  -4.6414731e-01   8.0783247e-01  -6.6616272e-01  -1.2263259e-01   2.2834984e-01  -1.0029283e-01   4.1652759e-01   1.3595524e-01   7.4483888e-02   4.4964571e-01   3.8616665e-01  -5.1833041e-01  -4.9379859e-01  -6.7825141e-01  -2.1159916e-01  -9.1995637e-01  -5.2419493e-02   5.1919330e-01  -1.9900309e-01   3.0350039e-01   7.1863113e-02   3.8619869e-01  -2.4034005e-01   2.7228645e-01   5.0786512e-01   3.4231067e-01   7.3986320e-01   7.5712202e-01   2.5929102e-01   1.3072534e-01  -8.1104301e-01   4.8806076e-01   5.9102341e-01   9.7812700e-01  -9.3418633e-01   7.8667610e-01   5.1450211e-01   6.7456759e-02   8.7904258e-01  -1.6652752e-01   2.1759411e-01   1.2117926e-01  -1.1616202e-01  -3.8352972e-01  -8.7724998e-01   4.8151437e-01   9.2965160e-01   8.0926666e-01   2.0398397e-01  -4.0829472e-01   1.4200654e-01   8.4406194e-01  -6.8922516e-03  -7.3910291e-01  -9.7266391e-01  -7.0661886e-01   1.4679315e-01  -1.0259163e-01   6.9359968e-01  -4.4202132e-01  -3.7239696e-01  -4.2934655e-01   1.2232560e-01   1.0417724e-01   4.4840300e-01  -2.3859468e-01   2.6303388e-02  -9.9838950e-01  -4.2979319e-01  -3.3687008e-01   8.0696975e-01  -4.9831103e-01   2.1581767e-01   2.7400647e-01  -5.6310899e-01   2.4357674e-01  -2.4686709e-03  -4.1290962e-01  -3.7417348e-01  -5.5789699e-01  -5.7762657e-01   2.6032888e-01  -8.2834610e-02   4.8076357e-01   5.8277259e-01   4.6289214e-01  -6.2344369e-01  -6.4760414e-01  -4.0988461e-01  -8.1515671e-01  -9.4369390e-01   1.9438026e-01   7.4905878e-01   8.2120929e-01  -8.8051133e-01  -6.3549304e-01   7.9179034e-01   7.1390037e-01   9.2580388e-03  -1.2290033e-01  -4.5543730e-01  -8.2178984e-01   8.8248122e-01   4.7655287e-01  -4.1760269e-01   1.4767462e-01   4.3488463e-01  -1.3811741e-01   6.9557550e-01  -9.2903705e-01  -4.0305462e-01   9.3363671e-01   2.1000934e-01   3.9395629e-01  -4.2853942e-01   1.4561835e-01  -7.5397437e-02   6.2696414e-01   3.1527264e-01   8.9604848e-01   8.0905057e-01   7.7712669e-01   6.6683562e-01  -5.5585738e-01   1.3107831e-01   3.9616468e-01  -4.4440402e-01   5.1248640e-01  -1.3955032e-01   9.1508309e-01   4.9339376e-01  -3.0569037e-01  -4.5572013e-01  -5.5693476e-02   2.8280822e-01   5.4175543e-01   9.5499825e-01   6.9914832e-01  -6.1771031e-01   4.3827988e-01   4.7960313e-01  -6.6969724e-01  -8.3008427e-01   7.7559811e-01   7.3017300e-01  -5.7342385e-01   6.2176688e-01  -4.0524500e-01   9.6453815e-01   5.1263735e-01   5.3457476e-01   2.4648331e-01  -7.9543467e-01   9.1642757e-01  -4.8674978e-02   3.2798053e-01   3.1456963e-01   6.7979269e-01  -5.3430420e-01  -6.5873588e-01  -2.9023171e-02  -2.3232657e-01  -9.2813484e-01  -4.0625791e-01  -4.4162158e-01  -5.8443182e-01  -9.4667524e-01   3.1553456e-01   9.6161369e-01  -9.4880436e-01  -5.1248320e-01  -7.0058441e-01  -1.4270585e-02  -5.3452243e-01   6.2406893e-01   4.0849870e-02   6.4981705e-01   1.5605428e-01  -2.0779408e-02   7.8568482e-01   7.5121153e-01  -1.2159368e-01   7.1436378e-01   9.2037303e-01   8.5920405e-02   5.1351360e-01  -4.1224721e-01  -1.5297833e-01   1.8333012e-01  -7.6285515e-01  -9.8664566e-01  -4.1649007e-01   8.0061829e-01   6.4236282e-01   2.0622791e-01  -5.8365564e-01   5.3539230e-01   1.5895757e-01  -6.4427374e-01  -6.2687398e-01   2.7386473e-01   3.5385028e-01   3.4037565e-01  -3.3504112e-01   9.9053814e-01  -1.1468969e-01  -7.9519334e-01   2.6751380e-01   7.0164568e-01   5.3211181e-01   9.4512475e-01   7.6051444e-01   3.4922041e-01  -5.6750462e-01   3.7408394e-01   9.9890761e-01   2.1419946e-01  -3.6415001e-02  -1.7271032e-01  -4.2778809e-01   2.8987248e-01  -4.3601211e-01  -1.8146430e-01   2.4296819e-01  -7.8262731e-01  -5.3732629e-01   2.2776359e-01   2.9510636e-01  -9.6916365e-01   9.1049364e-01  -7.2732776e-01   1.6477489e-01   1.1014336e-01   2.2469211e-01  -7.7389080e-02  -7.3651458e-01  -7.1707812e-01   9.4995087e-01  -2.6114135e-02  -4.4702228e-02   1.6775500e-01  -2.3197653e-01  -2.3858189e-01   7.9101251e-01  -1.4064777e-01   3.6429596e-01  -8.4407202e-01   1.5538560e-01  -2.7551878e-01   3.5654986e-01   9.2566008e-01   4.9362949e-01   2.8762022e-01  -3.8452318e-01  -1.3237679e-01   2.0855353e-01  -6.0923265e-01  -4.6181279e-01  -8.5000925e-01   9.1012340e-01   5.7423767e-01  -9.0489382e-01   3.6077648e-01  -4.9459713e-01   7.3405875e-01   4.5661233e-01   1.6035427e-01   1.2146269e-01   3.8296765e-01  -8.9090446e-02  -7.0876397e-02  -9.3563146e-01  -3.8136633e-01   6.3698984e-02   3.4602161e-01  -9.3146547e-01  -1.8548295e-01   7.7172742e-01  -7.5588727e-01   6.8362775e-01   6.5013537e-01  -3.5822940e-01  -6.2643701e-01   2.5282703e-01   7.3004359e-01  -8.7692888e-01  -3.2063608e-01   7.6559824e-01   6.7667204e-01   1.7664160e-01   6.1312328e-01  -5.3552197e-01  -6.7185683e-01   8.3552584e-01   2.5433296e-01   7.1382328e-01  -5.7887750e-01   1.2880003e-01  -7.2266534e-01  -5.2094575e-01  -7.5887030e-01  -8.9588966e-02   6.6811372e-01   4.9483639e-01  -7.8992403e-01  -2.4144516e-01  -5.2025332e-01  -8.7259771e-01   7.6286043e-01   7.8163589e-01  -1.9840988e-01   2.4783239e-01  -9.0614107e-01  -2.9063711e-01  -1.5804390e-01  -8.6331067e-03  -8.4704032e-01  -7.3469588e-01  -2.5513819e-01   5.4528577e-01   9.3877250e-01   4.3098431e-01  -9.3231830e-01  -2.6046239e-01  -4.5185095e-01  -1.0165486e-01  -5.9638229e-01   6.0875825e-01   7.2275657e-01  -6.7222670e-01   4.3122526e-01   7.9154103e-01  -1.4719690e-01   6.2968021e-01   3.5779252e-02   9.2972200e-02   5.5854735e-02   4.4094269e-01   7.8028410e-01  -9.8014785e-01  -1.0383276e-01  -6.0084076e-01  -6.2474440e-01   8.8385420e-01  -5.3915711e-01   4.0817958e-01   3.5464832e-01  -3.5196523e-01   7.3781690e-01  -5.3152102e-01   4.1764394e-01   7.2033042e-01   9.9359169e-01  -1.1590577e-01   4.1464658e-01   9.1280027e-01  -3.0630245e-01  -7.0599159e-01  -2.0685815e-01   2.7904456e-02   5.5102214e-01  -7.4785028e-02   6.4944919e-01   2.6003038e-01  -9.8271532e-01   7.2481564e-01  -8.2288383e-01  -9.9344210e-01   5.7866164e-01  -1.8430205e-01  -3.1513235e-02  -8.8659463e-01  -3.2898503e-01  -1.4928083e-01  -8.5974011e-02  -3.4288509e-01   7.7987640e-01   2.3149897e-01  -3.2678501e-01  -6.8013894e-01   4.9128578e-01  -5.1482395e-01   4.6432387e-01  -2.9052599e-01   6.4926972e-01  -7.1550908e-01   9.4909471e-01   1.3343640e-01   8.5589650e-02  -8.9865301e-01  -5.5846862e-02  -7.7548755e-01   5.5559563e-01   9.1424580e-01  -1.8645015e-01  -9.5648732e-01   6.4161205e-01  -5.7686167e-01  -8.6018480e-01   5.8787623e-01   4.9456569e-01   8.8047197e-01   4.2400274e-01   4.7753482e-01   8.0779888e-01   7.4671056e-01   9.2261783e-01   2.2953666e-01   2.8127252e-02  -8.3560544e-01   9.0234813e-01  -5.2029032e-01  -1.8371338e-01  -4.0148027e-01   9.7780830e-01  -8.8755599e-01  -5.8560400e-01  -3.6188040e-01   9.0020488e-01  -2.7262931e-01  -8.3999593e-02   5.3484850e-01   4.9139632e-01   5.1992182e-01   7.4316769e-01   9.5255122e-01   6.9051802e-01   9.0729576e-01  -4.6746668e-01  -6.1418715e-01   9.1644925e-01   5.7004122e-01  -7.2757166e-01   6.0126883e-02  -5.5352533e-01   7.5428716e-01  -8.9827532e-01   4.6434172e-01  -7.5999973e-01  -5.3927469e-01   9.7797125e-01  -9.0113992e-01  -2.2903893e-01  -3.8410309e-01   1.1897473e-01  -9.0854882e-01  -2.4607411e-01  -7.1323919e-01   9.3574107e-01   5.5035325e-02   6.3446090e-01   1.3368071e-01  -2.3226619e-01   3.4712108e-01   4.6716292e-02   9.1920005e-01   9.6355212e-03   5.1763011e-01  -1.6327383e-01   8.3494323e-01  -5.8433919e-01  -6.9591311e-01  -7.7521404e-01   2.1804514e-01   5.3907786e-01   1.7354989e-01  -4.1983459e-01  -1.6246400e-01  -5.9992546e-01  -5.2250518e-01  -7.8969490e-01   1.2275400e-01   3.4631376e-01  -4.3201660e-01  -4.0733365e-01   3.5552028e-01   5.9668156e-01  -2.9260273e-01  -3.8005295e-01   9.3543392e-01  -8.3696049e-01  -1.8563027e-01  -4.6683013e-01   2.4055899e-01  -3.0076917e-01   1.9620705e-01  -7.2435393e-01   1.4564361e-01  -5.3376891e-01   5.7540397e-02  -9.8156392e-02   3.3522804e-01  -5.5045551e-01  -7.6012597e-01   1.2222456e-01   4.6175507e-01  -5.4676453e-01   9.6601237e-01   1.8389087e-01   4.0957063e-01   2.2118015e-01   6.8334280e-01  -4.0162883e-01   4.5115765e-01   1.9586800e-01   9.0028251e-01  -1.3519980e-01   9.1874629e-01   1.0305572e-01   3.7423944e-01  -5.9689954e-02  -1.4432094e-01   8.7272839e-01  -7.8793398e-02   9.1383649e-01  -6.3763770e-01   9.5305351e-01   3.6128990e-01  -9.2193545e-01   7.9738135e-01  -8.1284662e-01   5.4311940e-01  -7.1311566e-01   3.1071249e-01  -1.9767285e-01  -4.2070990e-01   1.1114478e-01  -2.9620496e-01  -1.6580998e-01  -5.5862081e-01   1.6872214e-01  -2.4603571e-01  -9.1120838e-01   3.5320304e-01   9.5361313e-02   1.2800415e-01   7.1877921e-01   4.9079601e-01   6.4815453e-01  -1.0675715e-01  -3.2062492e-01   7.4791298e-01  -1.7081441e-01  -1.7694014e-01  -6.4858441e-01   1.7348369e-01  -6.2712295e-01  -2.0304824e-01  -8.5567564e-01  -5.2129182e-01  -5.4161099e-01  -1.9834316e-01  -7.7961639e-01   6.7556535e-02  -4.5346773e-01  -3.5564156e-01  -8.5173004e-01  -2.2812267e-01  -9.0610427e-01   9.1207564e-01  -9.1110158e-01   4.0518840e-01   5.5390073e-01  -5.2841860e-01   9.2343229e-01   1.7223903e-01  -1.0428310e-01  -7.3964768e-02   8.0566561e-01  -5.1176531e-01  -4.7055467e-01   5.0586449e-01   5.8066139e-01  -6.4937701e-01   8.9412855e-02  -9.3621841e-01  -5.0530125e-01   6.9836586e-01  -2.8509172e-01   5.4704654e-03  -6.1113837e-01  -4.1669880e-01  -3.4171399e-01  -2.2976689e-02   2.8954884e-01   3.3932504e-01  -1.0722259e-01  -7.4425752e-01  -3.1523056e-01   7.8325199e-01  -6.3091580e-01  -3.6888763e-01  -1.8079650e-01   2.2645025e-01   2.3659839e-01   4.1674905e-01   6.2791818e-01   3.0611487e-01  -1.7147056e-02  -5.5049746e-01  -5.5213151e-01  -4.4339753e-01  -2.6239187e-01  -7.0127281e-01  -8.1541986e-01   3.2597451e-01  -8.0497757e-01  -7.7564333e-01   7.3199262e-01  -3.6599402e-01   3.0219978e-02  -6.4164009e-01  -2.4144171e-01  -4.9206331e-01  -6.6137369e-01   6.8209374e-01  -9.5154253e-01   3.0766197e-01   3.7299237e-02   5.4003210e-01  -6.7771157e-02   5.7730055e-02  -8.2248705e-01  -6.5815239e-01  -7.8834415e-01  -1.3671083e-02  -9.8487992e-01   2.5445544e-01  -4.3019346e-01  -3.6700208e-01  -8.9126838e-01  -6.5739231e-01  -9.5701449e-01  -1.2453110e-01   1.9654161e-01  -2.2898199e-02  -8.1410157e-01   4.4284357e-02   1.9798182e-01  -8.6902413e-01   3.8745210e-01
  -6.0971734e-01  -9.9120275e-01   7.6822495e-01   2.2368964e-01   8.7119351e-01  -1.1462414e-01  -5.4006591e-02   2.4783963e-01  -2.8206076e-01  -2.6244554e-01  -8.2159315e-01  -1.3711187e-01  -7.3710568e-01   3.2497904e-01   9.4878991e-01   6.2923649e-01   4.1788315e-01  -4.4809333e-01  -2.2702934e-01   8.1311168e-02   4.4960742e-01   3.6151621e-01  -8.8175914e-02  -4.4811514e-01   8.8572731e-01   6.7369997e-01  -9.0977588e-01  -4.4342842e-01   5.4594894e-01  -9.5787573e-01  -4.8972648e-01  -5.5514649e-01   2.5781856e-02   8.0739457e-01   2.8582065e-01   6.0378903e-01  -1.6196307e-01  -4.8424816e-02  -5.1178169e-01  -5.5000048e-01   4.1913121e-01  -1.7911940e-01  -8.8760204e-01  -2.9869153e-01   5.3402577e-01  -6.1543471e-01  -4.7627138e-01   2.3497113e-02   1.9030133e-01   7.6796652e-01  -4.2951705e-01   7.9726583e-01   2.0693904e-01  -6.5240467e-01   4.0122606e-01   9.2139755e-01  -1.2461893e-01   8.8786024e-02   4.5782105e-01  -8.3586892e-02  -5.2255251e-01   3.7132529e-01  -9.2082171e-01   4.2022018e-01   4.8571513e-01   7.8964373e-01  -9.0908592e-01   9.6754282e-01   9.7810849e-02   5.0060919e-01   3.7041121e-01   5.6429440e-01  -2.7941721e-01  -5.7423454e-01   9.8805589e-01   5.6871158e-01  -9.6828836e-01  -1.5433577e-01   1.7178337e-01  -8.3834304e-01   8.8572697e-03  -8.0218299e-01   3.7987861e-01   7.8347633e-02   3.1613538e-01  -6.5157357e-01  -1.0186085e-02   3.1770098e-01  -6.3174981e-01   3.6954336e-01   1.7453750e-01   3.9151545e-01   9.6316599e-02  -4.0961530e-01   8.1825576e-01  -9.7989223e-01   2.1458265e-01  -6.3140898e-01   8.7173736e-01   8.0458884e-01  -5.2035780e-01  -9.5666769e-01  -2.8700373e-01  -4.5059269e-01   5.6477270e-01  -2.6720852e-01  -4.3499404e-01   7.6979536e-02  -1.3085191e-01  -7.3911597e-01   9.3935059e-01  -8.1306758e-02  -4.4303878e-01  -3.6117239e-01   6.2971729e-01  -3.1292827e-01   9.9801264e-01   6.6763016e-01   8.4610524e-01   1.1499899e-01  -1.6048236e-01   9.1122053e-01   5.0083040e-01   4.7833079e-01  -1.4927850e-01  -2.0132434e-01   4.4651346e-01   4.7664474e-01   2.1538281e-01   4.9645716e-01  -2.9455837e-01   8.1474321e-01   5.1971782e-01  -7.0936580e-01   7.6651709e-01  -6.3047323e-01  -2.1545662e-01  -4.4310693e-01  -6.0918998e-01   5.5164240e-01  -3.6556023e-01  -6.0462515e-01   8.8487634e-01   5.5396389e-01  -1.1018276e-01   6.1883379e-01  -3.5057268e-01  -7.2515349e-01  -9.7345773e-01   3.7568567e-01  -3.6401958e-02   1.7861574e-01   6.4429057e-01   7.2616847e-01  -9.1641436e-01   9.0262009e-02  -3.5821224e-01   7.1275629e-02  -4.7449601e-01   1.0096655e-01  -8.6518103e-01  -8.9174090e-01   1.7607263e-01  -7.5328527e-01   4.9978725e-01  -4.1314482e-01   5.2557069e-01  -2.5774540e-01  -8.9294311e-01  -6.0171641e-01   2.5909917e-02   4.8791444e-01   9.0296456e-01   8.8237661e-01   3.0267643e-01   6.0775849e-01  -4.0109505e-01  -3.5949018e-01  -7.9252761e-01   9.6462976e-01   8.3685744e-02   5.7508795e-02  -8.8657514e-01   6.7159964e-01  -6.2320378e-01   9.3089825e-01   8.1170946e-01  -1.6806894e-01   2.5662388e-01  -5.0790142e-01   3.6437632e-01  -9.0082318e-01  -2.4286465e-01  -4.1107901e-01  -1.5843600e-01   3.1117485e-01  -9.3546917e-01   7.2544366e-01   3.4921745e-01  -3.4077461e-01   9.5865246e-01  -8.2873731e-01   7.2104838e-01  -5.6390793e-01   1.1513812e-01  -3.1788660e-01   6.0002005e-01   4.9797314e-01   4.8702050e-01  -7.4686399e-01   6.9110076e-01  -8.8151900e-01   3.2083117e-01  -3.0981024e-01   7.6156090e-01   9.6666561e-01  -9.7935625e-01   5.7841824e-01  -1.5495117e-01   6.4762158e-01   8.4768488e-02   8.9860158e-01  -3.1907440e-01   8.5022273e-03   1.3480695e-01  -4.6191494e-02   7.8023020e-01   7.4322978e-01   7.8480647e-01   1.0018898e-01   5.5211869e-01   6.6282085e-01  -7.4655269e-01   9.2841619e-02   2.8656508e-01  -7.8150088e-01   1.2172813e-01  -4.4723538e-01  -2.1554465e-02   6.5464826e-01   6.6762495e-01  -6.6088466e-01   5.2548950e-01   7.0756829e-01  -9.0636224e-01   5.2594086e-01  -4.8893779e-01  -6.2806649e-01   8.9444508e-01  -9.7299568e-01  -5.3487744e-01   1.9241009e-01  -1.3182949e-01   1.2047165e-01  -4.9811323e-01  -8.7480627e-01  -1.8775351e-01   6.5724740e-01  -1.4847197e-01   3.5434143e-01  -6.7982401e-01   9.6194088e-01   7.3591627e-02   1.3485317e-01   3.5740499e-01   4.5278389e-01   7.3572544e-01  -4.3539326e-02  -5.0225058e-01  -2.8796193e-01  -6.1878617e-01  -3.7365474e-01  -7.3212104e-01   5.2697056e-01  -3.6972892e-01  -2.7593752e-02  -3.8223029e-02  -7.0517326e-01   8.0194287e-01   7.0918909e-01  -3.2308310e-01  -7.7767514e-01  -8.2823128e-01   7.9139648e-01  -9.4496387e-01  -7.4606337e-01  -1.8408146e-01   2.4821344e-01   2.8149925e-01  -5.3897296e-03   7.9084286e-01  -2.9211972e-01   9.2650984e-01   4.2539942e-01  -8.1465915e-01   7.1819139e-01   5.8644204e-01   6.9925747e-01  -9.3383915e-01   1.3841503e-01  -5.2429599e-01   7.8730297e-01   8.7939011e-01   9.7216275e-01  -5.8315986e-01   8.3628611e-01   2.9696841e-01   7.5136479e-01   6.5566708e-02   6.5668344e-01  -7.0692131e-01   8.9280160e-01  -4.8749769e-01   5.3439083e-01   2.2921293e-01   6.0417321e-02  -2.6581076e-01   8.0388169e-01   8.4867199e-01  -4.7044371e-01  -8.7453453e-01   6.6848312e-01   9.3290805e-01   1.7527929e-05   3.2770170e-01   7.7378604e-01   7.1190045e-01   4.2254582e-01   1.7146442e-01   2.4785109e-01   4.7161159e-01  -2.8006024e-01   3.1805240e-02  -3.0211021e-02  -3.2765253e-01   1.9879459e-01  -7.9520409e-02   9.5931454e-01   9.8301505e-01  -1.0774130e-01   9.8684013e-01   8.6080161e-01  -5.5987876e-02  -7.2844193e-01   6.2246750e-01   4.2615902e-01   9.3006876e-01   3.9250996e-01   3.4706023e-01   8.4058988e-01   4.9890243e-01  -2.4213900e-01  -7.5826874e-02  -2.4423708e-01   2.3382010e-01  -9.0576338e-01   4.3973429e-01  -5.3433053e-01   8.7331353e-01   9.1510536e-01  -4.3590003e-01   3.9981580e-01  -2.7511606e-01   2.6375708e-01  -9.4209227e-01   5.6975107e-01   7.7005812e-01   5.1551350e-01  -6.1847620e-01   5.2879840e-01  -3.7981453e-01   5.8529700e-01   4.4237702e-01   4.3548714e-02   4.1489397e-01   3.7757816e-01  -2.8984938e-01  -9.2355029e-01  -7.8088484e-01  -8.6337030e-02   2.3930867e-01  -1.4109089e-01   7.3687310e-01  -5.3815043e-01   9.2550656e-01   6.9830854e-01   7.7088599e-01   7.4782010e-01  -5.8866959e-01  -4.5197526e-01  -6.6654649e-01   8.2874466e-01   7.2680193e-01  -6.0334229e-01   1.3614037e-01  -3.3030458e-01  -6.7927064e-01   3.1766656e-01   1.7401288e-01   2.7944952e-01   8.3176812e-01  -7.9244562e-01  -8.5927534e-01  -2.8280901e-01  -1.2215014e-01   6.5223365e-01   4.4026229e-01  -1.8361173e-01   2.3472688e-02   5.4317483e-01  -5.2814924e-01  -8.7643906e-01   8.7170919e-01   6.4821955e-01  -4.3081409e-01  -1.2158519e-01  -4.7503703e-01   6.2312738e-01  -4.1986073e-01   3.6999175e-01   4.2535137e-01   6.1186518e-01   1.3525598e-03  -7.9900699e-01  -1.8114567e-01  -9.5211527e-01   1.7070516e-01  -3.2539985e-01  -8.6790443e-01   1.9805823e-01   9.8331074e-01  -8.9262450e-01   6.6813635e-01  -2.7793318e-01  -2.6764772e-01  -7.0660699e-01   4.0184384e-01  -1.2836204e-01   4.6905325e-01   8.3185640e-01   8.9871293e-01   3.9336318e-01   8.4114259e-01  -7.7076228e-01   9.1365962e-02   1.1478118e-01   3.6807740e-01   1.0307374e-01  -2.7562724e-01  -4.0228017e-01  -9.2036601e-01   7.0693803e-02   3.8606290e-01   6.5888538e-01   3.5240777e-01  -2.4542650e-01  -7.7046090e-01  -4.4044014e-02  -6.9327459e-01   9.2240693e-01  -5.1764303e-01   7.4823681e-01  -5.8592748e-02   4.1983541e-01   5.8641364e-01   1.6249775e-01  -3.3057405e-01   8.9588260e-01   6.4560683e-02  -8.2458107e-01  -9.0980293e-01  -1.6258389e-01   8.5809343e-01  -5.8614013e-01  -6.2243654e-01   2.5950385e-01   4.7482422e-01   1.7834090e-01   9.8394912e-01   5.8296917e-01  -9.3209318e-02  -7.8746018e-01   4.0717857e-01   9.1199338e-01  -3.1697119e-01   4.2022364e-01   2.7743451e-01   1.7132073e-01   4.1537155e-01   2.6308014e-01   6.3775006e-01  -4.8386687e-01   5.8593484e-01   1.8736950e-01   3.0334981e-01  -5.8063377e-01  -8.8330506e-01   8.7488361e-01  -7.6473478e-01   6.5715458e-01   6.4778727e-01  -4.6551785e-01  -5.3691293e-01  -4.2503260e-01   2.5919767e-01   1.3772684e-01  -8.2233586e-01  -6.9410705e-01  -9.1786607e-01   6.7037979e-01  -6.4891165e-01   3.8219941e-01  -3.8957448e-01   1.2078148e-01  -4.3891092e-01   8.1259176e-01   9.1424790e-02  -3.4010974e-01  -3.6502035e-01   4.4408894e-01   8.1587545e-01   3.0986409e-01  -3.1870410e-01  -1.9537178e-01  -9.9249456e-01  -3.0826088e-01   8.3025030e-01  -6.1530492e-01   3.7446541e-01   2.6633206e-01   6.6238198e-01   1.7875143e-01   3.1702486e-01   8.1956238e-01   6.9621886e-02   6.9472505e-01   5.6906306e-02   6.3184269e-01   4.1903134e-01  -2.5406138e-01  -9.9028623e-01  -4.2695051e-01   8.9640101e-02   8.1413064e-01  -7.2296896e-01  -8.3320969e-01   8.8706698e-01  -6.2082747e-01   4.6338972e-03  -1.0017967e-01  -9.8016816e-01  -7.7461660e-01   8.1543602e-01  -8.5564156e-01  -3.1391308e-02   6.1622773e-01   2.0230128e-01   9.2787850e-01   8.6817781e-01  -3.5432805e-01  -8.9752073e-01  -7.6061865e-01   6.8861582e-01  -2.5680807e-01   6.0358630e-01   2.9605794e-01  -8.2280110e-01   5.4652499e-01   6.9482931e-01  -1.5079773e-01   8.4542077e-01   9.6301603e-01  -3.5320150e-01   4.8600949e-01   8.0027790e-01   7.5186041e-01  -9.8586110e-01  -6.9087781e-01   1.6823848e-01  -4.5106917e-01  -4.1999644e-01   6.0420614e-01  -7.7193551e-01   3.7935342e-01   5.4857364e-01  -9.4828859e-01   6.9387189e-01  -9.8572675e-01  -2.0171534e-01   3.9708418e-01  -2.2468377e-01  -8.5142127e-01  -8.6119439e-02  -7.2938692e-01   2.5812785e-01   9.8506259e-01  -7.2845100e-01  -6.9115497e-03   1.3717655e-01   8.7895317e-01  -2.1836651e-01  -7.3530377e-01  -8.0155569e-01   6.7358061e-01  -8.3455758e-01   3.8954265e-02   8.3610360e-01   2.7388990e-01   5.7003367e-01  -3.2555957e-01  -1.9743784e-01  -6.4537559e-02   2.3850396e-01   2.8016327e-01  -4.5542756e-02  -9.8309501e-01  -9.1874141e-01  -4.3701606e-01   3.2010895e-01   4.9927413e-01  -3.4104542e-01   8.0178317e-01  -5.0358906e-01  -9.6075187e-01  -6.5563791e-02  -3.5728275e-02  -3.5688441e-01  -4.3712474e-01   5.1458563e-01   4.1096499e-01  -2.4212824e-01   8.7754397e-01   2.5688032e-02   3.3908866e-01  -9.3966787e-01  -6.6196478e-01   5.5935642e-01  -1.1214205e-01   7.3605713e-01   9.9419788e-01  -3.1234804e-01  -2.2372837e-01  -6.1225052e-01   6.2395481e-01   6.5114755e-01  -5.5647772e-01  -9.2859636e-02   2.9815550e-01  -5.3285131e-01   9.2673551e-02  -1.2542183e-01  -9.8773532e-01   2.6709456e-01  -1.1369718e-01   6.3820423e-02   7.7797392e-01   3.6708451e-01  -8.8572068e-01  -7.3669309e-01  -1.2163866e-01   4.1745938e-02   5.7070233e-01   2.7698255e-01  -9.7154452e-01  -4.5497250e-01   7.3911915e-02   9.3338148e-01  -9.8985590e-01  -3.6670978e-01   7.8372245e-01  -6.6364689e-01  -6.5610341e-01  -4.8486129e-01  -7.1239892e-01   9.2707930e-01  -8.5713771e-01   7.0947362e-02   6.8443956e-01  -4.6932679e-01  -3.3816845e-01   2.0544442e-01   2.7100376e-01  -3.4515195e-01   2.0088261e-01   9.9396796e-01   6.8417134e-01   1.7350692e-01   5.8036342e-01  -5.5847421e-01  -7.6244689e-01  -3.4031336e-01   5.0523629e-03  -4.9892115e-01   7.5831322e-01  -3.6970491e-01  -3.9931174e-01   1.5035371e-01   6.2737647e-02   8.6731920e-01   8.2413859e-01  -2.3741999e-01   4.8223354e-01  -8.8427504e-01  -6.3345615e-01  -8.1660848e-01   6.5910571e-01   6.9668479e-01  -9.5322649e-02   4.0717306e-01  -9.1646616e-01  -2.2064411e-01  -1.0809232e-01  -8.0320227e-01  -6.7161108e-01  -4.5704942e-01  -7.7786271e-01   9.6989456e-01  -2.2238410e-01   8.1258015e-01   9.5419811e-01  -6.4170189e-02   1.5517154e-01  -4.6443102e-01   2.6454086e-02   5.3588672e-01   1.8413678e-01  -8.6517825e-01   9.0638714e-01  -9.4836349e-01  -1.6625301e-02   9.0820927e-01  -1.6690080e-02  -3.4776776e-01   2.8702940e-01   9.4672040e-01  -1.4813357e-01   2.0350112e-01  -2.7866130e-01   6.8241484e-01  -2.9166976e-01  -4.7305294e-01  -4.6430980e-01  -9.1035070e-01   6.0600501e-01   1.6113299e-01   1.1338224e-01   3.0094473e-01   4.6926691e-01  -7.5675703e-01  -6.8974426e-01  -3.2189760e-01   2.0258840e-01   1.5634513e-02  -6.7276832e-02   7.6029218e-01   2.1172652e-01   4.1475610e-02  -7.6048850e-01  -3.3915558e-01  -2.8752404e-01  -1.9222292e-01  -8.6807596e-01   8.0585495e-01   4.9208034e-01   1.1867714e-01  -9.2722642e-01   6.0726096e-01  -2.9722623e-01  -1.6914806e-02  -5.9076702e-01   3.8864052e-01  -4.9598995e-01  -2.1477928e-01  -4.7406855e-02   6.3940800e-01   6.3652534e-02   9.4839765e-01   1.0501640e-01  -3.2513891e-03  -2.8570597e-01   6.7416179e-01  -6.1935240e-01   8.3110570e-01  -1.5016772e-01  -8.1293428e-01  -8.6848180e-03  -9.2098207e-01  -8.0849198e-01   4.2472361e-01   7.6388583e-01  -5.4067208e-01   5.9666124e-01  -2.8016282e-01   3.8694171e-01  -4.3618243e-01   2.1256851e-01   4.4949719e-01  -6.2423562e-02  -8.6905659e-01  -5.0669256e-01  -3.7367219e-01   7.0666287e-01  -3.6753105e-01  -8.6053447e-01  -7.6492203e-01   6.9790354e-01   5.1536460e-01   3.2834123e-02  -1.3985123e-01   4.9026536e-01  -2.6643135e-01   9.9916348e-01  -4.3361564e-02   8.0173553e-01   2.2060840e-01  -3.0945646e-01  -2.3968561e-01  -6.5146527e-01  -3.6483303e-01   6.0846909e-01   3.1609666e-01  -2.2363259e-01  -5.0323558e-01   2.3403111e-01  -7.1874799e-01   2.2745009e-01  -1.6268614e-01   3.5469138e-01  -7.4207114e-01   6.8995559e-01   2.0703903e-01  -7.9250783e-02  -1.2846869e-01   9.6292619e-01  -2.0096734e-01  -8.9670359e-01  -8.5209150e-01  -4.5925204e-01  -9.2620684e-01  -5.3293232e-01  -5.3392263e-01   3.9580682e-01  -4.9620367e-01   9.5375546e-01   5.9191603e-01   3.7309947e-01  -7.6278460e-01   3.9000838e-01   7.0426698e-02   5.1644118e-01  -6.6146942e-01   1.9933779e-01   5.8572400e-01  -6.4723009e-01  -4.5930582e-01  -1.6635532e-01   1.8964261e-01  -1.9774275e-01  -1.4141857e-01   9.1333486e-01  -8.8322860e-01   9.3954399e-01   7.2115198e-01  -4.8021642e-01  -1.6205216e-01  -2.4224855e-01   5.6191675e-01  -1.1235148e-01   6.4729039e-01   1.0709725e-01   5.6375867e-01   6.8627398e-01  -5.6953833e-01  -9.6433807e-01  -5.3929827e-01  -5.8352292e-01   8.3022731e-01   8.1091987e-01   2.6829590e-01  -8.4107992e-01   8.6009570e-01  -1.6368112e-01   9.1678862e-01   3.1321234e-01  -4.2194176e-01  -9.1086640e-01  -1.6004007e-01   4.9638435e-02   2.8284830e-01   4.9202085e-01  -8.3727256e-01  -1.5001190e-01  -5.6929746e-01   1.8231629e-01  -4.9571100e-01   9.6748159e-01  -5.9193415e-01   4.1715483e-01  -7.7263140e-01   1.5363851e-01   4.9487497e-01   9.7787435e-01   4.3693259e-01  -7.4992699e-01   4.9977983e-01   4.8607601e-01   1.7922487e-01   5.8938118e-01  -6.0379995e-01   1.6049911e-01   5.5523003e-01  -7.3843460e-01   4.1396069e-01   7.8654687e-01   5.3025665e-01   7.8217601e-01  -9.9737750e-01  -7.1561493e-01  -4.9145622e-01  -7.5653554e-01   4.7652844e-01  -9.0971672e-01   1.7021978e-01   5.0473150e-01  -9.7033861e-01  -5.4420550e-01   6.7335014e-02   5.8080887e-01  -3.4029639e-01  -3.9161634e-01  -4.0018928e-01   1.6198315e-01  -2.8798364e-01   6.8078655e-01  -5.9114699e-01   6.8859334e-01  -8.8160942e-01  -2.3695135e-01  -1.2504293e-02  -5.6767096e-01  -7.6102147e-01  -4.3597022e-01   6.7780390e-01  -4.5051218e-02   1.6105770e-01   8.7060778e-01  -8.5720552e-01   6.1703609e-01  -2.9537503e-01  -4.8116878e-01   1.9264641e-01  -8.6266268e-01   8.4952471e-01   7.5882748e-01   8.0257017e-01  -6.7300669e-01   2.0823347e-01  -7.2577849e-01  -4.8708932e-01  -8.1472208e-01   5.2663677e-02   8.7402707e-01  -8.8605564e-01  -5.1893516e-01   6.9027064e-01  -6.1086338e-01  -2.2635892e-01  -1.3040774e-01  -1.4012398e-01  -2.8553438e-01  -7.5881371e-01  -6.5783369e-01  -5.9189103e-01  -2.2158177e-01   5.8217027e-01   7.5215943e-01   8.6972406e-01  -8.5639509e-01   6.6812593e-01  -6.2969862e-01  -7.0932618e-01  -8.2376439e-01   6.3445787e-01   3.1048428e-01   9.5191660e-01   8.3506972e-01   3.5874598e-01   3.3980238e-01   3.2497534e-01  -2.8744723e-01  -7.6845078e-01   6.9774444e-01   8.2775254e-01  -2.0509373e-01   2.2958502e-02   6.9692658e-01  -3.3331686e-01  -7.9125563e-01  -6.4526331e-01   7.7586120e-01
   1.8160707e-01   3.5787340e-01  -5.4179140e-01   7.4430687e-01   6.9252544e-02  -7.8911075e-01   8.7059660e-01   1.6783461e-01   3.7036973e-03  -7.9351416e-01   1.7577754e-01  -7.2667464e-01   1.3793312e-01  -1.7553545e-01   1.4233721e-01  -7.2570636e-01  -3.2938550e-01   1.6711130e-01   2.5711366e-01   2.3416640e-01  -9.1183535e-01   2.3931251e-01  -2.9511843e-01  -8.5761711e-01  -4.2053012e-01  -7.5250936e-01  -5.7997865e-01  -1.4796642e-01  -4.6588152e-01  -8.2803128e-01  -4.5896836e-01  -9.4877401e-01   7.4660554e-01   2.4301473e-01  -3.3656090e-01   2.8801525e-01  -2.3006950e-02  -4.2046217e-02  -8.4388700e-01  -4.0018592e-01  -1.6113599e-01  -4.3773293e-01  -3.5877827e-01   5.4979637e-01  -1.7562560e-01  -3.3264677e-01  -9.9715872e-01  -2.3052338e-02   4.5033570e-01   1.8259732e-01   8.0219909e-02   5.8564363e-01   4.9027794e-01  -2.4324021e-01   1.3550753e-01  -5.3118280e-01   6.2621546e-01  -3.5404334e-01  -3.5130661e-01   8.3106454e-01  -1.3239212e-01   4.1530226e-01   6.7326153e-02  -1.4899900e-01  -3.4221832e-03   9.6382799e-01   5.0189304e-02   2.3495373e-01  -4.6408857e-01   3.8048779e-01   3.3564730e-01   8.0384284e-01  -5.5806874e-01  -4.5267652e-01   3.9609373e-02  -2.7448864e-01   1.2674750e-01   3.6486620e-01  -1.8703887e-01  -6.8577942e-01  -9.4793145e-01   9.5618744e-01   1.8682107e-01  -3.4895581e-01  -9.1223215e-01  -6.6239155e-01   8.8711001e-01   6.7433468e-01   7.6420942e-02   2.3966930e-01  -9.5003047e-01   7.4672109e-01   3.6636389e-01   6.6892910e-01  -1.7091288e-01  -6.0644783e-01  -5.3530885e-01   2.6500449e-01   8.1848462e-01   4.2562275e-01  -2.6511435e-01  -2.7638659e-01   2.8706925e-01  -4.8519688e-01  -7.3112189e-01  -5.6966436e-01  -4.2715077e-01  -3.2801500e-01   8.3854863e-01  -1.5065976e-01  -6.2380051e-01  -7.9431838e-01   1.9503993e-01   7.7743221e-01  -8.8667615e-01  -3.0141554e-03  -2.3377191e-01   5.2560689e-01  -2.0170873e-01   9.9363694e-01   5.5249001e-01   5.1670135e-01   6.2175813e-01   2.1473493e-01   1.8899028e-01  -1.1964093e-01   5.4183487e-01   6.8853419e-01   5.5002268e-01  -2.3112219e-01   2.6549230e-01   1.7597208e-01  -8.6032006e-01   2.9819805e-01  -2.7664119e-01   9.5732437e-01  -2.5215627e-01  -6.9698356e-01   3.4089285e-01  -4.3702568e-02  -6.4422416e-01   2.8598209e-01   7.6286838e-01  -2.1780255e-01  -6.2021577e-01   3.9784334e-01   4.9441329e-01   7.2500312e-01  -5.2412484e-01   4.1327714e-01   2.2916141e-01  -3.6527885e-01  -2.2561339e-01   3.3252130e-01  -4.4887918e-01  -7.2125451e-01  -4.8679158e-01   1.7750933e-02   5.1860052e-01  -5.1076062e-01  -9.5158089e-01   2.0986111e-01   4.6146118e-02  -6.3759342e-01  -9.4429086e-01   6.9301854e-01  -7.6561237e-01   1.8116211e-01   9.0876584e-01   7.2918956e-01   3.1373007e-01   1.5707610e-01  -6.3225393e-01   4.8560866e-02  -6.5457970e-01  -7.3043031e-01   6.2034129e-01  -1.0522838e-01  -8.9409074e-01   3.1247948e-01   6.8033512e-01   6.0292558e-02   6.4882294e-01   1.4062552e-01   6.0097771e-02   5.5126129e-01  -8.7153806e-01  -1.9187900e-01  -9.4392478e-01   9.7506554e-01  -1.4890445e-01  -3.6885322e-01   1.3318123e-01  -9.7613630e-01   8.1683405e-01   2.4359829e-01   9.0416636e-01  -7.9430044e-01   1.9706988e-01   6.8873158e-01  -1.9373340e-01   7.2748189e-01   7.5094058e-02  -6.3828874e-01  -5.6527100e-02  -1.2591806e-01  -5.7708944e-01   4.7410005e-01   8.1084708e-01  -8.8869031e-01  -5.1381766e-01  -8.0990171e-03  -5.5192257e-01   3.4194208e-01   6.0378822e-01  -4.7603226e-01  -4.3986912e-01  -5.1241131e-01  -9.4748039e-02  -6.3095304e-01  -4.9996746e-01  -3.1148557e-01  -2.1756242e-01  -7.5690253e-01   1.6953784e-01   6.5507535e-01  -8.2925287e-01   2.3288854e-01   6.2909297e-01   5.7850642e-01  -2.3982121e-01   9.7082528e-01   8.0337153e-01   9.5382376e-01  -7.4147778e-01  -7.4201246e-01   2.9014355e-01   6.6733136e-01   6.0051709e-01   8.9300904e-01  -7.4639098e-01  -1.5240616e-01  -7.1040057e-01  -4.4644131e-01   4.2329219e-01  -1.2984242e-01   3.8233362e-01  -8.1993778e-01   8.4186693e-01  -2.1181307e-01  -7.8879783e-01  -5.0723391e-01  -3.8079473e-01   2.7632109e-01  -2.5055701e-01   3.2588603e-01   7.1314589e-01   6.1721128e-01  -4.8708066e-01   4.0454919e-02  -3.8339067e-01   7.4708755e-01   2.3207087e-01  -8.3542009e-01   1.5841517e-01   1.6672721e-01   9.8598278e-01   4.4248805e-01  -7.1593170e-01   5.0858771e-01   7.4107695e-01   3.8283408e-02  -7.2645326e-01   5.9371138e-01  -7.6719412e-01   7.0239655e-01  -3.9045148e-01  -5.5764086e-01   8.3586239e-01   9.3193940e-01  -7.2112600e-02  -9.4258797e-01   1.9951951e-01   2.6141309e-01  -4.7295967e-01   4.7606958e-01   6.7730043e-01   3.9643863e-01   7.5896961e-01  -2.1520592e-01  -4.3296874e-01  -9.2900118e-01   4.2908179e-02   9.8064057e-01   6.1303117e-01  -5.1945839e-01  -9.5045134e-01   3.5773212e-01   9.7458720e-01  -2.7015844e-01   1.8703988e-01   7.3098420e-01   1.8399611e-02   8.4096245e-01  -2.4338472e-02  -5.6703545e-01   5.2157155e-01  -8.3115660e-02  -2.8533642e-01  -6.1991189e-01  -5.9336854e-01  -8.7754142e-01  -2.0646213e-01  -2.1507477e-01  -5.2482287e-01  -2.8876737e-01  -3.1724484e-01  -5.8093873e-02   3.6814381e-01   3.9636859e-01  -8.7201669e-01   5.0506708e-01  -8.1568058e-01  -1.8434189e-01   7.1125802e-01  -3.0921756e-01  -1.3457666e-01   2.0242234e-01  -9.5425371e-01  -4.2602248e-01   3.3968566e-01  -4.9857551e-02  -8.8318212e-01  -6.3248215e-01   7.5295701e-02  -7.0865495e-01  -4.5547187e-01  -6.9877620e-01   1.9196848e-01   9.8082314e-01  -6.5320122e-01  -2.8931620e-01  -4.0662525e-01  -4.2759854e-01   8.1831639e-01   6.5187285e-01   6.4690804e-01  -1.4757462e-01  -2.2066617e-02   9.0315341e-01  -1.9428762e-02  -8.7283875e-01   4.8527380e-01  -2.5830664e-01  -1.8154729e-01  -5.7071597e-01   9.9659961e-01   7.5542425e-01   3.2643596e-01  -2.6123774e-01   8.9286858e-01   1.5736479e-01   1.0500348e-01   7.2981591e-01   9.3495941e-01   3.4433283e-01   2.9795812e-01  -7.8263778e-01   9.9633059e-01  -9.6072896e-01  -9.1580328e-01   9.7872732e-01  -8.5465277e-01  -6.6891548e-01  -6.1314767e-01   1.4425601e-01  -3.7656627e-01   3.7866706e-01  -5.0276322e-01  -1.1991141e-01  -8.8454473e-01   7.9311746e-01  -4.0456173e-01   3.2950008e-03   9.6799788e-01  -9.0751653e-01  -6.7841947e-01   7.6094059e-01  -7.2029685e-01  -4.2886976e-01   9.8276606e-01   3.5592110e-01  -6.9118503e-01   6.1799139e-01  -6.1782453e-01   4.6986842e-02   9.6936872e-01  -8.9215140e-01   2.1491981e-01   2.9145552e-01  -7.7473499e-01   4.5867011e-01  -2.7824437e-01   3.3582063e-02  -2.7998110e-01  -2.9795818e-01   4.3502438e-01  -1.2441102e-01   3.8881831e-01   1.3966363e-01  -2.5426171e-01   1.0696211e-01  -2.4170778e-01  -9.5971645e-02  -4.4169365e-01  -5.4695440e-01   7.1207179e-01  -1.7251608e-01  -4.4228722e-01  -7.9578056e-01  -8.7924801e-01  -3.3099847e-01  -5.8161379e-01  -3.4233176e-01   6.8133839e-01   6.8313993e-01  -4.5616511e-01   5.2127921e-02  -7.8627160e-01   6.7056496e-01   8.5083661e-01  -6.3201278e-04  -5.6005862e-01   8.8693883e-01   2.5163957e-01  -1.9706034e-02   7.9515737e-01   7.0300753e-01   2.0369669e-01  -1.9173206e-01   3.5609070e-01   6.1836251e-01   5.8899023e-01  -2.7662178e-01   7.0193240e-01  -7.4326880e-01   2.0159610e-01   1.9922686e-01   2.1448717e-01  -1.0316506e-04  -1.0745779e-01  -8.6173475e-01   9.2185640e-01  -3.0504063e-01   8.5323117e-01   2.2324621e-02  -7.6788310e-01  -9.1329978e-01  -4.4452252e-01  -4.4398935e-01  -6.0551962e-01  -8.9048990e-01  -4.9852034e-01   9.4503535e-01   2.4247379e-02   4.8191238e-01   1.7018822e-01  -2.3083327e-01  -2.5046453e-01  -2.4974852e-01   8.3418494e-01  -8.4440930e-01   6.9662592e-01  -9.9574835e-01   3.6347316e-02   2.8088186e-01   5.8275294e-01  -8.2083628e-01   5.6357754e-01   4.5485086e-01   1.6875619e-01  -6.9193199e-01   6.3650089e-01   5.3457330e-01   5.3829826e-01  -4.2063377e-01  -6.1013498e-02   9.8940945e-01  -5.3519706e-01  -1.7494698e-02   8.6942744e-01  -7.7878750e-01  -1.8644787e-01  -2.6353006e-01  -1.2057113e-01   9.6326459e-01  -8.7304578e-01  -6.9010220e-01  -7.7283934e-01   2.4516483e-01   6.6477171e-01  -6.7087177e-01  -4.2227107e-01   3.0579164e-01   3.3282490e-01   7.8011415e-01   5.7893036e-01   1.4960920e-01   1.5953801e-02  -7.6439720e-01  -5.6314016e-01   2.6036470e-01   6.9964139e-01   4.8063906e-01   4.6235915e-01  -6.9444881e-01  -6.4448564e-01   5.8101263e-01  -1.9357243e-01   4.4861817e-02  -2.0848004e-01   5.3084371e-01  -3.9078174e-01   9.4364937e-01  -7.8364988e-01  -1.0781258e-01  -6.9750426e-01  -8.0476305e-01  -6.2783400e-01  -9.8784335e-01   1.8491546e-01   6.4765861e-01   6.6921001e-01   4.0435046e-01  -3.0171286e-01   5.5119005e-01  -8.1482470e-01   7.1892114e-01  -9.7601959e-01  -2.5664861e-01  -7.7131154e-01   8.4714290e-01   1.1114222e-01  -7.3458592e-01  -4.7522664e-01   7.7736790e-02   3.1791750e-01   2.2239294e-01   6.9249047e-01   2.9168171e-01   9.7468999e-01   1.2646417e-01   1.3587868e-01   3.1632873e-01   9.8484565e-01  -1.0895327e-01   2.1609801e-01  -8.6833928e-01  -1.1082827e-02  -6.0024220e-01   9.5142793e-01   3.4934162e-01   4.2715432e-01   1.4898192e-01  -1.6426595e-02   3.1677415e-01  -4.1593909e-01  -9.7710705e-01   3.7127029e-01   4.9264240e-01   1.2851518e-01  -7.5084253e-01  -9.6906194e-01   1.9403053e-01  -3.0737691e-01  -7.7693358e-01  -8.8551353e-01   7.8012989e-01  -2.7777783e-01  -4.5635815e-01   1.9531940e-02  -6.0177467e-01  -2.0111366e-01  -1.4722836e-01  -7.4771976e-01  -9.3990066e-01   8.1078015e-01  -7.6156692e-01   2.2114666e-01  -9.7814252e-01   2.5574784e-01   9.7396297e-01   3.1095850e-01  -7.4578407e-01   7.4921758e-01  -6.9000645e-01   8.8756526e-02  -7.6042712e-01  -6.7579625e-01  -1.2541737e-01  -2.0889889e-02  -5.8641430e-01  -3.9568131e-01  -9.7325585e-01   3.9321969e-01   7.7479942e-01  -4.1041418e-01   2.8008363e-01  -5.7564720e-01  -4.4481350e-01   6.0136571e-01   3.8597425e-01   1.3269318e-01   1.8472737e-01  -9.6133745e-01   5.1789641e-01  -8.6330898e-01  -9.1646505e-01   7.8711896e-01  -7.3030584e-01  -9.4612379e-01   8.1032004e-01   8.4197523e-01   1.6286102e-01  -7.7271594e-02   2.9281885e-01   4.7013884e-01  -6.6579046e-01  -1.9007201e-01  -5.5943970e-04  -5.1360061e-01  -8.0853423e-03  -1.3766898e-01   1.7499873e-01   6.5929494e-01   1.0013762e-01   3.1238389e-01   7.9222358e-01   2.7070086e-01  -1.0571803e-01   7.3992602e-02   1.4207461e-02  -3.0702754e-02  -1.4466593e-01   7.8424400e-01  -3.0944745e-01   1.7359071e-01   5.5404244e-01   1.4121160e-01  -8.8173266e-01  -4.0683899e-01   7.4481873e-01  -9.8969166e-01   5.2288264e-01  -8.5281933e-01  -3.0961976e-01  -5.4447933e-01   3.2255244e-01  -3.8622169e-01   2.0975151e-02   3.9357797e-01  -6.4847752e-01   7.2355201e-01   9.0299494e-01  -2.1495138e-02  -8.2620343e-01  -2.9252552e-01  -4.3431750e-01  -8.9089614e-01   5.0349565e-01  -9.7826848e-01  -5.7802040e-01  -1.1296191e-01  -3.7377655e-01   7.6845010e-01   7.5384154e-01   9.5578864e-01  -4.1133558e-03  -9.5614780e-02  -5.0892010e-01   7.2336874e-01  -3.6041923e-02  -5.1039633e-01   4.5881763e-01   8.6541035e-01   3.8125404e-01  -1.0427974e-01   4.3060210e-01  -3.4605387e-01  -9.5426061e-02  -6.4612964e-02  -2.2817535e-01  -3.5462371e-01  -1.0311047e-01  -3.2950654e-01  -7.6340047e-01  -5.3483576e-01  -4.0936276e-01  -6.5660571e-01   5.7697670e-01   7.7144461e-01  -1.7165670e-01  -7.0064019e-01  -5.8824169e-01   3.4236914e-01   4.5274075e-01  -8.3339877e-01   6.1318368e-01   6.6707595e-01   9.0076712e-01  -6.2475775e-02   6.3534057e-01  -3.5603072e-01  -5.4373369e-01  -8.2553694e-01   7.4530760e-01   5.8556797e-01  -3.8813451e-02  -6.5952218e-01  -6.5449829e-02   8.7856970e-01  -4.1470400e-02   8.7643299e-01  -2.8982144e-01   8.3572723e-01   8.2939867e-01   9.9139383e-01   2.1343681e-01  -7.2615460e-01   3.3746789e-01  -5.0966628e-01   4.3023119e-01   6.1028222e-01   9.8886641e-01  -5.3592031e-01  -4.0478000e-01  -1.4214546e-01  -7.4533861e-01   4.2406524e-01  -8.2006792e-01   3.3943580e-01   9.0257626e-01  -2.8386726e-01   6.7729592e-02  -7.0869923e-02  -9.3279585e-01  -9.8853826e-01   7.4528611e-01   5.7348698e-01   3.3530156e-01   7.2899008e-01   1.8412536e-01  -1.3364517e-01   9.5425485e-01   1.2960359e-01  -6.5122342e-01  -6.5391748e-01  -5.8277623e-01  -5.9793146e-01   8.4372999e-01  -3.2822781e-01  -9.8299727e-01  -1.0457975e-01   6.7200755e-01   6.8650016e-01  -8.0813613e-01   1.6397652e-01  -7.6951069e-01  -9.3696389e-01   4.4681393e-02  -6.9910436e-02   8.7028158e-01   2.9081603e-01   6.4582329e-01   2.8418013e-01   8.9305121e-02  -5.4567553e-01  -5.7467275e-01   1.1178608e-01  -2.4004244e-01   6.7202797e-01  -5.4964936e-02  -8.8866024e-01  -4.9546083e-01  -1.4133449e-01   3.9026079e-01  -3.4643269e-01   9.1852197e-02  -6.3521176e-01   4.1378231e-01  -2.3545377e-01   2.0217249e-01   3.9830569e-01   6.9310238e-01   2.6327135e-01  -6.3896401e-01  -2.1305345e-01   2.2012716e-01  -4.8312281e-01  -3.6361111e-01  -8.9683392e-01  -7.5414688e-01   7.9055305e-01   1.8717631e-02   3.1367861e-01   8.3082185e-01   2.3976433e-01  -7.9337565e-01  -9.3313997e-01  -5.0543580e-01  -8.9733159e-01   8.3484382e-01  -9.6711110e-01  -4.1399415e-01  -8.2300187e-01  -1.4548285e-01  -8.8029631e-01  -1.2160267e-01   5.2093046e-01   1.7332760e-01   7.4680803e-01   5.6212338e-01  -5.4612090e-01   8.0193395e-01  -1.5950576e-01   3.0625351e-01  -9.2980605e-01  -3.5050407e-01   8.1431677e-01  -4.9756278e-01  -2.5630216e-01   2.7234098e-01  -6.1469088e-01   2.3366472e-01  -2.8916300e-01   2.9008379e-01  -5.4017594e-01  -8.9450570e-01   4.3035402e-01   6.8290524e-01  -7.1866442e-01  -6.0066383e-01   8.3129155e-01   6.7048018e-01   8.3063415e-01  -9.6105786e-01  -4.6412254e-01   7.6432266e-01  -4.7374290e-02   8.2274882e-01   6.2071199e-01   9.7618706e-01  -2.5102821e-02  -9.1568634e-01  -6.5791758e-02   7.3642111e-01  -8.1392591e-01  -2.0657249e-01  -5.4679773e-01  -2.2210106e-01   6.9494271e-01   7.2279293e-01   7.8075297e-01   3.0937724e-01  -6.6461840e-01  -6.0097150e-01  -1.2523802e-02   1.0028528e-01   9.1679152e-02  -8.9571871e-01  -7.7614659e-01  -8.3493765e-01   2.1836748e-01   1.2402832e-01   2.4733338e-02   1.0688910e-01  -6.1412887e-02  -5.3515786e-01  -4.6280693e-01   5.3989381e-01  -8.9159486e-01   6.8077799e-01  -1.0821209e-01   7.6961826e-01  -6.9579127e-01  -2.1088405e-01  -7.0491483e-01  -7.6305121e-01  -6.3430595e-01  -5.9695451e-01   4.6966975e-01  -7.4128430e-01  -9.0384682e-01   3.4529571e-01  -9.6971956e-01   4.0698063e-01   6.1374220e-01  -7.1282346e-01   3.8218619e-01   6.8953394e-02  -7.9413346e-02   2.2014454e-01  -2.3625089e-01   7.2559607e-01   8.1173532e-01   2.5146875e-01   8.8250049e-01   9.2596169e-01  -3.0074059e-01  -8.9600189e-02   2.4391281e-01  -8.5962981e-01  -4.3763117e-01  -3.7717371e-01   9.5446785e-01  -9.5528164e-01  -7.4915949e-01  -9.0613926e-01  -8.9597333e-01  -4.6630148e-01   5.5696523e-01  -7.4348040e-01   5.3499595e-01   7.5263944e-01  -4.6822984e-01   9.1063167e-01   3.6124329e-01  -7.7073701e-01   9.4554702e-02   2.2775598e-01  -2.0810446e-01   7.6327646e-01   1.4105543e-02   2.4181385e-02   1.7616559e-01   4.4839580e-01  -3.7113676e-01   1.6761269e-01   9.2187570e-02  -6.5532169e-01  -3.6131757e-02   2.3872470e-01  -9.1739653e-01  -9.5226808e-01  -8.5380578e-01  -3.5700342e-01   6.3906091e-01  -9.6120846e-01  -8.9238405e-01  -4.6743127e-01  -4.3033878e-01  -9.9754219e-01  -3.5023976e-01   8.6784418e-01  -2.0667713e-01  -4.2481393e-01  -8.4890900e-01   5.7164143e-01  -7.8308263e-01  -6.9442069e-01   5.0687822e-02   6.9519761e-01  -8.9353188e-01  -3.2449039e-01   8.3047513e-01  -2.8781039e-01   6.4268755e-01  -2.0704440e-01   2.3441646e-01   3.9556115e-01   6.7831522e-01  -3.8084675e-01   2.3189209e-02   4.9004216e-01   3.8747621e-01   5.0452041e-02   6.8599202e-02  -1.0861539e-01   5.6119182e-01  -1.7640054e-01   6.9730455e-01   2.4615004e-01   1.6200572e-01   7.4014527e-01  -6.8456362e-01  -9.1141297e-01  -5.2770870e-02   4.1910665e-01  -3.4586718e-01  -9.8547307e-01   1.0779678e-01   3.2610273e-01   6.2317306e-01  -6.8284271e-01   4.5889417e-01  -1.0136826e-02   5.7916248e-03  -5.1055962e-02  -5.2899932e-01  -1.1078115e-01
  -9.2289213e-01   9.8632495e-01  -8.1590551e-01   7.4789466e-01  -7.8655781e-01   1.5629192e-01  -9.1706991e-01   7.3040482e-01  -5.5204086e-01   1.4229244e-02   6.3382187e-01  -4.7150647e-01  -1.6638621e-01  -2.6691608e-01   5.8339406e-01  -5.8260503e-02   6.7191862e-01  -3.3285022e-01   9.6288234e-02   5.3711668e-01  -5.2023534e-01   1.7662507e-01  -9.8758999e-01  -4.9765205e-01  -3.7237217e-01   5.3815686e-02   4.3389084e-01   3.6246662e-01   3.0770521e-01  -8.4871888e-01  -2.6700144e-01   2.5610421e-01  -8.2445556e-01  -5.9790998e-01  -9.9055429e-02   3.1435486e-01  -3.3553106e-01  -7.3080348e-02   4.0614699e-01  -9.5038170e-01  -1.8769776e-01  -5.0945488e-02  -4.2460935e-01  -7.0965996e-01  -4.6498974e-01  -3.2900184e-01   2.5057556e-01  -5.6298124e-02  -7.9599874e-01   2.8923222e-01   5.5118011e-01  -2.4071594e-01   3.1355954e-02  -4.0214038e-01  -9.1743309e-02   6.5956603e-02  -9.6151551e-01  -6.4382265e-01   8.2308915e-01  -2.6527824e-01  -3.4684071e-01   8.6500337e-01  -9.6544497e-01  -4.9421872e-01  -3.2067880e-01   9.5904982e-01  -2.8439648e-01   3.7250346e-01  -9.5702166e-01   6.5841851e-01  -4.3467211e-01   1.5838239e-02  -5.5170439e-02   8.7845798e-01   1.8453284e-01  -3.2417855e-01   1.4978130e-01  -2.4034313e-01   6.1424803e-01   6.7228573e-01   1.8016000e-01  -3.6239528e-01   1.7371920e-01   8.9005342e-01  -4.4965547e-01  -8.1858124e-01  -5.6613317e-01   8.8952538e-01   8.8235325e-01   1.7168488e-01   9.9171345e-01   5.7550013e-01  -2.5362607e-01  -2.5220270e-01  -6.0552003e-01  -1.8696011e-01   8.9191736e-01  -6.3856705e-01   8.9774586e-02  -1.0432703e-01   9.4203956e-01   6.2910857e-01   2.5134927e-01  -1.5873898e-02  -7.0659043e-02   5.7659807e-01  -6.4274552e-01   4.2270560e-01   2.5210045e-01  -8.6521442e-01  -4.0274698e-01  -7.2477020e-01  -2.9873841e-01  -3.3856292e-01  -5.2974587e-01  -5.3862302e-01   7.4554405e-02   4.4242781e-01   7.3874249e-01  -3.4538786e-01   8.9338723e-01   7.3886295e-01   2.3820164e-01  -7.2489381e-01   9.3843018e-01  -5.0695059e-01   9.7238446e-01  -8.2923191e-01  -1.8811303e-01   1.4669558e-01  -5.7892721e-02  -8.5331647e-01   4.2978480e-02  -9.6290411e-01   2.2895049e-01   9.8017561e-02   6.5287253e-01  -7.4205639e-01  -6.0075978e-02   2.4824692e-01  -3.9795982e-01   3.2055517e-01   8.9384650e-01  -4.7786548e-01   4.5964223e-01   7.5200887e-01  -5.1543507e-01   3.6059599e-01  -9.1577751e-03   8.1070668e-01  -7.4440595e-01  -3.9005672e-01   6.1142421e-01   2.2975022e-01  -7.2968657e-01   1.0723034e-01  -2.9855564e-01  -4.2639255e-01  -7.9712163e-01  -5.9425167e-01   4.8101588e-01  -7.3835123e-01  -7.9784058e-01  -4.4950290e-01  -7.8233038e-01   5.9527333e-01   8.0071896e-01  -3.8184886e-01   4.4973236e-01   6.3543354e-01   3.4866901e-01  -4.0173659e-02  -7.4925270e-03  -8.1491699e-01   8.9910095e-01   4.5330783e-01  -4.6362326e-01   5.0074621e-01   7.8918780e-01   4.3840246e-01   5.8206766e-01  -3.0762511e-01   1.2950892e-01   4.0033366e-02  -4.8318136e-01   5.2516060e-01   2.5165059e-01  -3.1438314e-01   9.2499047e-01   7.0072791e-01   1.8774239e-01  -9.5737780e-01   8.7185554e-01  -6.2198113e-01  -8.0251110e-01  -5.3344270e-01   5.2605876e-01  -4.4279435e-01   1.8122122e-01  -7.6528764e-01   4.9682532e-01  -8.4503192e-01  -7.5272289e-01   6.5949700e-02  -7.2521773e-01  -8.4729621e-01   6.1262143e-01  -6.8743569e-01  -8.2046483e-01   3.8557743e-01   1.9527518e-01   3.9598148e-01   2.2375435e-01   3.4795103e-02  -4.9349221e-01  -6.7089858e-01   4.2745520e-01  -4.9645351e-01  -7.2299670e-01   6.1220287e-01  -3.5122841e-01   6.9942164e-01   8.8142115e-01  -1.9415637e-01  -3.9871842e-01  -2.4643191e-02  -6.7886954e-01   5.2357769e-01  -6.3336142e-01   2.2921465e-01  -7.5224702e-01   3.7532251e-01  -5.2148379e-01   1.0974976e-01   7.2604027e-01  -7.4460446e-01  -2.2197465e-02   8.1649942e-01  -5.3841393e-02   1.3272063e-01   3.0687283e-01   6.1875494e-01  -8.5362566e-01   7.5920295e-01   6.5709124e-01   1.7915011e-01  -7.1981415e-01  -8.5030952e-01   3.8052701e-02   8.8281997e-02  -8.2685866e-01   6.2114556e-01   6.1540569e-01   5.4558203e-01  -3.5127265e-01   8.9807094e-01  -5.2610118e-01  -2.8939871e-01   6.0928600e-01  -2.1079710e-01  -1.2544195e-01   8.2301280e-01   6.8182255e-01  -3.7370145e-02   8.6565423e-01   5.1113838e-01   9.1587396e-02   1.1642476e-01  -2.8633171e-01  -1.7262683e-01  -7.2624994e-02   3.3424904e-01  -5.0835523e-01   5.9026322e-01   7.9653057e-01   5.1858138e-01  -9.1489952e-02  -3.7630005e-01  -8.1959498e-01  -1.8941931e-01  -5.3157955e-02   2.6519138e-01   4.1073069e-01   7.1973864e-01   7.7896468e-01  -6.1414759e-01   6.7494176e-01   2.2015828e-01  -1.8799015e-01  -9.8461166e-01  -7.9459788e-03  -8.5853829e-01  -4.6054601e-02  -9.8350477e-01   8.5806646e-02  -8.2249922e-01   3.2023832e-01  -7.0157992e-01   6.4161450e-02   9.9749643e-01   9.5025733e-01   9.1509835e-01   2.1752605e-01  -8.4647022e-01   6.6402432e-01   3.4016761e-01   7.5278529e-01  -3.8788352e-02   9.7754260e-01   9.7297943e-01   3.9933128e-01  -2.7623243e-01  -8.5516016e-01   5.3328140e-01  -6.1857805e-01   1.1813025e-01  -4.1126858e-01   5.9891941e-01   7.2699117e-01   2.1114212e-01  -1.2880572e-01  -7.5360412e-01   5.2881661e-01   4.9794606e-01   5.3022995e-01   3.3872605e-01   4.5196004e-02  -4.2167218e-01   3.4996855e-01   7.9808210e-01  -6.2236249e-01   3.4511482e-01   1.5795224e-01  -6.7469018e-02   7.5132792e-01   2.6109072e-01   8.6298518e-01  -8.1275982e-01   4.9899076e-01  -8.6342007e-02   4.7087420e-01   4.3741022e-01  -2.9379138e-01  -8.5360577e-01   6.0946219e-01  -3.1907594e-01  -6.1853343e-01   9.2057463e-01   2.6293593e-01  -5.8872541e-01  -4.6098258e-01   6.6166580e-01  -7.6384611e-01  -7.4504437e-01   1.6505786e-01   6.9630822e-01   1.1193460e-01  -7.5887125e-01   9.0976888e-01  -7.1317389e-01   4.1662388e-01   1.0864371e-01  -9.1924637e-01  -5.3250167e-01  -5.5086836e-01   6.9622122e-01   6.2627417e-01  -7.4068615e-01  -1.4395708e-01  -9.6200545e-01   1.1153534e-01   5.8252727e-01  -3.8934235e-01   3.3770469e-01  -4.8814188e-01   2.9002092e-01  -6.2375894e-01  -7.4497021e-01   5.3538449e-01   2.9772929e-01   5.7043409e-01  -9.4933206e-02  -9.1815804e-01  -5.7207144e-01   2.4362128e-01   6.5145018e-01   4.1705035e-01  -3.1167697e-01  -6.1578011e-01  -9.3659044e-01  -6.2978976e-01  -4.7628574e-01   5.8976678e-01   7.9622050e-01   7.8367316e-01   1.0201407e-01  -8.5829135e-01  -1.4159000e-01   5.4155869e-01  -1.2943898e-02   8.8163229e-01  -8.5292778e-01  -3.1051395e-01   5.7864750e-01   2.7539607e-01   5.2234573e-01  -1.5893502e-01  -1.7180652e-01   5.0522172e-01   9.6665324e-01  -6.5002927e-01   1.3408314e-01   9.1924309e-01   2.8013193e-01   7.3564173e-01   2.6749329e-01  -6.7537416e-01  -4.0075028e-01   7.7580264e-01   8.9261629e-01  -1.5371494e-03  -8.5093985e-01   8.9350602e-01   4.4747719e-01  -4.8501908e-01   1.5318906e-02  -5.6374013e-01  -8.8679870e-01  -5.5332406e-01  -5.2650362e-01  -7.9216830e-01  -9.5970725e-01  -2.4239839e-01   3.8791507e-01  -3.7583880e-01  -7.5360181e-01  -7.9992906e-01   3.2713998e-01  -8.9707056e-01   5.6227062e-01  -6.8188856e-01   7.5412871e-01  -2.0326827e-01   6.9144258e-01  -1.4096809e-02   3.3376596e-01  -1.7059834e-01   7.1732949e-03  -3.4896896e-01  -6.3092881e-01   9.6174534e-01   5.2268991e-01   6.6591069e-01  -6.9528030e-01   8.7172939e-01  -5.6450004e-01  -9.9324657e-02  -7.2336571e-01   7.5892676e-01   7.7215498e-01   2.5903894e-01  -1.2416367e-01  -6.5179220e-01  -2.6926294e-01   6.6880953e-01  -6.8393962e-01  -4.3935118e-01   8.2188484e-01   6.0067841e-01   6.9192364e-01  -5.4254367e-02   2.1753649e-01  -7.1811767e-01  -4.2970565e-01   8.5563336e-01   8.3452226e-01   9.9510343e-01  -4.0295136e-02  -3.3545234e-01   8.4090909e-01   9.0641659e-01   9.1434636e-01  -5.0163122e-01  -4.8508473e-01  -7.6227173e-01  -6.4129442e-01   2.5562882e-01   4.5933467e-01   5.0276984e-01   9.3335552e-01   1.5582955e-01  -5.5173344e-01  -8.4153391e-01  -7.1170241e-01   8.7134565e-02   2.2572145e-01   8.7381328e-01  -8.0047329e-01   2.8460353e-01   8.0766117e-01   4.7600801e-01  -4.7896091e-01  -3.1327734e-01  -7.6641113e-01   3.5776422e-01   6.0478900e-01  -5.5538418e-01   8.8800124e-01  -1.5525675e-01  -8.4397348e-01   1.9425882e-01  -3.5260746e-01  -6.0978105e-03  -2.0710866e-01  -4.8555889e-01   9.7026913e-01  -6.9717483e-01   8.8817118e-01  -5.3753539e-01   3.6140824e-01   8.3751265e-01  -6.7473096e-01  -7.6357799e-01   1.8750015e-01   6.2765611e-01   2.4829876e-01   9.0029855e-02   1.5498029e-01   8.6159372e-01  -2.1245797e-01   3.2679667e-01  -2.6132686e-01   5.0071211e-01  -8.1524524e-01  -1.5402351e-01   2.7948789e-01  -9.1077359e-02   6.1098844e-01   4.3936751e-02   5.6884276e-01   3.0765405e-01  -3.6718915e-01   4.7407030e-01  -9.1125964e-02   7.6409940e-01  -9.9939339e-01   7.0533989e-01  -4.9622623e-01   8.0086361e-01   9.4428791e-01   1.8480157e-01   7.1121410e-01  -6.3145055e-02  -4.0996241e-01   5.0849984e-01  -7.6906568e-01   4.4620783e-01  -2.9026573e-01  -9.8604063e-01  -9.6737092e-02  -9.7819369e-01   1.3473143e-01   2.7481704e-01  -8.2125901e-01  -9.7806381e-01  -2.6884919e-01   3.9081885e-01   3.9262472e-01   6.1956121e-01  -2.4971525e-01   8.1996156e-01  -5.6900167e-01   4.0238489e-01   3.3000235e-01  -9.3405742e-02   1.6828577e-01  -1.3864539e-01   1.2253736e-01  -1.0164877e-01  -3.5330975e-01   7.8708609e-01  -5.2368677e-03   5.4758979e-02   2.4259932e-01  -5.0772356e-02  -2.7380393e-01  -3.8031679e-01   3.2713314e-02   8.8581403e-01  -2.1293156e-01  -6.6540274e-01   9.8863344e-01   6.5658157e-01  -2.5009740e-01   7.8531102e-01   5.7912915e-01  -8.2040850e-01   1.7051127e-01  -1.2164861e-01  -3.7043798e-01   1.9547959e-01   1.8499255e-01  -6.8689603e-01  -4.5109786e-01   8.3329051e-01   8.8142921e-01  -9.9039731e-01   3.7788308e-02  -2.3954563e-02  -1.8548691e-01  -6.8758552e-01   7.7305451e-01  -1.9238342e-01  -6.2361367e-01   9.7500865e-01   5.1309188e-01  -6.6759840e-02   3.7409130e-01   4.7900733e-01   2.5657845e-02  -7.9637399e-01   6.4943031e-01   7.5187515e-01  -3.3129083e-01   6.8598347e-01  -2.0835244e-01  -2.7149647e-01  -8.7687844e-01   8.9140243e-01   7.9443936e-01   6.5109092e-01  -5.1140915e-01   8.7693170e-01  -6.4948972e-01  -6.2952601e-01   4.5228926e-01   2.0607021e-01  -9.7863616e-01  -2.7411555e-02  -5.1635564e-02  -7.0425271e-01   8.3563916e-01   3.2064754e-01   4.0824080e-01  -8.4554086e-01  -9.5622466e-01  -2.8629900e-01  -6.3078856e-01   1.8227938e-01   7.9919501e-01   2.0423694e-01   3.9452584e-01   7.5096690e-01   6.3400672e-01  -2.6608088e-01   9.5187968e-01   6.0748831e-02   7.7685832e-01   1.1143097e-01  -8.9438618e-01   8.0995390e-01   7.5431347e-02   1.4453790e-01   7.5113053e-01  -2.8634337e-01   2.3151535e-01  -1.8946127e-01   7.8913067e-01   5.5471925e-01   7.3047378e-01  -8.0335227e-01   8.0314929e-01  -1.3223823e-01  -8.3678772e-01   8.8936896e-01  -6.6311436e-02   8.2118444e-01  -9.0161151e-02  -6.7614345e-01  -4.5014121e-01   6.5962385e-01  -6.1121730e-01  -7.7512733e-01  -3.0100592e-01  -3.9774694e-01  -7.8267111e-01  -7.0818313e-01   5.3697077e-01   1.8390868e-01   5.4765575e-01   8.4259657e-01   1.6944044e-01   3.3553845e-01   2.4850664e-01  -6.9994338e-01  -8.9293607e-02   6.4413964e-01   9.2900339e-01   7.1756354e-01   5.7050600e-01  -8.1649373e-01  -6.4802177e-01  -6.2733172e-01  -9.7707068e-01  -5.4395083e-01  -7.8272001e-02  -6.3018264e-01   7.8855528e-01  -7.3235285e-01   3.4700012e-01  -9.9794758e-02   4.6740089e-01   6.1222365e-01  -2.6412644e-01  -5.5752959e-01  -4.3965131e-01   6.7401459e-01   2.6064271e-01  -8.7969428e-01   5.1878078e-01   3.4598972e-01  -3.7200785e-01   8.5434936e-01  -5.4926855e-01   8.5984551e-01   6.5740608e-01  -4.7080035e-01   8.0009153e-01   4.8108114e-02   4.2118129e-01  -3.1519782e-01  -2.7722034e-01  -9.9377553e-01   9.1647274e-01   9.8492211e-01   4.5299958e-01   4.6255159e-01  -4.6675338e-01  -3.7530008e-01  -6.7389383e-01   9.4300713e-01  -4.7408032e-01  -1.2094784e-01  -9.4403276e-01  -1.3789751e-01   2.6652987e-02  -3.2258542e-01   4.4144481e-01   9.1005164e-01  -8.7451061e-01  -9.9224501e-01   8.5236033e-01   5.1084879e-01  -2.6898445e-01   8.1854683e-01   2.1399969e-02  -3.3022537e-01   6.3931090e-01  -3.8353111e-01   9.4679830e-01   1.6257002e-02  -7.4992851e-01  -4.2221965e-01  -9.0788349e-02   7.2752987e-01   6.2374872e-01   7.2801283e-01   9.0222511e-01  -8.5393745e-01   6.4569838e-01  -2.5691370e-01   3.6690972e-01   2.4722820e-01   5.1289091e-02  -5.9329192e-01   1.4409076e-01   1.7570847e-01  -5.4350876e-02   4.2904160e-01  -7.8220456e-01   9.8939125e-01   2.2712413e-01   6.3777453e-01   5.7627802e-01  -4.4560141e-01  -9.1003694e-01  -8.8621289e-01  -4.1016808e-01  -5.8498907e-01  -8.3818477e-01  -9.5999123e-01  -8.1788443e-01   3.9512365e-01  -5.1702111e-01   8.9141797e-01  -7.3752383e-01   6.8950602e-01   2.5496755e-01   6.2661993e-01  -6.0505071e-01   4.2328393e-01  -9.4392819e-01   9.4482831e-01  -5.0288087e-01   9.5949696e-01  -5.0582972e-01  -6.1666274e-01  -5.9652026e-02   1.8487087e-01  -3.6252413e-01  -5.6738805e-01  -5.3514309e-01  -2.5697807e-01   7.7007227e-01  -5.6581126e-01   1.8151430e-01   3.8612590e-02   5.4584182e-01  -2.1193025e-01   2.6765393e-01   9.3505978e-02  -7.7126185e-02  -3.3782958e-01  -8.6876058e-01   6.3528123e-01  -8.8461987e-01  -2.0979245e-01   9.1187105e-01  -9.0756979e-01   5.9130233e-01   7.5875239e-01  -7.8092180e-01   4.6824511e-01  -5.7198401e-01  -2.5197854e-01   9.6731458e-01   7.5613222e-01  -6.8586365e-01   1.8661809e-01   2.7774100e-01   1.7839087e-01   8.0886628e-01   5.2230386e-01   4.3449978e-01   5.1108923e-01   3.6195640e-02  -4.9106475e-01   2.5808921e-01   4.7947869e-01   6.7541379e-01  -9.0284581e-01  -3.7465626e-01   3.9388563e-01   5.8467762e-01   7.7004580e-01  -1.5269553e-01   2.6256333e-01   1.1296475e-01   5.0080690e-01   5.2137644e-01  -4.7740922e-01   1.1872653e-01  -3.0000101e-01   2.7564150e-01  -5.2256766e-02   4.6597873e-01  -7.8732440e-01   1.2770096e-01  -1.8419308e-02  -7.0314848e-01   4.5408689e-01  -2.7279672e-01  -7.8460364e-01   4.4269478e-01   8.9826678e-01   9.9384821e-01   8.3805409e-01   2.4941018e-01   6.3806649e-01  -4.8960068e-01   2.4321799e-01   5.4796919e-01  -2.2617578e-01   7.2097099e-01   6.1438825e-02   2.8400795e-01   8.7694524e-01  -5.2103664e-01   2.0564165e-01   8.6221133e-02  -3.1649444e-01  -2.0696667e-01   8.9335872e-01   3.5280631e-01   9.1982555e-01   6.7256722e-01  -2.9891996e-01  -8.5723822e-01   2.5244262e-01   7.3773761e-01  -1.4077527e-01   8.7597844e-01  -7.9295876e-01   8.2913708e-02  -2.6756869e-01   2.3242934e-01  -8.7086546e-02   7.7661418e-02  -6.8399923e-02  -1.9502985e-01  -3.8544708e-01   7.7919659e-02  -4.5587192e-01   4.0676657e-01  -6.8189994e-01   1.5294152e-01   7.6973974e-01  -1.1186196e-01  -2.1962262e-01  -9.9744316e-01   2.4202362e-01  -4.0963194e-02  -2.3369160e-01  -6.3549968e-01   6.2925215e-02   4.5446670e-01   3.5016880e-01  -2.1823013e-01   7.4341179e-02   7.1483442e-01   9.9765134e-01   6.1853399e-01  -2.5822244e-01  -3.9728053e-01   9.9741648e-02  -3.0849850e-02  -6.2776833e-01   9.8187839e-01  -8.3584954e-01   3.0899148e-01   1.5279638e-01  -9.2889379e-01  -9.8386027e-01   6.2665432e-01   8.1914841e-01   9.4451335e-01  -4.3436493e-01  -3.3725809e-01  -6.5601075e-01  -6.5349934e-01   6.6779234e-01   4.2112295e-01   7.1162121e-01   5.6939701e-01  -2.7410438e-01  -7.8324043e-03   7.9796550e-01   4.8857923e-01   8.6716099e-01  -5.8589534e-01  -8.6297396e-01  -1.4872351e-01  -1.6527019e-01   2.2504806e-01   3.4789897e-01   8.1340112e-01  -3.8664641e-01  -3.4216436e-01  -2.9832463e-01   7.4950219e-01  -4.7200135e-01  -3.5910950e-01  -8.5807260e-01  -8.4258545e-01   1.1528761e-01   6.7010681e-01  -9.9636715e-01  -7.6910615e-02   3.4171917e-01  -2.0349964e-01   3.1120474e-01   4.0128896e-01  -1.8830972e-02  -9.4802417e-01  -2.9536510e-02   4.2129274e-01  -8.0412562e-02  -8.6505339e-01  -4.2735766e-01  -2.9948253e-01  -9.0592049e-01   5.8136591e-01   6.9178511e-01   9.7416204e-01   9.0068965e-02   9.9100191e-01  -5.2199206e-01  -8.7102091e-01  -6.6516041e-01   6.7779613e-01
  -3.6019143e-01  -8.9035829e-02  -1.8753085e-03  -4.9075890e-01   9.5617423e-01   2.8618948e-01   4.3396888e-02   6.9095724e-02  -7.1173763e-01   7.0674564e-01  -4.0768354e-01  -1.0614634e-01   2.0845705e-01  -3.4338884e-01   7.2864980e-01   8.2518220e-01  -9.2783358e-01  -9.2108990e-01  -1.9364978e-01  -8.2388168e-01   5.3456884e-01  -9.4956892e-01  -4.8399325e-01  -5.2417413e-01  -7.3582141e-01   8.1308224e-01  -7.1890695e-01  -8.5410320e-02  -1.0443530e-01  -9.0919190e-01  -2.3010019e-01   7.1534310e-02  -9.1689356e-01   7.3393197e-01  -6.2107141e-01   6.9830397e-01  -5.2047506e-01   7.8284897e-01   6.5911053e-01  -4.7503968e-01  -8.2225733e-01   3.6250607e-01  -4.0692244e-01  -1.9998451e-01   3.3442853e-01   9.9458624e-01  -4.1544605e-02  -4.8956302e-01  -3.5768450e-02   2.8893778e-01  -2.1526088e-01  -6.4392440e-01  -6.5409967e-01  -1.3741364e-01  -6.2512560e-01  -3.3301259e-02   8.1613367e-02  -9.6024775e-02  -7.4330352e-02   8.7110464e-01   2.5226759e-01   5.9516052e-01  -5.9876290e-01   1.7828967e-01   9.0069224e-01  -8.6030009e-01  -1.2307677e-01  -1.2539027e-01  -4.9221974e-01   5.8291455e-01  -1.2990101e-01  -2.4061179e-03  -4.1294953e-01  -7.1952429e-01   2.3528544e-01   9.6357465e-01  -3.5551416e-01  -4.6358693e-01  -7.2045666e-01   2.7859551e-02  -6.1870269e-01  -9.3873098e-01  -4.9692722e-02  -7.5518412e-01   2.3517987e-01  -6.8159249e-01  -7.7786097e-01   4.1183259e-02   9.2599120e-02   6.4871411e-01   6.0924644e-01  -4.9216269e-01  -2.8878418e-02  -7.7520980e-01   7.6149352e-01   4.2927742e-01   2.3500647e-02  -4.4855700e-01  -2.7340952e-01   9.9483884e-01   2.0753190e-01  -4.0022753e-01   9.7389056e-01  -9.1942358e-01  -7.4701076e-01  -3.4792236e-01   7.7903335e-01   2.4903737e-01   8.9622011e-01   1.6512175e-01   6.5787625e-01   1.4786228e-01  -1.4891720e-01   3.2426654e-01   5.8068057e-01  -7.9068849e-01   7.1150549e-01  -1.5812415e-03   1.8601482e-01  -4.0327188e-01  -4.6043605e-01  -4.1894254e-02  -7.6652565e-01  -3.2007625e-01  -2.8227302e-01  -9.6524365e-01  -7.6279941e-01  -1.7601415e-01  -8.6474290e-01  -2.9438123e-01  -5.0795812e-01  -7.6147203e-01  -4.9405954e-01  -5.4371025e-01  -3.2013546e-01   5.8848878e-01   7.9629579e-01   8.0945153e-01  -2.1561685e-02  -5.8734617e-01  -3.1830258e-01   7.2138157e-01   1.1003119e-01  -2.7047696e-02  -3.1072170e-01   3.6371752e-01  -4.9370559e-01   6.6232535e-01  -9.5941818e-01  -9.6118198e-01   5.7924659e-01   6.3463220e-01  -6.2407032e-01   6.0096144e-01  -6.2735446e-01   1.0221026e-01  -7.5816963e-01  -3.6810081e-01  -3.2475527e-01   7.2063964e-01  -9.8842177e-01  -9.8134613e-01   8.3974606e-01  -2.4753012e-01  -3.9875854e-02  -4.9403001e-03  -7.5799537e-01   5.2638334e-01   6.1949665e-01  -4.6078437e-01   6.6859412e-01  -3.4995146e-01  -7.8492710e-01  -3.1852508e-01   1.3403877e-01   4.3880503e-01   5.1388831e-01  -8.1836778e-01   8.0399662e-01  -2.6221257e-01  -2.4459966e-01  -3.8153028e-02   2.5904272e-01   3.2590574e-01   1.7446309e-01  -8.2205825e-01   6.8384465e-01  -1.0232775e-01   3.6234839e-01   3.3768099e-01   7.3266641e-01  -1.8428892e-01  -1.4516661e-01   8.1653007e-01   3.6365868e-01  -1.3092116e-01  -8.6378973e-01  -4.0611034e-01  -8.1151697e-01   5.5608518e-01  -5.2626398e-01  -5.1374523e-01   8.1313460e-01   5.5950214e-01  -2.7285304e-01   8.9786780e-01  -4.5945386e-01  -6.3771026e-02  -9.1699084e-02  -5.8348752e-01   2.8442317e-01   5.1564653e-01  -1.0384821e-01  -3.0320630e-01   7.9656550e-01   6.5867766e-01   1.9401849e-01  -6.9497948e-01  -3.3640320e-01   7.0301161e-01  -7.2604623e-01  -9.1336717e-01  -3.4114062e-01  -3.3106991e-01  -3.4217623e-01  -6.8874014e-01  -5.7237544e-01   8.3881461e-01  -4.2443751e-02   7.1277183e-01  -7.2057584e-01   7.2706859e-01   5.3806152e-01   3.4398142e-02   6.6296648e-01  -5.1687762e-02   7.5774853e-01   5.9733851e-01   7.3345602e-01   1.9052684e-01  -6.2164918e-02  -1.5152519e-01   1.3932795e-02   1.5511983e-02  -7.6108551e-01  -1.6623362e-01  -2.1109777e-01  -2.2374571e-01   9.2283526e-01  -7.9464050e-01   5.4086756e-01   6.5624160e-01   2.2804407e-01   4.7456777e-02   4.9425152e-01  -3.9563956e-01   6.5084979e-01   5.3021148e-01   9.0902858e-01  -6.0181760e-01  -8.6933627e-01  -8.5709443e-01   4.3298166e-01   5.1981877e-01  -1.1238290e-01  -8.2231932e-01   8.9995778e-01   5.4858174e-01   9.6582681e-01  -9.9472138e-01  -3.7574391e-01  -9.8909666e-01   1.4790770e-01   4.6691519e-01   8.8212998e-01  -7.0967084e-01  -9.7921260e-01  -1.3417746e-01  -5.5203314e-03   7.7313548e-02   6.1286909e-01  -1.4425636e-02  -7.4987531e-01   3.0456599e-01  -6.0095297e-01  -7.7039625e-01   8.4391445e-01   9.7408824e-01  -3.2780006e-02   4.0019557e-01   8.2897209e-01  -1.4187492e-01   4.7931147e-01   9.4105582e-01  -5.5428852e-01   6.3882432e-01  -3.5838168e-01  -4.4429598e-01  -7.4096529e-01  -8.8993916e-01  -9.7670935e-01   2.1794435e-01   2.5673939e-01   5.6170066e-01   7.2138978e-02  -2.6640023e-01  -9.4130698e-01  -4.1469568e-01  -9.4829729e-01  -2.1122483e-01   2.4709779e-01  -8.1092083e-01  -7.7643576e-01   3.4179006e-02   3.7787199e-01  -7.1043229e-01   4.0793344e-01   3.1835533e-01   1.5416159e-01  -5.6130558e-01   1.3121966e-01  -3.3519081e-01   6.5748994e-02  -5.0820824e-01  -7.7759501e-01  -7.9638434e-01  -2.2801181e-01  -2.3457236e-01  -9.9920588e-01  -1.2671739e-01  -7.0858254e-01  -8.9063711e-01   9.7581899e-01  -6.2622921e-01  -4.4721961e-01  -3.1356003e-01  -6.9866821e-01  -7.1855018e-01  -6.3380684e-01   8.0241868e-01   4.3513337e-01  -3.8282708e-01  -3.7914542e-01   8.4585683e-01   9.0959217e-01   2.1852751e-01  -8.9087076e-02  -8.9078050e-01  -6.1419481e-01   6.3831300e-01  -4.8290831e-01   9.7977833e-02  -1.1076907e-01  -6.8577541e-01  -3.6084433e-01  -5.2861902e-01  -8.1900676e-01   1.2377411e-01   1.3272418e-01  -8.4632057e-01  -9.8935927e-01   7.4507027e-01  -5.5105613e-01   1.6019583e-01  -7.2137807e-01   9.6715892e-01   4.2489607e-01   1.4167718e-01   5.0478038e-01  -1.8878990e-01   1.5208278e-01   8.0908971e-01   3.4929768e-01  -2.7627762e-01   2.1967237e-01  -6.0454464e-01  -7.8916189e-01  -6.3515768e-01   3.7199537e-01   8.8289085e-01   3.4735356e-01  -1.8537133e-01   9.0322759e-01  -7.9777317e-01  -3.3760901e-01   9.5009682e-01  -5.1227894e-01   6.8568549e-01   2.1885884e-01   9.3074829e-01  -2.3950945e-01  -4.7923320e-01   8.9117960e-01  -7.2301937e-01   9.9325437e-01  -9.4367880e-01  -9.4261019e-02  -5.1633853e-01  -8.2623104e-01   5.5241903e-02   8.8150506e-02  -7.4813352e-01  -3.5331078e-01   6.4634348e-01   5.3500942e-01  -4.6964306e-03   5.5979898e-01   2.6270302e-01   3.6876272e-02  -2.3244212e-01   7.5807804e-01   1.3866313e-01  -2.2757712e-01   1.5357494e-01   4.2892161e-01  -7.6379767e-01  -2.3405180e-02   7.1222705e-01  -9.9462086e-01   2.7921456e-01  -3.9941915e-01  -5.7314274e-02  -2.8815956e-01  -9.1113001e-01   3.3986456e-01   5.0774684e-01   2.3749159e-01   3.7140664e-01   7.3802353e-01  -9.8853891e-01  -7.4180570e-03   4.7836153e-01   1.6545799e-01   7.0057446e-02   6.9129848e-02   3.2008733e-01  -1.4201792e-01   8.7703756e-01   8.2817948e-01   9.5142610e-01   6.8037938e-01  -2.5302168e-01   7.3077834e-01   4.9104472e-01   6.9296953e-01   1.3953692e-02  -6.3427181e-01  -7.7888306e-01  -3.8483487e-01  -6.0116455e-01  -6.8667484e-01  -5.0036279e-01   1.6812978e-01  -6.3344878e-01   3.6818236e-02   4.2428748e-01   4.1430035e-01   1.2084980e-02   5.6625080e-01   1.3316516e-02   3.4181551e-01  -4.4234586e-01   3.9644837e-01   9.0457236e-01   7.0464534e-01  -7.7939815e-01   5.6282605e-01   3.9645526e-01  -2.0953326e-01   3.9359444e-01  -5.3997020e-01   6.8932005e-01   5.8600269e-01   2.3908129e-01   9.1415719e-01  -6.5998306e-02   3.2325415e-02   1.9569807e-01  -7.2716009e-01   8.6386398e-01  -3.6188622e-01  -2.6889858e-02  -8.2052095e-01   2.3515919e-01   5.4637081e-01   9.4221208e-01   7.9884628e-01   6.2665977e-01   8.3656580e-01  -9.7136781e-01  -5.4384104e-02  -6.1956879e-01   3.3589790e-01   8.7398879e-01   6.8659672e-01  -3.5992737e-01  -4.8175299e-01   7.4278198e-01  -1.6644686e-01   1.6980618e-01  -3.5634863e-01  -2.4692800e-01  -9.0403353e-01   7.6790850e-01  -2.8681326e-01  -2.7218763e-01  -7.4997811e-01  -7.4261577e-01  -7.8503872e-01   2.3179942e-01  -9.4691622e-01   5.0159836e-01  -3.1936764e-01  -6.4887360e-01  -5.4469417e-01   9.6527182e-01   7.0214738e-02   3.1907842e-01   1.9844024e-01   6.5903815e-01  -7.7744545e-02   4.7047787e-01   3.7991328e-01   1.8382635e-01  -5.2045755e-02  -9.2919975e-02   2.6269862e-01   4.2454841e-01  -8.7422888e-01  -1.0104799e-01   5.3906986e-01  -6.5726478e-01   1.8858965e-02   3.0525094e-01  -3.7226243e-01  -2.4817438e-01  -2.5337380e-01  -9.6833861e-01   4.6425107e-01   6.0523736e-02  -2.7984974e-01   9.1163683e-01   4.9740081e-01   1.3172316e-02  -7.9503653e-01  -8.4570727e-02   2.9958749e-01  -8.0155205e-02  -8.6459565e-01  -5.7594147e-01  -2.8967293e-01  -6.4903581e-01   6.0920134e-01   7.6262200e-01  -4.1741878e-01  -4.9747897e-01   8.4503638e-01   9.2819784e-01   8.0966957e-01  -7.2890120e-01  -8.1361500e-01   4.2584644e-01  -1.2747744e-01   5.6141549e-01   9.8099510e-01   3.3453442e-01  -1.4043256e-01  -6.1332315e-01   9.9839249e-01   3.4114684e-01   6.5800240e-01  -8.0629638e-01  -3.9180694e-01   4.0136013e-01   8.3829906e-01  -2.2264178e-01   9.9607691e-01   5.8880736e-01   1.0603873e-01  -9.9298786e-01  -7.0380389e-01   8.3448525e-01  -4.8128538e-01  -9.5878774e-02   5.4884488e-01   7.7444929e-01  -2.9896404e-01  -6.1727832e-01   6.7771694e-01   4.5797530e-01  -2.7873763e-03  -8.9162890e-01   1.4117973e-01   2.1034742e-02   4.5962025e-01  -2.6749047e-01   9.5676541e-01   6.9535082e-01   6.5123503e-02  -9.9079366e-01   5.5407827e-01   9.3610398e-01  -4.3504676e-01  -1.3032557e-01  -6.9724367e-01  -3.9839126e-01   9.6159937e-01   1.2495074e-02   3.2952183e-01   4.1234557e-01  -4.6636044e-01  -5.7373349e-01   6.9126959e-01   3.1639532e-01  -9.2366665e-01   6.6007052e-01   2.0544747e-01  -5.7288050e-02   1.1971951e-01   7.0409278e-01  -8.2372273e-01  -7.4725313e-01   7.4851876e-01   3.1884790e-01  -7.8618715e-01  -5.6098051e-01  -1.0853313e-01   6.9768929e-01   6.5258924e-01  -1.5695195e-01   3.0069043e-01  -6.5336020e-01  -5.6357488e-01  -3.2372149e-01  -7.4732304e-01  -4.5285014e-01  -3.1958111e-01  -5.4799126e-01  -5.2097576e-01  -3.0787110e-01  -6.8198261e-01  -3.3453977e-01  -6.2223955e-01  -2.0431936e-01   7.3762737e-01   5.0275797e-01  -7.1514463e-01   6.7949124e-01  -1.2079931e-01   6.5374204e-01   2.2436273e-01   7.9947933e-01   7.9276385e-03  -9.3347808e-01  -7.7244796e-01   1.7054429e-01  -3.4583697e-01  -9.6169611e-01  -7.1004124e-01   9.3887583e-01   4.9280787e-01   8.8087950e-01   6.2573799e-01   6.6302371e-01   6.5356650e-01  -7.1124332e-01   4.8995948e-01   4.4093044e-01  -9.0683967e-01  -5.4394137e-03  -8.8200879e-02   8.2410178e-01  -1.3041132e-01   6.5683441e-01  -1.0955541e-01   3.4553200e-01   3.4650253e-01   5.2668463e-02   8.4075905e-01   3.6720793e-01   6.0847516e-04  -4.3408805e-01  -8.5185177e-01  -2.0945894e-01   5.6565031e-02   2.9104071e-01  -3.9844104e-01   7.0935651e-01  -4.7977150e-01   6.9514847e-01  -2.5953353e-02   7.0292148e-01   4.8996937e-01   5.3596035e-01   1.4199707e-01  -2.9696448e-02  -7.2921629e-01   7.8631333e-03   5.1173095e-01   6.1487010e-01  -8.7636755e-01  -8.7671435e-01  -1.0992316e-02  -2.2115001e-01   5.5760907e-01   6.9018955e-01  -3.5739841e-01  -9.0316712e-01  -3.1804468e-01  -7.3660852e-01  -7.2618537e-01   1.6206132e-01   7.9529555e-02  -5.5485696e-01  -8.3457175e-01  -8.1899001e-01   1.7214723e-01  -7.8533207e-01  -8.6760836e-01   6.2968598e-01   1.1197471e-01  -2.4312918e-01   2.1817532e-01   7.2539170e-01   5.0097749e-01   2.9228493e-01  -6.5910491e-01   6.8100416e-01  -4.3117603e-02   5.8962042e-02  -8.5443358e-01  -1.6569023e-01  -5.4422800e-01  -4.0446440e-01   2.7641379e-01  -7.1343807e-01   5.1202156e-01  -5.1953762e-01  -8.6505762e-01   3.7113329e-01  -1.2648615e-01  -3.2817097e-01  -3.2000344e-01   8.7107609e-01  -5.2093261e-01  -8.7253976e-01  -4.9270920e-01  -5.5778726e-01  -8.7151262e-01  -5.0896814e-01   1.5901997e-01   6.6100078e-01  -5.5541499e-01  -9.9625001e-01  -9.2458125e-01   8.5021426e-01  -8.3547300e-01   9.8543307e-01  -3.6391515e-01  -1.7541797e-01  -5.6404291e-01   3.7255163e-01  -4.5109616e-01  -4.3092038e-01  -5.4764603e-01  -3.6660241e-01  -3.0704987e-01   2.0566047e-01   9.7329352e-01   4.2862105e-02  -3.8187224e-01  -1.3225362e-01  -5.9745637e-01   3.4291778e-01   4.3782639e-01   9.2412439e-01   5.1559445e-01   8.6742112e-01   5.8823921e-01  -4.9419555e-01   2.6869957e-01   3.0116427e-01   9.5528196e-01  -4.2589232e-01  -2.0036377e-01   3.9762863e-01   1.8457141e-01   9.0591208e-01  -4.0889565e-01  -4.1204262e-01   9.3541300e-02  -7.1468033e-01  -1.5471400e-01  -7.7955537e-01   5.0501288e-01   8.9630455e-01  -2.3526670e-01  -7.4613580e-01   1.9869740e-01  -4.4801146e-01  -9.3122980e-01   1.3061637e-01   4.0386271e-01   9.6581592e-01   8.3635078e-01   7.0049190e-01  -4.7223620e-01  -9.2609588e-01  -5.5125606e-01  -2.2875290e-01   4.9298533e-01   2.0541039e-01  -8.6342279e-01   8.5955436e-01  -5.3443599e-02   7.8870109e-01   3.0638557e-01  -6.2148254e-01  -8.2854370e-01  -3.6562176e-01   9.3218790e-02   3.5280718e-01  -6.7045551e-01   7.3443593e-01  -5.7241583e-01   1.0404215e-01   5.5121123e-01   4.0744882e-01   4.7339005e-01   9.5319228e-01   2.1308266e-01   3.4567598e-01   2.3231771e-01  -4.1558291e-01  -6.8305545e-01  -5.9142691e-01   3.4680092e-02  -3.8993764e-02  -2.9724843e-01   1.6996223e-01   2.7375730e-02   1.7929813e-01  -2.9262885e-02  -3.8335968e-01  -8.5387888e-01  -5.7448692e-01  -4.6247722e-01  -1.1868789e-01   3.1717496e-01   4.2651117e-01  -1.9072720e-01   5.1542731e-01  -9.3785111e-01   7.5807727e-01   5.7804455e-01  -1.9769749e-01   6.7380836e-01  -6.5734255e-01   9.9145369e-01  -9.8742999e-01  -7.4628392e-01   7.5368500e-01   7.5465866e-01   6.6873434e-01   4.1349820e-01   6.2206402e-01   9.7877962e-01   2.2414586e-02  -1.4264503e-01   5.6922480e-01   6.1815182e-01   1.9761675e-01  -4.8914925e-01  -2.0808566e-01   9.1431641e-01   6.6303773e-01  -5.5735716e-01   2.8211931e-01  -4.3542076e-01   5.9889475e-01   9.7065216e-01   5.3198526e-02   5.7040966e-01  -7.9347983e-01  -6.4680485e-01   8.7212149e-01   8.2089264e-01   1.4621711e-01   7.1544909e-01  -8.1887171e-01   8.6406432e-01  -6.9826988e-04  -1.8700970e-01  -1.1548902e-01  -9.7311953e-01  -8.2840586e-01   5.0965980e-02   7.4991954e-01  -4.3780080e-01   9.8472518e-01  -2.1330701e-01   8.6493951e-01  -7.8516186e-01  -1.9488323e-01   2.9734134e-01  -8.2750127e-02  -1.4184294e-01   1.3268742e-01  -6.0549869e-01   5.1682115e-01  -6.6586923e-01  -4.7397722e-01   9.3634732e-01  -9.5013397e-01   4.8028355e-01   2.3045396e-01  -3.4208627e-01   5.8257749e-01   6.9561928e-01   5.1153800e-01   7.6966248e-01   9.0035287e-01   4.2512892e-01   1.4472463e-01   3.5170165e-01   1.6854475e-01  -4.1647244e-01   1.6765691e-01  -7.0238172e-01   1.9592200e-01   7.7799611e-01  -1.0809191e-01  -8.4328377e-01  -6.7061343e-01  -4.5407959e-01   2.6123133e-01   5.3335840e-01  -2.9271884e-01   5.8607453e-01  -9.5501348e-02   8.1351165e-03   3.8198305e-01  -3.9570948e-01   2.4737884e-01  -8.5330043e-01   1.5591697e-01  -1.1473584e-01   6.3201943e-01   4.0038483e-01   6.9710382e-01   6.0368045e-01   3.1264148e-01  -7.3786360e-01  -5.7863983e-01   9.7014008e-01  -7.0531024e-01   3.2863495e-01   7.9776935e-01   6.8978063e-01  -3.9385216e-01   2.8589534e-01  -7.1294982e-01   7.3012421e-01   4.3905085e-01   3.9189185e-01  -2.7910938e-01   9.7131020e-01  -6.7619776e-01  -7.6518858e-02  -1.4440242e-01   5.9177653e-01  -3.9607804e-01   1.7070828e-01  -3.8974164e-01  -2.0313867e-02  -9.8016918e-01  -3.1249628e-01   9.7690117e-01   3.0017063e-01  -1.9088152e-01  -6.7398764e-01   5.2111549e-01   6.2631799e-02   4.0332256e-01   9.4633509e-01  -9.4102935e-01  -4.2370193e-01   4.3533986e-01  -7.1139825e-01   1.6382448e-01   9.0234567e-01   5.4891901e-01  -8.5885185e-01   5.3153659e-01   6.3846516e-01   4.9774120e-01   7.0896017e-01  -4.2300845e-01   3.2063762e-01   1.4799731e-01
  -1.5805385e-01   8.9268397e-01  -7.6709734e-01   3.0141178e-02  -8.8421906e-01   4.4474770e-02  -6.9023361e-02   4.8904204e-02  -5.0060283e-01   6.6583034e-01  -6.5355288e-01   5.8573228e-01   3.0388471e-01  -3.9021101e-01   7.2338687e-01  -1.8362132e-01  -5.2262748e-01   8.8996881e-01   3.9665768e-01   5.8977554e-01   4.5806642e-01  -1.3085896e-01  -2.3364443e-01  -1.1199368e-01  -8.0479005e-01  -5.1256346e-01  -2.3444632e-01  -5.2416422e-01   6.2735852e-01  -5.8244113e-01   7.8272270e-01   7.8095304e-01  -6.5946921e-01   3.6095269e-01   7.4327479e-01  -7.6500534e-01   6.6466145e-01   6.5255878e-01   5.0004536e-02  -8.8527157e-01  -3.3626409e-01  -4.1157359e-02  -1.2121531e-01  -4.6921330e-01  -7.8840329e-01   1.1021982e-01   7.5380485e-01  -5.7556326e-01  -9.9766781e-01  -9.1826820e-01   8.5793127e-01   7.8965126e-01  -9.1485101e-04  -4.2013014e-01   8.1714069e-01  -7.8806870e-01  -5.5370048e-01  -7.1652079e-01  -7.5781184e-01  -8.6537797e-02  -1.1536578e-01  -6.3570822e-01  -3.3795373e-01  -3.6307827e-01   5.2056805e-02   2.1344940e-02  -7.1783173e-01   7.3648993e-01   9.3161729e-01  -9.8845254e-02  -9.5058009e-01  -8.6112875e-01   9.4275671e-03   8.3506743e-01  -2.4191504e-01  -6.3814894e-01   3.8154685e-01   6.1793576e-01  -6.0529487e-01  -3.1218604e-01   9.9177835e-01  -3.3979821e-01   7.7265545e-01   6.1115920e-01  -5.9983325e-01   1.0571089e-01  -8.4931015e-01   4.7520637e-01  -2.8672927e-01   6.7123790e-01   5.8308958e-01  -9.6484644e-01   4.9045145e-01  -9.3475813e-01   5.3653134e-01  -2.6755254e-01  -3.7542880e-01  -8.6894225e-01   3.9712009e-01   1.7385826e-01   9.1743262e-02   3.3198873e-01   9.7397456e-01  -4.2539573e-01  -1.0337156e-01  -1.6738278e-01  -1.2558417e-01   6.7898835e-02   5.2708069e-01  -5.5983660e-01   7.6338023e-01   5.5474543e-03   9.1221682e-01  -8.6752254e-01  -5.6703459e-02   8.5728169e-01   8.2241698e-02   4.6445579e-01  -9.6108670e-01   9.3969199e-01   2.4058488e-01  -2.8862557e-01  -4.5056889e-01  -5.1533355e-01   3.2349839e-01  -4.8739607e-01   9.4820207e-01  -7.0108802e-01  -9.6799336e-01  -5.9169910e-01   8.9955938e-01   7.6688470e-01   7.6679829e-01  -9.9275123e-02  -4.1848035e-01  -1.6272995e-01  -4.0324978e-01  -3.3349757e-01  -8.6781822e-01  -3.4047549e-01  -7.6846953e-01   9.5175907e-01   3.8967268e-01   4.7666891e-01  -3.0517172e-01  -4.6990972e-04   1.4119177e-01   3.2283962e-02   6.2548294e-01  -1.5153080e-01  -6.7204482e-01  -5.2776243e-02   9.2002515e-01   7.1993651e-01  -3.6190683e-01   3.3714799e-01   8.4756825e-02  -8.6412924e-01   8.0821941e-01  -7.1467640e-01  -6.0613803e-01  -4.6787860e-01   9.2494128e-01   7.8108997e-01  -5.4654036e-01  -6.8406631e-01   7.5514868e-01   5.5660062e-01  -7.3529643e-01   7.1030133e-01   4.1222726e-01   9.0685975e-01   5.4938774e-02   8.5231442e-01   4.5631147e-01  -3.3572231e-01   5.2133206e-01   7.7512110e-01  -8.9058734e-01   5.0456087e-01   5.7070893e-01   6.4642018e-01  -8.2650705e-02   8.5156669e-02   3.9488719e-01   4.3466431e-01  -7.6829275e-01  -4.5517571e-01   9.1102090e-01   9.2028375e-01   7.3031354e-01   9.0010247e-01  -4.1055082e-01  -9.6995544e-01  -9.3022266e-01  -8.7264239e-01  -6.0954893e-01  -4.7096022e-01  -4.0785169e-01   3.2246560e-01  -4.3580430e-01   2.5031334e-01   5.5641446e-01   9.6916943e-01  -4.4872092e-01  -4.0723791e-01   4.5289527e-01  -1.1545754e-01  -9.0261234e-01   1.0751322e-01  -8.1967145e-01   9.1842368e-01   6.1529962e-01   2.5884340e-01  -5.2071057e-01  -6.1309260e-01  -7.7786945e-01   6.0431372e-01   7.2731923e-01   4.5544939e-02   2.7691260e-01  -7.5452110e-02   4.1220434e-01  -6.4455520e-01  -7.2050934e-01   3.9237098e-01  -8.5076877e-02   4.4071803e-01   8.2739475e-01  -3.1508973e-01   5.6797581e-01  -3.1572027e-01  -9.2397151e-01  -2.2371098e-02  -6.5132868e-01  -3.1662095e-03  -5.5918592e-01  -8.9491925e-01   3.8204356e-01   9.7042332e-01   9.6338105e-01  -6.2936408e-01   7.5782458e-01  -6.0746606e-01   2.8898662e-01   2.1024312e-01  -6.8546656e-01  -3.9213407e-01   7.3663479e-01   8.1655066e-01  -5.0639176e-01   9.8028792e-01   6.6384043e-01  -6.1380753e-01   1.7109634e-01  -5.9842132e-01  -1.8855519e-01  -1.7632873e-01  -6.5101416e-01  -5.0017383e-01  -5.0609309e-02  -4.3334003e-01  -2.7797077e-01  -9.7779714e-01   8.1094866e-01  -3.5262993e-01  -1.3086137e-01   6.6920196e-01   2.1901742e-01  -9.8690768e-01   8.4899603e-01   7.0617333e-01  -1.3637066e-01   6.3109283e-02   7.1394029e-01   1.5247526e-01  -5.6193529e-01  -6.7985270e-03  -1.5418002e-01   2.2349077e-01   7.4063519e-01  -4.9378374e-01  -6.3216824e-01   9.9758148e-01  -7.8326405e-01   4.8279429e-01  -8.0877767e-01   6.3338771e-01  -3.7263015e-01   5.8143409e-01   8.7969546e-01  -8.5306540e-01   3.7797499e-01  -7.5639803e-01  -6.8059608e-01   4.4784891e-01   5.6791637e-01  -2.3944702e-01   4.7249040e-01   8.9492991e-01  -1.0309548e-01   1.2785142e-01   8.8812994e-02   6.2805788e-01  -9.0376575e-01   2.9260145e-02  -7.4180144e-01  -2.3056063e-01   4.0962082e-01  -7.0158386e-01  -7.9627973e-01   3.9920192e-01   1.3570469e-01  -3.0769204e-01  -3.8094786e-01   8.9828411e-01  -4.5824892e-01   8.3503924e-01   9.7921498e-01   2.5442674e-01  -6.6803499e-01  -6.8273429e-01  -7.4171752e-01   1.8132449e-02   1.2249313e-01   7.0272945e-01  -3.7039177e-01  -6.0841325e-02  -5.1620042e-01   2.7715475e-01  -8.7067967e-01  -7.6250322e-01   2.1212920e-01  -3.4633733e-01   6.8429744e-02  -7.8130500e-01  -9.7101043e-02   4.6119119e-01  -2.3590641e-01   1.0618086e-01   1.3588588e-01  -5.8867557e-01  -1.7399233e-01  -8.8439812e-01  -6.7133516e-01  -3.8224540e-03  -8.3769775e-01  -7.0583565e-01  -8.0860251e-01   5.8528442e-01   1.1733302e-01   5.2678329e-01  -3.2054033e-01  -5.6086781e-01  -4.8542235e-01   3.7591206e-01   5.0593216e-01  -3.7766774e-01  -3.5012350e-01  -5.8922119e-01   4.7685191e-01   8.1681391e-02  -9.6066365e-01   2.3761892e-01   7.1679197e-02  -1.4350494e-01  -1.4285413e-01  -7.3971462e-01   9.7439013e-01   3.8779589e-01  -8.0258315e-01  -2.6995311e-01  -1.4080906e-01   5.4917967e-01  -6.1355186e-01   7.3822569e-01  -1.1405254e-01   3.0215580e-01  -8.2517039e-01  -9.0633146e-01  -1.1511943e-01  -6.1646162e-03  -7.3708908e-01   4.4664052e-01  -8.2519623e-01  -3.0607985e-02   4.3315871e-01  -2.6395079e-01   3.2339489e-01   9.4939910e-02   8.6765061e-01  -7.2341535e-01   9.1142267e-01  -6.7974880e-01  -1.5015041e-01   7.6110865e-01   4.3804663e-01   9.6509530e-01   5.3247809e-01   5.6637638e-01  -6.7937680e-01  -4.0970661e-01   8.7700670e-01  -8.3272503e-01   8.8906168e-01  -8.8910602e-01  -6.2400614e-01  -1.7202403e-01   7.7256289e-02   3.6733544e-01   7.0927844e-01   2.4648229e-01  -5.2988574e-01   5.1506625e-01   7.5728154e-01  -9.5352872e-01   1.1885314e-01  -7.0457397e-01   5.2909657e-01  -6.6461426e-01  -8.2379020e-01  -8.1260675e-01  -7.3854151e-01  -9.8182501e-01  -5.2188616e-01  -1.3926585e-02   7.3821032e-01  -8.4937241e-01   2.1903820e-01   3.8518710e-01   2.5939341e-01   9.6085062e-01  -8.9748149e-01  -4.1584415e-02   2.4211902e-01  -6.7288289e-02  -7.2050521e-01  -5.2581065e-01   5.0724241e-01  -1.8859828e-01   9.7792489e-03  -2.9716918e-01  -2.0839615e-03   2.3156793e-01  -7.6355647e-01   8.5030006e-01   8.4886091e-01   7.0970566e-01   8.2098933e-01  -7.7607578e-01   8.1761588e-01  -8.0537737e-01   8.7597102e-01  -8.4149198e-01  -1.8674898e-01   9.6214510e-01  -9.7389503e-01  -6.1712985e-01   1.3216734e-01  -3.0987030e-01  -6.5263142e-01   2.8084778e-01   1.5887628e-01  -1.6828137e-01  -3.4687512e-01   5.3726586e-01  -1.8156691e-01   3.0156857e-01  -4.1123629e-02   1.2808165e-01  -2.8420970e-02   7.7293895e-01  -8.7237706e-01  -8.4872645e-01   5.5911968e-01  -1.6417287e-01   6.4424207e-01  -9.1379316e-01   6.4276675e-01  -5.7346658e-01  -6.4727332e-01  -6.3610869e-01  -8.4377444e-01   5.9957478e-01  -8.2503864e-01   6.0171748e-01   7.3542309e-01   9.3718858e-02  -2.4432387e-01   3.0088178e-01   8.8427448e-01  -8.2782994e-01  -2.0396881e-01  -2.9887760e-01  -6.4844167e-01   6.9805026e-01   1.1706350e-01  -8.0738756e-01   9.3886549e-01  -7.2759168e-02   7.2375959e-01   4.7500241e-01  -5.6739372e-01  -5.7330870e-02  -5.5377291e-01  -4.7636624e-01   8.8620690e-01   1.1515970e-01   9.7218954e-01   9.5323310e-01  -6.7705496e-01   4.9151084e-01  -1.6062796e-02  -2.8764404e-01  -8.6324303e-01  -2.7187577e-01   2.3156096e-01   1.9721614e-01  -7.5521746e-02  -2.1591199e-01   6.7040098e-01  -8.8534857e-01   8.8554420e-01   6.6708463e-01  -1.6119842e-01   9.1659322e-03  -1.3290458e-01  -7.6467712e-01   1.6783705e-01   1.8871253e-01   7.0363630e-01   6.7962318e-01   2.1782997e-01   3.5468943e-01  -9.5392394e-01   8.7291176e-01   5.9853903e-01   3.7778294e-01   4.9240557e-01  -9.1385148e-01   2.3961207e-01   2.4563132e-01  -6.2516260e-01  -2.9527515e-01   9.6379823e-01   4.5788585e-02  -7.6444918e-01  -3.5758927e-01  -7.0610283e-01   3.2334476e-01  -8.0183942e-01   4.0199382e-01  -3.8395087e-01  -9.7548637e-01   2.7974359e-01   8.4865568e-01   3.5950271e-02  -4.8578377e-01   4.8387666e-01   6.3071501e-01  -7.9913755e-01  -9.3998678e-01  -8.8537409e-01   6.8793279e-01   4.0152642e-01  -3.7664209e-01   9.0770920e-01  -3.4876782e-01  -2.7864506e-01  -6.8182069e-01  -3.3781269e-01  -5.1848261e-01  -9.2780887e-01   7.5645242e-01  -8.0475928e-01  -5.1606054e-01   1.4922230e-01   9.2706804e-01  -4.9535262e-01  -4.4217224e-01   9.1142129e-01   9.2523108e-01   4.2576071e-02   8.9152862e-01  -8.6366356e-01  -8.3045776e-01   2.4050399e-01  -6.0067290e-01   2.6229710e-01  -7.6123487e-02   8.9820920e-01  -8.3301111e-01   6.8977448e-01  -5.4978429e-02   9.7461954e-01   2.2603526e-01  -8.1462677e-01   9.7371625e-01  -8.5251647e-01  -4.8053381e-01   8.8106410e-01  -8.9319406e-01   2.5171378e-01  -3.3662183e-01  -5.3722962e-01  -2.4812471e-01   3.4875325e-01   8.9058264e-01   7.7139690e-01  -8.0244006e-02   1.3216619e-01  -5.8818454e-01  -9.0264827e-02   3.5151099e-01   4.7764322e-01   6.9697471e-01  -6.0633553e-01   4.1549372e-01   4.0704045e-01   2.5644855e-01   9.9281357e-01  -6.7760854e-02   3.5801829e-01  -8.2010382e-01   4.3195221e-04  -7.8680134e-01  -7.5754679e-01   1.6886971e-01  -8.2176075e-01   3.8210549e-01  -7.0050483e-01  -3.9516438e-01   1.5360513e-02   3.0234789e-01   3.0657371e-01   9.1903997e-01  -4.0231207e-01   3.3680180e-01  -9.9196447e-01  -1.9906691e-01   4.8460911e-01  -3.6473769e-01   1.8300239e-01   3.1250184e-01   6.3663350e-01   8.3698976e-01   2.3005591e-01  -6.1815395e-01   5.6764063e-01   7.9595956e-01   7.4016810e-01  -7.7473510e-01   4.4272996e-01  -4.6287733e-01   6.2130835e-01   2.7175946e-01   5.3680362e-01  -7.2672654e-01  -4.0657850e-01   1.4873391e-01  -7.1531964e-01  -5.7690567e-01   9.3489676e-01   1.5564647e-01  -8.7512228e-01   9.4791430e-01  -3.6244940e-01  -6.5643226e-02   2.5782643e-01  -9.1925476e-01  -2.1307049e-01  -3.8682467e-01   8.8821065e-02  -2.0075673e-01  -5.5362419e-01  -1.4695382e-01   4.4076691e-01   5.8425336e-01  -7.8822068e-01  -3.9897935e-01  -9.4418108e-01   3.8020572e-01  -9.9818089e-01   2.4531991e-01  -9.9562292e-01  -7.0408318e-01  -7.3103554e-01   8.4837433e-01  -7.5662338e-01  -8.8349156e-01  -3.6737869e-01   4.8213569e-01  -5.0191607e-01  -5.4516454e-01  -6.8131836e-01   2.0284740e-01   1.4784509e-01  -3.8835921e-01   9.7290996e-01  -7.9539395e-01   2.0209673e-01  -2.6094873e-01  -5.5637332e-02   6.7907126e-01   7.4308712e-01   1.8471811e-01  -9.2898408e-01   9.6624532e-01   5.4697043e-01   2.6239171e-01  -3.2805967e-01  -7.5180885e-01   3.9603893e-02  -2.7638540e-01  -1.3637936e-01   9.6171737e-01   9.6192010e-03  -1.8003372e-01   3.4650870e-01   7.1153484e-01  -3.0545535e-01   3.6805003e-01  -5.3587568e-01  -2.9707721e-01  -7.4944515e-01  -2.2022587e-01   9.5291082e-01   9.7206735e-01   7.5231117e-01  -4.8322272e-01  -5.2901746e-01   9.5782312e-01   1.8276755e-01  -3.1296599e-01   6.4770280e-01  -9.7645572e-01  -2.0127934e-01  -6.8501033e-01   3.1528204e-01   6.6774524e-01   2.8745206e-01   8.8957253e-01   4.9539530e-01  -9.4986368e-01   8.0907156e-02   5.5949605e-02   3.8445661e-01   1.6600674e-01  -1.3569567e-01   7.0493737e-01  -9.7199821e-01  -6.4282268e-01  -9.9317593e-01  -5.6086669e-01  -6.7535345e-01  -6.3608326e-01  -5.0843383e-01   8.7625797e-01  -8.1519986e-01   5.1428089e-01   7.3586609e-01  -3.7934788e-01  -5.7738671e-01   3.2727745e-01   2.4255103e-02  -2.4923209e-01  -9.4474191e-01  -2.2139949e-01   2.5503813e-01   8.3972167e-01  -1.8796205e-01   3.3591133e-01   8.1988577e-02  -7.8058820e-01   9.6467001e-01   6.5506865e-01  -2.2547856e-01  -6.8431133e-01   1.5337412e-01   7.7253843e-01  -8.4831156e-01  -2.3978679e-01  -3.3164882e-01   5.5125148e-02  -5.0926667e-01  -9.4737667e-01  -8.0394484e-01  -9.3595534e-01   2.6519793e-01  -2.9367917e-01   2.5153045e-01   7.3298774e-01   6.0257758e-01   6.8826853e-01   3.1520002e-01  -8.4132543e-01  -7.7986883e-01  -4.7382932e-01  -7.5221204e-01  -5.0099576e-01   6.7964562e-01   7.8469891e-01  -4.2929511e-01   4.4314253e-01   2.4041473e-01   8.4198810e-01   5.0398683e-01   1.2694842e-01   3.3645055e-01  -6.5668636e-01   2.7072022e-01  -2.6151297e-01  -8.7935085e-01  -4.6708969e-01   8.1138913e-01   6.1688309e-01  -8.7365817e-02  -6.1328131e-01   2.4261272e-01  -9.0539335e-02   4.7588556e-01   1.2502535e-01  -7.4534028e-01   4.0575410e-02  -7.0540949e-01   5.8151194e-01   2.8253020e-01   9.0165100e-01   9.9299809e-01   2.8233262e-01   1.4273308e-01  -1.3439227e-01   3.5654645e-01  -4.6393072e-01   5.2465873e-01   9.2703241e-01   6.5900591e-01   4.2795491e-01  -6.5304875e-01   4.7160404e-01   6.7051207e-01  -3.6879326e-01   8.8942570e-01   9.0356796e-01   7.8262374e-01  -4.7795115e-01   9.9069157e-01  -5.3325476e-01  -8.8877924e-01   7.5772686e-01  -4.9434536e-02  -6.9252519e-01  -4.0750693e-01   7.0778484e-01   1.6503464e-01  -4.9763367e-01   8.2241294e-01  -7.1151199e-01   8.9508494e-01   1.8345581e-01  -2.1054917e-01  -1.6457932e-01   4.0885550e-01  -3.7639715e-01  -4.8576054e-01  -6.4271878e-01   7.1160845e-01   9.5552434e-01   1.1251022e-01   2.0870656e-01  -7.7518624e-01  -2.7671264e-01   7.7393739e-01   2.6251855e-01  -5.4686169e-01  -6.3596193e-01  -4.7189021e-01  -3.9926770e-01  -2.8907440e-01  -4.4666472e-01  -4.2472821e-01  -3.1502358e-01  -3.2974626e-01   8.9531556e-01  -5.6624703e-01  -9.0663577e-01  -5.7528427e-01  -5.7993340e-01   1.5759583e-01   7.0130111e-01  -1.2313778e-01   9.0063259e-01   8.0339664e-01  -8.2560997e-01   1.8599298e-01   1.8870606e-01  -3.1751609e-01   4.8699524e-01   7.1166460e-01  -4.5605331e-01  -4.5061252e-01  -7.3823203e-01   7.7388380e-01   1.0841248e-02   7.3598231e-02  -5.8959565e-02  -9.9006385e-01   2.4652350e-01   1.5844990e-01  -3.0668083e-02  -6.5964572e-01  -8.3886334e-02   8.3886010e-01   1.8982944e-02  -7.6865595e-01  -6.6659836e-01  -7.4408018e-01  -2.4026383e-01   5.0190966e-03  -2.8943338e-02   5.9557296e-01  -7.1182500e-01   3.0495255e-01  -2.3764900e-01  -7.9336764e-01  -7.9543500e-02  -5.6371149e-01  -3.9925253e-01   5.0315709e-01  -9.4213416e-01  -8.5531133e-01   8.1474262e-01   5.7867893e-01   6.5723573e-01   7.8751813e-01   7.1427975e-01  -1.2838803e-01   3.1833391e-01  -5.1677509e-01  -1.9880618e-01   3.2881382e-01   1.7565003e-01  -6.4637432e-01  -1.7778310e-01  -4.1381616e-01  -5.5162130e-01   4.6742976e-01  -2.3816985e-02   9.7183121e-01   6.5256511e-01   6.2154889e-01  -4.7326326e-01  -9.7067392e-01  -5.2899972e-01   5.8033281e-01   4.6946839e-01   7.0030080e-01  -7.6257346e-01  -2.2696140e-01   7.5018793e-01   6.1087865e-02  -7.7397105e-01   7.6597922e-01   9.5066376e-01  -2.4404079e-01   1.3918217e-01   3.4001709e-01  -1.7035939e-01  -9.7201118e-01  -7.3562829e-01   2.6895863e-01  -9.7895789e-01  -8.7515132e-01   6.1298583e-02   7.8519405e-01   8.4590875e-02  -9.5470616e-01   2.5115638e-01   3.2950218e-01   1.1014319e-01   5.1816180e-01   7.8409405e-01  -7.3508303e-01  -8.5619237e-01  -4.4609767e-01   1.3419496e-01  -3.6088786e-02   4.3442702e-01   8.7962396e-01   8.9878920e-02  -6.9140987e-01  -7.2323258e-01   1.7073422e-01  -2.2527303e-01  -6.1435618e-01   9.8032478e-01  -4.3371871e-01  -3.0518888e-01   1.8212359e-01  -7.8146812e-01
