   6.0489468e-01  -5.9298883e-02  -8.7076095e-01  -3.1112905e-01   1.4229956e-01   1.7006886e-01   4.2400576e-01   4.9025155e-01   9.5714280e-01   5.3487779e-01  -3.7009196e-01   8.7262693e-01   3.0302621e-01   8.3233765e-01   7.6464502e-01  -5.6166025e-01   8.0098623e-01  -1.4522830e-01  -7.4829633e-01  -1.7061331e-01   9.6086917e-01  -6.0387915e-01  -2.4236992e-01   6.3936431e-01   5.7249748e-01  -7.5789373e-01   1.7407513e-01  -9.7734987e-01   3.7964784e-01  -5.8236806e-01  -4.2576675e-01   7.2352696e-01  -3.9356382e-01  -6.9627579e-01  -9.5560500e-01  -6.2731791e-01   1.5947039e-01   8.8108858e-01   5.0016800e-01  -5.6920977e-01   6.6050771e-01  -3.4984096e-01  -1.7012729e-01  -2.6097805e-01  -1.0211644e-02   2.2496304e-01  -4.2205125e-01  -2.7907500e-01   1.7393280e-01   4.1180828e-01   7.2024728e-01  -7.0985520e-01  -2.1007486e-01  -8.9341653e-01   9.9228827e-01  -4.8928044e-01   4.0359370e-01   6.6526392e-01  -6.1823966e-01  -9.9662287e-01  -6.0991073e-02  -4.1599577e-01   3.4131904e-01   9.7219367e-01  -2.0781606e-01  -3.0729285e-01   1.3023165e-01   7.0037797e-01   1.8262980e-01  -1.3894256e-01   1.1735510e-01   1.0699425e-02   7.2734499e-02   2.7508735e-01  -9.5659076e-01   8.6746714e-01   6.9826721e-01  -3.5057568e-01   1.5866665e-01  -7.6822309e-01   5.8951120e-01   9.8035192e-01   5.0329451e-01   6.2859792e-01   7.2002948e-01  -1.0847241e-01  -7.8956428e-02   3.4372044e-01  -8.2258300e-01   5.1616259e-01  -5.8994636e-02  -7.1377404e-01   6.8495125e-02  -2.7122186e-01   8.7044304e-02   6.2159006e-01   3.9993979e-01   8.7115964e-01  -8.3984159e-01   5.5644466e-01  -5.0242253e-01  -4.5228394e-01   8.8515915e-01   8.3982077e-01  -9.7101412e-01   1.6902858e-02   2.6155597e-02  -3.0706261e-01  -5.4942150e-01   7.9839393e-01   3.3813556e-01   5.3709856e-01  -3.9924735e-01   8.7388382e-01  -7.5841171e-01   7.9960540e-01  -1.4597243e-01   4.4679599e-01   4.8179441e-01   4.6502481e-01  -6.5423240e-01  -5.4917727e-01  -7.4125125e-01   4.8958310e-01   2.8590500e-01   7.7106410e-01  -4.4930170e-01  -4.2736192e-01   5.3178221e-01   6.1742786e-01   7.5015774e-01   6.6907831e-01  -6.1996141e-01   5.9571653e-01   3.6376787e-01   4.4912134e-01   3.0388763e-01   7.3711016e-01  -1.8268525e-01   6.3988434e-01  -3.4500561e-01   2.2912988e-01   5.2827970e-01  -5.7674634e-01  -8.1104310e-01   9.4078848e-01   6.3315647e-01   5.9334560e-01   6.2569296e-01   8.8487436e-01   7.9463404e-01  -5.0767137e-01  -8.4795636e-01   2.0861359e-02   4.1046039e-01  -8.2472463e-01   3.3869586e-01  -1.9742432e-02   4.4708114e-01  -9.9713865e-01   5.3928099e-01   2.5846215e-01   9.7671082e-01   3.3824492e-02   3.5334379e-01   3.8647164e-01  -9.7670857e-01   4.3725061e-01  -1.8549791e-01   6.8247383e-01   4.1265620e-01  -7.4532203e-02   2.1873932e-01   2.6978635e-01  -7.2417387e-01   3.0326980e-01  -3.2122368e-01   7.9190128e-01  -4.5280639e-01  -3.0109768e-01  -6.1804153e-01  -9.4498982e-01   4.9701943e-01   7.4589878e-01  -1.2656357e-01  -7.7425547e-01  -6.9108280e-01  -5.7363328e-01   4.4486687e-01  -7.1372135e-01  -6.9972910e-02  -9.4762989e-01   6.6656543e-01  -4.4219624e-01  -1.2409015e-01  -9.6941887e-01   3.9509268e-01   2.9224718e-01  -9.3397994e-01   5.6636286e-01   7.7331751e-01  -4.9078892e-01  -4.6051423e-01  -8.1751945e-01   3.7930800e-01   8.1756411e-01  -8.5911192e-01  -3.7007944e-01   2.5896478e-01  -1.8568194e-01   6.1701465e-01   7.6498370e-01  -7.9941574e-01   3.2656835e-01   9.4222340e-01  -9.6516483e-01  -6.0866129e-01   1.6878501e-01  -2.2322052e-01  -2.0118525e-01  -7.0061984e-01  -5.1297142e-01  -7.5711181e-01   7.8856217e-01   9.4586586e-01   9.1494661e-01  -7.4732401e-01  -7.0588599e-01  -2.0755354e-01  -8.8373229e-01   8.5761617e-01  -3.6888888e-01   2.3025547e-02  -4.5121839e-01  -4.3623110e-02  -5.1119942e-01   2.3532709e-01  -6.1612015e-01   7.2092815e-01  -3.1381547e-01  -2.6216025e-01  -6.9599027e-01   7.9393686e-01   3.2273997e-01   1.0822452e-01   7.1920886e-01   5.1094395e-01  -9.6225868e-01   2.6944217e-01   1.1727569e-01  -2.4472182e-01  -7.5643782e-01  -6.6171680e-01  -5.2538507e-01   4.1000118e-01   2.0189457e-01  -4.4968295e-01  -2.3433124e-01   4.2498955e-01  -2.1360500e-01  -3.7114082e-01   8.9900413e-01   2.2791205e-01  -5.6604421e-01  -4.8449093e-01  -8.2792655e-01   8.6234067e-01  -4.4971531e-01   1.3847697e-01  -1.8310065e-01  -2.7580009e-01  -5.6109841e-01  -7.4175778e-01   3.4637642e-01  -3.5018535e-01  -5.6958098e-01   9.6044736e-01  -4.4158182e-01  -8.5221842e-01   1.2898364e-02  -7.5102691e-01  -9.3460515e-01  -1.1763757e-01   8.8372099e-01   2.6565266e-01   7.1454099e-01  -8.6662364e-01  -9.1337778e-01  -4.4012770e-01  -1.5309672e-01   3.7429109e-01  -8.0898486e-01  -6.7518556e-01   9.5292411e-01   2.0836982e-01   7.5135180e-01  -2.5724400e-01   6.7360344e-02  -8.5247267e-01  -8.7851673e-01   4.5014344e-02   3.9481763e-01   3.4831941e-01  -9.0983801e-01   9.8154821e-01  -2.6231359e-01   5.4080320e-01   3.9742051e-01  -7.1377898e-02   1.4062967e-01   9.2756852e-01   7.3025587e-01  -3.3356830e-01  -2.2482030e-01  -3.2684744e-01  -6.4374779e-01   3.8710029e-01  -5.1086935e-01  -4.8334689e-01  -5.5516791e-01  -7.1466903e-01   4.0340011e-01   9.1899539e-01   8.8598138e-01  -4.3270715e-01  -1.5039180e-01  -3.8534269e-01  -7.1190544e-01  -4.3561139e-01  -7.6685817e-01   7.5467109e-01   4.5101908e-01   8.3293695e-01  -1.5522735e-01  -5.9374182e-01  -8.2835432e-01   5.2523993e-01  -7.2795191e-01   3.3550702e-01   2.4554856e-01   8.6111834e-01  -3.2612265e-01  -5.4948574e-01  -8.8547442e-01  -6.7903613e-01   4.5947543e-01  -9.9668595e-01   8.2916389e-01  -5.0176349e-01  -8.9188873e-01  -7.0727111e-01  -2.8039443e-01   3.3176289e-02   1.4949386e-01   2.8761480e-01   1.4604647e-01  -1.4592986e-01   1.8731827e-01  -6.9412188e-01   7.1223436e-01   7.6767801e-01  -3.0315892e-01  -7.0928139e-01   1.6162292e-01   6.2218359e-01  -1.8936477e-01  -7.8678741e-01  -6.0927728e-01   2.2817785e-01  -2.3588727e-01  -3.4950733e-01   9.7523541e-02   5.3710754e-01  -1.3822376e-01   7.3280227e-01  -8.7480336e-01   4.8489163e-01   3.5200968e-01  -3.4037641e-01  -9.0518653e-01   5.1179474e-01  -2.8360728e-01  -6.5308575e-01  -7.2058669e-01   8.9347591e-01   6.4557647e-01   6.3246923e-01   9.2268425e-01  -4.0713236e-02   5.4628253e-01   5.0774448e-01  -4.2335910e-01  -6.1138448e-01  -9.9433990e-01  -3.1664342e-01   3.5245934e-01   5.9337994e-01  -7.8311758e-01  -9.7775273e-01  -8.3774923e-01   7.4628628e-01   3.2977496e-01   4.8416158e-01   6.8790480e-01  -3.4204226e-01  -3.7531212e-01   3.2367420e-01   7.9682236e-01  -1.4910256e-02   6.4056398e-01   6.0657046e-01  -8.6876952e-01   8.7808552e-01   8.0932626e-01   6.6987366e-01   2.8741570e-01  -9.5372441e-01   6.5028994e-01   9.6452937e-01   7.9919709e-01  -3.3874497e-01  -1.0422052e-01  -3.9150735e-01  -7.5886765e-01  -4.8737146e-03  -7.4238374e-01   9.4347041e-01   3.0670902e-01   4.2930572e-01   2.0794731e-01  -1.5315809e-01   7.7262866e-01   6.0486403e-01   2.9402908e-01  -7.6550006e-01  -2.0958436e-01  -5.1956423e-01   2.9015776e-02   8.0438187e-01  -5.9341366e-01   1.7155936e-01  -9.1933060e-01   2.2897738e-01   8.6526911e-01  -5.9256725e-01   9.1778590e-01  -6.1940048e-01  -4.1321719e-02  -7.6577228e-01  -9.3909599e-01  -4.1279288e-01   9.2645720e-01   9.8114905e-01   7.9386075e-01  -7.6051582e-01  -9.8033422e-01   6.5200294e-01   3.6649735e-01  -4.3964899e-01  -2.3894105e-01  -5.2461788e-01  -6.5719668e-02   2.2867991e-01   3.9866897e-02  -6.8629251e-01   6.4859856e-01  -7.6590636e-01  -3.5886814e-01  -2.7950697e-01   4.4961768e-01   5.0141544e-01   5.7500059e-01  -1.9209344e-01  -6.1177167e-02  -5.0861264e-01   6.6890471e-01  -1.6841082e-01  -4.7924618e-01   5.4462489e-01   9.3917596e-01   7.0481491e-01  -6.0042209e-01  -3.8961628e-01  -9.2850231e-02   9.7722456e-01  -6.2995871e-01  -8.6784185e-01  -5.9631912e-02  -1.1610024e-01   7.5446325e-01   4.3494155e-01  -7.4362786e-01   3.0905106e-01   7.6717006e-01  -4.4031157e-01  -2.1399891e-01   1.4000618e-01  -7.9290792e-01   4.2000387e-02  -1.6667593e-01  -5.1272197e-01  -8.1584151e-01   7.7894347e-01  -6.0696999e-01  -3.4915902e-01  -7.2658638e-02  -3.6686977e-01   3.8278623e-01   8.9895389e-01   1.6420237e-01   9.4589140e-01  -3.4854577e-01   6.8642865e-02  -1.4300210e-01   4.1543439e-01   5.8123184e-01  -4.4521456e-01  -8.2680308e-01   3.4969141e-01  -5.4549057e-01   9.0390910e-01  -1.5883528e-02  -6.4278043e-01  -8.3153205e-03  -6.4577986e-01   2.7669807e-01  -5.3482184e-01   8.4926742e-01  -6.1290754e-01   7.4845383e-01  -3.8317105e-01   5.4662178e-01  -5.4487811e-01   2.1397382e-01   6.9095795e-01   4.0425582e-01  -3.9645287e-01  -5.4109510e-01   2.2468327e-01   4.8048003e-01   1.7526969e-01  -2.1501446e-01  -1.5186196e-01  -6.4897879e-01   8.6515492e-01  -7.2377040e-01  -5.5813154e-01  -2.2595453e-01  -6.8572814e-01  -2.4590410e-01  -7.4891516e-01   8.3731182e-01  -7.1523543e-01   9.4086695e-01   5.6263817e-01  -4.5410051e-01  -6.6571792e-01  -6.1059870e-01  -9.5092761e-01  -8.0232102e-01   9.9201469e-02  -5.4788451e-01  -2.6163232e-01  -1.2790423e-02   4.3245854e-01  -7.8958089e-03  -8.3153117e-01   8.0160203e-01   5.2083810e-01  -6.6194133e-01  -1.0663852e-01   4.1616073e-01  -1.1298383e-02  -8.1955041e-01  -1.3059318e-01  -8.7630703e-01  -9.4639402e-01   1.9046965e-01   6.8938591e-01   5.5547979e-01  -4.2128070e-01  -8.8345006e-01  -6.9070102e-01   3.4033829e-01  -1.4622475e-01   9.5175726e-01  -9.9168558e-01   5.5684434e-01   8.4154948e-01  -5.7277967e-01   8.1391276e-01  -6.1746265e-01   3.8100624e-02   5.2709107e-01  -7.3386919e-01   4.1638067e-01  -2.1805022e-01   8.7810309e-01  -6.3805246e-01   9.6495524e-01  -3.8320315e-01  -8.9142387e-02  -8.9446384e-02   4.7271176e-01   6.3812089e-01  -8.8982196e-01   6.9488537e-01  -8.0161615e-01  -2.1487096e-01   7.2025134e-01   3.8001231e-01  -3.3311783e-01  -5.0477980e-01   5.1797777e-01   3.8352097e-01  -5.6556279e-01   3.4576945e-01   7.4409845e-01   4.5010934e-01  -2.5665528e-01   9.4245624e-01  -2.4354411e-01  -4.0737356e-01   2.2784778e-01  -4.8712848e-01  -5.5573574e-02  -2.0840179e-01   6.7319119e-01   3.6392798e-01   5.4104485e-01   2.3210195e-01   9.0699922e-01  -3.0340286e-01   7.6766110e-01  -9.8901992e-01   6.2388993e-01   8.2874329e-01   4.1759202e-01   2.2918788e-01  -4.6927708e-01  -5.5990006e-02   5.4459731e-01   6.6474829e-01  -9.2628870e-01   7.6038891e-01  -2.7952995e-01   9.5431724e-01  -5.2519442e-01   7.2512575e-01   7.1186648e-02  -5.8288721e-01  -4.5538523e-01  -3.2171265e-01  -1.0520275e-01  -1.3728737e-01  -9.9237364e-01   8.9943311e-01   5.3202124e-01   4.8232663e-01   3.8997546e-01   8.6303347e-01  -2.8651647e-01   1.7008858e-02   8.7868345e-01  -8.8498020e-01   5.2339084e-01   8.7989280e-01  -5.4087155e-01   8.4998888e-01  -9.9974821e-01   5.5952343e-01  -9.8247733e-01   4.7968422e-01   5.6499995e-01   8.2584937e-01  -3.0729071e-01  -3.8129318e-01  -1.4396226e-01  -1.7904693e-01   2.4970222e-01  -7.6993820e-01  -2.3450413e-01   7.1111454e-01   6.0355891e-01  -3.9775008e-01  -4.1746758e-01   8.5234689e-01   5.5467520e-02   9.2746316e-01  -5.9977483e-01   2.2505012e-01   3.3683091e-01  -8.4706319e-01  -6.3289904e-01  -8.8041370e-01   1.5676596e-02  -8.7952133e-01  -2.9502012e-01  -6.1973052e-02   9.0697676e-01  -1.5336886e-01  -9.0114485e-01   4.7726219e-01   4.4490444e-01  -5.8346644e-01  -2.9091799e-01  -3.8862766e-01  -2.5664568e-01   9.0727740e-01   6.8566874e-01  -6.3113805e-01   1.1153525e-01  -4.7977269e-01   1.7036419e-01  -4.7245176e-01   2.7752710e-01  -9.8162447e-01  -7.5666075e-01  -5.0660098e-02   4.6985384e-01   7.3827197e-01   6.0726918e-01  -2.7368765e-01   3.2203907e-01   7.8458394e-01  -2.4170733e-01   2.4528461e-01   8.1524827e-01  -2.7265257e-01   9.4012408e-01  -9.6917149e-01   5.3254297e-01  -9.0941902e-02   1.2908740e-01   3.1498494e-02  -2.7319897e-01  -3.2875055e-02  -8.4545755e-01   8.2018049e-01   9.1959338e-01  -4.9888962e-01  -4.1475472e-01   4.6278439e-01  -3.3604288e-01  -3.8389370e-01   3.1371993e-01  -2.0033405e-01   7.0933146e-01   9.6706381e-01   2.2301021e-01  -2.1613619e-01   2.8211479e-01  -3.6565943e-01  -1.1214739e-01  -6.0907489e-01  -7.2818334e-02  -3.2881738e-01   6.4997124e-01   6.3243043e-01  -4.5182094e-01   6.3840695e-01  -9.7554876e-01   5.1793849e-01  -5.7295578e-01  -6.4022174e-01   4.7587829e-01   6.9391064e-01   1.4212142e-01   9.9427028e-01  -9.2130390e-01  -4.6236514e-01   7.6303770e-01  -8.6720104e-01   1.7684042e-02   8.2660772e-01  -2.8613180e-02   7.9926895e-01   3.5144825e-01   1.7620060e-01  -9.1329425e-01  -5.2482531e-01  -7.7885342e-01   6.4423727e-01   8.6512471e-01   1.9165052e-01  -3.0508230e-01  -6.5427663e-01   3.1848640e-01  -7.5746250e-01  -4.6521908e-01   6.4249089e-01   6.4918592e-01  -4.3582992e-01  -9.5286072e-01  -3.9510616e-01  -9.8850002e-01  -8.2390068e-01   5.7449348e-01   3.9195646e-01   5.6088038e-01   1.1971661e-01  -4.9835981e-02   2.3741456e-01  -6.2348004e-01   3.0361244e-01   8.6900849e-01   7.8105339e-01  -6.2969381e-01  -5.2863498e-01   5.0000536e-01  -4.6226564e-01   4.6608100e-01   4.2968093e-01   8.3216392e-01  -3.9153080e-02   2.0551924e-02  -9.2126007e-01  -8.4117028e-01  -2.4373850e-01  -9.9077442e-01  -9.4035365e-01  -8.6385146e-01   5.1144951e-02   1.5724719e-01   5.5986872e-01  -3.1383677e-01  -1.7485715e-01   3.5405454e-02  -7.3352441e-01   4.3944278e-01   2.1394790e-01   9.4655912e-01  -2.7790112e-01  -6.3777220e-01  -9.0670154e-01  -1.3656860e-01  -9.6669797e-01   5.1534543e-01  -7.2481466e-01  -6.6581343e-02  -2.9370907e-01  -5.9711930e-02  -7.3083741e-01  -6.3917598e-01   2.7922459e-01  -9.7975474e-01   4.2014054e-02  -5.7893936e-01  -7.6831683e-01  -8.9344839e-01   9.9702654e-01  -6.0778168e-01   1.7076701e-01  -7.6330232e-01  -2.7960246e-01   1.8579118e-01   9.2286668e-01   4.7926990e-01   8.4022907e-01   2.3870938e-01  -8.8327883e-01  -6.9763795e-03  -1.1324954e-02  -2.8784503e-01   7.8541664e-01   6.8600195e-01  -8.3625732e-01   3.9317272e-01   8.4422314e-01  -7.7142423e-01   9.0348880e-01  -8.2153623e-01  -9.3290990e-01   7.4702693e-01  -8.2737445e-01   1.4663990e-01   8.5825500e-01  -8.6824071e-01  -9.1810557e-01   2.9414403e-01  -2.1388215e-01   7.2077563e-01  -7.6748229e-01   1.8624817e-01   1.9407564e-01   1.8957854e-01   5.6559064e-01  -1.6511694e-02  -4.6032382e-01   4.6450662e-01  -7.7390462e-02   5.1092679e-01   7.4963830e-01   6.3425847e-02   7.2590146e-01  -6.8225761e-01   1.1610155e-01   7.1709538e-01   6.4230384e-02   6.7161581e-01   7.4621882e-01   2.4720268e-01  -9.0004055e-01   9.2021449e-01  -3.4338330e-01  -4.9675493e-01   1.9198776e-01  -5.2259718e-01   2.5936740e-01   6.3499652e-01  -1.6624946e-01  -5.0589173e-01  -2.0865605e-01  -1.3387378e-01  -3.0965162e-01  -4.5091845e-01   4.3545390e-02   8.7635818e-01  -7.0007755e-02   6.0921513e-02  -4.3138579e-01   6.0379703e-01  -6.8241353e-01  -8.4350689e-01  -2.5768227e-01  -2.5229934e-01  -8.2549809e-01  -7.0970497e-01  -8.1913564e-01   2.8373427e-01  -6.2653792e-03  -1.3817703e-01   5.2996103e-01   5.5568490e-01   3.1855007e-01   3.3435508e-01  -7.1024969e-01  -2.1406212e-01  -4.0156450e-01   1.7685693e-01  -9.2370956e-01   9.2796589e-01  -9.7116773e-01  -6.7484359e-02  -2.2265339e-02   4.0265317e-01  -4.8019786e-01  -4.1708623e-01  -2.8353127e-01  -7.5292852e-01  -1.1944162e-01   5.9376817e-01   3.6477722e-01   5.1780540e-01   7.9080216e-01  -4.8184381e-01  -8.2469040e-01  -1.5263877e-01  -6.9975310e-01   3.3801266e-01  -5.0526920e-01   8.4482106e-01   4.0904167e-01   1.6314276e-01   3.1096350e-02  -8.4103259e-01   8.7876066e-01   8.2064546e-01   6.1807517e-01  -3.6982717e-02  -8.9602632e-01  -3.6889783e-01  -8.6651556e-01  -5.6741108e-01  -6.6145924e-01  -7.4440361e-01   9.1385912e-01   4.0656290e-01  -6.7872637e-01   8.9605772e-01  -7.0344613e-01   3.0182985e-01  -2.0837287e-01   2.2691455e-01  -9.1447060e-01   4.5077216e-01   2.1724260e-01  -9.7492514e-01  -2.8678147e-01   1.8017773e-01  -2.5668862e-01   7.0973948e-01   7.8464177e-01  -9.8754679e-01  -8.4233682e-03   6.3923806e-01   2.2148472e-01   3.8399601e-01  -1.5597647e-01  -3.3626140e-01
   6.0090511e-01  -8.3188591e-01   2.1958793e-01   4.8933896e-01  -5.0007872e-01  -6.4955412e-01   2.5031958e-01   1.5610384e-01  -8.0270582e-01   5.1548485e-01  -9.1117922e-01   2.1606130e-01   8.4517577e-01  -1.4825714e-02  -2.1816245e-01   5.8303054e-01   3.0544580e-01  -6.5877586e-01   8.9379776e-02   9.1769888e-01   1.2160747e-01   1.5486190e-01  -7.1687730e-02   3.9301357e-01   7.9004997e-01  -1.4905380e-01   5.5917354e-02   6.8440066e-01   5.3563537e-03  -1.2681665e-01  -3.4717980e-01  -6.7558178e-02   4.6157798e-01   6.2534734e-01   8.9621479e-01   4.3614058e-01  -7.3048130e-01   6.4758445e-01  -9.5742300e-01   4.0159518e-01  -6.2290168e-01   4.1712862e-02  -7.3885657e-01  -1.8747146e-01  -4.9120448e-01   5.8870339e-01   8.7729953e-01  -8.8488423e-01  -7.0745192e-01   2.2417971e-01   1.6695828e-01  -6.6420896e-02   8.5725349e-01  -7.0282645e-01   7.0268786e-01   3.2869027e-01  -6.7588386e-01  -6.6989963e-02  -4.4367680e-01   5.8640035e-01  -3.1706761e-01  -7.5550323e-01  -1.4375980e-01   4.9427622e-01  -6.9704958e-01  -3.4636667e-01   5.8065286e-01  -4.8704496e-02   9.7135923e-03  -8.1142587e-01  -9.7404511e-01   2.2068386e-01   6.9323580e-01   2.1632237e-01  -1.1089248e-01  -5.5924525e-01  -2.0494576e-01   3.5859925e-01  -9.1024271e-01  -5.6181581e-01  -1.3128849e-02   3.4180506e-01  -7.7667080e-01   7.9854608e-02  -3.2699852e-01   2.4192364e-01  -9.9887103e-01  -9.1438514e-01   3.0288541e-01   3.8616302e-01   4.0951886e-01  -1.5078673e-01   8.8932219e-01   7.3844987e-01  -4.8164267e-01  -3.7520123e-01   3.3703425e-01  -4.0614532e-01   6.6915977e-01  -7.8488172e-01  -2.2068626e-01   8.6486316e-01   7.5563899e-01   2.1555737e-01  -9.1439959e-01  -7.8485309e-01   2.3465573e-01  -3.7456350e-01  -5.0191022e-01   5.5253759e-01  -1.3085835e-01   3.1390961e-01  -6.7354497e-01  -7.8164044e-01   3.8046351e-01  -6.7792355e-01   4.0232842e-01  -4.6819648e-01  -7.3600402e-01  -4.7657392e-01  -4.8082230e-01  -5.5218288e-01  -3.9859716e-01   3.1855293e-01   6.9444648e-01   4.9264984e-01  -8.9039455e-01  -6.4602916e-01   9.7750392e-01  -3.2697538e-01   3.0509540e-01   7.5777468e-01  -7.5251833e-01   4.0341358e-01  -4.6525955e-01   3.1458286e-01  -3.8768235e-01   1.4037073e-02   5.5338224e-01  -6.3086126e-02  -1.3116600e-01   7.3030579e-01   6.1251394e-01   2.0370837e-01   6.0850467e-01   2.9415610e-01   1.7003642e-01   2.6617903e-01  -2.8112375e-01   8.4612423e-01   5.7885159e-01  -3.9645940e-01  -8.6709225e-01  -5.3724904e-01  -1.9211324e-01  -3.4252467e-01  -7.1967978e-01   7.4428595e-01   6.6849894e-02  -8.7472971e-01   2.6207193e-01  -8.8436122e-01  -4.5352637e-01  -8.6295463e-01   4.0602068e-01   3.1422292e-01   4.9607539e-01  -2.7728460e-01   4.6515352e-01  -3.3644352e-01  -9.5502909e-01  -6.7907270e-01  -2.8953228e-01  -2.5930129e-01  -6.0433350e-01   3.3830729e-01  -9.5605491e-01   1.8383614e-01  -3.8498954e-01   3.9558072e-01  -8.0594396e-03   6.1186368e-01   2.4341830e-01   2.8951153e-02   7.9112252e-01   8.0263053e-01  -8.5052499e-01  -2.6382788e-01  -2.8423625e-01  -2.0056140e-01  -2.0232683e-01   7.5215989e-02   4.7699334e-01   6.3540590e-01  -5.7884425e-01  -8.8826244e-01  -6.1814114e-01   9.6688021e-01  -6.5961508e-01  -5.1460409e-01  -5.2526194e-02  -5.7556217e-01  -2.3915621e-01   3.4106202e-01   6.9817027e-01  -4.5758010e-01  -1.2037839e-01  -4.3526310e-01  -7.6682677e-02   4.0115906e-01  -7.2850902e-01  -2.9183682e-02   7.9828035e-02  -5.3966933e-01   7.9193589e-01   2.3309622e-01  -6.4991588e-01  -3.5364985e-01   2.0472208e-01   1.1350629e-01   3.6943390e-02   1.3182916e-01  -8.2866787e-01   9.4808232e-01   9.7175322e-01  -3.2477154e-01  -9.6355851e-01  -3.3094613e-01   3.1977302e-01   8.7620560e-01  -2.4684560e-01  -9.9128777e-01   5.4278220e-01   7.7621943e-02  -5.5403155e-01   8.3836614e-01   6.6851487e-01   3.0511817e-01   9.5675546e-01   2.2035761e-01  -6.3624842e-01  -2.8892104e-01  -9.0032587e-01   7.9866163e-01   2.1332677e-01   9.0377098e-01   8.0197465e-02  -6.4834245e-01   7.4855214e-01  -6.3299439e-01  -4.0280255e-01  -2.0546592e-02   4.0322288e-01   7.5825850e-01   9.3786571e-01  -5.8961135e-01   3.4356818e-01   9.3902604e-01  -3.0122520e-01  -3.6071254e-01   8.6338705e-01  -3.2957979e-01  -5.6168657e-03  -6.1021465e-01  -4.0584448e-01   5.7106379e-01  -2.6846061e-01  -2.3055318e-01  -7.8618873e-01   5.3697480e-01  -8.8680425e-01   2.9218591e-01  -3.7664298e-01   6.6639254e-01  -5.5527444e-01   5.5993668e-01   9.1462536e-01  -7.6631353e-01   4.0522660e-01   5.4968588e-01  -8.8385411e-01   3.7742273e-01  -5.2224843e-02  -4.1590887e-01  -7.2803647e-01   8.4850115e-01  -8.5198651e-01  -7.3191613e-01  -2.5156794e-01   6.0706655e-01  -7.6633548e-01   2.7840676e-01   5.8193433e-01  -3.2172770e-01  -3.8746049e-01  -9.8842478e-01  -9.2679054e-01   1.0690972e-01   7.6661930e-01   2.6273016e-01   3.3604176e-01   6.4575683e-01  -9.3227901e-01   7.1820635e-01  -8.1268177e-01   6.0507723e-01  -8.7129488e-01   3.2738181e-01   5.5211917e-01  -1.5219618e-01   7.1052811e-01  -7.7882279e-01   1.7154318e-01   4.1605222e-01   5.4432892e-01  -1.8687772e-01  -5.3613481e-01   1.0915911e-01  -3.1890046e-01  -4.5312378e-01  -6.0231833e-01   5.4458456e-01  -5.2334202e-01   1.7372370e-02   2.1518616e-01   8.2782342e-01  -4.1249140e-01  -4.2200826e-01   5.7238571e-02  -5.6423612e-01   6.1993098e-01   7.9375731e-01  -9.6852381e-01   6.9646770e-01  -6.8333625e-01   3.1066488e-01   3.2564978e-01   1.2036428e-01  -5.0117568e-01   4.1016002e-01   3.9759791e-01   9.3040456e-01  -9.8322658e-01  -2.3998818e-01  -3.0832925e-01  -3.7694563e-01  -6.2692981e-01   3.6608766e-01   5.4436267e-01  -8.3463658e-01   3.5607217e-02  -7.6469941e-01  -3.6134457e-02   3.8967775e-01  -5.4620248e-01   8.5707852e-01   7.8510980e-01  -6.7070770e-01   6.0513378e-01   5.0864442e-01   4.6174135e-01   3.3524372e-01   4.7918900e-01  -4.2351819e-02  -7.5620462e-01  -8.3278154e-01   7.1139077e-01   1.5424891e-01  -7.2796775e-01  -2.5821587e-01  -4.0448873e-01  -9.6084337e-01  -1.0056063e-01  -1.7105383e-01  -8.6639191e-01  -2.2190197e-01   5.7565523e-01  -5.4444260e-01  -1.1887049e-01   1.9144887e-01  -1.4109586e-02   6.5417863e-01  -9.2974719e-01   7.2333390e-01   8.5594240e-01  -6.3148326e-01  -5.4583424e-01   2.2056422e-01  -2.5455908e-01  -3.5841716e-01   9.5470499e-01   6.6657982e-01   9.7276552e-02  -8.0714367e-01   2.1937368e-02   5.9670224e-01   1.9859724e-01  -4.2268565e-01  -3.1792079e-01  -1.0738597e-01   6.6202198e-01  -7.4827207e-01  -2.5075520e-02   2.7256959e-01  -3.4074756e-01   8.9143476e-01  -3.9387513e-01   9.6462905e-01  -7.5732319e-01  -3.3489433e-02   9.7880278e-01  -6.5653262e-01  -6.7565523e-01   6.1702341e-02  -2.9284786e-01   5.9881428e-01   5.8217668e-01  -5.4819640e-01  -5.8485064e-01   4.2426169e-01   4.2795860e-01   8.9910775e-01   9.6278493e-01   1.3356309e-01  -7.3474302e-01  -3.3977601e-01   2.5626781e-01  -6.7010575e-01   5.1374736e-01  -5.3276238e-01  -2.5995660e-01   3.9275512e-01  -5.1922477e-01   8.3176046e-01   4.2396417e-01  -4.8724824e-01   1.7973587e-01  -7.1674429e-01   5.2250119e-01   5.0312121e-01  -6.9485025e-01   4.0450613e-01   4.0098657e-01   1.8045084e-01   9.8629816e-01   5.5266659e-01   3.2923169e-01   3.0684789e-01   4.1128736e-01  -4.8535287e-01   2.0149310e-01  -9.4833004e-01   9.2267878e-03  -8.4963121e-02  -4.7378745e-02   7.1364750e-01   8.6753033e-01   1.4381240e-01  -4.3703027e-01   1.7567090e-01   7.1234872e-01  -9.5305336e-01  -2.4978280e-01  -2.3370845e-01   8.7522807e-01  -7.9006590e-01   7.0695041e-01  -4.0532267e-02  -6.0625878e-01   4.0914100e-01   6.8673868e-01   3.3524070e-01   2.7596991e-01   8.2334528e-01  -7.1705045e-01  -1.7805982e-01  -5.2352001e-01  -1.5995693e-01   3.3398976e-01   7.5014185e-01  -2.6036160e-01   5.2237627e-02  -8.9771454e-01  -5.6143450e-02   3.8067315e-01  -5.1209322e-03  -2.8753037e-01  -2.5096803e-01   2.7426562e-01  -7.2531077e-01   6.3387594e-01   1.8846763e-01   5.7789347e-02  -7.6602052e-01   4.3674048e-01  -8.0449302e-01   7.0185418e-01  -7.1429110e-01  -6.1474052e-01  -9.4870945e-01   8.9432172e-01  -9.4432991e-01  -1.0451770e-01   6.6179568e-02   2.3486650e-01   2.1064671e-01   4.3801198e-01  -2.9966979e-01   4.5072266e-01  -4.4401485e-01  -5.3916485e-01   2.1284132e-01  -6.7391220e-01   7.4466656e-01   8.7201000e-01  -3.0557286e-01   5.3759329e-01   9.3194911e-01   1.1206315e-01  -1.3825795e-02   8.2488615e-01  -9.1115184e-01  -1.3368756e-02  -5.5352955e-01   7.3359651e-01   8.2256660e-01   1.0782750e-01   8.4939867e-01  -8.9024020e-01  -9.8996937e-01  -6.1511832e-01  -2.3190340e-01  -7.6247301e-02  -4.7309465e-01  -2.5663322e-01  -6.4157997e-01   9.1468297e-01  -7.2333607e-01   4.0494509e-01  -1.3576429e-02   6.5732837e-01   5.0741130e-01   3.9870679e-01  -1.4930472e-01   6.3910030e-02   9.3244154e-01   5.8763716e-01   8.4156495e-02   1.8623451e-02  -2.8938131e-02  -3.5020893e-01  -4.0712062e-01   6.9306574e-01   2.4690921e-01   4.8968983e-01   1.6182744e-01  -9.3944669e-01  -4.7682993e-01  -8.7662313e-01  -3.4443734e-01  -5.1709668e-02  -7.5125892e-01  -9.8640982e-01  -3.2055350e-02   2.1878012e-01  -7.7573350e-01   5.7746910e-01   3.8193717e-01   3.4335863e-01  -3.3171829e-01   2.6682706e-01   8.1799206e-01   2.2417186e-01   3.5836289e-01  -9.0651033e-01  -1.1836750e-01  -2.8805742e-03  -1.2767124e-01  -8.5994170e-01   1.9460925e-01  -5.4671712e-02   9.3511272e-01   3.3278876e-01  -1.5129151e-01  -4.7892230e-01   6.2958132e-01  -4.2697955e-01   3.1569581e-01   2.6723689e-01   2.3528651e-01  -4.4962370e-01   6.7042460e-01   8.3641271e-02   1.2121414e-01  -6.7465690e-01  -8.5384995e-03  -2.1246109e-01  -4.4653899e-01   6.9352105e-01   6.4026561e-01   9.0206940e-01  -5.0458132e-01  -2.0109939e-02   3.6449777e-01  -3.6629730e-01  -7.3394654e-01  -8.4314540e-01  -8.6391762e-01   5.1388109e-01   2.8756971e-01   2.7923451e-01   4.0634620e-01  -5.4974915e-01  -6.8069328e-01  -4.2145490e-01  -5.4973942e-01  -5.6898780e-01   6.7116403e-01   9.3728668e-02   6.3967037e-02  -7.8645511e-01   5.6801201e-01   9.3389468e-01   3.0647520e-02   4.8298243e-01   5.1814132e-01  -9.2870246e-01   3.0497919e-02  -3.8532161e-01  -6.8356127e-01  -8.6523986e-01  -7.0675988e-01   9.8924955e-01   3.7479656e-01   7.5661046e-01   2.5131438e-01   3.5147141e-01   4.7084325e-01  -7.2118256e-01   8.1017126e-01   5.2595489e-02  -1.1944709e-01   6.7427987e-01  -9.2365131e-01   3.9450420e-01   6.0589176e-01  -9.2022091e-01  -7.8314637e-01   9.8835040e-01   1.0130147e-01  -9.1683489e-01  -7.1665385e-02  -1.4047008e-01   1.5422650e-01  -3.5931478e-01  -5.9437261e-01   9.3338912e-01  -9.1545637e-01   8.5796889e-01  -8.4399108e-01  -7.2509432e-01  -3.2983870e-01  -6.8538229e-02   4.9265193e-01  -5.5868195e-01   4.3338581e-01  -3.9319846e-01   3.0881227e-01   7.4137900e-02  -1.1219012e-01   4.2257911e-01  -6.3589530e-01   4.3331004e-01   5.0595048e-01  -7.2710948e-01   8.3481834e-01  -4.6729024e-01   4.5676326e-01   3.2281815e-01  -7.1451961e-01   2.7998337e-01   5.4269057e-01  -1.3775459e-01  -9.5434403e-01  -2.4416631e-01   8.8352292e-03   2.1806751e-01   1.0838206e-01   5.9084343e-01  -3.8451639e-01  -7.8250403e-01  -1.3730344e-01   5.1818084e-01   7.9518601e-01   8.9323828e-01   3.7151825e-01   5.6060234e-01   6.1428546e-01  -7.5054561e-02   7.0163908e-01  -7.5141248e-01   7.2335824e-01   3.7865742e-01   8.3617290e-01   5.0162751e-02   6.8628446e-01  -6.7087970e-01   8.1617785e-01   3.1909451e-01   6.5667846e-01  -5.2671346e-01   1.0657149e-01   8.0765206e-01  -6.8818760e-01   4.7919366e-01  -7.1148116e-01  -3.6328556e-01   9.8270311e-01   1.5565618e-01   9.2349659e-02  -8.8073637e-01   6.1892468e-01  -5.3919113e-01   3.2964304e-01   8.8886857e-01  -7.4885534e-02   6.2177497e-01  -5.8423899e-01   6.7239432e-01   2.7597144e-01   9.7336260e-01  -2.0754939e-01  -5.0616115e-01  -5.5473373e-01  -6.4517765e-01  -7.7555435e-02  -9.5310200e-01  -2.7364076e-01   8.8493531e-01   3.0311400e-01   2.8027037e-02  -6.0797026e-01   9.2386431e-01  -9.7594470e-01   5.6359735e-01   1.3198222e-01  -6.8273443e-01   8.3520090e-01  -3.7402646e-01   9.6377690e-01  -7.4681145e-02  -4.8607350e-01   2.3650659e-01  -7.9055070e-02   1.0904024e-01  -6.0933915e-01  -8.7446693e-01  -9.3423690e-01  -5.1910736e-01  -1.8575336e-01  -7.2414796e-01   1.1668869e-01  -3.9312997e-01   5.9961043e-01  -4.1240852e-01   2.9442474e-01  -6.2414451e-01   8.4725877e-01   9.5440741e-01   2.8680435e-01   6.9111450e-01  -9.9338710e-01   9.0528034e-01   7.8381529e-01   1.1560591e-02  -7.2651319e-01   2.8156713e-01  -7.9459268e-01  -1.6584248e-01  -4.6549822e-02   3.8727695e-01  -9.7761968e-01  -1.4448058e-01   2.9648470e-01  -1.6018075e-01   2.5896159e-01  -2.3299632e-01  -9.7644597e-01  -5.3813434e-01  -3.2502882e-01  -6.7769423e-02   6.3076520e-01   5.9129166e-01   8.1646579e-01   1.4745994e-01   3.4162753e-03  -4.6666621e-01   7.3908292e-01  -8.7971303e-01   9.4762859e-01  -1.0089151e-01  -7.2876344e-01  -1.7268421e-01   5.9297226e-01  -1.0926096e-01   1.2185012e-01   4.1026795e-01  -3.7322454e-01   5.8348911e-02  -2.8101759e-01  -1.6810974e-01   1.0632284e-01  -4.3570716e-01   3.1784925e-02   4.5610112e-01  -2.1706659e-02   1.2985527e-02  -2.2475194e-01   6.9602443e-01  -2.4253723e-01  -5.7608073e-01   3.0537719e-01  -7.8844680e-01   3.1336713e-01  -7.2267316e-01   1.9162374e-01  -8.7481655e-01  -5.7966385e-01  -2.9616419e-01   9.2226947e-01   4.8345445e-01  -1.6407217e-02   6.0621203e-01   3.4898833e-01  -3.3522188e-01   5.3200299e-01  -9.0480791e-01  -4.2182583e-01  -8.1039031e-01   3.2470700e-01   5.0207524e-01   8.1809726e-01   7.2888745e-01  -2.3062700e-01  -1.2632669e-01  -5.6217223e-02   6.6328103e-01  -7.4406448e-01   5.8408570e-02  -5.0373504e-01  -3.6409185e-01  -4.7311400e-01  -9.0311815e-01   5.0754653e-01  -5.8757014e-01   1.1813614e-01   9.6844135e-01   5.6554005e-01   8.6638131e-01  -9.3850207e-01  -1.2494582e-01   5.0487495e-01  -5.9383237e-01   5.0786312e-01   4.7196849e-01  -6.6661315e-03  -4.9854808e-01   6.5255868e-01  -3.6992071e-01  -1.3798836e-01   3.8918521e-01   3.0448395e-01   6.3090840e-01   7.5308818e-01  -6.4140877e-01  -8.2727357e-01  -9.2406966e-01   2.1823173e-01  -1.8627832e-01   6.9404683e-01   1.2065219e-01   7.9832157e-01  -8.2849797e-01   5.7055922e-01   5.0351449e-01  -8.3401847e-01   7.6459214e-01  -3.9193652e-01  -6.3373347e-01  -6.3925274e-02   8.9390880e-01  -7.6029757e-01  -9.3575210e-01  -7.5692653e-02  -6.5614205e-01  -8.6853023e-01  -3.8042583e-01   8.4424861e-01  -6.6293766e-01   1.8099269e-02   2.3879285e-01   9.9174999e-01   4.5444917e-01  -4.9293643e-01   1.0161687e-01  -6.2575556e-01   7.6826271e-01   5.9420730e-01   7.3869966e-03   7.9016508e-01   7.1050200e-02  -6.1185521e-01   1.4780139e-01  -1.3703860e-01   9.8515985e-01   5.2253147e-01  -7.7154166e-02   7.3193524e-01   4.9628150e-01  -5.8935225e-01  -2.3226447e-01  -1.3051639e-01  -6.9950245e-01   9.3574107e-01  -3.0333060e-01  -3.1525557e-01  -6.3170572e-01   7.0085944e-01   6.3243676e-01  -5.8935180e-01  -6.2787418e-01   9.7946042e-01   9.0183109e-02   1.1802538e-01  -3.7436113e-01   1.1484597e-01   4.4122017e-01  -7.8762129e-02  -9.2246603e-01   3.1611493e-01   5.5919465e-01   9.5860602e-01  -2.1962660e-01  -2.6356042e-02   3.6332011e-01  -9.2048911e-01   3.8046667e-01  -1.8812933e-02   6.3835510e-01  -1.2279188e-01  -8.8076995e-02  -3.4904607e-01   5.6769550e-01  -6.2258621e-01   1.1903855e-01  -3.9068847e-01  -4.6878377e-01  -2.5109396e-01   7.8694063e-01  -1.5025150e-01   6.9187691e-01   9.9757850e-01  -5.3858154e-01   6.0096060e-01   6.2573811e-01  -8.9212313e-02  -2.9145360e-01   8.2666058e-01  -7.9055894e-01   9.0833554e-01  -1.7779214e-01   8.0987839e-01  -1.8745663e-01   4.2963306e-01   3.0320180e-01   7.0716747e-01   3.7220117e-01   1.7441918e-01  -4.9275513e-01   8.1571231e-01  -4.9810316e-01   8.5703136e-02  -1.0280449e-01   9.5629816e-01   8.0034584e-01   8.0597408e-01  -4.6531517e-01   6.8104509e-01  -1.6467127e-01  -8.8217279e-02   9.5674213e-01  -2.1098298e-01  -3.2429349e-01   6.3734216e-01   6.2471985e-01  -4.2120868e-01   4.8890624e-01  -2.2947572e-01  -8.1766383e-01  -2.9446691e-01
  -5.7018277e-01  -5.0586996e-02  -3.5342394e-01  -9.0126361e-02  -8.6681887e-01   7.6967980e-01  -2.5356499e-01  -2.7226785e-01   7.4834586e-01  -7.3189600e-01   9.0218658e-01  -6.6256951e-01  -2.2047463e-01   1.5317336e-01  -5.2475058e-01   7.7778301e-01  -8.1784750e-02   5.8963910e-01  -7.4264330e-01   2.3526618e-01  -4.7244392e-01   9.1099376e-03   9.8500459e-01   2.5734962e-01   8.4061371e-01   3.9231853e-01   6.6661509e-01   9.2261523e-01  -5.4010721e-01   5.9829263e-02  -9.5233478e-01   6.7410417e-01   9.7075125e-01   4.8326465e-01  -1.2427866e-01  -8.9543534e-01   5.4385826e-01   6.6820201e-01   5.5255258e-01   1.3671122e-01   3.9204911e-01   9.2354187e-01  -8.2077936e-01   7.3854611e-01   5.0595032e-01  -3.5012929e-01  -2.2561341e-01  -6.6522166e-01   1.5295320e-01   2.2562228e-02   5.0826054e-01   9.5010432e-01  -3.4516347e-01   8.4113432e-01   1.8710550e-01   1.0101461e-01   6.6632805e-02  -4.6675177e-01  -5.4845759e-01  -5.2914102e-01  -3.4376594e-02   2.0163218e-01  -9.5506130e-01  -1.0807931e-01   7.9014250e-01   9.2097052e-01   5.9496761e-01   7.6081141e-01  -8.6032864e-01  -7.3640141e-01   5.5430001e-01  -1.1836370e-01   4.3985276e-01  -3.8702780e-01   3.6679182e-01   6.3232215e-01   8.5274926e-01  -3.9331758e-02   4.1781893e-01  -7.4805000e-01  -3.7028903e-01   7.2119663e-01  -8.0668537e-01  -7.7954105e-01   8.0788944e-01  -2.8196923e-01   4.4828710e-01  -3.3599053e-01   1.6250640e-01  -7.9367040e-01  -7.8608825e-01  -2.2867640e-01  -6.8849784e-01  -1.2851673e-01   6.4872742e-01  -3.0586664e-01  -5.2144240e-01  -6.2639635e-01   1.6830796e-01   8.2774668e-01  -5.6204663e-01   3.0269038e-01   2.7618834e-01  -2.8861122e-01   4.4218455e-01  -1.0496182e-01  -1.6383756e-01  -2.6143141e-01  -7.4458920e-01  -4.6992742e-01   8.4468764e-02  -1.1609368e-01  -2.0797174e-01   3.1835062e-02   8.9225009e-01   3.6457543e-01  -5.0578459e-01   7.9735642e-01   5.6761104e-01  -1.4653521e-01   1.4617721e-01   3.3038145e-01   5.5213537e-01  -2.0603578e-01  -9.8821303e-01   9.4722270e-01   7.9349581e-01  -1.7849457e-01  -2.3388719e-01  -9.2626686e-01  -3.6953882e-01  -5.1028364e-01   1.0700540e-01   9.0869255e-01   9.6907350e-01  -3.6392245e-01  -2.3214190e-01  -7.4207159e-01   2.8605291e-01  -4.0186409e-01   7.8147820e-01  -7.2242877e-01   3.3660406e-01  -9.0112488e-01   1.8321697e-01  -4.2693574e-01   9.7458149e-01   6.7575156e-01  -9.2261925e-01  -6.3252426e-01  -9.0978888e-01  -4.7570577e-01  -5.2809140e-01   3.9883187e-01  -2.4968223e-01   3.1833277e-01  -9.4763625e-02  -8.8378518e-01   2.3471049e-01   9.9836551e-01   3.1626933e-01   4.9320979e-01   4.3126457e-01   8.5601248e-01  -1.3351055e-01   4.0096415e-01   6.5672244e-01   8.8726659e-01   5.5799975e-01   2.4083911e-02   6.6652642e-01  -8.6827571e-01  -5.6949167e-01  -2.0366560e-01   5.7400749e-01  -5.2131590e-01  -4.6783852e-01  -9.0010143e-02   3.5532314e-01  -1.2651065e-01   7.5992601e-01   1.9604455e-01   6.0742437e-01  -8.0434086e-01   9.3185165e-02  -3.7977651e-01  -8.5501727e-01  -5.5824124e-01  -4.1724195e-01  -8.3937039e-01   3.2747403e-01  -9.7468391e-01   2.7275005e-01  -7.3211034e-01   6.4221035e-01   6.4976826e-01   6.9620100e-01  -8.5601745e-01   4.5806835e-01  -6.8863126e-01   4.5077295e-01  -4.4398308e-01  -3.9610627e-01  -3.1288592e-01   5.0640423e-01  -2.8432581e-02  -6.0621026e-01  -7.2181232e-01  -8.1262513e-01  -1.8973649e-01  -8.0149776e-01   1.5610291e-01  -4.4746286e-01  -4.5930861e-01  -4.3561624e-01  -5.5738589e-01   1.7400803e-01  -7.5895984e-01  -3.5358702e-01  -1.2203689e-01   3.8699187e-02  -8.5212336e-01   6.8283250e-02  -6.5221767e-02  -8.8448857e-01   8.4478807e-01   7.7362627e-01  -3.2185301e-01  -2.4836709e-01  -8.8277845e-01   4.7383761e-01   8.2911952e-01  -1.4061160e-01   8.9484129e-01   7.5543983e-01  -1.9309184e-02   7.8775289e-01  -9.2200593e-01   9.1804843e-01   5.1036529e-01   3.9544918e-01   1.8289141e-01   5.4436138e-01   8.9137656e-01  -3.3144082e-01  -9.3244315e-01   4.4299125e-01  -8.4990774e-01   5.9757560e-02   2.3467371e-02   7.0075098e-01   8.1787611e-01   1.9198809e-01   3.7117591e-01  -7.3070223e-01   7.5650871e-01  -7.4937757e-01   6.0371242e-01   2.2641648e-01  -3.9257828e-01  -7.3485802e-01  -2.3359930e-01  -6.5533893e-01  -7.9916879e-01  -6.2417183e-01   5.0918011e-01   3.0382714e-01  -5.8303203e-01  -3.3230752e-02   3.4915810e-01  -3.5762199e-01   9.6581908e-01   9.9636515e-01  -2.9462497e-01  -5.4380793e-01   1.2815762e-01  -8.3661185e-01  -5.7205111e-01  -4.6501156e-01   5.1318944e-01  -2.2529566e-01  -3.8251791e-01   7.1977799e-02  -7.4597717e-02  -7.1693398e-01  -6.9720191e-01  -7.0847049e-01  -1.7880200e-01  -7.3462917e-01   7.9092770e-01  -2.9250962e-01  -1.0607001e-01  -2.8729231e-01  -4.4099625e-01   7.2161950e-01   1.1426210e-01   3.8350599e-01   5.6092145e-01   2.8117848e-01   2.3563327e-01  -5.3998541e-01  -3.4013353e-01   7.1395452e-01  -2.5987909e-01   8.3927838e-01   8.0801443e-01  -5.8080985e-02   8.2696683e-01   3.3652270e-01   9.2226629e-01  -7.1647481e-02  -4.5592964e-01  -4.3408772e-01  -7.4242126e-02  -5.6762301e-01   7.5986872e-01  -1.8127896e-03   5.9309012e-01  -4.4430989e-01  -2.6712197e-01   5.1127764e-03   3.5054956e-01  -4.6714039e-02   7.3919522e-01  -3.1216369e-01   8.2088877e-01   7.9232995e-01  -6.0101492e-01  -8.1374791e-01  -5.5014159e-01   4.5963534e-01   6.7705467e-01  -3.3910025e-01   3.0947812e-02  -9.1734648e-01   8.7623661e-01   9.2206828e-01   3.7245991e-01   2.0546479e-01  -7.2205541e-02  -5.7560401e-01  -2.8214642e-01   1.4533920e-03   9.1827441e-01   7.9695003e-01  -4.7166326e-01   8.9400728e-01  -4.5131059e-01   5.3696274e-01   9.0976638e-01  -5.4913287e-01  -3.1988356e-01  -4.1853879e-01   2.9550380e-01  -5.5736442e-01  -4.5595513e-01  -1.4264138e-01  -6.1609260e-01  -6.9015086e-01  -2.1527842e-01   8.8402356e-01  -2.4452296e-01  -4.9849417e-01   8.3539065e-01   6.1247217e-01  -8.8933347e-01  -1.8924427e-01  -9.1418887e-01   5.2884170e-01  -9.4579169e-01   8.5054810e-02  -4.5290216e-01  -3.3354965e-01  -5.9451682e-01  -7.5315045e-02  -7.2959864e-01  -6.3917873e-01   9.2748779e-01  -3.0643959e-01  -4.6400603e-01   1.3447372e-01   8.0066497e-01  -1.3692680e-01  -4.0906236e-02   8.8796251e-01   5.6578388e-01  -3.3830236e-02   6.3752135e-01   7.4112458e-01   6.7708383e-02   4.5234722e-01  -7.5603801e-02   7.7375280e-01  -7.0761577e-01   9.9915028e-01  -1.3040428e-01  -3.1105508e-01   6.7276501e-01  -1.0850906e-01   6.9917154e-01  -8.5418467e-01   3.1037462e-01   5.5804121e-01   2.7957765e-01  -4.5053764e-01   7.6915016e-01   1.3630901e-01   1.0868489e-02   9.2146076e-01   9.3055630e-01   3.8968340e-01   7.9350102e-01  -4.5514090e-01  -9.4310356e-01   1.7628764e-01   9.3371099e-01   2.2879366e-01  -6.0462284e-01  -9.0105376e-01   4.8612823e-01  -9.4578169e-01  -9.9575516e-01  -4.1309359e-01   3.6629826e-01  -9.5275601e-01  -7.3447033e-01   8.1303379e-01  -8.7065969e-01   6.5497755e-01  -7.7822517e-01   6.6628510e-01  -4.2468887e-01   2.2131553e-01  -6.9168670e-01  -4.4355626e-01   3.7485466e-01   1.8089131e-01  -1.8553265e-01   6.2653672e-01  -4.3223731e-01   2.7310295e-01   5.6059153e-01   5.0339903e-01  -1.2875660e-02  -7.2315219e-01  -9.5190673e-02   9.8504667e-01  -7.2839903e-01  -2.1712774e-01   7.9415249e-01  -2.6872678e-01  -1.2863660e-01  -3.4251947e-01   5.6493367e-01   3.7562150e-01   5.0624686e-01   4.1011227e-01   9.9790778e-01   8.6748333e-01   7.9703908e-02   4.4291714e-02   3.3866127e-01   4.4127377e-01  -6.1372904e-01   8.1668529e-01   4.0909048e-01  -4.8209708e-01  -9.2782557e-01  -6.7441100e-01   8.1225116e-01  -4.5477205e-01  -1.5305268e-01   6.9152061e-01  -8.6867497e-01  -6.3338616e-02   4.0161910e-01  -5.9610718e-01   6.9266249e-01   5.0769910e-01   4.1342486e-01  -1.2204921e-01  -9.4152014e-01   2.9186808e-01   1.9222237e-01   7.0567423e-02  -7.2089669e-01  -4.1352034e-01  -7.5981869e-02   3.4813848e-01  -8.5481389e-01  -4.5742456e-01  -8.1343748e-01   4.4811925e-01  -1.5913753e-02   2.9096667e-01  -4.4791798e-01   6.5117361e-01   3.0648209e-01   8.4337854e-01   8.3874409e-01  -4.9633118e-01  -5.4635854e-01  -7.6279192e-01   1.6400851e-01  -8.4846774e-01  -2.1263035e-02  -5.8891687e-01   6.0702467e-01  -1.3147580e-01   6.7889177e-01  -2.0406829e-01  -4.7342111e-01  -1.1671238e-01   8.0809843e-01  -7.6878936e-01  -5.0456725e-02  -5.2121155e-01   8.3313290e-01   3.5322292e-01   2.7804177e-01   2.5176766e-01  -7.0190052e-02   2.1877740e-01  -4.0607411e-01   5.3787647e-01  -5.6307220e-01   8.0469152e-02   7.3062171e-01   8.1808139e-01   6.5888684e-01  -3.2179756e-01   5.3734631e-01  -6.9031729e-01  -2.1165099e-01  -8.8915467e-01  -5.2530024e-01  -1.0271023e-01   6.5628667e-01  -3.3638094e-01  -4.8329754e-01   3.6287829e-01  -1.0287513e-01   7.0092520e-01   1.8607761e-01  -2.8854125e-01  -1.0693261e-01   7.5663691e-01   4.4374144e-01   3.3163764e-01  -3.2397479e-02  -9.7714894e-02  -2.2453087e-01  -5.5231016e-01   9.6181671e-01   9.9213806e-01   7.7213477e-01   6.5824905e-01  -9.2471614e-01   3.0655442e-01  -6.1875423e-01   7.1797880e-01   1.4713870e-01  -6.2346580e-01   7.4897558e-01  -5.9584480e-01   4.3755789e-01  -8.7224134e-01   3.3923823e-01   4.3355486e-01  -8.0798057e-01  -8.6490929e-01   1.0920572e-01   8.0380283e-02   7.0242854e-01   6.2238382e-01  -2.0699253e-01  -2.7364524e-01  -9.1211251e-01   1.0011110e-01  -7.7807202e-01  -6.8534572e-01  -1.9166219e-01   2.1059661e-01   5.5236863e-01  -3.8746381e-02   5.7872816e-01  -1.3639769e-01   6.3035229e-01  -7.1999418e-02   8.4138849e-01   7.1678485e-01  -2.8099823e-01  -7.7375981e-01  -8.0928358e-01   6.2824632e-01  -3.8235305e-01  -9.9011668e-01  -8.7377644e-01  -8.7195229e-01   1.1490393e-01   6.0979586e-01   4.0060744e-01   7.3614824e-01   1.6393253e-01   8.7796025e-01  -4.4898246e-01  -1.9305935e-01  -8.2891745e-01  -4.2493432e-01   1.7029767e-01  -8.7985238e-02   8.2463185e-01  -7.4874768e-01   4.7710007e-01  -7.6479725e-01  -2.5162594e-01   5.0173208e-01  -4.2493594e-01  -5.9681613e-01  -3.4558384e-01   2.2292447e-01  -6.2903872e-01  -7.5293310e-01  -1.2257880e-01   4.0398836e-01   4.4353511e-01  -4.6788576e-01   1.3629430e-02  -6.4356847e-01  -7.0509763e-01  -9.0036584e-01  -4.2125863e-01   1.2976575e-01   4.8070859e-01  -1.3440180e-01   6.5945190e-01   7.8358447e-01  -5.7752017e-01  -7.2819158e-01   8.4414790e-01   8.4491627e-01  -6.5163273e-01   7.3372361e-01   2.2309379e-01   6.6641755e-01   2.4370113e-01  -9.2920584e-01  -8.2362893e-01  -7.1241518e-01  -3.5933004e-01   6.6515341e-01   2.2669660e-01   2.1940545e-01  -7.1177828e-01  -8.4043025e-01  -5.1863908e-01   5.0409398e-01   7.2457596e-01  -3.0291467e-02   1.0157202e-02  -2.7676434e-01   7.6521135e-01  -9.0606733e-02   5.7982882e-01   3.8281259e-01  -5.1800254e-01   2.1437738e-01  -6.3571556e-01   3.9873237e-01   6.3198864e-01   4.3250146e-02  -4.6048028e-01  -4.0275624e-01   8.0336121e-01  -1.2957556e-01  -4.4596108e-01  -7.5357100e-01   3.1809714e-03   8.1106991e-01   5.4086241e-01  -3.9576930e-01   3.4468986e-01  -7.9553776e-01   3.7143764e-01   9.8881086e-01  -8.2841443e-01  -6.4710797e-01  -4.9594761e-01  -5.8213895e-01   4.4055915e-01  -2.9474160e-01  -3.1722888e-01  -2.4429562e-01  -5.2837317e-01  -6.1920304e-03  -1.6541643e-01  -8.6437961e-01   1.6174085e-01  -7.8593680e-01   4.7808631e-01   5.2431564e-01   1.4544634e-01   8.5129731e-01   8.3649533e-02   4.1162399e-01  -6.9173631e-01   1.9943811e-02  -9.5972943e-01  -3.4731120e-01  -1.2776475e-01   6.2520400e-01  -9.3785565e-01   1.2626868e-02   2.3836192e-01   3.3854635e-02  -3.4044227e-01   8.0331054e-01  -9.4436219e-01   3.5020118e-01  -2.0229061e-01  -4.9772718e-01  -5.7759103e-01   3.6731219e-01  -6.3458368e-01   1.7157543e-01   4.3169086e-01   4.2650750e-01  -1.1442758e-02   6.8703755e-01  -2.8053132e-01   2.8503009e-01  -6.9794313e-01  -3.8775480e-01   9.8724898e-02   4.8736796e-01  -5.1445684e-02  -6.2814512e-01  -3.2455054e-01  -4.3345643e-01  -1.2061131e-01   3.1486111e-01   8.4437817e-01   6.6186671e-01   3.7334503e-01  -2.9139235e-03  -8.6455940e-01   5.1537793e-01  -2.9885173e-01  -5.9063368e-01   6.7565558e-01   5.9525118e-01  -1.6776953e-01  -9.5453156e-01   5.0117498e-02  -9.9442574e-01   2.2174433e-01   3.4876334e-01  -6.9480790e-02  -9.0922494e-02  -7.7529553e-01   4.9544235e-01   7.6153307e-02  -5.8346948e-02   7.5703242e-01  -8.0953357e-01   6.2060727e-01   7.9959265e-01   8.1309009e-01   5.5665377e-02   2.9680647e-01   3.2107999e-02  -1.7162059e-01   6.5998790e-01   5.9731354e-01   3.7412913e-02   5.9890854e-01  -2.1597145e-01  -2.8724783e-01   5.1814399e-01   9.1101012e-01   8.2376652e-03  -9.9171294e-01  -7.4242785e-01   7.6505340e-01  -5.4254142e-01   1.9641335e-01  -4.0452452e-01  -5.9475627e-01  -3.4550159e-01  -5.5680481e-01   3.0597402e-01   1.1443777e-01  -3.0219651e-01   9.3265760e-01   3.9624622e-01   4.3440566e-01  -1.5041039e-01   7.2464062e-01   3.6110789e-01   1.9252947e-01  -6.5006702e-03  -2.0158973e-01  -5.1199036e-01   5.6302664e-01   6.1179745e-01   9.0220816e-01   2.4662304e-01  -9.9207695e-02  -4.7871467e-01  -2.3420467e-01   3.8697739e-01  -1.0119140e-01  -6.1360075e-01   4.6328990e-01   5.9043851e-01  -6.2507913e-01   9.8917570e-01  -4.8648320e-01   8.0946142e-01   4.2729920e-01   6.8377939e-01  -7.8289938e-01  -1.1099470e-01   8.5955837e-01   6.2138675e-01   3.5838705e-01   2.1382108e-01  -4.0260550e-01   4.0672233e-01   1.1436059e-01  -8.3908268e-01   2.7760289e-02  -5.2834130e-01   9.2590977e-01  -5.2160037e-01   3.0867584e-01   8.2100901e-01   1.9482031e-01  -5.4994937e-05  -7.5818253e-01  -5.7557742e-01   2.6065550e-01   7.6627984e-01   6.7834083e-01  -7.4314462e-01  -7.8141162e-01  -4.6272095e-01   8.6748958e-01  -2.8536262e-01  -7.0267579e-01  -6.7049707e-01   9.2920889e-01   5.9896608e-01   7.9297095e-01  -7.9448646e-01  -4.9786753e-01  -3.0007854e-01   4.4654904e-01  -1.9527788e-01  -9.9620565e-01  -3.2556241e-01  -6.9892708e-01  -2.0551843e-01   7.4732932e-01  -4.6893401e-01   9.8021143e-01  -5.9533552e-01   7.4536221e-01  -8.6628639e-01   7.4506265e-01   8.9838489e-01  -8.4706865e-01  -4.1007271e-01  -8.9100307e-01  -3.3009719e-01   5.4840575e-01   9.7194927e-01   9.3077167e-02   4.9399760e-02  -9.4779622e-01  -3.7454260e-01  -8.7033436e-01  -9.9693141e-01   3.8670803e-01   6.8818761e-01  -7.4692643e-01   9.8699649e-01  -3.7386680e-01   4.6876556e-01   2.1401675e-01  -4.2675010e-01  -2.6842030e-01   6.2183149e-01   2.8462659e-01  -5.7695715e-01   5.2137574e-01   5.1743706e-01   5.0457843e-01   4.9021984e-01  -3.0038804e-01  -8.5119867e-02  -1.8520360e-01  -5.1075907e-01  -4.1427647e-01   9.7415676e-01  -6.0904065e-02  -9.5673862e-02  -5.3476102e-01   1.5246841e-01   6.9577420e-01  -8.6339435e-01   9.7652011e-01  -9.5491123e-01   3.7628050e-01  -8.9979789e-01  -4.2043144e-01  -8.9042728e-01   6.5413625e-01   9.4111963e-01  -5.0438316e-01   8.3713414e-01  -1.7815710e-01  -6.1452097e-01   9.6120893e-01  -4.5950381e-01   3.5926560e-01   2.9270490e-01  -9.4690305e-01   6.7461631e-01  -4.4761821e-01   3.3211553e-02   8.7979500e-02  -6.2526890e-01   1.6013442e-01  -1.9126219e-01   6.0956398e-01  -4.9269574e-01  -2.3960685e-01  -3.4845777e-01   7.2704312e-02   6.5999792e-01   4.3491416e-01  -3.8146511e-01   6.2372544e-02  -4.5660249e-01   6.3046810e-01  -7.9773610e-01   4.3153595e-01  -5.7387186e-01   5.6611749e-01  -3.3723397e-01   7.2696353e-01  -9.3834069e-01   8.3545728e-01  -3.3676268e-01  -8.6429089e-01   5.6243407e-01  -5.8098703e-01  -4.8039422e-01  -3.1443530e-01  -5.0498213e-01   3.2452466e-01  -3.1358620e-01  -9.7263459e-01   2.1753979e-01  -3.8290083e-01   2.0794365e-02   5.1108000e-01  -9.2934805e-01   9.4124035e-01   4.1540163e-01  -7.3853833e-01   5.3744428e-01   2.8594085e-01   4.9356562e-01   8.2217361e-01   9.4554493e-01   8.1751476e-01  -8.1161111e-01   7.7247493e-01   5.1628397e-01   6.6028470e-01  -9.6850430e-01   7.8463262e-01  -9.0447925e-01  -4.5403274e-01   8.5861553e-01  -2.4549148e-01  -9.3063452e-01  -9.4189322e-02  -4.6323784e-01  -3.9264588e-01   4.7542385e-01  -9.0192657e-02  -8.0649263e-02   5.6906768e-02  -5.4297733e-01   9.6721943e-01  -9.9489950e-01  -7.5921382e-01
  -3.6728844e-01   6.5585523e-01   9.6174490e-01   3.4958778e-01   3.3194642e-02  -6.1484921e-01  -1.3760422e-01  -2.8947282e-01   2.7483945e-02  -1.3811790e-01  -9.4321872e-01   1.9648519e-01   8.7561391e-01   8.0757935e-01   4.9530679e-01  -9.8701150e-01   9.9802270e-01   8.4012194e-01  -1.0886292e-01  -4.0418370e-02   4.2427774e-01  -8.0271453e-01  -3.3105754e-01  -6.4990600e-01  -1.2751227e-01  -7.8992482e-01   6.5385537e-01  -9.6744525e-01  -8.0015818e-01   7.9704875e-01  -6.4392910e-01   6.1005254e-02  -5.5754156e-02   1.0525166e-02  -3.5097053e-01  -9.6710366e-01   5.9381127e-01   2.8387427e-01   9.5553420e-01  -2.5352555e-01   9.4826137e-01   3.0984642e-01  -2.4780460e-01   6.5802231e-01   5.4786340e-02   7.3558732e-01   3.9779737e-02   9.6495136e-02   2.8174877e-01  -7.5573979e-01  -4.1739806e-02   3.0807811e-01  -2.9602745e-01   5.1346071e-01  -5.9967744e-01   6.4887154e-01  -5.3908934e-01  -2.8022664e-01  -6.9211534e-02  -1.8880718e-01   2.0701244e-01   2.0599303e-02  -6.9620040e-01   2.7933867e-01  -1.4768299e-01   9.9695098e-01   9.5226764e-01   4.6645007e-01   8.0929288e-01   8.8538248e-01  -9.0251412e-01   9.1474752e-01  -3.5676795e-01  -7.4044199e-01   3.3770315e-01   6.2406685e-01   7.5312928e-01   9.3932982e-01   2.3627921e-01   1.9783420e-02   8.6704702e-01   5.6094533e-01   6.8703711e-01   1.9734480e-01  -4.2528030e-01   9.7075043e-01   5.5121472e-01  -4.6489152e-01   8.1336759e-01  -7.1644075e-01   8.3376250e-01   2.0484477e-01  -1.9012039e-01  -8.5964612e-01  -2.9435870e-01   9.0867981e-01  -6.9526015e-01   1.6699495e-01   3.5756610e-01   7.9074727e-01  -9.6061997e-01  -9.6457145e-01  -8.3093813e-01  -3.7467781e-01  -8.6740304e-01  -1.2406643e-01   3.7295640e-01  -4.1146301e-01  -5.2918215e-01  -8.9662100e-01   2.3403235e-01  -7.5868146e-01   2.3377722e-01  -2.6157263e-01  -8.0376657e-01   4.3987301e-01   3.5763648e-01   7.4531908e-01   7.9294253e-01   4.0584188e-02  -5.2553293e-01  -8.5152950e-01   6.8765939e-01  -6.0516139e-01  -9.3431008e-01   9.6527243e-01  -4.9081075e-01   2.8084912e-01   6.2515345e-01   4.4924206e-01   1.5107889e-01   2.6329081e-01  -4.3499690e-01  -4.3847755e-01  -4.7259768e-01  -5.2487429e-03   3.0608958e-01  -4.4106061e-02  -9.5646554e-01   9.0407569e-01  -2.7141818e-01   7.4753743e-01  -1.4839123e-01  -8.9538220e-01  -5.2636445e-01   7.4040582e-01  -7.4478119e-01   7.9690827e-01  -4.4250904e-01   8.8725358e-01  -6.7810077e-01   7.2249257e-01   9.6471765e-01   1.0182255e-01  -6.9289036e-02   9.9858303e-01   6.0695818e-01  -6.6827854e-01  -5.2358473e-01   9.4942518e-01   5.7533956e-01   4.1580585e-01   6.1480175e-01  -6.6458317e-01  -7.7585445e-02  -9.8007330e-01   8.9038910e-01   7.5515447e-01  -4.1935297e-01   4.7598157e-01   8.8716661e-01  -5.8886436e-01  -5.3138113e-01  -7.7464455e-01   1.5460808e-01   2.3692061e-01  -5.5792487e-01   1.5627629e-01  -1.5967288e-01   4.5314591e-01  -8.1336988e-01  -3.5659480e-01   5.9960962e-01  -2.5057207e-01   7.4511426e-01   1.8342109e-01  -7.3121862e-01  -8.7196888e-02  -4.7851354e-02   7.8130579e-02   8.9113506e-01  -5.1228347e-01   9.9901083e-01   5.2031994e-01  -6.1655494e-01   1.6559230e-01   1.2480380e-01  -7.3653819e-01  -6.0614579e-01   9.9888329e-01  -6.7186625e-01  -3.1281762e-01   2.8321241e-01  -6.1814528e-01   5.9217695e-01  -6.6295823e-01  -3.3276405e-01  -1.2204378e-01  -5.1118904e-01   1.3371088e-01   9.5224480e-01   7.9961640e-01  -7.9236699e-01   7.2332221e-01  -4.3851861e-01  -6.1285295e-01   7.3674845e-01   7.3158061e-01  -8.5153635e-01  -9.3246827e-01   8.7090535e-01  -3.0148561e-01   7.5889394e-02  -5.7546744e-01   2.6223886e-01   4.3224923e-01   5.6514732e-01   6.7155392e-01   8.3791428e-01  -8.2250817e-01   8.4480148e-01   9.5381242e-02  -3.1271711e-01   4.7836127e-01   7.3577750e-01  -8.8111114e-01   2.5244806e-01  -4.7319068e-01   9.6969998e-01   1.1412019e-01  -1.0786969e-01  -1.3980558e-01   3.1633791e-01   8.1522103e-01   9.0553762e-01  -7.4275368e-01  -3.6204950e-01   2.5275559e-01   4.6970731e-01  -5.2334276e-01   5.7604879e-01   9.4780035e-01  -2.8922893e-01  -8.6979967e-01   1.5325962e-01   1.5233087e-01   4.6548983e-01  -2.6911266e-01   7.4217053e-01   7.4639220e-01   9.6399833e-01   1.8262553e-01  -8.8952312e-01   4.4281945e-01   7.5595226e-01   5.0253504e-01  -7.0271917e-01  -2.1069032e-01   1.5077990e-01   4.9043489e-01   9.6717154e-01   1.3673956e-01  -5.2687044e-01  -5.1516908e-01  -9.6953310e-01   1.2039218e-01  -4.8747197e-01   5.5465837e-01  -6.9624912e-02  -9.7591169e-01   3.3957336e-02   9.1594163e-01   8.4748551e-01   2.9967457e-01   8.7682199e-01   3.9564040e-01  -5.9344976e-01  -2.9816516e-01   6.5742720e-01  -5.8186038e-01   2.9536432e-01   3.3757196e-01   4.8451551e-01  -5.6714034e-01   8.8345525e-02  -9.5726469e-01   9.4618298e-01  -8.9081290e-02   2.4082212e-01  -3.7198397e-01  -5.0266981e-01   3.8689461e-02  -3.7290448e-01   1.1394595e-01   9.8998326e-01   6.5766296e-01  -9.6385567e-01  -7.4481806e-01  -1.6529459e-01  -5.1010150e-01  -4.8433282e-01  -8.7867640e-01  -8.1033126e-01   8.9427395e-01   3.3490819e-01  -9.4650461e-01   8.1623480e-01   6.1210807e-01   8.6511899e-01  -1.5255602e-01  -9.9574897e-01  -9.8563506e-01   2.8295368e-01   1.9289569e-02  -6.8216959e-01   6.8973764e-01   9.1764922e-01  -8.8444215e-01   5.5797361e-01  -2.6033831e-01  -6.9928946e-01   6.3883202e-01  -2.5111817e-01   8.1220368e-01   8.2050259e-01  -9.7266211e-01   8.3113244e-01  -2.4943812e-01  -9.0481064e-01  -9.6356357e-01  -9.8653009e-01   1.6893273e-01  -6.4821064e-01   6.2945426e-01   8.2779627e-01   4.1816828e-01  -3.1880520e-01   3.5824586e-01  -3.4698285e-01   9.5934149e-02  -6.6091299e-01   8.6564092e-03   7.4492736e-01   1.4958289e-01  -1.4630238e-01  -9.0546794e-01  -4.9640259e-01  -7.5981840e-01  -1.4601542e-01   2.1009111e-01   1.4938089e-01  -1.9506077e-01   9.6948560e-01   4.0817393e-02  -2.6692655e-02   5.4151206e-01  -8.7808971e-01   3.4908553e-01  -1.9369345e-02   9.0193671e-01  -3.9033502e-01   3.0584850e-01   7.3769192e-01  -1.3742567e-01  -8.0298768e-01   2.4110988e-01  -2.3189762e-01   8.6983866e-01  -3.7633855e-01   7.2246916e-01  -8.8411629e-01   8.4672136e-01  -4.2976262e-01  -2.2890899e-01  -5.8970519e-01  -6.8562312e-01  -8.4800116e-01  -4.8885232e-02  -2.0307115e-01   3.5364451e-01   1.1587393e-01   5.8823481e-01  -9.4548282e-01   7.8600230e-02   6.8867758e-01  -4.6444671e-01  -8.8764508e-01   3.2078753e-01  -4.8514154e-01  -1.4980585e-01  -1.4491003e-01  -7.5311382e-02   5.9339095e-01  -6.7994508e-01  -8.3362962e-01   8.1840294e-01   6.5102993e-01  -1.2386243e-01  -9.1880046e-01   3.5039995e-01   8.0929023e-01   9.9946924e-01   3.6816843e-01   2.0271908e-01   8.3725019e-01  -3.5754150e-01  -6.7945294e-02  -4.2979914e-01  -1.5796728e-02  -8.6895835e-01   9.7609913e-01  -8.6912942e-01  -8.5977285e-01  -8.7761287e-02  -9.4714410e-01  -9.8780226e-02  -4.7863863e-02   1.5429134e-01  -9.9665779e-01  -3.0810361e-01   3.7167609e-01  -1.9096799e-01  -8.9975820e-01  -2.5699691e-01  -5.9333108e-01  -3.0104532e-01   9.9238565e-01  -5.1052511e-01  -7.7871112e-01  -8.7116135e-01   6.2912439e-01  -3.7179751e-03   1.8110993e-01  -9.4053604e-01  -1.4582117e-01   8.4045901e-01   2.5384056e-01  -8.1968354e-01   6.2587019e-01  -1.0975778e-01   2.7379664e-01  -7.4993723e-01  -9.0260511e-01   1.7915406e-01  -4.2189343e-01  -5.6418800e-01  -6.9969813e-02  -9.3657331e-01  -1.9838345e-01  -3.5569569e-01   5.4924800e-01   5.7873153e-01   7.6732523e-01   7.8104600e-01   5.9304941e-01   7.4919508e-01   9.1015541e-01  -5.8456426e-01   4.5531733e-01  -6.0413274e-01  -3.5948585e-03   9.4220424e-01  -4.5119472e-01  -4.7941927e-01   5.7972174e-01   1.1734120e-01   6.9977804e-01   9.5103531e-01  -5.3114820e-01  -5.6587986e-01  -8.3575405e-01  -5.6837633e-01   4.4119410e-01  -1.8020674e-02   7.5737314e-01  -3.1426930e-01   3.9301138e-02   5.2364266e-03  -9.7759116e-01   4.9942164e-01   4.0731125e-01   4.8434101e-01  -7.4005910e-01   1.9537107e-01  -2.9493996e-01   8.1248879e-01   5.7398227e-01  -8.8032935e-01   7.0223417e-01  -2.6423886e-01  -3.5124538e-01   5.9972718e-01  -3.1555730e-01   2.9531506e-01   6.6697321e-01  -3.9809458e-01   7.7781706e-01  -4.6435256e-01  -2.1398848e-01   4.5904193e-01  -9.5484551e-01  -1.9488387e-01  -3.8087065e-01  -8.1787745e-01  -5.4696276e-01   4.5373674e-01  -7.4449736e-01  -4.0455729e-01  -4.4792310e-01   2.5299661e-01   2.9414569e-01  -6.5464682e-01  -7.2396044e-01  -5.7807572e-01   1.5006708e-01  -4.3061710e-01   5.6528593e-01  -3.5453490e-01   2.1871827e-02  -4.7652510e-01   5.6754262e-01   5.6564962e-01   6.2470360e-01   9.1170656e-01  -6.3851862e-01   1.3126113e-01  -4.9818031e-02   6.7324122e-01   4.9372514e-01  -6.8734359e-01   5.4362591e-01   7.4472884e-01   6.6341406e-01   6.5800699e-01   1.3450308e-01   9.7133710e-02  -4.0110901e-01   1.7687422e-01  -3.6774016e-01   7.3554773e-01  -9.3199617e-01  -1.2635918e-01   6.1673768e-01  -3.3431224e-01  -5.1260189e-01   7.3642959e-01   1.8598649e-01  -8.3339694e-01   4.5031697e-01   3.2705344e-01   7.0306710e-01  -8.3441912e-01  -3.3460317e-01   4.4110818e-01   7.0918148e-01  -8.0913209e-01  -4.0808338e-01   9.3268470e-01  -4.4675162e-01   9.5963230e-02   9.7715081e-01  -4.3508362e-01   1.8396001e-01   1.3398200e-01  -6.6820286e-01  -1.4536191e-01   7.1483249e-01   5.4520025e-01  -4.1224828e-01   2.3095734e-01   3.3275516e-01  -8.5682505e-01  -9.5946216e-01  -1.7782164e-01   8.7696942e-01  -1.5222116e-01   7.9736607e-01  -8.7147459e-02   3.5093926e-01  -5.6844639e-01  -4.7998450e-01   7.0095615e-01   7.9561773e-01   9.2464408e-01   5.5802275e-01   7.5356875e-01  -9.8458290e-01   6.9414783e-01  -2.3039883e-01   6.8361184e-01  -6.7836949e-01   2.8886990e-01   7.0535107e-01  -9.5308764e-01  -7.8429849e-01   7.1982228e-02   3.2410944e-02   9.1096681e-01  -3.9601339e-01   3.7037476e-01   4.1719622e-01  -3.6488095e-01  -6.9578406e-02   4.4031251e-01   8.9680797e-01  -1.2399778e-01  -2.0019085e-01  -9.6459958e-01   5.9984924e-01   4.2065529e-01  -9.2063637e-01  -5.3295922e-01   6.1486735e-02   8.5383937e-01   8.8376268e-01   1.3995838e-01   2.0825425e-01  -4.6336107e-01  -9.9806419e-01  -3.8548871e-01  -2.1575908e-01  -6.4976482e-01   4.3902164e-01  -6.4765689e-01  -4.7490473e-02   4.6362002e-02   9.6039168e-01  -9.5592856e-01  -3.7376629e-03  -3.2933784e-01   9.2766752e-01   3.7350058e-01   5.7905157e-01  -6.2669464e-01   9.3029340e-01   7.4709255e-01  -7.5687145e-01  -1.7025251e-01   4.1108189e-01   5.9750007e-01   3.4200503e-01   8.2334429e-01  -9.5536839e-01   9.9919156e-02  -7.9080289e-01   7.3112623e-01   6.4789819e-01  -1.6822795e-01  -6.3587956e-01  -8.3224517e-01   3.5149417e-01   4.3391971e-01   9.1783740e-01   8.7558962e-01  -8.2613499e-01   7.0963852e-01   1.1941958e-01  -6.4092882e-02  -4.2571915e-01  -3.4406110e-01   2.3755833e-01   7.7362211e-01  -3.8072837e-01  -3.2814437e-01   7.7639704e-01  -5.9496148e-01  -1.6814568e-01   4.1635983e-01   4.5112208e-01   2.5574242e-01   8.5286235e-01  -5.3802647e-01  -1.9319701e-02  -2.4186645e-01   6.5168229e-02  -6.1391333e-01  -4.0164336e-01   5.3223098e-01   6.6758192e-01  -1.5817013e-01   3.3673252e-01  -2.9069135e-01   6.2578812e-02  -3.7017285e-01  -2.0085978e-01  -3.9327004e-01   5.4339720e-02   4.5270113e-01  -4.6084442e-01   8.2489488e-01   4.2750790e-01   6.6969273e-01   2.2004162e-01  -9.9996741e-01  -4.2661671e-01  -4.6156398e-01   4.9894079e-01  -8.3631819e-01  -3.4403871e-01   7.8620502e-01   4.3852289e-02  -5.0087821e-01   9.1209693e-01  -9.1667243e-01   4.6301932e-01   3.5805752e-02   7.3450914e-01  -5.2113293e-01  -9.7924669e-01  -6.4352827e-01  -2.1032322e-01   7.8119739e-01  -9.1194803e-01   8.1845364e-01   5.6400423e-02  -8.8469168e-01   9.7726364e-01  -1.1727255e-01   3.5677893e-01   6.4926024e-01   1.6465979e-01  -5.6524765e-01   3.5714827e-01   4.7374020e-01   9.4959417e-01  -5.8133994e-01  -1.2216476e-01  -7.5585254e-01   7.4711402e-01  -5.7517815e-02  -4.2581536e-01  -4.8550494e-02  -9.3247569e-02   3.7545824e-01   4.3422408e-01  -4.0227700e-01   5.2381484e-01   4.8703057e-01   4.1008197e-01  -1.3685751e-01   2.8217593e-01   8.8738992e-01  -7.0525093e-01   9.4596703e-01  -2.5800053e-01  -8.3307856e-01  -1.8740522e-01   9.3915522e-01   8.2441541e-01  -5.9875692e-01   6.3116251e-01  -8.2668192e-01  -9.9202989e-01  -6.8345396e-01   5.2842648e-01   3.2870060e-01  -6.2601043e-01  -4.8230726e-02  -2.1805398e-01  -4.5801395e-01   9.5376617e-01  -8.2993541e-01   1.5322347e-02   4.4025981e-01  -1.1008978e-01  -6.0122400e-01   4.0215230e-01   8.3830001e-01  -5.9951378e-01  -6.8682422e-01   4.4753109e-01   5.2158855e-01  -4.2130873e-01   1.0770908e-01  -6.1967580e-01   4.7504957e-01   9.2403562e-01   3.5780297e-01  -7.5709893e-01  -6.3504410e-01  -4.3067049e-01  -9.8338108e-01  -2.6839786e-01   9.8245791e-01  -5.9165641e-01  -8.3708992e-02  -7.1049347e-01   2.4858057e-01  -4.7884662e-01   8.4466344e-01   6.2909752e-01   4.4942666e-01   4.8433404e-01   1.8259655e-01   5.9216446e-01  -3.0530359e-01  -3.0373704e-01  -5.3725555e-01  -5.2788565e-02   3.5751903e-01  -4.9237791e-01   9.7644250e-01   8.1224321e-01  -6.0398340e-01  -4.7082781e-01   5.3184712e-01   7.1170095e-01  -6.6376258e-01  -8.9171010e-01  -8.6896849e-01  -1.2119386e-01  -7.2797939e-01   1.1085838e-01   6.2603927e-01   5.0721575e-01   9.4855234e-01  -5.8728311e-01  -2.9155374e-01  -3.4752687e-01  -7.8646239e-01   1.0066454e-01  -9.9248007e-01   4.0398224e-01  -9.4189325e-01   4.2684682e-01  -2.8725966e-01  -6.6689776e-01   6.6475275e-01   4.6652532e-01  -2.9493828e-01   9.7870007e-01   4.8154468e-01   7.1498673e-01   5.2700158e-02   3.6859683e-01   3.2330552e-02  -6.2669000e-01  -5.3520137e-01   9.4217780e-01  -2.3109938e-01   3.1892573e-01   4.7551982e-01  -8.4796824e-01   8.4367086e-01   5.1994789e-01  -5.7773358e-02   4.7544274e-01   2.3850766e-01   2.2974548e-01   6.9221954e-01   4.5282560e-01   7.4445407e-01   4.9517988e-01  -2.2671037e-01  -9.8230469e-01   8.3782238e-01  -4.7122822e-01  -8.1582297e-01   8.2685391e-01   1.2937966e-01  -3.7046746e-01   1.1991939e-01  -3.7580624e-01  -2.5386372e-01  -6.6232851e-01   8.0515985e-01  -9.5133266e-02  -5.7059174e-01  -3.5180171e-01   2.8248331e-01  -2.8767503e-01   9.2285502e-01   5.5284389e-01  -5.8884658e-01   4.9380886e-01  -2.1121781e-02   5.6631696e-01  -7.0592792e-01  -3.0765623e-01   2.0759259e-01   9.4970167e-01  -6.2487152e-02   1.1633929e-01   4.9052366e-01  -4.9962188e-01   1.2480427e-01   1.8041189e-01   8.6798057e-02   5.3166356e-01  -1.9407266e-01  -1.6107069e-01   1.1696544e-01   6.0950424e-01  -5.2215105e-01   1.2949357e-01  -2.1532164e-01   6.6686641e-01  -7.8449897e-01   9.7832972e-01   2.6870275e-01  -8.0750007e-02  -7.9448580e-01   2.4338203e-01   3.5638687e-01   8.6909880e-01   1.9442716e-01  -7.7268308e-01   4.1274625e-01  -8.9379568e-01   1.6735291e-01  -5.7844264e-01  -5.8385080e-01   5.5519008e-04   4.2589081e-01   4.5617791e-01  -4.2979681e-01  -3.0386255e-01   5.6595642e-01   7.3679706e-01   1.5678081e-01  -7.2899355e-01  -7.5859917e-01   1.9228328e-01   4.3662317e-01   8.4947912e-01   5.7161985e-01  -4.0876354e-01   4.3753951e-01   7.3494479e-01   3.0106588e-01  -6.8384955e-01   1.9956882e-01   3.1082968e-01   9.7505011e-01   4.3056994e-01  -3.5899158e-01  -4.1734283e-01   2.9626288e-01   9.9664259e-01  -6.4491580e-01   4.9633658e-01   5.3927808e-01   5.7528295e-01  -1.7945420e-01  -8.9915160e-01  -7.5431184e-01   8.1205564e-01  -5.1834802e-01   1.5461519e-01   4.2168070e-01  -4.8980715e-01  -8.1127700e-01  -3.8288831e-01   1.6806402e-01  -2.7139258e-01   1.4111228e-01   2.8524984e-01   8.5481367e-01  -4.0560918e-01   4.7412496e-01   1.3327498e-01  -9.8051452e-01   7.6892208e-01  -4.6848544e-01   3.8963262e-01  -8.1541004e-01  -8.0424192e-01  -7.8712891e-01  -9.3844353e-01   4.1192207e-01  -3.1289663e-01  -7.5718983e-01  -4.4420050e-01   9.6779688e-01   4.7187548e-01   1.3990931e-01  -6.3235241e-01  -2.0090517e-01  -7.5118854e-01  -5.7195643e-01  -9.4804302e-01   1.3053322e-01   5.9275318e-01   7.5098614e-01  -7.3277232e-02   6.6345872e-01   4.5896394e-01  -1.4923286e-01  -3.4307086e-01   4.2998927e-01
  -7.6069583e-01   6.4103795e-01   9.5713158e-01  -5.3543954e-01   9.6640538e-01  -8.4387994e-01  -5.7782491e-01   9.7281260e-01   5.6317613e-01   6.6010030e-01  -4.6638125e-01   2.8907170e-01   5.7348594e-01   8.9559445e-01   2.0591631e-01   2.1430953e-01  -4.9517342e-01  -3.0374533e-01  -6.6497338e-01  -2.4805741e-03  -8.1349721e-01  -4.0441356e-01   5.3943412e-01  -1.1058482e-01  -7.6530814e-01   3.4187037e-01   8.8298895e-01  -4.3056981e-02   1.7959566e-01  -8.8832143e-01  -7.2173262e-01   7.8895708e-01  -4.5850013e-01   7.0899766e-01   9.8707995e-01   3.4312857e-01  -4.7402533e-01   9.7813009e-01   9.6929862e-01   3.9277583e-01   2.5985976e-01  -2.7202189e-01  -8.5648351e-01   5.7337759e-01   3.2584057e-01   9.1048241e-01  -5.2672608e-01   4.4070405e-02   3.5940668e-01  -8.2875626e-01   5.4544792e-01  -7.9382112e-01  -2.9093317e-01  -1.8205697e-01  -5.4911188e-01  -1.7947246e-01   3.1563344e-01   6.8887839e-01   6.4574419e-01   8.7084884e-02   4.3229894e-01  -9.5391750e-01  -1.1187893e-01   8.0798702e-01  -6.7583023e-01  -9.4720778e-01  -1.1933266e-02  -8.9354057e-01  -8.1362359e-01   5.9268662e-01   2.4280617e-01  -5.7512131e-01   5.2054586e-01  -9.5258513e-02  -8.1708451e-01   4.2322983e-01   9.6857098e-01  -8.3665910e-01   1.4008303e-02   6.4424728e-01   3.7044468e-02  -5.2445400e-01   8.2706516e-01  -3.0216062e-01   1.2159245e-02   5.1493279e-01   8.0889084e-03   5.1855349e-02  -1.1409258e-01  -5.2335554e-01   2.5566109e-01   9.0786416e-01  -4.4542866e-01   8.2643519e-01  -4.3012805e-01  -4.3949684e-01   9.1519468e-01  -8.2204921e-01   8.5169690e-01  -8.5792413e-01  -4.8616425e-02   4.0743835e-01  -5.1773443e-01  -6.3445214e-02   4.3001208e-01   5.2371004e-01   8.1584971e-01   9.8674504e-01  -6.0536005e-01   3.0507079e-01   3.0819698e-02   8.4123072e-01  -1.7122579e-01   4.4394970e-01   4.3667958e-02   9.9789113e-01   4.2407561e-01   5.9460234e-01   8.1387681e-01   6.4687816e-01  -4.1818563e-01  -3.0388469e-01  -5.2799205e-01  -7.5692564e-01  -5.2694919e-01  -3.0739932e-01  -9.5106985e-01   4.3829594e-01  -2.7485080e-01   5.9236204e-01   6.1217710e-01   7.2065253e-01  -6.7217508e-01  -2.7370150e-01   9.3672184e-01   5.0244676e-01  -7.5699441e-01  -6.8576039e-01  -4.1584626e-01   2.0497885e-01   7.2514754e-01  -8.1754290e-01   4.7047380e-01  -6.0069192e-01   4.1407588e-02   2.0007097e-02  -9.9473548e-01  -4.2894908e-01  -9.5734496e-01  -5.1807496e-01   2.0946554e-01  -7.2672692e-01  -1.4566318e-01  -2.4586730e-01  -3.7376530e-01   9.2885844e-01   6.3480067e-01   8.4325884e-02  -9.7191896e-01   4.4950037e-01  -7.9934701e-01   7.0480998e-01  -6.7448117e-01   8.0976787e-01   5.9127649e-02  -3.9326627e-01  -8.2201912e-01  -5.1326404e-01   7.4104300e-02  -1.4848139e-01   7.5168016e-01   8.3501956e-01  -7.4729654e-02  -6.5940437e-01   3.6455510e-01   7.4097431e-01   3.0284399e-01   8.7329827e-01  -2.5677283e-01  -7.5979554e-01   4.9136386e-01  -3.9410809e-01  -7.1378090e-03   1.3434401e-01  -7.8154455e-01  -8.7563013e-01   6.1053602e-01   7.9320755e-01   6.7609737e-01   7.2661309e-01  -9.7372770e-01  -7.2564756e-01  -1.6502290e-01   1.5122839e-01   2.9378750e-01   1.3776824e-02  -2.5692734e-01  -1.8607484e-01  -1.3185889e-01  -7.1149748e-01  -6.0823079e-01  -5.7333079e-01   1.7442779e-01  -9.8514193e-01   8.6039460e-01  -1.6577941e-01  -2.2963288e-02   1.7302492e-01   4.2954391e-01  -6.4531304e-01   1.0590014e-02   3.0366140e-01  -2.8737196e-01  -3.4810456e-01   8.1493984e-01   9.6783105e-01  -7.6643160e-01   8.9801957e-01   4.7373235e-02  -3.6766015e-01  -9.2356428e-01   5.1745603e-01  -1.1267669e-01  -1.3891624e-01   3.7568519e-01  -1.0906370e-01  -9.7355683e-01   3.9426307e-01  -9.4865644e-01  -8.4741142e-01  -1.2080830e-01  -9.3750688e-01  -1.6802267e-01  -8.1228789e-01   8.1969548e-01   1.1669186e-01  -1.2185518e-01  -6.3416936e-01   7.1662885e-01  -5.7965348e-01   6.0776058e-01   5.0774118e-01  -8.0531945e-01  -8.4780455e-01   9.8940719e-02   4.7129012e-01   9.9719951e-01   8.8953163e-01  -4.9401347e-01   9.4561186e-01   3.8123780e-01  -9.0715882e-01  -3.9096023e-01   5.7323669e-02   7.2632813e-01  -1.5300323e-01  -2.3965570e-01   6.6499912e-01  -3.4126651e-01   8.8829301e-01  -4.7739009e-02  -2.5289430e-01   7.6907002e-01  -5.7182262e-02   9.5616146e-01  -2.7749132e-01   1.3657235e-01   7.5156680e-01  -7.4197351e-01   7.5116133e-01   4.9509647e-02   1.1330203e-01   8.9112742e-01   3.8877478e-04  -3.6575411e-01   4.5041049e-01   3.9065506e-01   9.9230142e-01   7.8741748e-01   4.9407992e-01   4.0902576e-01   4.3032362e-01   3.0645928e-03   6.1661473e-01  -3.1538003e-01  -4.2355205e-01   7.4126966e-01   3.8143249e-01   4.9365608e-01   7.8360664e-01   1.0607984e-03  -3.3737562e-01  -5.6919692e-01  -1.8078710e-01  -6.6720939e-01  -8.8382764e-01   6.8246652e-01   4.4653072e-01  -4.5943388e-01   5.8082010e-02  -7.8227051e-01   2.1481746e-01   5.8643064e-01   7.1893413e-01  -9.0113107e-01   2.5147970e-01  -8.1827837e-01  -6.8585862e-01   8.2639903e-01  -6.6680786e-01   6.9676581e-01  -7.5762013e-01  -7.5222155e-01  -9.9870623e-01   5.5362289e-01   9.1315992e-01  -3.3926304e-01   1.9196826e-01   6.7471995e-01  -4.4065041e-01   5.7118589e-01  -4.8544670e-01  -5.4401183e-01   9.6828846e-01   4.0448311e-01   2.4102176e-01   5.1729489e-01  -4.0264285e-01   7.3604278e-01  -7.9497652e-01   1.4194798e-01   6.7650864e-01   5.0455741e-02   5.9966255e-01   3.0131098e-01   2.5727716e-01   3.4796490e-01   8.6950324e-01   1.8553636e-01   1.4705114e-01  -2.3667084e-01  -1.4473505e-01  -9.5868825e-01   5.5992751e-01   8.1967469e-01   5.6277515e-01   4.8316576e-01   1.7482912e-01   4.0749943e-01  -1.0502753e-01   1.6143270e-01   1.5623496e-01  -9.1723554e-02  -9.7718770e-01  -2.6822405e-01   7.5204422e-02  -5.6813770e-01   6.7904747e-01  -4.5196475e-02  -8.4788623e-01   3.9059708e-01  -4.6870347e-01   1.5830739e-01   7.7284651e-01   3.9988916e-01  -8.7454661e-01  -4.9579353e-01  -2.5800362e-01  -5.6986239e-01  -9.9914087e-01   4.4045522e-01  -7.6344890e-01  -4.1817072e-01  -3.4459881e-01   8.6515783e-01  -6.3083761e-01   2.2687947e-03  -4.1009816e-01  -9.3510112e-01   1.5517253e-01  -5.3315475e-01   5.3975076e-01  -9.4267025e-01   1.7184691e-01   4.3517910e-01   2.0576497e-01   2.7532187e-01  -2.3383561e-01   6.5470290e-01   8.6412459e-01  -9.2351753e-01  -4.5469906e-01  -7.4981988e-01  -3.8813322e-02   1.4829628e-01  -7.7944072e-01   1.6311658e-01   6.8376905e-01  -6.1083264e-01  -2.7615296e-01   6.1034177e-01  -1.5317573e-01   1.1909511e-01  -8.4072831e-02  -8.6483615e-01   9.0260501e-01   6.1794343e-01   1.7722659e-01   2.3163627e-01  -9.1837899e-01   2.1342527e-02  -7.8845220e-01  -4.6758820e-01  -4.2958544e-02  -1.9119251e-01   9.3570595e-01   8.2178099e-01  -2.9877070e-01  -8.5771153e-01   4.8796966e-01  -6.4040303e-01  -5.9311838e-01   9.4069257e-02   2.1761387e-01  -9.8488618e-01   7.5976054e-01   3.9690598e-03  -3.1094804e-01  -4.1793256e-01  -3.0543690e-01  -9.8935622e-01  -3.4897482e-01  -9.0697886e-01  -2.4977958e-01   9.3600725e-01  -5.1527455e-01  -3.9657289e-02  -7.0227069e-01   7.9672426e-01  -2.3424481e-01  -9.3718061e-01   2.8044246e-01  -4.6117873e-01  -1.7672657e-01   7.4197957e-01   3.4475115e-03  -1.5184373e-01  -8.7023172e-01   1.4086366e-01   7.1250609e-01  -8.6236897e-01   8.2783529e-01  -1.2764108e-02  -3.2935379e-01  -7.8377116e-01  -5.9734885e-02   7.4036780e-01   4.2316543e-01  -8.8496120e-01  -7.2160506e-01   3.3687505e-01   3.2468266e-01  -4.9268940e-01  -3.5703641e-01  -6.7931588e-01   9.5116238e-02   9.4386642e-01  -5.9938977e-01   1.4762552e-01  -5.7805769e-01   2.6610816e-01   4.6551010e-01  -2.0382647e-01  -1.8367752e-01   6.8332247e-01  -4.7407793e-01  -3.7307550e-02  -4.8780126e-01   2.0684515e-01   2.2658639e-01  -2.7562679e-01  -9.7664728e-01  -4.7333328e-01  -8.5667439e-01   1.2670222e-02   8.4453157e-01   1.8051547e-01   1.5068641e-01  -8.5581029e-01   4.5128626e-01  -5.8489696e-01   9.9596582e-02   9.5529397e-01  -8.6401952e-01  -5.5681960e-01  -1.4612135e-01   8.1706456e-01   5.3750626e-01  -9.5185394e-01  -6.6692869e-01   6.6191431e-01  -6.4799823e-01   2.6399236e-02   1.6406765e-01  -4.7432055e-01  -5.9230597e-01  -6.7617366e-01   4.6038268e-01   5.9422724e-01   9.3773175e-01   2.5467421e-01   1.8580063e-01   5.2476253e-01   8.7052651e-02   9.0497886e-01   6.2234027e-01  -1.8993750e-01   5.7978957e-01   4.0380684e-01   3.3711040e-01  -9.5126348e-01  -8.0007111e-01   8.5482705e-01   9.3751568e-01   5.8330523e-01   3.8024378e-01   3.1219706e-01   4.6433192e-01   7.8599617e-01  -2.6404665e-01  -1.5110489e-01   4.3647985e-01  -8.0696204e-01  -6.9711630e-01   7.6438920e-01  -7.4385685e-01   6.8624719e-01  -1.6787575e-01  -1.2819996e-02  -6.3767634e-02   9.7068007e-01  -9.8502639e-01   3.3662999e-01  -5.5168953e-01  -6.5915731e-01   5.2336690e-01  -9.4141153e-01  -4.4602655e-01  -1.7487922e-01   2.3636553e-01   8.8108921e-01  -6.1082857e-01  -2.9198012e-01  -7.6515882e-01   7.3699290e-01   9.0983584e-01   4.4957785e-01  -2.4445033e-01  -6.5907216e-01   2.1554887e-01   5.3884107e-01  -1.5096617e-02   9.5818959e-01  -3.4629399e-01  -1.0380427e-01   8.7330237e-01  -6.8312191e-01   5.7866256e-01   1.8909925e-01  -3.4386255e-01   5.2794929e-01  -7.5131222e-01  -9.9201536e-01  -7.5579756e-01  -8.7153703e-01   7.6923382e-01  -6.4267405e-01   2.3063563e-01  -7.9145704e-01   4.7606429e-01   3.4206049e-01  -5.0870648e-01  -5.3594910e-01  -6.8554821e-01  -3.1186061e-01   6.8758886e-01  -5.2650008e-01  -6.1809751e-01   4.6754830e-02  -9.3477872e-01  -1.6439236e-01   5.0206384e-01  -4.3346774e-02   9.4006474e-01  -6.4508089e-01   6.4647204e-01   8.4746112e-01   5.3541401e-01  -4.0399452e-01   1.2154244e-01  -6.5185089e-01  -7.0830649e-01   9.7102100e-01   2.7506366e-01  -7.6033220e-02   1.5175140e-02  -4.6862399e-01   1.5881658e-01  -4.5895767e-01  -3.8664300e-01  -9.5541538e-01  -8.3689757e-02  -1.1125178e-01   6.6877527e-01   5.2696128e-01  -4.4498950e-01  -1.8678354e-01  -2.9676623e-01   4.1786129e-01   4.2978101e-01   9.5189588e-01   3.1217872e-01  -4.2810940e-01  -5.6052267e-01   6.4161718e-01  -2.8046328e-01  -4.7605773e-01  -2.1213793e-01   7.5313532e-01  -8.5847271e-01   7.4866824e-01   4.2043128e-01  -6.8892359e-01   1.3806277e-01   9.3752782e-01  -8.1644176e-01   2.5891861e-01   2.1453310e-01  -3.4201828e-01  -6.5367016e-01  -1.2478253e-01   8.8473163e-01  -1.4255213e-01  -3.1498716e-01  -2.1128435e-01  -9.9945899e-01   2.3203761e-01   5.2831369e-01   5.3048539e-01   6.4355418e-01   2.0363328e-01   6.4717846e-01   5.8445932e-01  -1.0464730e-01  -7.6881731e-02  -2.9336360e-01   7.3579514e-01  -6.4790841e-01  -7.9603648e-01  -5.2126341e-01   4.2148820e-01  -9.2652019e-01   4.1889426e-01  -1.0881129e-01  -7.2389809e-01  -3.0841973e-01   1.3565746e-01   6.0637735e-01   4.1982185e-01   9.3517705e-01  -7.9048480e-01  -3.9055545e-01  -1.0099884e-01   1.1044344e-01  -1.4484192e-01  -6.5242844e-01   8.3216536e-01   9.5615284e-01  -2.2070706e-01   1.2119550e-01   3.8994755e-01   3.8750611e-01  -1.4519999e-01   4.9098050e-01   9.8394290e-01  -8.9832537e-01  -1.4105284e-01   8.0140678e-01  -2.2923033e-01   7.3365348e-01  -2.6035012e-01  -4.7561805e-01   9.1965149e-01   9.0197107e-02  -8.1543037e-01  -8.6706722e-01   3.6834850e-01  -9.2171813e-01   9.7491759e-01   4.2671903e-01  -2.0548903e-01   2.0368081e-01   5.4158017e-01   6.9745619e-01  -4.7331685e-01   6.6265702e-01   8.8610963e-01  -3.7785280e-01  -7.1540515e-01   8.8264958e-01   5.4877968e-01   2.6165574e-01  -2.1264251e-01  -9.1268549e-01  -6.2458620e-01   6.3993330e-01   6.6826938e-02   6.3070520e-01   6.9330749e-01   8.8101000e-02  -3.0360316e-01  -3.8080551e-01  -1.7513081e-01   9.2892826e-01  -8.4285534e-01  -3.9658414e-01   3.4918044e-01   8.8058628e-01  -2.5756926e-01  -5.9364612e-01  -5.3539241e-01  -9.7383840e-01   6.6422201e-01  -3.6947605e-01  -7.0659968e-01  -9.1392961e-01   9.5981076e-01  -3.8570995e-01  -6.7344305e-01  -6.3132364e-01  -9.9110689e-01  -4.0952076e-01  -6.6634413e-01   5.4457222e-01  -2.6468061e-01  -4.7160666e-01   5.1346478e-01  -2.1893738e-01  -9.4976362e-01   2.2058384e-01   1.4336433e-01  -9.6097233e-01   5.6661123e-01  -7.6246701e-01  -1.6142096e-01   5.6720083e-01   1.5965331e-01  -9.1193009e-01   4.6337148e-01   6.9079615e-01  -9.0601111e-01  -4.3479129e-02  -2.9900551e-01  -3.8814541e-01   3.4164637e-01  -6.5434630e-01  -3.3387689e-01   3.1912726e-01  -2.1729872e-01   5.1195200e-01  -3.0496380e-01  -1.9798668e-01  -5.6384273e-01  -4.3409603e-01  -9.5676592e-01   8.7546265e-01  -4.9763677e-01   1.3405844e-01   9.0528650e-01  -3.7017670e-01   9.8267089e-02   8.5683747e-02  -9.8112152e-01   1.7552881e-01   2.1861051e-01  -9.2524951e-01  -9.3957768e-02  -4.8861927e-02  -4.3878236e-01  -7.2177743e-01  -2.8479478e-01  -5.1977802e-01  -8.2012183e-02  -3.6797884e-01   6.1156163e-01  -6.7624610e-01  -2.5301057e-01   8.6182939e-01  -2.6438792e-01   5.1878336e-01   4.6163300e-01  -9.4030263e-01   4.1376613e-01  -9.5851257e-02   3.9367183e-01  -6.7362865e-01   8.6991009e-01  -6.0774937e-01  -7.7469141e-02   9.1279258e-01   8.4117953e-01  -4.1183230e-01   1.5988097e-01   6.1900616e-02   4.6531161e-01   4.9323040e-01   2.1184670e-02   6.2062475e-01  -6.4365540e-01  -2.8440964e-01  -6.5335893e-01   6.0113478e-01   4.9707107e-01  -5.1411949e-01  -9.7328918e-01   6.5491159e-01  -6.4145115e-01  -6.1856788e-01   4.6513001e-01   9.5287015e-01  -4.8658271e-02   9.4343949e-01  -3.0454873e-01  -3.3286482e-02   1.4337057e-01   2.5119214e-01  -4.6532964e-01  -3.0739511e-01  -2.9309551e-01  -4.1196811e-01  -4.8374743e-01   2.5228965e-01  -5.8922632e-01  -9.6259573e-01  -9.1418609e-01   2.7587952e-01   9.1406510e-01  -7.8666726e-01  -2.3117131e-01  -4.3103725e-01  -4.4370750e-01   3.4354970e-01  -8.1273794e-01  -7.9659126e-01   6.3131636e-01  -7.3204145e-01  -3.7490594e-01   9.0229716e-01  -1.6336747e-01   9.9233157e-01   3.7682471e-01   4.1674792e-01  -8.5679930e-02   2.8383591e-03   9.5562146e-01  -3.1925666e-01  -9.3307294e-01   6.3240905e-01   3.0167729e-01   9.0684864e-01   8.7514571e-01   5.9617059e-01  -8.0692040e-01  -7.2986970e-02   4.4811906e-01  -8.5210358e-01   4.2513533e-01   7.5049993e-01   6.6598859e-01  -4.2378725e-03   2.0182570e-01   5.0076119e-01   5.2967718e-01  -9.3960372e-01  -7.5133953e-01  -2.3081213e-01   4.3800241e-01   1.9619365e-01  -8.6653332e-01  -8.6606971e-01   3.8085306e-01  -6.3256251e-01   1.9439070e-01   4.1415626e-01   8.8924648e-01   9.4216971e-01  -1.1427668e-01  -4.1034490e-01   7.0697213e-02   5.3751952e-01  -7.7922629e-02  -8.1095476e-01   7.7005032e-01  -3.0079179e-01  -6.7559802e-01   4.2157952e-01   7.5618213e-01  -4.6954959e-01  -6.8775138e-01   4.4181241e-01   8.7529082e-01   1.5822631e-01   9.6065589e-01   3.5086310e-01  -4.6425864e-01  -5.7024807e-01  -7.9526284e-02  -6.9888013e-01   4.9970066e-01  -8.9944101e-01   4.8792739e-01  -6.6610720e-01   9.1060896e-01   5.4906010e-01   9.1879959e-03   3.4893189e-02   5.5482555e-01  -6.6292040e-02   5.8747228e-01   7.3984628e-03   6.6464423e-01  -9.0092471e-01   6.0625540e-01   5.1942978e-01   6.6926196e-01  -1.2785632e-01  -8.7070719e-01   4.8620099e-01   4.8599484e-01  -1.5201990e-02   5.1828940e-01  -8.5065861e-01  -1.2469598e-01   5.8073307e-01   4.2130334e-02  -2.3757319e-01   6.6600607e-01  -2.9112397e-01   2.7885735e-01  -3.6452187e-01   8.5205909e-01  -6.5791275e-01  -4.8015321e-01  -7.5248900e-01   3.9274786e-01  -3.1040223e-01   6.9293606e-01  -9.5043230e-01  -6.7875425e-01   2.7693175e-01  -5.2980704e-01  -7.7335320e-01  -4.1105249e-02  -2.5928532e-02  -1.8809364e-01   5.4303322e-01  -5.1818530e-02   4.8795333e-01   2.6910504e-01  -6.3254594e-01   5.7155865e-01  -9.8969506e-01   8.7470862e-01  -5.5630445e-01  -8.2217920e-01   6.6492449e-01  -4.8004897e-01   6.9948027e-01  -4.5502647e-01   1.7634892e-01   4.3823532e-01  -3.4624239e-01   7.9524458e-01   9.2630203e-03  -5.1485636e-01  -8.9111624e-02  -6.8536450e-01  -9.4658525e-01   7.0761264e-01  -8.1387307e-01   3.8243504e-01  -4.2153395e-01   1.9376699e-02   8.2753294e-01  -6.6946054e-01   5.4118618e-01  -6.6237627e-01  -4.6129446e-01  -3.8574626e-01   7.3987384e-01
   5.7674297e-01  -7.9895544e-01  -7.2844663e-01  -3.9569170e-01   1.0348555e-01  -4.0314166e-01   6.9955162e-01  -7.8972080e-01  -2.6294057e-01   9.5393224e-01   6.6173719e-01  -3.8758430e-01  -8.1266040e-01   5.2587631e-01  -8.7026339e-01  -3.7448363e-01  -5.1160876e-02   5.4778554e-01   4.6968240e-02   3.7831738e-01  -2.5159386e-01  -4.2918222e-02   2.9541224e-01  -7.9400090e-01   2.7415112e-01   5.2391105e-01  -2.3560195e-01  -9.9625865e-01  -6.6921572e-01  -4.9197266e-01   9.2026041e-01  -3.5793235e-01   2.0974472e-01   3.1727591e-01   7.3599706e-01   8.6032246e-01  -6.2988065e-01  -2.4695708e-01  -1.4439031e-01   7.6098852e-01   7.9975542e-01   2.0699162e-01  -3.7154259e-01  -9.1432303e-01  -7.0994247e-01   3.2836445e-01   7.7318407e-01  -9.0103545e-01   8.5380787e-01  -2.6593961e-02   7.9121957e-01  -6.4836729e-01  -5.8178976e-01  -4.4628673e-01  -3.6495212e-01  -4.1256716e-01   9.1629790e-01   8.1444884e-01  -1.4448864e-01   8.4918598e-01  -9.1607899e-01  -4.0469769e-01  -8.3882186e-01  -9.3957216e-01  -5.7954537e-01  -8.8352341e-01   4.2666477e-01   6.4111599e-01  -2.6380897e-01  -4.8247243e-01   5.8984202e-01   3.8719405e-02   5.0274580e-01   5.0769099e-01   4.4990261e-02   2.5370655e-01  -2.6900510e-01   3.6361037e-01  -9.6170925e-01  -6.6987398e-02  -4.5185845e-01  -9.7163962e-01   2.8518280e-02  -8.4936359e-01   3.8191662e-01  -1.3737095e-01   6.7131166e-01   9.4486810e-01   5.1482295e-02   7.9322290e-01   4.5158819e-02   5.4543849e-03  -5.4313987e-01  -4.8804746e-01   9.6723557e-01   1.6578986e-01  -9.1561443e-01  -4.9318132e-01   1.6614572e-01   3.5334834e-01  -4.8529031e-01  -9.3396886e-01  -2.1629571e-01   2.9903254e-01  -8.1568171e-01   7.6298049e-01   7.4005680e-01  -4.0955932e-01   2.3580649e-02  -3.2041657e-01   2.9112747e-01  -5.7327764e-01   3.1199137e-01  -7.5626673e-01  -7.9418930e-01   3.0459469e-01   5.2213083e-01  -5.6758231e-01  -2.0779454e-01  -6.5475435e-01  -4.6586813e-01  -7.3948859e-02  -2.8778298e-01  -9.1250413e-01  -6.2920359e-01  -8.7911636e-01  -1.2220926e-01  -5.9958670e-01  -4.8599028e-01   9.4228973e-02  -3.7789781e-01   9.1735378e-01  -9.3074159e-01   4.0882501e-01   9.8382169e-01  -5.0580395e-01   1.3886348e-01  -5.9920052e-01   6.7442349e-01   6.2752661e-01   3.1561783e-01  -4.5922966e-01   2.3178465e-01  -7.9950001e-01   8.1653148e-01   4.6845822e-01  -9.7478554e-01   6.5099669e-01  -6.8015857e-01  -1.3757876e-01  -2.9141305e-01   9.2560210e-01   2.5128606e-01  -1.7692669e-01   2.0629121e-01   1.9476250e-01   2.0990464e-01   6.7437262e-01   7.4051817e-01  -2.3866968e-01   7.9950369e-01   2.2265848e-01  -1.6220945e-01   7.2951239e-01  -5.3014963e-01   8.4576546e-01   6.8761576e-01  -9.9741914e-01   2.8963328e-01  -3.9078206e-01   4.7255658e-02   3.9622220e-02   3.1923410e-01   6.5922043e-01   7.3254634e-01   2.0700055e-01  -2.9675193e-01  -8.5303027e-01   2.3029308e-01   6.9456119e-01   4.3889469e-02   6.4548959e-01   3.0167421e-01   6.3726413e-01  -6.0137581e-01   1.9516004e-01  -5.7378650e-01   6.7086344e-01   2.3796498e-01   2.1651515e-01  -2.3411651e-01   9.4354476e-01  -1.6787543e-01   5.4541563e-01  -1.4237000e-01  -8.1777010e-01  -5.6429508e-01  -7.3905945e-01   4.7001278e-01   8.1340526e-01   8.8947697e-01   7.4106756e-01  -5.3835025e-01  -1.1459002e-01  -2.4707549e-01   6.2491038e-01  -5.3365299e-01   2.8073967e-01  -8.3174333e-02  -3.3175495e-02   1.6849861e-01  -4.2349995e-01   7.9478865e-01   5.9001913e-01   5.3554730e-01  -8.1039332e-01  -1.9256115e-01   1.9117747e-01   1.8196555e-01   4.1946742e-02  -2.9565693e-02  -7.6983205e-02   5.9480589e-01  -6.3530245e-01  -2.4747750e-01   7.6031039e-01   3.8995322e-01   9.9796672e-01   5.7673203e-01   8.1587739e-01   2.7645971e-03   8.6154902e-02  -8.1688884e-01   2.6758322e-03  -5.6924981e-01   6.7476903e-01  -7.9861429e-01  -3.5897010e-01  -7.0891576e-01  -6.9615618e-01  -7.5964664e-01  -7.6494034e-01  -1.6671820e-01   2.8559352e-01  -1.2075878e-01   8.6078875e-01  -6.5765419e-03   6.7373166e-01  -2.4031351e-01   3.3521659e-01  -8.2285589e-01   5.8196780e-01   4.3899143e-01   9.0157508e-01  -7.1561759e-01  -7.5722497e-01  -6.0235601e-01   5.2770199e-01   4.7913208e-01   7.2227412e-01  -7.1817458e-02  -8.0072619e-01  -5.8786411e-01   6.3664822e-01   8.0698547e-01  -9.9031070e-03  -6.5556615e-01   9.6604931e-01   8.5575681e-01  -9.0211720e-01   7.0672421e-01  -9.3776345e-01   5.1258659e-02   6.8437846e-01   9.4319972e-01  -2.9834234e-01  -8.2542163e-01  -4.8714966e-01  -3.1937315e-01   1.8745440e-01  -4.3572576e-01   5.9232559e-01  -5.7734705e-01   4.7221760e-01  -7.4952693e-01  -9.1907323e-01  -2.4464137e-01   4.6507098e-01   7.8261389e-01  -5.9289419e-01  -4.2010947e-01  -3.5065209e-01  -2.7865549e-01  -1.7651090e-01  -4.0275135e-01  -2.1032313e-01  -2.3520875e-01  -3.9200249e-03  -8.3289923e-01  -1.8488370e-01  -9.0227196e-01   6.6378994e-01   5.7454384e-01  -6.1185909e-01  -5.3303477e-01  -7.2037576e-01   5.8301156e-01  -2.3585450e-01   3.5019562e-01  -3.3932123e-01  -2.9698364e-02   2.2695172e-01   8.5097785e-01  -7.1149611e-01   2.8594538e-01  -4.1362325e-01   3.1986083e-01  -8.7819730e-01  -9.7928785e-02   5.0737024e-01  -6.9744470e-01   7.8118199e-01   3.0508108e-01   6.5561856e-01  -3.7664861e-01  -6.1360811e-01  -8.5627177e-01   2.6587636e-01   8.7585642e-01  -9.5223533e-01  -7.3692364e-01   7.0218166e-01  -6.4766128e-01   5.2165256e-01  -1.0888248e-01   2.7115304e-01  -3.3230279e-01  -9.4213040e-01   9.8132308e-01  -2.6892597e-01  -4.1955335e-01   4.2513577e-01  -1.7491575e-01  -7.4014666e-01   1.9103749e-01   2.8612582e-01  -3.2575729e-01  -5.6536368e-01   5.6045705e-01   8.5345119e-01  -1.6635275e-01  -4.6686335e-02   5.6753013e-01   7.1085013e-01  -8.6310051e-01   9.6588313e-01  -1.5917710e-01  -4.2111015e-01   1.0631781e-02   8.5323915e-01   1.0904658e-01  -3.2647363e-01  -2.5122550e-01  -3.2921558e-01  -8.1347569e-01   8.2552508e-01   1.3382185e-01  -1.8839726e-01  -3.2091450e-01   1.1189732e-01  -2.2369201e-02  -5.4630136e-01   6.4666836e-01  -9.0046459e-01   9.4178015e-01  -8.0943997e-01   3.8070141e-01  -7.3163411e-01   7.8652289e-02  -8.2421450e-01  -3.5609275e-01  -4.0214976e-02  -2.9851824e-01   1.2679307e-01  -5.1968866e-01   1.9402322e-01   3.0922593e-01  -5.4066449e-01  -7.5322522e-02   6.1356569e-01  -4.7358199e-01   6.2033391e-01  -8.5113089e-01   7.5346334e-01  -9.5222441e-01  -9.1420294e-01   8.1539234e-01  -8.0836456e-01   5.8519485e-02   4.8864702e-01   9.1075899e-01   2.0998039e-01  -1.9688135e-01   9.4165460e-01  -2.4908875e-01  -8.8885277e-01   8.9538977e-02   8.8297687e-01  -7.5258424e-01  -1.3143920e-02  -4.8401003e-02   5.6508986e-01   7.0645744e-02  -8.4020539e-01  -5.0814309e-01  -1.2487867e-01   5.7848128e-01  -1.9098031e-01   3.8818543e-01  -6.9419067e-01  -9.0981603e-01   6.6084232e-01  -5.3036790e-01  -7.2192239e-01  -5.6172725e-01  -1.3166539e-02   7.4219380e-01   9.3838987e-01  -8.8649881e-01   8.0858254e-01   3.0078931e-01  -5.8780814e-01  -3.7646076e-01  -2.9827877e-01  -6.4743450e-01   8.8404560e-01  -3.3371715e-01   9.5361634e-02   4.7028700e-01   7.3406177e-01   5.1581124e-01  -1.5847275e-01  -9.1914985e-01   6.3023898e-01   3.1894301e-01   3.3311563e-01   3.3494807e-01   6.3460249e-01   8.1221441e-01  -8.7386367e-01   2.6306114e-02   3.7144055e-01   9.1286372e-01   1.4828526e-01  -1.0402486e-01   9.5994212e-01  -3.1913011e-01  -9.9688488e-01   6.0926689e-01   2.9188544e-01   8.0243773e-01  -8.3576505e-01   4.1954028e-01   8.8243066e-01   5.0248835e-01  -9.0421874e-01   4.9659997e-01   2.1118332e-01   1.5106133e-01  -9.0184887e-01   2.9285673e-01  -5.7896495e-01   6.2397548e-01   8.2522145e-01   6.7834615e-01   2.4721064e-01  -3.9917846e-01  -7.0254044e-01   6.1545992e-01   9.4788241e-01   9.4318684e-01   9.7515206e-01  -9.6688020e-01  -8.3629125e-01  -5.2913166e-01   3.0127587e-01  -6.1950807e-01  -7.4693292e-01  -7.6121790e-01   6.2597773e-01   4.7424883e-01   3.2746891e-01   9.1902576e-01  -9.9760465e-01  -5.8512674e-02   4.3940383e-01  -9.4359618e-01   1.8449426e-04  -7.0491824e-01   3.7415072e-03   5.9692050e-01  -1.4297638e-01  -4.4393419e-01  -4.8180456e-01   7.9738093e-01   3.9953659e-01  -8.1116892e-01  -5.3276490e-01   7.3042328e-01   3.9249116e-01   7.0445986e-02  -2.2160758e-01   8.7698532e-01   9.4539438e-01   8.7631544e-01   3.9696271e-01   6.8451739e-01  -2.5703211e-02   5.7147380e-02  -2.3931340e-01   4.4312550e-01  -9.3763264e-01  -4.4408426e-01  -5.8785234e-02   8.4147625e-01  -7.4266288e-01   3.3695800e-01   6.4760518e-01   5.7653582e-01   8.4307191e-01  -1.5339135e-01  -8.4056613e-01  -3.0853724e-01  -3.2573546e-01  -3.5070126e-01  -6.3500303e-01  -7.9699377e-01  -2.3658337e-01  -6.0668228e-01   6.6611357e-01   9.3715470e-02  -5.8649996e-01  -4.9813660e-01   9.3042334e-01   8.1550516e-01   6.6402103e-01   7.9319782e-01  -2.1611334e-01   4.8515017e-01  -5.1034091e-01  -8.7221012e-01  -8.6378778e-01   9.2624973e-01  -4.3176001e-01  -1.6318017e-01   3.4283501e-01  -7.1139485e-01  -7.1465548e-01  -1.2642932e-01   6.1428160e-01  -2.6727418e-01   2.4290393e-01   9.6459257e-01  -6.8977032e-01  -2.4047355e-01   6.6097387e-01   6.7699200e-01   2.9359499e-01  -9.2950769e-03  -3.7720170e-01  -3.1654912e-01  -5.2391179e-01  -4.7183149e-01   3.9097787e-01   5.4779870e-01   7.5685437e-01  -9.1209710e-01   5.8974194e-01  -6.5979063e-01  -5.5293251e-01  -8.0581562e-01   5.6170465e-01  -7.1549747e-01   2.8403012e-01  -2.7472412e-01  -1.6513007e-01   4.2964291e-01  -2.5958604e-02  -1.4036074e-01  -3.9505298e-01  -1.2220700e-02   6.2790180e-03   9.5529408e-01   4.3666659e-01  -9.2149855e-01  -2.6440779e-01   9.9188961e-01  -3.1786516e-01   6.2994806e-01  -9.4861651e-01  -9.1596296e-01  -7.3793729e-01  -1.2250646e-01   5.5617403e-01  -4.4100878e-01   1.6741932e-01   3.4308246e-01   8.8086814e-01  -7.0099307e-01  -3.2220060e-01  -4.8357764e-01  -8.7194331e-01  -5.7439852e-01   6.8290891e-01   1.0082547e-01  -3.5409803e-01  -7.5199842e-01   1.2951261e-01   3.6187374e-01   1.5921510e-01  -3.7591220e-01  -5.0783777e-01  -5.9695222e-02  -7.8472863e-01   2.8776851e-01  -2.0023771e-01  -3.1795818e-03   5.3820506e-01   7.6805997e-01   6.1216577e-01   9.4580485e-01   4.6371735e-01  -6.4164434e-01  -1.6229491e-01  -2.1235310e-01  -8.3734805e-01  -7.5020687e-01   9.9102324e-02   8.1410693e-01   1.8894267e-01  -8.3844531e-01  -4.7459619e-01   2.8857525e-01  -3.0648592e-01  -6.6342874e-01  -4.9926773e-01   1.8631024e-01  -6.0500472e-01  -4.7322437e-01  -4.3811150e-01  -1.3694822e-03   5.4422493e-02  -2.5614269e-01  -1.1874073e-01  -2.1071486e-01  -1.0709077e-01  -6.3705149e-01  -1.9928321e-01  -6.5686069e-01   4.3133467e-01  -7.5735094e-01  -6.8357723e-01  -4.7554320e-01   5.4226024e-01  -1.1023787e-01   8.2971524e-01  -8.5033121e-01  -4.4646909e-01   6.8850446e-01  -2.6015285e-01   8.8006374e-01   7.7923356e-01   9.7996709e-01   4.6089733e-01   9.9683994e-02  -4.1312253e-01  -1.5964950e-01  -3.5281445e-01  -2.7661798e-01  -7.5365823e-01   6.6103621e-01   6.9032762e-01   2.2850385e-02  -6.7992393e-01   7.2595814e-01  -5.2473199e-01   4.0080037e-02  -9.4134849e-01   7.5817983e-01   6.7139968e-01  -5.9445139e-01   8.0103924e-01   9.3601873e-01  -9.7579675e-02   5.0560573e-01  -9.7012787e-01  -1.0910396e-01   3.0139931e-01  -3.1175449e-01  -2.6179059e-01  -1.9376795e-01   1.6670032e-01   7.7776918e-01  -6.0394767e-01   1.1321634e-01   1.3737348e-01   7.5295353e-01  -9.8714007e-01   7.0736927e-01   3.8114680e-01  -8.4250504e-01  -3.3815708e-01   8.5713942e-01   9.6183763e-01  -1.7618314e-01  -2.8173535e-01   8.1985543e-01   2.9326309e-01   8.0634143e-03  -3.6932382e-01   7.6937831e-01   3.1743843e-01  -6.2669988e-01   2.4447080e-02   9.0695110e-01   2.7626335e-01   5.9968815e-01  -7.4717092e-01   9.5464305e-01   8.2599009e-01   6.6364631e-01  -5.9855294e-01  -2.1379710e-01  -5.5453339e-01   8.3336915e-01   5.3751749e-01   7.5377503e-01   1.2104620e-02  -8.3465991e-01   7.3691887e-01   3.7244971e-02  -9.3452513e-01   1.3781310e-01   1.5428668e-01   2.3342092e-01   5.6670271e-01  -9.8430983e-01  -2.5269332e-01  -2.1026260e-01  -7.4073468e-01  -1.0036892e-01  -1.6967894e-01  -4.3510094e-01   5.9183931e-01   3.7566152e-01   9.8869470e-01   3.1324125e-01   3.9229227e-01  -7.1763589e-01   8.9092397e-01   7.2409105e-01  -3.5657183e-01  -2.3736799e-01  -8.1378954e-01   7.6970941e-01  -2.2751030e-01  -4.1742901e-01   2.7431784e-01   2.5747111e-01  -9.3267751e-01  -9.6386250e-01   1.2389370e-02   3.8137869e-02  -7.8154331e-01   7.4934202e-01   4.2793827e-01   8.7576557e-01  -7.0592777e-01  -5.1394712e-01  -5.3184365e-01   1.6117492e-03   2.0234236e-01   1.4103652e-01   7.1437829e-02  -9.5991809e-01  -9.6184925e-01   5.1493360e-01  -1.5682683e-01   7.6732269e-01   3.5962069e-01  -3.5557664e-01  -7.2426593e-01  -7.9399103e-01   4.2179433e-01   7.5044412e-01   4.6528761e-01  -6.0449438e-01   3.6509243e-01   5.8080576e-01  -6.8190030e-01  -2.3568310e-01   4.4806808e-02  -1.9100384e-02  -1.1390885e-01  -7.5531426e-01  -1.4615943e-01   5.4017007e-01   3.9336357e-01  -2.0843114e-01  -8.6284816e-02   2.2913726e-01  -1.5392323e-01   3.7156543e-01  -6.8077877e-01  -1.2763435e-01   5.7491636e-01  -6.3632825e-01  -5.8402955e-01   4.3302234e-01  -8.0029805e-01  -7.5748595e-01  -5.8276275e-02   7.9230406e-01   1.5692976e-01  -6.1377547e-01   4.9588242e-01  -8.5127802e-01   3.8345795e-02  -6.1756003e-01  -6.4723252e-01   1.7758138e-01  -9.9872612e-01  -7.8241541e-01   1.3397232e-01  -4.5908839e-01  -3.6745269e-01  -5.3156248e-01  -7.5328962e-01   3.0579269e-01  -4.8480238e-01  -9.8616986e-01   1.7194667e-01  -7.3455112e-01   9.1684021e-01  -9.4878608e-01  -1.2286495e-01   5.6369959e-01  -4.6049004e-01   4.2093667e-01   5.6285404e-01   2.0827641e-01   2.2469812e-01   6.4164355e-01   5.1713904e-01  -9.6871122e-01   9.0998418e-01   1.1619800e-01  -5.0600929e-01   6.9712687e-01   7.3120082e-02   2.6318811e-01   7.8206656e-01  -1.4120783e-02  -3.2349688e-01  -5.9509638e-01   3.2245598e-01  -1.6120733e-02   1.2023324e-01   6.9089697e-01  -6.7096582e-01  -9.6055391e-01  -9.0716977e-01   3.0198000e-01   8.9665497e-01  -6.3049013e-01  -1.3418897e-01  -7.8248182e-01  -5.9305515e-01  -3.0483055e-01   1.8511548e-01   6.5416362e-02  -5.3080807e-01   4.4033277e-01   7.2684784e-01   8.0368580e-01  -7.3013124e-01  -2.6787173e-01   7.3253480e-01  -3.3460208e-01   4.1943720e-01  -7.4479069e-01  -4.1413591e-01  -9.6948934e-02   8.5683832e-01   9.8446104e-01  -9.8938493e-01  -7.2960261e-01   1.1141605e-01  -4.7176428e-01   2.5814700e-02   3.3239959e-01   9.3965471e-01  -8.7799632e-01  -8.4585361e-01  -6.3661495e-01  -8.9055423e-01  -3.3754057e-01   4.6219092e-02  -3.9824063e-01  -4.6131757e-02   1.1702482e-01   2.5187217e-01  -6.1289023e-01  -4.3851158e-01  -8.3125978e-02   5.6546194e-01  -6.6771827e-01  -7.2613544e-01   1.0966569e-01   9.9981246e-01  -9.5487222e-01   9.7918814e-01  -7.5752360e-01  -1.3939835e-01   6.5364949e-01  -8.6908547e-01   2.0866447e-01   1.1587784e-01   4.9668497e-01   3.9020628e-02  -2.0250265e-01  -3.2212648e-01   2.9009194e-01  -2.1529007e-01   2.3294706e-01   5.7565228e-01  -5.1199990e-01  -1.5808532e-02   1.5826618e-01  -5.3667112e-01   5.7251342e-01  -8.4548711e-01   8.2314087e-01   2.4941044e-01  -9.1056690e-02   9.8493033e-01  -6.7636474e-02  -1.0332402e-01  -4.7669867e-01   1.4302442e-01   7.5452141e-01   2.5678735e-01   7.9605452e-01  -7.6379501e-01  -6.3466266e-01  -7.1428429e-01   1.3960393e-01  -5.2228304e-01   2.7664415e-01  -4.0115524e-01  -5.4056044e-01  -9.1723132e-02  -4.2273318e-01   2.3152250e-01  -5.7599268e-01   5.7360014e-01   6.2301543e-01  -1.3526250e-01  -2.9419475e-01  -8.8120786e-01   4.2180611e-02   7.2277072e-01  -4.1511522e-01  -9.7767724e-01   8.1663237e-01  -2.1509403e-01  -1.3273014e-01   3.8703429e-01  -5.7117019e-01   3.2514517e-01   3.3287661e-01   3.0099297e-01  -5.3145594e-01   6.8680862e-01  -2.1469910e-01   3.6763751e-01  -9.6103810e-01  -8.4373503e-01   5.1837520e-01  -6.3883430e-01  -7.3765262e-01   8.8572774e-01   4.9334142e-01   7.9958426e-03  -5.9409775e-01   1.8913984e-01  -8.3922544e-03  -3.8984670e-01   5.8198301e-01  -1.5259975e-01
   3.6165534e-01   5.4112555e-01   1.7998449e-01   1.1883667e-01   9.8534540e-01   1.8746282e-02   1.9618133e-01   4.5512151e-01  -1.2131008e-01   8.3206185e-01   7.4652461e-01  -7.4642913e-02  -4.7313756e-01   8.0122473e-01  -9.3108592e-01   8.6588221e-01  -5.5183097e-01   4.0514357e-01   2.7928406e-01   7.1536360e-01   1.1942390e-01  -1.1349442e-01  -2.8666730e-01  -4.8839187e-01   8.1131513e-01   3.7888764e-01   6.0753845e-01  -1.5302277e-01  -7.4004441e-01  -9.2924272e-01  -8.5807045e-01   7.7414491e-01   5.4721556e-01   2.8507120e-01   3.0977880e-01   9.4787286e-01  -7.0527881e-02   3.6168873e-01  -7.8324742e-01   5.2740619e-02   4.9590615e-01  -9.7181381e-02   8.6861181e-01  -7.0488258e-01   5.2373118e-01  -5.6866096e-01   5.4656415e-01  -1.1485721e-01   6.0789685e-01  -9.2596112e-01  -7.1912043e-01   6.5746507e-02   7.0877989e-01   3.3129223e-02  -8.8609666e-01  -2.6087447e-01  -1.8876597e-01   1.5886313e-02   7.3520004e-01  -1.6260927e-01   4.4604454e-01   4.3771276e-01  -9.7325091e-01  -9.6211212e-01  -1.2737813e-01   8.4891949e-01  -9.3521316e-01   7.4869436e-01   8.3485871e-01  -8.7150968e-01   9.0100825e-01  -6.7322455e-01  -5.6182520e-01  -3.3142418e-01  -6.7689155e-01  -7.1495570e-01  -1.1895278e-01   8.2177851e-01   5.9238332e-04  -5.0601818e-01  -2.0625250e-01  -8.7926511e-01  -7.9395021e-01   7.4224830e-01   5.8710206e-01   6.4120661e-01  -4.6067194e-01  -5.1571543e-01   7.5074317e-01   2.0041529e-02  -3.2713685e-01  -3.2707223e-01   5.9211381e-01   7.9276549e-01  -1.6231029e-01   2.9639814e-01  -9.1307122e-01  -9.6919090e-01  -8.0152963e-01   3.7687333e-01  -2.9765682e-01  -5.1738461e-01   7.1515870e-02  -7.2679979e-01   4.5205331e-01   8.7298041e-02  -5.0696935e-02  -5.7386478e-01   1.0298163e-01  -4.8837838e-01  -3.2673317e-01   8.4097519e-01  -9.2550226e-02  -2.4183705e-01  -7.4399586e-01  -1.2409865e-01   4.8959789e-01  -5.4242049e-01  -1.7626239e-01   1.4190208e-01  -6.7470567e-02  -3.1970300e-01  -5.3951521e-01   3.8535920e-01   6.6368447e-01   7.7476286e-01  -6.1765401e-01   1.1557631e-01  -6.8327614e-01   4.8214369e-01  -4.2462503e-01  -7.4990688e-01   9.2882277e-01   6.2752417e-01  -6.0549126e-01  -7.1511718e-01  -9.2060710e-01  -9.9660981e-01   1.3948956e-01  -3.7656258e-01   1.0799935e-01   4.5106578e-02  -8.0446344e-01   2.6275191e-01   3.0385838e-01   3.0858507e-01  -9.7450858e-01   2.5103701e-01   2.0861540e-01   3.3068380e-01  -9.4612693e-01   8.6855967e-01   3.6908793e-01   6.8777810e-01   5.7762371e-02   5.3983150e-01  -9.2885303e-01  -3.1145890e-01  -6.1141096e-02   1.7093807e-01   5.2164449e-01   2.0428086e-01   4.8053029e-01   2.0917519e-02   9.2385852e-01  -8.6122499e-01  -6.8519526e-01   8.0219129e-01  -5.0652638e-01   7.9363345e-01  -7.0872329e-01   7.8869093e-01   1.8149787e-01   8.3155251e-01  -2.4177911e-02   5.2427794e-01   7.5207899e-01  -3.0066353e-01  -3.2847668e-01   8.0561898e-01  -4.2636058e-01   8.6728988e-01   5.0902701e-02   4.8660796e-01   1.6364538e-01   3.2649638e-01   1.3212564e-01  -2.1057126e-01   7.9169942e-01   7.1376658e-01   9.2560070e-01   5.7415163e-01  -1.1737126e-01  -7.7444838e-02   9.1771994e-01   8.1368435e-01  -3.8592430e-01   4.7848228e-01   6.1978490e-02  -8.2646184e-01  -5.5960642e-01   7.5213059e-01  -6.3898259e-01   5.8197576e-01  -5.5380207e-01   2.6418749e-01  -5.5619750e-01   1.6954200e-02   3.3258000e-01  -2.5583084e-01  -6.8533012e-01   8.5777050e-01   6.6370430e-01  -8.9056206e-01   4.9507403e-01   4.2735667e-01   3.8554328e-01  -5.1606846e-01  -1.4295666e-01   3.6047342e-01  -7.2041609e-01   6.7648447e-01   5.3113810e-01   8.3547655e-01  -3.8255666e-01   4.8655525e-01  -9.6817560e-01   7.7596428e-01  -2.1724772e-01   7.4225721e-01  -4.1788225e-01   3.0332297e-02   9.4542998e-01   4.0582333e-01   4.3082370e-01  -2.8002791e-01   6.6653873e-01   2.7165452e-01  -8.4254994e-01   1.4787733e-01   4.8699969e-01  -4.3148325e-01  -1.1564381e-01   9.9416185e-01   2.2463113e-01  -8.5811447e-01   6.6629159e-01  -3.8521627e-01  -2.2517963e-01  -1.7066369e-01  -7.1237927e-01  -8.0327264e-01  -8.0142399e-01  -6.7761517e-01   9.4323498e-01  -9.5671080e-01   1.9606046e-01   3.3498311e-01   2.7360112e-01  -3.6151775e-01   7.5639237e-01  -6.6962390e-01  -5.9307426e-01   9.7175809e-01   8.3073992e-01   3.4070198e-01   1.2625629e-01  -2.7143176e-01  -2.3337653e-01  -1.0605170e-01   5.8576743e-01  -3.4610353e-01   2.0420453e-02  -9.9859691e-01  -1.4771700e-01   5.5703953e-01  -2.8945297e-01   9.1761127e-01   8.2070060e-01   7.1236341e-01  -8.1266138e-01  -8.7458635e-01   5.1258276e-01  -3.1460699e-01   1.3293238e-01  -8.3707180e-02  -1.5794850e-01  -1.4534493e-01   5.8042178e-02   9.7299553e-01   8.5792125e-01  -6.5269899e-01  -1.3638408e-01  -3.3254127e-01   1.0367537e-02   9.6889278e-01   8.6341976e-01   6.2678113e-01  -4.8643075e-01   6.7291567e-01  -1.1150317e-01  -1.3052567e-01   9.7712070e-01   2.1737589e-01   9.0887639e-01   5.0499617e-01   7.7746444e-01   9.9870796e-01   5.5195102e-01   2.2060533e-01   6.3944461e-01  -7.0728778e-01  -6.8189935e-01  -6.9381545e-01  -9.9214406e-01  -3.0492009e-01  -2.4064929e-01  -7.0059819e-01  -8.7432269e-01  -2.9417936e-02   5.0055510e-01   4.5241678e-01  -6.0637735e-02  -2.0360360e-01   8.1203353e-01   3.6707829e-01   1.1692839e-01   1.3567743e-02  -1.2668313e-01   6.5712946e-01  -6.4948328e-01   5.9856166e-01  -7.0822379e-01   9.4159839e-01   1.9471971e-02   1.8996524e-01  -5.4677014e-01  -4.9007098e-01  -3.4171030e-02  -7.5889183e-01  -7.2585660e-02   8.3630421e-01  -5.9430398e-02  -3.8903348e-01  -1.0175347e-01  -3.4415443e-01   2.6266879e-01   6.6099377e-01  -2.2714271e-01  -2.4478006e-01  -2.8387781e-01  -9.6532420e-01   3.4226393e-01  -3.4542252e-01  -3.9216426e-02   6.6371548e-01   9.9628516e-01   5.8708939e-01   4.9759611e-01   3.8851138e-01   4.2351964e-01  -3.5811567e-01   5.5849766e-01   4.6463021e-01   3.9206782e-01  -7.0216727e-01  -8.3578754e-01  -2.1860545e-01   9.6563956e-01   9.9243623e-02  -2.1886717e-01  -9.6108794e-01  -5.3511479e-01  -6.3033613e-01   3.9367086e-01  -5.2739659e-01  -1.5628003e-01  -1.0103176e-02   3.3530861e-01  -6.1899071e-01  -2.5135590e-02  -6.3597862e-01   8.9222084e-01   4.4483593e-01   7.9067179e-01  -6.6064062e-01   1.6177280e-01  -7.5255699e-01   7.5274696e-01  -6.2268687e-01   9.9349041e-01  -7.2342821e-01   4.0555019e-01   1.7496464e-02   5.2475119e-01  -8.1110647e-01   5.8338967e-01  -1.4682152e-01   1.4866066e-01   7.4164119e-01   8.7965071e-01  -6.8198306e-01  -4.8532060e-01  -9.2807777e-02   5.3237846e-01   8.8417419e-01   9.7055950e-01  -4.6637832e-01   4.7361386e-01  -8.4122793e-01  -2.0291848e-01   6.1117459e-01   1.1484354e-01  -8.7738383e-01   5.5532383e-01   7.1677906e-01   7.9466809e-01   7.1382857e-02  -1.6587053e-01  -1.0344328e-02   6.6678400e-01  -5.4851565e-01   7.4497101e-01   1.9016656e-01  -9.7971247e-01  -3.4449008e-01   8.1682661e-01  -7.0707207e-01   4.0865040e-01   3.7174034e-01   5.9145457e-01   8.9647486e-02  -2.0144761e-01   2.8321503e-01  -4.6917914e-01  -6.2547117e-01  -1.8255756e-01   2.3043030e-01  -5.8389913e-02  -2.7413770e-01  -9.4159480e-01   9.7030260e-02   9.5224209e-01   7.4676527e-01   3.1504301e-01   4.4923929e-01  -2.3754565e-01   1.9598270e-01   1.2977374e-01   3.7532870e-01   3.8093077e-01  -8.6051906e-01  -9.6167483e-01   8.2488583e-02  -9.2866984e-01  -7.8707318e-02  -5.6191095e-01  -7.2262992e-01  -6.4836957e-01   8.3988944e-01  -1.7394015e-01   5.8198086e-02   5.8758090e-01  -7.8277974e-02  -5.9897214e-01  -2.7661987e-01  -7.3345965e-01  -6.8998424e-01  -9.4947746e-01  -2.4699169e-01  -4.8312106e-01  -8.8526151e-01  -3.0985735e-01  -5.1427399e-01  -1.8007677e-01  -4.6310246e-01  -8.4992788e-01   7.6963330e-01  -3.7262785e-03  -9.6885844e-01  -9.6851543e-01   9.8641673e-01  -9.0154739e-01  -3.7384532e-01   4.6247638e-01  -3.3144413e-01   2.1790674e-01  -6.2654440e-01  -6.9474865e-01  -9.8548700e-02   3.5062832e-01   2.0204644e-01  -2.8664138e-01  -3.4834905e-01  -9.0959203e-02   1.1990877e-01  -2.6421870e-01  -5.0115711e-01  -3.4130811e-01   9.9904137e-02  -7.8237932e-01  -5.4346281e-02   1.8907237e-01  -3.5811703e-01   7.4289142e-01   6.1200962e-01   3.4124179e-01   2.4798171e-02   6.4646782e-02   7.7799189e-01   6.3444266e-01  -7.3686804e-01  -2.7353689e-01   9.8278625e-01  -5.8596283e-01  -2.8276764e-01  -9.6000605e-01   2.4248229e-02   8.7994915e-01  -6.0012595e-01  -5.3645534e-01   8.9752285e-01  -3.9202193e-01   9.6976426e-01  -5.8944711e-01  -7.7649917e-01   3.5922715e-01   4.1715851e-01   5.4445671e-01   5.1730028e-01  -7.8937213e-01   9.9293285e-01  -8.6935861e-01  -5.4854234e-01  -8.2120887e-01   3.3150763e-01  -1.2323133e-01  -4.1594288e-01   1.6698197e-01   1.2736785e-01  -6.7259353e-01   4.3400086e-01  -2.2086580e-01  -1.9462946e-01  -7.4616272e-01  -6.4160282e-01   8.5214306e-01  -9.1425178e-01  -5.0169614e-02   1.6769320e-02   9.1872257e-01  -7.7063208e-02  -3.0037795e-01   9.4096737e-01  -7.4290238e-01  -5.4215868e-01  -9.7631269e-01  -2.0344593e-01   1.2900220e-01  -7.6935438e-01   4.7955052e-01   5.6133133e-01  -7.0972990e-01  -3.0147959e-01   1.0308327e-01  -9.7741682e-01  -1.1948088e-01   8.3733484e-01  -8.5276838e-01  -9.3263831e-01  -5.8964179e-01   5.6269105e-01  -3.8563554e-01   1.3280839e-01   7.8090492e-01   4.8055262e-01   1.0154173e-01   5.4883792e-01   7.0341088e-01  -9.0769227e-01  -5.0428681e-01   2.1294635e-01   8.0584630e-01   4.7627736e-01  -6.5255369e-01   8.7992019e-01   3.0711929e-01  -5.4862582e-01  -7.0287541e-01  -7.7766664e-01   9.5798942e-01  -1.6034754e-01  -5.3011074e-02  -9.4560320e-01   3.8359539e-01  -7.5185222e-01  -7.4559108e-01  -1.9703204e-01  -1.3423483e-01  -7.1502005e-01   6.1987766e-01  -7.6051360e-01   9.1250095e-01   5.0199840e-01   1.1831402e-02   7.2985934e-01   1.0617758e-01   3.6366774e-01   9.6119100e-01   7.0996793e-01   3.7506140e-01  -1.7590970e-01  -8.9372459e-01  -6.2203183e-01  -9.4077737e-02  -8.4086129e-01  -5.7493400e-01   4.4411697e-02   9.3641960e-01  -4.1797033e-01   8.0130428e-01  -4.0022926e-01   3.8101463e-01  -7.0751393e-01  -3.4313633e-01  -7.2779207e-01  -8.3002206e-01   8.7286222e-01   6.1828106e-01   8.0770552e-01   5.8261310e-02   5.3206543e-02   6.6674578e-01   8.0500964e-01   9.2339698e-01  -2.3851027e-01   9.5012327e-01  -1.2785283e-01   7.2448809e-01  -5.7272246e-01  -6.1722146e-01  -8.3403632e-01  -5.6377864e-01   7.4393761e-01  -7.5897768e-02  -1.8306899e-01  -1.0212656e-01   5.8283042e-01  -4.9726065e-01   8.3583000e-01   4.3455055e-01   3.5555546e-01  -5.3373885e-01   6.4835933e-01  -7.8575757e-01   2.2843999e-01  -8.9313334e-03  -7.3553861e-01  -7.0484963e-01  -8.3129606e-01  -3.0024309e-01  -7.3645466e-01  -6.4442744e-02  -7.0431681e-01  -9.3947630e-04  -1.3238562e-01  -7.0562649e-01  -1.2404817e-01   9.1710897e-01   7.1498061e-01   2.6746199e-01   7.5416663e-02  -9.0178857e-01   4.6459385e-01  -9.3885204e-01   3.8085992e-01   7.4080541e-01  -2.1639413e-01   8.7480380e-01   4.4978299e-01   8.1164261e-01  -6.8864789e-02   2.2189559e-01   7.2617530e-01   3.7681648e-02   8.7215489e-02  -2.8093568e-01  -4.9646943e-01  -5.9712099e-01   8.9213788e-01  -1.2153124e-01   1.3961768e-01   9.0016027e-02  -5.0127939e-01   9.5076077e-01   5.0309335e-01  -2.1477303e-01  -1.3252441e-02  -2.4640408e-01   4.2163432e-01  -6.2840382e-01   4.1542103e-01  -7.0542720e-01  -2.1759960e-01  -4.8574696e-01   3.0824648e-01   3.6354735e-01   2.1100414e-01   8.0236601e-01  -6.3384016e-02   2.2253870e-01  -4.6444498e-01  -9.6290600e-01   7.9576171e-01  -4.5539193e-01   9.4592356e-01  -6.9758523e-01  -5.7379463e-01  -2.9964213e-01  -8.6382563e-01   1.7867191e-01  -9.3323583e-01   5.2016907e-01   6.4109900e-01   7.2164193e-01   7.7883705e-01  -6.5463694e-01  -1.9065834e-01  -4.1067165e-01  -1.6254101e-01   4.4514155e-01  -5.2097126e-02   8.0382581e-01  -5.6387058e-01   8.8060697e-01  -9.8514390e-01   5.4979568e-01   7.4977119e-01   4.8504409e-01  -1.1922212e-01  -1.8685495e-01  -9.5515547e-01   5.0550656e-01  -9.2470337e-01  -3.6500475e-01  -6.0298298e-01   7.2869089e-01   8.8841155e-01  -2.9034756e-01  -5.2006263e-01   8.0665049e-01   7.2100083e-01   8.4289789e-01   7.7182424e-01   5.4591537e-01   2.1864270e-01   5.8989488e-01   6.8289803e-01   2.0091885e-02  -8.9510276e-01   3.3087828e-01   7.4004792e-01   3.7007660e-01  -9.1904105e-02   2.3090338e-01  -4.8189507e-01   8.4461749e-01   4.7101272e-01   2.9952118e-01  -2.9313489e-01  -7.6057799e-01  -3.4619314e-01   9.8036061e-01   1.0277659e-01  -4.5813362e-01  -1.4666475e-02   5.5793311e-01   5.9625387e-01   6.4047608e-01   6.5045923e-02   1.6554084e-01  -6.2437150e-01   5.8289682e-01  -5.9059427e-01  -6.9339984e-01  -7.4456434e-01  -4.0913586e-01  -2.9240172e-02  -5.8752705e-01   1.6225938e-01  -5.9590564e-01  -5.6017582e-01  -6.0211566e-01   3.6508927e-02  -9.6698365e-01   3.5171645e-01   8.8281892e-01   6.1286490e-01  -3.6290172e-01  -6.4139032e-01   9.4226507e-01  -7.0137280e-01   5.3583194e-01   6.9961120e-01   1.8129838e-01  -3.4769270e-01   5.1779417e-01   5.5253236e-01   9.0788320e-01   9.0640617e-01  -4.0739776e-01  -1.6249215e-01  -5.3580519e-01   1.6678310e-01   9.8008975e-03   3.3131183e-01   9.4523221e-01   8.3955608e-01  -1.4613883e-01  -9.4284892e-01  -3.8746755e-01   4.1818572e-01  -2.1270378e-01   7.7072797e-01  -9.4752198e-01   4.4702712e-01  -3.3154789e-01   6.2383795e-01  -7.5994310e-01   3.4487571e-01  -4.7767884e-01   7.8032578e-01   8.0088891e-01   5.5639827e-01  -6.9474954e-01  -9.7296337e-01  -1.0856256e-01  -3.8954557e-01  -2.1610960e-01   4.2862162e-01  -6.4501917e-01  -5.0426214e-01   5.4209366e-01  -1.1083689e-01  -5.2313803e-01   1.0937058e-01   9.7457526e-01  -3.8626501e-01  -6.3109336e-01   1.1411001e-01  -8.1368484e-01  -3.2082599e-01  -9.2081216e-01   7.2792786e-02   6.7443014e-02   1.7779800e-02   2.7441804e-01   4.5194838e-01   9.0460140e-01   5.2631845e-01   3.1177123e-01  -3.9476358e-02   9.9671781e-01  -7.5779516e-01   4.2095454e-01  -8.4471532e-01   5.0829272e-01   3.6758818e-01   7.4138200e-01  -7.4208078e-01   6.4212906e-02  -9.2140033e-01  -8.6648705e-01   1.1813117e-01   1.0685473e-01  -4.5890197e-01  -2.0681121e-01   9.5916113e-01  -6.6779428e-01   3.0470450e-01  -3.5913570e-01   7.5410858e-01  -2.3670625e-01  -9.8332284e-01  -2.8262825e-02   4.5043428e-01   1.3919674e-01   5.9662710e-01  -9.0377646e-01   3.3017828e-01  -9.4924750e-01   6.5485473e-01   5.9540909e-01  -9.6780900e-01  -9.0580761e-01  -5.5993682e-01  -9.5226572e-01  -2.9118192e-01   5.9245587e-01   8.6650769e-01  -2.4490964e-01   9.1034472e-02   5.8460479e-01   3.4073108e-01   6.1062981e-01  -9.6761787e-01   6.7217242e-02   3.0792713e-03  -6.2569472e-02   2.8026169e-02  -1.2319740e-01   9.3168678e-01   7.6837203e-02  -7.4723822e-01   8.8309449e-01  -6.0346264e-01  -9.1581617e-01   1.4400988e-01  -9.6998773e-01  -5.9056994e-02  -5.3866800e-01   1.1930779e-01   7.0866976e-02  -2.0603087e-02   8.4455776e-01   1.6591048e-01  -7.3403790e-01  -3.7999952e-01  -2.5124800e-01  -1.2938843e-01  -6.9224935e-01   6.6661833e-01  -8.0643770e-01  -3.3940055e-01  -6.7401917e-01   7.5609525e-01  -8.9593708e-01   6.9652066e-01  -8.5799471e-01  -8.2811458e-01  -5.7629666e-01   8.6795672e-01   4.1718813e-01  -8.3401010e-01   4.0083784e-02   6.2753455e-03   9.0728039e-01  -6.5032543e-01  -7.3062527e-01   8.2106354e-01   4.2943872e-01   4.8779419e-01   2.3354599e-01   2.4743500e-01   7.3238537e-01   1.6582132e-01  -6.7391292e-01  -5.0107287e-01   9.4322396e-02   6.7558042e-01  -4.0544328e-01   1.4192802e-01  -5.9995070e-01   9.6045802e-01  -1.5044657e-01  -9.1871916e-01   9.3742489e-01   9.2682159e-01   7.2201767e-01  -8.1566050e-02  -1.1676928e-01  -5.5172760e-01   7.6031152e-01   7.8653469e-01  -5.1381780e-01  -7.2014484e-01  -2.4979833e-01  -8.6943108e-01   6.5120271e-01   7.3384061e-01  -8.7310068e-01   5.1952304e-02  -9.6350710e-01   3.4560882e-01  -4.6199951e-02  -9.3254741e-01   1.4178734e-01   7.8570595e-02   2.1735568e-01  -8.3673680e-01   5.0954147e-01   9.5378803e-01   4.6238225e-01   8.4431728e-01  -5.7830092e-01   9.2270675e-01  -1.2356673e-01  -8.9671786e-01  -2.1465431e-01  -2.9219844e-01
