   8.8129535e-01  -4.5586123e-01  -1.2973263e-01  -7.6477144e-01   7.5919800e-01  -9.7117954e-01   2.9645522e-01  -2.9438574e-01  -6.2475857e-01   5.6931912e-01  -5.2930637e-01   5.1194907e-01  -9.6028254e-02  -5.0394166e-01   7.5993327e-01  -1.0125757e-02   7.1413355e-02  -2.7308398e-01   6.3571040e-01  -4.9085397e-01  -1.4346307e-01  -3.0181794e-01  -2.1236104e-01  -1.8857459e-02   7.1875690e-01   9.9530148e-01  -2.3081488e-01  -7.9477085e-02  -9.5065074e-01  -6.2615843e-01   9.2804198e-01   6.7358530e-01  -7.8582822e-01  -6.8115836e-01  -1.9159595e-01   9.2944040e-01  -1.9068275e-01   4.7905774e-01  -1.9661365e-01  -6.3761026e-01   7.3110433e-01   9.3610141e-01   1.5970955e-01   2.5205878e-01  -5.0622191e-01  -2.4829801e-01  -7.2250067e-01   1.9889175e-01   5.3827454e-01   9.8360178e-01   5.4744096e-01  -2.8730047e-01   3.0006154e-02  -3.2909838e-01   5.4311810e-01   7.7853768e-01   3.6945038e-01  -6.8825077e-01  -7.0576644e-01   5.9818915e-02  -5.5141655e-01  -6.6506937e-01  -8.4061241e-01  -9.8197026e-01  -9.2782941e-01   3.9984045e-01  -3.5929871e-01   7.2238489e-01  -4.6187165e-01  -2.5178867e-01  -3.8592119e-02  -9.4705568e-01  -3.4132950e-01  -4.8233566e-01  -3.6015829e-01  -1.2565243e-01   6.9715342e-01  -8.6315527e-01  -4.3318830e-01  -6.4991067e-02  -3.2115079e-01   4.7925505e-01  -3.0276235e-01  -3.6333409e-01   3.2006231e-01   9.4218641e-01  -8.5106475e-01  -9.9065478e-01  -5.9847522e-01  -6.7246475e-01   3.5508611e-01   5.7557269e-01  -3.4184610e-01   1.8367384e-01   9.9823901e-01   8.9545306e-01  -2.2901214e-01   6.4936683e-01   6.6011476e-01  -3.8617368e-01   3.3502852e-02  -9.7654622e-01  -1.9401013e-01   4.4073255e-01  -7.7707773e-01   1.8457928e-03   2.2584574e-01   8.6093966e-01   5.1511514e-01   6.3274303e-01   5.2418601e-01   3.9186491e-01   6.8400557e-01  -1.7518273e-01   8.3766698e-01  -2.0041860e-01  -2.2390733e-01  -2.3483398e-01   5.1413400e-01   3.1436593e-01   8.9873348e-02  -4.5508000e-01  -4.5416311e-02  -1.6079519e-02  -5.0259490e-01  -7.4937018e-01  -4.0772033e-01  -3.4643034e-01   6.2091649e-01   4.5109268e-01  -9.5330753e-01   9.1479204e-01  -3.3733785e-01   5.5550128e-01  -9.5265813e-01   9.5544676e-01   2.8127151e-03  -9.1655732e-01  -6.9469017e-02   7.0053200e-02  -9.5727183e-01   1.6399406e-01  -6.6234045e-01  -2.7769973e-01   3.9966352e-01   1.1513043e-01   9.7597501e-01   2.8848156e-01  -5.8104401e-01   8.4949699e-01  -3.4757323e-01  -5.4678235e-01  -6.5743135e-02  -4.3706460e-01  -8.2636741e-01  -7.7265789e-01   7.6032435e-01   4.7547670e-01   2.7098314e-03  -8.0506518e-01  -5.1258008e-01   8.2195773e-01  -8.6484895e-01  -5.8086969e-01   4.2329186e-01   8.5386268e-01  -2.4253694e-01   1.5912695e-01  -2.6859181e-01  -2.1263650e-01  -7.8823986e-01  -9.2639944e-01  -4.4641259e-01  -1.0607997e-01   5.2115451e-01   7.1580897e-02  -9.8969556e-01  -4.0524724e-01   7.3023784e-01  -4.2343275e-01   2.0291362e-01  -6.6078825e-01  -6.5695174e-01  -4.3707047e-01  -9.1851786e-01   1.3831244e-01  -9.0363353e-01   5.7602938e-01   6.1525837e-01   2.8920941e-01  -2.9902590e-01  -4.5980047e-02  -3.1942445e-01  -9.2059513e-01  -1.0113848e-01   6.8486834e-01  -4.8347894e-01   5.9855500e-01  -7.5306351e-01  -9.4243396e-01   1.2737772e-01   1.5077746e-01   5.9746684e-01  -5.2656553e-01   8.8490989e-01   8.2569639e-01  -2.6704591e-02  -1.2911575e-01  -3.0060798e-01  -4.1543767e-01  -1.8782585e-01  -4.8701677e-01  -9.1464458e-01  -9.1198531e-01  -4.1796189e-01  -8.7025860e-01   5.2643844e-01   3.4771923e-01  -8.0385790e-01  -1.3269049e-01   9.2220593e-02   2.9897235e-01  -6.3731656e-02  -8.3795519e-01  -3.1700641e-01   6.6437053e-01   1.1268697e-01   5.8062775e-01  -5.8915055e-01  -6.2294978e-01  -4.9272251e-01   8.2418448e-01  -8.2927198e-01  -4.0132842e-01   2.3325813e-01   2.8372423e-01   1.9116125e-01  -8.1825135e-01   2.5279259e-01  -6.7655335e-01   7.9870293e-01   9.8571596e-01  -8.8620973e-01  -1.7308362e-01   3.7237850e-01   6.3710804e-02  -4.2481236e-01  -1.1671109e-01  -1.2638426e-01   8.4473529e-01   3.2053161e-01   7.5096260e-01   2.6183658e-01  -7.5147199e-01  -6.2360543e-01   2.7255308e-01  -1.5127919e-04  -7.2163592e-01  -6.4267639e-01  -3.5083299e-01  -9.3449244e-01   2.2908469e-01   4.1966353e-01  -5.3162306e-01   3.3810370e-02  -3.5370485e-01   8.3916121e-01  -3.3525177e-01   5.8931639e-01  -9.8080488e-01   2.8039653e-01   7.4531644e-01  -6.2255336e-01  -9.4567840e-01   4.9096025e-01  -8.3994788e-02   6.4447454e-01   6.3152159e-01   2.7148943e-01   1.2121090e-01   4.5591948e-01  -3.6863906e-01   5.3153269e-01   3.3891305e-01  -1.6769471e-02  -2.7736236e-01  -2.3833764e-01   1.3878981e-01   4.7411824e-01   1.8332965e-01   5.3172730e-01  -3.2426707e-01  -1.5109711e-01   2.9697952e-01  -9.4663710e-01   1.8616440e-01   6.7933612e-01  -4.7578493e-01   4.7883640e-01   1.8236298e-01   4.1620169e-01  -6.1894708e-01  -3.1747035e-01  -7.3104316e-01   9.9334150e-01  -1.7466004e-02  -1.7367899e-02  -6.1017552e-01  -9.6134441e-02  -6.1105007e-01   1.6959456e-01   9.2782555e-03  -5.9493753e-01  -5.4738950e-02  -8.3553143e-01   3.4984333e-02  -2.7648014e-01   4.9847216e-01  -9.4887985e-01  -5.2052590e-03   9.8454180e-02  -7.0656393e-01  -6.9802729e-01  -3.6892107e-01   7.1617121e-02   2.7089984e-01  -9.4493604e-01  -9.4038604e-01   7.3283648e-01  -2.3224770e-01  -6.0438600e-01  -9.6734134e-01   5.8741417e-01   3.1220371e-01  -2.8417480e-01  -4.0195935e-01   4.2059965e-01   4.8771942e-01   6.4225084e-01  -1.5609399e-02  -3.7103715e-01  -2.4634634e-02  -5.2688926e-01  -5.9531055e-01  -4.5630451e-01  -4.8252090e-01   5.9066167e-01   9.8892022e-01   3.9615574e-01  -1.9175784e-01  -7.0616446e-01   5.9401468e-02   6.4210528e-01  -2.2297377e-01   2.0710061e-01  -4.7545006e-01  -9.2015213e-01   7.6925450e-01   6.8423716e-01  -7.5725669e-02  -9.7782058e-01  -7.0437501e-01  -2.3771085e-01  -9.7420185e-01   9.4774578e-02   9.1391900e-02  -1.9327468e-01  -6.5428086e-02  -3.8911763e-01  -3.7313621e-01  -5.5570633e-01  -5.8695694e-01  -2.8673843e-01   1.5206681e-01  -7.1946607e-01   7.1864264e-02   5.8053282e-01  -2.7427291e-01  -7.8938375e-01   3.4200364e-01   9.4861302e-01   6.6664845e-01  -7.3120483e-01  -4.8614066e-01  -9.4942357e-02   6.3530006e-01   6.3908012e-01   8.8632240e-01   1.9223560e-01  -2.7739068e-01   9.0528659e-01   4.4166020e-01   6.4611081e-01  -7.5989817e-01  -9.6815615e-01  -3.8817898e-01  -1.4142621e-01   2.3591587e-01  -2.1543144e-01   8.6363472e-01   4.7531587e-01   5.1986855e-01  -6.3614359e-01   3.9459812e-01  -2.2091567e-01   1.0133494e-01  -2.1301231e-01  -3.1057414e-01  -9.1073377e-01   6.5828347e-01  -6.8789308e-01  -8.2471431e-01   1.7548139e-02   8.9454746e-01   3.2430945e-01  -1.7337431e-01  -4.8067272e-01  -8.5916956e-01  -7.4140870e-01   9.2018002e-01  -5.8319574e-01  -4.5663432e-01   3.5274816e-01   6.8823827e-01  -6.6509755e-01   9.3321522e-01  -7.3559871e-01  -3.7625572e-01   7.5803610e-01   1.0418223e-01   9.7640734e-02   4.2282807e-01   4.4949782e-02   1.6333907e-01  -9.2674650e-01  -5.9427201e-01   5.0442814e-01  -2.8299656e-02   9.6939875e-01   2.9102162e-01   7.4328124e-01  -5.6368573e-01  -9.5968058e-01   2.3879475e-01  -8.3234656e-01  -8.5321101e-01   5.8355273e-01   4.4488231e-01   1.2656223e-01   1.7837369e-01   7.1311131e-02  -4.1016399e-01   7.9291735e-01  -3.1251717e-01   1.4665576e-01  -9.4702931e-01   5.1271465e-01   3.1727181e-01   8.4137136e-01   9.0048199e-01  -1.6402873e-01  -8.8386595e-01   1.6273333e-01  -1.7115326e-01  -5.4128756e-01   3.2554239e-01   3.3451122e-01  -3.0948996e-01   8.6806080e-01  -1.7892817e-02   3.0861461e-01   1.1122095e-01   8.8344927e-01  -1.7635490e-01   2.0925217e-01   4.2548542e-01   9.3322883e-01   3.6708711e-01   7.1767615e-01   1.4286291e-01  -5.8052653e-01   1.0432069e-01   2.4236373e-01  -6.8595751e-01   8.4876521e-01  -2.8972279e-01  -2.2405283e-01   1.0551991e-01  -8.8796651e-01  -4.5068258e-01   9.7769940e-01  -5.0950892e-01   8.3975742e-01  -3.2049001e-01   4.0618929e-01   9.6865909e-01   2.8870037e-01  -2.0432421e-01  -7.4510230e-01   4.2403454e-01   5.6180139e-01  -5.7476841e-01  -4.2805910e-01  -4.9308698e-01  -2.9260722e-01  -5.0492494e-01   6.4665313e-01  -7.4209154e-03   2.3681758e-01  -9.3561753e-02  -9.3390214e-01   1.9206883e-01   9.3166793e-01  -8.1346884e-01  -7.3398389e-01  -6.4847189e-02   4.2013100e-01  -5.3901473e-01  -3.7805658e-01  -2.5669264e-01   1.9392564e-01  -4.0027629e-01  -4.4504581e-01  -3.1847140e-01   1.3476731e-02   3.9224962e-01   7.6704265e-01  -3.9309743e-01  -6.9535704e-01  -6.1549509e-02   8.8642902e-01   9.0918130e-01  -4.7533880e-01  -3.3741949e-01  -5.1321547e-01  -6.7250099e-01   6.6382219e-01   3.4771191e-01   3.6620442e-01  -8.0868005e-02  -8.0252049e-02   2.2989634e-01  -5.9629070e-01   9.9853361e-01   4.6488305e-01   7.8092428e-02   6.9458090e-02   1.1743763e-01   5.2743019e-01   7.8396578e-01   1.8032277e-01  -9.6257247e-01  -5.0726231e-01   6.5805033e-01  -7.8292746e-01  -9.6380216e-01  -6.4049035e-02   4.7854100e-01   2.1134807e-01  -2.5451486e-01   9.4823750e-01  -5.8432556e-01  -5.3335824e-01   7.5100965e-01   4.2727225e-01  -5.1963311e-01   1.1303238e-01   9.1803863e-01  -7.9412990e-01  -8.4640104e-01  -2.2261529e-01  -4.3565220e-01  -4.0149756e-01  -2.8180089e-01  -1.9368291e-01   3.0629755e-01  -6.5112401e-02   6.8756662e-02  -2.1015727e-01   4.8914566e-01   3.9439746e-01  -7.9075155e-01   4.4559727e-02  -2.5995412e-01  -3.4512632e-01  -8.3767353e-01   9.9402147e-01  -5.4377602e-01  -2.2304205e-01   6.3027837e-01   1.0466077e-02   1.8514551e-01   5.0035496e-01  -1.4014639e-01   3.4794439e-01  -7.6252014e-01   3.8919732e-01   4.7291843e-01  -9.1674445e-01   9.9637867e-02  -7.5415499e-01  -7.0122264e-01  -2.9733862e-01   7.2373876e-01  -1.2242451e-01  -9.9972594e-01  -4.6278842e-01  -2.9256834e-01  -8.6896494e-01   2.0516570e-01   4.6063006e-01  -4.9507610e-01  -2.5992243e-01   9.6508838e-01   4.6711020e-01   6.4636048e-01   9.3782079e-01   1.2188977e-01   9.0581698e-01   8.1546512e-01  -5.1994232e-01   3.4885917e-01  -8.0770152e-02   4.0748558e-01  -1.1962735e-01  -6.3646088e-01  -4.2509860e-02   8.4285542e-01  -4.3282021e-01  -7.9020970e-02   9.3458434e-01  -6.1252325e-01  -5.6553063e-01  -8.3494594e-01   1.4844348e-01  -9.7495304e-01  -3.0260010e-01   3.7155499e-01  -9.0969508e-01  -6.5706769e-01   6.1559364e-01  -2.6026318e-01  -7.3658673e-01  -7.7277011e-01  -8.7729041e-01  -1.0709030e-01   9.0255706e-02   5.0172140e-01  -1.8531768e-01  -8.8576119e-01   8.0014843e-01   9.6021025e-01   3.0758036e-01   4.7188139e-01   4.2429072e-01  -3.6445630e-02   6.6505463e-01   9.2218196e-01  -9.4592592e-02  -8.2628131e-01  -7.4627663e-01  -6.4510383e-01  -7.8242786e-01   9.5245294e-01  -8.3573836e-01  -5.4976056e-01   8.0674030e-01   1.2250525e-01  -4.9342065e-01   7.0411700e-01   1.7975112e-01  -1.8836420e-01  -9.5998843e-01  -9.1212754e-01  -2.9349142e-01   5.9422542e-01  -5.6202134e-01  -2.7282724e-01   1.9652030e-01   7.5535071e-01   2.0922002e-01   9.7714559e-01  -4.5668471e-01  -4.6581004e-01   8.5522983e-02  -9.8728793e-02  -1.7142955e-01  -2.6256047e-01   2.1972875e-01   9.2657613e-01  -7.2656558e-01   5.0930060e-02  -8.7942575e-01  -2.8964060e-01  -3.0102431e-01  -6.7977323e-01   9.3602238e-01   3.2154779e-01  -5.9946767e-01  -2.0781371e-01  -9.6944206e-01   3.0609765e-01   1.4390601e-02  -5.4379582e-01  -6.1208594e-01   4.6864659e-01  -7.0887838e-01   7.6739144e-01  -4.0344078e-01   9.3397451e-01  -6.5910679e-01   9.7250727e-01   6.7933345e-01  -2.9740115e-01  -4.8771269e-01  -2.5444911e-01   6.0102366e-01   8.8001988e-01  -7.5740554e-01  -1.9078123e-01   3.8447933e-01  -1.8631201e-01   7.7339941e-01  -4.2306672e-01  -4.4112178e-01   8.9892445e-01   6.2386973e-01  -6.2385935e-01   7.9272743e-01  -8.7163860e-01   3.9576611e-01  -4.2795584e-01   2.3271987e-01   2.7023391e-01  -4.6558069e-01  -1.0766520e-01   8.4969302e-01   8.1869631e-01   9.8452776e-01   7.0774706e-01   3.5654701e-01  -5.8008749e-02   4.3552454e-01  -8.9917550e-01  -9.5597960e-01  -3.1906530e-01  -3.7683521e-01   2.0712851e-01  -8.4207769e-01  -4.0989360e-01   6.1148657e-01   2.1623397e-01   6.7747950e-01  -4.1128208e-01   6.8239804e-01   4.1083728e-01   1.7997919e-01  -2.3407157e-01  -1.4771682e-01   1.1044610e-01   7.2710378e-01   3.6508550e-01   8.5018537e-02  -2.5019157e-01  -1.0140797e-02   4.3436057e-01   3.2566188e-01   9.1662043e-01  -5.4487743e-02   9.7710744e-02   6.1882469e-01  -1.4253319e-01   2.8999908e-01   2.1509209e-01  -4.2260764e-01   2.7018257e-02   2.9866607e-02   8.1343828e-01  -7.4142165e-01   4.4326053e-01   2.6911473e-01  -2.4946845e-01  -9.3458948e-01  -6.9827219e-01   5.2458568e-02   9.2109688e-01  -3.9049899e-01  -9.9969739e-02   1.5302463e-01  -2.0028448e-01   4.6008158e-01   9.6893522e-01   7.5095702e-02  -4.1180454e-01   3.0644957e-01   9.5855847e-02  -6.8966103e-01  -6.8030598e-01  -3.4891085e-01   1.9551071e-01  -5.6578824e-01  -6.0020959e-01   9.7221496e-01  -5.5644603e-01  -3.8359426e-01   4.3435214e-02  -8.4610404e-03   1.8212033e-01   9.3874029e-01  -4.9499567e-01   4.1651729e-01  -2.0624338e-01   2.7518116e-01   6.6378744e-01  -3.4066798e-01   6.4210789e-01   6.6230997e-02  -7.4181573e-01   6.4177929e-01  -8.2769616e-03  -3.5945487e-01  -8.5762707e-01  -4.7882819e-01   3.7931666e-01  -8.0523578e-01   9.5604622e-01   6.9702233e-01  -6.8651511e-01  -7.7020605e-01   9.5766922e-01   5.5803010e-01   4.5890825e-01  -2.1740222e-01  -5.6248092e-01   5.6285490e-01   7.6694610e-01  -8.1529507e-02   9.2211119e-01   7.8912531e-01  -2.5721956e-01  -4.5784609e-01  -3.5249032e-01   6.4947027e-01  -7.7853646e-01   7.0256241e-01  -5.6483764e-01   7.7098919e-01   1.2576414e-01  -1.2181950e-01  -1.4966420e-01  -8.4178817e-01  -5.1489989e-01   4.6642149e-01  -9.0174831e-01  -9.9194440e-02   9.9266298e-01   4.0378327e-01   1.1888667e-01  -7.5643426e-01   7.1522731e-01   6.0711774e-02  -3.1952699e-01  -4.6413387e-01   9.0655236e-01  -1.8370256e-01  -1.1985404e-01  -9.4695489e-01   3.8894770e-01   2.2674372e-01  -7.0580357e-01   5.9598429e-01   4.4035100e-01  -4.0469408e-01  -9.0646568e-01   7.8943826e-01   2.3386621e-01   9.3229259e-02  -9.2363838e-01   4.4916874e-01   1.3921260e-01  -2.1922093e-01   8.1394268e-01  -7.7235689e-02   2.5923641e-01   8.2573889e-02   1.9504825e-02   6.7665819e-01  -3.0877972e-01   8.1488230e-02   2.2104826e-01   9.5075599e-01   5.0330740e-01  -9.1368763e-01   3.3864420e-01  -3.3794665e-01   2.3331598e-01  -6.3205200e-01   7.1679114e-01   2.2962375e-01   6.4852261e-02  -9.0043702e-01   3.6877685e-02   3.9062266e-01   9.0375074e-01   6.3779915e-01   6.2987704e-01   5.7679300e-01  -6.4264332e-01   8.9983501e-01  -1.1711853e-01   8.1780587e-01  -7.2927862e-01   2.3442856e-01  -5.7587375e-01  -6.5123247e-01  -5.7049283e-01   5.0869033e-01  -5.6361526e-01   1.4085754e-01  -4.4275989e-01  -6.5089392e-01   5.6534767e-01   9.9716917e-01   7.1891797e-01  -2.1922822e-01  -2.1160152e-01  -5.8322023e-01   1.5930001e-01  -7.9410968e-01  -2.1848908e-01   1.1610614e-01   9.5106833e-01   8.9795836e-02  -8.8492152e-01  -6.5894362e-01   6.3661311e-01   9.2593590e-01   8.7780049e-03  -8.7616171e-01   5.6735486e-01   1.2887174e-01   5.9419508e-01   5.6852078e-01  -2.1936942e-01   2.7913341e-01  -2.5349371e-01  -3.2497659e-01   6.0057589e-02  -6.9796922e-02  -5.2788173e-02   9.6274350e-01  -7.6336710e-01   9.1281869e-01   1.4030684e-01   8.2875157e-01   8.2437747e-01  -2.5229325e-01  -8.8932644e-02  -2.9447647e-01  -7.0316626e-01  -2.5899548e-01   4.8062657e-01  -5.5313493e-01  -6.8255320e-01   4.9749702e-01   9.6877505e-02   6.4072973e-01  -3.9268332e-01  -7.2318520e-01   6.8091827e-01  -3.5591924e-01  -3.2034292e-01  -1.1090547e-01   8.5861367e-01   1.1907798e-01  -8.3294176e-02   5.8571502e-01   1.9285313e-01  -2.4733564e-01  -8.8834147e-01   7.1543495e-01  -3.4346134e-01  -7.3349705e-01  -1.2753757e-01   6.0807945e-01   6.4818638e-01   7.8106492e-02  -5.4338392e-01   8.5570129e-03   2.9070360e-01   9.9473156e-01  -7.7961992e-01  -8.2462065e-01   7.3259702e-01  -9.8655419e-01  -8.1907677e-01  -3.0336070e-01  -3.1578144e-01  -3.5417374e-01  -8.0590353e-02
  -8.3322287e-01  -8.4414775e-01   1.1180651e-01  -5.0796409e-01  -3.2109930e-01  -5.7154236e-02   1.4541289e-01   7.7187624e-01  -5.7678655e-01  -9.6030695e-02   9.9961290e-01  -2.1630164e-01  -9.7550344e-01  -1.5709622e-01  -1.4481336e-01   1.9932691e-01   7.0891304e-01   6.7571714e-01   4.9265148e-01   5.6089209e-01  -5.3222950e-01   3.9956886e-01   7.5290275e-01  -9.7102276e-01  -8.8929614e-01   9.6041575e-03  -5.0736309e-01   2.6005308e-01   2.3944284e-01   6.1799266e-01   9.4907364e-01   4.8682309e-01  -3.2405795e-01   3.9431009e-01  -5.8073990e-01  -1.7788082e-01   9.7666804e-02  -5.8124473e-01  -4.0192523e-01   9.5646762e-03  -3.3316451e-01   4.1680140e-01  -7.0537526e-01   8.3837383e-01   4.5297890e-01  -6.8542615e-01   2.8417074e-01   3.3088733e-02   9.5412468e-01  -5.6470237e-01   4.1156088e-01  -9.8689843e-01  -9.1967760e-01   7.1165818e-02  -4.2896971e-01   2.1220225e-02   9.6336568e-01  -1.9231173e-02  -5.6592735e-01  -2.1239739e-01   4.2350829e-01  -8.8209489e-01  -6.5457592e-01  -2.6276120e-01   3.4867970e-01  -8.0814971e-01  -8.9240307e-01  -6.5064940e-01  -7.3371251e-01  -1.0198007e-01   6.0412994e-01   4.6271902e-01  -5.8890422e-01  -4.7188566e-02  -9.7878051e-03   3.9472972e-01  -1.2695109e-02  -8.1469596e-02  -5.1578496e-01   8.6358255e-02  -3.5215084e-01   3.3310563e-01  -9.3683100e-01   5.0918933e-01  -4.1015519e-01   3.9028771e-01  -4.1613133e-01   6.7533598e-01  -1.4365831e-01   8.4975118e-01   7.5307765e-01   4.8806201e-01   9.9168262e-01  -6.4749021e-02   6.6043875e-01  -4.5066275e-01   1.1891589e-02  -7.2781476e-01  -9.6839908e-01  -5.9607542e-02  -8.9853792e-01   7.3991681e-01   9.2817345e-02  -4.2370154e-01   4.7868221e-01   8.4454468e-01   6.1049351e-01   9.3869161e-02  -7.8354143e-01   3.6858552e-01  -5.2363994e-01  -6.5427371e-01  -5.4043293e-01  -9.5181985e-01   9.7186677e-01   6.6717645e-01  -5.5790326e-01  -3.5657976e-01  -9.9775063e-01   2.9075682e-01   5.0260966e-01   5.4889310e-01   9.2491369e-01  -9.8957000e-01   1.1783928e-01  -4.4480430e-01  -3.4217493e-01   3.5239265e-01   4.8713134e-01   8.7252484e-02   5.0209893e-01  -9.8541271e-01   8.2515562e-01   7.5025392e-01   7.0307595e-01   3.6418117e-01   7.8400553e-01  -6.9206547e-01   2.9485362e-01   3.4227046e-02  -6.2664533e-01   7.7425392e-01   8.7623521e-02  -7.0758665e-02  -2.6233461e-01  -5.2997437e-01   7.5880564e-01  -5.1941160e-01  -1.3783789e-01  -5.8766443e-01   9.9812165e-01  -7.9664508e-01   5.6336796e-01  -4.9520099e-01   3.2625008e-01  -7.7055116e-01  -1.7365062e-01  -6.8112525e-02  -2.3625962e-01   7.2087579e-01   1.3268691e-01   3.3950608e-01   5.5929084e-01   2.8782442e-01  -9.9847613e-01  -2.1500301e-01   8.2516425e-01  -2.6590910e-02  -8.6592905e-01   4.9486578e-01  -2.0681978e-01  -1.1687140e-02  -4.2458312e-01   3.7878417e-01  -8.9033102e-01  -2.8903434e-01  -2.1977551e-02   1.4847538e-01   2.1551952e-01   1.1716169e-01   4.5851793e-01  -1.1364463e-01   4.2129367e-01  -1.2338596e-01  -4.9832478e-01   8.9026274e-01   8.2560081e-01   8.1236277e-01  -2.0421324e-01   3.2331077e-01   5.7236602e-01   5.3285110e-01  -8.4120975e-01   3.7421019e-01   1.5458003e-01  -3.7520184e-02  -9.3266782e-02  -7.7653004e-01   6.0303481e-01  -6.0151824e-01  -6.3835943e-01   2.8962068e-01   6.6726780e-01   7.9728918e-01   3.0012243e-01  -8.1507934e-01   5.1928431e-01   5.1506318e-01   7.4043172e-01   6.1680973e-01   9.3648027e-01  -7.8816208e-02   6.0061015e-01   6.0584952e-01   4.5345892e-01   1.4006381e-03  -2.0748413e-01   9.1523496e-01   4.5916480e-01   7.7320223e-01   9.7778140e-01   1.2442565e-01   3.5218074e-01  -6.5420818e-01   6.9108633e-01  -9.9646692e-01  -8.3070882e-01  -4.7765829e-01  -3.7384887e-01  -8.5962244e-01  -6.6288953e-01  -8.0799178e-01   8.3275650e-01   1.3783618e-01   8.4818523e-01  -1.0169619e-02   2.1336037e-01  -9.1099962e-01   1.6231349e-01  -3.7543911e-01   2.5193777e-01   8.5241804e-01  -9.3693472e-02   4.9797691e-01  -1.5303012e-01  -5.8950963e-01  -7.6451687e-01  -2.4627804e-01   8.1156782e-01  -4.3079348e-01   3.7852919e-01   3.2374735e-01   6.7529758e-01   6.6762792e-01  -2.4927573e-01   6.7581866e-01  -1.7352457e-01  -3.5506266e-01   6.9701927e-01  -1.6699274e-02  -5.9290070e-01  -6.9148106e-01  -6.2780943e-01   4.1856819e-01   8.0313766e-02   1.4580302e-01  -7.2138285e-01   5.0094603e-01  -3.1891798e-01  -9.1748497e-01  -5.0158757e-01   8.5061270e-01  -8.6604055e-01  -1.4751735e-01   1.5854186e-01  -8.5052442e-01   9.9379332e-01   5.1071226e-01  -7.3885246e-01  -2.4549000e-01  -5.8405649e-02  -3.7366945e-01  -5.6927390e-01  -8.7662401e-01   5.3341472e-01  -5.6240360e-01   8.7470264e-01  -2.7428007e-01  -1.0305831e-01  -1.6713403e-01  -2.4317127e-02   5.9865148e-03  -1.3428914e-01   9.1446012e-01  -3.6244077e-01   3.9539769e-01   7.6027310e-01   3.7696198e-01  -8.4622992e-01   9.1095609e-01  -9.1337175e-02  -3.7767215e-01  -2.5431007e-01   6.7601458e-01  -6.5057081e-02   3.8447864e-01   8.8491923e-01   7.0708148e-01  -6.7429175e-01  -9.2134604e-01  -5.5987469e-01   8.4579872e-01  -4.0535390e-01  -7.5411228e-01   8.7449380e-02   2.1314568e-02   9.9220380e-01  -7.2437890e-02   5.5884110e-02  -2.7881880e-01   8.3381829e-01   1.9117503e-01  -7.4673328e-01   5.6187693e-01   2.8590127e-01  -9.3955652e-01   2.9524544e-01   3.8134462e-02   2.0086108e-01   9.7694330e-01   7.8156394e-01   4.2721409e-01   4.3389524e-01   5.4482157e-01  -8.9610506e-01   8.4698065e-01   3.7636794e-01  -3.7551037e-01   2.3978350e-01   7.6817026e-01  -1.7159430e-01   7.3862862e-01   8.9980373e-01   7.2936300e-01   9.7948591e-02   8.2429805e-01  -3.3978236e-01   9.4760697e-01  -8.0089457e-01   7.6829451e-01  -8.0457079e-01  -6.3314562e-01   7.6732853e-01  -6.0924059e-01  -5.4186125e-01   1.5460996e-01  -2.3993120e-02  -6.6538786e-01   1.7397741e-01  -9.0941090e-01   2.3371569e-01  -9.6318338e-01  -1.8297529e-01  -6.6579243e-01  -6.3724285e-01  -9.4102842e-01   3.0814804e-01   3.9661136e-01  -2.7948938e-01   6.2678535e-01  -6.9784531e-01   4.4888505e-01  -2.0166677e-01  -9.1560385e-02   5.5077335e-01  -7.5686901e-01  -3.9433297e-01   8.7725699e-01   5.7187389e-02   5.1600449e-01  -3.3268849e-01  -2.1519453e-01   5.1842823e-01  -3.9452172e-02   3.4123368e-01   2.8772861e-02  -6.3523435e-01  -6.3944297e-01  -9.9951572e-01  -4.7731315e-01  -9.9736414e-01   9.6653131e-01  -1.1494530e-01  -4.7136694e-01  -8.1459095e-01   8.1096642e-02   9.2439438e-01   1.7903173e-01   5.1991614e-01   6.8891613e-01  -4.8124022e-02   2.3800492e-02  -2.8731876e-01  -7.3541199e-01   9.7956830e-01  -9.8519049e-01  -8.3925324e-01  -1.4534971e-01  -7.2691747e-01  -4.5508532e-01  -9.3437578e-01  -4.3033437e-01   8.0016109e-01   2.3664956e-01  -6.5980072e-01   2.0875955e-01  -8.4735493e-01  -6.7474211e-01   5.3963503e-01   1.1226109e-01   4.5488516e-01   7.6338173e-01  -6.7181632e-02   9.8981109e-01   5.8140986e-01   1.1563372e-01  -3.0918600e-01   3.5214540e-01   5.5546487e-01  -2.1631554e-01   9.6423532e-01  -2.2547992e-01  -8.3748468e-01  -8.0151442e-01   5.2776295e-01   3.8317450e-01   7.8231656e-01  -5.9385360e-01  -1.7556789e-01  -1.0429754e-01  -5.0718533e-01   1.4538951e-01   3.4107156e-01  -9.7937343e-01  -9.1753232e-01  -2.1185847e-01   5.4258475e-01  -7.0388664e-01  -8.4323933e-01   7.9084992e-02  -2.1898884e-01  -4.6489851e-01   7.2572610e-01  -2.4646015e-01   3.4645997e-01   9.6995622e-01  -9.1154617e-01   5.2620299e-01   3.9333878e-01  -2.2692150e-01  -3.2788242e-01  -2.4854570e-01  -8.0841399e-01  -3.4660184e-01   1.7409055e-01  -3.7134979e-01  -6.4324397e-02  -2.6590755e-02  -8.9658846e-01  -6.9464171e-01   3.5358220e-01  -8.0785747e-02   7.7548049e-01   2.2608565e-01   5.5436766e-01   7.9981883e-01  -5.1259737e-01  -5.7092797e-02   9.2355552e-01  -5.1686502e-01   3.0959933e-01  -2.0068644e-01   8.2036462e-01  -8.8530084e-01  -9.0004687e-01  -4.4900791e-01  -2.5225388e-01   5.8939910e-01   5.2620587e-01   1.5636805e-03  -2.0555943e-01  -7.5815246e-01   2.0032968e-01   3.7275782e-01   7.9697605e-01   7.4248592e-02  -8.9810673e-01   5.4930322e-01   2.3702218e-01   4.4405181e-01   1.1846602e-01  -7.2998721e-01   9.0611400e-01   3.7140251e-01   1.1177522e-01  -7.7494971e-01   2.9087548e-01   8.4033236e-01   9.0702278e-01  -6.8706238e-01  -7.7144838e-01  -5.8903977e-01  -1.3535626e-01   5.3048023e-01   2.2058452e-01   3.6978592e-01  -1.1009400e-01  -6.4043587e-01   3.1959638e-01  -2.6678422e-01  -4.8676871e-01   7.1572061e-01   5.5421204e-01  -1.1847659e-01   7.4240829e-01   6.2290289e-01   4.4860153e-02   4.2240928e-02  -9.3647197e-01  -8.9010481e-01   8.0175899e-01   2.7927374e-02   3.5845702e-01  -8.0144738e-02  -7.7810401e-01   4.2522764e-01  -6.3438949e-01  -8.8477368e-01  -9.9078752e-01  -9.5927926e-01   1.4495926e-01  -6.5349549e-02   8.3138556e-02   6.3349307e-01  -1.2595451e-01   5.1707107e-01  -5.1215631e-01  -9.7409796e-01   5.8549801e-01   7.0170060e-01   2.5555720e-01   9.0333585e-01  -3.7847490e-01   5.4226220e-01   9.9404455e-01   3.0275581e-01   1.0991567e-01  -1.8088229e-02   7.3136035e-01   4.9684351e-01   2.0305641e-01   3.8140585e-01   7.3562126e-01  -9.0673602e-01   9.9170713e-01   8.1429208e-01  -9.2379654e-01  -1.5284385e-01  -8.8136248e-01   2.0499929e-01  -7.0882431e-01  -1.7067844e-01   9.2176697e-01  -3.5650942e-01  -2.0574491e-01  -4.2601842e-01   1.1743911e-01   3.8961650e-02   7.6949396e-01  -5.5607896e-02   1.1870398e-01   6.2763120e-01  -2.1454608e-01   8.8340095e-01   1.1119545e-01   9.3558278e-01  -5.3042753e-01   8.0061997e-01  -6.8770551e-01   8.2845099e-01  -9.8045128e-01  -4.9358814e-01  -8.8214609e-01  -8.1947413e-01  -3.8845731e-01  -6.8994457e-01  -2.6600150e-02   4.0610077e-01   6.1863376e-01   3.5071769e-01   9.8638813e-01  -1.8275279e-01   4.1972040e-01  -9.5757930e-01   5.3724870e-01  -5.2108418e-01   8.2727287e-01   1.8226953e-01   7.5098938e-01  -7.1622118e-01  -9.1217378e-01   9.0973500e-02   9.3508600e-01  -1.8375305e-01  -1.0346275e-01  -1.1318854e-01  -4.2133582e-01  -5.5209301e-01   3.3040027e-01   4.7137552e-01   7.9543654e-01   6.2304074e-03   9.0318746e-01   6.1736698e-01   3.5134322e-02  -9.6322845e-01  -2.1709715e-02  -4.3242740e-02  -4.0674647e-01  -9.9718865e-01   3.7259542e-01  -3.8975090e-01  -2.7423804e-01  -7.3394584e-01  -5.0548212e-02  -3.7631918e-01  -3.5995758e-01   5.0352637e-01   2.6734813e-01   8.2895302e-02   8.7441719e-01   1.0200565e-01  -6.5832312e-02   1.6083013e-01  -5.5402955e-01  -1.3825144e-01  -4.3492503e-01  -8.4146260e-01   8.3781275e-01   8.4557662e-01  -9.1516112e-01   8.9798977e-02  -3.6169263e-02   5.6855271e-01  -4.5608070e-01  -3.1465483e-01  -4.2407494e-01  -2.1015058e-01   7.2726494e-02  -3.4899542e-01   4.7730246e-01   9.1824792e-01   5.6459515e-01  -5.3800235e-01  -3.0257152e-01   5.8135213e-02   8.1263113e-01   1.9029790e-01  -1.9780880e-01   2.4869924e-02   4.1728068e-01   9.6590156e-01  -3.7039834e-01  -9.7751063e-02  -9.8986765e-01  -9.7900803e-01  -1.3477235e-01   3.5480178e-01   5.1732774e-01  -2.7035696e-01  -3.5729487e-01  -5.3310690e-02  -2.8793589e-01   8.7603238e-01   9.0451385e-01  -5.8744977e-01   5.2683332e-01   5.9743714e-01   6.8629961e-01   5.2311585e-01  -6.0802321e-01  -2.3082867e-01  -7.8747406e-01   8.9283278e-01   1.0604254e-01   5.6839485e-01   7.2014882e-01  -8.1184295e-01   4.7917209e-01   4.2749681e-01  -1.2681609e-01  -8.9285657e-01  -6.4768422e-02  -5.4973015e-01  -5.9150197e-01  -6.7449609e-01  -7.0701454e-01  -2.7525096e-01  -5.4951158e-01  -1.8033935e-01   4.6380551e-01  -3.7980378e-01   3.2507512e-01   2.2446602e-01   6.6995502e-01  -3.6170551e-01  -3.5180272e-01  -9.5558604e-01  -9.5097231e-01   1.7465180e-01   3.9248216e-01  -2.7477755e-01   2.9001850e-02  -9.1433675e-01   8.5406420e-01  -3.7054349e-01   7.3371046e-01   7.6728190e-01  -2.3550408e-01   8.8301829e-01  -7.2295725e-01  -1.3767959e-01  -1.7625562e-01   2.9299278e-01   1.7933439e-01  -4.1511527e-01  -4.4672692e-01  -1.4921537e-01  -4.8378768e-01   4.2849132e-01  -1.1311310e-01   1.5100730e-01  -2.3288804e-01  -7.9411440e-01  -2.7526336e-01   9.3203503e-01  -4.9532643e-01   5.9408458e-01   1.5159748e-01   9.1572545e-01  -8.0035963e-01   2.4520480e-01  -2.0143436e-01  -4.8518482e-01   4.7106531e-01   4.7683705e-01   7.7272734e-01   8.1859321e-02   7.6786819e-01  -2.6873922e-01  -4.4850686e-01  -2.2576575e-01   3.2978191e-01   6.8429141e-01   2.7168633e-03   6.5183689e-01   1.3351072e-01  -1.8153879e-01   5.0318761e-02   9.6662770e-01   6.8656316e-01  -4.4263312e-01  -6.6335086e-01  -5.5538361e-01  -7.2355532e-01   3.1268522e-01   4.4832522e-04   3.4154238e-01  -8.7837973e-01  -4.2159420e-01  -9.3321794e-01  -6.3735998e-01   9.9446114e-01   7.4357368e-01  -2.9609232e-01  -2.4206585e-01  -8.7607653e-01   1.6593600e-01  -4.6300473e-01   7.6267837e-01  -9.7484918e-01   1.8662807e-01  -3.3166122e-01  -8.4043612e-01  -9.3890603e-01  -1.6133096e-01   2.9651231e-01  -4.1680319e-01  -9.3328657e-02   6.5960510e-01   9.8630112e-01   9.6498144e-01  -8.6227062e-01   8.3869941e-01  -7.1451987e-01   6.4158113e-01   3.8075637e-01  -1.3263405e-01  -1.2176621e-01  -2.7799942e-01  -6.8734255e-01   8.4345800e-01   5.6098219e-01   3.4756508e-01   4.3210873e-01  -5.8074919e-01   2.2809525e-01   5.1574303e-02  -1.4005770e-01   4.9560066e-01  -9.5248735e-01  -7.5540089e-01  -9.6940056e-01   1.8196025e-02   6.5880596e-01  -5.6202618e-01   1.7616118e-01  -5.2280930e-01  -6.7230989e-01   1.0208621e-01   9.8603526e-01   5.7829765e-01   1.4490025e-01   1.0639928e-01  -1.9633370e-02  -6.4756595e-01   3.7992928e-01  -8.3618080e-01   1.0791943e-01   1.3064329e-01  -3.7095336e-01   6.0967853e-01  -4.7137468e-01   1.8675716e-01   3.7753907e-01  -2.0487270e-01  -2.8207359e-01  -3.8439999e-01  -5.4029786e-01  -7.4692180e-01  -6.9845269e-01  -9.9290497e-01   8.3279342e-02   2.1586339e-01  -6.0216764e-01  -5.3949020e-01   8.3494655e-01   3.0571212e-01  -5.5035977e-01  -5.0157420e-01  -1.1296063e-01  -1.8502832e-04  -4.5756498e-01   6.5218439e-02  -7.1680735e-01   7.0985100e-01  -5.7333720e-01   5.5462456e-01  -2.9379385e-02   1.9633593e-02  -1.2459964e-01  -1.9479333e-01  -2.7742696e-01   8.1407974e-02   5.0661253e-01   7.6775543e-01   6.3294474e-01   8.7127129e-01  -8.6483884e-01   9.5003220e-01   7.4733735e-01   8.1942205e-01   5.6484942e-01   2.5309169e-01   2.6803588e-01  -9.2127279e-02   6.6865961e-01  -3.2494876e-01   3.3434806e-01   2.6493966e-01   3.3170264e-01  -3.0515858e-01  -3.4531551e-02  -2.5260369e-01  -8.1065837e-01   2.9391106e-01  -7.4866891e-01  -9.2460970e-01  -8.2678482e-01   5.1110141e-01  -9.7199037e-01   4.0867087e-01   1.3981267e-01   5.8957302e-02  -2.3225478e-01   3.9065183e-01  -7.0957726e-01   5.4461283e-01   5.7634546e-01   4.8737479e-01  -2.0938878e-01   2.9041489e-01  -2.3411599e-01   7.2420040e-02   8.3231899e-01   3.1155256e-01   9.0223546e-01   7.8009236e-02  -2.5737907e-01  -8.0143759e-01   8.9035750e-01   8.0825660e-01  -9.8114399e-02   9.1567437e-01  -2.0102084e-01   7.7427433e-01  -7.2104349e-01  -4.5906543e-01  -9.0251404e-01   9.6863811e-01  -7.1942204e-01   2.8475242e-01   4.9123413e-01  -9.5373039e-01   2.6769751e-01   6.6221512e-01   3.7583306e-01  -5.4645294e-01  -8.6978027e-01   5.2275905e-01  -8.8955461e-01   8.0170666e-01   3.9029592e-01   9.9385873e-01  -5.7408661e-01   3.2879870e-01   5.0328226e-01   1.4922340e-01  -9.0939871e-01  -7.4489825e-01   6.3071105e-02  -3.0544835e-01  -9.1837058e-01  -4.3657959e-02  -8.2536427e-01  -6.8151963e-01   1.5074754e-02   2.4741212e-01  -6.1701629e-01  -5.0122028e-01  -3.4044183e-01  -5.1741032e-01   4.9146161e-01  -9.5000457e-01  -2.8051618e-01  -1.4026745e-01  -5.6675477e-01   3.7875405e-01   6.0790091e-01   6.3532766e-01  -5.3407509e-01   2.2059998e-01   9.5195729e-01   6.5180067e-01   3.4510264e-01  -9.6052004e-01   1.1307195e-01   8.9958974e-01   1.8639836e-01  -5.3776493e-01   5.8824361e-01   3.2673932e-01  -7.8941900e-01   2.1038484e-01   8.6089204e-01   2.9126936e-01   1.7891631e-01  -9.7528700e-01  -2.2987061e-01  -2.6174925e-01  -3.9334915e-01   3.9197269e-01   5.7918968e-01  -7.5537259e-01  -5.6329551e-01  -1.6870128e-01   3.6436238e-02   3.0754285e-01  -4.9350095e-01   1.4346443e-01
  -8.0245577e-01  -2.8550188e-01   1.5943107e-01   1.9468203e-01   1.1489816e-01   6.1802370e-01  -9.0860759e-01  -5.1702212e-02   6.1553701e-01  -6.2382482e-02   7.1993250e-01   8.5517286e-01  -4.8118571e-01   5.0788889e-01   1.8430868e-01  -1.0479365e-01   8.7451177e-02   7.2995292e-01   2.2626464e-01  -1.3036196e-01   6.5582635e-01  -7.1330461e-01  -7.4179258e-01   1.9876187e-01   2.6089484e-01   2.1697892e-01  -5.8700604e-01  -3.7645040e-01   9.5627310e-01   9.6058658e-03  -8.5443000e-02  -8.7193746e-01   8.9940495e-01  -1.0784096e-01  -4.1424124e-01  -6.5128455e-01  -8.3225671e-01  -9.6690961e-01   2.6729474e-01  -5.0113037e-01  -1.7055903e-01  -1.3586546e-01   6.3180351e-01  -6.4319507e-01  -5.8912707e-01   3.4444514e-01  -6.5007283e-01   7.9658766e-01   4.8302697e-01  -8.7936995e-01  -5.2973791e-01  -6.4412589e-02   3.9156272e-02  -9.8621418e-01  -6.7845907e-01   4.2059194e-01  -1.0240832e-01  -9.4326369e-01  -7.3289530e-01   7.4769051e-01  -5.4347747e-01   3.5670836e-01  -4.5546273e-01  -8.9731573e-01  -8.1682742e-01   9.1158332e-01   3.8155690e-01  -4.1267342e-01  -6.6109973e-01  -3.9644574e-01   5.1400549e-01   9.6749492e-01  -3.9656485e-01  -6.6893694e-01   8.7320239e-01   6.9210419e-02   3.3836737e-01   1.8998372e-01  -2.5377172e-01   4.8596110e-01   1.6758478e-01  -2.4074046e-02   4.2491639e-01  -2.5692347e-01   8.6431848e-02   7.3541520e-01   5.6008379e-01  -6.4068556e-02   1.1443947e-01   8.0388587e-01  -1.1850299e-01   2.5336030e-01   9.6151606e-01   9.4481164e-02   6.8649318e-01   9.5873872e-01  -8.8084023e-01  -7.2673146e-01   9.2839991e-02   2.0850804e-01   9.5271885e-01  -5.6610171e-01   1.2760431e-01  -1.3575798e-01   1.9503860e-01   4.4221085e-01   1.9984288e-01   7.7302228e-03  -4.5481501e-01   2.9736340e-01  -7.7845504e-01   4.0204251e-01   4.3349490e-01  -6.2280120e-01  -4.1962615e-01  -3.5662155e-01   6.1186482e-01  -3.6014703e-01  -7.3183624e-01  -2.4681440e-02  -1.8327120e-01  -9.0327013e-01   2.0303830e-01  -2.6405905e-01   2.9157916e-01  -3.8475462e-01   9.9577729e-01   3.4272764e-01  -3.3735703e-02  -3.2134279e-01  -9.7177249e-01   4.1455336e-01  -1.9245390e-02  -8.1643637e-01   7.7656764e-01  -8.4707533e-01  -9.3487004e-01   9.1384207e-01   3.4602494e-01   9.3678618e-02  -7.3950430e-01   6.6077100e-01   7.4821708e-01   4.7820851e-01  -4.0843051e-01  -4.9400650e-01  -5.5627832e-02   2.2113581e-01   6.3888788e-01   3.0224554e-01   1.3402423e-01  -9.3269703e-02   6.7135108e-01  -9.9980348e-01   3.9508803e-01   6.7285547e-02  -1.0120598e-02   4.6088852e-01  -4.4106916e-02  -8.6424950e-01  -3.0963305e-01  -9.0260478e-01  -5.3039845e-02  -6.4657953e-02   6.3460808e-01   9.8291365e-01  -9.8885529e-01  -8.3874791e-01   6.6770438e-02   7.9529344e-01  -3.8457457e-01   7.9632627e-01  -1.7419584e-02  -1.9929534e-01  -6.5569845e-01  -1.8203803e-03  -1.5711875e-01   9.8456468e-01  -3.0553148e-02   9.2562305e-01   8.7134325e-01   1.5867482e-01  -7.0346398e-01   3.6263155e-01   8.1304865e-01   4.5739456e-01   6.2411804e-01  -5.5390790e-01  -1.8465783e-01   1.7761283e-01  -2.5967804e-01   1.0919679e-01  -1.5911732e-01  -3.1430810e-01  -9.3429479e-01   8.6688364e-01   6.2315847e-01  -1.2858403e-01  -4.6016674e-01   6.1292751e-01   7.9345449e-01  -1.5940427e-01   5.4769074e-01   5.8874963e-01  -8.0547064e-01   7.5203518e-01   1.0742616e-01  -6.4607108e-01   1.5847530e-01  -7.5548679e-01  -8.6414825e-01  -4.1044580e-01  -6.8447996e-01   9.5309388e-01  -2.8898307e-01  -5.2604496e-01   3.7955489e-01  -7.5289580e-01   3.6242340e-01  -3.0467484e-01   5.8157918e-01  -3.0087963e-01   4.9074822e-01  -3.1089204e-01   7.1582890e-01   4.4040714e-01  -6.1507756e-01  -5.9324438e-01  -8.5387222e-01   4.2924645e-01  -3.4429288e-01   5.6920534e-01  -9.6613991e-01   3.4822001e-01  -1.7275648e-01  -8.3747644e-02   2.0885305e-01   5.5144942e-01   7.4684991e-01  -3.9984713e-01   3.4525753e-01  -1.5930436e-01  -8.4935900e-01  -4.5099187e-01   1.4209622e-01  -6.4733931e-01  -5.6088614e-01  -6.5420908e-01  -5.7465873e-01   5.4368220e-01   8.9499946e-01   4.5309127e-01   7.2806112e-01   6.3549525e-01  -4.8199051e-01   2.4068707e-01  -1.0855440e-01   8.4407035e-02   1.5828034e-01  -7.0618567e-01  -8.2010341e-01   6.5032445e-01  -5.9867587e-01   4.5646441e-01   7.7957913e-01  -1.3454548e-01  -9.8822087e-01   2.5674847e-01  -1.1381422e-01  -5.3248298e-01  -2.6176683e-01  -9.6316167e-01   7.4636685e-01  -4.4087112e-03   9.7576825e-01  -8.8899125e-02  -8.8493869e-01   5.4477474e-02  -4.8539485e-02   7.0448170e-01   8.0429491e-02   5.8789749e-01   3.2007296e-01   2.3802344e-01  -3.1236289e-01   1.9657027e-01  -7.5368610e-01  -5.2002582e-01   5.3191221e-01   8.8975929e-01   5.2219006e-01   7.2830765e-03   4.9205515e-01   2.0293279e-02   7.9740342e-02   6.6636875e-01  -6.0595129e-01   9.8923596e-01   4.8294912e-01   2.2789251e-01  -9.5988374e-01  -3.7027597e-01   4.5161873e-01   8.6482718e-01  -9.4055722e-01   1.5448088e-01  -9.7701322e-01   6.8386187e-01  -7.6648627e-01  -7.7615893e-01   6.0907495e-01  -8.9505461e-01  -6.3544736e-01   4.8182223e-01   7.0553611e-01   1.1023652e-01  -2.3870274e-01  -4.8549941e-01  -7.7627213e-01   8.0920689e-01   6.0309826e-01  -7.9998932e-01  -2.9411318e-01  -5.1731714e-01   6.0242293e-01   4.2168813e-01   2.0628273e-01  -8.3991677e-01   1.6324293e-03   7.8641297e-01  -4.7462186e-01  -5.7848600e-01   2.4316147e-01   9.2856049e-01   1.0276294e-01  -8.5987720e-01   1.2363184e-01   9.3747096e-01   6.9540183e-01   3.2961499e-01  -6.2152086e-01   2.9360835e-01   6.8494053e-01  -4.8034994e-02   3.9309475e-01   4.9924572e-01   8.0618622e-01  -6.6605705e-01   5.9588654e-01   5.8715280e-01   6.8115883e-01   3.8240291e-01   2.4762045e-01  -7.3764104e-01   1.8487661e-01  -9.3784914e-01  -1.2052823e-01  -7.6620498e-01  -7.1946535e-01  -6.1796098e-01   7.9718074e-01   3.5988805e-01  -2.9724036e-01  -4.0439773e-01   1.2174452e-01   6.1358802e-02   8.4662413e-01   6.1730828e-02  -6.7449085e-03  -6.4545841e-01   5.9602968e-01   4.8223121e-01   9.3407875e-02   9.7362191e-01   3.4037492e-01  -6.6961254e-01   6.5193934e-01   9.7966485e-01  -3.8191477e-01  -6.0063978e-01   3.5773091e-01   5.1303087e-01   4.9842983e-01   6.2531998e-01  -8.8139150e-01   1.1391149e-01   9.2238843e-01  -1.4659532e-01   5.1530193e-01   9.6391537e-01  -9.6193822e-01  -5.6649626e-01   2.8502188e-01   3.0314779e-01   6.4205767e-02   3.0023336e-01  -3.6186415e-02   4.3064569e-01  -1.5935065e-01  -9.3728172e-01   4.4628643e-01  -7.7273920e-01   9.3644898e-01   9.5499998e-01  -3.9922334e-01  -9.9856491e-01  -7.0764933e-01   6.2919495e-01   9.9244740e-01   7.0289991e-01   8.8742697e-01   6.7460032e-01   8.0494717e-01  -3.8702687e-01  -6.9783571e-01   1.3573895e-01   6.5175687e-01  -6.0903955e-01   9.3286660e-01   2.8177406e-01   1.0388551e-01   1.6776140e-01  -5.2109935e-01  -1.8982448e-01  -5.5996129e-02   4.3101685e-01   8.0692754e-01   6.6808853e-02   5.8328119e-01   3.5694159e-01  -7.9672359e-01  -9.7151266e-01  -7.4271480e-01   1.7966777e-01  -9.4038820e-01  -1.7931479e-02  -3.2465019e-01   8.3635079e-01  -6.5582004e-01   5.9477000e-01   3.4870588e-01   6.3523490e-01   5.1067248e-01  -1.6788223e-01   3.2841316e-02  -6.5220373e-01  -9.9094937e-01  -3.8801768e-01  -1.5050778e-01   7.2085380e-04  -9.2518178e-02  -6.4895897e-01   4.7009105e-01  -1.2364980e-01  -6.7603505e-01  -1.0794229e-02  -1.3581461e-01   9.8158327e-02  -4.9006873e-01  -4.9364374e-01  -2.6328581e-01   4.1949767e-01  -9.5327193e-01  -3.0369761e-01   4.5642281e-01   9.1923753e-01   8.4736504e-01   2.0849377e-01   5.7541907e-01  -3.6532174e-02  -5.2517740e-01   6.6260424e-01  -9.6191352e-01   9.8224857e-01   4.0534636e-01   9.5250505e-01  -7.4740250e-01   3.0163850e-01  -8.3734658e-01  -4.6895490e-01   7.6458517e-01   2.8964821e-01   7.4338652e-01  -3.3421951e-01  -4.8914950e-01   7.7358767e-01  -3.2903187e-01   4.2851884e-02   4.6329260e-01  -7.2749035e-01  -6.6661208e-01  -8.6376996e-01  -1.0761763e-01   9.1197159e-01  -8.3857091e-02  -8.1357437e-01   2.2983224e-01   5.8764913e-01  -7.2367198e-01  -5.2140637e-01  -1.9689831e-01   3.5100285e-01   9.8556228e-01   1.0099697e-01   9.7072434e-01  -6.1803462e-01  -3.8751236e-01   4.6685831e-01   4.8229125e-01  -6.8120280e-01  -3.5737264e-01   2.5718608e-01   5.1989962e-01   6.2057210e-01  -7.8718025e-01  -5.0926642e-01  -8.7124025e-01  -5.1920439e-01   7.9442698e-01  -8.2268263e-01   7.8610935e-02  -1.4443499e-01   4.1773681e-01   4.5362955e-01  -6.9229029e-01  -4.1757661e-01   4.2601030e-02  -8.6004472e-01   3.2419109e-01   8.6117804e-02  -6.8149485e-01  -8.9017399e-01  -7.2659033e-01  -5.7857604e-01  -5.4386449e-01  -1.5934490e-01  -6.2312269e-01   8.4040445e-01  -1.2738665e-01  -8.5297431e-01  -6.9522000e-01   1.1563424e-01  -5.7202920e-01  -9.5887495e-01   2.7174246e-01  -1.7075567e-01   1.3417711e-01   1.9247389e-01   1.4301851e-01   7.6981548e-01  -9.6876439e-01   6.5857670e-01  -6.1084989e-01   5.5745971e-01  -4.6116468e-01  -6.2377635e-01  -6.6813970e-02   3.7889178e-01  -6.7747035e-01   9.5278851e-01   9.5500918e-01  -2.9128716e-01  -4.8704058e-02   7.9276545e-02   4.5988841e-02  -9.7594952e-02   4.4980969e-01  -1.3763258e-01  -8.5593687e-01   9.8230355e-01   9.7115456e-01   9.4036977e-01   6.8880646e-01   3.6817840e-01  -3.0738421e-01   4.9101397e-01   3.6280891e-01  -7.2976915e-01  -9.1773335e-01  -8.1347939e-01  -9.9297270e-01   6.1127067e-01  -7.8284748e-01   1.8373030e-01  -8.2823317e-01   3.6341052e-01   2.4646935e-01  -4.7578798e-02  -7.6801235e-01   7.8681993e-01   1.8668119e-01  -2.9494096e-01  -6.3405446e-01   3.0955211e-01  -2.6100459e-01  -3.1121463e-02   6.0172460e-01  -6.1841630e-01  -6.4015064e-01  -6.8731981e-01   6.2330596e-01   1.3732345e-01   8.4903357e-01  -5.5161789e-01   8.0358751e-01  -1.7778458e-02  -1.4205203e-01  -6.7056714e-02   4.2544154e-01  -6.5129944e-01   4.4930286e-01   2.0495609e-01   2.4914102e-01  -7.5905600e-01  -5.6428783e-01  -8.2271078e-01  -8.6103791e-01   3.6803450e-02  -8.7946437e-01   9.3115141e-01   3.9510373e-02  -7.5271335e-01  -2.6594782e-01  -3.3637139e-01  -7.8703769e-02  -6.8739725e-01  -3.2389136e-01   4.9638774e-01   1.9367670e-01  -9.8905241e-01   8.3340611e-02   2.2122299e-01   8.9567497e-02  -2.3578875e-01   9.3132154e-01  -7.0432664e-01   4.4274443e-02  -2.1729456e-01   6.9603399e-01  -9.9005695e-01   8.9121146e-01  -2.2501461e-01  -2.8272616e-01  -8.6842874e-01   2.2939721e-01  -5.3127804e-01   1.0452710e-03  -6.4176459e-02   7.1638293e-02   1.0615043e-01   4.3667739e-01   7.6433216e-01  -3.7791491e-01   8.5682247e-01   4.9382274e-01  -7.1488167e-01   9.3843415e-01  -1.5735699e-02  -7.9485435e-02  -5.3108058e-01   6.9322300e-01   3.3944013e-01  -5.4174716e-01  -5.7858792e-02  -4.5237467e-01  -4.9030778e-01   8.7913631e-01  -2.1333451e-01  -7.4009167e-01  -3.7865872e-01  -3.4548439e-01   2.8999168e-01   4.1501117e-01   4.1523038e-03   4.3821913e-01  -4.9343081e-02   7.1551165e-01   7.0825784e-01  -7.6322627e-01  -8.4038612e-01   2.5349549e-01  -9.8961214e-01   8.2441962e-01   6.2847246e-01   1.5612033e-01   8.1028630e-01   2.7384389e-02   3.7993754e-01  -7.9792759e-01  -9.7525580e-01   5.4526158e-01   4.7018707e-01  -6.7541509e-01   2.2215395e-01   8.5696724e-01   6.8948541e-01  -4.4799824e-01   9.5104384e-01   6.0064037e-01   3.4453013e-01   3.5503833e-01  -8.6087733e-01   6.3524564e-01   5.8922829e-01   2.5020159e-01   9.0019645e-01   3.0138665e-01  -9.3937036e-01   3.9682678e-02   1.4506328e-02  -1.8069017e-01   2.0141196e-01  -3.9659749e-01   4.4348958e-01  -7.7839250e-01   2.1575627e-01   2.1602054e-01  -5.5338232e-02  -8.3869991e-01   8.0782462e-02  -4.6239737e-01  -2.3221633e-01  -3.8712813e-01  -5.7131682e-01  -9.1828585e-01   2.2106728e-01  -8.8455088e-01   4.0422186e-01  -4.5028283e-01  -3.0064336e-01  -7.5978991e-01  -7.5432483e-01   3.6363839e-01   3.7765412e-01  -8.0850647e-01  -4.3611107e-01   1.4170454e-01   3.6684762e-01  -7.4895677e-01   5.0030336e-01  -2.7608918e-01  -6.6428146e-01   6.6159471e-01   8.6532905e-01   3.5540146e-01  -3.7334610e-02  -5.4570017e-01   8.2985030e-01   6.3107550e-01  -1.5170539e-03  -5.6655825e-01  -4.2916129e-01   6.4424075e-01   4.6238637e-01   3.1118964e-01   1.6680157e-01   8.7760412e-01  -1.4341127e-01  -3.1318804e-01  -1.5777487e-01  -8.7927763e-01   6.9501564e-01  -8.3860458e-01  -6.1534324e-01  -8.1870345e-02  -7.1179071e-01  -3.3851319e-01   4.8120138e-01   6.4325126e-01  -8.9602868e-01  -6.0976033e-02  -6.5818239e-01  -3.5675274e-01   9.5563532e-01   6.4209661e-01  -5.5341004e-02   4.8897958e-01  -5.7120727e-01   1.8634979e-01  -5.7094858e-01   5.5521944e-01  -9.3773125e-01  -4.6930849e-01  -6.9456409e-01  -9.3854786e-01   4.2023735e-01  -2.2366186e-01  -4.3448409e-01   3.9755006e-01  -9.1566070e-01  -7.5627790e-01   3.8841409e-01  -1.7836199e-03  -6.7704512e-01   9.4379609e-01   3.4945613e-01   9.7468301e-01  -2.6472934e-01   7.4755523e-01  -8.0132189e-01   9.8001942e-01  -8.0202512e-01   8.8382737e-01  -2.4252529e-01   7.6460827e-01   6.9993015e-01  -3.2700625e-01   9.3587866e-01   9.0422345e-01   6.1078282e-01   6.9664251e-01   1.7540884e-01   8.3854656e-01  -9.3175723e-01   4.7637573e-02  -9.6209994e-02   7.8032448e-01   9.6375533e-01  -4.4665687e-01  -5.3390399e-01  -3.9459603e-01  -8.3719048e-01   1.5762617e-01   8.3601994e-01  -5.8817769e-01  -8.5178259e-01   6.7675096e-01   1.4781980e-01   4.5860857e-01  -8.8475292e-01   7.8920976e-01  -5.5679952e-01   5.0098316e-01  -3.6122793e-01   8.7283532e-01   1.1817971e-02   4.9943204e-01  -1.0984283e-01  -3.9665129e-01   2.6194007e-01   9.6007709e-01  -2.8335220e-01   1.1174556e-01   4.1895190e-01   6.4201032e-01   4.3672726e-01  -7.8521683e-01   4.6372933e-01  -7.3809419e-01   7.8574096e-02  -9.5323403e-01  -4.8770286e-01  -6.6458217e-01  -3.3000582e-01   4.5080453e-01   2.0500305e-01  -3.9415205e-01   5.7865762e-01   5.3171093e-02  -8.1251644e-01   5.7590878e-01  -6.9751628e-01  -3.4510325e-01  -6.4695629e-01   1.4049609e-01  -3.0103466e-01  -4.9265615e-01   8.3194700e-02   4.3372269e-01  -9.4432097e-02  -4.6810148e-01  -9.1012720e-01  -3.6134389e-01  -9.5791885e-01  -9.9948604e-01  -5.4523771e-03   6.3288703e-01  -6.0004536e-01  -8.8091770e-02  -2.7004613e-01   7.6645435e-01   8.9589021e-01   1.6925977e-01   4.2396640e-01   9.5509208e-01  -2.9596335e-01  -2.2624600e-01  -8.2245909e-01   9.2272046e-01  -4.5570587e-01  -4.1701302e-01   9.2272326e-01   2.0790471e-01   9.1503681e-01   2.8880773e-01   6.8851386e-01   9.1970074e-01  -7.1333184e-01   7.9653593e-01   4.8013901e-01  -7.2601246e-01  -8.3689651e-01  -3.3611140e-01  -2.5969148e-01   8.6478225e-01   1.3172613e-01   3.7514975e-01   5.4094187e-01   9.7970291e-01  -7.8271080e-01   3.6511853e-01  -8.6195225e-02  -5.4012988e-02   4.5814054e-01  -7.6372051e-01  -4.3860319e-02  -1.1883778e-01  -2.4508985e-01   4.7940147e-01   3.5363640e-01   6.1422757e-01   5.7345926e-01   3.7914186e-01  -1.2201356e-01   5.5817648e-01  -5.3025491e-01  -9.9728227e-01   4.1194218e-01   5.7512513e-01  -5.7979029e-01  -7.5781604e-01   2.0558422e-01  -6.3070863e-01  -3.9897003e-01  -6.7274026e-01  -8.0923910e-01   7.3532550e-01  -8.1106736e-02  -9.8768409e-01   9.9807491e-01  -4.4281292e-01  -9.1655471e-01   6.9272757e-01   2.9148151e-01  -8.1242456e-01  -9.5193819e-01  -1.7097244e-01  -4.4572859e-01  -1.7245829e-01   9.2494076e-01   9.7165227e-01   8.9273173e-02   2.7157331e-01  -5.4172072e-01   5.7577562e-01   4.3203547e-01  -4.6452345e-01  -2.1830043e-01   5.8059058e-01  -7.9613226e-01  -7.2919818e-01   7.7337815e-01  -8.2321838e-01   9.7774997e-01   7.3048948e-01  -2.5538302e-01   2.7306226e-01   7.5117310e-01   4.9145055e-01  -1.0681922e-01  -2.2555324e-01   6.6562701e-01   9.9520476e-01  -7.5234447e-01  -6.5307063e-01   8.6709755e-01  -8.0080996e-01  -5.4675569e-01   8.4202446e-01  -7.5849329e-01   9.9420089e-02  -5.2877603e-01  -8.8063729e-01  -3.5916137e-01   7.2160465e-01  -8.7721230e-01  -4.0255021e-01   6.1313798e-01   2.4889924e-01  -5.3320840e-01  -9.2561100e-01   4.7074122e-01   3.7951778e-01  -4.1975660e-01  -7.5827566e-01  -2.7805446e-01  -2.7575019e-01   6.8056648e-01  -9.0089156e-01  -1.2446957e-02
   4.3814478e-01   7.3405124e-01   9.2012705e-01  -9.9657784e-01   4.3340931e-01   1.3020872e-01   1.1212983e-01   2.6521431e-01   8.5831696e-01  -9.2689306e-01   1.1910549e-01  -6.7748343e-01  -9.3283745e-01   1.8416189e-01  -6.1365975e-01  -2.5651343e-01  -1.1963604e-02  -8.9991717e-01  -4.7363614e-01   6.3381246e-01   7.8648536e-01  -4.4455608e-01   2.4633306e-01   8.0180483e-02  -7.8522254e-01  -5.0146872e-01  -5.4335342e-01   2.9299991e-01   5.1676069e-01  -3.4340473e-01  -8.0997033e-01  -1.9226807e-01  -8.9651966e-01   7.5071481e-01  -3.2011570e-01   5.1507743e-02  -2.4670804e-01   4.5794739e-01  -8.4617265e-01   3.5259313e-01   3.2082318e-01  -4.4019496e-01  -9.7875837e-01   8.9580343e-01  -8.4973245e-01  -7.3214581e-01  -7.2115579e-01   6.6222684e-01   9.5909788e-01  -9.4814439e-01   6.4808592e-02   5.9947306e-01  -3.8264882e-01   8.3682007e-01  -6.0743289e-01  -3.4201534e-01  -6.6402194e-01   5.5173485e-01   4.0550588e-01  -8.8201565e-01   9.1202295e-01  -9.2850132e-01   4.0708169e-01   7.1117891e-01  -7.0262739e-01  -9.8006603e-01   3.8614801e-01  -1.5566189e-01  -2.9908813e-01   5.0419941e-01   8.5343778e-01   6.0474830e-01  -5.6753304e-01   7.4360354e-01  -2.0353010e-01   3.3284042e-01   4.8692253e-01  -5.1324382e-01  -3.4959116e-01   3.8612760e-01  -5.8512220e-01  -3.1107851e-01   6.4914812e-01  -1.4727091e-02  -5.9368910e-01   3.6101962e-01  -8.9939215e-01  -3.8186854e-02  -1.8150060e-01   8.3268945e-01   3.0577363e-01  -9.7591482e-01  -2.5585830e-01   4.7987880e-01   6.0022513e-02   4.3038211e-01  -1.1106894e-02  -7.6651176e-01  -7.5949161e-01   7.7051987e-01   4.1099657e-01  -8.1252892e-01   8.3881771e-01  -3.8117764e-02   2.2664991e-01   1.4849017e-01  -7.3438453e-01  -3.9940391e-01   3.9717491e-01   9.5127859e-01  -6.8055996e-01   8.0506005e-01   2.2414264e-01  -4.0073608e-01  -9.2837773e-01  -7.9396459e-01   2.9867809e-01  -2.8734633e-02   8.2633011e-01  -9.1357181e-01  -5.5909214e-01  -4.6272352e-01  -5.7949680e-01  -5.1464350e-01   8.1355641e-01   6.1481274e-01   1.7798711e-01   8.5127384e-01  -5.0452192e-01  -5.0102107e-04  -9.4679566e-01  -9.3991684e-01   5.9579506e-01   7.5958185e-01   7.2706835e-01   3.2566472e-01   1.5565512e-01   8.8243373e-01   3.7408601e-01  -1.6196305e-01  -2.2860904e-01   3.1762798e-01  -9.6138157e-01   2.9924840e-01   9.0814873e-01  -7.3982060e-01  -4.7014190e-01  -5.6766778e-02   4.8129265e-01  -1.2355859e-01  -1.6604788e-01   9.0423980e-01  -9.2116497e-01  -6.1245338e-01   9.3600011e-01   6.9801871e-01   4.9117193e-01  -7.3419807e-01   6.3615733e-01   3.9428602e-01   5.9343519e-01   2.3259146e-01   3.4423653e-01   9.0000587e-01   3.0175526e-01   1.4819057e-01  -1.5037168e-01   9.2648267e-01  -7.9410928e-01  -9.8101113e-01   4.4434900e-01  -3.8939979e-01   7.8371013e-01   7.3175511e-01  -2.1086916e-01  -1.5426594e-01  -2.3281195e-01  -4.3198047e-01   8.0537014e-01  -5.4517055e-01  -6.4100152e-01   6.5483164e-01  -9.8726415e-01   4.3637280e-01  -3.6082990e-01   8.3809064e-01   7.4744791e-02   3.5330003e-01  -5.4092681e-01  -9.5750176e-02  -7.8011838e-01  -5.4800061e-02   7.7832472e-01  -5.6206316e-01  -8.8812415e-01   9.3552173e-01   6.9004794e-01  -3.0716223e-01  -9.1215913e-01  -7.4994978e-01   1.9764226e-01  -4.7144726e-01   2.9928074e-01  -1.8169894e-01  -8.0214747e-01  -3.9273941e-01  -7.1969070e-01  -2.1501260e-01   1.9628305e-01   7.0257695e-01   6.7077278e-02  -8.4401254e-01   7.6015252e-01   3.6077606e-01  -9.9735757e-01  -8.1220830e-01  -1.9038862e-01   5.4889641e-01  -9.9229295e-01  -3.6836081e-01  -3.6227130e-01   7.1458423e-01   1.7698415e-01   6.1163799e-01  -2.4815874e-01   8.1459962e-01   7.0804598e-01   2.9907450e-01   9.7632071e-01   5.1497620e-01  -1.7379077e-01  -1.5160211e-02  -4.1807641e-01   6.5680557e-01  -6.2186146e-01   4.2934224e-01  -6.1470843e-01  -4.9618812e-01   9.0145550e-02  -4.7532590e-01   6.7695436e-01   1.0410489e-01  -4.2372115e-01   2.9655439e-01  -6.1886237e-01  -9.4055808e-01  -5.4491257e-01  -5.0755116e-01   2.1966846e-01  -8.1373620e-01   5.1900554e-01   2.1371928e-01   8.0693593e-01   6.6711451e-01   8.5700052e-01  -7.9235556e-02  -5.7047594e-01  -9.3003398e-01  -9.4755989e-01  -5.9380352e-01  -2.6004352e-01  -8.5424642e-01   9.9171158e-01  -4.0207985e-01   2.1827724e-01   7.7959835e-01   1.7936231e-01   1.5234324e-04  -2.1907258e-01  -8.1050788e-01  -8.8947875e-01  -7.4350269e-01   7.6080506e-01  -9.8561069e-01   9.9327537e-01  -8.7258799e-01  -8.0784207e-01   7.8260617e-02   3.7871414e-01  -8.9599961e-01  -9.5834755e-01  -4.2845414e-01  -5.1665613e-01   4.6893331e-01  -1.1049218e-01  -9.0504668e-01   3.8441830e-02   4.0663947e-01   8.8443676e-01  -1.6405116e-01  -6.6343177e-01   3.7703567e-01  -9.2580896e-01   5.3041844e-01  -8.1053567e-01   2.8362952e-01   6.7494427e-01  -1.4206368e-01   9.2892020e-02   4.0765954e-01   8.8197609e-01   1.1099921e-01   3.6106673e-01  -9.4141495e-01   2.1073349e-01  -7.9187900e-02   5.3743630e-01  -5.1211677e-02   8.5368660e-01   4.7558636e-03   3.7841774e-01   2.2508269e-02  -5.6209364e-01   8.5855612e-02  -9.0661151e-01   9.7073770e-01   3.5569065e-01  -5.1237890e-01   4.9725994e-01  -2.3055553e-01  -9.5676551e-01   6.3014506e-01   8.9390621e-01   4.1658779e-01  -8.9129338e-01  -6.8745587e-01  -8.1781886e-01   3.1852046e-01   6.5975592e-01  -4.9062485e-01  -2.7339652e-01  -2.8670832e-03  -8.0224757e-01   7.5965496e-01  -1.6320339e-01  -8.7468644e-01  -2.2955544e-01   9.5652144e-01   2.8536498e-01   5.0334744e-01   7.2701500e-01  -5.0121946e-01   2.7586845e-01   7.7111912e-01  -8.6835878e-01  -4.8255983e-02  -7.5679844e-01   5.7182066e-01  -1.2999197e-01  -2.1283117e-01  -5.6248318e-01   9.2646373e-02   3.9620305e-01  -3.3978647e-01   5.0873409e-02   3.9472149e-01   4.5510267e-01  -3.8667560e-01  -7.4922801e-01  -7.8000003e-01   2.5074513e-02   7.3978709e-02  -9.1624072e-01   1.5484566e-01  -8.0915522e-01   5.8473858e-01  -8.2722612e-01   7.0669105e-01  -4.6601323e-01   2.9823337e-01  -9.9650471e-01   6.5887943e-01   7.7496109e-01  -8.8266869e-01   5.8419594e-01   6.8314014e-01  -9.2252286e-01   6.7596849e-01  -7.0818653e-02  -7.9551399e-01  -6.2193157e-01   2.9938032e-01  -4.2410034e-01  -8.3776870e-01  -3.7392556e-01   4.4451513e-01   5.8067167e-01  -9.4099932e-01  -1.1719810e-01  -5.9743398e-01  -5.4341777e-02   4.1970068e-01   4.7547079e-01  -9.8476857e-01  -6.5962968e-01  -1.5687117e-01  -3.5517123e-01  -3.8624262e-01   1.3756449e-01   1.7546586e-01   4.1149111e-01  -8.9366787e-01   1.0048930e-01   1.4373974e-01   7.3778700e-01   6.6855408e-01   4.8403935e-01  -7.2811172e-01  -5.7828417e-01  -5.1486232e-01  -9.3333097e-01  -8.9219018e-01  -2.8781796e-01   8.4474969e-01  -5.3086606e-01   2.5027237e-01  -5.8690421e-01   8.8464931e-02  -2.3722346e-01   4.9393705e-01  -9.7173537e-01  -9.6917757e-01   7.8125834e-01  -7.9571597e-01  -8.0361725e-01   4.7998943e-01   2.1195570e-01   5.5296990e-02   1.1099549e-01   8.7504456e-01  -9.6822550e-01   1.7265387e-01   6.3603155e-03  -5.9832782e-01  -7.8408662e-01  -9.3985989e-01   9.6852828e-01  -7.9966653e-01  -2.7050921e-01  -1.2022875e-01   9.9905839e-01   2.1912244e-01   1.3032124e-01   7.2444204e-01  -5.6296126e-01  -8.2668905e-02  -5.2951976e-01  -4.7259182e-01   8.7780212e-01   3.9394603e-01   9.6468225e-01  -9.1269642e-01  -6.8365177e-01   5.4480122e-01   8.8050438e-01   5.6362413e-01  -2.9148400e-01   8.3582028e-01   5.5514378e-01   5.7512571e-01  -4.7463979e-01  -9.7953911e-01  -8.5025692e-01  -2.7229530e-02   9.3953556e-01   5.6964958e-01  -4.4520014e-01   2.8140609e-01  -6.0559556e-02   6.7542667e-03  -7.5652237e-01  -5.3626636e-01   5.1504364e-02   2.3090840e-01   4.4525246e-01  -9.5400489e-01  -4.7988350e-01  -5.7545190e-01   9.2410075e-01   9.5773601e-01  -2.7353703e-01  -6.0300467e-01   1.1457227e-01  -9.7948080e-01   2.6195142e-01   8.2041427e-01  -1.2267615e-01   5.8885306e-01   8.4551234e-02  -7.3518187e-01  -5.7693428e-01   8.9788630e-02   5.0489868e-01  -4.4286133e-01   7.8279318e-01   6.7150844e-01   2.7707644e-02   4.1407115e-01   1.5471964e-01   4.6644782e-01  -5.0325915e-01   9.7265715e-01   2.3952725e-01   5.1353038e-01   8.2590185e-01   6.7636038e-01   8.7091666e-01   7.2101827e-01   4.0623525e-01   3.1497867e-01  -2.2482147e-01  -8.2350844e-01   9.0876497e-01  -1.0405383e-01  -3.0739573e-01   3.9110526e-01   6.2733355e-01   2.0662225e-01  -3.3861801e-01  -6.8615683e-01  -3.4009155e-01   3.2706105e-01  -2.9275065e-01  -5.4722216e-02  -3.2342855e-01   5.9892858e-01   6.9418385e-01   3.1231982e-01  -8.5300130e-01   1.8477574e-01   9.7434728e-01   4.7123201e-01   1.5321492e-02   9.9873442e-01   2.6222017e-01  -8.0718889e-01   3.8317060e-01   3.2548926e-01   9.6076229e-01  -4.8032119e-01   6.1375657e-01   6.9922813e-01  -9.8381711e-01   5.6065972e-01  -4.2765305e-01  -9.5085079e-01   1.6678151e-01   4.3248519e-01   6.4542353e-01  -9.3935767e-01   2.6803537e-01   8.6186262e-02   9.4623906e-01  -6.0226188e-01   2.0913126e-02  -7.1524905e-01   1.3161467e-01  -9.4631913e-01  -7.2831090e-01  -8.4904826e-01  -5.5285712e-01  -1.6847463e-01  -7.5581417e-01   1.2544675e-01   9.8647986e-01  -2.7165783e-01   8.0994067e-01  -7.5083404e-01  -7.8548837e-01   3.4922197e-01  -7.8016158e-01   2.5255636e-01   2.6814296e-01   8.5190582e-01   6.5780165e-01  -9.0790299e-01  -9.3713267e-01   6.9020291e-01   3.7302198e-01   2.4058933e-01  -9.1811487e-01  -6.7900953e-02   6.9668922e-01   6.2424382e-01   1.4841136e-01  -1.3272030e-01  -5.6491430e-01  -3.1577114e-01  -2.4482446e-01   3.4404535e-01  -5.3597242e-02  -4.6883657e-01   3.8414764e-01  -8.1110829e-01  -9.3936550e-02  -9.6894921e-03   2.6878665e-01  -4.7900862e-01  -6.6481795e-01  -7.9773068e-01   2.7731308e-01   3.8438426e-01   7.7703414e-01  -9.5867141e-01  -2.2743425e-01   7.4917757e-01  -1.2254349e-01  -5.9315162e-01  -2.0925512e-01   6.9997492e-01  -1.7761298e-01   9.0462110e-01   5.4997554e-01   6.3808041e-01   6.5584931e-01   8.1056495e-02  -7.1679359e-01   5.1197589e-02   4.8984839e-01   5.3473064e-01  -5.4633147e-02   9.8973216e-01   6.9362173e-02  -2.9600244e-01  -5.7976057e-01   5.2366253e-01   5.3762832e-01   1.0761027e-01  -5.9127546e-01  -4.6702168e-01   1.4884736e-01   8.9112800e-01  -6.7002887e-02   9.6864764e-01  -6.7738519e-01   8.7658817e-01  -6.9726679e-01  -7.1772713e-01  -1.3110047e-01   1.4705159e-01   7.4230166e-01  -7.4561987e-01  -7.6977013e-01  -5.3971274e-01   4.2563647e-01  -6.7195806e-01   4.4198608e-01  -4.4634647e-01   2.7666883e-01   5.0011017e-01   8.1406561e-01   1.5915171e-01   6.6359415e-01  -5.9652271e-01  -6.9090347e-01   8.5550565e-01   3.9782825e-02   3.0367129e-01   3.7965807e-01   2.3753393e-01   5.6062355e-01   3.1839482e-01   4.0543667e-01  -3.5125269e-01  -3.6205562e-01  -7.3726324e-02  -9.3021806e-01   4.5828084e-01   3.1507141e-01   8.8654950e-01   7.6739127e-01   9.6906604e-01   5.6397368e-01  -3.8027044e-01  -4.4915997e-01  -5.9791715e-01   3.5323834e-01   9.1067865e-01   1.2386987e-01   1.0810855e-01  -4.2372661e-01   4.2045011e-02  -3.9469924e-01   2.3287063e-01  -3.7597069e-01   1.6060407e-01   9.5387823e-01  -8.6893959e-01  -6.7773452e-01  -5.8681687e-01  -5.8589478e-01  -1.8779148e-01  -6.1497493e-01   3.1780508e-01   3.7719736e-01   2.4974366e-01   3.2596139e-01  -5.0423854e-01  -8.2647236e-01   4.0582244e-01  -3.8425904e-01   4.4682494e-01   2.6562070e-02  -9.0252330e-01  -8.7740593e-02  -7.4321929e-01  -2.0366121e-02  -8.6690853e-02   9.7978606e-02   6.4318451e-01  -4.0392490e-01  -4.1452328e-01  -7.8608187e-01  -4.5402930e-01  -9.6638479e-01   1.0016527e-01  -6.5188873e-01  -5.8173411e-01  -3.0386150e-02   5.9861490e-01  -5.9017410e-01  -5.8907119e-01  -1.2552355e-01   2.2093177e-01  -9.1739880e-01   7.7086997e-01  -2.8394698e-01  -5.9607432e-01  -1.3930310e-01  -6.3042975e-01  -1.0642171e-01  -3.6009722e-01   1.6532821e-01   6.2785372e-01  -7.8492858e-01  -2.9978807e-01  -3.7453516e-01   6.7635930e-01  -3.5454438e-01   9.0388569e-01  -8.2579026e-01   9.3044296e-01   6.5274347e-01   8.0640784e-01   1.1554551e-01  -6.0520635e-01  -6.8634151e-01   5.6636606e-01  -1.1604263e-01  -2.7799612e-01   4.9777167e-01  -9.3496370e-01   2.0464878e-02   6.2594017e-01   9.4745144e-01   8.0951628e-01  -3.5442235e-01  -7.6389423e-01  -3.1913724e-01  -6.7625341e-01  -1.0660528e-01   9.4718207e-01  -1.5469014e-01  -2.4951472e-01  -7.1862867e-01   8.9229334e-01   6.6996403e-01  -6.2260174e-01  -2.9607627e-01   8.0417168e-01   1.5183227e-01  -1.0913725e-01  -2.1711319e-01  -8.7053879e-01  -7.9700450e-01   9.4700711e-01   4.8594774e-01   8.1709780e-01  -7.1804834e-01  -6.6026742e-01  -6.3758880e-01  -7.4640549e-01   4.0990121e-01  -9.3095610e-01   2.1600615e-01  -3.8643120e-01   5.6362391e-01   1.2723658e-02  -2.4293259e-01  -1.3379087e-01  -2.4137625e-01   1.6432354e-01   4.7639999e-01  -7.2472956e-01   5.3233793e-01   4.9043557e-02  -1.1099643e-01   7.1183751e-01  -9.7418976e-01  -4.3398753e-01   4.0288027e-01   7.5491591e-01   8.1153795e-01  -4.6261509e-01   2.4352221e-01  -4.3037512e-01   6.0917912e-01  -7.0276030e-01   5.4620421e-01  -3.6598494e-01   1.1902285e-01   5.0827701e-01  -3.7523349e-01   1.3330889e-01   6.6028392e-01   8.7751746e-01  -1.7665464e-01   8.2573461e-01  -3.3276807e-01  -3.0451927e-01   4.2207392e-01   9.4065824e-01  -2.4535536e-01   6.0607645e-01   7.3145768e-01  -2.6669871e-01  -9.5682211e-03  -6.3965620e-01   2.1740687e-01  -9.8480822e-01  -7.6842106e-01   6.7485726e-01   1.8769355e-01   6.3964323e-01  -6.7810251e-01  -3.5338804e-01   3.5530635e-01  -7.7079235e-01   9.4323239e-01   8.3262541e-01  -1.7318638e-01  -2.2076008e-01  -1.2575263e-01  -4.9280532e-01   9.2253683e-01  -1.9226789e-02  -1.2581414e-01  -8.3814620e-01  -4.0987527e-01   8.3258740e-03   6.9600067e-01  -6.6063207e-01  -6.5032847e-01  -5.3015279e-01   2.7900706e-01  -6.9505315e-01  -3.5793064e-01  -8.4116136e-01  -9.3982037e-01  -4.3633704e-01   8.8461405e-01  -1.4365113e-01   6.1380465e-02   8.0901632e-01  -3.9077597e-02   3.7143424e-01   3.5125906e-01   5.9320855e-01  -8.4262970e-01   1.8364869e-01   9.6872776e-01  -2.0804607e-01  -3.1174021e-01  -8.1595912e-01   8.6357134e-01  -8.9311460e-01  -7.8721466e-01   2.8139850e-01  -9.8116196e-01  -5.4084871e-01  -8.3342199e-01   5.5450788e-02  -3.1030817e-01   5.6246324e-01  -7.8457305e-01   4.0225611e-01  -7.4014958e-01  -5.1792853e-01  -2.6749740e-01   9.4905568e-01  -3.2687714e-01   2.8295570e-01  -2.3537534e-02  -7.1985312e-01  -1.0059831e-01  -5.0683447e-01  -7.8423807e-01   4.2466162e-01  -9.0732677e-01   1.2059808e-01  -3.3321065e-01   3.9960189e-01  -5.5991875e-01  -7.5400065e-01   4.0980776e-02   3.6491520e-01   9.5884994e-01  -4.9647334e-01  -3.1442816e-01  -2.1148704e-01   9.3285305e-01  -1.3247302e-01   1.4288298e-01  -5.0919213e-01   3.0992289e-01   6.9632603e-01   6.1486760e-01  -2.4258304e-01   9.4803998e-01  -3.9429199e-01   4.4577351e-01   6.2799076e-01   4.8364788e-01  -1.4233822e-01   2.5630068e-01   4.1383864e-01  -1.4941673e-01   1.7185248e-01  -2.1482060e-01  -4.2998624e-01  -5.0990121e-01   2.2678683e-01   5.4906728e-01   5.4274446e-01  -7.6385950e-02  -2.8643742e-01  -7.1281397e-01  -5.1340461e-01   1.4573264e-02  -2.7786272e-01  -5.8530230e-01  -1.9447662e-01   2.3331227e-01   1.1829477e-01   7.9061113e-01  -4.9223817e-01  -1.8720038e-01  -3.9887549e-01   9.4283154e-01  -9.7015831e-01  -7.3999098e-01  -7.9185968e-01   1.0480976e-01   9.3969696e-01   9.2678178e-01  -3.6030498e-01  -2.0945305e-01   9.6157913e-02  -9.8133523e-01  -5.5668802e-01   1.2708384e-01  -6.1106104e-01   3.8355015e-01  -8.2675048e-01  -4.4013226e-01   9.4530832e-01   5.5892773e-01   1.1216708e-01  -2.5412328e-01  -5.5991785e-01  -5.8063671e-01   6.7151271e-01  -6.8902061e-02  -8.1685586e-01   9.6630749e-01   6.0598621e-02   1.0162364e-01  -9.6020626e-01   2.9482635e-01  -3.1790745e-04  -7.4542253e-01   6.3568901e-01   2.1199895e-01  -9.3470826e-02  -4.8192003e-01   9.0786721e-01  -9.1591041e-02  -6.0658858e-01  -2.2109388e-01  -7.9780973e-01   4.4393466e-01   2.7948152e-01  -7.8730629e-01   9.6675566e-01   7.8572860e-01   1.1970162e-01  -4.0838494e-02   6.7907831e-01  -3.5736911e-01   6.9342720e-01
  -7.7219342e-01   1.0112277e-01   7.8904815e-01   9.1190772e-01  -8.6705994e-01   4.8383905e-02  -6.3727943e-01  -9.5682097e-01  -9.5121244e-01   5.2084992e-01   3.4532211e-01  -1.7480146e-01  -7.9225230e-01   9.0479863e-01   7.4888972e-01   5.3591984e-01   4.0121317e-01  -1.2525587e-01  -2.9110184e-01   5.7942585e-02   5.9028461e-01  -7.3192024e-01  -7.7207784e-01  -3.0947575e-01  -7.6936657e-01  -6.1690052e-01  -9.9283871e-01   4.6914574e-01  -6.2938275e-01   2.4477923e-01  -3.0846588e-01  -1.3821086e-01  -4.9577188e-01   2.3008169e-01  -1.0133197e-01  -7.7280735e-01  -1.3135195e-01  -7.2482867e-02  -7.3643297e-01   8.3489137e-02  -9.2887214e-01  -6.4890222e-01  -3.8191825e-01  -9.9063708e-01   2.8021763e-03   4.2352156e-01  -6.9812082e-01   7.5778147e-01  -9.1947617e-01   4.1994336e-01   6.3449007e-01  -9.7198124e-01   9.1214343e-01  -1.8381067e-01  -6.8681145e-02   4.4686661e-01   7.1008290e-01  -1.3518255e-02   6.0836716e-01   4.1757393e-01   5.0308347e-01   1.2886607e-01  -5.0194757e-01  -1.1879410e-01  -4.6798951e-01  -1.4393642e-01  -3.5808498e-01  -9.4317072e-01   7.1330104e-01  -4.7758538e-01  -9.0823376e-01   1.9882441e-01  -5.7367156e-01  -4.1146042e-01  -6.1089348e-01  -3.7923032e-03   6.5513719e-01   5.0719204e-01  -3.3663428e-01   9.9636530e-01  -7.0290898e-01  -6.9903181e-01  -6.9623434e-01   4.0368165e-02   9.6824476e-02   8.4710707e-01  -7.5235925e-01  -6.9083211e-01   3.3597935e-01  -5.7466488e-01   5.0131106e-01  -4.4429847e-01   3.3508422e-01  -4.1943246e-01   2.8355724e-01   9.7951034e-02  -7.7391775e-01   7.5660273e-01  -4.4225835e-01   5.3027643e-01   1.3668354e-01  -7.1257815e-01  -8.9477890e-01  -4.2803343e-01  -8.0358806e-01   3.1334226e-02  -7.2464694e-01   3.0880794e-01  -9.0967944e-01   6.8705736e-01  -7.9892158e-01   3.1048274e-01   9.7262687e-01   8.0121791e-01  -1.4081191e-01  -1.5805668e-01  -2.0833717e-01  -9.3946549e-01   3.3957906e-01  -1.4544423e-01   7.9046580e-01   2.9573990e-01  -6.8586358e-01   7.7187755e-01   6.4704514e-01   7.2100429e-01   8.2544908e-01   2.4505547e-01  -7.5118271e-01  -8.2810767e-01   2.4897632e-01   8.1410178e-01  -9.1265582e-01  -4.9618355e-01  -9.9980075e-01   3.2699004e-01  -8.7225044e-01   2.8312463e-01   1.6375790e-01  -9.9315720e-01  -9.4530681e-01   5.7032966e-01   1.5662137e-01   6.1336477e-01  -3.7679315e-01   2.6875151e-01   3.0253103e-01  -5.9894482e-02   5.0243926e-01   5.2801101e-01  -2.5577695e-01   8.3863325e-01   4.5187733e-02  -6.4146855e-01   8.0623706e-01  -4.0357270e-01  -8.5593309e-01   4.5436331e-01  -2.4611146e-01   9.5526421e-01  -2.2363755e-01  -1.4453233e-01   7.6039165e-01  -4.6509253e-01   5.1909840e-01  -1.5484829e-01   3.2867734e-01  -5.6486625e-02   8.3155932e-01  -1.4705073e-02   7.5448797e-01  -2.0525473e-01   4.2018097e-01  -9.3481062e-02  -2.6357909e-01   8.1503699e-01  -6.3321610e-01   1.1029442e-01   1.6395440e-01   6.6942642e-01   9.3302495e-01  -8.0400062e-01  -6.8243511e-01   8.7828448e-01  -8.4985152e-02  -3.2065881e-01   5.5279309e-01   3.9137699e-01   8.0083267e-02   4.1659667e-01   3.8345951e-01  -5.3179765e-02  -1.8089899e-01  -1.8912217e-01   2.7221298e-01   6.3084640e-01   7.9689091e-01  -6.3302507e-01   2.3897815e-01   1.6279868e-02  -9.8993349e-01   2.6176490e-01   3.2342644e-01   8.4083321e-01   7.7903112e-01  -8.5782191e-01  -1.1773388e-01  -7.2277610e-01   7.5015888e-01   9.3933198e-01  -1.0045380e-01  -4.9286588e-01  -4.7692229e-01  -3.5221558e-02   4.2271679e-01  -5.2679482e-01  -9.4189585e-01  -7.9502958e-01   8.1306551e-01   8.0453541e-01  -6.6634234e-02   1.1322039e-01   7.9010267e-02   3.0676781e-01   2.4566379e-01   4.1994007e-01  -4.0659015e-01   7.4411013e-01   6.3303472e-01   8.6899342e-01   5.7103798e-01  -2.9110118e-01  -5.6999124e-01   5.1218472e-01  -1.5777249e-01   5.6833162e-01  -1.8159999e-02   7.0934142e-02   9.3719031e-01   8.1723905e-01  -1.2094458e-01  -4.9412234e-01   2.8881329e-01   9.5068465e-01  -7.2752857e-02  -4.2729790e-01   3.1855817e-01   5.5732156e-01  -9.2146017e-01   4.0583192e-01   5.3854412e-01   6.8502693e-01   6.0972549e-01  -7.3362809e-02   3.1601034e-02   7.7335959e-01  -5.9903185e-01  -5.6646320e-01  -4.4342366e-01  -9.9943182e-01   1.5782833e-01  -3.2506603e-01  -3.9384222e-01  -2.6178892e-01   5.5336846e-01  -1.3593599e-01  -2.0664885e-01   6.8165794e-01  -9.7959570e-01   1.4912214e-01   2.4794092e-01   4.6752901e-02   6.1576130e-02   9.7299877e-01   4.4215085e-01   1.0897845e-01   8.0110889e-01  -5.8645986e-01  -5.5160441e-01  -7.2639254e-01   3.9120243e-01  -7.4506194e-01   5.8371416e-01  -3.4322947e-01   4.7682422e-01  -7.9640425e-01  -5.5273187e-01  -1.4408376e-01  -9.9397796e-01   1.4819772e-01  -1.2594918e-01  -5.0074271e-01  -3.2894534e-01   4.9343678e-01   7.5745632e-01   9.8657609e-01  -5.2185536e-01  -3.3567709e-01   2.8896892e-01  -5.2540356e-01  -7.0473076e-01   5.8709237e-01  -9.8146077e-01   3.1624758e-01  -3.8695083e-01   7.7790433e-01   3.0868652e-02   3.2421422e-01  -6.0854328e-01   4.2779963e-01   9.3585613e-01   9.7133293e-02  -5.7113272e-01  -5.1106877e-02   6.5256466e-01   1.1819258e-02   5.6399794e-01  -7.5695857e-01  -3.8492427e-01  -6.8536476e-01  -9.4298877e-01  -9.1584180e-01   3.8915267e-01   2.1292009e-01   9.2621753e-01   8.6577470e-01  -9.5802686e-01  -1.3807993e-01  -8.9664734e-01  -7.7726908e-01   2.4070357e-02  -5.1576203e-01  -8.7493934e-01   7.6556282e-01  -3.3110851e-02  -3.4972403e-01   6.9625238e-01  -6.8716922e-01  -5.8098010e-01  -7.0840268e-01  -9.9076095e-01  -8.4155423e-01  -7.9912561e-01  -5.7905978e-01   5.0038579e-01   2.9494240e-01  -4.8523915e-01  -5.9043106e-01  -1.6832920e-01  -6.3994804e-01   7.6977711e-01   9.6079196e-01   3.3937925e-01  -1.1375831e-01   4.2593152e-01   9.4759569e-01   2.1037184e-01   4.9042603e-01   8.4031808e-01  -7.2032120e-02  -9.8148972e-02  -5.2193331e-01   3.4703623e-01  -2.4619231e-01  -7.9216309e-01  -2.8403680e-01  -1.9390935e-01  -4.5098302e-01   5.9996559e-01   5.1418254e-01   1.4473649e-01  -6.7561341e-01  -1.2672106e-01   3.0224815e-01  -6.5669168e-02   3.8575286e-01  -3.3709440e-03   3.9093173e-01   5.4579184e-01   7.0653334e-01   4.3421219e-01   4.1501231e-01  -7.7285396e-01  -7.1941634e-04   9.6305004e-01  -2.4405355e-01   8.8763573e-01  -5.8133198e-01   2.2396356e-03  -3.5887476e-01  -5.9589817e-01  -2.1721136e-01  -6.8276110e-01  -2.4260353e-01   9.8486397e-01  -2.1824713e-01   7.5709597e-01   7.5516149e-01  -5.1760147e-01   6.4452346e-01   1.2189044e-01  -3.0127244e-01  -5.8936506e-01  -2.9003673e-01  -7.5145289e-01  -3.7435228e-01  -4.4879839e-01   7.8076147e-01  -7.8059253e-01  -1.2335381e-01   6.6478229e-01  -1.5999852e-01  -8.9415903e-01   1.8530038e-01  -2.3431831e-01  -8.2760542e-01   1.1318712e-01  -1.0422042e-01   7.6093479e-01  -1.3848482e-01  -3.6463247e-01   1.4569266e-01   8.8034801e-01   9.0287278e-02  -7.7559358e-01  -8.4328900e-01   8.4876191e-01  -5.2940792e-02   9.4473541e-01  -7.4898509e-01  -2.9236081e-01   6.2907061e-01   4.4091735e-02  -8.1967178e-01  -5.3192475e-01  -7.5635562e-01   8.2909903e-01   4.6377107e-01   3.1677795e-01  -2.8099806e-01   3.3360770e-01   1.3109420e-01  -9.0022880e-01   2.9468111e-01   4.2302145e-01   4.4304307e-01  -9.7672282e-01  -8.3960566e-01  -8.4668879e-02  -1.1387050e-01   6.2749766e-01   6.2541122e-01  -2.4049507e-01  -9.4319201e-01   1.6733202e-01  -3.3718294e-01  -9.7975151e-01  -7.4583914e-01  -1.8626420e-01  -7.4382969e-01  -1.9436463e-01   7.0563399e-01   9.0983951e-02   1.6690386e-01  -6.5339980e-01   3.9500126e-01  -8.9046044e-01  -2.1169239e-01   3.9291328e-01   4.8602412e-01  -6.1069394e-02  -2.4473851e-02  -7.1435533e-01  -2.4449055e-01   7.0038425e-01   7.7796314e-01  -5.6121979e-01  -9.0541874e-01   9.3786077e-01  -1.4712431e-01  -7.0030083e-01  -3.0076160e-01  -6.7743433e-01   9.0452639e-03   4.1647797e-01  -6.5209192e-01  -8.4769072e-02  -8.9037546e-01   8.6759361e-01   2.6347201e-02  -1.2780090e-01   6.6388614e-01  -4.3430758e-01  -2.4522613e-01  -9.4023920e-01  -9.7789065e-01  -4.9067152e-01   4.3667979e-01   4.9941443e-01  -2.5346375e-01  -5.1909312e-01   8.4729326e-01  -6.0128644e-01   2.5090858e-01   8.5466023e-01  -5.0833556e-01  -5.7620970e-01   1.2300481e-01   1.0523360e-01  -3.4550994e-01  -6.4420232e-01   3.3956455e-01  -5.2560780e-01   6.6898059e-01  -8.2281784e-03   1.7513916e-01   9.4680718e-01   5.1931375e-01   1.2056750e-01  -3.1638164e-02  -6.3844038e-01  -2.5151643e-01   6.9571683e-01   1.0675389e-01   1.3465037e-02   6.7809053e-01   2.3709715e-01  -8.3675804e-01   4.4294780e-01   4.5529182e-01   4.2843056e-01  -3.0331007e-01  -1.6842151e-01   1.4501011e-01  -8.6264265e-01   6.1040851e-02   2.0334773e-01  -6.0842248e-01  -4.4842582e-01   6.3427347e-01  -6.2345834e-01   6.3178915e-01   8.9195077e-01  -5.3356131e-01  -1.9202771e-01  -8.5577859e-01  -8.1800192e-01   3.6291505e-02   1.6072856e-01  -5.0464962e-01  -7.8764170e-01  -6.4903438e-03  -7.6686406e-01   2.6885400e-01   3.0588490e-01  -6.3021910e-01  -6.8969594e-01   4.2287374e-01   6.4410564e-01   8.4407310e-01  -3.6560878e-01  -1.3992718e-01   3.6160829e-01  -2.4148432e-02   7.6547954e-02  -1.9663951e-01   6.8258505e-01   1.9618074e-01   3.5224178e-01  -1.3583947e-01  -1.1053782e-01  -1.5210491e-01   8.4423767e-01   1.9444089e-01   5.7091692e-01  -5.5819239e-01  -8.6278971e-01   3.3061592e-01  -2.8165134e-01   5.1364180e-01   2.1425033e-01  -4.8230039e-01  -5.4058105e-01  -2.7275371e-01   7.1571829e-01  -9.2351224e-02  -8.5597328e-01   7.1203153e-01   6.6216017e-02   1.1061515e-01   3.9239432e-01   4.7702899e-01  -9.7555292e-01   7.9818237e-01   5.1961643e-01  -6.7569066e-01  -4.5612669e-02  -9.4724429e-01  -7.5600083e-01  -6.6497427e-01   9.5066758e-01  -2.8730521e-01  -6.1853576e-01  -9.6055288e-01  -8.8538328e-01   9.5904176e-01  -5.2417022e-01   5.7575931e-02  -1.7964810e-01  -5.3967153e-01  -5.5718231e-02  -8.2352792e-01  -9.8385117e-03  -2.8719667e-01   3.2136445e-01  -8.8407474e-03   8.7673292e-01   9.7021170e-01   7.2915311e-01  -5.9565989e-01  -6.6553609e-01  -7.0187728e-01  -6.8462187e-02   4.9529332e-01   8.6722082e-01  -4.8221715e-01  -8.3829741e-01  -5.8415685e-01  -9.1387507e-01  -5.4707628e-01   8.5335794e-01  -5.7219692e-01  -7.5065183e-01   9.4041572e-01   6.1216918e-01  -9.2369920e-01   6.7125440e-01  -5.3456675e-01  -6.2813406e-01  -5.5386865e-01   5.8582305e-01  -6.3143929e-01   7.4831377e-01  -2.5907951e-01   4.7932397e-01  -3.9048826e-01   3.5557032e-01   1.0433169e-01   9.1310840e-01   7.7813628e-01  -4.9260581e-01  -5.1482301e-01  -6.2526761e-01  -1.7682773e-01   2.2075157e-01   9.7803714e-01  -1.4334523e-01   3.4713642e-01  -8.4147732e-01   4.8064523e-01  -5.9132530e-01   6.8399820e-01  -6.4881202e-01  -6.9187917e-01  -3.6867856e-01  -5.6381048e-01   6.9980156e-02  -9.5904581e-01  -8.6548023e-01  -3.1646986e-01  -9.2248269e-01  -8.1225082e-01  -3.2299645e-01  -6.5512421e-01  -2.4257916e-01   6.8649016e-01  -3.6451440e-01   7.1776870e-01  -3.5525085e-01  -3.5904942e-01  -2.7613797e-02   4.5556648e-01   4.9597870e-01   9.1721887e-01  -4.4216506e-02  -9.6314892e-01   7.8615169e-01   1.4199813e-01   2.9839514e-02  -5.3435736e-01  -6.5072139e-02   2.0146913e-01  -3.9438967e-01   6.8911164e-01   1.0600981e-01   7.1089576e-01  -4.7694172e-02  -1.0375603e-01  -6.6709009e-02  -9.3769469e-01  -8.1925985e-02  -1.9722639e-01  -4.3017581e-01  -6.6691238e-01   6.2177843e-01  -8.0047530e-02   4.8709097e-01   6.8684559e-01   6.5722688e-01   1.3083324e-01  -8.2742711e-02  -4.1314026e-01  -3.5831342e-01   8.3316072e-01   8.6021094e-01   3.9296906e-01   7.1290306e-01  -1.6936845e-01  -7.6473507e-01  -3.4455670e-01   5.6056867e-01  -8.8297378e-01  -2.1683140e-01   6.9763369e-01   8.4725029e-01   5.0802696e-01   2.2819789e-01  -2.1086466e-01  -7.1783414e-02  -1.3599602e-01   5.9625059e-01   8.4165736e-01   6.8717229e-01   6.7347789e-01   7.5080185e-01  -4.0837137e-01  -1.4550041e-01   1.4739716e-01   6.8292861e-01   7.8382045e-01  -5.4214659e-01  -4.9381445e-01   8.7039808e-02  -6.1039291e-02   1.2926235e-01  -8.5721051e-01  -3.4943648e-01   3.7738763e-01  -7.8020796e-01   8.6632762e-01  -7.1437769e-02   1.0081387e-02  -4.9296627e-01   6.2850584e-01  -2.4811409e-01   9.5901677e-01  -4.3432125e-01  -5.1996187e-01  -1.9927922e-01  -7.6590851e-01  -6.4043723e-01   7.4668159e-01   2.1804622e-01  -2.2022899e-01  -4.2603498e-01   1.4892628e-02  -3.2431564e-01  -4.4161546e-01   8.3843449e-01   2.2497968e-01   4.3819646e-01  -1.4058674e-01   6.4889365e-01   1.2020683e-01  -5.1110485e-01  -2.4685484e-01  -1.3413863e-02  -6.8043127e-01  -7.6581118e-01   8.4248537e-01   7.6405048e-01   3.4894550e-01   7.0719976e-02   7.0174605e-03   5.5088056e-01  -3.4940052e-01  -6.2243720e-01   6.2998826e-01   8.6817752e-01  -2.2252412e-01   1.5434967e-01  -8.3215210e-01   1.5271580e-01  -3.4607001e-01  -1.0683410e-01  -3.7189823e-01  -7.0010384e-02  -2.9192016e-02  -5.3446246e-02  -6.9510353e-01   5.8345674e-02   9.6100203e-01  -1.6715092e-01   1.6313881e-01  -1.7554295e-01   7.7149609e-01   7.4936737e-01  -8.1763949e-01   9.3174579e-01  -1.5743279e-02   2.1877328e-02   4.6621735e-01   6.9808157e-01   7.2523767e-02  -2.8671791e-01  -4.7389040e-01  -9.9608184e-02  -1.7945189e-01   7.3156120e-03  -2.2558023e-01   5.2738458e-01  -9.4067950e-01  -3.6259639e-02   8.4039601e-01   1.5059283e-01  -9.2003350e-02  -9.8890022e-01  -2.5180270e-01  -2.7866498e-01  -9.8949432e-01   1.8215129e-02  -1.5102552e-03   5.0258031e-01   9.3319744e-01   1.1707898e-01  -3.0219544e-01   6.9473154e-01  -4.7857887e-01  -1.9871473e-01   8.0013471e-01  -7.5965950e-01  -9.7933761e-01   1.0229761e-01   3.8837651e-01   1.1822119e-01  -8.0644042e-01   8.5183891e-01   4.0011344e-01  -2.0098222e-01  -7.5205293e-01   4.1363310e-01   2.3872292e-01   6.0549300e-01  -1.3427707e-01  -9.1681711e-01   7.2654477e-01   2.7849725e-01  -6.9520604e-01   2.0071335e-01  -6.7865824e-01  -2.6494500e-01  -4.2549608e-01   9.6231162e-01   3.7032389e-01   7.5111598e-01   4.9878485e-01  -5.6269495e-01  -1.9573249e-01   9.6601258e-01   2.8238416e-01   4.2974762e-01   5.4403191e-01   1.6616968e-01  -9.4373961e-01  -8.0480853e-01  -2.4876548e-01   2.6915947e-01  -8.9922215e-01  -8.5909579e-01   4.1861054e-01   8.2152816e-01  -6.0345058e-01  -2.1566438e-02   1.0291609e-01   7.2110202e-01   3.0078674e-01  -6.3576607e-01   2.1855322e-01  -7.0598819e-01  -1.8635219e-01  -1.5754590e-01   4.7101736e-01   2.7129582e-01  -5.2609873e-01  -8.8865756e-01   7.9306978e-01   3.3932870e-01  -7.9243703e-01  -8.6391336e-01   1.6495314e-02   3.6639925e-01   7.3215743e-01   2.3972046e-02  -5.4895849e-01   3.3800154e-01  -9.8771826e-01   3.3927836e-01   7.5436745e-01   6.7053809e-01   6.1222143e-01  -8.9082518e-01   4.8555486e-01   2.1138185e-01  -8.0081162e-01   4.2672029e-01  -3.2154167e-01   5.1542728e-01   5.7769588e-01  -3.8128934e-01  -2.4763753e-01  -5.9683744e-01  -6.5226518e-02   8.1022114e-02  -5.2126303e-01   9.9844483e-01  -8.9782538e-01  -4.2871976e-01  -5.5696791e-01  -1.2093384e-01  -9.9067717e-01   5.6393197e-01  -4.1482314e-01  -3.0971252e-01   5.3888969e-01   4.5256480e-01   2.7338870e-01   1.6764540e-01   1.1837032e-01   9.2275420e-01   6.7107328e-01  -5.3491579e-01  -9.1546725e-01  -3.9941901e-01   4.1956342e-01   4.0867424e-01  -8.7243526e-01   4.5076130e-01   6.2145903e-01   4.0549823e-01   8.1064176e-01   1.0997330e-01   4.9131097e-01   4.0263247e-01  -9.1958017e-01   3.0514015e-01   2.4563134e-01   3.2333624e-02   6.0471588e-01   6.3421870e-01   1.6439498e-01  -6.8955265e-01   3.1597818e-01   3.0333435e-01  -8.5230917e-01   8.8243027e-01  -5.2034191e-02  -1.0038096e-01   7.1561372e-01   5.0306319e-01   6.2855876e-01  -9.5425154e-01  -3.8832044e-01   3.1212985e-01  -8.4448953e-01  -2.2418269e-01  -9.1654052e-01  -7.0009562e-01  -7.5348790e-01  -3.4233392e-01  -3.8717424e-01  -4.6923260e-01  -3.5451711e-01  -8.8064908e-01  -7.5595482e-01   6.5492203e-01  -1.2630635e-01   1.4868867e-01   9.6798426e-01   9.8472481e-01  -4.7441464e-01   5.4906511e-01   9.3553440e-03   2.7685090e-01   7.9197727e-01   2.8171009e-01  -1.9626631e-01   8.0668168e-01   8.2599907e-01   6.1292776e-01  -4.5126706e-01
  -7.1373625e-01   1.2736801e-01   7.3245951e-01  -3.7031060e-01  -9.6993763e-01  -5.0734916e-01  -2.0689919e-01   5.2355828e-01   3.8831501e-01  -5.9608082e-01   3.8677722e-01   9.6136875e-01  -1.9651777e-01   2.3498517e-02   1.2222331e-01  -7.0877928e-01  -3.2524745e-01  -9.2134821e-01   9.5118560e-01   9.8598753e-03   1.3794282e-01  -2.4941606e-01   6.5990320e-01  -7.4104307e-01  -3.4950302e-01  -3.9183363e-01  -3.9058775e-01   6.8537743e-01   5.1370009e-02   8.0949566e-01  -1.9153839e-01   5.5717273e-01   6.5729545e-01  -8.5419878e-01  -7.9185423e-01  -2.8129041e-01   4.5954186e-03  -1.5048742e-01   3.5987032e-01  -9.7201194e-01  -1.1197857e-01  -7.4867061e-01  -3.6426442e-01   6.7663860e-01  -8.3147284e-01  -9.5364726e-01  -5.2891972e-01  -3.4148273e-01  -9.9995907e-01  -4.4442409e-01   8.6316183e-01  -1.6709138e-01   5.5865362e-01   5.1238418e-01   3.4850501e-01  -3.2963850e-01  -2.0932133e-01   9.4083014e-01   1.2124647e-01  -2.5187674e-01   5.7099343e-01   3.8617964e-01   3.4208863e-01   8.2194419e-01  -6.7337835e-01  -7.0419069e-01  -1.1011045e-02  -5.6755906e-01   1.2158976e-01  -2.6679361e-01  -9.4701706e-01  -4.5125537e-01   6.9262583e-01  -1.0685564e-01  -8.1259996e-01   9.5189032e-01  -3.9724557e-01  -4.3470816e-01  -3.0549057e-01  -1.1971792e-01  -5.2627632e-01  -4.3932790e-01  -3.4972519e-01   7.2109810e-01   7.2144353e-01  -4.5226457e-01  -6.4441179e-01   7.6122783e-02   6.9774899e-01   6.1744170e-01  -9.1954078e-01  -3.7109850e-01   1.3651686e-01   8.4581762e-01  -1.7211616e-01  -8.4081488e-01  -4.5357446e-01  -7.4684219e-01   7.0627461e-01   5.2946035e-01   5.1895829e-01   4.1498828e-02  -4.6682922e-01  -4.3313704e-01  -5.7094966e-01   6.5363633e-01  -6.3463031e-01   2.4533836e-01  -7.0214155e-01  -2.9756208e-01   3.9457101e-01  -4.6173510e-01   3.5809205e-01  -3.7161056e-01   9.0680493e-01  -5.1660804e-01   8.8814449e-01  -7.7844931e-01  -1.0179443e-01  -8.8395254e-01  -8.7551567e-01   1.5030309e-01  -1.9867882e-01   6.8003093e-01   8.7204674e-01  -2.0393892e-01  -3.3715606e-01   7.9870844e-01  -7.6827404e-01   3.8060083e-01   2.9405450e-01   7.7615359e-01   4.7086895e-01   4.4308183e-01   1.6526246e-01   7.8313508e-01  -7.4055376e-01  -8.2797538e-02   6.3852656e-01   9.5006178e-01  -6.4518773e-01   4.4976559e-01   6.8426465e-01   6.9209877e-02  -1.5368723e-01   8.4105917e-01   9.3251602e-01  -7.7706978e-01   9.8158864e-01  -2.1502896e-01   7.0630322e-01   9.1697071e-01   7.4889279e-01  -1.1753305e-01   5.8825382e-01   9.7968790e-01   9.7943528e-02  -5.7732033e-01   2.2548537e-01   2.1572285e-01  -9.4379649e-01   2.5114986e-01  -6.3414451e-01   9.6688339e-01   8.4869657e-01   1.6135663e-01  -9.4466363e-01  -1.8533174e-01   1.4724805e-01   2.7171478e-01  -9.9439073e-01  -2.7674741e-01   7.8500034e-01   1.4507466e-01  -6.8374316e-01  -3.1043958e-01   3.9705198e-01  -2.4569939e-01  -2.6012160e-01   3.3601190e-01   2.8388989e-01   1.3278227e-01   9.6805258e-01   6.6416545e-01   1.3786195e-01   2.0239511e-01  -1.7097573e-01   3.5810675e-02   8.0903608e-01   3.7041027e-01   6.1583467e-01  -4.4035124e-01   9.1407563e-01  -8.0816933e-01  -7.5854080e-01  -1.3237585e-01  -3.1254840e-02  -9.7100795e-01   5.1104120e-01  -5.6935462e-01   7.5692135e-01   1.9516100e-01   8.4744185e-01  -2.2436118e-01   4.4401556e-02   6.2580828e-01   4.8607001e-01   3.1693183e-01   3.6301231e-01   2.5969481e-01   8.1872574e-01   7.5807658e-01   3.2627569e-01   5.8511637e-01   4.2068537e-01  -7.3870041e-03   6.7866632e-01   3.6683547e-02  -8.0066682e-01   2.4578456e-01  -3.7076277e-01  -5.1792314e-01   2.8622415e-01  -5.3864786e-01   1.8714751e-01   7.1152532e-01   8.8343333e-01   1.5323174e-01  -6.9195062e-01   9.6292081e-01  -8.3960184e-01   2.3157069e-01  -5.8459561e-01   3.7218483e-01   4.7983418e-01   5.1394595e-02   2.2205580e-01  -8.4450147e-01  -3.5668699e-01  -3.6645754e-01  -9.0711673e-01   4.5340647e-01   6.1305534e-01   5.0047267e-01   7.0257788e-01   2.3748724e-01  -4.9820060e-01  -3.9186514e-01   5.7727124e-01   4.0797880e-01   2.0474011e-01  -6.7331840e-01   4.7555548e-01  -2.4242518e-01  -7.9737416e-01   1.5508402e-01  -9.0871342e-01  -8.7268478e-01   7.7650863e-02  -7.7665182e-01   3.3815556e-01  -7.5135204e-01   9.3605627e-01   1.8523127e-01  -8.6615486e-01  -8.7997834e-01   3.0456399e-01  -3.2146956e-01   7.3280854e-01   4.2351059e-01   5.9625288e-01   9.6796095e-01   1.8966843e-01  -1.2879365e-01  -7.8985717e-01  -6.6784740e-01  -6.9072194e-01  -1.4274056e-01   6.4338592e-01  -6.4556920e-01   2.6604694e-01  -7.0910040e-02  -5.0872034e-01   7.7251846e-01  -8.3180069e-01   1.8412486e-01   3.5159548e-01  -6.0957090e-01  -7.7127869e-01  -8.5641237e-01  -2.4235223e-01   8.1116719e-01   4.7142884e-02   4.6392355e-01   4.4200691e-01   8.9953948e-01  -7.0277061e-01  -4.2920774e-01  -5.6665369e-01  -3.1082181e-01   8.5260704e-01   1.0800014e-03   7.8142852e-01  -5.2581808e-01  -1.9300563e-01   8.0166067e-01   3.3138618e-01  -5.6545815e-01   4.1125775e-01   7.8606030e-01  -7.5818315e-01  -1.2650656e-01   4.2960936e-01  -9.4856841e-01  -8.7238498e-01  -5.4508461e-01   1.3268536e-02  -9.7344804e-01   4.3526062e-01   5.5151531e-01   9.6078369e-01   6.5322987e-01  -9.2639611e-01   2.6578853e-01  -9.5218791e-01  -8.5794913e-01   6.0671211e-01  -8.4074377e-01   2.3631473e-01   7.1329187e-01   5.1480926e-01   1.7049505e-01   8.0574834e-01   1.8149680e-01   1.0746335e-01   2.6581538e-01   5.3209464e-01  -4.2864301e-01   4.0038084e-01  -2.3174905e-03   2.6920120e-01  -5.3465439e-01   2.9464843e-01  -2.4360798e-03  -6.1067669e-01   6.5627791e-01   1.1587775e-01   4.1779488e-01   2.9897103e-01  -2.3809974e-01  -4.1434471e-01  -2.4906718e-01  -9.9403212e-01   4.8952624e-01   1.1035466e-01  -4.2662571e-01  -1.7314581e-02  -6.2285492e-01  -7.2994962e-01   6.2625724e-01   7.1584244e-02  -8.4126034e-01   2.3556976e-01  -3.9333773e-01  -9.2425877e-01  -6.3620933e-01   3.6133893e-01   7.4667216e-01  -8.5083372e-01   1.1986052e-01   4.3659607e-01   6.1767181e-01   7.6998238e-01   5.7178169e-01  -7.5737124e-01   8.4465195e-01  -6.2574950e-01   3.5118186e-01   2.7999925e-01  -7.2225785e-01  -7.2947106e-01   3.7790190e-01  -4.4030131e-01   1.6554914e-01   5.5043193e-01   6.8389402e-01   7.3719682e-01  -6.7876086e-02  -6.3969545e-01  -9.8665151e-01  -5.6995138e-01  -8.1019313e-01   2.1906738e-01  -7.8620781e-01  -8.0256501e-01   9.0996724e-01   6.5277881e-01  -1.9902078e-02   8.4564640e-01  -7.2561332e-02   4.4768889e-01  -6.3818106e-01  -6.1300269e-01   5.9753101e-01   6.0031926e-01  -3.1949366e-01  -2.7862835e-01  -1.0834666e-01   5.4164448e-01  -2.3951020e-01   3.4948666e-02   8.1854723e-01   4.9696664e-01  -7.9290728e-01   5.3041376e-01   3.7572885e-01  -8.5427625e-02  -7.9441279e-01   5.2517121e-01  -1.6502687e-01  -3.7192874e-01   8.6644141e-01   7.8122924e-01   4.2702034e-01   4.5894907e-01   6.4856248e-01   2.6889005e-01  -2.8889035e-01   6.4141617e-01  -5.5436455e-01   1.4729111e-01  -8.2702168e-02   4.3702696e-01  -2.0024171e-01   1.5314017e-01   9.0328059e-01  -3.6897404e-01   4.9420787e-01  -6.5083947e-01   7.5265141e-01  -7.7539337e-01   3.1946462e-01   3.5366050e-01   6.1003252e-01   4.3895988e-01  -3.2361431e-01   7.6748742e-01   3.5458799e-02   2.2866731e-01   4.5912872e-01   2.5194592e-01   2.5446147e-01  -7.5845665e-01  -4.0830949e-02   3.7741120e-01  -6.8714476e-01   9.0275464e-01  -8.6519194e-01  -4.8958378e-01   6.0272560e-01   3.8781292e-01   1.3912296e-01  -3.7155998e-01   6.7801668e-01  -9.5989685e-01  -4.6278801e-01  -1.5929497e-01   4.7154613e-01   9.1121770e-01  -6.4253511e-01  -8.7686018e-01   4.7950485e-01  -5.8461215e-01   5.2139145e-01   8.5439215e-01  -7.6234038e-01  -2.0909724e-01   3.6142910e-01  -5.4742443e-01  -6.9248690e-01   7.7738506e-01   3.4581826e-01   9.2283314e-01   3.9685398e-01  -7.5784838e-01   1.4460275e-01  -6.2532316e-01  -9.2748777e-01  -1.0624747e-01   5.1147142e-01  -5.3538067e-01   1.8966717e-01   3.3106623e-02   9.3205654e-01  -7.0162581e-01   7.4577718e-02  -5.7976957e-01  -9.8733635e-01  -9.0502252e-01  -7.9446721e-01   1.2822531e-01  -8.3114730e-01  -9.0490740e-01  -2.5888006e-01  -2.5249414e-01  -5.3080308e-01  -1.8371732e-01  -2.5342770e-01  -8.4962558e-01   9.8155918e-01  -5.4835918e-01  -5.9543678e-02  -1.8453710e-01  -2.1788738e-02  -1.9054663e-01  -1.0657545e-01  -2.1312226e-01   4.8675347e-01   8.6029512e-01  -7.4840434e-01   8.6939863e-01  -9.9019927e-04   8.6508727e-01   5.0515929e-01   3.1475340e-01  -3.4454019e-01   3.1277942e-02  -7.5279018e-01  -1.5242008e-01   4.7908271e-01  -5.5849567e-01  -7.9072991e-01  -3.7842326e-01   1.7845088e-01   7.5129098e-01  -1.2587002e-01  -5.0656980e-01  -7.3825029e-01  -6.9918529e-01  -7.0497119e-01   2.5810947e-01   4.2068636e-02   4.8547758e-01  -4.8687213e-01  -6.0098186e-01  -9.6201826e-01  -6.3138862e-01  -4.8106321e-01   4.3547151e-01   7.6982063e-01  -9.8187837e-01   1.4350982e-01  -6.7834494e-01   3.8314968e-01   3.5903328e-01  -3.4815223e-01   6.6854109e-01  -3.8924783e-01   2.1685106e-01   3.6033336e-01   3.7007591e-01   6.1784939e-01   2.5591449e-02   9.1170664e-01   4.6945727e-01   4.6863963e-01  -8.8985931e-01   1.7507139e-01   9.3364031e-01  -7.5509694e-01   9.0049413e-01   2.3084160e-01   9.2938834e-01  -7.1543435e-01   6.2720846e-01   6.3455979e-02   8.4060183e-01   4.4850506e-01   5.1777973e-01  -2.5879744e-01   2.8468249e-01  -4.4404847e-01   4.2249297e-01  -2.9345631e-01   4.0883219e-01   4.0685191e-01  -1.6946878e-02  -3.4794722e-01  -1.4424455e-01  -8.8178678e-01   7.9948899e-01   6.9208749e-01   8.6236385e-03   3.7576929e-01  -9.9154891e-01  -7.0261296e-01   8.4159058e-01  -8.5140282e-01   2.6173282e-01  -9.2906399e-01   1.0496798e-02   7.6754650e-01  -4.9368264e-01  -7.9286923e-01  -9.8762027e-01  -2.0176190e-01   3.7676946e-01  -8.9007206e-01   1.5561118e-01   9.8480854e-01  -3.0221044e-01   2.8814906e-01  -8.0056622e-01  -1.0579246e-02  -3.1586067e-01  -2.6154108e-01  -7.0568589e-02   2.8049834e-01  -2.3033625e-01  -8.7744760e-01   8.5848218e-01  -5.7988706e-01   2.1254659e-01   4.4330223e-01  -7.6587240e-01   7.7552105e-01   3.5018039e-01  -2.2488645e-01  -9.6010493e-01   1.1458971e-01   5.2038643e-01   5.5013188e-01  -1.5281209e-01  -7.6824478e-01   8.6013246e-01  -1.5987807e-01  -5.7578224e-01  -8.6369281e-01  -4.6115760e-02  -2.0820861e-01  -5.7891998e-01  -8.2137728e-01  -7.6716522e-01  -9.3749048e-01  -3.9309018e-01   4.2174768e-01   1.8311047e-01   5.4655015e-01   3.3199594e-01  -9.0774403e-01   1.1580423e-01  -5.1243279e-01   4.2669551e-01  -9.5346861e-01  -4.7526260e-01  -4.9729873e-02   4.9425925e-01  -9.4981486e-01  -3.2192660e-01  -3.1208573e-01  -9.8516735e-01  -9.2077856e-01   7.3938516e-01  -2.5592120e-01   8.2849831e-01  -3.8002701e-01  -2.9877105e-01  -5.8404057e-01   1.2998165e-01   1.1201790e-01  -2.9723235e-01   1.1921516e-01   3.5662957e-01  -5.8267141e-01  -7.3103478e-01  -5.3724203e-01  -2.3618329e-01  -2.8282379e-01   1.6376372e-01  -6.5560301e-01   6.8633448e-01   9.3038902e-01  -4.5096324e-01  -8.2055101e-01  -8.4930761e-01   2.6495789e-01  -1.5313030e-01   8.0992654e-02   3.6231244e-01  -9.4990634e-01   7.6377467e-01   6.1521595e-01   7.9278003e-01   7.5157369e-01   4.4602352e-01  -8.6009810e-01  -1.4349234e-01  -8.7458812e-01  -7.1464772e-01   3.8140588e-01  -8.5708055e-01   1.6101097e-01   8.6872626e-02   8.7338098e-01  -1.1922022e-01   6.0988461e-01   7.7434867e-01  -3.6506242e-01   7.2420888e-01  -2.7246993e-01   9.9258433e-01   5.0873837e-01  -2.8068729e-01   5.5813503e-03  -4.0776001e-01  -3.6289857e-01   2.4921194e-01  -2.1502429e-01   5.8855667e-01  -6.5395078e-01   6.3734459e-01   7.5764019e-02  -9.7702880e-01   2.7153979e-01   8.9929645e-01   3.5984268e-01  -3.0604300e-01  -5.2419197e-01   1.6985005e-01   7.9342515e-02   8.1079102e-01  -9.7732115e-01   3.2217781e-01   9.9479177e-01   7.7405755e-01  -1.7412248e-01   3.7745749e-01   9.0001185e-01  -3.7836919e-02  -4.1892346e-01  -7.1843499e-01   3.9354564e-01  -1.5143679e-01  -6.9186931e-01   7.0326200e-01  -5.1207346e-01   2.8344853e-02  -9.2643025e-02   1.0739974e-01   7.6975622e-01  -1.1760332e-02   7.6889035e-01   1.6179940e-01  -3.2078899e-02   3.2199140e-01   8.4758015e-01   3.8723725e-02   2.3344994e-01   5.3992211e-01   5.5788019e-01  -4.1355116e-02  -7.8814012e-01  -3.0486138e-01  -9.8930361e-01  -8.5396930e-01   6.0787455e-01   6.9128265e-01  -1.2292445e-01   2.8348544e-01  -4.8320082e-01   8.8944069e-01  -7.2780597e-01   5.6281038e-01   8.6809136e-01   4.4397983e-01  -3.0084684e-01   2.9039451e-03   8.3271652e-01  -2.5212722e-01  -9.5848227e-01   8.8145788e-01   1.6896808e-01  -5.9894944e-01   3.2431889e-02   8.9711749e-02  -7.3473824e-01   9.8597337e-01  -1.3952111e-01   2.2738483e-01  -8.1491421e-01   5.1475228e-01   4.7659593e-01  -2.6179785e-01   6.4546001e-01   1.4927395e-01   5.7386385e-01  -7.3499686e-01  -2.6167895e-01   3.6028680e-02   4.7111507e-01  -6.1043635e-01   6.4706400e-02   5.3204319e-02  -9.6069996e-01   5.2952281e-01   8.8010612e-01   7.8909847e-01   8.5352972e-01   7.5754474e-01   6.5336688e-01  -5.1435303e-01  -1.7809296e-01   7.0263724e-01   5.1270085e-01  -9.5099794e-01  -2.0648696e-01   9.9222378e-01   2.5129024e-01  -6.7953859e-01  -3.1994127e-01  -6.4259735e-01  -2.9403241e-01  -7.4674517e-01   6.3767410e-02  -7.3533595e-01  -1.7135103e-01  -3.2575996e-01  -8.4380516e-01  -5.0514555e-01  -5.5658251e-02   1.6486931e-01   3.7205765e-01   5.8352220e-01   3.2526800e-01  -4.3380324e-01   5.1943699e-01  -7.3419397e-01   3.1545489e-01   2.5149768e-01   2.3479642e-01  -2.2642671e-01   4.5994891e-01  -9.1875171e-01  -5.9578194e-01   1.8785594e-01  -5.3723485e-01   1.9831065e-01   9.9070188e-01   2.5910515e-01   4.4811734e-01   1.9001925e-01  -8.4190229e-01  -7.5380706e-01   6.2809129e-01  -4.0232349e-01  -9.3736989e-01   9.0435662e-01   3.9750811e-01  -7.5659916e-01  -5.3384922e-01   6.7030028e-01   5.5120177e-01  -2.6049153e-01  -9.6531973e-01  -8.4879742e-01  -5.5781594e-01   7.9961126e-01   4.1479933e-01   5.0271913e-01  -5.8433733e-01  -1.1632782e-01   2.4966633e-01   7.2195325e-01   5.3788895e-01  -1.3128572e-01   9.7427658e-01   1.8018448e-02  -5.1509462e-01  -5.4952160e-01   1.4639125e-01   7.5450549e-01   7.5065076e-01  -8.1629339e-01  -6.5695113e-01   6.4709194e-01   2.0521068e-01  -2.9610904e-01   8.9270939e-01  -3.8462018e-01  -4.2699886e-01  -8.2816781e-01   3.8587370e-01   7.3959403e-01  -2.6991752e-01  -1.6135918e-01  -1.3971162e-01  -5.0568833e-01   2.5746930e-01   6.8237206e-02   2.9538146e-01   2.4877754e-01  -7.5177439e-01   4.2691656e-01  -8.6119611e-01  -8.1003672e-01   9.6999661e-01  -7.7888476e-01   2.8729673e-01  -6.1903692e-01  -7.2479248e-01  -2.5075451e-01  -2.2071264e-02  -9.5033588e-01   2.0549908e-01   4.4067523e-01   9.1827318e-01   6.8100616e-01   1.3994111e-01  -6.4827933e-03  -8.3357846e-01   3.3030265e-01   2.5705690e-01   2.6348365e-01   9.0679417e-01   5.4035141e-01   4.5390135e-01  -3.5016984e-01   1.3017950e-01  -4.6043288e-01  -1.1182030e-01   9.6499110e-02   5.3516805e-01   7.6244661e-01   7.2271819e-01   5.8121870e-01  -2.3355476e-01  -3.2394043e-01  -5.5456015e-01  -9.5461278e-01   2.1959284e-01   3.3437847e-01  -8.4522064e-01   1.4373903e-01   2.7012653e-01   6.0206877e-01  -8.5003711e-01   5.7961872e-01   7.2749289e-01   9.3300184e-01   2.0728352e-01  -6.7346708e-01   4.9290877e-02   3.7590286e-01   1.6089127e-01  -8.7361844e-01   3.5531184e-01  -1.7598288e-01  -9.8866567e-01   4.9024689e-01   8.4011065e-01  -7.3438577e-01   9.0515599e-01  -4.9250688e-01  -4.8016739e-01  -4.1603706e-01   9.4795615e-01   7.2662381e-01  -9.4517655e-01   5.8026779e-01   6.5589428e-01  -8.7296526e-01  -4.3118447e-01  -1.6772641e-02   6.3814080e-01   7.4184286e-01  -9.9491041e-01  -5.7141597e-01   3.5793580e-01  -5.2200625e-03  -2.4256764e-01   5.0073022e-01  -8.2831282e-01  -2.9216189e-01  -4.7368242e-01  -3.2795496e-01   6.8218497e-01  -4.1909854e-01   7.3943875e-01   9.5447457e-01  -9.9272292e-01  -7.3275208e-01  -6.3235203e-02  -8.7955170e-01   8.5803094e-01  -2.1403508e-01   7.8169908e-01  -6.3956639e-01  -7.1158337e-02   7.9152534e-01  -8.7708780e-01
   5.2724680e-01   1.6386832e-01  -2.0150483e-01  -1.6736193e-01   1.6192143e-01   5.3307688e-01   1.1776097e-01  -1.1804026e-01   4.4782516e-01   5.1537953e-01   3.1223038e-01   9.3136015e-01  -3.2833064e-01   5.2954578e-01  -2.5430146e-01  -9.6033287e-01  -9.1751524e-02   7.0029497e-01  -7.0873851e-01  -4.2242230e-01  -4.7416680e-01  -8.4047054e-01  -9.3815577e-01   8.6898570e-01  -2.1407271e-01   5.8201394e-01   5.6058281e-01   4.4859953e-01  -3.4289058e-03  -5.8486263e-01  -2.1494401e-01   4.7625439e-01   6.0555475e-01  -5.7039394e-01  -6.4178880e-01  -5.2225323e-01   7.3431954e-01  -8.5762712e-01   4.5993111e-01  -1.1541505e-02  -9.6302537e-01  -2.4543888e-02  -6.2145672e-02  -9.3303193e-01   1.8755775e-01  -9.6449647e-01  -4.4836907e-01  -6.0469113e-01   9.3235144e-01   3.6120601e-02  -6.8562761e-01   4.6123084e-01  -3.6578973e-01   3.4378042e-01  -3.1038297e-01   4.4817149e-01  -3.7172633e-01   5.7289976e-01   4.3684778e-01  -8.8824086e-01  -2.3711548e-01  -6.6120552e-01  -7.6344557e-01   5.8848396e-01   9.0879267e-01  -6.5279604e-02  -6.1451695e-01  -1.8436390e-01  -4.9551389e-01  -2.5917241e-01  -5.5936537e-01   2.6568073e-01   4.4499276e-01   5.0541391e-01   4.3938685e-01  -9.8007135e-01   7.4087761e-01  -8.8212117e-01  -4.2951908e-01   6.6124748e-01  -6.9454948e-01  -9.3706389e-01  -9.7376913e-01  -2.8648913e-01   2.4005890e-01   1.4272238e-01  -9.7346060e-01   2.1145142e-01  -2.1463433e-01  -8.2377981e-02  -6.2519352e-01   7.6956653e-01   9.6324907e-01   2.8598298e-01   5.8012372e-01  -1.6715684e-01   5.8335770e-02   4.8986811e-01  -5.6882350e-01  -5.3507525e-01  -5.9172757e-01  -5.8494450e-01   3.6344932e-01   4.8735461e-01   7.2657533e-01  -2.5779576e-01   4.4967624e-02   2.9826581e-02   9.7820989e-01   9.3909020e-01   1.7517254e-01   2.5807303e-01  -3.8465703e-01  -1.3737599e-01  -9.8151844e-01  -9.3172107e-01  -4.0860085e-01   8.7337567e-01   8.9777234e-01  -8.0189618e-01  -8.3329875e-01  -5.2608547e-01  -6.9096691e-01   8.4451941e-01   8.3985515e-01  -8.6862492e-01   7.1942280e-01  -3.0538129e-01   4.8224356e-01   1.7774226e-01  -5.1970698e-01   8.4334676e-01   5.4649767e-01   4.9265803e-01   5.7427613e-01  -2.6075546e-01  -7.2420578e-01   4.4866211e-02   6.4151624e-01   2.5074308e-01   6.1036664e-01   6.0201565e-01  -2.1210163e-01  -5.0577804e-01  -7.9798129e-01   8.9579539e-01   1.0535927e-01  -6.9885183e-01  -5.3880851e-01  -1.4448710e-01  -5.4242384e-01   9.2858402e-01  -5.6159454e-01  -7.2569019e-01  -7.6055081e-01  -6.2787692e-01   9.2934428e-01   4.8544382e-01  -5.0119528e-01  -1.4514945e-01  -1.9862175e-01  -5.3243499e-01   4.7398874e-01  -7.7757697e-01  -5.3640183e-01   8.2493088e-01   9.6370597e-01  -8.4364417e-01  -6.3984120e-01   1.1121809e-02  -6.0050072e-01  -7.5867318e-01   1.0302134e-01   2.6162004e-01   3.1172965e-01  -9.1335634e-01   2.1995607e-01   4.3583415e-01   4.1516311e-01   4.5788196e-01   2.2615779e-01   1.6034139e-02   5.9636181e-01  -6.0809565e-01   5.2652998e-02   3.5344986e-01  -4.4842449e-01  -9.0836580e-01  -9.5269126e-01  -6.1409700e-01  -1.4621301e-01   6.6735930e-01  -4.0998193e-01   7.1257703e-01   8.1586411e-01   2.4226190e-02   4.5764704e-01   9.0688682e-01  -4.5180939e-01   5.5602320e-01  -7.9189037e-01   4.7765492e-01  -4.2828091e-01  -9.4768950e-01  -1.8615095e-01  -3.6693189e-02  -6.5823399e-01   4.4873440e-01   4.7751902e-01   5.4659458e-01   3.3757986e-01  -7.3395450e-01   3.7857774e-01   3.1980255e-01   4.1536655e-01  -3.7329364e-01  -2.1127272e-01   2.8186569e-01   9.4232469e-01  -8.0414212e-01   8.8405029e-01   6.1732863e-01   8.2403451e-01  -1.5041335e-02   7.9955105e-01  -6.5207723e-01   9.7798236e-01   9.1514360e-01   6.0074315e-01  -8.2595413e-01  -9.3070571e-01  -2.4249539e-01   8.0477055e-01  -1.5048718e-01  -6.9030840e-01   4.5247747e-01   1.3378663e-01   8.5028893e-01  -8.5386884e-01  -3.7467335e-01   1.0375063e-01  -5.7823831e-01   9.6529543e-01  -1.0046039e-01  -4.0881899e-01  -6.4865264e-01   6.2866098e-01  -8.7263784e-01   3.7008229e-01  -8.8550117e-01  -3.6627859e-01   2.4261354e-01   1.3733838e-01  -8.7852243e-01   4.8391237e-01   7.6312164e-01  -3.6652995e-01   1.1669605e-01   3.3050705e-01  -2.2128729e-02  -6.5983760e-01   3.5880441e-01  -7.9126431e-03   7.6129205e-01   7.8842412e-02  -7.2434693e-01  -3.5635537e-02  -7.0151018e-01  -7.5525384e-01   3.9775586e-01  -2.7368542e-02   7.8495362e-01   4.7844374e-01  -6.5016544e-01   2.1301488e-01  -7.1915859e-02  -5.4725530e-01   4.9386379e-03  -8.4133344e-01   5.1068492e-01  -3.7465423e-01  -2.9592153e-01   4.8993704e-01  -1.4117446e-01  -4.0104187e-01  -5.6272255e-01  -4.7163354e-02  -7.4574064e-01   7.6320819e-01   7.4850438e-01   2.3074161e-02  -1.9131475e-01  -2.9059323e-01   6.6172424e-05  -6.2984917e-01   8.8870254e-01   4.4506122e-01   4.7258326e-02  -6.6607023e-01  -3.1435084e-01   2.9222901e-02  -8.7239240e-01   3.5659808e-01  -5.4065148e-01  -4.8529156e-01  -2.7789077e-01   4.0879731e-01   4.7392625e-01  -4.8275205e-01  -3.0914642e-01  -5.9310319e-01  -4.8309672e-01  -3.6636152e-01  -9.6669652e-01   6.6195368e-01  -1.8211440e-01  -2.7819034e-01   6.4261436e-01   6.7642290e-01   4.5293383e-01   8.8162430e-01  -2.4538993e-01   4.9919068e-01  -9.7904544e-01   9.6142050e-01   5.0831821e-01  -1.1171640e-01  -2.6210888e-01   3.6526250e-03   6.9121813e-02  -2.4447336e-01   8.8369581e-01   2.4291594e-01  -5.2133892e-01  -4.9476294e-02  -5.6655501e-01  -1.1347811e-01   7.9121424e-01  -6.7132079e-01  -7.0985384e-01   4.8472788e-01   9.1604092e-02  -5.9327230e-02  -3.9409624e-01   5.9069837e-02   1.0979745e-01  -2.8395930e-01   6.1746385e-01  -9.2308174e-01   7.7867298e-01   1.8991605e-01   3.2501184e-01   9.1926914e-01   9.5799385e-01   9.2395366e-01   5.4111488e-01  -2.2619745e-01   8.0090411e-01  -2.4232921e-01  -7.8727057e-01   4.8421525e-01   9.2038114e-01  -5.6115793e-01   5.2045093e-01   9.0827674e-01  -1.2288857e-01  -4.7461705e-01   3.8592550e-01  -6.9840670e-01  -6.8717178e-01  -5.9276646e-01  -7.4184022e-01  -6.6450698e-01  -1.8588763e-01   6.0804156e-01  -8.9667224e-01  -7.5419260e-01   7.0365151e-01   9.4771822e-01   2.5825806e-01  -2.6978077e-01  -6.9546286e-01  -8.9579688e-01  -9.1972020e-01   7.3476529e-01  -1.4481191e-01   6.6763857e-01   4.0060405e-01   7.7948848e-01   8.2099701e-01   9.6474730e-01   7.7466431e-01   2.4644718e-01   6.1494467e-01  -4.8373290e-01  -7.5428655e-01   7.8354911e-01   8.4881069e-01   3.1172891e-01   5.6383271e-01  -7.3620040e-01   3.9206872e-01   9.7100075e-01  -9.5336480e-01   8.1359988e-01   3.4285971e-01  -2.9917573e-01   6.4619236e-01  -4.1969733e-01   7.8416114e-01  -5.0125254e-01  -4.3083550e-01   7.0923084e-01  -5.5036713e-01   6.3863795e-02  -9.9953341e-01   8.3120006e-01   4.8445572e-01  -7.5080909e-01   6.0955514e-02   2.9038052e-01   1.8871957e-01   8.6719668e-01  -4.2408500e-01  -5.5627543e-03  -3.7674838e-01   3.8124883e-01   3.8626472e-01  -6.7452880e-01  -7.8711160e-02  -6.1111101e-01   4.9225723e-01   2.4000963e-01  -7.7530814e-01   6.3664254e-01   4.6822872e-02   9.2909330e-01  -9.0471917e-01  -6.9294465e-01  -4.4452081e-01   8.7885299e-01  -9.3954592e-01  -5.7917327e-01   1.9880707e-01   6.0824934e-01   6.2890405e-02  -6.2020823e-01   4.4057665e-01   7.9237685e-01  -7.7277512e-01   8.3188268e-01   5.4741050e-01  -5.4644968e-01  -4.5071573e-01  -4.9313929e-01  -6.5430754e-01   5.2358124e-01   6.2219164e-01   7.7563751e-01  -2.2523119e-01   8.6093921e-01  -5.0762737e-01  -4.2468307e-01  -8.9791198e-01  -6.7038106e-01  -8.6734844e-01   9.6276029e-01  -4.9086504e-01  -2.1400060e-01  -1.6696919e-01  -6.7655545e-01   1.2807422e-01   9.6442417e-01  -2.1055512e-01  -8.7100262e-02   6.5370486e-01   9.0629150e-01   3.9306445e-01   5.0198054e-01   5.8046526e-01   3.2560818e-01   4.5965945e-01   1.5993235e-01  -1.7103695e-01   4.6384626e-01   9.4857131e-02  -1.2711262e-01  -3.6978492e-01  -4.8903984e-01   5.9745033e-01   8.2560900e-01  -1.2740600e-01   9.2682850e-01  -4.6412058e-03  -7.7092818e-01  -8.6616309e-01   3.2686777e-01  -1.5351180e-01   4.6886581e-01  -5.4059042e-01  -9.8879995e-01   9.1838485e-02   1.4357017e-01  -2.9678728e-01  -1.8816639e-01  -5.5254041e-01   8.8200059e-01  -3.2727458e-04  -6.1289990e-01   4.6196880e-01   3.5966977e-01   1.2167200e-01   2.2164357e-01  -1.0854914e-01  -1.0198833e-02  -2.5382500e-01   3.7324197e-01  -5.5589115e-01   6.7317829e-01   8.9516252e-01   5.5093018e-01  -1.2956505e-01   6.4155088e-01  -4.6150348e-01   3.0166220e-02   3.5492651e-02  -5.5918138e-01  -9.0867651e-01  -1.0311920e-01   1.1071437e-01  -8.1178832e-01   7.8027953e-01   9.9064040e-02   3.4651766e-01   7.2654258e-01  -7.1922535e-01   5.2993377e-01   3.1770774e-02   3.0180268e-01   4.1441902e-01   3.8716785e-01  -8.7161818e-01  -7.7980773e-01  -9.3906447e-01   3.5535177e-01  -2.4973729e-01  -1.6247534e-01  -1.8359396e-01   6.6543872e-01  -5.7332756e-01  -7.7226759e-01  -5.3575393e-01  -7.3366015e-01   9.6472175e-01  -1.3427575e-01  -6.7962363e-01  -5.9909010e-01   2.2944433e-01   5.9535258e-01  -2.9544633e-02   1.5565940e-01  -6.0667973e-01  -9.7593283e-01  -6.9731204e-02  -7.4822961e-01   7.9025598e-01   6.0242726e-01   3.3411718e-01  -5.5433816e-01  -9.6204129e-02  -8.8781693e-01   8.6411628e-01  -8.3147396e-01  -2.8783379e-01  -2.9429950e-02  -9.1316807e-01   5.4186211e-01  -8.3030328e-01  -7.7005938e-02  -6.3062311e-01   8.9734098e-01  -7.0673528e-01   7.3852988e-01   4.3877357e-01   7.4473238e-01   2.5428583e-01   5.5336339e-01  -9.3268911e-01  -3.9181605e-01   5.3900598e-01   2.6962741e-02  -4.1485964e-01   1.3811194e-01  -5.5337721e-01   6.3612316e-01  -7.4573969e-01  -8.6937294e-01  -2.4665177e-01   2.5009366e-01   4.4223752e-01   3.4954445e-01  -6.0713662e-02   5.7259335e-03   1.0776194e-01   2.4219512e-01   5.4795104e-01   9.1037957e-02   7.1813255e-01   9.9421340e-01  -8.6242129e-01   5.3079375e-01  -4.4681727e-01  -1.3366322e-01   5.0481491e-01  -1.6352821e-01   3.0242594e-01   3.9929249e-01  -2.0887011e-02   5.1833077e-02   5.1162437e-01  -8.7825855e-01  -5.8231635e-01  -6.1769459e-01  -4.4789566e-02  -1.8778431e-01  -7.5593177e-01  -7.5802344e-01  -9.1004224e-01  -9.3167035e-01   3.4952621e-01   4.2265498e-03   2.3981424e-01  -3.8893166e-01  -3.4040886e-01   5.1794584e-01  -2.0809463e-01  -5.4298546e-01  -1.6751541e-01  -2.0696825e-01   9.0870495e-01   6.1904076e-01   4.2611934e-01  -9.8976712e-01  -2.7537615e-01  -9.8937224e-01   9.1794775e-01   3.6970584e-01   2.3157974e-01  -8.3714950e-01   3.2331843e-01   6.3957502e-01  -5.9347150e-02  -1.3151179e-01   4.2123607e-01  -9.1389531e-01   4.7089530e-01   3.0176437e-01   2.0091256e-01  -9.2401902e-01   7.7061560e-01  -7.9637566e-01  -5.4447231e-01   1.9514780e-01   7.0454368e-01   6.4658505e-01  -2.6138034e-01  -1.0781066e-01   1.5337280e-01  -7.8788355e-01   5.1011032e-01   4.6799435e-01   9.6592091e-01  -2.5769877e-01   7.1176006e-01   9.1813666e-01  -5.8294720e-01   4.3215641e-01   6.2367980e-02  -7.1105868e-01   8.1350218e-01   7.9847695e-01   8.1280044e-01  -5.5032445e-01  -5.3749346e-01   6.9139048e-01   1.0091561e-01  -1.6460602e-01   9.1973215e-01  -1.6380320e-01   5.5955144e-01  -3.7968832e-01   8.2297127e-02  -5.8133871e-01   6.6751530e-01   6.4653612e-01  -8.0288544e-01   6.5192090e-01   3.2281495e-01   9.7696669e-01  -6.7854265e-01   4.3928947e-01   8.5806015e-01   5.9901194e-01  -4.6575479e-02  -9.0260617e-01  -2.9817033e-02  -8.1262928e-02   2.7364201e-01  -9.6689959e-01   4.4243660e-01   5.1868276e-01  -4.4329116e-01  -7.0988040e-01  -1.0380704e-03   7.3316866e-01  -1.2507011e-02  -7.0141681e-02   8.7102915e-01   2.6037863e-01  -9.8175220e-01   4.3254647e-01   1.0270124e-01  -9.9673813e-01  -4.3293119e-01   3.8784011e-01  -8.2812672e-01  -6.7850092e-01  -9.8976578e-01   6.8130616e-01  -5.3665593e-01  -3.4436034e-01  -8.6823082e-01  -7.0937316e-02   1.0887871e-01  -5.6470324e-01  -2.8405002e-01  -4.6117203e-01   4.3555181e-01  -3.2027413e-02  -6.5600909e-01  -4.5625234e-01  -8.1562545e-01   3.6337126e-01   8.1001331e-01   7.0667474e-01  -9.4388860e-02   3.2234811e-01  -2.9384669e-01   4.9546685e-01  -6.8406790e-02  -6.4763285e-01  -4.4097108e-02  -3.0057039e-01  -1.0389477e-01  -3.9928125e-01  -2.5980038e-01   8.9691465e-01   5.9262438e-01  -5.4570607e-01   4.4393881e-01   5.6021512e-02  -6.7342418e-01   1.7341592e-01   6.0563675e-01   6.0160852e-01  -8.7915245e-01   1.6989595e-01  -7.9381197e-01  -9.7409707e-01  -1.7232772e-01  -9.2754943e-01  -5.9380350e-01   9.1158517e-02   1.1005623e-01  -4.7180956e-01  -9.2404275e-01  -7.8730630e-01   7.2622611e-01  -6.0511160e-01   9.0268524e-01  -5.2211836e-01  -1.1568285e-01  -1.5784212e-01  -5.7312105e-01  -9.5078579e-01   9.4912674e-01  -8.1748763e-02  -6.2564235e-01   8.0162905e-01  -9.9298251e-01  -7.5062568e-01   9.9364030e-01   6.3168287e-01   9.6096608e-01  -5.6461200e-01   4.2538215e-01   4.8049210e-01  -9.5388824e-01  -3.8150294e-01   8.9164534e-02   4.8506382e-01   3.2033323e-01   7.0341896e-01  -4.7734638e-01  -8.4877894e-03  -6.1510551e-01   6.7695962e-01  -4.4405737e-01   6.2425385e-01   5.6915558e-01   6.0119814e-01  -2.6197859e-01  -4.0480430e-01  -8.7850370e-01   3.3034782e-01  -9.9450870e-01  -7.2933493e-01  -3.6648548e-01   2.2241132e-01   5.9444231e-02  -5.6746014e-01   8.1430067e-01   5.5584417e-01   2.5671117e-01   6.5358498e-01   9.0334746e-03  -3.2179595e-01  -9.3116247e-01  -9.0488522e-01   5.2515794e-01   9.4224125e-01  -7.2253251e-01   9.8731704e-01  -4.2856846e-01  -5.8294628e-01   8.6277460e-01  -8.2689427e-01   3.3495124e-01   5.7022015e-01   8.2812160e-01  -8.2966996e-01  -2.9907782e-01   4.9466251e-01  -9.9250631e-01  -7.2602543e-01   8.1721477e-01   3.4975905e-01   2.0573937e-01  -1.7644240e-01  -7.6332717e-01  -2.9527645e-01   8.6726042e-01   8.0853364e-01  -9.4258689e-02   5.1547322e-02  -8.1946547e-02   7.3781897e-01   7.1365500e-01  -8.6824430e-01  -7.8543681e-01   1.8038666e-01  -9.6417138e-01  -7.6854432e-01  -9.5869476e-01  -9.0317715e-01   2.4571095e-01   4.1604210e-02  -2.3781700e-01  -4.0109150e-01  -9.2893014e-01  -9.3597210e-01   9.5808577e-01   1.6265884e-01   8.4632130e-01  -4.4149124e-01  -4.6712535e-01   7.1923010e-01  -2.6419347e-01   5.4809913e-02  -6.8811159e-01  -6.5769807e-01  -3.8046430e-01   3.9215193e-01  -7.8535168e-01   4.5868588e-01   3.9680151e-01  -7.8477079e-01   9.6854068e-01   1.8094309e-01   4.2430420e-01   9.7721121e-01  -6.2913798e-01   5.2180542e-01  -7.7819868e-01  -8.3317650e-01  -4.4349386e-01  -2.9903361e-01  -7.5616892e-01  -4.5051438e-01   2.3674007e-01   8.6441024e-01   8.7054063e-01  -2.3698000e-01   7.8857745e-01  -9.2490044e-01  -1.8821499e-01   5.5514323e-03   2.8360374e-01   4.0464425e-01   7.3459739e-01   8.4008504e-02   2.8703780e-01  -3.4909712e-01  -8.1608442e-01   8.0004193e-01  -6.3945720e-01  -7.2299074e-02   6.5441196e-01  -7.3666872e-01  -6.1666528e-01   8.0321768e-01  -9.9830056e-01   3.8307563e-01  -2.2053390e-01   9.4828000e-01   6.6467334e-01  -5.3647188e-01   1.7894544e-01   3.3228815e-01  -5.8023263e-01  -3.1872894e-01  -3.8395137e-02  -1.5369232e-01   3.0587168e-01  -8.7086979e-01  -8.4016162e-01  -8.1350519e-01  -6.4122534e-01   3.1668666e-01  -1.8307431e-01  -7.6911261e-01   4.6734852e-01  -9.6921758e-01   3.8272128e-01  -4.1027000e-01  -3.8183036e-01   7.4780716e-01  -7.0708277e-01   4.2116501e-01  -1.1486104e-01  -9.0746685e-01   4.9898484e-01  -4.9651972e-01   7.2678139e-01  -5.1428499e-01  -8.5191986e-01  -8.1624259e-01   7.9238020e-01  -3.5999853e-01   4.3556202e-01   8.6742269e-02  -4.5193986e-01   9.8949735e-01   3.0883423e-01   5.5111917e-01  -7.2788282e-01  -3.3558053e-01  -7.5879357e-01   1.0062699e-01   2.4084291e-01  -2.3097550e-01   2.1390133e-01   7.8702279e-01  -9.6950371e-01   8.0211786e-01   4.6262866e-01   1.0270149e-01  -4.2028812e-01   4.6725104e-01  -9.5628259e-01  -3.1062839e-01  -3.1210175e-01   3.8685896e-01   6.7462443e-01   3.7495001e-01   1.7420569e-01  -9.1579704e-01   8.9390269e-01  -6.9810217e-01   5.3487742e-01  -2.8480818e-01   6.7202589e-01  -6.5512704e-01  -1.6497109e-01  -7.0587412e-01  -6.9691160e-01  -4.0491872e-01   1.5516766e-01  -6.5226394e-02  -6.5003858e-01
