   5.6143336e-01   1.9299161e-01   5.9819232e-01   5.2168041e-01  -5.3399949e-01   6.0050301e-01   9.3109313e-01  -3.0347207e-01  -5.5475276e-01   5.5632742e-01  -4.6164473e-01  -6.3016406e-01   1.7600134e-01   4.1996606e-01  -8.7727725e-01  -2.7343908e-01  -3.8325338e-01   6.6905297e-01   6.2233546e-01   7.9519098e-02   8.6537326e-01  -2.4107542e-02  -9.5489478e-02  -1.9358271e-03   9.0119834e-01  -3.6431513e-01  -5.2146921e-01  -9.9976257e-02  -4.5409266e-01  -3.1642308e-01  -2.3237029e-02  -3.3857074e-01  -6.8177697e-01   4.9506205e-01  -3.4189354e-01   9.5638199e-01  -9.5084782e-01  -3.9768646e-01   2.8565455e-01   2.2923357e-01   4.8592806e-01  -3.6568085e-01   3.0728356e-01   7.4497876e-01  -5.2302450e-01   4.6197269e-02   4.0248851e-01  -5.7401542e-01   4.9202951e-01   4.4241902e-01   6.4951506e-01   7.4294309e-01   5.1213207e-01   2.2499393e-01   9.3108113e-01   5.9916062e-01   2.3997745e-01   6.7122421e-01   9.9867243e-01  -6.9254572e-01   4.5560049e-01  -2.4785582e-01   7.2553316e-01   6.6065835e-01  -1.4603288e-01   7.2583884e-01   1.0775813e-01   8.2106034e-01   9.5967256e-01  -8.1866717e-01   5.0288228e-01   3.7040395e-02   2.2391041e-01  -4.8013344e-01   8.6902388e-01   6.9544808e-01  -8.5496830e-01  -3.5775491e-01  -2.7165734e-01  -6.8050644e-01   9.6238242e-01   9.2110023e-01   4.1949234e-01  -1.9395687e-01  -2.6298940e-01  -1.1542734e-01   2.0451273e-01  -1.7837473e-01  -1.5787411e-01   7.8000436e-01  -7.0813339e-01   2.0625244e-01   5.2439989e-01   6.2357341e-01  -9.3608839e-03   3.5678807e-01   5.8391840e-01   2.1037982e-01   8.8622875e-01   1.6505019e-01   8.1992092e-02  -5.0950316e-01   6.9849077e-01  -1.5274680e-01  -9.5523452e-01   9.8932218e-02   8.7844931e-01   7.1134328e-02  -6.9325976e-01  -8.1935704e-02  -1.1990690e-01   3.0733652e-01  -5.8398749e-01  -1.2927209e-01  -1.0714695e-02   3.5782493e-01   1.7776076e-01  -3.7299099e-02   3.7076196e-01  -3.3123463e-01   5.3056021e-01  -8.0949436e-01  -9.3295724e-01   8.1756466e-01   6.1375432e-01  -2.0082724e-01   9.2025172e-01   5.4796679e-01   6.9999361e-01  -3.0042409e-01  -8.4682128e-01  -2.8837315e-01   4.9260817e-01  -7.9364343e-01  -1.7311649e-01  -5.3112677e-01   8.7815925e-01   1.9689014e-01   4.5322355e-01   1.8576468e-02  -4.2109195e-01  -1.6376630e-01   5.0398652e-01   4.9289658e-01   1.5489615e-01  -8.0837619e-01  -4.0005704e-01   8.2813365e-01  -5.2389478e-01  -3.4635279e-01  -2.0086093e-01  -9.9741136e-01   7.0107240e-01  -7.1460082e-01   5.1065672e-01   4.1538611e-01   2.2676871e-01   4.1999964e-01   9.9939844e-01   6.1243957e-02   1.7773806e-01  -1.1595259e-01  -4.1754113e-01   4.8487426e-02  -5.2544552e-01  -2.5975458e-02   4.8605752e-01  -2.3958941e-01   5.9770423e-01   1.1830668e-01   2.3689658e-01   8.1905386e-01  -8.0555118e-01  -7.5957928e-01  -9.6438463e-01   2.4657359e-01   1.6103313e-01   1.6751795e-01  -7.6415954e-01  -6.8959964e-01   5.5118227e-02   4.8888190e-02   8.6070255e-01  -8.8097593e-02   9.3478592e-01  -3.6734592e-01  -7.3648955e-01  -6.3028894e-01  -1.3390425e-01   8.3120601e-01   6.3480474e-01   6.6037755e-01   7.5837332e-01   5.6521461e-02  -9.5189660e-02  -1.2467880e-01   6.0432062e-01   4.5479803e-02   3.2331618e-01  -1.4806468e-02   9.7061831e-01   4.9126650e-01  -9.2948511e-02  -3.1840810e-01   7.9173781e-01  -3.8347375e-02  -3.8139289e-01   2.7189587e-01   9.6064951e-01  -4.7966210e-01   6.6643925e-01   8.9819217e-01  -2.2161681e-01  -9.7581030e-01   8.5136792e-02  -7.7998494e-01   4.5450881e-04   7.3799286e-01   5.5981938e-01  -7.7301991e-01   8.0720241e-01   6.6022987e-01   7.4739951e-01  -6.9294004e-01  -1.9795664e-01   9.8863416e-01   4.8209082e-01   4.6704304e-01   8.1327790e-02   4.2348895e-01  -9.0759923e-01   2.9096101e-01  -1.9660646e-01  -4.8299640e-02   5.0216223e-01   1.4797946e-01   6.0139414e-01  -4.6365464e-02  -3.1366717e-01   5.9037097e-01  -8.2506188e-01  -3.1586693e-01  -8.7079771e-01  -6.8279366e-01  -7.4066156e-02   1.4233667e-01  -2.9156984e-01  -1.7594937e-01   8.2316025e-01   2.4056326e-01   2.2816938e-01   2.1378784e-01  -9.4986355e-02  -7.7955761e-01  -7.8667770e-01  -3.4823965e-01  -9.3512007e-02  -4.2347125e-01  -5.6714405e-02  -2.6571027e-01   2.4837397e-01   3.1962209e-01  -5.2780300e-01  -3.1131063e-01   2.4988755e-01   9.0326566e-01  -4.7657523e-01  -2.3776704e-01  -5.0953189e-01  -8.2093588e-01  -3.9928819e-01  -3.4980516e-01   8.2545070e-01   3.2121202e-01   1.5245082e-01  -5.7367123e-01   1.6349142e-01   9.9202333e-02   8.8943008e-01   7.2696370e-01   2.2699147e-01   2.9113517e-01   2.9645433e-01  -1.2515082e-01   9.7561375e-01  -1.2436794e-01  -7.1358726e-01   4.6217330e-01   6.9238863e-01  -3.5389005e-01   9.9816993e-03   9.9624203e-01   6.4522212e-01   5.5180647e-01   1.5912110e-01  -2.3400556e-01   5.5831895e-01   4.7168115e-01   5.4761172e-01   3.4937453e-01  -4.4311078e-01  -9.4926862e-01   6.9129645e-01  -4.9163208e-01  -7.2451668e-01  -3.3334295e-01  -8.0504864e-01   4.6857739e-01  -7.5515652e-01  -5.9184365e-01  -9.9011306e-02   9.3358693e-01  -1.0783128e-01  -3.6475051e-01  -4.9602910e-01  -3.4748886e-01  -9.2233072e-01  -2.3049690e-01  -1.7221234e-01   3.1716082e-01   6.5670729e-02  -3.6061112e-01   9.0557973e-01   4.8643320e-01   3.2331094e-01  -8.8211866e-01  -9.2447474e-01  -8.1623639e-01  -9.4508767e-01   8.3202642e-01  -4.1022060e-01   7.9458524e-01   6.7448524e-01  -4.1162646e-01  -3.3444801e-01  -7.1037827e-01  -4.7751123e-01  -2.8519627e-01  -3.7197585e-01   9.6961310e-01  -6.8157667e-01   2.1846237e-01   9.2641121e-01  -5.8714911e-01   1.3570533e-01   1.1765084e-01  -3.2000890e-01   3.2791327e-01  -3.1388230e-01  -7.1897789e-02  -8.4401103e-01   7.2120590e-01  -8.5626691e-01  -2.5608098e-01  -3.8322005e-01   3.3456922e-01  -9.1461033e-01  -2.2568720e-01   4.9556656e-01  -1.9690456e-01   6.2593482e-01   4.7315602e-01   7.1825450e-01  -2.2296011e-01   5.0725929e-01  -2.3890064e-01   8.7987479e-01  -3.2389156e-01  -9.8650588e-01   5.3620010e-01  -3.5045155e-01  -7.5926187e-01   1.9947468e-02   9.9760083e-01  -5.4423313e-01   9.5451938e-01   5.9872953e-02  -4.0977108e-01  -7.5892720e-01   5.9232013e-01  -3.6328550e-01   1.9654059e-01  -8.3828887e-01  -4.8125883e-02  -7.2924931e-01  -5.3790488e-01   1.3298454e-01  -8.8647073e-01  -7.4568817e-01  -2.3189861e-01  -8.3016961e-01   5.0408375e-01  -3.5825993e-01   1.6208777e-01  -4.4535623e-01  -7.0130509e-01  -6.0559252e-01   2.9559256e-01  -3.7138032e-01   4.9964018e-01   2.0297194e-01  -3.8022559e-01   1.9588524e-01   2.6088404e-01   1.4725130e-01   4.4021552e-02   1.9197978e-01   1.3468975e-01   3.1566734e-01   7.5600880e-01  -1.6036790e-01   8.9851779e-02   2.1774593e-01   2.6896609e-01  -2.5899121e-01   8.2234444e-02   4.6869333e-01   4.8232731e-01   7.0506725e-01   6.2831928e-01   8.2609267e-01   8.2218048e-01  -6.9275567e-01   4.8446650e-01   7.0679055e-01  -3.8058118e-01  -6.9283517e-01  -4.4309196e-01   3.0208681e-01  -1.9517406e-01   9.7825300e-02  -5.7388984e-01   4.4944608e-01  -7.0683744e-01  -2.6535820e-01   7.3345280e-01  -9.0458971e-01  -9.4039579e-01   4.3234590e-01   4.6625627e-01   6.5282686e-01   5.1184263e-01  -7.7782266e-01  -9.7688630e-01   5.1386082e-02  -4.7662643e-01  -7.5341502e-02  -6.9022363e-01   1.7597495e-01   7.3846819e-01  -5.8817358e-02  -9.5494121e-01  -7.3356508e-01  -5.8277606e-01   1.9835840e-01  -4.5003472e-01   8.1568586e-01  -2.0485272e-01   7.9748552e-01   1.6311787e-01  -8.1344623e-01   4.4264683e-01  -6.9611424e-01   6.0269162e-01  -8.4173302e-01  -5.8893131e-01   5.8056534e-01  -6.0108661e-01  -8.6525851e-01  -4.7069364e-01   7.7660213e-02   3.4455885e-02   6.8576109e-01   6.3360281e-01   9.4548054e-01   6.4298030e-01  -6.6706296e-01   2.5005842e-01   4.7721082e-01   4.9079239e-01   3.3080735e-01  -1.7667362e-01  -2.3693218e-01  -2.5920981e-01   3.2273415e-02  -5.1410166e-01   5.8946547e-01   4.5171844e-01   6.6828937e-01  -2.7702867e-01   1.6653461e-01   3.3327026e-01  -9.7829948e-01   5.7364362e-01   6.2814304e-01   1.1645468e-01  -7.8274810e-01  -4.1003625e-01   5.5979506e-01   3.5742733e-01  -7.6683769e-01  -9.9503470e-01   1.4472088e-01  -5.3193654e-01   5.5432176e-01  -4.3761795e-01   9.7078574e-01   4.5859565e-01   1.0074147e-01  -5.9850315e-01   4.0993884e-01  -7.8020645e-01  -3.2247588e-01  -4.3709155e-01  -8.3572507e-01  -9.0563282e-01   2.6783854e-01   5.5065786e-01   9.4856395e-01   1.3221631e-01   4.8811934e-01   4.3359220e-01  -9.1239437e-01   2.8716069e-01  -6.7323224e-02   5.2495145e-01  -9.5515637e-01  -1.2929107e-01  -2.3662626e-01   6.9996530e-01  -5.2113880e-01   4.8809223e-01   7.0053021e-01   5.8409606e-01  -2.5427815e-01  -7.9166127e-01  -4.3180535e-01   8.1084594e-01  -4.5212181e-01   7.4122250e-01   5.6790590e-01   6.1133032e-01  -5.4006823e-01  -6.1139371e-01   8.3426425e-01  -5.2569241e-01  -6.8917177e-01   2.7156964e-01  -2.3584160e-01  -2.6324258e-01  -7.4570300e-01  -9.1592350e-01   3.3394140e-01  -2.9534918e-01  -5.0530209e-01  -3.3230702e-01   9.9747008e-01  -2.3908077e-03  -3.7706639e-01   2.9662235e-01   1.2567483e-01   5.9759773e-01   6.2262839e-02  -8.9868903e-01   1.5366968e-01   7.9404013e-01  -6.8113800e-01   1.7915689e-01   9.1521391e-01  -5.7946697e-01   5.4657490e-01  -2.4948593e-01  -4.3439340e-01   9.6655870e-01  -4.1641892e-01   4.4597890e-01   5.4029685e-01   5.5027186e-01  -1.5377527e-01   7.6978022e-01   2.3598122e-01  -6.7478004e-01  -4.2897165e-01  -8.3727167e-01   6.4554990e-01   2.1350206e-01   7.2937927e-01  -2.5347421e-02   9.3246272e-01  -1.0028481e-01   8.2691496e-01   5.8657190e-01  -3.6819395e-01   5.7103782e-01   2.2493539e-01  -6.5308505e-01  -8.2900824e-01  -9.8583587e-01  -4.6163298e-01  -7.3343391e-01   7.5458666e-01   8.6933986e-01   2.8481889e-02   7.3809059e-01   5.2411569e-01   1.7367339e-01  -3.1256181e-02   6.3963926e-01  -2.1763101e-01  -3.9443135e-01   2.8317804e-01   2.0427805e-01   4.3953973e-01   6.6295584e-01   7.9659046e-01   9.1609498e-01   7.8139349e-01  -1.5594886e-01  -3.8997688e-01   2.3426292e-01  -9.1373661e-01  -7.3884057e-01   6.0213559e-01   5.3574919e-01   2.5032920e-01  -2.3688124e-01  -6.7519492e-01  -3.1960885e-01   8.5168143e-01   3.9562163e-01   8.2020508e-01  -7.1199384e-01   4.3891393e-02  -3.0570043e-02  -1.3351507e-01   1.6331053e-01  -6.8207362e-01  -4.0134689e-01  -1.6595519e-01  -3.8795906e-01  -1.6448792e-01   7.6687016e-02  -7.3087278e-01   2.2020185e-01  -7.0134023e-01  -2.0439540e-01  -8.2329134e-01   2.4042270e-01  -8.5471890e-01  -5.2920175e-01   8.6950692e-01  -5.5895286e-01  -8.6467249e-01  -7.3859725e-01  -9.2451360e-01  -6.5377423e-01   2.2427391e-01   9.0263075e-01   5.6105715e-01  -3.9680486e-01   9.8244309e-01  -4.0681231e-01   6.9115636e-01  -1.5350548e-01   6.7772981e-01  -5.6090755e-01   9.9655840e-01  -7.1126794e-01  -2.9485974e-01   3.8583251e-01   9.1387268e-01  -1.2162975e-02   4.9247141e-01  -7.8831392e-01  -1.5612979e-01   5.4965099e-01   9.9382020e-01  -4.5785219e-01  -6.2385830e-01  -1.8703314e-01  -9.7322530e-01   3.6427443e-01  -3.1851127e-01   4.8962405e-01   8.3377533e-01   5.3919838e-01   8.0277786e-01   8.1902112e-01   8.5481615e-01  -9.2851954e-01   1.9836813e-01  -5.7010993e-01   1.3861384e-01   2.8335094e-01  -6.4575304e-01   6.1455356e-01   4.1381470e-01   8.5879744e-01  -3.1893632e-01  -4.1404621e-01   7.4982232e-01   7.6165693e-01   8.8019821e-01   1.8451103e-01   6.1220167e-01   5.7020004e-01   4.7010243e-01  -8.9360944e-02   4.1913439e-01   1.5983374e-01  -3.6118361e-01   3.9903965e-01   8.9814686e-02  -2.7099724e-01   6.8587289e-01   6.3507778e-01  -3.3131361e-01   6.3845954e-02   2.0934187e-02   3.1487661e-01   5.6841173e-02   6.6037652e-01   1.3073302e-01   3.6402289e-01   2.2804160e-01  -6.0825131e-01   8.1779979e-01   3.6326045e-01  -5.2421265e-01   7.0867331e-01   1.9580748e-02   8.1119631e-02   6.8513301e-01   4.2056565e-01   7.1193025e-01  -5.0389589e-02  -3.3593475e-01  -2.3534347e-03  -9.3083396e-01  -7.4346712e-01  -2.1215152e-01  -9.2084724e-01   8.0898371e-01   6.8457638e-01  -6.4653519e-01   4.1440148e-01  -9.9248264e-01  -3.7666141e-01  -1.8118781e-01  -7.6589408e-01   6.3347589e-01   2.3098847e-01   1.3254905e-02   4.6954837e-01  -1.4574503e-02  -6.7278654e-01   9.9357164e-01   2.6630154e-01   3.8763848e-03  -1.1947801e-01  -3.7841980e-01   3.2115671e-01   9.4809868e-01  -2.8764564e-03   7.4765061e-01  -8.2989521e-01   5.6588081e-01   9.5667055e-01   8.7603275e-01  -5.5959179e-01   2.0791491e-01  -8.6457073e-01   7.8973456e-01   3.4225197e-01   1.3611614e-01  -5.5072260e-01  -4.9711843e-01  -9.5366407e-01  -2.4621161e-01  -7.3886348e-02   5.6581669e-01   6.1285200e-01   1.1290012e-01  -4.9392125e-01  -3.0251652e-01  -9.9934319e-01   9.4437602e-01   2.8007880e-01  -6.1630475e-01  -4.2717190e-01  -1.3458166e-01   9.1025264e-01   1.7802381e-01   4.9231636e-01  -1.6503293e-01   6.6417823e-01   6.5565622e-01  -1.6702884e-01  -2.6945930e-01   1.7536839e-01   6.9160350e-01   4.4334906e-01   3.2708003e-01  -6.3645713e-01  -9.7956871e-01   4.8456595e-01   1.1795746e-01  -6.4134026e-01  -5.0360737e-01   4.6944058e-04  -8.7036563e-01   9.7997729e-01   3.1140368e-02   9.1169622e-01   1.5185814e-01   9.3215416e-01  -7.1879326e-01  -3.7489414e-01   1.3821323e-01   6.4710593e-01  -3.8294636e-01   4.5735929e-01   1.6152323e-01  -5.8921950e-02   3.7631645e-01  -4.4722855e-01  -7.3191557e-01  -1.6216427e-01   2.3302852e-01  -5.6032728e-01  -5.2720743e-01   4.3277876e-01  -1.0016825e-01  -5.5432973e-01  -7.7532299e-01  -8.7408690e-01   5.6531669e-01   2.9769002e-01  -6.1440316e-01   9.2260602e-01  -3.4759422e-01  -4.0530793e-01   1.8772378e-01  -3.0466830e-01   9.2995669e-01  -3.2973892e-03   1.4128546e-01  -8.7594012e-01   3.2143365e-01  -2.9709611e-01   8.9624953e-01   8.6051918e-03  -2.0192329e-01   7.7536558e-01   8.1773177e-01   3.1284024e-01   9.8643911e-01  -8.0056480e-01  -8.9411828e-01  -3.5914376e-01  -3.7204914e-01   1.2722703e-01   5.3147588e-01   9.1708881e-01  -5.1728985e-01  -4.6087069e-01  -9.6373227e-01  -5.2013041e-01  -8.6777933e-01   8.0086849e-01   8.6873301e-01  -7.8000861e-01  -2.6983086e-01  -4.2373627e-01   2.1125440e-01  -6.0128557e-02   5.9475287e-01  -4.0998123e-01  -2.7193539e-01  -4.1677893e-01   8.3041067e-01  -9.0689985e-02  -1.4015232e-01  -1.1489745e-02   7.3547817e-01   6.4952879e-01   3.3735094e-01  -8.8818871e-01  -2.5668530e-01   3.8132379e-01   9.1692150e-01  -2.8570742e-01   5.4936560e-01   5.5649461e-01  -6.8416337e-01   9.3666661e-01   4.2672021e-01   7.3312218e-01  -9.7127212e-01   3.5098182e-01   1.0099001e-01   2.6641954e-01  -6.5707516e-01  -3.3024681e-01   2.6233631e-01  -9.7595500e-01   5.6515589e-01  -7.2069532e-01   5.0564700e-01  -2.0911369e-01  -1.6724631e-02   1.1504102e-01  -3.6756589e-01  -1.7613782e-01   6.9601216e-01   9.9187848e-01   5.8704327e-01  -3.3817541e-01  -4.0733932e-02  -4.3225596e-01   1.8125406e-01   1.6793877e-01   7.7019596e-01   8.0268063e-01   4.4557875e-01  -3.9280688e-01   2.3284402e-01  -1.7709317e-01  -2.3154507e-01  -3.9492028e-01   2.5864728e-01  -1.4165889e-01   6.7233716e-01   2.6140880e-01  -9.1856727e-02   7.1232641e-01  -1.5622441e-01   3.6948860e-02  -4.6712140e-01  -3.4784880e-03  -5.2307463e-01   7.1286476e-01  -6.3614958e-01   3.3155013e-01  -6.4635520e-01   3.1317623e-01  -6.4140070e-02   1.1245835e-01   9.2109716e-01  -6.5737789e-01  -4.8453012e-01   2.6028649e-01   1.9435142e-01   9.3120114e-01  -8.6916924e-01   7.3166246e-01  -9.4145457e-01   2.6352976e-01   6.6036571e-01   1.3101937e-01  -7.4388882e-01   6.1088304e-01   7.2958130e-01  -3.5784697e-02   8.5252041e-01   9.2077111e-01  -9.9118131e-01   4.6352667e-01  -2.5061483e-01   7.7214118e-01  -7.0038326e-02  -7.5083207e-01   7.1519321e-02   5.0872700e-02  -8.5578679e-01   4.2091485e-01   1.5409948e-01  -7.1000287e-01  -9.8214365e-01   1.4259814e-01  -4.4876897e-01   5.6063898e-01  -9.4553830e-01   7.2387532e-01   4.5295948e-01   1.6629105e-01   1.5811513e-01   1.3141503e-01   6.0372526e-01  -4.4076912e-01  -6.6099420e-01   7.2404718e-01  -8.8128384e-01   3.7992488e-01   9.8627217e-01   4.1985521e-01  -7.6695490e-01  -5.8831851e-01   5.2590287e-01   5.0041147e-01
  -9.1022513e-01   1.9104112e-01   3.0324322e-01  -8.0710687e-01   1.7307788e-01  -5.7191061e-01   4.1868723e-01   4.8873658e-01   4.9612830e-02   5.6453061e-01   6.7114543e-01   3.1125459e-01   6.1522208e-01  -9.6957017e-01   2.8094261e-01   4.0068271e-01   7.0623700e-01   8.5559336e-01  -2.8287843e-04   7.5529628e-01  -7.6020229e-01   4.8235547e-01   1.9525852e-01   4.3842796e-01  -2.8080387e-02   7.2045100e-01  -1.0185012e-01  -4.1690355e-02   5.6584186e-01   1.5762349e-01  -1.4907097e-01  -7.4886902e-01   2.4847198e-01  -9.3215623e-01   4.1924750e-01   1.4809061e-01  -7.1145474e-02   7.9064819e-01   3.0069635e-01  -6.8712302e-02   4.6128590e-01   9.8337042e-01   7.1066149e-01  -9.2831885e-01   7.7775129e-01  -5.3626818e-01  -1.0761191e-01   4.2633187e-01   7.1766922e-01   7.4612096e-01   6.9011796e-01  -3.4420015e-01  -9.6052702e-01   2.8251373e-01   9.3247544e-01   9.4458249e-01   3.1613429e-01   8.0870471e-01  -4.0407176e-01  -9.4108476e-01  -5.8106327e-01  -2.8673580e-01  -8.9399330e-01   1.4752104e-01   3.8240064e-01   9.8627714e-01  -9.3523976e-01   8.4980959e-01   7.4240287e-02   2.3726460e-01   6.3834404e-01   5.6782606e-01  -1.7332438e-01   6.6584048e-01  -3.7596251e-02   7.9233995e-01  -2.6781388e-01  -7.6693468e-01  -2.3821953e-01  -4.4414993e-02  -1.1250008e-02   6.3485418e-01   6.4532607e-01  -8.7753038e-01   3.5218470e-01  -3.4613806e-01  -6.0345833e-01  -2.7220290e-01   6.4123301e-01   8.9119181e-01   2.4675825e-01   8.9979714e-01  -6.5650100e-01  -3.0958912e-01   6.5042153e-01   6.8715706e-01  -2.2777520e-01   8.1827615e-01  -8.9104993e-02   9.3242569e-01  -1.8092699e-01   5.9696895e-01   8.9837091e-01   9.1047973e-01  -3.2078146e-01   8.3696570e-01   7.6803051e-01  -7.8087180e-01   3.3824073e-01   5.1905648e-01   9.1868723e-01  -7.4336509e-01  -9.7867396e-01  -6.0593066e-01  -9.4443471e-01  -2.3911852e-01  -1.5734208e-01  -7.6808832e-01  -9.1150828e-01  -9.5405845e-01  -9.1413911e-01   5.0279840e-02  -7.2978406e-01   1.0685309e-04   1.4670349e-01  -2.3996989e-01   6.6923681e-01  -5.3623675e-01  -6.4186479e-01   7.6210557e-01  -5.7495239e-03   5.3682038e-01   1.3256778e-01  -8.6632995e-01  -1.8356567e-01  -1.4847990e-01   4.1749840e-01   3.2946438e-01   5.7494064e-01   9.0790188e-01  -6.7387818e-01  -6.1287867e-01  -5.8431672e-01   1.2398568e-01   3.0019353e-01  -1.2103189e-01   1.7299546e-01  -2.5484470e-01  -1.9615827e-01   4.2800556e-01   7.5523188e-02   7.6437543e-01   6.8786047e-01   6.2492802e-01  -4.9643725e-01  -5.3351347e-01  -8.6629089e-01  -8.0940159e-01  -4.3690742e-01   6.4692899e-01   2.6609909e-01   6.2730060e-01  -9.1432289e-01   2.4234685e-01  -2.3662654e-01  -8.4799896e-01   3.7054506e-01  -5.0234231e-01  -3.7482562e-01  -8.0065576e-01   9.2141787e-01   2.5279672e-02   4.2359769e-01   5.7054668e-01   1.7294115e-01   6.6016713e-01   5.4779020e-01  -9.6624246e-01  -4.2197524e-01  -3.4096327e-01   2.0578688e-01   3.5286476e-01  -2.6069838e-01  -3.4785810e-01   9.7907831e-01  -9.4941080e-01   3.1602522e-01  -1.5797904e-01  -8.7398119e-01   4.3195643e-01  -5.0200984e-01  -8.0177998e-01  -3.9917424e-01   9.2911593e-01  -2.0619634e-01  -8.2024321e-01   2.8729475e-01   6.4226701e-01   2.6898594e-01   8.7267065e-01   2.2235921e-01   4.9578679e-01   1.5088088e-01  -3.3795772e-01   4.0324436e-01   7.2051352e-01   7.2098436e-01   2.7148636e-01   3.9911860e-01  -8.3712393e-01   6.8000270e-01   6.6801678e-01   5.8824440e-01  -6.1828232e-01  -5.1234501e-01   1.6377903e-01  -5.0939512e-01  -7.8347095e-02  -6.0045202e-01  -9.3638589e-01  -7.5167322e-01  -1.4437987e-01   6.3876770e-01   6.5651299e-01   4.9379775e-01   4.2266781e-01   6.7758360e-01  -3.0538405e-01   5.8321722e-01   6.9802987e-01   9.0265631e-01   9.6486690e-02  -8.2724022e-01  -8.2810840e-01   3.0863664e-01  -9.1573759e-01  -2.5214700e-01   4.8467005e-01  -9.0859073e-01  -7.7256085e-01   2.5209516e-01  -2.1418263e-01   6.1938065e-01   7.2475116e-01   4.8106173e-01   6.1230737e-01   6.1716073e-01  -3.7783569e-01   2.7179734e-01   2.0945166e-01  -3.2160754e-01   6.7830131e-02  -8.9112701e-01   2.4791268e-01   7.4726394e-01   3.0470641e-01  -6.4968088e-01   6.2127162e-01   4.5006524e-01   3.8347147e-01  -8.5769021e-01   5.4901642e-01   5.3373694e-01   4.5480011e-01   2.6915742e-01   2.6192260e-04   1.6606970e-02  -2.5834380e-01   3.5121301e-01  -3.8883754e-01   2.0250287e-01   4.8904181e-01   2.5435722e-01   1.9903746e-02   3.2551941e-01  -8.6475251e-01  -5.2590172e-01   2.7362961e-01  -4.4317103e-01  -6.4645542e-01  -4.2364637e-01   7.2676078e-01  -8.2522400e-01  -3.1377462e-01   6.5938824e-01  -7.6174793e-01   1.3999300e-01   8.4910672e-01  -9.8240937e-01  -5.7343818e-01   8.2837141e-01   6.2407997e-01  -6.0318896e-02  -2.0481612e-01   5.2111932e-01   3.4065945e-01   7.9102236e-01  -8.6020065e-01   2.9166010e-01   1.9601612e-01   3.4564971e-01   9.7692010e-01  -6.5378229e-01  -6.6107168e-01   9.3361229e-01  -5.9726432e-02   6.2641473e-01  -2.4070006e-01   1.3094425e-01   1.2849843e-01   8.2063032e-01  -3.4293172e-01  -1.8783481e-01   6.3039060e-02  -5.1938061e-01  -3.0617412e-01   9.4029988e-01   9.4327078e-01  -7.2795813e-01  -7.5293747e-01  -4.9103592e-01   9.7979292e-01  -8.0890380e-01  -8.8934431e-01  -3.4891012e-01  -9.0895974e-02  -2.9205579e-01   1.8322457e-01  -5.5078462e-01   4.4870157e-01  -6.6738235e-01   7.3531193e-01   4.7546701e-01   1.5254740e-01  -7.0017876e-01   5.5531120e-01   9.6855346e-01   7.1259813e-01   1.1217563e-01  -4.6205494e-01   5.3551072e-01  -1.8000175e-01  -5.9158575e-01  -4.7759409e-02  -3.9652131e-01  -1.8522475e-02  -3.1834616e-01  -4.3698792e-01  -9.5009778e-01   2.3032612e-01   2.9181483e-01   4.8106657e-01  -1.1057057e-01   3.9978631e-01   7.2418173e-01  -8.7634794e-01  -3.8642260e-01   7.4028212e-01   8.9081562e-01  -4.9725921e-01   5.8109143e-01  -7.9584672e-01   3.3284636e-01  -6.5277627e-01   9.9203729e-01  -7.3848782e-01  -6.9755760e-01  -4.6006419e-01   1.0052025e-01   5.9398843e-01  -9.3206162e-01  -9.4853386e-01  -7.7740899e-01  -1.4973303e-02   3.5324080e-01  -9.6987000e-02   2.4637657e-01  -3.8987253e-01   8.4043752e-01  -9.1812906e-01  -7.2803899e-01  -3.7928831e-01   3.8392689e-01   4.7755349e-01  -8.3916725e-01   8.1947696e-01  -2.5647441e-01  -1.4250117e-01   8.8187365e-01  -1.3820314e-01  -7.4124098e-01   8.9472490e-01  -5.4297204e-01   9.7279534e-01   9.5833119e-01   9.1003014e-01  -3.5533417e-01  -7.2322945e-01  -6.9227806e-02  -4.3112867e-01  -1.2423908e-01  -6.1439406e-01   6.3806146e-01   9.4614341e-01  -5.8981875e-02  -9.2958928e-02  -7.6843670e-01  -6.7901506e-01  -2.9116645e-01   3.2050332e-01   9.8573741e-01  -4.1729873e-01  -3.5286766e-02  -1.0807199e-01   7.1815142e-02   8.4689752e-01  -9.7745738e-01   5.7536642e-01  -3.6702369e-01  -5.5040574e-01  -1.2097716e-01   1.9281038e-01  -4.8696467e-01  -5.7298905e-01  -9.8817473e-01   8.9120671e-01   9.8262285e-01  -6.5755246e-01  -5.5085111e-01   8.6357339e-01   8.7931636e-01   9.2947721e-01   8.5103858e-01   8.1648950e-01   6.1856131e-01   6.1470910e-01   5.0828189e-01  -5.0667707e-01   8.5055985e-01  -6.1411875e-01  -8.4594656e-01   2.0164513e-01   7.3722671e-01   4.4931924e-01  -6.1427627e-01   6.6462563e-01   7.9442757e-03  -3.1234434e-01  -2.2841107e-02  -4.6661501e-01   4.5598325e-01  -1.1644932e-01   2.5065520e-01   3.7530819e-01   3.6990086e-01  -3.8711415e-01  -8.0667470e-01  -3.4143260e-01   7.3770566e-01   3.5539896e-01  -1.3453964e-02   6.5630716e-01   3.7150603e-01  -7.7813643e-02   9.1579883e-01   2.7075748e-01   6.6407380e-01  -6.5219005e-01  -3.4001407e-01   5.8582899e-02  -4.8320895e-01   3.3890969e-01   6.8640526e-01  -2.0063224e-01   4.0706983e-01  -1.0693731e-01  -4.5219928e-01  -5.2119828e-01   8.8590449e-01   4.8154648e-01   5.1754191e-02   7.0776627e-01  -4.4962997e-01  -4.6336517e-01   9.6074333e-02   3.5348070e-01  -9.5859874e-01  -9.8901354e-01  -2.9193049e-01  -6.0478844e-01   7.5870933e-01  -8.9057865e-01  -3.2917365e-02  -2.1269683e-01  -4.4738782e-01  -4.5953805e-02  -2.7345517e-01   9.0491062e-01  -3.1216458e-01   9.1010035e-01   7.2830965e-01   7.0968474e-01  -9.6685965e-02   3.2486492e-01   2.2642664e-01   3.5434439e-02   9.0895775e-01   5.3473698e-01   8.3487848e-01  -2.1012056e-03   6.1979746e-01  -7.5058731e-01   7.5180803e-01   1.5378854e-01  -9.8964623e-01  -6.4793421e-01   3.5054072e-01   9.9607886e-01   4.9662026e-01   6.4793784e-01  -6.0248842e-01  -1.2596783e-01   6.8082345e-01   9.6540594e-01  -9.7100415e-02  -6.3691357e-02  -5.6294725e-02   3.5856342e-02  -7.5201460e-01  -9.9316041e-01   7.0904984e-01   5.7285031e-01   6.4055194e-01   1.8141976e-01  -6.8572032e-01   8.5943870e-01  -4.3869098e-01   6.0443430e-01   3.8276823e-01   9.0522025e-01  -3.2818940e-01   7.4393690e-01  -3.3315189e-02   5.7998853e-01   3.7175723e-01   3.8972010e-01   3.5648051e-01  -9.6689552e-01   1.3548108e-01   7.8397510e-01  -7.4863032e-01  -6.1176728e-01   8.2204404e-01  -3.1326196e-01  -6.6428559e-01   7.4470745e-02   5.8153600e-01  -8.2927377e-01   7.9590725e-01  -1.4141719e-01  -6.6567312e-01   9.1452553e-01   6.4665912e-01   8.0010493e-01  -7.1956901e-02  -3.4447172e-01  -2.7656182e-01   7.0652028e-02   1.6700699e-01  -1.0671844e-01  -9.7041467e-02  -3.5232983e-01  -5.0587187e-03  -2.6574472e-01   7.5559202e-01  -4.3366772e-01   2.2665990e-01  -6.3960118e-01   6.9867216e-01  -8.4730079e-02  -7.2078725e-01   3.5113406e-02  -9.7805483e-01   2.5703013e-01  -3.7265098e-02   8.9448442e-01   8.6699509e-01  -9.3083621e-01   5.8464755e-01  -9.4169976e-01  -8.3687890e-01  -5.2210957e-01   7.7810022e-01   7.1279534e-01  -4.3734354e-01  -3.3074305e-01  -4.7922120e-01   9.0143273e-02  -6.8354169e-01  -2.5987546e-01   9.1006784e-01  -8.3147695e-01   3.9490662e-01  -7.3034910e-01   8.6904845e-01  -6.2669930e-01   4.5801430e-01  -9.9982802e-01  -3.8136027e-02   5.9844865e-01  -2.4029537e-05   9.1033172e-01   9.4300251e-01   3.1552060e-01  -2.3938111e-03   4.3681958e-01   2.1734596e-01   7.9787177e-01  -4.4869895e-01  -9.6429356e-01  -2.4426125e-01   4.1314911e-02  -5.8336580e-01   7.4489991e-01  -6.0932201e-01   3.8676693e-01  -8.3808672e-01  -9.0393689e-01   7.5473948e-01   7.2628945e-01  -1.3479991e-01  -7.0398270e-01  -2.2214762e-01   4.9179439e-01   7.6353619e-01   3.3864626e-01  -5.2410290e-02  -1.6595227e-01   5.1009257e-01   7.0807392e-01  -2.4563222e-01  -6.6894219e-01   4.5579301e-01  -4.4995368e-01   1.3990524e-01   6.6966666e-01  -1.1602052e-01  -9.9376624e-01  -2.6138997e-01  -3.4877823e-01  -4.9532247e-01  -9.4503350e-01  -5.5092756e-01   4.7642453e-01   4.8789871e-01  -6.2505569e-01  -9.6476202e-01  -4.8645835e-01   7.6444197e-02   9.6658827e-01   8.0580330e-01   2.4972398e-01   3.9379316e-01   1.4785834e-01  -8.3507733e-01  -7.0420408e-01   2.1063878e-01   4.8900136e-01  -9.2158014e-01  -7.7510820e-01  -2.1461239e-01  -4.5116534e-01   5.2424559e-01  -9.6211745e-01  -8.0019085e-01  -3.1401839e-01  -5.8687639e-01  -6.9033982e-01  -7.6688904e-01  -7.9401664e-01  -9.1504764e-01  -2.2791608e-01  -5.7277814e-01  -5.6311150e-01  -1.3608970e-01  -2.3292201e-02   8.3138596e-01  -2.0456626e-02  -4.3828347e-01   6.7487536e-01  -9.6453237e-01  -3.2650058e-01  -6.6868293e-01  -9.2815173e-01   4.3404799e-02   6.1894932e-01  -9.8358510e-01   9.4575599e-01   7.9202913e-01   8.0661136e-01   9.8058897e-01  -2.6424065e-01  -1.1302598e-01  -5.5462625e-01   8.0344697e-01  -7.8928249e-01  -2.8971612e-01  -4.9163070e-01   4.1754347e-01   6.0969467e-01  -6.0946836e-01   2.4542087e-03  -7.4082550e-01   5.6889152e-01  -6.4293519e-02   4.2258659e-01  -1.1203736e-01   7.9036610e-01   2.9671227e-01   5.2628823e-01   5.6384019e-01   2.6116865e-01  -8.0144824e-01   7.2226083e-01   4.9958386e-01   9.6988619e-01   8.2644012e-01  -5.7827246e-02   7.2309247e-01   8.4740443e-01   9.3098199e-01   1.2606566e-01  -5.1918440e-01  -2.2077147e-01   8.2235266e-01   2.1024963e-01  -7.5920145e-01   5.9017510e-01   6.3942998e-01   9.8229943e-02  -1.0048888e-01  -2.5623357e-01  -2.4166842e-01  -3.2725111e-01  -7.2699710e-01   6.2905156e-01  -3.3548700e-01   6.9688371e-01  -2.1404614e-01   6.2279639e-01   2.3430053e-01  -6.8384685e-01  -1.0345425e-01  -4.3705558e-01   4.5682392e-01  -6.7517147e-01  -8.9204894e-01  -4.9079682e-01   9.1764430e-01  -4.9057966e-01   5.8820246e-01  -5.5863758e-01   4.5761027e-01  -9.0023275e-01  -7.4087198e-01  -9.4110242e-01   5.9256501e-01   2.7450242e-01  -4.8190407e-01  -7.9279746e-02  -3.9135689e-02   2.3858403e-02  -5.5455512e-01  -5.7147421e-01  -4.9293067e-01   5.1708544e-01  -7.4029907e-02   4.4265600e-01  -9.8428298e-01   1.0027185e-01  -9.6690753e-01  -3.2373096e-01   6.7056155e-01  -8.9367059e-01   6.6559065e-01  -2.7346851e-01  -8.7660513e-01   6.7800914e-01   7.7943110e-01  -3.1801378e-01  -7.9443398e-01  -4.7168962e-01  -2.8524303e-01   9.5077278e-01   2.0618708e-01  -5.0976744e-01  -1.8214539e-03   6.7084993e-01   6.7518822e-01  -6.2491647e-01   3.1614893e-01   8.3583744e-01   8.4968339e-01   4.0771440e-01   1.3503986e-01   6.0569709e-01   7.4216697e-01  -9.9700885e-01   5.3901452e-01  -1.9632557e-01  -2.2143240e-01  -8.3235886e-02  -9.8084302e-01  -3.5450000e-01  -2.6886759e-01   4.0412616e-01  -7.5807755e-01  -3.3360856e-01   4.5162164e-01  -9.8631189e-01  -7.6076033e-01   1.6510013e-01   1.8042880e-01   2.8803419e-01  -5.1091649e-01  -9.9940592e-01   1.1741158e-01  -7.5638781e-01   9.9830511e-01   1.3193960e-01  -2.2541171e-01  -9.7439345e-01  -4.9813685e-01   9.2756837e-01   3.4004457e-02   9.3732989e-01  -9.6828876e-01  -1.6243775e-01  -2.5209227e-01   5.1413721e-01  -8.3554758e-01   2.2397986e-01   3.3232129e-01  -1.0083673e-01   8.3957564e-01  -6.3480325e-01  -3.8819457e-01   4.2109421e-01   5.1260890e-01  -6.9172590e-01  -2.2617426e-01   7.6063536e-01   1.5485441e-01   7.0938561e-01   9.9862868e-01  -9.5548561e-03  -5.7662109e-01  -7.3921714e-01   8.8888335e-01  -2.6357097e-01  -7.8505604e-01  -2.3794539e-01   8.1505199e-02   4.0157193e-01   5.2613367e-01  -1.5296953e-01  -5.5038104e-01   3.3938460e-01  -2.0507618e-01   3.6119220e-01   4.1706846e-01  -7.6951220e-01  -5.5091030e-01   4.9997990e-01   3.5463984e-01  -8.8430398e-01  -8.7351604e-01  -1.2435879e-01   6.6717062e-01  -6.3211763e-01  -3.8237116e-02  -2.0107701e-01   8.0533755e-01   8.1313818e-01   7.5518114e-01  -9.1669046e-02  -6.2889611e-01  -1.7585260e-01   1.6134701e-01   8.1391747e-01   4.0209111e-01   3.3414926e-01  -9.9512590e-01  -8.6714778e-01  -8.5078283e-01   5.9058295e-01  -5.3966417e-01  -6.7365682e-01   2.4081612e-01  -5.4798578e-02  -4.0987506e-01   4.7626775e-01   1.3682011e-01   5.9893786e-01  -8.1902747e-01   2.5303398e-01   7.0193959e-01   8.5619975e-01   7.7823275e-01   2.0981168e-02   7.0830430e-01  -3.7066271e-01   5.0743992e-01   4.0997072e-01   6.4788412e-01  -8.3736431e-01  -6.2126990e-01  -4.2444800e-01   6.1655041e-01  -3.8845399e-01   3.4267249e-01  -5.0059354e-01   7.6424720e-01   8.0581235e-01  -3.8663330e-01   9.3960247e-01  -4.0656572e-01  -4.2930274e-01  -2.4603511e-01   7.4100030e-01  -5.9917285e-01  -8.9843257e-02   6.3577579e-01   8.6885892e-01   2.5456294e-01   6.8417876e-01   9.8573298e-01   9.6411299e-01   2.7666755e-02   3.7356189e-01   2.0071664e-01  -2.1454401e-02  -4.0662439e-01   4.3917286e-01   8.8466764e-01  -1.4921655e-01  -3.6842614e-01   6.3018489e-01   8.5419740e-01  -5.2943366e-01  -9.7493866e-01  -9.1212037e-01  -7.1243994e-01  -1.6388114e-02  -4.6146001e-01  -6.6799174e-01  -4.8088182e-01   7.6558279e-02  -7.1550050e-01   2.4404058e-01  -7.0088432e-01  -7.4096693e-01   2.8568612e-01  -5.0052494e-01   3.1280575e-01  -4.2393976e-01  -6.0264952e-01  -4.6568161e-01   8.4027839e-02   7.7666625e-01  -4.1586555e-01   7.4991362e-01   6.6534456e-01   1.5411159e-01  -6.5867927e-01  -6.7770643e-01  -2.5771030e-01  -1.6882033e-01   2.9161648e-01  -1.6220282e-01  -6.7240234e-01  -4.5232404e-01   5.5105407e-01   7.0216739e-01  -1.6408725e-01   2.6522954e-01  -5.5983086e-01  -8.0694724e-01   2.7006075e-02  -7.5406163e-01  -2.7255275e-01   2.1045606e-02  -8.8134538e-01   6.6136572e-01  -6.9528460e-01  -5.7934384e-01   7.0824047e-01   5.3517510e-01   2.1680229e-01  -8.7760427e-01
   9.1659561e-01  -3.5221966e-01   4.0820716e-01   1.2840839e-01  -2.8184286e-01  -8.6747297e-01   6.0088853e-01   8.9045508e-02   1.0540050e-01   8.3584938e-01  -5.1141319e-01  -8.4000049e-01  -7.0328700e-01   1.5092293e-01  -7.8479231e-01  -9.1089254e-01  -4.5981832e-01  -3.7823309e-01  -6.9598151e-01   6.9270279e-01  -2.4390260e-01   7.7239416e-01   1.9897795e-02  -1.6386606e-01  -6.4431002e-01  -2.1670851e-01   9.5555953e-01  -8.0620306e-01   3.0118094e-01   1.1775332e-01   2.1396739e-01  -7.3394069e-01   3.0585189e-01  -9.6178217e-01   5.0219753e-01   5.2391665e-01  -8.1107494e-01   2.8716917e-01  -2.7090868e-01  -9.8225480e-01  -6.1923462e-02   2.0662819e-01  -8.0206627e-01  -9.3764864e-01   9.6241270e-01  -8.5840791e-01   8.8980986e-01   6.3359931e-01  -7.7072136e-01   3.5356261e-01  -2.4771468e-01   2.4999664e-01  -8.1064346e-01   8.1557322e-01  -1.2712642e-01   3.9882040e-01  -8.0843667e-01   1.1888685e-01   7.3476410e-01   7.6664099e-01   7.3369241e-02   7.2036052e-01  -3.6353932e-01   8.6470550e-01   3.3573097e-01  -4.8757241e-01   2.6629595e-01  -9.2706656e-01  -6.2626613e-02   4.0347031e-01  -8.7078380e-01  -1.6894286e-01  -4.5115880e-01  -8.7456964e-01   6.1725820e-01   3.3613964e-01   3.4098344e-01   9.6561336e-01   5.4534406e-01   1.3562007e-01  -2.7172901e-01  -9.6609403e-01  -9.0135067e-02   8.3773804e-01  -6.5315625e-01   1.9937452e-01  -5.5756606e-01  -7.1408243e-01  -9.1986984e-01  -4.9239367e-01   7.3075841e-02   9.7202906e-01   4.0934124e-01   9.3446556e-01  -2.3905022e-01  -4.6294310e-01  -6.0693135e-01  -9.2627004e-01  -2.9603237e-01  -8.8161641e-02   7.2209640e-01  -3.5213036e-02   2.4473219e-01   4.1969244e-01   6.9459425e-01  -3.7870818e-01   1.6670238e-01   3.3479414e-01  -7.8329304e-01  -3.1121087e-01   8.9925111e-01   6.9105962e-01  -5.6212757e-01   7.6595353e-01   6.2790430e-01   7.9075206e-01  -9.9926347e-01  -4.2819289e-01   9.5254635e-01  -7.1717238e-01   3.9395209e-01  -6.4560669e-01  -8.6165698e-01   7.0654383e-01  -7.0399356e-01   2.3688178e-01   6.4314880e-02  -9.6382199e-01   1.7522270e-01   6.9046757e-01  -9.6822255e-01   1.1737669e-01   4.6706275e-01  -2.7143267e-01  -5.4534795e-01  -4.4285818e-01  -5.3463015e-01   6.0738690e-01  -3.2871796e-01   2.7068202e-02  -7.2623109e-01   2.8440914e-01   7.6324131e-01  -9.6802691e-01   5.5016552e-01  -8.2216137e-01  -7.6957614e-01  -2.2392327e-01   9.8988429e-01  -8.0640048e-01   6.9080281e-01   7.0179927e-01  -4.9465038e-01   7.5926484e-01   4.9597354e-01  -6.5559152e-01  -3.1055254e-01  -8.5852859e-01   5.3386626e-01  -6.3181277e-01   8.5567442e-02  -5.6692045e-01  -3.9672628e-01  -3.9746213e-01   6.1274109e-01   7.9656557e-01   7.4044658e-01  -1.8372342e-01   5.2792324e-01  -9.0035921e-02  -5.8732229e-01  -4.4956016e-01  -2.3698925e-01   9.6455209e-01   6.6631401e-01   1.4834094e-01   5.5535789e-02  -1.0141795e-01   9.4600200e-01  -4.7382365e-01   6.4546612e-01  -4.3049763e-01  -1.0331812e-01   6.3479119e-01   8.8867802e-01   8.4954440e-01   5.1170806e-01  -6.6684521e-01  -4.4776594e-01   8.8676593e-01   1.8900669e-01  -9.3350465e-01  -3.4525435e-01  -9.9855904e-01  -1.9561860e-03  -3.8001352e-01  -6.3407810e-01  -9.1058897e-01  -4.7681629e-01  -7.3964321e-01  -1.8995674e-01  -2.1408109e-01  -9.5646635e-01  -7.9145407e-01   3.3110102e-01   7.1810776e-01  -3.7391874e-01   3.6082678e-01   5.9894893e-02  -2.5021747e-01   4.4065036e-01  -1.7481877e-01   3.0820825e-01  -4.3395951e-02   3.0058796e-01  -3.1526539e-01  -6.2660513e-01  -8.2436600e-01   5.2028431e-01  -7.8243146e-01  -5.0260057e-01   4.2899677e-01  -7.9176914e-01   2.7650453e-01  -1.0229284e-01   2.7463790e-01  -5.8159244e-01   1.2126559e-01   7.6160183e-01  -2.0103900e-01   7.9982572e-01  -1.0410705e-01  -9.1200875e-01   3.7760632e-01   5.4497324e-01   9.4117183e-01  -7.5268268e-02  -2.8746119e-01   8.5910341e-01   6.8204300e-01  -2.0089959e-01   5.8887737e-01   9.4790959e-01   5.6806697e-01  -8.2052357e-01  -5.8413579e-01   1.0504295e-01  -6.6454419e-01   4.0082208e-01   4.0741765e-02   2.1601059e-01   6.8333831e-01  -4.5890919e-01  -1.8122945e-01  -9.0118245e-01   2.6833777e-01   3.1410852e-01  -4.4104310e-01  -8.0264470e-01  -6.8740834e-01   8.0066723e-01  -3.2023410e-01  -1.4686187e-01  -2.4260417e-01  -8.6161668e-01  -3.7494514e-01  -9.2077551e-02  -7.1899547e-01  -7.2816129e-01   6.0839688e-01   1.1074191e-01   8.7649141e-01   7.4282479e-01  -4.5669599e-03   8.6202513e-01   9.3723927e-01  -4.2013495e-01   3.6649127e-01  -9.9908722e-01  -2.3464342e-01  -8.0736729e-01  -5.2022178e-01  -1.4070207e-01   1.2836006e-01  -3.9526244e-01   9.7622433e-01  -9.8816825e-02   9.0139908e-01  -6.7656355e-01   1.4319421e-01  -4.6971447e-01  -4.1013364e-01  -5.9142042e-01  -5.5975133e-01  -6.7338706e-01  -3.3964148e-01   8.4101068e-01  -5.2700915e-01  -3.0729965e-01  -9.7600674e-01   1.0364494e-01  -6.9210252e-01  -8.2489202e-01   5.6338888e-01   3.8829461e-01  -5.4479799e-01   7.3113891e-01   8.2975114e-01  -9.8365577e-01  -3.9584724e-02   9.9021804e-01  -6.3571340e-01  -6.2600393e-01  -9.3154812e-01  -2.9966334e-01   4.6204300e-01   4.2891700e-01   4.7697510e-01   4.1740100e-01   9.5839819e-01  -9.3489862e-01   1.7541145e-01  -3.0151461e-01  -4.9327989e-01   7.3023486e-01   4.8205242e-01  -2.9280194e-01  -8.2460462e-01  -9.6805802e-02   1.9907250e-01  -6.2047001e-01   8.9379139e-01   5.1704845e-01  -1.6883222e-01  -7.6122365e-01  -7.1133576e-01   9.7359249e-01   7.2874761e-01  -7.1563744e-01   8.7669897e-01   9.2348520e-01   2.1608427e-01   1.3693416e-01  -6.4669079e-01   8.4724421e-01   3.3283142e-01   1.7348877e-03  -5.2985904e-01   9.3862124e-01  -1.8662617e-01   6.9736682e-01  -7.6059278e-01   2.7567147e-01  -7.5515246e-01   9.3543194e-01   5.7685427e-01  -3.7264453e-01  -6.8089526e-01  -1.0644990e-02  -3.3095651e-01   1.1710223e-01   7.0410724e-01   2.3268696e-02   3.1829469e-01   2.6289140e-01   2.1387677e-01  -8.7030294e-01   8.6580293e-01  -2.7096523e-01  -6.3802266e-02   3.2113903e-02   8.5509818e-01  -4.6752290e-01  -5.4133975e-01  -5.0590744e-02  -9.8741857e-01  -8.7489834e-01   8.9407208e-01  -9.3780318e-03  -7.5841485e-01   4.6059003e-01   4.3344047e-01   1.7565236e-01   7.5809483e-01   3.4912141e-01  -8.7639187e-01   3.1893428e-01   8.3947136e-01   4.6135115e-04  -6.6394088e-01   5.0271835e-01   2.9055965e-01  -8.8584375e-01   7.7127078e-01   5.9907996e-01  -1.0664530e-01  -8.2716760e-01  -2.8447830e-01   7.5699112e-01   1.3120290e-01  -6.0138991e-01  -4.9137840e-02   2.7833447e-01  -3.8023481e-01   7.3216805e-01  -9.8941198e-01  -3.8559490e-01   7.1428023e-01  -8.0172105e-01  -6.9140669e-01   1.6943276e-01   3.5359010e-02   6.0798785e-01  -9.3963052e-02   2.4415878e-01   8.5454329e-01  -2.1288176e-01  -3.5051021e-01   6.3801758e-01  -7.7110468e-01   4.0169194e-01  -4.4205622e-01  -8.7734911e-01  -7.4504588e-01  -2.0403066e-01  -1.2141674e-01   9.1223769e-01   6.0122208e-01   9.1267755e-01  -8.0989407e-01   1.1588569e-01  -2.0517278e-01  -7.1458378e-01   3.2661034e-01  -4.2533297e-01   1.5522720e-01   6.2096993e-01   4.0831576e-01  -2.4435724e-01   9.9870069e-02  -4.9315156e-01  -8.4361946e-01   8.0610739e-01   2.2793274e-01  -3.0648292e-01   3.2314544e-01   7.5924650e-01   6.8272201e-01   2.4382193e-02  -8.7275794e-01  -8.5948179e-01  -7.5873304e-01  -1.1115202e-01   4.8539070e-01  -8.7878246e-01  -3.6505819e-01   1.8469915e-01  -3.8315540e-01   5.9016082e-01  -1.5596827e-01  -6.2419356e-01   7.9255843e-01   3.1601674e-01   5.3038587e-01   7.9415797e-01   8.4784801e-01   4.6828453e-01  -8.7613372e-01   4.4930071e-01  -9.0586387e-01   3.9815578e-01  -9.5782178e-01  -6.1267914e-01  -2.1552556e-01  -5.1492166e-02   5.1666113e-01  -7.1416955e-01  -9.0688940e-01   2.2603740e-01   5.7346892e-01   5.9763945e-02  -8.4366721e-01   9.8065414e-01  -8.5252629e-01   5.0272562e-01   7.7307455e-01   1.1843837e-01  -3.3314251e-01   9.7682964e-01   4.2675631e-01   7.6238928e-01  -7.3281338e-01  -6.6420473e-01   8.9357203e-02   3.2625732e-01   5.3772300e-01  -4.9826362e-01  -2.8260767e-01  -8.0112978e-01   6.7147668e-01  -5.7537229e-01   8.7934298e-01  -9.8170094e-01  -3.9739315e-01   4.3940427e-01   4.4015041e-01  -6.5825972e-01  -3.5416928e-01  -6.8108108e-01   6.5927434e-01  -4.2104833e-01  -5.5751068e-01   3.5088980e-01   2.5989090e-01   9.8826030e-01   8.5264107e-01   7.6430589e-01  -5.3846757e-01  -9.0204984e-01  -8.9555900e-01   6.4537566e-01  -6.7972924e-01  -1.0583429e-01  -6.2993877e-01  -2.7980881e-01  -7.7979750e-01   7.4153948e-01   2.8641188e-02  -3.4641004e-01  -4.6792470e-01   9.7598304e-01  -7.3207468e-01   4.0762345e-01  -3.4579343e-01  -2.6143303e-01  -3.0425335e-01   8.2851489e-01   9.9652581e-01   4.0188514e-01  -9.2912280e-01  -3.6352388e-02   5.0462512e-01  -1.8348151e-01   8.2891099e-01   1.0665263e-01   7.9673881e-01  -1.2825651e-01  -6.0445836e-01  -8.1076366e-01  -1.8662580e-01   4.2619239e-01  -4.3389271e-01  -3.4865119e-01  -1.2172918e-01   5.3631207e-01  -7.4830204e-01   9.0540291e-02   4.7555047e-02   5.7661273e-01   7.3180994e-01  -2.5311270e-01  -1.3610541e-02   4.8318389e-01   6.4508633e-01  -7.2960030e-01   7.0683267e-01   5.2410670e-01   3.5122231e-01  -1.6131319e-01  -3.7178097e-01  -2.1128961e-01  -1.8030826e-01  -8.3995813e-01   6.2944152e-01  -5.6655354e-01   3.3070352e-01  -4.1917553e-01   7.0815876e-01   5.6812490e-01  -6.4134500e-01  -2.4656861e-01   9.4964097e-01   7.1851171e-01  -1.9381958e-01   5.1219485e-01   1.4466891e-01   7.2785722e-01   4.7372313e-01   6.3565489e-01  -6.4083243e-01  -1.3587578e-01   7.3053026e-01  -4.1644819e-01   9.7044443e-01  -3.5010542e-01   4.7263986e-01  -9.2611173e-01  -9.2303887e-01   3.6716304e-01  -3.8340202e-01   2.5395670e-01   1.5033999e-01   9.6309919e-02   3.7781081e-01   8.0986248e-01  -3.0801817e-01  -6.0830399e-01  -2.8241086e-01  -2.7644350e-01   4.7640387e-01  -7.7307995e-01  -7.2802801e-01  -9.1409159e-01  -4.8267999e-01   8.2173128e-01   3.6231907e-01   9.0902052e-01   4.3743778e-03  -1.6135985e-02  -5.5310095e-01   2.4652123e-01   5.0826372e-01   2.8193146e-01   1.7108695e-01   8.7181708e-01  -4.8391201e-01  -7.3187492e-01   6.7942073e-01   4.3653153e-01   3.9209031e-01  -5.0076502e-01  -5.7418185e-01  -4.4456647e-01   5.4026022e-01   8.7391689e-02  -7.6580666e-01  -5.8664545e-01  -5.5001283e-01  -4.1846269e-01   7.4988920e-01   1.7530472e-01   6.3573927e-01  -2.8452704e-01   3.2877760e-01  -3.4443057e-01  -1.1936560e-01  -2.8339458e-02   5.6107299e-01  -1.3011533e-01  -2.7389433e-01  -5.1893298e-01   7.3966873e-01  -7.3749333e-01  -9.0776261e-02   6.0543746e-01   9.8980138e-01  -4.1539053e-01   2.6901017e-02   1.8438594e-01  -9.3995642e-02  -6.1694743e-01  -7.1953975e-01  -6.2883789e-01   9.4442131e-01  -1.8297886e-02   4.9079164e-01  -4.3847379e-02   3.1741657e-01   2.3493835e-01   6.6479292e-01   4.1810058e-01   1.6843196e-01  -8.6436919e-01  -1.4481554e-01   3.9445706e-01   7.8488730e-01  -4.4220835e-01  -4.5245668e-01   4.9613823e-01   5.4133586e-01  -5.8714173e-01  -3.5907928e-01   7.8706574e-01  -6.1536187e-01  -9.8940609e-01  -1.9070715e-01   7.9816519e-01   7.9482014e-01  -4.7889489e-01  -5.5339078e-01  -3.8318653e-01  -4.4956709e-01   2.6352622e-01   7.8889116e-02  -7.2132894e-01   1.7685868e-01   9.6078248e-01  -5.3185641e-01  -2.0837414e-02   8.7251474e-01  -4.4299350e-03   7.3057736e-01  -1.8138847e-02   8.4780891e-01  -8.5332867e-01   6.9018945e-01  -7.7099476e-01  -2.9607035e-01   7.9212918e-01   4.8502855e-01   5.0634006e-02   6.1379060e-01  -2.0680575e-01   1.2604942e-01  -7.8433350e-01   8.2171870e-01  -5.7203269e-01  -9.9190785e-01  -5.9446797e-01  -9.0000143e-01  -9.8693624e-01   9.2209377e-02  -9.0066148e-01   4.4343264e-01   7.1436011e-02  -4.9657193e-01   4.0200913e-01   7.0038024e-01   1.2165277e-01   5.2775526e-01  -4.4724602e-01  -7.8822934e-01  -9.9929185e-01  -4.0372206e-01   2.8179574e-01  -2.7275271e-01  -4.8366213e-01  -8.7258639e-01  -9.6814074e-01  -9.4654403e-01   8.7829725e-01  -9.4759385e-01  -9.7273291e-01   5.6170579e-01  -1.9441761e-01   4.0779395e-01  -7.8307617e-01  -5.2665238e-01   3.7855028e-02  -4.0129859e-01  -9.9803777e-01  -1.5431403e-01   4.3869627e-01   4.0993708e-01  -3.4596309e-01  -6.9799383e-01   5.1042361e-01  -2.3899638e-01   5.7428017e-01  -2.4761274e-01  -3.4025001e-01   3.8862534e-01   3.2654191e-02  -5.1087144e-01   6.8132305e-02  -6.0924257e-01  -8.7493044e-01  -4.9280591e-01  -8.2845676e-02   6.6894367e-01   6.6053441e-01   6.6728872e-01  -8.9349773e-01   6.2516028e-01   6.5171781e-01   9.3659339e-01   2.8550439e-01  -7.3242759e-01   3.8433447e-01   2.8594411e-01  -7.4864685e-02  -9.7925199e-01   3.6684165e-01   8.2239883e-01   4.5977422e-01  -6.6446071e-01  -3.1422907e-01  -4.1805908e-01   2.4779586e-01  -8.4550913e-01   4.9854240e-01   1.5859110e-01  -5.0550327e-01   4.9765100e-01   2.9109889e-01   9.8178351e-01   6.0183146e-01   8.8592225e-01  -5.8256273e-01   9.5368679e-01  -4.6922632e-01   9.1435534e-01  -3.5636664e-01   9.9265452e-01   1.8493596e-01  -5.5847566e-01  -1.6629339e-01   8.7047636e-01   8.3704093e-01  -5.3896855e-01   8.8838302e-01   8.9952378e-01  -8.7074557e-01  -9.4619261e-01   3.0112097e-01   3.2663584e-01   6.7265821e-01  -2.4158363e-01  -2.1489475e-01   1.3159423e-01   2.4769026e-01   7.4646195e-01   8.0350374e-01   3.0408848e-01  -9.1728599e-01  -5.1065106e-01  -9.1835781e-01   9.3383923e-01   7.1974489e-01  -7.8503382e-01   1.6202253e-01  -6.8737608e-01   6.2349485e-01   8.8890863e-01   9.7536424e-01  -7.3973252e-01   6.1066772e-01  -4.1317101e-01  -4.2049464e-01  -9.2394374e-01   7.1015488e-01   7.4570200e-01   6.1185904e-01  -3.0293526e-01  -7.1619434e-01  -6.3892517e-01   2.4556630e-01   6.2387435e-01   2.1698883e-01  -4.3523363e-01  -9.0697904e-01  -4.2536460e-01   8.8605344e-01   5.7541736e-01   7.5477682e-01  -1.5697616e-01  -3.7052302e-01  -8.2853786e-02   6.6381302e-01   3.3732134e-01   9.1853930e-01   6.3268676e-01   1.6633748e-01  -6.5908956e-01  -8.4710125e-01  -3.6343773e-01   9.8643199e-01  -3.6024214e-01   7.6909914e-01   3.8785040e-01   6.3160025e-01   1.4219461e-01   9.4591716e-01   5.7141618e-01   8.9080435e-01  -3.1420538e-01   7.9328050e-02   4.5828233e-01   2.3834459e-02  -6.3460562e-01  -4.7084059e-01   3.6851083e-01   2.1380659e-01   4.0831509e-01   5.3333512e-02   8.9514715e-01  -7.0583175e-01  -7.6927354e-01  -1.8733464e-01   4.3722178e-01   1.7330218e-02   7.6718190e-01  -2.6032368e-01   9.2982786e-03  -5.1306651e-01   3.4473314e-01  -2.8023476e-01   9.1615639e-01  -9.4232938e-01   8.6015665e-01   9.4181803e-01  -1.6306600e-01  -7.7448015e-01  -4.8673905e-01  -9.5349189e-01   2.2704864e-01  -6.0488124e-01  -4.5080102e-01  -2.4207756e-01   7.5872146e-01  -1.8246355e-01  -1.4683608e-01  -9.9381018e-01  -4.4162397e-01   6.7909781e-02   7.9129597e-01   5.6083430e-01  -5.3986475e-01  -4.1742659e-02  -1.3424698e-01  -9.8210490e-01  -5.3933626e-01  -1.5468899e-01  -9.2502261e-01   9.1945325e-02  -3.6058012e-01   5.9556834e-01  -2.8916240e-01  -8.2364812e-01  -3.0871932e-01  -6.3535497e-01  -3.8997922e-01   3.7758735e-01   6.2592631e-02   1.7876944e-01   8.1320747e-01  -9.0938843e-01  -3.1756203e-01   6.8366882e-01  -8.8494687e-01   8.1968408e-01  -7.5060771e-01  -8.0615131e-01   4.5696571e-01   9.7233029e-02  -2.8607359e-01  -3.1165405e-01  -3.8919711e-01   8.3914413e-01   2.5651884e-01  -4.8361797e-01  -3.8639018e-01  -7.9811213e-01  -4.2763331e-01   9.6705324e-01   6.4831896e-01  -4.1674755e-01   8.8554872e-01   5.9426525e-01  -2.7343933e-01   2.8414870e-01   4.9040736e-01  -8.0761481e-01  -6.6752191e-01   2.0967977e-01   3.6375589e-01  -7.6645211e-01   7.7298033e-01  -4.4959839e-01  -8.1091102e-01   5.6811957e-02  -4.5514303e-01   5.9899925e-01   5.1109982e-01   5.3145872e-01  -9.7763994e-01   2.3979094e-01  -3.8423931e-01  -7.8214677e-01   5.6728799e-01   6.8219660e-01   7.6055524e-01   8.8583870e-01   6.0562586e-01   8.0792462e-01  -9.9479848e-01  -1.3212400e-02  -1.7625142e-01   2.3512448e-01   1.1516572e-01   9.9416293e-02  -3.0300232e-01   6.1823007e-02   9.8842627e-01   2.2007571e-01   7.3607387e-01   3.3343886e-01   3.3765014e-01  -4.9536576e-01  -5.9655369e-01
  -3.0565146e-01  -4.1488104e-01   9.0143963e-01  -9.4427377e-01   8.5586259e-01  -6.7587762e-01   5.4092085e-01  -2.9973095e-01  -9.5269368e-01  -2.6269931e-02  -4.0349812e-01  -3.0050069e-01   9.9756773e-01  -1.7985279e-01   8.5495044e-01   5.7825937e-01  -3.0943734e-02   2.6895919e-01   2.7512843e-01  -6.3216917e-01  -6.3122948e-01  -9.6811943e-01   8.9017334e-02   9.3988180e-01   2.4501192e-01   9.8853209e-01   6.2880322e-01   8.1994251e-01  -2.7454454e-01   8.7490960e-01  -4.2988808e-01   7.2600300e-01   9.0158435e-01  -7.9075234e-01  -4.8895406e-01  -1.0849210e-01   9.8504817e-01   3.2485892e-01  -3.6126712e-01   1.7748854e-01   1.2301168e-01   3.4264950e-01   6.8547449e-01  -4.8382393e-01  -9.3387722e-01  -1.1867143e-01   5.5497086e-01  -3.6281649e-01  -4.8934093e-01   5.8220882e-01  -7.3897166e-01  -8.9633936e-01   3.6556542e-01   2.6497108e-01  -2.7949251e-01   2.2514173e-01   4.0739821e-02   8.0408713e-02   4.4935998e-01  -1.9013529e-01  -1.3951875e-02   3.5883535e-01  -3.8724816e-01   3.9270796e-01   5.2060515e-01  -4.3307336e-01  -9.3662521e-01  -5.7616595e-01  -1.6578484e-01  -8.9216796e-01  -1.6172869e-02  -1.0472426e-01  -6.9507427e-01  -5.7748488e-01   5.5805307e-01   7.9827105e-01   7.5445410e-01   8.1846605e-01  -1.5786701e-02   9.7484991e-01   2.3570648e-01   3.0237638e-01   9.3008006e-01  -1.2867551e-01   6.8757681e-02   5.5816178e-02   6.4575205e-01   5.7533961e-01   7.2906566e-01  -9.1824928e-01   4.7920435e-01  -1.9391134e-01   3.6433345e-01  -7.5506944e-02   6.4341851e-01  -3.3062452e-01   6.8113600e-01  -3.5750181e-01  -2.4810425e-01   3.7581328e-01  -9.6001987e-01   7.2441621e-01   8.8341568e-01   3.3498234e-01  -9.2327166e-01  -2.0164844e-01  -6.5339513e-01   4.6286385e-01   2.3453532e-01   9.3729279e-01   2.7648332e-01  -5.1408011e-01   5.4214386e-01  -2.0885490e-01   2.0956328e-01   9.8727180e-01   8.7501439e-01  -3.2957259e-01  -3.6746044e-01  -1.1958003e-01  -2.1186838e-01   1.8444526e-01   6.5499028e-01  -6.4368378e-02   4.9577232e-01   4.5868215e-01   6.4868382e-01   4.9549602e-01   1.3297785e-02  -7.2371608e-04   3.8361236e-01   7.2307905e-01   6.5270138e-01  -4.3315548e-01   3.0364108e-01   3.4269594e-02   9.7688693e-01   3.4442703e-01  -9.9479741e-01   2.2196733e-01   1.1349826e-02  -8.6932557e-01  -8.0913869e-01   3.1346454e-01  -5.7407627e-01  -8.4962055e-02   9.4025625e-01  -6.4397182e-01   7.5151162e-01  -3.4384716e-01  -7.3473548e-01  -5.9948247e-01   7.7676435e-01  -7.9191791e-01  -5.2241657e-01  -5.2524445e-01   8.4621262e-01  -1.4110217e-01   5.2233098e-01  -1.5953756e-01  -7.7960483e-01   5.2368495e-01   9.9485277e-01   4.1435619e-01  -8.6125084e-01  -3.4295347e-01  -3.4206085e-01   9.1511034e-01  -6.7364758e-01   8.3888560e-01   6.6189967e-01   4.5821600e-01   6.5676632e-01   8.5672382e-01  -6.3913064e-01   7.0972817e-01   2.3009916e-01   8.3471138e-01  -5.9786819e-01  -5.8516861e-01   8.7221783e-01   2.8322315e-01   5.4623803e-01  -5.4616167e-01   9.5971449e-01  -8.7887578e-01   1.8377964e-01  -2.7310206e-01   6.6651081e-01  -7.2603781e-01  -7.1155551e-01  -6.3455263e-01  -6.0614416e-03   1.7117328e-01  -6.4088395e-01  -4.5234703e-01  -4.7572144e-01  -4.5592337e-01  -6.3060877e-01   1.6310789e-01  -6.3976722e-01   1.7556465e-01  -3.8014954e-01   9.5375503e-01   7.1294978e-01   2.1958530e-01  -8.4284321e-01  -7.0934074e-01   2.8438666e-01   8.6588082e-01  -1.9311067e-02   2.6292199e-01   2.4211780e-01  -1.7727989e-01   4.8867741e-02  -8.7600960e-01  -9.4227916e-01  -6.1349054e-01   5.9159435e-01  -8.1419989e-01   6.8552117e-01  -2.7581198e-01   8.4548561e-01  -2.2517948e-01   9.0342798e-01  -1.6322910e-01   7.3887709e-01   2.1590270e-01  -2.5400004e-01   2.0302853e-01  -4.0377407e-01   1.5294430e-01  -2.5705607e-01  -5.3236422e-01  -9.8036873e-01  -9.4240201e-01  -1.2471536e-01  -5.8238372e-01  -5.1625049e-01  -1.5922807e-01  -1.1874424e-01  -7.2962712e-01   4.4722955e-01   1.9854576e-01   2.4347147e-01   8.4380717e-01   4.1142750e-01  -2.1160641e-01   2.4055763e-01  -2.5765049e-01   8.4578879e-01  -4.5223450e-01   3.3766956e-01   9.8115950e-01  -9.6631693e-02   8.6606843e-01   8.3295804e-01  -8.7933120e-01  -1.7953737e-01   2.0466250e-01   9.3540031e-01   7.4316268e-01  -8.7742370e-01  -6.9810160e-01  -8.9262886e-01  -7.4014428e-01  -1.8358454e-01   1.0084971e-01  -6.8721904e-01   2.5238633e-01   9.6964095e-01   5.8627278e-01  -4.0393140e-01  -8.8597965e-01  -8.0272810e-01   8.8664996e-01   8.5136993e-01  -6.9931485e-01   6.1807830e-01   3.2955927e-01  -1.2506891e-01   4.6048281e-01   5.1843251e-01  -8.4844915e-01   4.0372911e-01  -9.8415204e-01  -7.7309123e-01   3.1170847e-01  -7.5580645e-01  -1.6339308e-01  -6.8420391e-01  -2.4969850e-01   8.1796867e-01  -4.4084861e-01  -2.4280968e-01  -6.6584327e-01  -1.4695952e-01   6.8241238e-01  -5.8056615e-02  -4.6282669e-01  -2.8884266e-01   7.3943280e-01  -8.2527135e-01   8.4510559e-01   8.6112471e-01   7.1485798e-01   7.3875413e-01   2.2844624e-02   1.8498982e-01   7.5276019e-02   9.6318072e-01   9.5949364e-01  -7.6047233e-01  -8.0754854e-01   4.7469123e-01  -7.2314941e-01  -4.7131825e-02   8.8543335e-01  -4.4758780e-01   3.2745453e-01   2.4246664e-01   7.5376282e-01  -7.5440190e-01  -4.4560133e-01   5.8481132e-01  -4.4194398e-01  -3.2432346e-01   1.0356377e-01  -2.8851278e-01  -8.9017527e-01   4.5395427e-01   5.4284425e-01  -6.2887732e-01   1.6857977e-01   4.2231559e-01  -2.6504627e-01  -6.2877578e-01   5.1097393e-01  -4.4959568e-01  -4.1467262e-01  -5.7264824e-01  -2.5152508e-01   8.9784264e-01   7.0988534e-01   3.1977806e-01  -9.3005582e-01  -9.4221128e-01   7.4417963e-01  -5.0629606e-01   2.2316017e-01   2.6118510e-01   3.8713819e-01   5.9023146e-01  -4.1664697e-01   2.6511373e-01   2.0157633e-01   9.9499884e-01  -3.8843835e-01   2.7683085e-01   9.5694545e-01   8.3340748e-01   3.8461814e-01   5.6679609e-02   9.9194402e-01   1.0938631e-01  -7.7256304e-01   5.3646382e-01  -2.2392432e-01   2.3609759e-01   3.5544811e-01  -8.3589395e-02  -1.5977853e-01  -4.8160160e-01  -6.1146106e-01  -5.6058170e-01  -9.9087728e-01   1.0453807e-01  -2.3493392e-01  -6.7566324e-02   8.9117837e-01  -6.0334344e-01   8.2709956e-01   2.1158253e-01   5.3052123e-01  -2.8241347e-01  -8.3132342e-01  -2.3683560e-01   9.4213708e-01  -6.8420672e-01   5.9544635e-01  -7.6345213e-01  -5.5042044e-01  -4.5201157e-01   3.7626463e-01  -4.4979348e-01   2.3173835e-01  -4.4684820e-01  -3.1386028e-01  -2.2834812e-01  -8.6275892e-01   1.1452487e-01   5.0541590e-02  -8.6936164e-01   1.6158304e-01  -9.6606223e-01  -3.4978601e-01  -5.1683799e-01   5.9294690e-01  -5.1250237e-01   9.3945088e-01  -1.6384924e-01   4.4316413e-01  -9.6102884e-01  -5.3361965e-01   5.4748461e-01   1.6689404e-01  -5.5362936e-01  -9.1135409e-01   6.9603037e-01   2.6845061e-01   7.9894158e-01  -2.5082177e-01   6.7896649e-01  -2.8775644e-01  -6.7820048e-01   7.7898899e-01  -6.6015513e-01  -6.4489102e-01   4.0150618e-01   3.3955834e-01   7.8758317e-01   9.2521594e-01   7.9324248e-01  -1.6770322e-01  -2.5884600e-01  -5.5929724e-01  -5.3430499e-01  -5.3247911e-01   2.7553881e-01   8.0725205e-01  -7.0845665e-01  -5.6974670e-01   1.0896739e-01   6.3780134e-01   9.7251121e-01   4.3849996e-01  -1.5221406e-03   2.3074843e-01   8.6311313e-01   8.3139727e-01   8.5188254e-01   4.3731735e-01   9.9313450e-01  -4.9439300e-01   1.3225139e-01  -4.1882628e-01   5.1911268e-01  -9.9594022e-01   3.2448567e-01   8.2411943e-01  -6.1559907e-01   4.4800527e-01   1.2038927e-01  -7.6656300e-01   3.6104682e-01  -8.8123656e-01  -3.3728957e-01   3.1919750e-02  -2.8932039e-01   2.9584193e-01   8.4112603e-01   9.3443565e-02  -6.7604138e-01   5.3546533e-01   9.0567412e-01   5.0709114e-01   5.6849289e-01   9.8954158e-01   4.8636985e-01   5.4572974e-01   6.3369384e-01  -3.0599387e-02  -5.1085405e-01  -8.4211689e-01  -4.2091829e-01   1.1149326e-01  -1.8674573e-01   6.4693626e-01  -4.2195011e-01   8.6471854e-02   6.6773518e-01   6.3502457e-01  -1.5706192e-02   1.1050637e-01   1.2259938e-01  -1.9961262e-01  -9.7789414e-01   2.2766620e-01  -2.0189620e-01   2.6895579e-01   8.6214609e-01  -3.3269052e-01  -8.2506841e-01  -4.6793592e-01   8.7886441e-01  -1.9239507e-01   8.6605412e-01   1.5331200e-01   4.0558578e-01  -4.2964995e-01  -4.5108304e-01  -9.4150166e-01   1.1275790e-01   5.1806717e-01   6.5444316e-01   6.5594380e-01  -3.0326103e-01   2.4722745e-01  -7.1281548e-01  -8.2809134e-01  -4.8686113e-01  -6.5445709e-01   5.6885809e-01  -6.8983276e-01  -3.5898315e-01   6.5013231e-01  -1.5568647e-01  -1.1232656e-01  -9.6741649e-01   4.6943948e-01  -3.4020565e-02   4.1546369e-01   9.6083168e-01   7.8175068e-01  -3.4789603e-01   4.6650757e-02   8.4814399e-01   3.1773116e-01   3.2865677e-01  -6.5027223e-01   6.8740524e-01  -1.3279212e-02  -2.4295023e-02   7.2222805e-01  -4.2384570e-01  -2.5581523e-01  -1.5960348e-01   9.5987660e-01  -7.8930567e-01   7.0646900e-01   5.5264460e-01  -1.8027624e-01  -8.0895102e-01   7.2473243e-01  -9.3121281e-01  -4.0935758e-01   1.7052344e-01   2.6601328e-02  -7.6748760e-01  -4.8757003e-02   3.5790832e-01   9.0458973e-01   1.3781896e-01   9.1566940e-01   5.4798992e-01  -8.7217529e-01  -3.6877577e-02  -2.6743437e-01   1.1690297e-01   6.5667375e-01   5.3024041e-01  -9.1521815e-01  -8.6932634e-01   9.4591631e-01   8.2107968e-01   8.1680937e-01   6.9336548e-01   6.7823670e-01  -6.3769508e-01  -9.1283947e-01   7.3161277e-01   9.2942109e-01   6.4635885e-01   5.7584093e-01   5.9561700e-01   9.1308147e-01  -1.3007378e-01  -4.3080492e-01  -3.8532887e-01   4.6674953e-01   1.8873253e-01  -4.8624804e-02  -4.4453425e-03  -8.0256459e-01  -5.8070706e-02   8.2739658e-01  -2.4517286e-02  -2.1365452e-01   1.2731935e-01   7.4402528e-01  -6.8771058e-01  -1.2829409e-01  -4.1548897e-02  -7.3232323e-02   6.0226390e-01  -5.6916564e-01  -2.0994215e-01  -1.9893171e-02  -6.9310750e-01   7.4504335e-01   9.0365293e-01   5.1108222e-02  -6.0369991e-01  -3.2899901e-01  -3.8028318e-01  -7.0348990e-01   3.6881433e-01   8.5561159e-01   6.7519970e-01  -7.5181729e-01  -5.1290071e-01  -5.1749661e-01  -3.2028752e-01   1.6326120e-01   4.9071689e-01  -7.1854971e-01   9.6381622e-01   6.2910846e-01  -6.9754442e-01  -9.2971187e-01   3.6350005e-01  -6.8908051e-01  -8.0036877e-01  -9.5019737e-02  -5.0167571e-01  -7.7146231e-01   2.0446065e-01   9.0894034e-02   3.8158057e-01   8.4142531e-01   4.3583832e-01   1.1334462e-01  -8.1502734e-01   2.6992401e-01  -5.3463271e-01   9.8823630e-01   5.9409461e-01  -5.7329047e-02   2.2150998e-01  -5.3891519e-01  -7.0004460e-02  -2.7465580e-01   8.4318918e-01  -2.8169150e-01   6.0088709e-01  -6.9798007e-01   8.2073951e-02   8.0645029e-01  -6.9505691e-01   1.4051025e-01  -2.2626995e-01   4.1555530e-01  -6.1089423e-01  -5.6423543e-02  -4.3430714e-01   7.4476708e-01   8.3875801e-01  -6.8770979e-01   3.9270842e-01  -8.5607501e-01  -7.7672524e-01   1.1239020e-01  -6.2623735e-01  -6.4558750e-01   9.9002216e-01  -3.7981663e-02  -9.7887557e-01   2.1853076e-01  -7.2384455e-01  -7.5949426e-02   6.2985240e-01  -5.7526829e-01   8.7800564e-01   4.1966693e-01   5.9953949e-01  -6.4082974e-01   5.1115211e-01   1.0984016e-01   3.4228370e-01   9.1397064e-01   8.3228771e-01  -2.8966255e-01   8.7754363e-01  -1.4961377e-02   2.2145617e-01  -2.3580967e-01   7.1637681e-01  -6.2876561e-01   4.7406401e-01   8.4595774e-01  -9.2776664e-01  -9.7963849e-02  -6.2140791e-01   5.9840601e-01   3.0342034e-01  -1.6802906e-01   2.2719266e-01   8.7835434e-01  -1.5364145e-01  -5.6426232e-01  -5.2323092e-01  -8.4136077e-01  -3.3511481e-01   1.0669055e-01   9.8222894e-01   7.4470344e-01   5.6207746e-01   3.0822807e-01  -8.9294092e-01  -3.5519732e-01  -4.9539626e-01   8.6490538e-01  -3.8601289e-01   3.1917065e-01   6.0854943e-01   4.7818687e-01  -2.8650390e-01  -7.4789956e-01   8.1777184e-01   8.2270365e-02   7.3200441e-01  -4.3631599e-01  -3.9025731e-01  -4.7455617e-01  -4.4584070e-01   6.9071721e-01   7.5268414e-01  -2.4974404e-02   6.0904269e-01   8.8231959e-01  -4.3783276e-01  -6.8178069e-01   7.0888328e-01   5.0704477e-01   3.2676738e-01   8.1231726e-01   4.5129237e-01   1.2455762e-01   2.8315500e-01  -4.0358866e-01   2.2660560e-02   7.3060376e-01   3.7262882e-01  -8.2520400e-01   2.4669323e-01  -1.3471225e-01   1.1435845e-01   2.3235725e-01  -8.5184715e-01  -5.0890862e-01  -3.0745083e-01  -7.5056880e-01  -4.2490563e-02   6.7345368e-01   5.1087968e-01  -4.8057673e-01  -4.8540397e-01  -7.9539658e-01   5.3631422e-01   4.4990268e-02   8.1681180e-01   8.2512082e-01  -6.1542414e-01  -4.4634442e-01   3.7859430e-01  -2.4963242e-01   1.1583117e-01   4.8593093e-01  -7.8122376e-01   5.5131625e-01  -5.4199657e-01   2.4293357e-01  -1.7761261e-01  -4.4816207e-01  -8.7704572e-01   3.1608349e-01   2.5574337e-01   4.3629425e-01   1.7378071e-01  -7.8308497e-01  -1.7337091e-01   4.2711381e-01   5.2902023e-01   6.7054658e-01   7.5457339e-01   5.6876529e-01   2.2730999e-01   4.7566783e-01   5.1311271e-01  -1.8873528e-01   9.3717670e-02   2.0429895e-01  -1.9020895e-02  -9.5898762e-01  -3.9521939e-01   7.2610503e-01   7.6337869e-01  -6.6046675e-01  -3.5145713e-01  -8.6527766e-01  -7.6228480e-01  -1.9340990e-01   1.3372935e-01  -5.1477273e-01  -6.1108387e-02   1.4026320e-01   3.2167430e-01   7.3964028e-01   5.0022751e-02  -1.1302030e-01   4.3518044e-01  -2.1251838e-02   4.7338895e-01  -5.9362018e-01   3.0900635e-01   2.3969369e-01   3.2576511e-01  -9.3156726e-01   8.2560175e-01   6.2813097e-01  -3.3055136e-01  -3.3547030e-02  -8.2004743e-01   5.3183456e-01   6.2417034e-01   8.7456123e-01  -3.8931077e-01   2.0070814e-01  -4.1037466e-01  -3.0406002e-01  -1.1724343e-01  -8.6505803e-01   6.3448488e-02   4.0806046e-02   5.9602049e-01   5.0227512e-01   2.8689461e-01  -4.4850983e-01  -8.5021447e-01  -6.9114986e-02   5.1212003e-02  -6.7829484e-02  -1.7214296e-01   9.6664550e-01   2.1063102e-01   1.1282707e-01   3.2329351e-01  -4.7423034e-01  -7.7146622e-01  -5.7784038e-01  -7.6826857e-02  -4.5020417e-02  -4.1360989e-01   4.5477733e-01   4.6446298e-03  -6.2916876e-01   1.8820681e-01  -1.0892846e-02   1.6657766e-01  -5.0018969e-02  -6.1259007e-02   6.1580935e-01  -6.4747398e-01  -4.7324310e-02  -7.5684002e-01   3.1063952e-01   8.7416384e-01   9.4228792e-01   6.7572608e-01  -4.3898363e-01   1.3770840e-02  -6.7593691e-01  -8.3738389e-01  -2.9323318e-02   4.3181824e-01  -4.4125689e-02   4.5723377e-01  -8.1537346e-01  -7.9913247e-01  -1.8976812e-01  -6.5880657e-01   6.2409727e-01  -3.6607148e-01   5.1081195e-01   5.4196136e-01  -2.5483704e-01   7.7619226e-01   8.0619789e-01  -3.7743913e-02   3.8651128e-01   4.7376766e-01  -3.3017916e-01  -9.0168997e-03   7.2636808e-01  -6.4660314e-01   7.3386172e-01  -2.3542620e-01   5.1380390e-01   7.1405907e-01   6.8581651e-01   6.5566185e-01   4.3300761e-01  -2.0413348e-02  -1.3212208e-01   6.3506970e-01  -6.6431131e-01   8.1476740e-01   2.7316739e-01  -7.9170690e-01   2.7641035e-01  -7.1039600e-01   7.5205688e-04   9.5483592e-01  -9.3943217e-01   7.0059423e-01   9.2969549e-01   2.2847671e-01  -5.0609705e-02   5.5150107e-01   7.4607031e-01  -1.8949944e-01   8.5180368e-01  -9.9952909e-02   2.8419304e-01  -3.9698665e-01  -3.6301396e-01   1.3196070e-02  -7.5994683e-01  -1.8893394e-01  -5.1434032e-01  -1.5345163e-01  -3.6440076e-01  -5.3870523e-01   7.1511361e-01   7.9512456e-01  -5.8739067e-01   8.9947932e-01   4.4361504e-01  -5.9891341e-01   6.7145326e-01   3.3775979e-02   7.2874611e-02   4.1675537e-01  -6.3647384e-01  -9.1108015e-01   2.8194051e-01  -4.7402754e-01  -1.3769398e-01  -5.3552677e-01  -6.4223878e-01   6.6859710e-01  -3.3560013e-01  -2.4303489e-01   6.3120236e-01   4.9407211e-01   3.3963194e-01   3.9637621e-01  -9.7037298e-01   6.3725721e-01  -8.1206913e-01   6.6646748e-02   9.0309236e-01   2.9117993e-01  -5.2761904e-01  -5.8232083e-03  -6.8073880e-01  -6.7590207e-01  -7.0457940e-01   4.7520571e-01   4.9085526e-02   9.1973595e-01   3.4504786e-02   8.8665274e-01  -5.0488876e-01   9.5119420e-01   2.3084741e-01   9.9883740e-01  -1.6886996e-01  -3.5272085e-02   3.2081894e-02   8.6298242e-01   9.2648356e-01  -7.7173843e-01  -3.6855718e-01  -9.7782669e-01   3.9673584e-01  -4.7530328e-01   6.9820698e-01  -4.3585171e-01   6.2420690e-02
  -3.2771908e-01   7.9391131e-01   6.5381093e-01  -6.1070894e-02   7.1551025e-01  -4.7155115e-01   6.1959290e-01   7.3381189e-01  -7.2271590e-01   7.7930276e-01  -6.4146041e-01  -6.3981210e-02   1.8805633e-01   8.7925335e-01   2.0736005e-01  -5.4296227e-01  -1.1931229e-01   2.3083838e-01  -2.8705520e-01   8.2507549e-02  -5.3942081e-01  -1.9262854e-02  -2.4435017e-01  -9.5288789e-01   1.5655489e-01   7.1977509e-01   7.2224872e-01   8.6870584e-01  -4.3343909e-01   8.2576964e-01  -9.2909598e-01  -5.3278083e-01  -3.9769048e-02  -1.8630017e-01  -6.3085373e-01   1.0674212e-01   8.3005092e-01  -2.4039929e-01   2.9656150e-01  -5.4899713e-01  -3.4138197e-01   5.7486048e-01  -5.9228211e-01   9.6715667e-01   2.7558156e-01   6.6632192e-01   7.9502110e-01  -1.2532648e-01   8.9027615e-01   5.9780708e-01  -5.0526138e-01   7.3524157e-01   7.7157004e-01   9.7201342e-01  -8.5587772e-01  -6.1304868e-01   8.9466219e-01   8.5605018e-02  -8.0089914e-01   7.4185251e-01   9.8950611e-01  -9.3694618e-01  -4.3454029e-01   1.2685248e-01  -5.6269066e-01  -8.3491849e-01   6.2927849e-01  -6.1624193e-01   6.4405901e-01  -1.4648952e-01  -8.1087357e-01  -4.1760138e-01  -8.8717503e-01   7.6801577e-01  -2.1869641e-01   5.4708241e-01   8.8787229e-01  -4.3519149e-01  -4.2088608e-01  -7.1659291e-01   3.5298055e-01   8.3468530e-03   5.8808683e-01  -5.8621302e-01   1.3439478e-01   7.7560912e-01  -8.2771726e-01  -7.2634357e-01  -6.5849581e-01   9.0287474e-01   7.7128806e-01  -5.5315328e-01   2.9112988e-01   6.4097531e-01  -4.1996352e-01  -1.0069051e-01  -6.8381187e-01   5.3317086e-01   8.2137902e-01  -8.6416947e-01  -6.6415917e-01  -8.2650169e-02   2.2887390e-01  -1.5913365e-01  -7.9571605e-01   5.6599622e-01  -8.2078774e-01   5.2147034e-01   1.0533951e-01  -9.3381770e-01  -9.3117887e-01   7.0451552e-01  -8.8577461e-01  -5.5407733e-01   5.1125824e-01  -8.6410095e-01   7.8583667e-01   1.9544780e-01   1.8078227e-01  -2.6328446e-01   6.1506575e-01  -8.9525305e-01  -6.8582768e-01   1.6065405e-01  -5.8269805e-01   6.8106979e-01  -8.4285873e-01  -3.8867329e-01  -7.5660792e-01  -4.5477899e-01   7.5186886e-01  -5.4879876e-01  -8.9017059e-01  -8.2975192e-01   4.6704696e-01   3.4787481e-01  -2.2544740e-01  -1.6021658e-01  -4.2057073e-01   4.3072016e-01  -1.7745460e-01  -1.0562126e-01  -7.9159798e-02  -6.9201759e-01  -3.6562354e-01  -2.9338562e-01   3.9004796e-01   3.9079080e-01  -1.5495354e-01  -7.1588607e-01   2.7461896e-01   3.6185307e-01  -7.0612911e-01   5.2528087e-01   4.9642632e-02   7.5831321e-01  -4.9475596e-01  -6.4212399e-01  -5.4690079e-01   2.6689433e-01   6.8655456e-01   9.7185278e-01   8.9982939e-01   1.8571917e-01   6.7648250e-01  -2.1759239e-01  -6.5899817e-01  -2.4055746e-01  -8.8362377e-01  -7.6649202e-01   5.4166060e-01   5.9472163e-01  -1.7464609e-01  -1.5128154e-01  -6.8364202e-01   5.7721331e-01  -8.8978562e-01   1.3290823e-01   2.8362726e-01   6.3644060e-01   4.8592183e-01   1.3275669e-01   6.5399075e-01  -3.5434799e-01  -4.5838028e-01   4.3787545e-01   4.5970348e-01  -6.8129252e-01  -9.9845595e-01  -7.8753736e-01  -5.1186746e-01  -4.6816157e-01   3.6403236e-01  -2.9868458e-01  -1.1583813e-01  -5.0181470e-01   1.7438291e-01  -6.3438252e-01  -2.3514764e-01  -4.6380004e-01  -4.6183858e-01   8.8989518e-01  -2.9896657e-02  -7.6993327e-01   5.8985130e-01  -3.6186812e-01  -5.1615743e-01  -4.4619888e-01   3.6136757e-01   4.1202493e-01  -9.1636302e-02  -9.3864854e-01  -3.4903565e-01   5.3469928e-01  -8.5662748e-01   1.9430492e-02  -4.9755945e-01  -1.6779672e-01  -3.5095310e-01   9.1444969e-01  -3.2743404e-01  -3.5681987e-01  -2.3931543e-01   2.7675613e-02  -4.5533760e-01  -2.7124367e-01   8.4238349e-01  -2.1187037e-01  -4.4700210e-01   4.3893399e-02  -3.7019559e-01  -5.5556335e-01  -6.2467807e-01  -4.6749673e-01   6.2830104e-01  -2.4253517e-01  -8.4062436e-01  -4.5387568e-01   3.5287970e-02   6.8050086e-01   5.0825412e-01  -6.6537788e-01   7.6411040e-01   8.2359784e-03  -6.6628771e-01  -2.8283186e-03   1.9500351e-01   4.6988745e-01  -2.4431700e-01   4.5384295e-01   1.8964932e-01   1.1105866e-01  -1.9354130e-01   5.6763830e-01   6.2012752e-01  -5.4423519e-01  -3.3266555e-01  -2.4930615e-01  -7.6018012e-01  -7.3805707e-02   5.1516181e-01  -4.0348473e-01   4.6975697e-01   5.4760606e-01   9.9994916e-01   9.3093857e-01  -2.7583212e-01   7.3051836e-01  -4.4264420e-01   7.6860963e-01   5.1560468e-01   3.6660526e-01  -3.1367187e-01  -8.3167783e-01   8.5548515e-01   7.6409180e-01  -4.1075978e-01   7.8162109e-01   8.5049426e-01  -2.5382774e-01  -9.6725078e-01  -7.1932697e-01   1.7157787e-01  -4.7939337e-01   8.8831472e-01  -6.7825668e-01   8.0471221e-01  -4.8691415e-02   7.5371253e-01  -2.8914268e-01   5.3179351e-01   4.0298970e-01  -6.1380599e-01   8.4528292e-02   8.0521054e-01  -6.7959103e-01  -9.5817335e-02   1.3940165e-01   5.6216687e-01  -7.7099494e-01   7.4204309e-01   7.8490423e-01   9.9940073e-02  -4.8616318e-01  -1.2757135e-01   8.5715705e-01   8.7146618e-01  -2.5851709e-01  -8.9311822e-01  -8.9515309e-01  -9.4864836e-01   5.8221331e-02   9.3074758e-01  -1.2590170e-01   2.1065057e-01   2.6345116e-01  -7.3191892e-01   9.4832418e-01  -7.6751069e-01   1.6381695e-01  -6.9537803e-01  -8.0450203e-01   2.1822635e-01   2.1211224e-01  -6.6754101e-01  -7.4771325e-01  -6.2862816e-01  -8.7972819e-01  -7.5374197e-03  -6.3566811e-01  -4.2776832e-01  -5.6318990e-01  -4.3810890e-01   6.3777341e-01   4.8564103e-01   8.8469469e-01   9.0514315e-01   7.7595588e-01  -9.0942858e-01   1.6961145e-01   4.1579675e-01  -9.8922685e-01   7.7294281e-01  -1.0522921e-01  -9.7200894e-01   5.6402110e-01   2.5080971e-01  -8.4856410e-01   3.0874373e-01   3.8206242e-01   3.7758860e-01  -7.4397073e-02   1.5471191e-01   3.4187870e-01   9.0735741e-01   3.3618075e-01  -5.7918049e-01  -9.8556725e-01  -5.3596221e-01  -1.0221409e-01   7.8883000e-01  -5.7758979e-01   1.8043962e-01   2.4587269e-01   1.0277932e-01  -8.8256854e-01  -7.5293916e-01   2.5929359e-01  -1.1362391e-01   2.6697553e-01  -5.0475213e-01  -2.2042302e-01  -3.0818764e-01  -7.8390574e-01  -2.6266263e-01  -7.4776615e-01   3.5996200e-02  -4.0063959e-01   1.5272235e-02   7.4244187e-01   5.5471772e-01  -9.6188568e-01   5.2136193e-01  -2.9115576e-01  -3.7980722e-01   7.9683087e-02  -5.6038943e-01  -1.7527446e-01  -3.4988022e-01  -4.3139806e-01   2.4140607e-01  -7.5435001e-01   4.2934817e-01   7.5469366e-01   4.8701695e-02   3.6921882e-01   7.3768122e-01   3.7104214e-01  -2.5822847e-02  -9.1861404e-01  -2.5479098e-01   2.3837700e-01  -8.7011218e-01   3.3731826e-01   5.7730461e-01  -7.4503378e-01  -4.5614334e-01  -3.3527350e-01  -3.7642234e-01   3.9107861e-01   2.1115087e-01  -1.2732782e-01  -8.7252241e-01   2.7273962e-01   8.1090346e-01   1.4810711e-01   7.4393534e-01   3.6525021e-01   7.2035402e-01  -5.7107167e-01   4.8336752e-01   8.5117973e-01  -7.2357137e-01   6.3819894e-01  -6.3865061e-01  -7.3678365e-01  -1.5903995e-01  -9.9064003e-01   1.9478552e-02   6.0239810e-01  -3.2238051e-01  -8.3899337e-01  -6.6186336e-01  -7.6193018e-01  -1.5470212e-02   9.9967538e-01   9.0065829e-01  -1.8262734e-01  -2.7707546e-01  -7.1632785e-01  -2.0783663e-01  -8.3359765e-01   2.3035541e-01   1.7203835e-01  -5.7679364e-01   8.4691269e-01  -9.4259719e-01   3.5790256e-01   1.7003216e-01   4.9599852e-01   7.8989891e-01   9.8863444e-01  -1.8218412e-01  -9.5738128e-01  -6.9439337e-04  -3.8125821e-01  -2.6733642e-01  -2.7593084e-01   1.0913799e-01  -4.0850082e-01   8.1155225e-01   3.9702202e-01   4.6552129e-01   8.8834693e-01  -2.2820888e-01   9.0931595e-01   9.7340576e-01   5.8515262e-01  -6.3563030e-01  -5.9319862e-01  -1.7726723e-01  -9.9565626e-01  -8.8846344e-01  -5.1098083e-01   3.2835000e-01  -7.7589223e-01  -3.1390522e-01   6.9756145e-01  -6.1049840e-01  -7.5105423e-01   4.5263029e-01   8.0084164e-01  -4.1536341e-01   4.4771053e-01   5.0682777e-01  -6.5511884e-01  -8.1984475e-01  -5.9655761e-01   2.8783775e-01  -6.5757625e-01   4.8307734e-02  -8.1419508e-01  -4.2329525e-01  -5.6378347e-01  -3.0029478e-01   9.2029227e-01  -9.1642344e-01  -8.7732538e-01  -6.0935571e-01  -4.9915359e-02  -6.6961157e-01  -6.3575764e-01  -7.3416833e-01  -4.6637001e-01  -5.1499135e-01  -6.3272229e-01  -4.3284313e-01   9.6165309e-01  -1.9791995e-01   7.7609673e-01   1.4987437e-01   5.8027510e-01  -5.9908101e-01  -3.6061935e-01  -2.0206559e-02   3.1978914e-01   7.9713193e-01   7.5755998e-01  -9.6632393e-01   5.6009751e-01   4.7222827e-01   3.5242395e-01  -6.6275791e-01   3.3557525e-01   4.7394066e-01  -5.1681388e-01  -3.8381805e-01  -4.1723104e-01  -8.3119734e-01   7.7784187e-01   5.9497626e-01  -8.7083240e-01  -7.8191724e-02   7.0214544e-01   5.3591875e-02  -4.1440900e-01  -6.1662941e-01  -6.6909181e-01   9.0661900e-01  -2.2206239e-01   7.9751358e-01  -5.2239141e-01   8.2960639e-01  -3.5850308e-01  -3.4632728e-02  -9.9341424e-01   2.7215652e-01  -5.3408274e-01  -6.3054246e-01  -5.7100221e-01   4.8060338e-01   7.9044778e-02   8.8231979e-01   9.0367667e-01  -2.8789190e-01  -1.9963500e-01   7.6796935e-01   7.5160029e-01  -9.1452738e-01   9.7954284e-01   2.1976816e-01   1.5424561e-01  -3.9660966e-01   2.2847364e-01   3.4648016e-01   3.3719016e-01  -4.7417327e-01  -7.4086516e-03   2.4476366e-01   7.5494767e-01   4.8448768e-01   8.5473238e-01   5.3439490e-01   8.2344970e-01  -4.6667817e-01   3.3537973e-01   4.0141098e-01  -9.5110175e-01   7.5147297e-01   9.1341280e-01   6.4059653e-01   4.4859500e-01   1.8577772e-01   3.0472191e-01   2.3748820e-01   3.9175934e-01  -9.8657302e-02  -9.0439856e-01  -5.5611037e-01  -6.3533601e-01  -6.0718505e-01   2.4031006e-01  -9.3809477e-01  -6.7325371e-01  -8.3634804e-01   8.7486871e-02   1.7422477e-01   1.9166177e-01  -2.7136112e-01  -3.0875875e-01  -7.2318236e-01   1.1108181e-01   5.1132019e-01   7.5332137e-01   9.2115189e-01   7.1909979e-01   4.2161907e-02  -5.7994727e-01   9.9766941e-01   7.1465027e-01   5.2671922e-01   3.9803992e-01  -4.2102311e-01   2.3255450e-01   2.0508854e-01  -5.3844929e-01  -3.0674208e-02   1.7042955e-02   1.1557297e-01  -1.4113491e-01   8.8734061e-01   2.4839323e-01  -7.3747369e-01   3.1176962e-01  -4.1428621e-01  -7.8859126e-01  -4.4997169e-01   2.4259432e-01  -3.0214399e-01  -3.0669734e-01  -1.1393011e-02   1.6129361e-01  -1.9146079e-03  -1.0301110e-01  -3.6039827e-02   6.8020945e-01  -7.2634972e-01  -2.9293799e-01  -4.3409050e-01   1.8312760e-01   5.5180897e-01  -6.0229760e-01  -7.9715843e-02  -6.0666767e-01   4.9897690e-01   4.7883931e-01   6.8301594e-01   3.1160445e-01  -3.0376748e-02  -8.8535366e-01  -1.5501133e-01  -3.9759134e-01   1.5721334e-01  -5.3022804e-01  -1.0334887e-01   5.9314377e-01   8.5534544e-01   2.8044853e-01   2.6089063e-01  -8.0409374e-01  -8.5577042e-01  -7.8889134e-01  -5.2457091e-01  -7.6740727e-02  -2.1421484e-01  -1.7325376e-01   7.5374566e-01   9.8700875e-01  -9.5220941e-01  -7.4115299e-01  -8.4066161e-01  -7.7280127e-01  -2.9342100e-01   7.2104610e-01  -4.6194680e-01  -6.3628011e-01   4.8632732e-01  -2.5436862e-01   6.6181380e-01   1.2000978e-01  -1.7731899e-01  -9.6455346e-01  -7.7250007e-01  -7.9200979e-01   8.3195520e-01   7.7762299e-01  -5.6447359e-01   5.0352951e-01   9.3421584e-01  -8.8271969e-01  -4.7374850e-01   5.2605189e-01  -5.1704180e-01   5.0212717e-01   9.6890688e-01  -2.6902224e-01  -9.1310507e-01   5.3337743e-01   7.2363707e-01   7.0338548e-01   1.8167428e-01   6.9584563e-01  -4.5154226e-01  -7.2585654e-01  -9.3639809e-01  -5.7702200e-01  -4.4054991e-02  -5.5761353e-02   2.1738780e-01   9.6777828e-01  -5.0815315e-01   5.5421899e-01   2.1033253e-01   5.2938065e-01   9.3305293e-01   4.5596568e-02   8.6453209e-01   9.6364421e-01   1.4606432e-01   1.8225914e-01  -2.7596962e-01  -9.1700543e-01  -9.3691711e-01  -3.5830109e-01   4.1387818e-01   2.1877824e-01   8.6659726e-01  -7.2218175e-01   1.2624914e-01  -4.5928808e-01   8.9461346e-02  -5.2952331e-01  -4.4288095e-01  -7.0817878e-01  -6.0557445e-01  -6.9947505e-01  -9.6548997e-01  -9.6548616e-01   7.7611376e-01  -1.8833805e-01  -7.0334304e-01   8.5791544e-01  -1.6189684e-01   9.7331122e-01  -8.6980483e-02  -4.5583528e-01   6.8921600e-01  -2.4671718e-01  -4.1019595e-01   9.9112903e-01   9.2444344e-01  -8.7781082e-01  -1.5436798e-01   3.4369792e-01   7.2342795e-02   9.8004853e-01   1.3339512e-01  -8.2175024e-01  -8.6081365e-01  -2.0159464e-01  -4.0948987e-01   7.8667982e-01   4.4547210e-01   9.5466732e-01   6.5811735e-02  -2.3301511e-01  -4.4638177e-02  -2.6896950e-01   8.9327893e-01   9.3314881e-01  -6.3250478e-01  -4.9353307e-01   2.6389662e-01   2.1265460e-01  -2.3067703e-01   1.7036610e-01  -7.1579598e-01  -4.9183150e-01  -5.9780533e-01  -3.5991034e-02   8.8550118e-01   6.8904761e-01  -5.7415107e-01  -5.8885570e-01  -8.3386493e-01  -3.3684321e-01  -4.6084333e-01  -4.9530736e-01   6.2653063e-01  -9.1633813e-01  -1.4085552e-01   3.0623615e-01   7.9698790e-01  -9.4136879e-01  -4.8272987e-01   1.7694204e-01  -4.7794581e-01  -1.5099805e-01  -1.8466784e-01   9.1264096e-01  -7.1567123e-01  -5.5565876e-01   5.9804089e-02  -7.1896566e-02   3.3041836e-01   6.6234264e-01  -6.0051888e-01  -6.5325324e-01  -5.3214113e-01   4.8557600e-01   5.9443410e-01  -6.6622662e-01  -8.0587633e-02   5.1898922e-01   5.1290971e-01  -9.5133687e-01   3.3669165e-01  -3.5196673e-01   7.2204630e-01  -6.3025345e-01  -1.2393839e-01   3.6921430e-01  -6.9730314e-01   9.0537255e-01   1.2017362e-03   7.7090373e-01  -8.8498838e-01  -2.2925344e-01  -5.9278884e-01  -1.2841613e-02  -4.7420545e-01  -6.7730849e-02  -3.3650167e-01   8.8144510e-01  -4.8478455e-01   8.8468359e-01   1.0163269e-01   3.6535732e-01   7.9451578e-01   5.6124545e-01   6.3137688e-01   8.9165573e-03  -2.4668562e-02   6.7869646e-01   9.0838600e-01   1.5231727e-02   6.0023594e-01   4.1281749e-01  -3.2420216e-01  -4.1061924e-01   7.5736704e-01  -9.8738746e-01  -2.3304597e-01  -4.0980451e-01   8.5255042e-01  -9.0137628e-01  -6.4148142e-02  -6.5642116e-01   9.2701791e-01  -4.1224357e-01  -7.3539087e-01  -4.2657323e-01   1.7035108e-01   4.3816411e-01   2.1468832e-01   1.2641293e-01  -7.6156091e-01   4.1935090e-01   2.6543621e-01  -9.2678790e-01  -3.7278833e-01  -8.2252015e-01  -8.7002740e-01   9.0174604e-01  -6.6195587e-01  -6.0782203e-01  -1.1592913e-01  -8.7275034e-01   8.6411102e-02   6.4791946e-01   2.6059610e-01   9.2417894e-01   5.0724851e-01  -3.3725044e-01  -3.5171991e-01   1.6957552e-01   8.7076688e-01  -6.2583049e-01  -6.7381062e-01   2.3978720e-01  -6.8714133e-02   9.5773142e-01  -8.5825635e-01   8.2559893e-01  -1.3626570e-01  -5.0416393e-01   2.0580529e-02  -8.9435113e-01   9.3144202e-01   5.1357022e-01  -9.0710042e-01   1.9184581e-01  -3.4029988e-01  -3.6754906e-01  -1.6273094e-02   8.1073596e-01  -7.3069089e-01  -4.7808818e-01   2.8295344e-01  -9.1720620e-01   6.9509852e-01   2.3152926e-01  -6.5163816e-01  -6.6408618e-01   1.1861693e-01   5.1627549e-01   3.0653003e-01   7.2860770e-01  -6.9414062e-01  -8.6828849e-02  -7.6684701e-01  -2.6914123e-01   6.6597806e-02   3.3002065e-01  -1.5083289e-01  -1.5324212e-01  -3.9496040e-01   3.4621027e-01   3.2755168e-01  -3.5150077e-01   3.4959899e-01   3.2470150e-01   5.8521479e-01  -9.4990396e-02   9.6120925e-01  -1.0782560e-01   6.0019117e-01  -5.3930772e-01  -7.1533262e-02  -1.8373793e-01   8.6447350e-01  -1.0847384e-01  -4.7041312e-01  -3.2513297e-01   1.9872416e-01  -5.0713323e-01   1.2439041e-02  -2.1736793e-01   1.2576765e-01   4.0099013e-01  -9.2293300e-01   8.3077543e-01   4.0370269e-01  -2.3020579e-01  -2.6353790e-01  -4.8730027e-01   6.0479313e-01   3.3018920e-01   6.6238171e-01   2.8450381e-02  -1.8850125e-01   8.1298292e-01   8.9225858e-01   8.9911107e-02  -7.6799115e-01   8.2719256e-01  -3.1895465e-01   5.4022195e-01   7.9707025e-02   2.0591942e-01   6.2982255e-01   2.2219108e-01   5.2136774e-01   6.8740092e-01  -3.7361182e-01   7.8458626e-01  -8.3535472e-01   2.6617372e-01   4.6811629e-01   8.3383700e-01   9.3753396e-01  -3.1606108e-01  -6.0053920e-01   4.1142224e-01   9.2707907e-01  -1.8894337e-01   5.8513804e-01   2.1648645e-01   6.4629191e-01  -3.3568120e-01  -1.8894703e-02  -6.1562089e-01   8.8745883e-01  -9.5405397e-01   7.3528879e-02   1.2355022e-01  -9.9919437e-01  -5.1745438e-01   7.9380906e-01   9.9854630e-01
  -6.9476536e-01   2.4912866e-01  -2.1140229e-02   3.5109374e-01   3.9358920e-01   8.5518430e-01   9.0845318e-02  -8.5120794e-01  -7.9921892e-01   1.6721569e-01   6.1669896e-01   9.4827342e-01  -5.6022147e-01   4.4611411e-01   4.1644213e-01  -7.8648062e-01  -8.2647092e-01   4.7380441e-01   5.1583203e-01  -7.0346664e-02  -2.0307434e-01   4.3946234e-01   4.2745490e-01   5.6786985e-01  -3.9062844e-02   9.0522897e-01  -4.9461051e-01   4.4094823e-01   4.3146691e-01   4.2186803e-01  -7.6220565e-01  -3.8859957e-01   4.3898053e-01  -1.5822973e-01  -5.1475545e-01   5.4321755e-01  -6.9778815e-01  -3.4645158e-01   1.0942513e-01  -8.9399755e-01   4.7087897e-01  -7.8269184e-01  -6.1941041e-01   6.0248683e-01  -4.7957372e-01   3.0321249e-01  -7.5281211e-01  -4.8073968e-01   2.2962364e-01   2.1282869e-01  -4.4710140e-02  -3.8803835e-01   7.2154477e-02   1.5481701e-01   9.3872444e-01  -3.2482176e-01  -9.5290112e-01  -1.9698902e-01   1.3856849e-01   6.4594505e-01  -4.4640980e-01  -5.4482513e-01   1.9356955e-01  -1.1083939e-02   3.4946984e-01  -1.9997329e-01   9.0283664e-01   1.5831402e-01   8.9509948e-01   6.2234542e-01  -3.6953780e-01   7.4156095e-01   6.0157321e-01  -4.2450516e-01   2.8455354e-01   6.5930534e-01   9.6705914e-01   9.2836835e-01  -6.0483422e-01  -6.0012124e-02   5.0205273e-01  -5.5822911e-01  -4.3835424e-01  -8.1565214e-01  -4.9200506e-01  -7.9108576e-01   4.9272391e-01  -4.2522044e-01   3.9404503e-01  -9.5240076e-01  -9.8949010e-01   6.0816891e-01   5.3065744e-01  -3.4719239e-01  -2.5917869e-01  -3.7530717e-01  -6.1833952e-01  -6.6964478e-01   2.0929763e-01  -4.0663276e-01  -7.0081754e-01  -6.9395822e-01  -3.5734809e-02  -8.6544908e-01  -6.2099018e-01  -4.4397124e-01   1.7675099e-01  -9.1351354e-01   9.5107618e-01   7.1406378e-02  -2.7716333e-01   5.9986713e-01  -8.7905661e-01  -5.6100151e-01   2.4942033e-01  -5.1711698e-01  -4.8147255e-01  -3.5897077e-01  -1.5738247e-01  -6.3111115e-01  -9.8164231e-02   6.3337608e-01   8.2222409e-01  -4.1318568e-01   1.4504010e-01  -9.1931869e-01  -5.9014649e-01   6.9814716e-01   2.6976689e-01   5.6487812e-01  -7.2979101e-01   1.3977298e-01  -3.9386084e-01  -4.9818512e-02   8.1926656e-01  -3.7319184e-01   1.4983632e-01  -7.4287722e-02  -3.0602324e-01   2.5637041e-01  -8.3526667e-01   5.9951730e-01  -9.9117919e-01   4.4109403e-01  -3.6604481e-01   9.2841023e-01  -7.4434532e-01   3.9693764e-01   9.0932901e-01  -4.6264759e-01  -7.1807892e-01  -3.5570920e-01  -3.3021554e-01   2.6929077e-01  -7.9236319e-01   6.5433540e-01  -3.9576305e-02  -5.8519162e-01   4.6821295e-01  -6.0380325e-01  -1.4157188e-01  -8.1796452e-01   5.6503959e-01  -8.3573342e-04   2.6131702e-02  -1.2926627e-01   5.8697882e-01   9.2326445e-01   6.7642205e-01  -1.3733529e-01   6.7498567e-01   3.2761591e-01  -7.2892310e-02   7.7930693e-01  -9.7154381e-01  -7.5973379e-01   1.7814433e-01  -8.6075641e-01   4.8197622e-01  -6.7323730e-01   9.2370454e-02  -4.2848188e-01   6.7868972e-01  -9.3250701e-01  -7.7738522e-03  -2.9140398e-01   6.1625143e-01  -8.3377383e-01   2.2441237e-01  -1.2043383e-01   5.3976725e-01   4.0377979e-01   6.2160784e-01   8.8656928e-01   1.9077839e-01  -7.2578689e-01  -1.7547702e-01  -2.4735400e-01   1.8381218e-01  -2.0101195e-01  -2.4714107e-01  -6.5844024e-01   6.7209369e-01   8.4955917e-01  -8.4288764e-01  -9.2000704e-02  -6.5458042e-01  -4.8867281e-01  -6.6254701e-01   1.0673783e-01  -6.3763822e-01  -9.9764079e-01  -9.8511418e-01  -2.4374086e-01  -6.9241327e-01   6.9187945e-01  -2.8630718e-01  -6.6229654e-01   8.4500832e-01  -3.7218617e-01   2.5594998e-01  -6.9120496e-01   4.0600899e-01   7.3309283e-01   2.5410543e-01  -5.6366323e-02   9.0188838e-02  -7.5822365e-01   3.7089895e-01   8.8075415e-01   9.9853254e-01   6.0792988e-01   3.2914864e-01  -8.2735288e-01   3.1370385e-01  -8.4450699e-01  -4.9342630e-02  -8.9306224e-01   2.9219316e-01  -2.9159374e-01   9.4442652e-01   2.9878132e-01   1.7832849e-01  -8.8097874e-01  -1.4074466e-01  -7.2783206e-01   8.0543376e-01  -2.5770273e-01   2.4938554e-01  -1.0118361e-01   4.9230667e-02   8.1540891e-01  -9.3995377e-02  -8.1924229e-01   5.1816752e-01   4.8994502e-02  -4.5571809e-01   6.9210692e-01  -5.8437242e-01   6.7591384e-01   3.7218287e-01  -5.0820531e-01  -6.9294309e-01  -7.8892404e-01  -7.8456997e-01   4.5329001e-01   6.9635307e-01  -4.1278804e-01   9.4678297e-01   8.4959165e-02  -3.2409106e-01   7.2398527e-01   5.6335355e-02  -9.3760086e-01   6.7551029e-01  -2.7503173e-01   7.6601716e-01   6.9473923e-01  -7.8812982e-02  -6.1995222e-01   8.0585969e-01   1.7279580e-01   9.7582576e-01  -8.5013636e-01   8.4345899e-01  -1.5379546e-01  -7.7951212e-01  -1.7268027e-01  -9.9922276e-01  -1.3206019e-01  -6.1820763e-01  -6.8510392e-01  -5.7014126e-01  -4.8510096e-01  -1.1885299e-02   2.0793710e-01   1.4915889e-01   1.5639062e-03   3.3503411e-01   5.5689809e-01   7.0364873e-01  -6.7243906e-01   4.9278552e-01   4.9845277e-01   1.3851353e-01   7.5378822e-01   9.3004447e-01  -6.8281231e-01   7.1605243e-01  -3.8671023e-01   3.0088189e-01  -7.8170557e-01   9.1454524e-01   6.4879562e-01   7.9209458e-01   4.1649871e-01   5.4955489e-01   5.4076027e-01  -5.6622866e-01   7.1130941e-01   5.0691024e-01   4.6448890e-01  -2.0536393e-01  -2.1628758e-01  -6.2018071e-02   7.7283075e-01   5.1166432e-01  -2.1982731e-01  -4.5097847e-01  -1.7717375e-01  -4.0400392e-01   4.9102913e-01  -2.2844364e-01  -8.2912207e-02  -8.3101052e-01  -5.7341541e-01   3.9914373e-01   7.1862728e-01   4.9952382e-01   6.2128831e-01  -7.0917187e-01   7.1777974e-01   5.8917589e-01  -8.5712852e-01  -3.2218645e-01   5.6893038e-02   3.4533558e-01   4.7737189e-01   4.2671030e-02  -7.9395019e-01  -5.1756389e-01  -4.4607971e-01  -5.8813739e-01   7.3927648e-01  -5.6711406e-01  -3.3853770e-01   7.8451797e-01  -7.2702237e-02   4.7386398e-01   9.7530719e-01   5.5556881e-01  -1.7009943e-01  -2.6332163e-01  -5.1556320e-01   5.4808786e-01   8.6363107e-01   8.5208700e-02  -4.9671760e-01   6.7727538e-01   9.0249121e-01  -1.7810484e-01  -3.2932331e-01  -2.7126760e-01   9.7345627e-01   3.0974768e-01  -5.2182349e-01  -5.9745127e-01  -5.6488539e-01   6.5995778e-01  -2.4162642e-01  -6.1435503e-01   4.1444924e-01  -1.9066656e-01  -9.8471966e-02  -9.9557788e-01   2.7783100e-01   1.6974183e-01  -9.0341427e-02  -4.6544536e-01  -1.6189739e-01  -5.4040151e-01  -3.1636965e-01  -3.6247019e-01   8.7209135e-01  -9.6289877e-01  -5.7472564e-01   4.9333332e-01  -2.6022062e-01   5.2954383e-01   2.5204168e-01  -8.0486155e-01  -4.6862705e-01   8.4164917e-01  -5.2265427e-01   7.2039468e-01   3.4013351e-01   8.4661280e-01  -6.7575359e-01  -5.8490445e-01   5.4674445e-02   2.8128382e-01   2.4149833e-01   2.4901128e-01  -7.7457499e-01  -3.6605062e-01  -9.9572279e-01   6.2282836e-01   2.8539301e-01   6.9191347e-01  -2.4021395e-01   1.0673057e-01  -1.1739753e-01  -5.7250616e-01   5.3557930e-01  -2.7016676e-01   4.5207688e-01  -5.1090984e-01   5.5112193e-01   9.3588389e-01  -8.6885889e-01   2.5377891e-01  -1.4329241e-01   9.9193725e-01  -5.3119976e-01  -2.7723395e-01  -8.0224674e-01  -5.0691953e-01  -6.2916577e-01   7.8645797e-01   2.9032584e-01   1.8888598e-01  -6.3764798e-01   8.3848978e-01   5.9934197e-01  -8.5620462e-01   5.6277007e-02  -4.6782758e-01  -3.0548971e-01   7.3452132e-02   9.7316512e-01   4.7355513e-02   1.3245801e-01  -9.1346022e-01  -3.4536944e-01   6.6113287e-01  -2.8477615e-01  -7.4660798e-01   2.6027644e-01   2.9005428e-01   5.8211170e-01   7.2408242e-01   9.4981628e-01  -4.5752825e-01  -3.7835985e-01   6.8616079e-01  -2.6020070e-01   7.7413934e-01   7.6286406e-01   2.6911825e-02   1.4443731e-01  -7.3557073e-01  -8.5144766e-01  -3.5364855e-01  -4.0994876e-01   9.4813965e-01  -1.2566952e-01   4.8118195e-01   4.1609650e-01  -3.7851432e-01  -1.4253249e-01   4.5647111e-01   9.7728840e-01  -1.0277239e-01   6.0137875e-02  -8.3266176e-01   9.4224659e-01   5.2059523e-01   3.8485567e-01   7.7548526e-01   8.4527413e-01   1.7067058e-01  -7.1468846e-01  -5.5043269e-01   9.8406949e-01  -4.9965577e-01   4.4805347e-02  -6.8031825e-01  -5.4901877e-01  -6.7808007e-01   2.6879339e-02  -7.6933222e-01   2.1125478e-01   4.1126326e-01   1.7133524e-01   3.8839237e-01   4.1712547e-01   9.8140596e-01  -8.8801065e-01  -9.3285108e-01   9.0636077e-01   4.5124708e-01  -6.9280498e-01   6.4753104e-01   2.9002752e-01   2.6648184e-01   3.4956722e-01   6.2763452e-01   7.3534568e-01  -4.1119486e-01  -5.7955756e-01  -4.8493610e-03  -5.0506062e-01   4.2196120e-01  -5.7704818e-01   1.4167415e-01   5.3177981e-01   2.6661201e-01  -1.7679415e-01  -4.4013604e-01   6.4564399e-01   8.1216765e-01  -9.1506464e-01   9.5375604e-01  -8.6986622e-01  -8.3668565e-01  -7.7108375e-01  -1.3006918e-01  -1.7447096e-01  -7.8449085e-01  -1.2487716e-01  -2.7090153e-01   2.2285206e-01  -9.5669825e-01   6.9848586e-01  -9.2035094e-01   8.7630274e-01  -9.2820181e-01   1.4389125e-01   6.0495522e-01   9.4317975e-01   1.6882637e-01   9.4829408e-01   6.6220296e-01   3.5936510e-02   5.1375072e-01  -5.4586388e-01   4.2445320e-01   1.2699873e-01   4.6058409e-01  -5.2089954e-01   2.6355320e-01  -8.7854650e-01  -9.7592842e-01  -5.2042256e-01   4.2237094e-01  -9.1203319e-02  -4.0484573e-01   6.5224882e-01  -4.4813810e-01   1.0522702e-01  -3.3381740e-01   9.4516019e-02  -4.2981802e-01   6.9554848e-01  -6.5169203e-01  -2.7062730e-01   7.5441881e-01  -7.0315112e-01  -8.1800236e-01   6.8272474e-01   1.9342681e-01   7.0858757e-01   7.8494359e-01   5.0323924e-02  -3.8625472e-01   2.8808072e-01   7.7447750e-01   3.6917624e-01   5.6135092e-01  -2.5096286e-01   4.9599338e-01   8.5288882e-01  -1.2401205e-01  -5.1271726e-01  -7.0648138e-01  -9.6923719e-01   4.0220286e-01   6.8907807e-01   1.9123411e-02  -9.7663023e-01  -9.4191032e-01   1.4434619e-01   6.2389163e-01  -8.9165082e-01  -4.1474223e-02  -2.6997178e-01   5.1389135e-01  -2.6800754e-01  -5.1875672e-01  -2.7767879e-01  -9.1093072e-01   1.1802066e-01  -7.2173793e-01  -3.4905786e-01   5.7326580e-01   6.6533908e-01  -3.7925432e-01   2.3726440e-01   5.3469210e-01   7.9184991e-01   4.0388027e-01  -4.0662914e-02  -7.4782017e-01  -4.6399320e-01   8.4513174e-01   9.4889650e-02  -8.2446450e-01   8.2941945e-01   3.4594659e-02   3.8950449e-01  -4.6927912e-01   8.9255691e-01   5.2635598e-01   3.2206237e-01   5.1791434e-01  -1.4482475e-01   4.6225363e-01  -8.3408390e-01   2.5088049e-01   1.0893618e-01   8.6175561e-01   4.7666029e-01   8.8110487e-01  -2.0030172e-01   5.4878812e-02  -5.8819034e-01  -5.4126719e-01  -8.8664873e-01   8.3141514e-01  -4.1602626e-01   7.7086797e-01   2.0741355e-01  -2.0209150e-02  -4.4625486e-01  -6.2272077e-01   3.2101161e-01   7.1102273e-01  -7.9220292e-01  -2.1912880e-01   3.3881539e-02   3.1585185e-01  -4.6603031e-01  -4.5924873e-01   3.6137278e-01   7.6934862e-01  -6.8979926e-01   7.7394302e-01  -8.6604194e-01   6.8758398e-01   3.6337463e-02   2.8794636e-01  -3.2825540e-01  -5.7126607e-01  -7.7685165e-01  -4.1742336e-02   2.9940140e-01  -5.1459418e-01   6.4427709e-01  -5.3870785e-01  -4.3039393e-01   6.7857776e-01   7.5519945e-01  -2.5599013e-01  -1.0396645e-01  -4.6059092e-01   2.9475670e-01  -7.8613289e-01  -3.4681557e-02   4.7610769e-01   8.3623664e-01  -5.0149703e-01   9.2883138e-01  -1.0330169e-01   2.4047294e-01  -7.4479187e-01   9.5705973e-01  -2.0129821e-01   2.6538798e-01  -4.5564553e-01  -1.7221884e-01  -3.4205985e-01  -8.7118694e-01  -8.9087204e-01  -8.9724797e-01   8.8408238e-01  -2.3060826e-01  -2.0536093e-01   6.5523810e-01  -8.2386603e-01  -5.3529478e-01  -8.9362165e-01  -9.8188387e-01  -7.5065390e-02  -4.1077101e-01  -2.6870889e-01  -8.2937895e-01  -3.7692033e-01   2.3602030e-01  -9.5926494e-01   2.2692196e-01  -6.2473291e-01  -5.4727873e-01   1.6952574e-01   7.7657017e-01   1.2768043e-01  -1.6562857e-02  -9.5432116e-01   3.0534458e-01  -1.0196126e-01   3.9854737e-01   6.1713495e-01   1.0325505e-01  -4.1054433e-01  -4.1997987e-01   3.8607409e-01  -5.7192432e-01  -8.1144131e-01  -8.2294039e-01   2.9912010e-01  -8.3119720e-01  -9.0742175e-02  -9.3418171e-02  -9.7422222e-01   8.0269180e-01   3.8022444e-01  -8.1513723e-01  -7.3480800e-01   3.3733338e-01   5.6677001e-01  -5.0041527e-01  -6.6440680e-01  -9.9804046e-01   2.1348210e-01   3.0829164e-01  -1.3761748e-01   4.2080101e-01  -5.5946881e-01  -5.7928979e-01  -3.4756367e-03  -5.9242660e-01  -8.6949075e-01  -1.5290072e-01  -9.8424329e-01   8.3525385e-01  -3.9528436e-02  -6.3465985e-01   9.3260985e-01  -9.1613217e-02   7.5229834e-01  -1.5670837e-01   2.1871175e-01   7.0080589e-01  -1.6376985e-01  -9.0565681e-01   1.3110804e-01  -7.1041263e-01  -6.2690977e-01  -9.3880823e-02  -3.5831076e-01  -2.9704759e-01   5.4382395e-01   8.6844484e-01  -7.2200673e-01  -4.2472504e-01  -4.2822038e-01   2.5214955e-01   2.3289243e-01   6.4111216e-01  -5.6751583e-01   5.4113990e-01  -1.9824687e-01   2.3422253e-03   3.0452550e-01  -7.6699005e-01   2.8655653e-01   5.9833504e-01  -1.6438229e-01  -1.0167485e-01  -5.0108498e-01  -1.0694323e-01   3.8639004e-01   9.1503098e-01   8.4248977e-01  -7.0441067e-01  -5.4339119e-03   9.1973811e-01   5.7430841e-01  -7.4384896e-01  -5.2538840e-01   1.6876465e-01   7.2234247e-01  -1.1223672e-01   7.9141831e-01  -8.0525925e-01   8.6680106e-01   1.7108829e-01  -5.8070482e-01   8.7669280e-01   4.7219756e-01   9.5189399e-01   1.0589214e-01  -2.3515257e-01  -1.2986889e-01  -4.7633668e-01  -7.3467739e-01  -1.2032747e-01  -7.8534802e-01   8.7549125e-01   8.5549687e-01   4.1336423e-01  -3.6053411e-01  -9.8378672e-01  -7.5419460e-01  -6.9959571e-01   1.4983715e-01  -8.9679803e-01   5.8435187e-01   8.6192174e-01  -7.4171586e-01   6.9025821e-01  -1.7767615e-01  -4.3986053e-01   1.4810758e-01  -5.0515158e-01  -8.2388359e-01   1.8424822e-01  -2.7530013e-01   5.3746774e-01  -8.5368055e-01  -1.6807237e-01  -4.3675581e-01  -7.8685340e-01  -3.2899530e-02   6.4516137e-01  -3.1136696e-01   1.3514155e-02   9.9060892e-02   7.4148650e-01  -4.9122083e-01   5.5062812e-01   1.4526762e-01   2.7176055e-01   7.5040875e-01  -5.1975397e-01   9.1135833e-02   5.6642215e-01   3.1750951e-01  -4.9081904e-01  -3.2060437e-01   2.6707913e-01  -4.6517884e-01  -3.2380095e-01  -3.9839461e-01  -4.8686401e-01  -1.6853190e-01   1.9575242e-01   2.4060809e-03   1.8617728e-01  -1.6920305e-01   3.7078704e-01   2.4511637e-01  -3.9433783e-01  -5.8973332e-01  -6.7792690e-01  -8.3717496e-01   1.9361284e-01   3.5383870e-01   9.7329329e-01  -4.0454274e-01  -7.4926349e-01   6.6011605e-01   7.5423036e-01  -2.1147438e-01  -9.4906535e-01  -5.9776362e-02   4.2160114e-01  -6.3967238e-01  -2.8960261e-01  -6.0133235e-01   6.3356183e-01  -1.5185324e-01  -9.8769444e-01   4.3639522e-01  -8.9817831e-01   4.5995474e-01   1.6740294e-01   4.2876542e-01  -8.4310873e-01   9.3878392e-01  -6.0086510e-01  -6.9103305e-03   2.0691269e-01   3.4058658e-01   1.2891869e-01   6.4676958e-01   2.5513131e-01   8.6919057e-01   9.4877747e-01  -5.4722792e-01  -8.4540656e-01   3.3686955e-01  -5.6145213e-01   8.4179144e-01   1.5874148e-01  -2.1274815e-01  -1.3826198e-01  -3.4659144e-01  -3.0904708e-01  -9.6162741e-01  -2.5982043e-01   5.3021491e-01   4.8811448e-01   9.5389345e-01  -8.8094256e-01  -1.4614506e-01  -3.4412501e-01  -6.6511396e-01   1.4973710e-01   9.5446759e-01  -3.2975286e-01  -9.3736343e-01   5.3560211e-01   1.5412187e-01  -2.0653150e-01  -8.4948573e-01  -1.7383282e-01  -1.3596308e-01   6.1980979e-01   7.2812493e-01   5.1123456e-02  -1.2431658e-01   1.8261902e-01  -9.3934548e-01  -5.2003890e-01   1.9368507e-01  -1.6297689e-01   5.8425008e-01   3.5752670e-01   4.3919831e-02  -5.2144081e-01   3.1625665e-01  -1.1726314e-01  -3.1059965e-01   6.6220102e-01   6.8035848e-01  -8.9383708e-01  -5.8179035e-01  -4.7102904e-01  -6.3623389e-01  -7.3031694e-01   4.7830954e-02   8.4228170e-01   4.6128731e-01  -4.8181313e-01   2.4776999e-01  -2.1867205e-01   4.1395333e-01  -1.5924969e-01   9.1164109e-01   8.3265318e-01   6.4535715e-01  -3.6991536e-01  -6.8705827e-01   7.1562794e-01   1.7475126e-01   9.1372884e-01  -3.7301949e-01  -1.6389863e-01  -1.4299034e-01  -3.0242479e-01   6.2044318e-01   2.3074715e-01  -7.3982737e-01   1.5121024e-01   1.0082244e-01   2.8462090e-01  -3.4564609e-01  -4.5343333e-02  -8.7026539e-01   3.8309857e-01
   5.0127802e-01  -2.2335571e-01   3.4138881e-01   8.9408451e-01  -9.9190749e-01  -1.5841137e-01  -2.5592978e-01  -6.0200593e-01   2.8597958e-02   2.9572672e-01  -2.2247440e-01  -1.5458261e-01  -2.6957368e-01   6.7347811e-01  -3.3711201e-01   8.1046241e-01   9.5062672e-01  -5.7098271e-01   9.3418756e-01  -4.7852875e-01   2.8206147e-01  -4.9775293e-02   8.6812950e-02   8.1709821e-02   3.8448738e-01   2.7185041e-01   5.5540073e-01   8.6805260e-01  -9.5141207e-01  -5.3609015e-01   5.4601858e-01  -1.1397255e-01  -4.4675376e-01  -8.1016062e-03  -7.9213724e-01   7.4601034e-01   6.7388552e-01  -7.3087700e-01  -4.2415059e-01   5.8662668e-01  -5.3048911e-01  -8.2923713e-01  -1.6205192e-02   4.0443545e-01  -6.0231985e-01  -8.6107805e-01   2.9720854e-01   3.9183213e-01  -1.7102218e-01  -9.8750319e-01   7.3944332e-01  -5.6825675e-01  -7.7479544e-01  -4.8045573e-01   4.1737275e-01  -3.0499224e-01   7.4880237e-01   6.2685019e-01  -6.2125765e-01   9.8197966e-01   9.7291566e-02  -9.3386663e-02   9.7893209e-01  -7.8603088e-01   1.2561610e-01  -3.3775783e-01  -8.7149245e-01   5.6261486e-01  -2.2875896e-01  -6.4800233e-01   2.1773608e-01   2.4815170e-01   4.0014931e-01   6.2633410e-01   7.6520622e-02   8.7497894e-01   3.1636612e-01   1.5207129e-01  -2.5050696e-02  -2.1531535e-01   3.3198048e-01   3.1583063e-01   9.4766713e-01   1.5155080e-01  -4.6432006e-01   3.7524561e-01   9.4347847e-01  -9.0223799e-01   2.9171589e-01  -7.9753097e-01  -8.1242360e-01   9.5363010e-01   5.1434468e-01   3.7384198e-01   9.1274099e-01  -7.8906200e-02  -6.5069900e-01   2.6730612e-01   3.0103329e-01   3.3628452e-01  -3.7630093e-01   9.9849425e-01   3.6011533e-01  -7.6180548e-01  -7.0414998e-01   4.6495055e-01   1.4088521e-01   7.5051045e-01   3.1415542e-01   1.6908838e-01   2.8535752e-01   9.8811802e-03  -2.0536072e-01   7.0460354e-01  -4.1464134e-01   7.7049017e-01  -4.7546320e-01  -6.5914184e-01   1.3160993e-01  -5.5045651e-01   8.9685039e-01   2.8185433e-02  -1.8837284e-02  -5.2889580e-01  -8.4913396e-02   6.0835804e-01  -5.0762365e-01  -8.8712596e-01  -6.9027648e-01  -8.2432626e-01   7.4683338e-01  -4.8395579e-01   2.3869671e-01   9.1545231e-01  -4.6049767e-01   6.2609452e-02   2.7422866e-01   9.0238309e-01  -7.4240811e-01  -5.2173264e-01   1.9208133e-01  -9.8395619e-01  -9.4048841e-01   2.3711589e-01  -7.3948875e-01  -5.2457657e-01  -2.1081292e-01  -8.9034862e-01   3.7229694e-01  -7.6316262e-02  -5.7679829e-01   9.3305123e-02   7.0543651e-01   7.6034642e-01   1.2923421e-01   6.2342815e-01   8.1043959e-01  -2.1035099e-01   2.5508211e-01   6.9726119e-01   2.2636626e-01   8.2870820e-02   7.9109034e-01   1.6947616e-01  -3.8531360e-01   3.4173646e-01   4.4024542e-01  -9.4288783e-01   7.3746350e-01   1.8547873e-01   4.1775780e-01  -2.1953087e-02   6.0568982e-01  -7.9265664e-01  -3.2328731e-01  -4.9043762e-01   9.4807762e-01   6.6124006e-01   4.8072718e-01  -5.3250842e-01  -9.1563965e-01  -1.5462473e-01   1.6392669e-01   6.1614039e-01   8.5370452e-01  -2.3247872e-01  -6.8437865e-01   5.6945977e-01  -2.4549218e-01   7.0563427e-01  -7.4736837e-01   4.0917700e-01  -9.1910792e-01  -3.0348002e-01  -6.7141395e-01  -3.8127073e-01  -8.0278387e-01  -3.0538890e-01  -8.4221883e-01  -9.5193719e-01  -3.4941178e-01  -1.2461508e-02  -4.4836797e-01  -4.2418841e-01  -4.2956327e-01   3.4593780e-01  -6.4509835e-01  -7.2806043e-01  -8.0556103e-01   7.1556505e-01  -2.8756504e-01   4.7496147e-02   9.6809838e-01  -6.8029135e-01  -1.3963220e-01  -8.5010272e-01   4.3708159e-01   9.7902328e-01   4.8332809e-02   3.9847843e-01  -5.0425435e-01   9.3290653e-01   5.9060474e-01   8.8110332e-01  -7.6414118e-01  -6.2971622e-02   4.7449770e-01   5.3429720e-01  -9.7221246e-01   6.3758249e-01  -5.3385353e-01   3.1595567e-01   2.9937146e-01  -4.3519006e-01   6.9631049e-01  -9.3727283e-01  -9.7993562e-01  -2.5296380e-01   3.5640251e-01   8.3187553e-01   7.1668666e-01   8.6648487e-03   4.2405664e-01  -9.9324159e-01  -4.9469225e-01  -9.1528398e-01  -4.2041429e-01  -7.3883167e-01  -9.9722933e-01  -7.6932558e-01  -6.2555655e-02  -3.0323799e-02  -8.9824484e-01   9.5682797e-01  -3.7772651e-01  -4.1860221e-01  -1.6222379e-01  -8.5616600e-01  -3.3378412e-01  -8.9882709e-01  -2.5609984e-01  -2.0595450e-01  -3.2756076e-01  -2.6404754e-01  -6.2149306e-01  -8.3025622e-01  -4.3267617e-01   2.3810019e-01  -1.3956364e-01  -2.7203523e-01   2.2800496e-01  -2.1254026e-01   1.3107172e-01   8.1276162e-01   3.1485445e-01   7.1190792e-01  -8.7809869e-02  -2.8170334e-02  -8.1507367e-02  -5.8636265e-01   4.8599745e-01   6.5896727e-01  -4.4153112e-01  -1.2595231e-01   7.0948760e-01   6.6852464e-01  -7.2572221e-01  -2.1184297e-01  -9.3853596e-01   2.3417074e-01   9.4213658e-01  -3.6320275e-01  -5.0425333e-02  -7.9453516e-02  -4.3409432e-01  -4.6104040e-02   7.4794192e-01  -4.8230806e-01  -4.5463495e-01   6.7342433e-02   4.9635394e-01   3.0027532e-01  -1.7572090e-01  -2.8345648e-01  -2.9094125e-01  -9.5546725e-01  -8.9128502e-01  -3.8276110e-01   8.4695363e-01   3.4640700e-01  -6.2726523e-02   9.8505967e-01   9.5076693e-01   8.8403325e-01   3.7738815e-01  -1.4074306e-01   6.7606652e-01   7.6388273e-01   6.1119797e-01   1.4593008e-02  -9.6431001e-01   8.6255470e-01  -2.4657689e-02  -4.2775453e-01  -6.6285301e-01  -6.0683631e-01   3.5710138e-01   8.9868453e-01  -6.6447518e-01   6.9740463e-01  -3.8471614e-01   6.5485906e-01   5.3445868e-01  -6.3665362e-01   6.2560552e-01  -1.6577230e-02   3.4857324e-01   9.9177926e-01  -4.5745007e-03  -9.2092028e-01  -7.2261604e-01   5.4557181e-01  -7.1214769e-01   1.0273411e-01   7.6939082e-01  -2.4731291e-02  -3.8036194e-01   7.0771147e-01   9.2653579e-01   6.8011813e-01  -3.1215008e-01  -3.4140367e-02   1.2316584e-01   8.3608931e-01  -8.2114441e-01   2.4274762e-01   8.9939251e-01  -2.6893266e-01   5.8718816e-01  -7.8646909e-01  -3.7928801e-02   4.7833155e-01  -9.0275343e-03  -5.7726695e-02   2.5979067e-01  -2.4332488e-01  -2.1602463e-01   6.6479933e-01  -2.6561466e-01   9.5664700e-01   5.5112749e-01   5.0583918e-01  -8.1585254e-01  -9.8980950e-01  -6.3589115e-01   8.6407838e-01   1.8566084e-01   6.8059357e-01   6.7695476e-01   9.5865689e-01   4.6180938e-01   6.2595798e-01  -7.9076172e-01  -7.4078723e-01   7.8893868e-01  -7.7967850e-01   4.3768827e-01   8.7606762e-01  -4.3931120e-01   8.8493781e-01  -3.0374322e-01   2.4087803e-01  -9.3202901e-01   8.6250700e-01   3.4013999e-01  -7.8240265e-01   1.1470045e-01   1.8638247e-01  -2.3099467e-01  -1.7310315e-01  -1.4806270e-01   5.7628775e-02  -2.6211738e-01  -3.9881323e-01   9.5682190e-01   7.2929589e-01  -3.5914318e-01   5.8862813e-01   2.1553955e-01  -6.9849023e-01  -6.8014584e-01  -7.3770595e-01   3.5466434e-01  -5.6743343e-01  -9.3672101e-01   4.0407814e-01   1.3473017e-01  -4.3085346e-02  -1.5532656e-01   5.2909242e-01   6.9228584e-01  -8.6039418e-01  -2.4237908e-01   7.1340610e-01   2.2422572e-01   6.7950893e-03  -3.3484821e-01   9.3058329e-01   3.8642861e-01  -1.7053323e-01   7.4145852e-01   4.3230532e-01   3.9509900e-01  -3.5037743e-01   7.7965994e-03   9.8363982e-01  -2.8628336e-01  -9.9936917e-01  -9.4345543e-01  -9.9121091e-01  -6.5970798e-01   9.0545049e-01  -9.2483780e-01   6.7251830e-01   5.4910151e-01  -2.8140463e-01   1.5824946e-01  -5.9750907e-01   8.9286035e-01  -4.4745300e-01  -9.1192946e-01  -9.0041436e-01   3.1052220e-01   3.9318674e-01  -5.2660345e-01  -6.7802238e-01   2.5955759e-01   3.0061243e-01   5.3294462e-01   2.2332723e-02  -9.0624967e-01  -6.8272831e-01   7.7532953e-01   6.6684798e-02   2.0736091e-01   4.9111500e-01   2.1768990e-01   9.4769015e-01  -9.6262679e-01  -5.0803622e-01   3.0948014e-01   8.3274780e-01  -9.3557393e-01   9.3601824e-01   9.6770442e-01   1.4632295e-01   5.2636023e-01   3.2031615e-01  -2.0243352e-01  -8.0396991e-01  -7.5778703e-01   8.7536194e-01  -7.4502243e-01   1.3909391e-01  -4.9352808e-01   1.7790404e-01  -4.2064904e-01   4.3307277e-01   8.5126267e-01  -2.8986743e-01   8.6179205e-01   2.0628353e-01  -2.3575846e-01  -8.4235121e-01   1.1295224e-01   8.5831649e-01  -9.8745674e-01   3.8807701e-01   2.0697053e-01   4.9340962e-01   6.3551904e-01  -5.6952032e-01  -9.5422453e-01  -6.7225132e-01  -4.0013266e-01  -5.3105535e-01   5.6109927e-01  -1.0572631e-01   7.2105279e-01   1.6150955e-01  -2.9075018e-01   6.2868578e-01  -2.3763942e-01   3.0749834e-01  -2.4217941e-01  -9.7237054e-01  -8.0385186e-01  -6.8326772e-01  -3.9506686e-01  -2.3280354e-01  -8.3328669e-01   5.1768420e-02  -3.6938742e-02  -9.0939471e-01   3.0555910e-01  -5.2236599e-01  -4.1874663e-01   2.2020928e-01   5.8579395e-01  -7.1845740e-01  -9.5162209e-01   2.1014840e-01  -2.6496277e-01  -8.4563986e-01  -9.8731975e-04  -2.1539592e-02   1.1467768e-01   8.6640544e-01   9.6390488e-01  -3.0777664e-02  -5.7252311e-01  -5.7633317e-01   5.6342900e-01  -1.4265259e-01  -1.7157289e-01   5.6693707e-01  -6.9367130e-01  -8.3187643e-01   2.7617864e-01  -3.4722794e-01   8.1391541e-01  -3.9352128e-01  -5.4486456e-01   9.7312352e-01   1.4825396e-01  -8.3227409e-01  -2.4236816e-01   2.1179932e-01   3.0903163e-01   8.1948222e-02  -4.3688636e-01  -1.3854293e-01   6.1756257e-01  -3.2573317e-01  -4.0272398e-01  -9.6100465e-01  -5.9821868e-01   6.8632011e-01  -6.6336453e-01   9.1196325e-01   8.3244571e-01  -7.7648842e-01  -5.0979734e-01  -3.6193137e-01   3.0526435e-01  -1.1521374e-03   7.4439879e-01  -1.2567125e-01  -3.0541773e-01  -3.4183499e-01  -1.1826140e-01  -1.3330682e-01  -4.8622447e-01   6.8127929e-01   1.5605528e-01  -3.6765638e-01  -3.4296279e-01  -4.4420512e-01   8.0676092e-01   7.5735921e-01   5.9197114e-01   1.9724842e-01   1.4503212e-01  -4.1501853e-01   3.2523409e-01   4.2713355e-01   2.0581862e-01   3.4323804e-01   1.6957814e-01  -3.3482429e-01   2.8961073e-01   8.5210273e-02  -2.6977891e-01  -7.1995085e-02  -8.4435834e-01   4.8751331e-01  -4.9881212e-02   6.7764607e-01   5.0086178e-01   5.7415654e-02   5.8122667e-02   6.4594443e-01   7.3976936e-01  -3.4277398e-01   6.7422113e-01  -4.0782268e-01  -5.1219017e-01  -1.1406180e-01   4.0663663e-01   3.7594305e-01   6.7907931e-01   9.7715961e-02   7.6492422e-01   6.3349671e-01  -8.5260419e-01   4.3141454e-02   4.4927340e-01  -7.6026604e-01   1.5914460e-01  -6.3706253e-01  -5.0536016e-02  -6.2871476e-01  -4.3931754e-01  -3.2427174e-01   2.3090970e-01   6.6330790e-01  -1.2382129e-01   2.9851349e-02  -3.3405231e-01   9.9001685e-01  -4.6069382e-01  -8.5963743e-01  -3.8815048e-01  -3.6493022e-01  -1.8484760e-01  -8.8631651e-01   1.4938745e-01  -4.7383250e-01   3.4092144e-01  -5.6166847e-01   2.3969790e-02  -3.5220586e-01  -5.7671642e-01   7.2596429e-02  -1.5735559e-01   6.0507780e-01   3.7898000e-01  -8.5227349e-02   2.8011096e-01  -8.6860886e-01  -1.6993573e-01   8.5353462e-01  -7.3856295e-01   5.2898979e-01   1.0387083e-01  -5.7993472e-01  -4.4520641e-01   2.3574921e-02  -5.8870443e-01  -2.0704717e-01   4.7058169e-01   3.6027816e-01  -3.3535817e-01   4.5326521e-01  -5.3198114e-02   3.5139038e-01  -6.0829756e-01   7.4919181e-01   4.8349077e-01  -9.4358283e-01  -5.2413868e-01  -8.5267834e-01  -4.3110803e-01  -2.3127889e-01   5.2341003e-01   3.6740285e-01   9.3756735e-01  -9.4194884e-01   9.0541699e-01   2.4329087e-01   6.8293699e-01  -3.7699737e-01  -9.0692913e-01   8.0927137e-01  -5.9988209e-01  -4.6290673e-01   4.7492571e-01  -1.2980176e-01   9.5554596e-01  -6.8317711e-01  -9.6314866e-01   4.2977240e-01  -1.4887130e-02  -6.5296537e-01  -2.3393178e-01  -1.1397733e-01   8.5328473e-01   7.4634458e-01  -6.5318445e-01   9.8862130e-01  -4.3945457e-01   4.3547267e-01   3.8660639e-01   7.1168369e-01  -7.3214346e-01   8.9971989e-01   2.9803028e-01  -9.7458253e-01  -2.5672350e-01  -5.0832422e-01   4.9189919e-01  -1.0433442e-01   5.5086222e-01   5.9853525e-01   7.3568976e-01  -6.1009564e-01   8.4619513e-01   8.0451698e-01  -5.3121445e-01  -2.4285754e-01   6.9913738e-01   2.4022725e-01   5.2556871e-01  -5.7152851e-01   7.5363119e-01  -2.9255490e-01  -5.5397206e-01  -4.7122658e-01   2.0387417e-01  -8.6521255e-02  -7.8271401e-01   1.6833627e-01   1.5569185e-01  -8.7699382e-01  -6.3352783e-01   2.7937374e-02  -3.1329727e-01   4.3170920e-01   7.8274524e-02  -3.1623389e-01   6.8025121e-01  -3.7913732e-01   8.8278387e-03  -1.6322838e-01  -9.4809917e-01  -8.9926151e-01  -9.6456298e-01  -6.8381038e-01   8.5593848e-01  -3.4393467e-01  -3.3876899e-01  -5.2222656e-02  -2.8923639e-01  -2.4597475e-01   7.8190439e-01   4.4499759e-01  -4.9086509e-01  -5.5644036e-01   6.8500251e-01   3.5575941e-01  -2.6156768e-01  -8.6971436e-01   7.2668314e-01  -3.8292297e-01  -7.8095065e-01  -4.0741816e-01   9.4376036e-01  -5.1699443e-01  -7.7099447e-01   5.8566714e-01   5.1950528e-02   4.2003602e-02   9.2512516e-01   2.2195299e-01   6.2018913e-01  -3.8120432e-01  -4.4687435e-02  -1.2581456e-01  -5.9874022e-02   3.0792096e-01  -8.9223979e-01  -5.2852446e-01  -5.6727317e-01   7.9819475e-01  -8.3154755e-01   3.6033994e-01   7.8845778e-01  -5.7265698e-01   9.9715494e-01  -6.6593570e-01   1.7941188e-01   7.9005151e-01   3.4195298e-02  -3.0195700e-02  -4.8705649e-01   1.7152019e-01  -6.7402761e-01  -2.2961982e-03   4.1162716e-01   9.6815288e-01  -3.2796850e-01   4.1512334e-01  -5.9340660e-01  -5.7872214e-01   3.6045060e-01  -5.2401347e-01  -8.9522920e-01  -9.7181636e-01  -7.2160259e-01  -9.1413163e-01  -2.1725696e-01  -9.7646413e-01  -2.6390647e-01  -9.0735346e-01   6.1858050e-01   1.6251553e-01  -4.8074882e-01  -5.1665040e-01  -1.8850127e-02   8.9029524e-01   3.3253263e-01   3.7373747e-01  -1.1289915e-02  -1.9929433e-01  -6.5895818e-01   1.6536945e-01  -2.7256105e-01   4.3516162e-01  -7.2787073e-02  -6.5906734e-01   2.1541024e-01   7.7520029e-01  -5.9228643e-01   9.4341103e-01   4.7154756e-01  -4.7867043e-01   3.4895072e-01   6.1679422e-01   9.8915425e-02  -8.9345256e-02  -3.0933542e-01  -1.0007982e-01   9.7233363e-02  -2.5462532e-01   9.9655866e-01   4.3199566e-02  -2.3039545e-01  -3.7560318e-01   9.1524342e-01   3.9603294e-01   7.2776177e-01   5.4014974e-01  -1.5497962e-01   2.2097791e-01   4.5297345e-01  -9.3531604e-01   7.9578950e-01   9.7267964e-01  -4.2853591e-01  -4.5239500e-01   1.7117392e-01  -8.5089117e-01  -1.9249358e-01   5.0036108e-01  -9.8155252e-01   9.5389688e-01  -9.2398755e-01   8.9906824e-01  -4.3542624e-01   4.3086538e-01  -7.4169488e-02   1.3124676e-01   1.9329169e-01  -8.1137588e-01   4.9129459e-01  -5.3602072e-01   2.4626384e-01   2.0713694e-01  -8.0136467e-01   1.6097098e-01  -4.0228435e-01  -8.2431778e-01  -6.1571043e-01   7.1271847e-01  -9.5995102e-01  -8.0607765e-01  -7.2501495e-01  -7.6805655e-01   7.4947001e-01  -9.1148388e-02  -5.5398271e-01   2.9269556e-01  -4.4008168e-01  -4.4143478e-01  -6.5533559e-01   3.9716685e-01   5.5720883e-01  -9.2609151e-01   5.5859253e-02  -7.7488052e-01  -3.9977223e-01   9.1779973e-01   6.0513129e-01  -4.8077695e-01   8.0473626e-01   7.6309857e-01   9.1580380e-01   6.6060194e-01   2.0179309e-01  -6.3932842e-01  -9.7403123e-01  -5.6855656e-01  -5.7817691e-01   5.2590086e-01   3.5773784e-02  -9.7730915e-01   5.0190134e-01   7.2173785e-02   6.4611854e-01   4.0843873e-01   2.6176995e-01  -4.7927144e-01  -4.4713072e-01   7.0816638e-01  -8.0153267e-01   8.5608674e-01  -8.8546228e-01  -1.6927089e-01  -2.3199970e-01   8.0050863e-01   3.0574504e-02   5.3533581e-01  -8.7709556e-01   4.3850400e-01   4.5001576e-02   3.7542184e-01   7.0972424e-01  -9.5772848e-01   4.1902490e-01  -2.1606368e-01   1.8946377e-01  -4.8310118e-01  -4.8552043e-01  -7.6096439e-01  -7.6443882e-01   9.8853964e-01  -5.9310817e-01  -4.5045835e-02  -1.2539014e-01   7.1049799e-01  -6.5475204e-01  -7.3421856e-01   6.7145002e-01  -9.7178193e-01  -5.4250854e-01  -4.1211530e-01   2.9706187e-02  -7.3365514e-01   5.8611573e-01   7.7302430e-01  -3.9274768e-01  -1.0832941e-03   7.5925900e-01   5.1022745e-01   5.3471240e-01   1.9050232e-02  -5.4006454e-01  -7.3314787e-01  -2.1188392e-01   1.2249862e-01  -6.5897665e-01   5.0687770e-01   5.8280142e-01  -5.3000297e-01   4.3826702e-01  -4.5786549e-01   1.1610206e-01   8.7219004e-01  -8.8229732e-01  -1.7932611e-01   9.2949430e-01  -2.3710338e-01   4.7801489e-01  -5.1236702e-01   8.2495892e-01   8.4618496e-02   1.0980198e-02  -9.3753496e-01  -1.7508819e-02  -6.7823118e-01
