  -2.7816240e-01  -2.1836260e-01   4.6447759e-01  -8.3221537e-01   8.2037669e-01   2.9868897e-02  -5.7903207e-02   1.5710040e-01   4.7771043e-01  -6.7069247e-01  -2.5532038e-01   8.7556877e-01   7.3701978e-01  -2.3263668e-01  -7.4720053e-01  -8.6937346e-02  -7.7701043e-01  -3.2243673e-01   3.1034977e-01   5.5552696e-01   4.4081143e-01  -8.2468402e-01   7.5755156e-01  -5.4061052e-01   7.9391103e-01   6.1115777e-01   7.2235820e-01  -4.6476633e-02   7.7514398e-01  -7.6743505e-01   4.4240408e-01   6.2847489e-01  -3.1606922e-02  -7.3788387e-01  -7.7185526e-01   4.6145127e-01  -8.1381858e-01   2.8645031e-01  -8.1166321e-01  -4.0162496e-01   6.0615181e-01   1.1235875e-01   3.1963313e-01   1.3256415e-01  -6.3349348e-01   1.1369560e-01   3.5375486e-01  -6.5908617e-01  -6.6637625e-01  -2.0766887e-01  -3.0963858e-01   6.0242223e-01   9.5008042e-01   7.2631206e-01   4.9895192e-01  -3.0932540e-01   2.3222711e-01   3.0933815e-01   7.1984588e-01  -8.5034694e-01  -2.7097380e-01  -2.8550882e-01  -5.6269157e-04   6.9784854e-01   5.6518106e-01   4.8601250e-01  -6.9423500e-01   4.7398052e-01  -4.6208271e-01  -5.0942503e-01  -6.3734283e-01   2.5847748e-01  -2.5578543e-01  -9.0116542e-01   2.8793466e-01   9.9866875e-01  -2.5704425e-01  -5.2503596e-02  -7.1756834e-01  -1.6367997e-01   7.0843183e-01   5.5664722e-01  -1.4021210e-01   9.6108707e-01  -8.6168193e-02  -2.8897505e-01   3.2399714e-01  -4.7026626e-01   6.2027659e-01   1.2316851e-03  -4.2739817e-01  -1.9785912e-01   3.1049694e-01  -7.3047826e-01  -7.2124342e-01   7.9240551e-01  -4.0129721e-01   6.6297874e-01  -3.2018960e-01  -3.1002766e-01   6.9599037e-01   3.0431585e-01   4.2047588e-01   3.7442993e-01  -8.1918308e-01   2.2066512e-01   2.3671745e-01   7.7852326e-01  -9.1495697e-01   2.2030095e-02   2.2872218e-01   9.6256422e-01   5.8301193e-01   5.8956483e-02  -5.1604488e-02   6.9957581e-01  -8.1785991e-01   5.5071810e-01  -2.5580821e-01  -7.4140033e-01  -6.6425473e-01   7.1545197e-01  -2.3079752e-01  -7.3214645e-01   1.5629504e-01  -1.3039011e-01  -9.7708463e-03   5.7111782e-01  -2.4497039e-01  -8.8184435e-01   3.0572622e-02   9.9670329e-01  -7.8840299e-01   8.4368670e-01   1.2424208e-01   6.3187455e-01  -3.3198699e-01   8.1433854e-01   1.6770970e-01  -3.3973838e-01  -9.0023095e-01  -7.0164960e-01   7.0998928e-01  -3.9137994e-01  -6.8335531e-01   2.0215448e-01   4.9550335e-01   9.0598415e-01  -6.7097757e-01  -5.3399746e-01   3.5005923e-01  -3.6198944e-01   1.7985283e-02   6.5618242e-01   1.7720331e-01   2.8301764e-01  -5.6686721e-01   8.1463172e-02   3.2069227e-02   8.1661907e-01   2.2901007e-01   9.7721865e-01  -9.8657889e-01  -9.5961755e-01   2.3213551e-02  -7.9000556e-01  -6.8279180e-01   3.3897991e-01   4.5585217e-01  -3.0021637e-01  -1.1823974e-01   5.1167052e-01   2.1440423e-01  -9.8086618e-01  -7.0908764e-02  -2.0321005e-01  -4.1875012e-01   4.7849939e-01  -4.8878130e-02  -5.3494251e-01   8.7054238e-01  -9.9410712e-01  -6.9997056e-02   9.6758895e-01   3.6222210e-01   6.9356206e-01   7.0010725e-01   3.6947918e-01   4.1639351e-01  -6.2759561e-01   6.1520748e-01  -3.9181937e-01  -3.1339353e-01  -9.7670567e-01   4.8755408e-01  -9.4152427e-02  -1.9536538e-01  -7.5535011e-01   8.3434592e-01   2.0416703e-01   4.7842484e-01  -5.7041114e-01  -2.6465283e-01   3.7974308e-01  -8.6314444e-01  -6.2536260e-01  -5.4449655e-01  -5.6265830e-01   7.3792720e-03  -3.6557020e-01  -9.8689538e-01   8.6242174e-01   8.0042468e-01  -9.7171156e-01   9.7189000e-01  -5.7575745e-01  -7.7219447e-01  -9.6961869e-01  -8.6973890e-01  -5.0353958e-01  -9.6251303e-01   2.0757659e-01   7.7146882e-01   1.5955827e-01   4.9799445e-01   5.6422537e-01  -8.2605187e-01  -1.6699275e-01  -6.7246358e-01  -5.4687126e-01  -3.7473097e-01   6.9111429e-01   7.6735316e-01  -5.8885616e-01  -1.3314371e-02   7.2665969e-01   4.9217429e-01   9.0952017e-01   7.5784243e-01   5.6356313e-01   9.6689104e-01   4.3868039e-01  -8.1742711e-01   6.2031658e-01  -6.1995276e-02  -3.7525417e-01  -2.1948218e-01  -8.1222378e-01   8.4017506e-01   7.3928377e-01   5.0673117e-01  -8.0471063e-01   4.9885300e-01  -1.5855989e-01   1.0285172e-01   2.7268899e-01  -3.9130339e-01  -9.3772698e-01  -6.0617472e-02   9.0787106e-01  -6.1500792e-01   5.0009408e-01   3.4656250e-01   8.8833047e-01  -7.9096387e-01  -7.0455036e-01   5.8809434e-01  -8.9464513e-01   6.6499325e-01  -4.7819357e-01  -1.5036058e-01  -2.1018694e-01  -4.5969414e-01  -1.2614444e-01   9.9786843e-01   2.7232994e-01   3.7143674e-02   9.5278842e-01  -7.3946009e-03   9.1734660e-01  -6.9492023e-01   4.8983413e-03  -8.5957728e-01   8.8651331e-02  -5.3963527e-01  -3.9470641e-01  -6.5801332e-01  -6.2555192e-01  -8.0796857e-01  -8.2674764e-01  -9.9991701e-01  -9.2817050e-01   9.5891296e-02  -2.6074577e-01   7.0061084e-01  -1.6156634e-01  -2.8983720e-01   2.6706489e-01  -8.0995334e-01  -3.0505533e-01  -7.9093510e-01  -8.1583713e-01  -3.9103638e-01   4.9722470e-01  -9.6785472e-01  -9.8142393e-01   5.2055380e-01  -1.3157038e-02  -6.9272827e-03  -9.2044175e-01  -8.8193282e-01   9.3885268e-01  -2.1430456e-01   2.1286101e-01   2.0976598e-01   5.3925304e-01  -1.8555555e-01  -9.7847310e-01  -9.3837522e-01  -9.3550647e-01  -1.0269259e-01  -4.1911817e-01   3.3211324e-01   7.6444189e-01  -6.8305287e-01   5.7810903e-01   9.4936746e-01  -8.6329314e-01   7.0699397e-01   5.0867112e-01  -4.5503343e-01  -6.4269876e-01  -2.7830440e-01   9.2277842e-01  -4.8567022e-01  -8.6443319e-01  -2.3915910e-01   6.1788584e-01   7.3577132e-01   8.3344343e-02   9.0445556e-01  -1.2085500e-01   3.4913563e-01   9.3737453e-01   6.6331962e-01  -4.5789485e-01   2.0876362e-01  -4.1941705e-01   4.8764271e-02   2.3788100e-01   2.5786783e-01  -7.4728074e-02  -4.5242683e-01  -6.5029202e-01  -6.2818086e-01   1.1425410e-01  -9.4460474e-01   7.3720091e-01  -6.4762298e-01  -3.0117839e-01  -9.6144964e-01   6.0101703e-01   5.8582445e-03   3.3039078e-01  -9.0952190e-01  -5.9303862e-01   7.9607229e-01   3.8578563e-01  -9.0352183e-01   2.1490673e-01   7.0772196e-01   8.4429731e-02  -1.6252802e-01   6.3080414e-03   1.1645112e-01  -2.1033282e-01  -2.7121834e-01   7.4555482e-01   8.4224522e-01  -7.3856387e-01  -1.6825290e-02   7.5765023e-01   1.9039503e-01   4.2581706e-01   5.3727426e-01  -7.6862107e-01  -2.8279659e-01   8.4197594e-02   5.5891668e-01  -4.7778873e-01  -7.0891520e-01   2.1346844e-02   7.2454759e-01  -3.0880179e-01  -6.4816346e-01  -4.6741467e-01   7.3074871e-01  -2.2725511e-02  -7.5653162e-01   1.7524090e-01   4.3825706e-01   9.6559708e-01   6.2846543e-01  -8.0548012e-01   4.3143631e-01   4.5482775e-02  -9.4148086e-01   3.7450578e-01  -3.0882134e-01  -5.7626087e-01   4.4513563e-01  -7.0540847e-01  -5.3605434e-01  -3.4132881e-01   7.1991849e-01  -1.7779753e-01   7.1329054e-01   6.1804647e-01  -1.3079222e-01  -2.1860415e-01  -3.5793472e-01  -7.7366970e-01  -7.2964541e-01  -7.9642962e-01   7.4150132e-01  -7.9528859e-01   5.3920120e-01  -5.2217601e-01   8.5400398e-01   7.5579429e-01   3.3775067e-01  -3.3043721e-02  -2.0067111e-01   7.8270870e-01  -3.3016751e-01   8.7996794e-01  -1.2452253e-01  -4.8519980e-01   5.1555869e-01  -8.5667056e-01   1.2582986e-01  -3.2604708e-01   1.8793802e-01   3.7040227e-01  -4.2263833e-01   4.1260480e-01   1.9985203e-01   6.1526541e-02   3.9482287e-01   5.7224714e-01  -4.3322276e-02  -3.3095123e-01  -1.4578742e-02   8.4586164e-01   9.5118367e-01   3.9013727e-01   6.1874425e-01   5.1069143e-01  -5.7039035e-01  -8.4269650e-01   8.2624227e-01   5.7707391e-02  -3.6742705e-01  -4.5991989e-01  -5.6134101e-01   6.4163517e-01   1.8354653e-01  -2.2138117e-01  -8.7520430e-01   2.4581886e-01   5.0850036e-01   6.8888295e-01   7.7562434e-01  -7.4363331e-01   8.4545072e-01  -4.9114939e-01   5.1262958e-01  -1.9210553e-01   1.2643053e-01   9.1757195e-01  -3.2911914e-01  -6.8445833e-01   1.5091516e-01   7.2430632e-01  -5.9307349e-01   5.1077891e-01   1.0688315e-01   7.2242471e-01  -8.2196848e-01  -8.8398433e-01  -8.9456644e-02   8.9220840e-01   2.8378177e-01   9.1717158e-01  -7.5543216e-01  -5.3397303e-01  -8.5607730e-01   9.5230419e-01  -1.8087889e-01  -9.5687875e-01   9.2247189e-01  -9.6437466e-01   5.9364715e-02   7.0418944e-01   5.0636392e-01   6.0586547e-01   9.2672980e-01   8.9591998e-01   3.8732175e-01   4.3391568e-01  -7.3840064e-01   2.4681228e-01  -3.4723114e-01  -5.3000916e-01   9.4224897e-01  -9.9005061e-01  -1.1026484e-01   6.2123847e-01   6.2015702e-01  -4.4417384e-01  -5.7685458e-01  -5.2309414e-01  -5.9578564e-01  -8.3507950e-01   8.4691738e-01  -4.4142135e-02  -1.9081197e-01  -5.2409043e-01  -3.4792131e-01  -6.2761894e-01   8.3897053e-01  -6.4674836e-01  -6.5781437e-01  -1.6710724e-01  -5.2008532e-01  -6.0591603e-01   5.0288222e-02   8.2648449e-01  -2.8776349e-02   7.2441328e-01   4.5475393e-01  -4.6049098e-01   7.9415933e-01   4.8234913e-01  -3.5175488e-01   1.9310550e-01  -9.5739171e-01  -8.6238018e-01   7.5783254e-01  -3.6161451e-01   1.1486370e-01   9.1350534e-01  -5.4447709e-01  -6.4354185e-01  -3.3120168e-01   8.1860484e-01  -6.0423867e-01  -6.2790983e-01  -8.8438151e-01   4.0107069e-01  -1.7875272e-01  -7.6319836e-02   2.4728354e-01  -2.0837790e-01  -1.7022994e-01  -2.2151620e-01  -3.0350928e-01  -5.9421800e-01  -2.7565287e-01  -3.8397142e-01  -6.6390174e-02   9.6391516e-01   1.2484040e-01   7.4357853e-01   4.7785995e-02  -1.5821924e-01   7.1641712e-01  -8.0165866e-01   1.8860802e-01   4.7869574e-01  -2.6096727e-01   8.3617154e-01   5.4580340e-01  -3.8418182e-01   3.8079313e-01  -8.8486297e-01  -1.5397048e-01   9.9139121e-01  -1.4261671e-01  -4.4947684e-01  -8.7831527e-01  -9.0637165e-01   1.7340506e-01  -8.4549810e-01  -9.1148827e-01  -3.3052121e-01  -2.6619130e-01  -6.0787015e-01   8.3856948e-01   3.1181043e-01   1.5711119e-01   4.3837441e-01   6.4865866e-02  -8.7676027e-01   9.0212102e-01   5.5563972e-01  -7.3057031e-01  -5.8204912e-01  -6.4393526e-01   2.4916622e-01  -2.6925357e-01   3.2365004e-01   9.8529179e-01  -4.5538478e-02  -5.7663852e-01   5.4244214e-01  -2.5729094e-01  -6.0503535e-01  -6.0966337e-01  -1.3306699e-01  -6.4946164e-02   2.2987650e-02  -7.7774283e-01  -3.9523068e-01  -7.0396032e-01  -5.3067493e-01   8.9449860e-01  -4.7352710e-01  -4.5173590e-01   7.6894776e-01   9.4285413e-01   7.9710650e-01  -4.9056743e-01  -4.8111340e-02   5.6420686e-03  -3.4665550e-01   5.4184661e-01  -9.3489044e-01   9.8411686e-02  -4.3516776e-01  -9.4783614e-01  -1.7800130e-01  -9.0162665e-01  -8.2735778e-01   1.7993378e-02  -3.1593023e-01   9.2788812e-01   9.0012726e-01   4.7156514e-01   4.0702604e-01  -9.3437743e-01  -4.8853751e-01  -5.1399695e-01   6.7976016e-01   2.7302882e-01  -9.4121226e-01  -5.5278065e-01   3.0822105e-01  -6.8948121e-01   2.5953083e-01   5.7756613e-01   5.0698720e-01  -5.1475243e-01  -6.5848220e-03   7.4090689e-01   2.7865374e-01  -6.6907956e-01  -6.5875194e-01   9.7888295e-01   1.8891587e-01   4.1143434e-01   8.5860729e-01  -6.1658689e-02  -9.2488863e-01   3.3105639e-01  -3.1608654e-01   6.7915077e-01  -1.4353897e-01  -1.8377689e-01  -5.8881436e-01   2.3850647e-01  -7.7190376e-01  -9.2385153e-01   2.2827041e-02   5.8917615e-01   8.5277712e-01  -1.6964866e-01   4.7403116e-01  -6.7555354e-01   2.0142580e-02   9.4116911e-01  -8.3804429e-01   5.5524253e-01  -6.9503057e-01   1.2450875e-01   3.8631860e-01   2.5901411e-02   6.6267826e-01   1.2176263e-01   8.9080600e-01  -7.0453169e-01  -2.5521382e-01  -9.9927336e-01  -5.7799737e-01   9.0544943e-01  -1.9393330e-02  -4.2754231e-01   6.5204563e-01   4.4301308e-01   5.4187259e-02  -9.4164132e-01   4.7750192e-01   9.1687901e-01   3.6388762e-01   2.3577147e-01  -9.7215863e-02   6.1816534e-01   4.5182017e-01  -8.5903954e-01  -4.8114372e-01  -3.3189616e-01  -9.1555242e-01   4.9359278e-01  -7.4222563e-01   2.1374097e-01   9.0442224e-01   8.3979418e-01  -5.5518300e-02  -2.9841034e-01  -7.9714666e-01   1.6540618e-01   3.3503259e-01   5.1087588e-01   7.9417340e-01  -8.4435365e-01   6.3916267e-01  -4.8375526e-01  -9.1892938e-01   4.5088158e-01  -7.3084275e-01   5.0156370e-02  -9.4256365e-01  -5.0731122e-01   3.2231992e-01   8.5098082e-01   6.0949576e-01   1.7808327e-01  -1.4437254e-01   8.9104641e-01   4.5120360e-01  -3.0234307e-01   1.7396878e-01   1.9843544e-01  -4.4645454e-02  -2.6767799e-01  -7.4200110e-01   6.3228992e-01   5.4878301e-01  -4.3899106e-02  -9.0414847e-02  -9.9294696e-01   4.6144410e-01   4.4668065e-03  -1.3483704e-01  -7.8772024e-02  -6.6242059e-02   4.6575727e-01   5.4296323e-01  -7.9380450e-01  -7.9192552e-01  -4.4572530e-01  -4.7631166e-02  -3.0342035e-01   1.3329774e-02   7.2306610e-02  -9.2571834e-01  -1.9641050e-01   9.5963315e-01  -6.8550846e-01   6.3302009e-01   8.7925915e-02  -7.8150497e-01   7.5912118e-01   2.7476885e-01  -8.3763613e-01  -6.5301201e-01  -1.5587878e-01   7.0983713e-01   9.5244199e-01  -4.2401307e-02   4.1583227e-01  -1.2643451e-01   9.6633478e-01   8.2522342e-02   2.4690639e-01   9.8597737e-01   6.8420254e-01   9.4676688e-01  -3.2461577e-01  -5.5769631e-02  -6.2228386e-01  -2.6655848e-01  -1.5922455e-01   5.4734634e-01   6.1148569e-01   4.6450120e-01  -6.1447221e-01   1.5736516e-01   5.8337760e-02  -3.6456841e-01   5.0308864e-01  -3.6832642e-01  -6.4388910e-01   4.8502002e-01  -5.0827241e-01   9.5456048e-01   2.6057572e-01   3.3499002e-01   1.9641784e-01   5.3053063e-01   3.0633459e-01  -6.0935577e-01  -7.7906129e-01   3.4905153e-01  -8.0979270e-01   1.0974257e-01   9.9692862e-01  -5.0518461e-02  -7.7620157e-01   6.6222219e-01  -5.6686547e-01   3.8908005e-01  -1.3643424e-01   2.1614027e-01  -2.7767512e-01   5.0535471e-01   2.2719247e-01   5.5448251e-01  -5.0809323e-01   1.6373093e-01   3.9489783e-02  -4.4029083e-01   5.5312299e-01  -1.2445364e-01  -7.1479049e-01   4.7412390e-01   5.5870765e-01  -5.1247173e-01  -1.4922563e-01   2.4079330e-01   8.7205939e-01   4.9448496e-01   6.0016130e-01  -3.2551272e-01  -8.8126773e-01   1.2036939e-01   6.6571662e-01  -7.7299027e-01  -3.2954061e-01  -6.7243135e-01  -2.4715379e-01  -3.3102098e-01  -5.9932934e-01  -3.6916449e-01   2.7777418e-01  -5.3152797e-01   4.7253355e-01  -9.2795148e-01  -7.9649411e-01   4.4613179e-02  -7.7273065e-01   5.9494119e-02  -3.3474200e-01  -5.1330467e-01  -3.1225274e-01   8.8997397e-01   7.8447830e-01  -5.7554264e-02   6.1776663e-01   8.1899327e-02  -9.7655290e-01  -1.8079449e-01   1.6231031e-02  -2.5881736e-01  -8.6695595e-01   1.0345755e-01   3.3916815e-01   2.6461908e-01   6.1915994e-01  -2.6429894e-01   6.2035921e-01   6.5666788e-01   8.3047708e-01  -2.9927749e-01   6.0691301e-01   5.4488250e-02  -8.0056519e-01  -9.7150070e-01  -6.1378414e-01  -3.0527827e-01  -7.7890545e-01  -9.5623977e-01   9.1729530e-01  -8.4198155e-01   4.1103292e-02  -9.2573045e-01   3.2995269e-02  -6.8610613e-01   5.2950998e-01   5.2126077e-01   3.0982437e-01  -5.5328293e-01   5.9111891e-01   8.8386997e-01  -4.9092739e-01  -7.7476620e-02  -6.2965143e-01  -8.5088813e-01  -1.7874293e-01  -3.3575955e-01   9.4945784e-01  -8.7333702e-01   1.3031514e-01  -6.4059398e-01   6.8096054e-01   1.5600589e-02   2.9024338e-01  -1.9528689e-02  -3.4615563e-01  -4.3224466e-01   8.9755021e-01   5.9396031e-01   8.5942539e-01   1.8044080e-01  -6.2121263e-01  -6.9459923e-01  -4.3949257e-01  -9.4126245e-01   6.1342568e-01   3.2952232e-01   4.1835767e-01   8.1315855e-01   2.4861508e-01   1.2563831e-01  -6.1232742e-01  -6.3681583e-01  -6.2223912e-01  -7.4608020e-01   1.7131339e-01  -6.2700783e-01   7.3584229e-01   5.4596768e-01  -8.0931211e-01   7.5233273e-02  -1.9278180e-01  -8.5767089e-02   1.7043268e-02   1.5852871e-02  -5.5465987e-01  -4.9728518e-01   2.1684390e-02   7.8160748e-01   6.9484822e-01   3.2824594e-01  -5.6350474e-01  -2.1762265e-01   9.7887055e-03   7.9776338e-01   2.5586531e-01  -2.6138328e-01   8.9589729e-01   2.5262210e-01  -8.9659187e-01  -6.2974678e-01  -2.8052196e-01   5.1108562e-01   7.3450582e-01  -9.7807009e-01  -8.4447997e-01  -5.5703972e-01  -7.7990487e-01   2.8867852e-01  -4.4252220e-01   9.7208294e-01   4.7812662e-01  -9.0411813e-01   5.5418922e-01  -8.7688145e-01   5.3489917e-01  -3.2118273e-01  -1.8486544e-01  -8.3123269e-01  -8.2950073e-01   3.5752303e-02  -1.9124386e-01  -4.9519329e-01   3.9555597e-01  -6.7861053e-01   4.3771527e-01   7.7459418e-02
  -3.6737450e-01  -3.3086679e-01  -1.6550104e-01  -6.6589702e-01  -2.0338563e-02   5.6988525e-01  -9.0770624e-01  -7.6564706e-01   1.9634094e-01  -3.8199588e-01  -7.5099571e-01  -2.5715300e-01   7.2436173e-01  -4.3718050e-02  -3.8061513e-01  -3.0920277e-01   1.1343500e-01   7.5929130e-01   6.5303589e-01   6.5379672e-01  -4.3217285e-01  -5.7044516e-01   6.1617418e-01  -5.8287196e-01   1.5956995e-01   3.8083106e-01   1.3858851e-02  -8.3961642e-02   2.6256478e-01   9.8551059e-01  -3.4834175e-01   2.8553915e-01  -4.6816091e-01  -8.5916252e-01   6.6371103e-01  -5.7716570e-01   7.6416647e-01   7.0980873e-01   7.7960166e-01   3.7601793e-01  -7.6913131e-01  -9.0277888e-01  -4.1022634e-01   3.2275600e-02  -8.9145286e-01  -3.3313380e-01  -2.7528327e-01  -4.5007648e-01  -9.3752372e-01  -1.7171344e-01  -2.0916540e-01   6.4500882e-01   4.1710754e-01  -9.3692644e-01   9.2684284e-01   7.0995426e-01   9.4946790e-01   5.9276521e-01   2.2983421e-01   2.2696903e-02  -7.0976676e-01  -5.3164841e-01  -3.6600998e-01  -7.9598549e-01  -9.1647257e-01  -5.8777545e-01  -7.3932173e-01   4.5438440e-01  -4.5070612e-01   3.1102476e-01   5.9703841e-01  -8.9445399e-01  -5.7750184e-02   9.4296968e-01  -2.1436833e-01   6.0945225e-01  -9.8058975e-01  -5.7537287e-01  -7.2782148e-01   8.6451903e-01   9.9969307e-01   4.5222362e-01   2.0871682e-01  -3.1921240e-01  -7.3118490e-02  -8.0227941e-01   8.4663602e-01   7.4168704e-02   9.1197163e-01  -8.1719426e-01   3.9879303e-03   8.7461412e-01   7.4874747e-01  -8.6389849e-01  -4.4252593e-01  -4.7595852e-01  -1.9615473e-01  -5.4474134e-01  -1.4746480e-02  -7.5734406e-01   4.7092111e-01  -8.7271264e-01   8.6844801e-01   5.4742687e-01   3.4715086e-01   8.8526268e-01  -1.4457449e-01  -2.5094521e-01  -2.7889539e-02  -8.7939211e-01   9.6828696e-02  -2.1762708e-01   1.7075035e-01   9.1275456e-01  -1.8589989e-01   3.3247497e-01  -7.9085765e-01   2.7551045e-01   4.0567830e-01   9.5012816e-01   4.9942216e-02   4.3267612e-01  -5.4659923e-01  -2.6854960e-01  -1.1048705e-01   1.2711150e-01  -8.1815489e-01   4.8713249e-01   8.3224207e-01  -6.8946739e-01   3.8735015e-02   8.9791073e-01   3.1130330e-01   2.9821928e-01  -3.1687663e-01  -2.0057224e-02  -8.1227512e-02   9.3580688e-01   4.4561654e-01  -9.5016557e-01  -9.4575745e-01   7.6216304e-01   4.2529667e-02  -2.6053491e-01  -6.2760783e-01   6.4943425e-01   3.3403314e-01   2.1492590e-01   2.4233408e-01  -7.6564362e-01   8.8788270e-01   5.9344512e-01  -9.5598801e-01  -1.9897721e-01  -4.9124427e-01   2.4394460e-01  -6.0968708e-01  -6.5276971e-01  -2.4021264e-01   1.6602083e-01  -3.8267554e-01   2.1701941e-02  -6.3404680e-01   9.2481550e-01  -8.6708883e-01  -6.1350262e-02   1.3264639e-01  -1.7724054e-01   5.7339298e-01   5.1696544e-01  -9.8659229e-01  -1.5583836e-01  -1.6239594e-01   3.8000057e-01  -8.9869773e-01  -3.5885767e-02  -4.4852565e-01   8.8890076e-01   8.0108444e-01  -8.7260596e-01  -7.3972372e-01   7.6487667e-01  -3.8897451e-01   5.6383836e-01  -6.9591923e-01  -7.3640283e-01  -5.9877517e-01   8.4401802e-01   5.2082920e-01  -6.3077257e-01   7.9651800e-01  -8.7647888e-01  -2.8688257e-01   5.4490649e-01  -2.8157358e-01   6.3251799e-01  -9.5428457e-01  -5.5885406e-01   4.6822232e-01  -2.1429338e-01  -8.1410343e-01  -3.7311882e-01   6.8302184e-01  -5.5238946e-01  -6.9895246e-01   6.9877320e-01  -8.1026274e-01  -4.8353218e-01   6.0762112e-01  -2.2463614e-01   2.8466834e-01  -6.3598553e-01   8.4370581e-01   7.6301286e-01   9.0014522e-02  -7.6733253e-01  -5.7991474e-01   7.9175068e-01  -1.6328087e-01  -4.4471724e-01   4.2459540e-01   8.3021286e-02  -1.5999197e-01  -2.2863588e-01  -3.1542249e-01   4.4678388e-01  -6.2442469e-01  -4.1786936e-01   3.9173066e-01  -4.4835194e-01  -6.8887067e-01   9.2901231e-01   2.3257665e-01   8.0595931e-01   4.4958091e-01   3.2675246e-01  -1.9813505e-01   6.9630427e-01  -9.0935300e-01   4.6929974e-01  -4.9504600e-01  -1.6749940e-01  -2.9384027e-01  -1.0725133e-01   3.0985836e-01   9.5102340e-02   5.2069981e-01  -3.5681891e-01  -1.8596393e-02   8.7540660e-01  -7.3185979e-01   9.0666236e-01   7.0738111e-01  -3.3807505e-01   3.1963152e-01  -4.8323076e-01  -8.9377121e-01  -1.8518298e-01  -6.6969791e-01   9.3876605e-01   2.1160670e-01   3.7498543e-01  -2.8463906e-01  -3.8964615e-01   9.5454378e-01  -5.3883277e-01   4.5495229e-01   4.4188305e-01   6.1007908e-01   3.7320100e-01  -3.7274290e-01  -2.6650367e-01   9.4116929e-01  -2.6378739e-01   5.7594888e-01   8.2226698e-01   7.4197559e-01   5.2454726e-02   6.2567847e-02   3.7628830e-02  -6.4979697e-01   3.4781357e-01   1.5587408e-02  -9.5185072e-01  -4.3961512e-01   9.6726282e-01  -4.6877112e-01  -4.1743647e-01  -4.6722498e-01  -4.0438220e-01   5.5316349e-01  -5.1461768e-01   4.0480545e-01   7.6647674e-01   8.4741588e-01   6.9122602e-02   5.3502985e-01  -5.6612767e-01  -5.9153418e-01   1.4418302e-02  -8.0414662e-02  -7.7297141e-01  -9.0593270e-01  -2.9872005e-01   9.1004221e-01  -4.3602045e-01  -1.2076368e-01  -7.9988445e-01  -6.1914552e-01   3.0251576e-01  -3.2795524e-01  -1.2360287e-03   9.7358176e-02  -9.5445841e-01  -8.2265452e-01   8.9017638e-02   8.5877523e-01   7.8544941e-01  -5.5339977e-01   2.5006630e-01  -6.6620032e-01   2.2001292e-01   5.6458198e-01  -8.9928047e-01  -3.5305213e-01   6.2637615e-01  -3.5580351e-02   3.6961126e-01  -3.7476654e-01  -2.6866094e-01  -5.2515418e-01  -1.7917270e-01  -9.7682986e-01  -5.3300386e-01  -6.8115653e-01   2.5664555e-01   9.5544796e-01   3.2239264e-01  -3.4510537e-01   1.7486771e-02   5.1409602e-01   6.4448558e-01   9.4841116e-01   9.6777289e-01  -4.1004637e-01   6.9392151e-01   2.0606718e-01   9.8104030e-02  -3.2392862e-01  -7.6638226e-01   6.3018661e-01   6.5351822e-01  -7.8704007e-01  -5.8504825e-01  -5.2683937e-01   2.5026677e-01  -3.2740336e-01   4.4325745e-01  -1.5561193e-01   2.5525068e-01  -4.1642645e-01  -5.0301693e-01   2.0094906e-01  -1.2167381e-01  -8.9659724e-01  -3.6197557e-01  -2.0609485e-01  -2.3234372e-01   6.6496729e-01   6.8322920e-01   4.4007931e-01   4.0081219e-01   7.3588078e-01  -9.3169189e-01   4.0396198e-01  -1.2424162e-01  -3.3097449e-02  -9.9342930e-01   9.8775163e-02  -8.0074262e-01  -7.9779740e-01  -5.5050258e-01  -6.6820640e-01   7.2412667e-01  -1.5430524e-01  -2.7709063e-01   4.0924826e-01  -6.3267705e-01   2.2643977e-01   7.0222320e-01  -8.3867264e-01  -8.8791981e-01   2.6437996e-01   5.3028202e-02   5.2962035e-01   7.1142371e-01  -6.8758576e-01   3.2027742e-01  -4.0859964e-01   9.7898991e-01   3.5201169e-01   8.7626236e-01  -3.9348166e-01   3.6188821e-01   5.5098829e-01   9.1612370e-01   2.8019401e-01   7.6510115e-01  -9.5654642e-01   1.4339654e-01  -4.4880840e-02   3.3319069e-01   7.6896773e-01   9.2895081e-01  -3.9837391e-01   2.6564262e-01   8.1652136e-01  -8.0135265e-01   7.1207761e-01   9.3746905e-01  -9.9862114e-01  -4.4016600e-01  -3.7968112e-01   2.6196583e-02   1.5435435e-01  -3.8914321e-01  -9.5009719e-02   4.0088853e-01  -1.8427833e-01  -1.9646280e-01   6.3443945e-01   4.0926576e-01  -7.0453356e-01  -6.4862117e-01  -6.7510377e-01   9.0791096e-01   9.9050591e-01  -8.5809986e-01  -7.4995495e-01   4.7754585e-01  -4.5093567e-01  -5.6168530e-01   9.7968052e-01   6.5290876e-01   8.2981819e-01   7.9867060e-01  -8.6610370e-02  -6.9676263e-01   3.6266286e-01  -2.5778104e-01   7.2832119e-01  -6.1793147e-02   5.8183474e-01  -9.5458978e-01  -5.9426642e-01   4.8455943e-01   5.0524377e-01  -9.8539715e-01   6.3379149e-01   1.0361838e-01   2.0128523e-01   5.8621607e-01  -1.5353793e-01  -7.8687110e-01  -2.1634453e-01   7.5701661e-02   1.9189951e-01   3.6976793e-01  -4.1506788e-01   2.9461777e-01  -8.2380168e-01   8.5379715e-01   6.9803265e-01   3.2954053e-01  -7.6819036e-01  -1.9037280e-01  -8.2385591e-01  -8.3465345e-01   6.0757253e-01   7.1957291e-01  -4.2534847e-01  -8.5976961e-02  -9.4632698e-01  -4.4265944e-01   4.7953064e-01  -1.6405788e-01   1.1933727e-01  -4.7759059e-01   3.9392255e-01  -5.0830872e-01   7.1774556e-01   4.4196949e-01  -5.4044396e-02  -6.3973650e-01   2.6566996e-01   7.5955578e-01   3.2501661e-01  -6.1173095e-01  -8.0879644e-01   5.2452639e-01   1.4757637e-01   3.3846584e-01   2.6243078e-01   9.0379466e-01   8.8569750e-01   2.7913383e-01   7.6626379e-01  -2.3991434e-01   1.6602648e-01   7.9531882e-01   9.9665361e-01   4.0414752e-01  -2.2075668e-01  -8.3054584e-01  -8.7410014e-01  -7.1279420e-01   7.4856567e-01  -9.9284542e-01  -8.9678519e-01  -3.8331684e-02   6.2195418e-01   4.8660482e-01  -6.0611671e-01  -7.8363978e-01   4.7042006e-01  -1.3816929e-01   9.5754616e-01  -5.0428826e-01   5.3525674e-01   1.8904048e-01  -5.6256280e-01   9.7564042e-01  -8.6496928e-01  -2.2273214e-01   1.8278225e-01  -8.6326762e-01   4.6318082e-01  -3.5388525e-01  -9.4484774e-01  -4.4169329e-01   2.8148515e-01  -1.5225214e-01  -3.3832282e-01  -2.8221393e-01   6.1912585e-01  -4.9298083e-02  -4.1383556e-01   2.8428865e-01  -4.4945068e-01  -4.2839621e-01   5.9977327e-01   3.2623848e-01  -4.5852161e-02  -9.4035416e-01  -4.7979061e-01   8.5387089e-01   1.6241269e-01  -1.8193661e-01  -3.1662745e-01   2.2179332e-01   9.4824481e-01   4.4039214e-02  -1.3605351e-01   1.3706232e-01  -1.5805260e-02  -1.3351652e-01   4.2196685e-01   4.2742800e-01   4.7246523e-01  -1.8859625e-01   3.0347805e-01   4.7290773e-01   9.1832237e-01  -3.3062180e-01   4.0307936e-01  -3.9014234e-01  -3.2440345e-01   3.7067871e-01   9.0448261e-01   1.5191342e-01  -6.4442645e-01  -9.3570062e-01  -2.8361680e-01  -6.3609218e-01   8.6042545e-01  -5.6274368e-01   4.3422085e-01   1.2794274e-01   6.6923964e-01  -7.1521119e-01   7.6122712e-01  -3.9225809e-01   5.2264159e-01  -4.8178020e-01  -5.4854613e-02  -3.2786589e-01   3.7790090e-01   2.2066628e-01   6.5318254e-01  -7.5842909e-01  -8.0975937e-02   2.7155174e-01   6.0202546e-01  -2.9791179e-01  -5.0111231e-01   1.4871111e-01  -5.0294598e-01   9.9035865e-01   5.4067823e-01  -1.6781170e-01  -5.3280973e-01   7.3413097e-01  -8.2457731e-01   4.0893872e-01  -7.7697063e-01   8.5323655e-01  -8.9655577e-03  -8.1910850e-01  -9.2016145e-01  -6.0530250e-01  -6.9304509e-01   7.2216679e-01   5.9912721e-01  -8.2342895e-01   7.7119308e-01   5.7266745e-01   6.4019992e-01  -4.2485511e-01  -8.6923332e-01   2.1886141e-01   4.6314745e-01  -1.5674184e-01  -1.7278758e-01  -4.4577417e-02  -7.4934733e-01  -8.0635758e-01  -4.8385584e-02  -7.7578120e-01   6.0408597e-01  -1.9851745e-01  -2.8723832e-01   9.9114250e-01   4.6777665e-01  -5.4763817e-01  -2.1915343e-01  -9.3012504e-01  -8.1634973e-01  -7.3332915e-01  -7.4435148e-01  -6.6224535e-01   7.8105203e-02  -6.8009038e-01   4.1846215e-01   7.6617351e-01  -6.0462519e-01  -4.4413984e-01   9.2931128e-01   9.2904151e-01   9.1071362e-01   7.3033933e-01   1.1325746e-01   1.0740175e-02  -2.2601137e-01  -7.1141682e-01   4.1093037e-01   1.9056083e-01   1.3234165e-02  -8.1948034e-01  -8.5648355e-01   5.9471450e-01   6.7038934e-01  -6.4620659e-01  -8.7781457e-01   7.8449502e-01  -8.8903147e-01   6.2577889e-01  -6.7998303e-01   6.2740251e-01   2.7109402e-01   3.5318406e-01  -9.7394071e-01   9.4257359e-01  -1.8940694e-02   2.4840930e-01  -5.0943872e-01  -6.3182207e-01   2.3656838e-01  -3.6906146e-01  -2.1530886e-01  -9.1663054e-01   2.1793646e-01   5.2357742e-01  -3.8331580e-01   5.2215875e-01  -5.9340202e-01   5.7009205e-01  -3.7062740e-01   6.5937688e-01   8.9908541e-01   5.7531660e-01  -3.5597102e-01   3.3911128e-01   9.0111976e-01   2.4402996e-01  -4.9010344e-01  -9.2629595e-01   4.5540309e-01   2.1688201e-02  -7.1254476e-01  -2.7653012e-01   9.4543221e-01  -9.1519400e-01   8.8605109e-01  -7.1591075e-03  -7.2979365e-01  -5.3589760e-01   3.0401084e-01  -3.6865502e-01  -6.6959054e-01   6.2701162e-01   4.9857571e-01  -1.3648579e-01  -9.6982242e-01  -4.8256427e-01  -6.7476760e-01   8.2998230e-01  -4.9742213e-01  -1.0078239e-01   3.5924426e-02   1.0011851e-01   5.9031283e-01   5.2936964e-01   9.9692689e-01   3.8140802e-03  -3.4486697e-01  -2.6576586e-01   6.7143458e-01   1.2663040e-01   5.7177752e-01  -4.9857519e-01   8.7287002e-01  -6.1438082e-01  -2.2744159e-01  -8.9081175e-01  -3.2036641e-01  -7.7476896e-01  -9.4366931e-02   7.4583402e-01  -8.5888594e-01  -3.6827662e-02   6.3360342e-01   4.0770252e-01   1.9397311e-01   4.1929382e-01   8.3913922e-01  -2.4601412e-01  -2.3441275e-01   4.8619096e-01   1.5092243e-01  -2.4222113e-01  -4.7040378e-01   6.1700944e-01  -4.0612901e-01  -5.9344009e-01  -6.5673910e-01   8.2716868e-02   7.1365638e-01   1.0989607e-01   9.8162530e-01  -2.3096144e-01   9.6230264e-01   1.2172502e-02   7.6359849e-02  -3.4553726e-01   5.6547537e-02   9.2931418e-01   4.4241514e-01   8.9805671e-01   5.1864824e-01   3.5849016e-01   2.0388439e-01  -9.3966704e-01   6.4393829e-01   8.1696809e-02   5.2491052e-01   2.8317780e-01  -3.3623805e-01   2.1478128e-01  -2.9065833e-01   8.7629617e-02   7.7205146e-01  -1.3545198e-01   6.5159061e-01   2.1327586e-02  -1.9939009e-01  -5.1328606e-01  -2.7825710e-01   5.3412770e-01  -7.3558707e-01  -8.7934213e-01  -6.1578285e-01   8.1156525e-01  -6.2991194e-01   9.7376138e-01   1.8075085e-01  -1.2912355e-01   4.3125544e-01   8.1511114e-01  -4.1039501e-01   7.7383372e-01   9.8634356e-01  -9.2620113e-01   7.9742477e-01   7.7778965e-01   1.4215310e-01   8.5806742e-01   8.0884014e-01  -2.6239715e-01  -3.3009791e-01  -4.0156265e-01  -7.8068396e-01  -6.7451532e-01   3.2493906e-01   8.2452267e-01   8.5519661e-01   8.9004217e-01   1.0988794e-02  -8.3806192e-01   6.1438684e-01  -5.0725488e-03  -3.2161374e-01   7.3499142e-01  -6.0737894e-01   6.0385311e-01  -5.1738065e-01  -4.5635563e-01  -3.8109199e-01   4.9003017e-01  -2.7329928e-01   7.7373042e-01  -7.1107397e-01  -9.4131980e-01  -6.5716070e-01   1.0751706e-01   7.0383527e-01  -7.6611276e-01   8.3783477e-01  -5.5249378e-01   3.6394992e-01  -7.2728029e-01  -3.8705062e-01   4.4150420e-01  -1.2632618e-01   4.7427957e-01  -2.1158782e-01   9.1093953e-01   5.2591906e-01  -6.0920617e-01   8.0260434e-01   8.9501311e-01   9.5880313e-01   8.9634917e-02  -1.2071831e-01   9.6528802e-01   3.6974854e-01   5.9854097e-01   6.8708877e-01   4.7963223e-01   3.7618510e-01  -4.2144212e-01  -5.1755721e-02  -1.4652174e-01  -6.2573226e-01   9.3729625e-01  -3.7994282e-01   8.2920481e-01   2.9906744e-01   7.3735733e-01   9.6662061e-01  -1.4367427e-01  -4.0637615e-01   4.6667994e-01  -3.0488816e-01  -3.2186471e-01  -7.0298342e-01  -3.5262716e-02   2.2894189e-01   2.7383721e-01  -5.8233212e-01   7.6301831e-01  -5.1638282e-01   6.9558587e-01   1.3144630e-01   6.5541567e-01  -2.3000597e-01   1.4066015e-01   6.3983355e-01   5.1395492e-01  -8.8214314e-01   8.9629097e-01   6.4338955e-01  -7.2498907e-01   9.9111386e-01  -6.3557734e-01  -3.8072527e-01  -2.5369853e-01  -3.9915424e-01   9.5401552e-01  -3.9206112e-01   4.6876785e-01   2.0776724e-01   3.0412917e-01   8.4739282e-01   4.2520338e-02   4.7650937e-01  -1.8287645e-01  -4.7295368e-01  -8.3140840e-01  -8.7175619e-01   4.7623381e-01   6.5969895e-02  -9.3619506e-01  -4.4584716e-02   5.0611259e-01   1.3900748e-01   2.9359956e-01   3.9497849e-01   1.7602762e-01   7.3805962e-01   9.8051801e-01   3.1169906e-01   4.6693245e-01  -3.1338071e-01   3.7811725e-01   8.7053679e-01  -8.4088947e-01  -7.7929757e-01   4.4471873e-01  -6.4332940e-01   1.5970765e-01  -3.5350138e-01   4.1104636e-01  -3.8284665e-01   7.2698719e-01  -4.3097961e-01   1.0210894e-01   7.0991284e-01   7.7668909e-01   8.6482913e-01  -4.4076940e-01  -6.4554616e-01  -1.6214875e-01   4.8779376e-01   7.7749692e-01   1.5521432e-01   9.5587431e-01   7.5691829e-01  -7.9387039e-01  -5.5401059e-01  -1.6141749e-01   6.5574053e-01  -7.9273328e-01   8.2433603e-01   6.3961067e-01  -1.1199930e-01  -5.9487360e-01   3.4947330e-01  -6.9091485e-01   5.7122326e-01   7.1905452e-01  -3.8626116e-02  -6.2754363e-02   6.9322955e-01  -4.1290428e-01  -3.2024876e-01   8.2819875e-01   7.8306474e-01  -8.2469665e-01  -6.3073928e-01  -9.0170674e-01   7.6618554e-02   3.9768534e-02   8.8970155e-02   7.0142429e-02   9.0806692e-01   5.5950629e-01  -6.8665067e-02   3.6921182e-02  -6.7071025e-02  -6.4456915e-01   4.4584964e-02  -9.7378457e-01  -3.9674668e-01  -1.1858049e-02  -5.0872127e-02  -1.2607687e-01   2.1913434e-01  -6.9669954e-01   7.3882251e-01  -1.9941178e-02
  -3.7666647e-01  -6.6655048e-01  -9.3115589e-01   9.1505871e-01   7.9777204e-01  -1.7290687e-01   9.2762640e-01   7.4365376e-01   9.6795642e-01   6.6001640e-01   4.0848223e-01   6.7614336e-01   7.7496678e-01  -9.3691107e-02  -1.3183346e-01   3.3188429e-02   9.8528525e-01  -8.8191826e-01  -5.9842514e-01   4.6529503e-01  -4.6712770e-01   1.5645799e-01  -4.2601292e-01  -2.8402024e-01  -7.0906374e-01   4.9576824e-01  -1.1602135e-01   1.6815457e-01  -5.7564027e-01   2.0496748e-01   8.1963857e-01   5.8649615e-01   2.0279978e-01   2.9896021e-01   3.9484017e-01   1.3218116e-01  -9.6157288e-01   4.6250828e-02  -5.1229641e-02  -7.4809465e-02   4.8336203e-01   4.7319121e-02   6.5755259e-01  -7.0151815e-01   2.5595196e-01   1.5169148e-01   5.1721305e-01   2.1665593e-01   9.4640093e-01  -7.6887952e-01   7.4708975e-01   6.9357443e-01   5.4066325e-01  -6.4913625e-01  -8.2672291e-02   5.1560526e-01   3.2134320e-02   5.1577492e-01  -4.1365709e-01  -7.5165455e-01   2.9535982e-01  -3.6040255e-01  -6.8883709e-01  -8.0131197e-01  -1.2299431e-02  -8.3102816e-01   2.4918542e-01  -3.3556075e-01  -4.8867324e-01   2.5151120e-01  -9.3190013e-01  -4.3760181e-01  -1.7702923e-01  -2.3191392e-01  -1.2982782e-01  -8.5811158e-01  -3.9201142e-01  -6.1301991e-01   5.2375013e-01   1.7867000e-01   4.1406446e-01  -5.8626218e-01  -4.7477995e-01  -2.1854663e-01  -1.3668695e-01   8.1828502e-01  -7.4838285e-01   8.9849169e-01  -2.7585876e-01   8.6826745e-01   2.7300990e-01  -1.5018163e-01   5.9773852e-01  -7.5207699e-01  -1.9310263e-01  -1.9826301e-01  -1.1284919e-01   8.4563146e-01   8.0385180e-02   8.6019262e-01  -6.6060159e-01   4.1444575e-01   3.7917964e-01   9.3915685e-01  -8.1268214e-01   9.9254759e-01   2.1594033e-01  -1.4238865e-01   1.6425892e-01  -8.1703246e-01   2.0798899e-01   6.0075337e-01  -6.2347303e-02   2.1620912e-01  -9.6658145e-01  -6.9333752e-01  -3.8675334e-01  -2.6164335e-01  -1.3158544e-01   5.1285608e-01  -4.2489777e-01   2.9671033e-01  -5.5817444e-01   6.7627507e-01  -7.8396740e-01   7.9089822e-01   5.7497380e-01  -7.6551860e-01  -6.7478656e-01   2.9967018e-01   7.1102783e-03   5.4064024e-01  -5.4867940e-01   6.1235599e-01  -2.3976541e-01   1.5941822e-02  -7.5932005e-01  -5.7299521e-01  -2.5419086e-02  -7.9766167e-01   4.0417163e-02   1.3843864e-01   5.0737699e-01  -9.2741991e-01  -2.8623311e-01  -8.1714658e-01  -6.2405303e-01   5.9643091e-01   2.2539975e-01  -8.0490714e-01   1.8842728e-01   4.3581042e-01  -1.3641814e-01  -7.9595112e-02  -6.8048245e-01   3.4325706e-01   9.2265843e-03   1.8384262e-01   9.4119119e-01   3.6728319e-01  -3.1268588e-01  -4.5482011e-01  -4.0095316e-01  -2.6789076e-01   7.1366331e-01  -6.6454106e-01   4.6184801e-01   2.4512629e-01  -3.1665464e-01   2.4714046e-01  -9.2610472e-01  -1.4161024e-01   4.5863840e-01  -5.5320891e-01   3.5090996e-01   2.4638727e-01   5.6233199e-01  -6.8770740e-01   2.7481874e-01   1.5571052e-01  -1.6498992e-01   8.8902091e-01  -7.4477247e-01  -1.1832179e-01  -3.5146069e-01   9.5404568e-01   3.2896719e-01   6.6756074e-01   8.1801812e-02   4.3871638e-01   6.9924146e-01   7.9853412e-01   7.4974547e-01   3.7571244e-01   1.7862173e-01   4.0294066e-01   3.8849484e-01   3.5976716e-01  -5.7523476e-01   1.3229516e-01  -7.3729847e-01  -6.4868067e-01   1.0119251e-01   8.7955752e-01   5.4872613e-01  -3.7443798e-01   6.5649409e-01   8.2168146e-01   1.3517098e-01   7.1829470e-01  -3.3220819e-01   1.5863993e-01   8.8587073e-01   8.5540640e-01  -8.5649279e-01  -2.4504278e-01   9.9839308e-01  -3.4821336e-01   5.3661063e-01   9.6512462e-01   6.4325590e-01  -4.2785809e-01   4.1280924e-01  -6.5459609e-01   8.8820969e-01  -3.3900039e-01   8.7219536e-01  -5.6802525e-01  -9.1815475e-01   7.8815336e-01   1.0271020e-01  -8.1381782e-01  -8.5957947e-01   9.0249027e-01   1.8461654e-01   4.8407506e-01   2.0080291e-01  -5.9153391e-01  -7.5356367e-01  -8.9619616e-01   2.1095496e-01   1.4475042e-01   2.5309088e-01   2.5381566e-01  -1.6417947e-01   2.3057083e-01  -4.1730734e-01   7.0047508e-01  -5.2020363e-01   5.8820823e-01   6.0025922e-02   4.5399691e-01   9.7969581e-01  -8.2258251e-01   7.8889305e-01   3.2384662e-01   4.2942799e-01  -5.4669619e-01   8.8654816e-01   8.1570477e-01   6.1472170e-01  -9.5504521e-01   7.1999606e-02  -7.4629847e-01  -1.3535223e-01  -6.9794697e-01  -4.3271727e-01  -8.2745798e-01  -6.5557249e-01   4.5168925e-01   4.9202820e-01  -2.6074085e-01   1.9172586e-02   4.8845234e-02   1.9049000e-01  -2.4454126e-02  -7.7541437e-02  -9.1887197e-02   3.0101864e-01  -5.4298607e-01  -8.6319546e-01   4.5946080e-02  -2.2936366e-01   5.3634484e-01   8.8315900e-01  -8.3935485e-01  -5.3663774e-01  -9.6483380e-01   7.2301241e-01  -3.4135264e-01   7.3737761e-01   7.8625331e-01   6.8286383e-01  -6.7118097e-01   1.8134173e-01  -7.5138945e-01  -1.5453282e-01  -2.4127696e-02  -4.7468329e-01   6.9346212e-01  -4.6839154e-01  -6.3772821e-01  -5.4649456e-01   9.9463763e-01  -2.9066329e-01   4.8405341e-01   8.0132711e-01   2.6003901e-01  -1.3484489e-01  -8.6451219e-01  -6.0286253e-01  -5.3149830e-01  -4.2071521e-01  -8.4017993e-01   6.4362353e-01  -1.4031449e-01  -2.0193065e-01   4.9206365e-01  -5.9069153e-02   7.1466926e-01   3.2967297e-01  -7.7675000e-01  -4.0889368e-01  -6.6387749e-01   2.1189211e-02   6.5886808e-01  -5.5525848e-01  -3.1494325e-01  -7.1726151e-01  -1.5215463e-01  -1.8394586e-01  -2.4855868e-01   6.7991005e-01   7.7972744e-01   8.0435282e-01  -7.0138587e-02  -1.6510437e-01   1.6986702e-02  -9.7585664e-01  -5.1198964e-01   6.4285902e-01   1.9071780e-02   9.9894674e-02  -5.0826641e-01   3.0337417e-01  -4.0948411e-01   7.6385566e-01   6.9138588e-01  -1.4981360e-01   1.4743186e-01  -6.2718966e-01  -7.3751385e-02  -7.6187753e-01   4.2671977e-01  -8.4267354e-01  -9.8576244e-03   5.9304730e-01  -4.3087752e-01   6.2098708e-01  -7.7643004e-01  -9.8324150e-02  -7.8918550e-01   5.0730662e-01   4.4241231e-01  -7.1893997e-02  -2.9490636e-01  -2.6583853e-01   1.8280311e-01  -3.5986224e-01   1.7778175e-01  -7.3717439e-01   5.8933359e-01  -5.1746486e-01  -4.2011092e-01  -5.1665000e-01  -1.6767286e-01  -7.8216628e-01  -9.2330172e-01   2.0959201e-02   3.7949046e-01   2.9179170e-01  -7.9087359e-01  -7.4677949e-01   7.3633456e-01   9.3950920e-01  -3.9299705e-01   6.4106122e-01   9.4730347e-01  -8.8934465e-02   5.4513122e-02  -1.2835091e-01   6.1461805e-01   7.2263770e-02  -4.6781994e-01   4.1560965e-01  -8.6444100e-01  -2.3287566e-01  -7.8954347e-01  -7.3998790e-01   7.2046692e-03   7.3702378e-01   9.6853819e-02   3.6405614e-01  -3.2485230e-01   1.2770640e-01  -5.5694703e-01  -3.2266348e-01   8.0040188e-01  -1.3638825e-01  -8.8096155e-01  -8.4488780e-01   7.1415987e-01  -7.8802804e-01   4.9339210e-01  -3.2143951e-01   6.9131705e-01  -1.5129091e-01   7.8663575e-01  -4.8472052e-01   6.5641062e-01   2.5042819e-02   5.2903480e-02  -1.0225490e-01   1.1956887e-01   1.4584534e-01   7.1203640e-01   3.9124160e-01  -5.5549778e-01  -3.8482540e-01  -4.6441310e-01   1.6119330e-01   3.3243743e-01  -2.2203012e-01   5.6770399e-01  -9.3726934e-01  -8.6381887e-01   7.6035955e-01  -9.2611331e-01  -9.4779414e-02  -1.6219006e-02  -9.0164727e-01   3.8314518e-01   8.4634269e-01   9.7613712e-01  -7.9986992e-01  -5.9321553e-01   9.0000755e-01  -3.2884389e-01   5.4965783e-01   6.2921313e-01  -9.6003182e-01  -4.5520906e-02   8.5916292e-02  -1.7309206e-01   6.7128437e-01  -9.0349343e-01   6.7187172e-01   8.5438272e-01  -4.0405425e-01   4.8961738e-02  -6.6035180e-01   1.7188366e-01   4.0711675e-01   3.6520880e-01   2.2744533e-01  -5.2864051e-01  -2.4345220e-01  -2.7390530e-01  -6.9831385e-01  -4.3394285e-01   3.2999018e-01   9.1238496e-02   9.7696159e-01   8.1190186e-01   4.7028644e-01  -8.9539216e-01   6.2921426e-02  -7.8771984e-01  -8.4151975e-01  -1.8051744e-01   4.0817050e-01   2.9335642e-01   3.5160678e-01  -4.0861466e-01  -4.4577387e-01   1.2560501e-01   2.8104031e-01   2.7788656e-01  -6.1998440e-01  -1.1170116e-01  -1.8705835e-01  -3.2631345e-01   9.8673083e-01  -5.7991167e-01  -4.2341239e-01  -8.0732756e-02   7.2166114e-01  -6.8581811e-01   8.5639823e-02   4.6172854e-01   3.9051680e-01  -7.1506517e-01   6.7321791e-01   9.4160321e-01   6.3739003e-01  -4.9673951e-01  -7.5751417e-01   8.0464366e-01   1.6004525e-01   7.6667649e-01   1.2186344e-01  -4.2013670e-01  -2.4373669e-01   6.8399981e-01  -7.9536007e-01  -2.3621728e-01   9.6362054e-01  -4.4578262e-01   3.5109315e-01  -6.7932525e-01   3.8805572e-01   8.2692063e-02   1.0787110e-01  -6.1234079e-01   8.9729434e-01  -5.2052306e-02   1.4160628e-01  -1.7693601e-01  -2.5499412e-01  -7.4476371e-01  -8.4535121e-01   5.3482483e-01  -9.5506840e-01  -3.5781111e-01   4.3798964e-01   2.1544083e-01   1.5675866e-01  -9.7381295e-01   1.0986431e-01  -3.6060181e-01  -3.7896188e-01  -6.0309096e-01   1.3798940e-01  -7.1806532e-01  -3.3856851e-01  -6.7305157e-01  -8.9077706e-01   9.2232841e-01   6.1591121e-01  -4.6506656e-01   9.3366246e-01   4.0620166e-01   7.4643963e-01  -7.7905011e-01  -2.9544019e-01  -7.7558476e-02  -8.4606620e-01  -5.7736352e-01  -2.5112379e-01  -2.7291067e-02  -8.6504339e-01   1.5644979e-01   2.0945352e-01   3.0156255e-01   5.2211995e-01   6.4647717e-01  -5.8794039e-01  -4.5844267e-01  -7.0005522e-01  -5.8423411e-02  -4.3207429e-01  -2.3279219e-01   4.6036501e-01  -5.8912087e-01   5.6593865e-01   1.5085722e-01  -2.6468004e-01  -9.2371581e-01   3.0110836e-02  -5.6253308e-02  -9.5186577e-01  -2.4964932e-02  -3.4540524e-01   8.5307408e-01  -5.8936320e-01   7.6075134e-02  -9.9228506e-01   9.2908842e-01  -1.4881630e-01  -2.9660357e-02  -9.9125935e-01  -1.2858512e-01   6.2357313e-01   3.4775968e-01   8.5252130e-01   6.0138967e-02  -3.8043228e-01  -5.1977456e-01  -1.0941658e-01  -3.1140672e-01  -5.1783573e-02  -3.9553721e-01  -9.4799066e-01   5.1551509e-01  -9.2755122e-01  -4.8643290e-02  -9.7882654e-01  -9.8377310e-01   1.7463643e-01   1.0170281e-01  -3.2905910e-01   3.5443151e-01  -2.8399534e-01  -1.4548363e-01   7.3923469e-01  -1.1427819e-01  -4.6022235e-01   9.9214177e-01  -1.6022426e-01   7.6190575e-01   7.3633047e-01   7.9533539e-01   1.4461097e-01  -8.8969164e-02   7.0391156e-01   3.0721290e-01   3.1538178e-01   9.4219599e-01   8.2631685e-01  -3.9065388e-01  -5.9739759e-01  -3.3416985e-01  -8.0143454e-01   7.9542717e-01  -8.6503175e-01   6.0732553e-01  -5.1283774e-01  -9.6664986e-01   7.7769755e-01   1.9935363e-01   2.1624275e-01   7.2728731e-01   1.1851653e-01   5.8250222e-01   3.5803614e-01   5.5103007e-01   5.3713875e-01   9.9693390e-01  -6.6051382e-01   3.3633425e-01   7.9613939e-01  -5.4567602e-01   4.0367148e-01  -7.5630361e-01   3.2495480e-01   7.8260628e-01   8.1584524e-01  -2.7277299e-01   7.2910964e-02   9.4752012e-01   7.0868837e-01  -3.4397918e-01  -5.5266681e-01   3.9583032e-01   1.9800909e-01   2.4202454e-01  -8.4813963e-03   5.1534686e-01   6.1362831e-01  -1.2032471e-01   7.0726055e-01   7.0266276e-01   8.1508544e-01  -9.4622534e-01  -8.9837583e-01  -3.6785587e-01   2.1537701e-01   6.6981519e-01   9.2610026e-01   2.7957122e-01  -5.2590385e-01   3.9205525e-01   9.1188151e-01   7.6999338e-02  -6.2723340e-01  -1.5033734e-01  -7.8129594e-01  -9.6550903e-01  -5.9533739e-01   6.7470586e-01   7.2463020e-01   4.7676358e-01   9.9728336e-01   1.4070339e-01   7.4095443e-01  -8.3254993e-01   3.5256876e-02   9.8529071e-01  -5.4284196e-03  -1.3466711e-01   5.2553482e-01  -2.8605367e-01   2.4463160e-01  -4.6824047e-01   4.3808925e-01  -8.5819002e-01  -7.1472245e-01   1.7283670e-01  -1.2382319e-01  -2.0090919e-01   5.7173832e-01   7.3400131e-01  -2.7048343e-01   3.2794767e-01   6.0986673e-02   3.1288472e-01   3.1796042e-01  -9.1400152e-01   9.1473967e-01  -3.0063394e-01  -1.7242984e-01   7.6767404e-01  -4.4675988e-01   3.2953149e-01  -2.8295295e-01  -2.3178988e-01  -9.6601976e-01   7.7646188e-01  -2.2643163e-01   9.9443883e-01  -2.0319065e-01  -7.7936012e-01  -9.9030216e-01   8.8452462e-01  -2.5683074e-01  -5.3605962e-01  -1.8644185e-01   4.5734454e-01   7.1567750e-02   3.6165686e-02   7.9363875e-01  -4.4655077e-02  -7.8841931e-01   7.1793504e-01   1.7391339e-01  -6.5312634e-01   5.4866057e-01   9.4487522e-01  -5.7055251e-01  -4.8299669e-01   7.3433694e-01   2.2436738e-02  -7.5256035e-02   1.9064804e-01   5.0471239e-01  -1.0915430e-01  -4.4992114e-01  -1.8849493e-01   5.3666828e-01  -9.4185778e-01  -6.8713554e-01  -3.6354964e-01  -5.3322742e-01   5.6713578e-01  -9.1768082e-01   7.4591685e-01   1.6803455e-01  -8.9139413e-01  -3.9555418e-01   3.2186164e-01   9.2852344e-02   3.5527206e-01  -9.8700768e-01   3.4158856e-02   8.8406056e-01  -4.2889938e-02   6.2150129e-02   4.2734853e-01   6.8474202e-01   3.9352670e-01   1.8162315e-01   5.3562984e-01   1.3936154e-01   1.6536515e-01  -1.8081278e-01  -7.8769357e-01  -2.4763684e-01  -8.1852230e-01  -2.9628213e-01   8.3427023e-01   7.8240672e-02   8.2789852e-01   8.8803310e-01   1.0362393e-01  -5.8953530e-01  -2.4911668e-01   3.1281300e-01  -4.1917278e-01   7.3861306e-02  -6.0337591e-01   9.5435234e-02   8.8880141e-01  -2.2278907e-02   4.8584772e-01   1.8017923e-01   9.5639916e-01  -7.7614677e-01  -1.9119360e-01   2.6095289e-01  -6.8581824e-01   9.0281265e-02   6.1824556e-01   2.0596230e-01  -5.3855937e-01  -7.2612805e-01   1.0162352e-01   6.6283886e-01  -3.2901864e-01   6.4497746e-01  -3.1171423e-01  -9.9427421e-01   9.5274254e-01   1.6544191e-01   1.4885291e-01   9.4684957e-01   7.0281380e-01   5.2219296e-01  -1.4260037e-01  -2.0876051e-01   1.8614357e-01  -5.6996999e-01   9.7438443e-01   3.4071618e-01   2.2612464e-01   7.6417177e-01   3.9187279e-01   7.7186669e-01   6.4841558e-01   9.5557185e-01   3.2108616e-02  -8.9546101e-02   8.1007045e-01   7.2861577e-01  -8.6784707e-01  -8.9177216e-01   4.8642561e-01   2.3440160e-01   7.4824496e-01  -4.1224074e-01   6.0785759e-01   1.8101202e-01  -6.1456355e-01   1.0685164e-01   3.0625868e-01   2.6521397e-01   7.0363670e-01  -4.7326992e-01   6.5746207e-02   6.7454973e-01  -5.4056228e-01  -4.6969691e-01  -5.8121078e-01  -8.4198753e-01   4.4996613e-01  -9.8034066e-01   1.1453064e-01   6.4839168e-02   6.0484137e-01   5.0027797e-02  -4.6988266e-01   8.4920257e-01  -7.2967279e-02  -6.3174760e-01  -6.8247329e-01   6.0528465e-01  -4.4397195e-01  -7.8829241e-01  -6.0287734e-01  -6.4725521e-01  -3.6039826e-01  -5.5323882e-01  -1.8028784e-01  -4.8512529e-01   1.7413907e-01   1.2745350e-01  -8.8416846e-01  -2.3378058e-01   5.7787534e-01   4.6250841e-01   4.9289872e-01  -4.2885233e-01  -3.4357125e-02   1.0572982e-01   1.1198050e-01  -1.4853389e-01  -5.6671230e-01   5.7301839e-01   4.9282645e-01   4.5140469e-01  -7.0009223e-01   4.5613159e-01   3.2605139e-01   2.7366702e-02  -8.9453292e-01   7.1709661e-02  -1.1620507e-02   2.2213119e-01  -2.2069696e-01  -6.7079309e-01   3.7733713e-01  -9.8547279e-02   6.8392141e-01   8.8206706e-01   7.7072077e-01  -8.9983812e-01  -1.3202937e-01   7.5901988e-01   5.1455650e-01  -7.2338681e-01   4.4167671e-01  -5.0497530e-01   3.2208427e-01   7.6693100e-01  -3.0824841e-01  -2.6985508e-02   1.9210967e-01   5.4530770e-01  -4.0867729e-01  -8.0522723e-01   5.2745379e-01   8.7812767e-01  -6.7968738e-01  -3.3760193e-01   1.5805062e-01   5.7141970e-01  -5.3081908e-01  -3.6573078e-02   8.7864096e-01  -6.9773281e-01  -3.4594212e-01  -6.0545589e-02  -1.4045800e-01   3.5925346e-01   5.5641835e-01  -7.0281944e-01  -9.7682999e-01   4.9951035e-01   6.5408911e-01  -3.4691646e-01  -7.5586425e-02  -5.4824225e-01  -6.6410960e-01  -4.7758342e-02  -8.9192663e-01  -3.4565253e-01  -7.0504328e-01   9.3551262e-01  -1.4814085e-01   3.9592081e-01  -6.6495044e-01  -5.9396767e-01  -9.9827105e-01  -3.3075607e-01  -9.0769321e-01  -5.2166900e-01   6.6775557e-01  -5.2102463e-01  -8.2946192e-01   7.5743019e-01   6.2644716e-01   2.1668815e-01   3.3571928e-01  -5.9123290e-01  -8.6546735e-01  -3.8987866e-01   7.8353905e-01  -2.4569946e-01   6.0750175e-01   1.2183077e-01   4.5636474e-01   8.5660186e-01   1.4008269e-01  -3.8254984e-01   8.9401363e-01  -5.6232563e-01  -2.6097666e-01   9.3205420e-02   6.6634700e-01   2.8266921e-02   5.7874828e-01  -6.0435287e-01   2.1560084e-01   4.3110394e-01   7.0480022e-01   5.8707349e-01   9.4881454e-02   7.2179716e-01   7.3563125e-01   3.4822515e-01  -2.4790183e-01
  -4.2824926e-02   1.1601555e-01  -2.8569791e-01  -6.5487461e-01  -6.1147450e-01   4.7926214e-01  -3.3950762e-01   3.2597739e-01  -1.1794348e-01   2.6901465e-01   1.4463003e-01  -7.3672761e-01  -5.0096609e-01  -5.4336054e-01   4.6477360e-01   3.2731058e-01  -4.3461724e-02   2.8943708e-01   4.6563148e-01   4.8639077e-01  -1.2540823e-01  -1.6390964e-01   4.4792190e-01  -5.1758862e-02  -8.8997398e-01   5.5578303e-02   2.4836109e-01   3.4510511e-01   7.8551897e-01  -8.1188630e-01   5.4921364e-02  -3.1766923e-01  -5.1574457e-01   7.6284708e-02  -3.3310270e-01   1.0889522e-01  -9.2959040e-01  -4.0845758e-01   4.2003269e-01   6.5104123e-01   9.3372070e-01   9.3882107e-01  -4.8153357e-01  -7.7033386e-01   9.4293575e-01  -8.3460802e-02  -4.7926315e-01   5.5908582e-01  -8.1500804e-01   2.4063460e-01  -6.6582194e-01   9.9364090e-01  -2.8297978e-01  -6.6926980e-01  -8.6367198e-01   1.5587222e-01   1.7424748e-01  -6.0440844e-01   9.8199026e-01   7.3407005e-01   9.2180840e-01   5.5452141e-01   6.5447068e-01   6.9555868e-01   8.5160729e-01  -4.4845644e-01   7.1822397e-01  -6.8380216e-01   8.3341594e-01   4.0368378e-01   7.5834298e-01   8.1703753e-01  -2.4252607e-01   3.3131455e-01   6.9608218e-01   6.9210465e-01   9.1472779e-01  -1.2592019e-01  -3.1817909e-02   6.0343947e-02   2.6171028e-01  -8.7247551e-01  -6.4353482e-01  -1.7585612e-01   4.1507247e-01   6.1946207e-01   5.5199564e-01   8.3649620e-01  -5.0293738e-01  -5.9128993e-01  -2.3690959e-01  -8.4310449e-01  -9.7066328e-01  -1.9227243e-01   6.8476357e-01   4.9995037e-01   8.7688370e-01   7.6305382e-02   4.2548354e-01   4.2926435e-01   2.5616183e-01  -2.4683847e-01  -6.4519562e-01   5.9891576e-01   1.3765556e-01  -1.3333681e-01  -2.5256045e-01  -4.2055833e-01  -4.4489721e-01   6.7278231e-01   9.1633011e-01   2.9747203e-01  -7.4464167e-01  -5.6896781e-01  -2.6545897e-01  -5.5491232e-01  -4.5962728e-02   3.7452169e-01   8.7382633e-02  -7.0931771e-01   3.4379907e-01   6.7447244e-01  -2.0038526e-01   6.6036943e-01   7.2364484e-01  -9.6659283e-02   3.4421682e-01   1.5337492e-01  -9.1266099e-01   1.4350236e-01   3.7086675e-02   8.4745870e-01   4.3550367e-01   1.3494628e-01  -6.1561200e-01  -5.4451032e-01   5.6669375e-02  -9.0823027e-01   9.1993515e-01   9.2194658e-01  -6.1851101e-01   1.4541629e-01  -8.5946329e-01  -9.8465536e-01   2.0754537e-01  -1.6177674e-01  -7.5947757e-01  -3.7912386e-01   7.2554712e-01   3.5376368e-01   3.8495485e-01  -3.0372708e-01  -5.8932386e-01  -3.6361672e-01  -5.5623589e-01   1.0738617e-01  -1.4375029e-01  -8.1633243e-01   1.2097482e-01  -1.2140597e-01  -7.0834758e-01   4.8958364e-01  -2.9171913e-01   9.7306677e-01  -1.8656458e-01  -2.7340012e-01  -4.5030528e-01   3.5978267e-02   3.5956469e-01  -2.5668683e-01  -5.7891211e-01   3.3954369e-01  -4.6368181e-01   4.7521553e-01   6.4974963e-01  -6.0652764e-01   7.7959753e-01  -7.8676479e-01   9.5388024e-01   4.3519152e-01  -4.8389810e-01  -8.9876846e-01  -2.2494214e-01  -9.6313960e-01   9.4180102e-01   5.3351582e-01  -4.3675634e-01  -1.5028511e-01  -9.2069475e-01  -4.5700514e-01   4.8193696e-01  -4.3700203e-01  -8.2800012e-01  -3.4400429e-02   7.6271842e-01  -4.6735818e-01   5.4737718e-01  -7.9940704e-01   7.8021639e-02  -8.2425361e-01  -9.1952511e-01  -7.2677171e-01   4.4706831e-01  -5.0776603e-01   4.3031883e-01   9.3625025e-01  -4.8570542e-01  -6.0676138e-01   8.4520356e-01   5.8732908e-01   6.8423944e-01   3.4579500e-02   6.9915539e-01   8.7908601e-01   8.6111080e-01   3.0602681e-02   6.0475314e-01   9.5555244e-01   4.1005771e-01  -4.6291132e-01   2.2939700e-01   6.0591182e-01  -9.4530686e-01  -8.5276609e-01   6.6037092e-01  -7.7122896e-01   9.8946612e-01   5.3272929e-01   8.3905943e-01   5.3566919e-01   5.0241155e-01  -8.0639695e-01  -1.8854118e-01  -4.6279319e-01  -9.6663223e-01   4.4520151e-01   4.5037933e-01  -9.0929398e-01   6.4834815e-01   2.9706295e-01  -3.1837102e-01   1.5337333e-01  -1.8526145e-01   2.1169481e-01  -7.3490973e-01   4.7800524e-01  -6.9519811e-01   1.5383767e-01  -5.0840371e-01   5.0546642e-02   2.4375158e-01   1.2076714e-02   1.4944280e-01  -2.6254154e-01  -6.0165042e-01   9.7949664e-01   6.8404710e-01   1.9566625e-01  -7.9983204e-01   4.0061435e-01  -3.9065680e-01  -5.0671427e-01  -1.7254659e-01   9.8827800e-01  -4.9608015e-01   3.0229035e-01   1.5608423e-01  -9.9837115e-01   4.0141694e-01   1.4817113e-03   8.6423196e-01   4.0302506e-01   9.7366910e-01  -8.2588191e-01  -6.3505074e-02  -2.9194764e-01   9.4298014e-01   7.0660912e-01  -4.4737412e-01  -4.3160707e-01   9.2662906e-01  -8.5481979e-01  -1.9643919e-01  -6.3521324e-01  -7.5826438e-01   2.4117613e-01  -6.3020474e-01  -8.9990630e-02   1.6981501e-01   4.8932192e-03   5.5243248e-01   7.4042225e-01   8.2655956e-01   4.3782396e-02   2.5000363e-02  -8.5806795e-01   2.5143821e-01  -4.0296056e-01  -5.6401460e-01   7.8093952e-01   9.2595840e-01  -6.3514399e-01  -6.8840321e-01  -6.2857993e-01   3.3391768e-01  -1.5998203e-01   5.6847814e-01  -4.2354373e-01  -4.3659129e-01  -2.8670461e-01   2.0060654e-01   4.4409020e-01   6.0165217e-01  -9.5204542e-01  -4.5309952e-01  -8.9056154e-01   2.1793738e-01   6.7235038e-01  -3.7365986e-01   2.5857167e-01  -8.4680360e-01  -8.0067595e-01   6.0722864e-01   3.3239725e-01   9.1276963e-01  -6.6495992e-01   8.0615174e-01  -5.2161491e-01  -3.2848325e-01   6.4966867e-01   1.1008500e-01   4.9465120e-01  -5.6720949e-02  -6.6440905e-01   4.7036419e-01   7.6985084e-01  -4.1474629e-01  -8.1446663e-01  -3.9805050e-01  -3.5833524e-02  -8.4131671e-01   4.4228409e-01  -8.9659437e-01   3.1079888e-02   2.8270307e-01   4.4582237e-02   6.7081512e-01  -8.1459581e-01  -8.0711882e-01  -1.2114908e-01  -1.8227362e-01  -7.9298977e-01   8.0615788e-01   1.3336480e-01  -2.4338700e-01  -7.8592992e-02  -8.1180447e-01   2.1176680e-01  -8.6112512e-01   4.3045660e-01  -3.0445845e-01  -5.9503751e-01  -3.2256221e-01  -3.5249825e-02   2.1580089e-01  -9.3670026e-01   1.5500605e-01   6.4596212e-01  -6.0182829e-01   1.2101912e-03   1.4201341e-01   3.7223776e-01   7.4925963e-01  -2.2280465e-01  -5.3009187e-01  -7.0857788e-01   9.6727142e-02  -1.1037673e-01  -4.5825540e-01  -6.4827327e-01  -1.0338347e-02  -1.8032684e-02   3.4794780e-01  -8.3603523e-02  -7.2381084e-01  -3.7426670e-01  -4.7638214e-01  -1.1008327e-01  -3.8461891e-01   9.6904243e-02  -8.6740103e-02  -5.8772827e-01  -7.9548201e-01  -3.2049488e-01  -7.4436991e-01  -7.9900212e-01  -8.7163215e-01   2.7607865e-01   3.7953914e-01  -1.6617001e-01  -6.5599795e-01   3.1096784e-01  -1.8322317e-01   4.5424645e-01   8.9081762e-02  -9.5329450e-01  -3.1947026e-01   8.6285387e-01   2.3024526e-01   7.8335941e-01   4.8375171e-01   9.0562832e-01   3.7181203e-01   1.7893183e-01  -6.2302482e-01  -1.8648948e-01   1.2422756e-01   9.2958066e-01  -9.8835587e-01   1.2927048e-02   5.1959858e-01   1.9471693e-02  -6.6675005e-01   9.8750453e-01   5.0720182e-01  -2.3486906e-01  -1.7057518e-01  -3.8152723e-02   1.1832099e-01   4.9200123e-02   4.5859993e-01  -7.7974114e-01   6.7765976e-01  -7.6181006e-01  -4.9479477e-01   7.8197359e-02  -1.5515459e-01  -7.5533021e-01   1.6244767e-01   6.0415185e-01   9.0709408e-04   1.4890946e-02   5.9825639e-01  -3.3089947e-01  -2.2425466e-01   6.7634563e-01   1.1440091e-01   8.9519554e-02  -2.2933733e-01   9.9892406e-01   7.7782795e-01   4.3472447e-01  -3.0523611e-01   9.3986053e-01   6.1699345e-01   7.9340988e-01   5.7709379e-01   2.0852269e-01   8.0406886e-01  -9.5968987e-03   4.8603663e-01  -6.5437865e-01   3.9367623e-01  -2.1741931e-01   2.8745217e-01  -9.8718437e-01   5.8272016e-01   7.2813807e-01  -7.5678647e-01   5.2643258e-01   6.6086447e-01   6.5567349e-02  -6.8017386e-01   8.0304510e-01  -4.8261216e-01  -2.0577451e-01  -2.0308914e-01   4.1931698e-01  -2.4869949e-01   8.6827891e-01  -2.1653218e-01  -3.0183648e-01  -2.5634021e-01  -1.2941398e-01  -1.1726371e-01  -3.4379478e-01  -7.0208564e-01   3.6147453e-01   7.9316565e-01  -7.1691877e-01  -4.8886024e-01   9.8647242e-01   2.5204794e-01   4.6565131e-01   4.5447995e-01  -3.3834275e-02   6.2947496e-01  -7.5767397e-01  -1.1088807e-01   3.3694455e-02  -9.3489885e-01  -3.1516493e-01   8.6533129e-02   2.9942385e-01   8.8613158e-01  -1.7830914e-02  -1.5666067e-01   1.8588561e-01  -6.4942383e-01   4.9045746e-01  -5.9035039e-01   7.2841251e-01   3.5132531e-01  -7.8028832e-01  -3.4424708e-01  -5.4785141e-01  -9.5308590e-01  -8.3758685e-01   4.5223467e-01  -9.4702098e-01   5.3019277e-01  -3.5373721e-01   1.9157270e-02   6.5848038e-01  -7.8137190e-01   7.4629357e-01  -8.0062555e-01  -9.6531304e-01   9.9344276e-01  -5.7427685e-01   1.2772438e-01   9.6945182e-01  -8.6425249e-01   4.6537819e-01   2.2698286e-01   4.7815971e-01  -9.9719472e-01   1.4907122e-01   1.7380242e-01  -1.8561978e-02  -7.9930774e-01   4.6032611e-01  -6.7500259e-01  -5.2888671e-01   7.7942842e-01   2.7170902e-01  -3.6978497e-01  -1.8508979e-01   5.5997032e-01  -9.1149361e-01  -5.2942029e-01   3.9863205e-01  -6.3958176e-01   1.0364860e-01   4.4867884e-01   4.0547684e-01  -4.7523599e-01   5.5996021e-01   2.0478315e-02  -2.3477331e-01   2.7693387e-01  -7.4248734e-02  -5.9244031e-01  -2.5737238e-01  -2.4599322e-01  -7.7802106e-01  -2.2659828e-01   1.6223961e-01   3.9568059e-01  -1.1360076e-01  -3.5025863e-01   7.9687136e-01   4.8394057e-01   3.6268310e-03  -1.0549804e-01  -1.2845003e-01  -9.8824320e-01   7.5699526e-01   8.6915720e-01  -4.8257046e-01   7.8947410e-01   5.0321250e-02   9.5342496e-01  -2.0702424e-01  -7.1591052e-01   8.7982345e-02   8.6849652e-01   7.8933428e-02   1.9160309e-02   9.2111643e-01   5.5275009e-01   3.3733920e-01  -2.5626726e-01   6.3363326e-01   6.4363762e-01   1.0952472e-01  -3.0409811e-01  -8.3160709e-01   5.8044256e-01  -3.3472743e-01   9.2068560e-01   7.5662871e-01   4.7835548e-01  -8.4353941e-02   9.9235660e-01  -8.3330607e-01   1.0025790e-01   5.7448630e-01  -7.0149404e-01  -2.7763281e-01  -1.6679228e-01  -9.7020251e-02  -6.1797245e-01   7.1927234e-01   4.2853238e-01  -1.0300644e-01   2.4220896e-01  -4.5032736e-01   6.3986217e-01  -4.6438112e-01   8.1800867e-01  -5.1980270e-01  -4.5149651e-01  -1.4588523e-01   6.0625376e-01   1.9770887e-01  -4.1403006e-01   2.8061690e-01   8.5057714e-01   5.0379809e-01   3.2923696e-01   7.1644621e-01  -4.4668312e-01   2.9506480e-01  -6.3658405e-02  -9.5157664e-01  -4.6674847e-01  -7.1114477e-01   3.8558673e-01  -8.6487878e-01   4.0888253e-01  -2.2332557e-01   4.1776105e-01   1.2766069e-01   6.1454728e-01  -5.8850908e-01  -3.0331691e-01  -9.7511248e-01   5.3763292e-01   8.1451763e-01   3.0975693e-01   6.1131087e-01  -2.5058633e-02   7.9737814e-03  -3.6052693e-01   9.5570099e-01  -2.9493323e-01   2.2335066e-01  -4.9733221e-01   8.5414798e-01   4.8884846e-01  -1.9753658e-01  -3.8955246e-01  -1.5700632e-01  -3.8684769e-02   6.1762190e-01   3.4632922e-03  -9.1197819e-01   4.4969631e-01  -4.1727638e-01   1.4847091e-01  -3.1008331e-01   2.8949076e-01   4.3644642e-01  -7.7789132e-01   5.4266199e-01   5.2428111e-01  -1.8121538e-01  -3.5815017e-01  -9.1009406e-02  -3.2986884e-01   9.9694865e-01  -4.0786370e-01  -3.0938934e-01   6.2301280e-01   9.2602959e-01   8.2722703e-01  -5.2313659e-01   2.7731526e-01  -2.9962987e-01   4.9609713e-02  -1.5224849e-02   1.0505502e-01   6.4321398e-01   9.4386510e-01   7.9105195e-01  -9.5395219e-01  -1.6880460e-01   6.5545639e-01   5.9993299e-01  -8.3267477e-01  -1.1150009e-01   7.9538581e-01   9.1804946e-01  -5.4616570e-01   8.2324807e-01   4.9842213e-02   7.1189400e-01  -4.8348252e-03  -6.1573920e-02  -7.1917246e-01  -9.2498372e-01   1.1137781e-01   5.0839321e-01  -5.5563177e-02  -6.1034743e-01   7.0895083e-01  -5.5657475e-01   5.3584047e-01   7.1239568e-01  -1.6813559e-01   1.9804783e-01  -9.2313107e-01   6.5480924e-01  -2.2213878e-01   9.1769920e-01  -5.8468099e-01   9.0393836e-01   8.3215121e-01  -7.7479515e-01  -8.9320693e-01   8.4210485e-01  -8.5051422e-01   7.1541365e-01   2.1579378e-01  -5.8965217e-01  -7.3827836e-01   3.4705330e-02   5.8983727e-01  -3.1685631e-02   2.8479569e-01  -1.6681625e-01  -9.7689512e-01   6.6235541e-01  -9.8819656e-01  -9.4096026e-01   9.4109641e-01  -5.0033242e-01   8.9273613e-01   7.3045538e-01  -9.5813256e-01  -4.9784935e-01  -8.8593806e-01   1.2634033e-01  -1.0360270e-01  -8.8693238e-01   3.2056517e-01   1.7301975e-01  -6.2894594e-01   5.6656510e-01   1.3702161e-01   6.5573129e-01  -5.1616073e-01   5.0022145e-01   5.0990002e-01   6.6098238e-01   2.3535107e-02   1.0810186e-01   3.2718320e-01   5.2785759e-01   7.9040120e-01  -1.6568764e-02   2.1364893e-01  -5.7927232e-02   5.7903161e-02   3.1426080e-01   6.9268793e-01   7.3774535e-01   6.7404603e-01  -9.2473581e-01   6.1383294e-01   4.6095214e-01  -6.1246265e-01   9.2746853e-01  -8.2627013e-02  -9.0535721e-01  -2.3596292e-01  -7.5503880e-01  -1.5908653e-01  -8.3985636e-01   2.8521079e-02   8.2436381e-01  -6.8738933e-01   4.2428728e-01   1.7665115e-01   2.1940920e-01  -1.3119372e-01   3.5312807e-01  -4.1150331e-01   4.9344714e-01  -5.3591228e-01   9.1956594e-01  -9.6109438e-01  -2.3950422e-01  -5.5743326e-01   5.3685724e-01   7.4910807e-01  -7.8885784e-01  -1.4662633e-01  -1.3642642e-01  -4.7889130e-01  -4.8328062e-01   3.0885245e-01  -6.7626714e-01  -6.5054718e-02   6.1434460e-01   8.0386338e-01   5.1914290e-01  -1.7783223e-01  -4.8813579e-01  -6.9002653e-01   3.6780433e-01  -5.1956096e-01   8.7651827e-02  -4.3868859e-01   2.4307158e-01  -1.9763624e-01  -2.3759684e-01  -5.8371997e-01  -1.2708547e-03   4.4175432e-02  -3.3543737e-01   4.0889267e-01  -2.0539835e-01  -1.2306267e-02  -2.3391070e-01   5.7118809e-01  -8.5650587e-01  -4.2102234e-01   5.9598442e-01   5.8846240e-01  -6.3547148e-01  -6.9833197e-02  -7.5369379e-02  -5.9991542e-02   7.3071606e-01  -1.9523410e-01  -7.2576709e-01  -5.2808195e-01   1.5098602e-01   3.0216277e-01  -8.2881534e-01  -8.8066113e-01  -4.6072421e-02   3.2061520e-01  -2.8688604e-01  -2.9310827e-01   6.2973677e-01   7.5051360e-01   8.2571687e-01  -3.4924106e-01   5.7760202e-01   6.1821420e-01  -4.6403286e-01   6.4140458e-01  -7.9804615e-01  -4.9089793e-02   5.4352425e-01   9.0029713e-01  -9.7757428e-01   8.6268803e-01  -6.7845886e-01   7.7087239e-01   3.7258210e-01  -8.0841308e-01   2.6751671e-01   7.5714972e-01   5.2393910e-01  -3.6058469e-01   3.1789703e-01  -9.7385700e-01  -2.8612209e-01  -2.1329761e-01   5.7994753e-01   5.9586957e-01   9.2940584e-01  -6.6885318e-02  -1.8529811e-01   8.6041288e-01  -2.8392952e-01  -5.7970912e-01  -5.1165450e-01   4.7001400e-01   9.8283728e-01   5.2689477e-01  -1.0090735e-01  -1.5094482e-01  -4.9696825e-01   6.3372106e-02   1.5808502e-01   9.8803310e-01   1.9567888e-02   9.2531650e-01   6.4748528e-01   2.7227452e-01  -5.7960518e-01   3.4607600e-01   9.7461308e-01  -2.9116366e-01   7.3447738e-01  -4.6160878e-03   9.3415795e-01  -8.1492903e-01   4.1971060e-02  -1.0702215e-02   6.7580696e-01   5.6966183e-01  -7.5660256e-01   6.2145694e-01   1.6310829e-01  -7.9622649e-01   4.7557376e-01   1.4901861e-01  -9.7509595e-01   8.1644373e-01  -2.4028165e-01   9.4394274e-01  -7.9053038e-01   1.4298741e-01  -4.8629283e-02   2.7447258e-01   4.1555339e-01  -8.8799163e-01   9.9748836e-01   3.6452232e-01  -7.5173358e-01  -9.5942576e-01  -3.0365444e-01  -8.9887758e-01  -6.9909636e-02  -2.3819215e-01  -5.2887626e-01  -8.0128903e-01   1.6588258e-01   9.9822109e-01  -7.4515625e-01  -7.9964705e-02  -5.3332040e-01   1.7212724e-02   5.9218253e-01   8.9145904e-01   4.0068203e-01   3.6599498e-01   3.9964553e-02  -2.9693574e-01   7.6084331e-01  -4.2437296e-01   3.7920575e-01  -1.8938181e-01   8.3155667e-01  -7.5145279e-01  -1.0932619e-01  -3.0403254e-01   2.4381178e-01   3.3353742e-01  -2.0448978e-01   9.7808255e-01   3.2387607e-01  -2.9257853e-01   7.9308514e-01  -8.7375070e-01  -8.4735203e-01   3.8776630e-01   5.9206521e-01  -5.4787067e-01  -3.9536327e-01  -7.6151438e-02  -7.3509935e-01  -4.2136070e-01  -8.1242609e-01   5.8758856e-01   1.1561257e-01   6.1515497e-01   1.0954979e-01  -8.3718144e-01  -7.4871442e-01  -2.4393415e-01  -2.1182581e-01  -8.7248654e-02  -8.7256679e-01  -6.5276998e-01  -5.1729764e-01  -7.9897579e-02   1.2620862e-01   9.3825724e-01  -3.0139619e-01  -5.4608845e-01   3.7750124e-01  -5.8938569e-01  -9.5558408e-01
   9.9417726e-01   5.9330454e-01  -2.1953769e-01  -8.1750390e-02  -4.5753359e-02   8.9442393e-01   1.3958005e-01  -6.1054091e-01   3.9199263e-01   4.8178267e-01  -4.1891996e-02   2.8980399e-01  -3.7034969e-01   4.2764728e-01   2.5213551e-01  -5.3116494e-01  -4.0220216e-01  -4.6854682e-01   7.5950538e-01   4.3742308e-01   5.2283002e-01   3.3518055e-02  -7.4036844e-01  -8.9579536e-01  -1.6840961e-01   8.9209837e-01  -7.8179996e-01  -2.4567477e-01   5.1668536e-01  -2.0566261e-01   4.5076996e-01   9.0111067e-01  -5.0136720e-01   2.5929763e-01   3.6648604e-02   2.8626605e-01  -5.9769903e-01  -5.8884598e-01   2.1265858e-01   3.3913136e-01   1.8236514e-01  -4.7152884e-01  -2.2094497e-02   2.6242172e-02  -9.2559641e-01   3.9514430e-01  -9.9073887e-01  -1.0514582e-01   5.3119899e-01  -6.1258737e-01   9.0231018e-01  -1.6565363e-01   7.9999104e-01   6.8166932e-01   2.4138303e-01   3.3227277e-01   7.6862537e-01   6.6873813e-01  -6.8405165e-01   9.7530982e-01   2.7275865e-01   6.8542888e-01  -6.4221516e-02   5.0675600e-01  -1.0208720e-01   6.8891272e-01  -6.6427971e-01   6.6434255e-01  -9.7932039e-01   3.8031018e-01   6.3733737e-01  -1.6912453e-01   2.9055766e-01  -1.0229968e-01  -5.2858112e-01  -3.7255118e-01   4.1014776e-01   8.4199720e-01  -7.7207841e-01   9.9650421e-01  -1.3843100e-01  -5.0364236e-01   8.8877078e-01  -8.0831899e-01  -2.1824348e-02   2.0624145e-01   7.9681937e-01   2.2272464e-01  -2.6205783e-01  -4.8156680e-01   5.3567710e-01   7.3305059e-01  -8.1493955e-01  -1.7951556e-01  -1.5389167e-01  -4.2872893e-01   2.0220721e-01   2.7068592e-01   4.0018507e-01   4.1272881e-02  -6.5001300e-01  -1.6570381e-01   7.4988726e-01   4.3060116e-01  -1.6445855e-01  -9.4055647e-01   7.8745039e-01  -3.6734389e-01  -4.7416047e-01  -8.5444966e-01  -5.5751374e-01  -9.3497468e-01  -3.9571960e-01   9.7123998e-01   7.3601015e-01   7.5654654e-01   7.3134919e-01   3.9946270e-02  -4.5802888e-01   5.5325718e-02   1.9546174e-01  -1.7518624e-01   6.9949153e-02   8.5810528e-03  -4.6700193e-01   5.8184585e-01   4.0596576e-01   6.1133792e-03   4.6894874e-01   7.6408401e-01  -6.4367759e-01  -7.9751969e-01   2.8871390e-01   4.2994770e-01   2.6122460e-01   5.2827003e-01   1.1672703e-01   4.1337298e-02  -1.5687448e-01  -6.3385017e-01   5.5931173e-02   7.4225577e-01   5.5533530e-01   7.4656425e-01   7.4959131e-01   6.4637948e-01   6.8522078e-01  -4.4720403e-01   4.7046389e-01   2.1543635e-01   3.4093797e-01  -6.0976132e-01  -6.4708767e-01  -6.7860026e-01   3.3093832e-01   4.4862211e-01  -7.4466167e-01   3.8805442e-01  -9.1815513e-01   8.7845970e-01  -8.8630062e-01  -4.8243768e-01   7.1514982e-01   8.1881224e-01  -9.9319026e-01   4.7536899e-01  -4.8554892e-01   5.3541870e-02  -7.1966646e-01   7.3870813e-01  -7.2123847e-01  -2.4568196e-01  -2.9063727e-01  -2.9243804e-01  -9.5101816e-01  -7.7241547e-01  -7.2788728e-01  -4.5136021e-01   3.0210144e-01  -9.6817062e-01   9.4293798e-01   8.0166048e-01  -7.9387184e-01   8.0808282e-01  -7.5595757e-01  -3.4362841e-01  -2.2786582e-01   2.8973311e-01  -1.3447317e-01  -4.1892011e-01   4.0613316e-01  -8.1617329e-01  -4.1063450e-01  -8.7195010e-01  -1.2703121e-01  -1.4814162e-01   5.2335602e-01   4.3979898e-01  -9.3300063e-01   8.1123047e-01  -2.8742468e-01  -1.5957442e-01  -8.1226739e-01  -3.8896573e-02  -3.2010422e-01  -6.2849941e-01  -7.4028442e-02   9.6278120e-01   2.4202545e-01   8.8268691e-01  -4.4653434e-02  -4.3027562e-01   5.0677109e-01  -9.4456169e-01  -2.7952194e-01   6.0463971e-02   7.8113916e-01  -2.7004975e-01  -6.1705549e-01   7.5724156e-01   4.1265691e-01   7.6696687e-01   6.7787799e-02   5.3971188e-01  -9.5983059e-01   6.6654671e-01   3.1160603e-01  -5.7561491e-01  -1.2568094e-01   4.4114342e-02   9.2468780e-01  -8.9008443e-01   4.3974498e-02  -1.1191043e-01  -2.1975833e-01   2.2212196e-01   6.7914186e-02   8.2741948e-01  -1.1619728e-01  -3.6050519e-01  -2.4825500e-01  -5.4525623e-01   3.9710641e-01  -2.9210865e-01   9.1676548e-01   4.9469344e-02  -9.1923473e-01   9.6319370e-01  -6.4003540e-02   5.8198325e-01   2.9916232e-01   3.8840912e-01   7.8027748e-01   1.4358083e-01  -5.1347894e-01  -4.5265110e-01  -2.2135270e-02   2.2673300e-02   2.1533556e-01   6.4199497e-01  -8.5807710e-01  -6.4986981e-01   1.2395703e-01   6.7949113e-02  -1.1688222e-01   2.0866974e-01  -2.7221169e-01  -8.4819229e-02   2.5583770e-01  -3.2226577e-01  -2.4981672e-02  -3.6642424e-01  -4.7490108e-01  -8.4798212e-01   4.6557981e-01   1.3896262e-01  -6.2010017e-01  -5.8452201e-01  -4.8054387e-01  -5.7259037e-01   6.9814915e-01  -4.9015050e-01   2.4081094e-01   6.9930050e-01  -6.9215657e-01  -6.7702014e-02  -3.0006875e-01  -2.9226904e-01  -1.2298804e-01   7.3426622e-01  -8.3875279e-01  -8.2318388e-01   1.6305181e-01   4.4573911e-01   6.6989704e-01  -2.1935040e-01  -8.2648719e-01   1.9101597e-03  -5.4519622e-01  -5.4381481e-01  -5.8806856e-01   6.3399561e-01   7.2376716e-01   4.1357843e-01  -4.5706907e-01   3.0414841e-01  -5.2938455e-01  -4.8417268e-01  -6.6748433e-01   5.5898697e-01   5.3452207e-01  -4.1597245e-01   3.5997700e-01  -9.8512610e-01   2.9739867e-01  -4.6500658e-02  -6.9068717e-02   8.3252989e-01   4.2810850e-01   5.8912001e-01   2.2134251e-01  -1.6079310e-01  -1.4172873e-01   3.6123501e-01   3.4372888e-01  -7.4871008e-01   7.1115929e-01   2.8149538e-01  -2.1454269e-02   8.7126491e-01   4.1933232e-01  -2.0319980e-02   9.1723904e-01   8.5302066e-01   9.9373084e-01  -5.0481038e-01   9.9974873e-01   6.2097094e-02   9.3883932e-01   4.5308398e-01   1.4218949e-01  -1.0410233e-01   5.4049741e-02   3.4656227e-01   7.7514488e-01  -6.5090926e-01  -1.8306694e-01  -8.1226921e-02   7.3083217e-01  -1.2361332e-01  -6.0033919e-01  -7.7173267e-01  -6.2062730e-01  -2.1138871e-01  -8.9570161e-01  -3.3983289e-01  -9.4633325e-01  -5.9231839e-01   6.6555292e-01  -9.1919847e-01  -8.9592959e-01   2.1802189e-01   7.2666329e-01   1.6658556e-01  -4.8697751e-01  -3.0347606e-01  -3.0434631e-01   7.5812379e-01   2.5951129e-01  -1.3075011e-01  -8.2358206e-01  -5.1569698e-01   2.5145459e-01  -3.9418984e-01   5.6593826e-01  -8.5879368e-01  -5.4874652e-01  -5.2611718e-01   6.6866776e-01   2.2080805e-01  -3.6964942e-01   1.2409066e-01   4.1541734e-01  -7.2698352e-01   1.2941887e-01   2.2722734e-01   3.8206641e-01  -3.6166805e-01   1.6951673e-02   3.9001790e-01   1.6361436e-01   9.1379550e-01  -5.0089606e-01  -2.2943071e-01   8.4740784e-01  -9.5446713e-01   4.7408196e-01  -2.0469153e-01  -2.7044762e-01  -6.0311405e-01  -8.9704222e-01   3.2093941e-01   7.0145305e-01  -8.6778625e-01  -8.5863169e-01   5.4831965e-01  -5.3551083e-01   5.8576286e-01   5.9000481e-01   7.6310860e-01   2.3352617e-01  -1.2338607e-01   2.2942243e-01   1.4214325e-01  -6.9828811e-01  -7.3109721e-01   4.3710357e-01  -4.4321354e-01  -8.4913223e-01   4.7518057e-01   5.8797440e-01   5.6774215e-01  -8.7664722e-01   9.2462904e-01  -4.5497870e-02   7.5100300e-01  -9.4730132e-01  -8.0801177e-01  -2.3556462e-01  -7.0500411e-01   7.0115068e-01   5.9325212e-01  -1.5201780e-01   4.9515334e-01   9.3494216e-01  -4.7867936e-01   9.0120702e-01  -2.9899799e-01   9.3652396e-02  -3.4438998e-01  -6.3863032e-01   6.6034259e-01  -8.0695431e-01  -6.9166991e-02  -8.9352763e-01   7.5920018e-01  -4.4145917e-01   2.4827965e-01   1.8756294e-01   4.2519322e-01   1.1285383e-01   2.2018560e-01  -7.0776651e-01  -1.8630695e-01  -3.0627885e-01  -5.8959969e-01  -5.5101796e-01  -1.4549561e-02   4.1284396e-01  -1.4920494e-05  -1.3316448e-01   7.9492823e-02   1.1727209e-01   3.6077386e-01   7.9806248e-01   3.4377877e-01  -8.9519690e-01  -2.3550539e-01  -6.0626045e-02   9.0684479e-01  -3.0013495e-01   2.8515206e-01  -6.8997086e-01  -5.1012785e-01   5.6924438e-01   5.3459182e-01  -1.3766144e-01   5.5057508e-01   4.5356029e-01   7.9168439e-01  -6.4327172e-01   8.2769395e-01   9.9916581e-01   5.8180705e-01  -6.4257873e-01   1.0408248e-01   5.2121847e-01  -6.4584366e-01  -2.4118337e-02  -7.8432577e-01  -9.5507864e-01  -5.1778302e-01   4.5359350e-01   1.0036682e-02   3.7146897e-01  -3.5077406e-01   4.9841896e-01  -5.3967465e-02  -2.1676131e-01   6.7297027e-01  -6.6033631e-01  -9.5336014e-01  -7.4901457e-01  -8.9779460e-01   6.2327830e-01  -1.4793885e-01  -2.9865167e-01   6.3418773e-01  -3.8742175e-01  -2.6302900e-01  -2.5140859e-01   7.3322449e-01  -9.3820626e-01  -1.7602325e-01   4.6106326e-01  -8.0161159e-01  -9.5934872e-01  -6.9594121e-01  -1.6327541e-01  -9.0757367e-01   3.9850568e-01  -2.0919879e-01  -4.8372677e-01   6.1400436e-01   5.8503731e-01  -3.7650559e-01  -8.0457349e-03  -6.3127326e-01   2.1932955e-02  -9.9784802e-01   7.9525670e-01   7.8218903e-01  -8.0379471e-01  -5.7756943e-01  -8.9671950e-01  -6.0917065e-01  -2.0110532e-02   3.0526767e-01   5.9890276e-02  -4.8160128e-01   7.6261120e-02   9.4045285e-01  -2.7117172e-02  -5.4437671e-01   8.0572365e-02  -2.7540854e-01   7.6065884e-01  -6.3284160e-01   5.5345169e-01  -6.1380056e-01  -5.3823550e-01   7.3697574e-01  -4.4101288e-01  -1.9580360e-01  -4.7354931e-01  -5.1933943e-01  -1.6875058e-01  -4.8634452e-01  -8.3842354e-01  -7.1031663e-01   5.5599142e-01   7.8584788e-01  -3.5100096e-01  -9.7601819e-01  -5.3345966e-01   9.7045582e-01   6.0225599e-01  -4.3946451e-01  -6.0683474e-02  -9.2138852e-01  -6.1531801e-01  -1.6212759e-01  -4.3801963e-01   8.0587814e-01  -8.7723071e-01  -2.4710224e-01   9.7763391e-01   7.9960377e-02  -2.1972182e-01  -1.0186178e-01   6.6781232e-01   5.5969275e-01  -2.1780433e-02   2.1677442e-01   5.8422407e-01   9.4424421e-02   9.3078753e-01  -1.0997519e-02   7.0316216e-01   7.4907936e-01   7.9034846e-01   2.7313129e-01  -4.8286489e-01  -1.2974170e-01  -9.4010077e-01  -5.6557643e-01   7.4658448e-01  -9.5597189e-01  -2.1669468e-01   8.2380250e-01  -8.0342952e-01  -4.9844701e-02   3.1368067e-01  -3.4015141e-02   2.8459892e-01  -8.1161104e-01  -3.5167797e-01  -2.5180169e-01  -9.7333727e-01   3.8108592e-01  -3.7722568e-01   5.1688793e-01  -3.7003664e-01  -2.7046619e-02  -2.3529736e-01  -5.9551671e-01  -6.1943030e-01   9.7299628e-01   9.7705155e-01  -6.7986549e-01   8.4194273e-01  -2.5254819e-01  -6.1444687e-01   8.5861960e-01   3.8456246e-01   5.5307106e-01   5.7584839e-01   1.3151858e-01  -8.7653950e-01   5.0751927e-01   3.6445929e-01   6.8648295e-01   7.5266175e-01   4.3904585e-01  -8.3110306e-01  -8.3441311e-01  -9.8317801e-01   1.1119277e-01  -2.6175476e-01  -6.9137064e-01  -8.6678101e-01   4.1097103e-01  -5.6346001e-01  -5.1150365e-02  -5.6683964e-01   8.9067181e-01   3.8414113e-01   8.6658754e-01  -8.8707981e-01  -3.8947206e-01  -2.4890863e-01   8.0879070e-01  -6.1796786e-01   2.3761343e-01   1.3826995e-01  -9.4050561e-01   4.3467187e-01   1.3335473e-01  -3.4954163e-01   9.1887731e-02  -4.1935075e-01   5.6394342e-01  -4.5313680e-01   3.7303818e-01   8.4813043e-01   4.8307091e-01  -7.6080178e-01  -8.9508904e-01  -3.8529798e-01  -3.0174790e-01  -6.4755844e-01   5.2242997e-02   8.8493186e-02   3.1793221e-02   4.6804281e-01  -2.4298687e-01  -8.1070205e-01   6.9084558e-01   4.3488555e-01   4.4125232e-01   4.1178368e-01   9.4562680e-01   5.3633872e-01   4.8304410e-01   6.8666958e-01  -2.5630265e-01   1.0603163e-03   8.0152065e-01  -4.6783854e-02  -2.7260225e-01   7.0753636e-01  -3.4380274e-01  -7.9466721e-01   2.0839194e-01   7.6990540e-01  -4.4102133e-01   8.0166433e-01  -1.5354979e-01   7.5790711e-01  -3.8560711e-01   4.7410839e-01   5.5812848e-01   6.9863517e-01  -1.3888677e-01   4.8384877e-01  -7.9901385e-02   5.6103662e-02  -6.8893915e-01  -2.7736579e-02   9.3050605e-01   7.0821374e-01   9.3757316e-01  -7.9514107e-01  -8.0428934e-01  -2.8140858e-02   5.8131930e-01   6.6126111e-01   9.0759393e-01  -2.8128002e-01  -5.0050367e-02   5.5026139e-01   9.1611038e-03  -7.0803695e-01   6.2642026e-01   1.8943122e-01   6.5941773e-01   9.2082932e-02   7.7036537e-01  -5.3895717e-01  -6.9992551e-01  -3.8602212e-01  -8.5855612e-01   4.1468396e-01  -3.8860405e-02   8.6479833e-01  -4.5798996e-01   2.7976200e-01   4.1901139e-01   8.8601530e-01  -7.5690728e-01   3.8153337e-01  -8.2814335e-01  -3.2238266e-01  -9.8559037e-01  -7.5081894e-01   2.3046643e-01   8.6238824e-01   4.6004388e-01  -8.5753807e-01  -3.0029217e-01   2.5846808e-02  -4.1704602e-01   1.6303480e-01  -1.8057344e-01  -9.0300368e-01   4.7130026e-03   5.0678041e-01   4.4161489e-01  -1.7198812e-01  -3.8356254e-01  -6.2072642e-01   3.6950570e-01   5.9688974e-01   7.3715714e-01   1.7440930e-01  -6.4694264e-01   8.3864834e-01  -2.4110861e-01   5.1753649e-01  -9.8987821e-02  -3.1692118e-01   9.9253398e-01  -6.0978165e-01  -6.7464147e-01   4.7663943e-01   3.4674097e-01   8.5840213e-01  -1.4657676e-01   4.4585678e-01  -6.4376645e-01   3.9884209e-01   8.4151395e-01   7.8655733e-03   3.3144028e-01   8.6662947e-01  -3.8442412e-01   7.2476736e-01  -4.0463128e-01   9.1922032e-01   5.9650721e-02  -7.4058011e-02  -7.8992492e-02  -8.1966440e-01   8.6816618e-01  -9.9297606e-01   7.8439107e-01   7.7574649e-01  -7.2631170e-01   8.4846832e-01   6.7819528e-01   8.9336713e-01   3.9172300e-01   2.7091044e-01   4.7316534e-01  -2.0535159e-01   7.2721633e-01  -5.1425823e-01   3.6812991e-01   6.3938383e-01  -1.0893642e-01   6.0376750e-01  -9.3724979e-01   9.7250057e-01  -5.1723348e-01   3.1620796e-01   2.3549351e-01  -9.2133745e-01  -2.6209915e-01   1.6477423e-01  -5.1880359e-01   8.2241640e-01  -1.5879320e-01   9.9625968e-02  -6.3167788e-01  -5.8859390e-01  -3.0354762e-01  -1.0786210e-02   6.3275875e-01   8.3292135e-01  -2.6618600e-01  -7.2317756e-01  -5.6190623e-01  -8.9268299e-01   3.1197989e-01  -8.2353918e-02   6.1246167e-01  -3.3506240e-01  -1.7498480e-01   9.3238923e-02   2.0542569e-01  -7.2319539e-01   4.1999760e-01   8.4539447e-01  -2.9534370e-01   9.4164257e-01   6.3333245e-01  -6.0230298e-01   3.8625218e-02   6.8542211e-02   2.4979493e-01  -3.3140491e-01   4.6816570e-02  -1.0898310e-01   9.9577506e-01   5.6089399e-01   3.0910195e-01  -1.5305046e-01  -7.1386824e-01  -7.4804166e-01   2.5513604e-01   2.8952664e-01  -5.3609855e-01   5.6805700e-01   9.2668415e-01  -8.7016840e-01  -3.7920408e-01  -3.8396302e-01   5.2019534e-01  -9.8986997e-01  -5.2635704e-01   5.3220220e-01   1.1304878e-01   2.3715679e-01   4.1529382e-01  -8.4303648e-01  -1.8268675e-01   1.4413700e-01  -3.2454742e-01   1.5569129e-01  -9.0082776e-01   4.7341602e-01  -6.4384415e-01  -7.3614272e-01   3.8251694e-01  -9.9473565e-01  -9.9953720e-02   7.2100574e-01  -6.6025882e-01  -3.3467163e-01  -5.8097774e-01  -8.6219601e-01  -2.0822432e-01   4.8600512e-01   1.3122815e-01  -6.4969053e-01  -9.4914076e-01  -4.6091046e-01   6.9687128e-01   8.8120261e-01   5.6893090e-01  -3.9699437e-01   3.6687141e-01   3.9542316e-01   5.0805427e-01  -2.2841680e-01   6.0531185e-01   3.0554794e-01  -7.6947284e-01  -6.2372978e-02   2.6821988e-01  -3.7729505e-01   5.1933813e-01   3.7505356e-01   5.2094222e-01  -2.9174003e-01  -5.9432797e-01   9.7182707e-02   1.1341060e-01  -8.2217921e-01  -4.7451236e-01  -8.8793596e-01  -2.5854759e-01   6.3863723e-01   7.3907646e-02   5.0599322e-01   4.8949638e-01   2.9728634e-01   7.4437688e-01  -3.6988177e-01  -5.0590009e-01   5.0266436e-01  -5.9570760e-01   8.8158776e-01   9.3508827e-02  -7.3324539e-01  -8.1374804e-01  -8.4571773e-01  -9.6959992e-01  -8.9406914e-01  -5.1564702e-01   5.8401238e-01   3.6877164e-01  -2.1536146e-01  -3.4723638e-01   5.4922602e-01   9.4093612e-01  -7.4946834e-01  -9.8342851e-01  -4.8903970e-01  -7.9989358e-01   4.8115672e-01   3.1982281e-01   8.1244722e-01   1.0364510e-01   3.3235114e-01  -4.2081030e-01  -7.9463435e-01   8.5899158e-01  -5.8678262e-01   1.7197568e-01   8.1617462e-01   2.5740081e-01  -2.3085988e-01   2.9608978e-01   1.5224453e-01  -3.0626199e-01  -3.0051020e-01  -6.8635442e-02   3.4903014e-01   8.1715147e-01  -7.3293962e-01   6.2831068e-01  -8.5862990e-03   1.3525827e-01   4.2585405e-01   5.6143858e-01  -1.9077569e-02   5.1386756e-01   2.4730854e-01  -6.7658660e-01  -6.9569663e-02   5.1527672e-01  -8.8077827e-01  -6.4615451e-01   9.9136520e-01   2.7143425e-01   2.1762953e-01   3.8281380e-01  -3.5424850e-01   7.5721218e-02  -8.7879872e-02   6.9524620e-01  -6.7901337e-01  -8.0790555e-01   5.2789782e-01   1.6930104e-01   5.9264117e-01   8.9996562e-01  -2.1561623e-01  -4.4642313e-01
  -3.6384930e-01   1.2915493e-01  -2.5453116e-03  -5.2645291e-01  -4.8392236e-04   9.0663433e-01  -9.0982569e-02  -9.2756058e-01   5.1903798e-01   2.5903605e-01  -5.3294017e-01   6.0445427e-01   2.0221812e-01   9.7894184e-01   5.6617859e-01   9.3631609e-01  -2.4763930e-01  -9.0063427e-01   6.7722447e-01   7.5432979e-02  -9.2506352e-01   6.6126890e-01   8.0426399e-01  -5.6563806e-01  -4.4235015e-01  -3.3875785e-02  -3.9609538e-01  -5.0368758e-01   2.9398095e-01  -2.3579921e-01   9.6086065e-01  -5.9526987e-01   5.4331383e-01  -6.6073838e-01  -8.3307581e-01   3.1302142e-01   8.0859043e-01   4.8405487e-01   8.8297233e-01   6.8964972e-01  -7.7504512e-01  -9.0916147e-01  -9.7027039e-01  -7.3566362e-01  -9.9025899e-01   1.1579923e-01  -9.1304610e-01   5.1113715e-01   9.6781764e-01   4.1545952e-01  -9.4082210e-01   9.6306619e-01  -9.9320045e-01  -8.4965332e-01   9.1363895e-01  -9.9220374e-01   9.9858901e-01   2.2040946e-01  -8.6702481e-01   8.7426916e-01  -6.7958943e-01   7.4413055e-01  -3.5062199e-01   5.3573493e-01   5.2645637e-01  -6.2593233e-01   3.9597894e-01  -9.8765909e-01  -6.2313320e-01  -4.2115596e-01   9.3510288e-02   8.4146118e-01  -7.1083567e-01  -8.9829471e-01  -5.5865381e-01   6.6818308e-02  -3.7870554e-01   4.2420253e-01  -4.2383896e-01  -7.1775360e-01  -2.6386977e-01   3.0057661e-01  -2.0017492e-01   7.4333533e-01   9.4934312e-02  -9.4329376e-01   8.2051901e-01  -1.8229081e-01  -2.8918727e-01   6.7787002e-01  -5.1077100e-01   6.8866703e-01   5.8373815e-01  -9.8090266e-01  -9.6430342e-01  -8.8948382e-01   4.9561176e-01   4.7500858e-02  -2.0851213e-01   7.9060811e-01  -3.6514669e-03   9.6229409e-01   4.2194115e-01  -6.4532204e-01   4.7311803e-01   6.5482605e-01  -5.0466838e-01   1.3690796e-01  -8.4792812e-01   7.0433009e-01  -6.2928432e-01   4.3345431e-01  -1.6839663e-01  -5.5704132e-01   4.0566189e-01   9.0146337e-01  -5.2591058e-01   9.0900329e-01  -3.7738223e-01  -4.9644871e-01  -6.0353138e-02  -5.2220328e-01  -5.7119077e-01  -7.4717582e-02   2.0603867e-01  -3.3911391e-01  -5.8580773e-01  -4.2919217e-01   4.6723525e-01  -9.6068411e-01   1.1656446e-01  -3.1581733e-01   7.9289610e-03  -6.7722465e-01   7.4548651e-01  -7.3008293e-02   8.2081053e-01  -2.4902046e-01   2.8124217e-01   9.0238800e-01   3.3087865e-01   2.5240598e-01  -6.2329143e-02   9.5244835e-01  -6.3009156e-01  -1.7033276e-01  -4.9894114e-01  -8.5284934e-02  -6.0420634e-01   9.9323677e-01  -3.1497172e-02   8.0003888e-01  -8.0468260e-01   2.9582337e-01   5.3077238e-01  -6.1351782e-01   5.3214340e-02   5.1316521e-01   7.5581973e-01  -8.8000868e-01   1.3621251e-01  -4.4744119e-01   7.5770168e-01   8.4153072e-01  -5.1028494e-01   6.3249064e-01  -7.0936067e-01   5.3697287e-01  -3.8114187e-01  -3.4263576e-01  -9.6440522e-01   9.8813624e-03   7.1912196e-01  -4.6293238e-01  -5.7613441e-02   9.2877699e-01  -5.0104619e-02   8.7449687e-01   6.0581081e-01  -3.9896533e-01   8.2372675e-01   5.7223918e-01  -6.0394680e-01  -4.8782542e-01  -3.7212371e-01   7.3165847e-01  -2.0490760e-01   2.1865786e-01   8.4753291e-01  -4.4580593e-01   5.9921384e-01  -1.0496933e-01  -6.4192699e-01  -1.5683351e-01  -1.5534938e-01   9.9747439e-01  -6.4244433e-01   8.0678465e-01   2.2722000e-02  -1.8166533e-01   3.2301502e-01  -1.2011183e-01   3.6217106e-01  -6.9658192e-01   2.6886000e-01  -7.7042475e-02   5.6664748e-01   7.7621384e-02   1.3832723e-01  -6.0958475e-01  -1.4003701e-01  -5.4952716e-01   6.5749037e-01  -8.0230970e-01  -3.0836893e-01   5.8931918e-01  -3.9535391e-01   3.8697740e-01   3.2084836e-02  -1.0158561e-01  -6.4994287e-01   3.6473493e-01  -6.2928061e-01  -6.0984091e-01   6.9345103e-01   2.0327453e-01   9.3689917e-01  -3.7519053e-01   9.2935588e-01   7.0900317e-01  -3.0363330e-01  -1.5010188e-01   3.7689756e-02  -9.5253639e-01   8.9096140e-01  -1.9563980e-01   4.0205441e-01  -3.8526605e-02   5.0027719e-01   2.7946623e-01   2.9930198e-01  -6.1070357e-01   9.0526758e-01  -9.1718272e-01   1.3744258e-01   9.6881569e-01   9.0728302e-01   9.0024526e-01   8.0034511e-02   5.4628843e-01  -2.7831225e-01  -1.9367865e-01  -8.4616364e-02  -3.5721826e-01  -7.8159695e-01  -8.9985657e-01   9.0828339e-01   7.0679990e-01  -3.0219856e-01  -7.3673720e-02  -7.5598726e-01   9.0659743e-01   8.6602434e-01   2.0338313e-01  -2.4388402e-01  -1.3138513e-01  -8.9464633e-01   7.3344879e-01  -4.2656025e-01   1.3843560e-01  -4.7991335e-01  -1.1022001e-01  -9.6292441e-01   7.9068025e-01  -9.7083872e-01   9.9121764e-01   1.5621998e-01   4.4517758e-03  -6.6900407e-01   8.6388156e-01  -8.9633691e-01   7.3493252e-02   5.3492398e-01  -8.5169384e-01  -6.0436752e-01  -3.2652446e-01  -5.5093193e-02   9.7061861e-02  -7.7817769e-01   5.7788885e-02   5.2502277e-01   2.5654899e-01  -2.0179047e-01  -4.1339380e-01  -5.1279880e-01  -9.5264435e-01   4.5605289e-01  -8.6288946e-01  -2.6139955e-01   8.6785754e-01   1.2330860e-01   6.7013966e-01  -9.7961969e-01  -3.2298046e-01   2.6754606e-01  -1.9680054e-01  -7.6425227e-01   1.7003976e-01  -3.5068420e-02   8.3396488e-01   2.4339215e-01   9.1546910e-01  -1.6184024e-01   4.9198197e-01   5.2332471e-01  -5.4340491e-01  -2.8646571e-01   1.8938070e-01  -6.2134504e-01  -2.9984280e-01  -3.7810655e-01   7.9109386e-01   1.5468939e-01  -3.6601788e-01  -1.9300138e-01   7.1364922e-01  -7.1582619e-01   5.6570392e-01   2.7928795e-01   7.5974858e-01  -3.9112519e-01  -8.2744806e-01   9.1723737e-01  -4.7170108e-01   8.6728514e-01   5.8088679e-01   7.1652902e-01  -8.8310449e-01   5.7919741e-01  -2.4119502e-01   7.5264835e-01   3.9224881e-01   5.0088050e-02  -5.2031488e-01   1.0950202e-01  -5.7908352e-01  -6.7703494e-02   5.9154399e-02  -4.7828882e-01  -9.2991342e-02  -5.4703547e-01  -9.5768902e-01   5.0051897e-01   7.7097263e-01  -7.6342667e-03   5.2894126e-01  -4.8108195e-01  -5.0647722e-01  -8.0660595e-03   7.2067851e-01  -9.1335443e-01  -1.8849956e-01   5.8462246e-01   3.9606861e-01  -5.2736307e-01   6.4777321e-01   7.9977243e-01   1.3738703e-01  -6.4739793e-02   5.2779678e-02  -6.7586150e-01  -3.2338126e-01   2.4481688e-01  -5.4188841e-01  -8.4413878e-01   6.8930796e-01  -5.8976486e-01  -1.6122663e-01  -5.6867710e-01  -5.0498946e-01   6.4059955e-01   8.7381644e-01  -1.5737270e-01  -1.4833236e-01  -1.9571338e-01   2.6618484e-03   1.3409407e-01  -1.7637902e-01   4.4820798e-01  -6.2677389e-01  -3.2869253e-01  -2.1818786e-01   1.0241211e-01   6.5491489e-01  -5.3940914e-01   7.9606850e-01   7.8284182e-01  -1.7680336e-01   3.9392332e-01   8.3210275e-01  -8.1151063e-01  -2.9041211e-01  -3.4942179e-01   2.6692327e-01   4.7263757e-01   8.5687648e-02  -2.0939947e-01   6.7006178e-01  -2.6698228e-01   6.7949229e-01   7.7628568e-01   3.6531346e-01   1.3624216e-01  -2.7214973e-01  -1.3073162e-01   2.8452888e-01  -7.7196645e-01  -1.7356504e-01  -2.2816521e-01  -6.3418976e-01   8.2951075e-01   8.2299595e-01   1.7032382e-01  -6.5478206e-02  -5.8345547e-01  -1.2018563e-01   8.2255429e-02  -4.0014111e-01  -5.9259790e-01   8.5752444e-01  -7.7938347e-01   6.6523018e-01  -1.0878777e-01   1.7161350e-02   6.6563320e-01   3.6149162e-01  -6.1868736e-01  -2.5064640e-01   2.3353080e-01   4.8428140e-01  -6.1344175e-01  -4.2456171e-03  -6.5730865e-01   4.7481890e-01   9.2351932e-01   6.7394384e-01  -8.5130228e-01   5.6060101e-01   5.9072458e-01   4.4939500e-01  -3.7925810e-01  -2.2558442e-03   8.1535769e-01  -8.6023572e-02   8.9290198e-01   5.0246080e-02  -8.8962185e-01  -8.5024880e-01   2.9294945e-01  -3.2447140e-01  -4.4782782e-01   2.1342452e-01  -8.9725847e-02   2.2973825e-01  -4.6783006e-01  -2.8136459e-01  -3.1051903e-01   3.0176892e-02  -7.4683859e-01   5.7583177e-01   2.7901939e-01  -4.0991609e-01  -8.5243936e-01   6.3360715e-02  -5.5164045e-01   2.7084697e-01  -5.8892367e-01  -2.8829660e-01  -2.1334696e-02   1.1290305e-03   9.7172825e-01   8.4170678e-02  -8.7251886e-01   2.9654101e-01   1.2020535e-01  -4.8334101e-01   1.9779995e-01   1.7008997e-01   2.5478377e-01  -3.1253700e-01   1.8512100e-01   7.8438154e-01  -4.8535105e-01   9.4422363e-01   8.1069026e-02  -4.0373160e-03   3.1642991e-01  -8.7951538e-01  -2.1051633e-01  -1.2874687e-01   4.7897455e-01  -6.8831398e-01  -6.3668731e-01   7.8387511e-01   8.1355779e-03   6.4669797e-01   6.1884660e-01  -3.0829495e-02   8.4875881e-01  -4.2793994e-01  -2.6015031e-01  -2.5352162e-01   3.0874760e-01  -6.6462995e-01   1.7832380e-01   7.3171988e-01  -2.4950290e-01  -6.9584904e-01   6.5612831e-01  -9.2846422e-02  -7.1107047e-01   9.3053384e-01   9.6374749e-01   1.8441936e-01  -9.0639588e-01   5.0020957e-01   8.8000628e-01   4.9896804e-02   3.3939422e-01   5.0871989e-01  -9.2714740e-01   9.1175272e-01   9.7446681e-01   7.9964377e-01  -6.3827890e-01  -3.7327304e-01  -8.5812940e-01   8.8419767e-01  -4.0268205e-01  -1.6879656e-01  -8.4894707e-01   9.9825838e-01  -9.6131841e-01   9.4441644e-01  -7.2591560e-01  -9.4427394e-01   8.5950901e-01  -9.0056240e-01   8.0124700e-01  -1.7379143e-01   9.5964796e-01  -9.8760536e-01   6.1956610e-01   5.6783079e-01  -3.9387200e-01   9.9324552e-01   8.6231522e-01  -2.9726607e-01  -7.1197048e-03   4.3870763e-01  -5.8730953e-01  -4.4641030e-01   3.7903914e-01   4.7184185e-01   5.4252879e-01  -1.8766481e-01  -3.3335968e-01   6.6446931e-01  -3.5296700e-01   9.7556124e-01  -1.2029538e-01   7.4373209e-01   9.2669207e-01   1.3097765e-02   3.8391571e-01   2.2691018e-01   6.4774797e-02  -8.6545344e-01  -7.8474462e-01   1.8811093e-01  -5.2307862e-01  -4.3344570e-01  -2.3188573e-01   3.2881865e-01   8.9509332e-01  -2.7275485e-01  -3.9370338e-01  -6.4176687e-01   6.8276914e-01   4.4727170e-01   6.0429554e-01   4.3131548e-01  -6.2746843e-01  -9.0543162e-01   7.9915933e-01  -4.4091294e-02  -3.6211702e-01  -1.5658366e-01   9.3108644e-01   5.5519719e-01  -4.8957374e-01  -3.5870733e-01  -2.9384344e-01  -3.8220386e-01  -3.2121307e-01  -6.7826691e-02  -8.2779029e-01  -5.9496422e-01  -1.1063915e-01   2.9785259e-01   2.9259283e-01   4.2362428e-01   5.5206996e-01  -1.8732009e-01  -8.5405278e-01  -4.6234348e-01   6.9804524e-01  -8.3208145e-01  -5.0592601e-01  -4.4803984e-01   5.2315496e-01  -2.8290239e-01  -8.3035909e-01   4.1261462e-01   7.7385303e-02   3.9059361e-01   8.6724706e-01   5.0551332e-01  -5.6447587e-01  -1.0952348e-01  -6.4893579e-01   2.9648311e-01  -8.2974361e-01  -4.5728409e-01  -6.0133424e-01   6.1540460e-01  -7.2996749e-01   6.4077262e-01  -4.0499240e-01   6.4449700e-01  -5.4816606e-01  -8.0974904e-01  -6.9824861e-01   7.8724887e-01  -2.8567482e-01  -6.9324479e-01  -5.1808743e-01  -5.6019789e-01  -4.3033736e-02  -4.6005220e-01   9.3526670e-01  -1.4692518e-01   9.4460029e-01   1.6950515e-01  -8.0086267e-01   4.6063164e-01  -8.4756204e-01  -5.4844358e-01  -2.7330024e-01  -1.7413902e-01   9.6257921e-01  -6.2830884e-01   4.4835524e-01  -6.8916172e-01  -6.4493117e-01   3.5269712e-01  -7.9935946e-01  -9.2728337e-01  -7.0533287e-01   5.0113915e-01   1.4855839e-01   2.9289110e-01  -3.6362518e-01  -7.4985000e-01  -5.3266123e-01  -1.3795114e-01  -5.6462123e-01   8.8153032e-01   9.3071973e-01  -1.1408786e-01   8.1458951e-01  -4.8442999e-01  -1.3410913e-01  -6.2429669e-01  -6.6510796e-01  -5.9201792e-02  -1.3050368e-01  -3.5928128e-01  -9.4487985e-01  -9.5672101e-01   7.4610603e-01   2.8637082e-01   9.9020401e-01  -9.7771051e-01  -7.3001862e-01   6.7638685e-02  -4.1108942e-01  -4.1699869e-01  -2.4521170e-01  -2.2305346e-01  -1.1579792e-01   6.6941930e-02  -9.6125092e-01  -4.7405129e-01  -1.9990873e-01   6.2329757e-01  -3.0109035e-01   5.5324508e-01  -3.9887076e-01   4.7109646e-01  -5.7262748e-01   5.3364404e-01   1.8541977e-01   1.5538715e-01  -7.8689118e-01  -9.7973644e-01   7.7457258e-01   9.5877967e-01   3.6242899e-01  -8.0924565e-01  -8.5367345e-01   5.9596116e-01  -1.6075190e-01  -1.4703353e-01   3.5801492e-01  -5.7296290e-01   9.6500672e-01   4.9801466e-01  -9.2918321e-01  -4.1671012e-01  -4.1870916e-01  -7.0807083e-01  -9.0570913e-01   6.9181043e-01  -1.2532654e-01   7.3781701e-01   2.8592654e-01   6.9604973e-02  -6.6660330e-01   7.2970924e-01   6.0016601e-01  -2.4813325e-01  -9.5529316e-01   1.2902323e-02  -2.2529992e-01  -4.0301631e-01   2.9879170e-01  -2.4887745e-01   9.7796997e-01  -2.0576765e-03   1.1428262e-01   7.0579791e-01  -5.4152515e-01  -2.6404727e-01   2.5382571e-01  -2.9939149e-01  -9.0928362e-01   7.0587497e-01  -8.7398967e-01  -1.2324465e-02   7.0521557e-01  -1.2357246e-01   3.9852276e-01   6.5174187e-02  -4.7044892e-01  -7.9868668e-01   5.9252408e-02   3.0771955e-01  -3.1204103e-01  -6.4319890e-01  -7.5779714e-02   2.8093044e-01   1.3810467e-01   3.6343445e-01   9.2576902e-01   5.3043152e-01  -7.2462328e-01  -4.0433709e-01   2.6287621e-02   3.9898620e-01  -9.9301751e-01   1.3970003e-01  -5.3337525e-01  -4.5600251e-01   9.6806996e-01  -1.6365450e-01   8.1684918e-01  -8.9185128e-01   4.3427165e-01   1.6546323e-01  -1.5095974e-01   8.4707779e-01  -7.7832768e-01  -2.3792937e-01  -5.5869581e-01   5.3259166e-02   2.2736808e-02  -3.6176400e-03  -3.5700618e-02   2.5645828e-01   6.2025648e-01   3.3181206e-01  -6.8033881e-01   8.8389033e-01  -4.7940747e-01  -9.0664535e-01  -9.4172180e-01   6.7610880e-02  -7.9933321e-01   7.8702367e-01  -6.9714250e-01   6.9743796e-01   5.9854911e-01   4.6231437e-01  -2.9600741e-01   8.4434528e-01   5.4095059e-01  -4.9699804e-01   1.0331343e-02   4.9377667e-01  -7.6983074e-01   1.9481938e-01  -3.5279096e-01   4.7893073e-01   9.0247742e-01   1.4477653e-01   4.2638202e-01   4.8804370e-01   6.5691464e-01  -2.5807791e-01   8.7181918e-01  -1.0162878e-01  -5.9986654e-02   7.8581440e-01  -4.2686475e-01   4.3187621e-01   9.0908084e-01   3.2816976e-01   9.5542090e-01   7.2513919e-02   3.6369082e-02  -9.2770672e-01  -7.0610471e-01  -5.5172730e-01  -7.6991939e-01  -5.6264633e-01  -6.6785805e-01  -5.0843315e-01   4.6054799e-01   5.3878798e-01  -6.2534629e-01   7.5110510e-01   7.3121839e-01   9.5789093e-01  -1.5524261e-01   1.8753045e-01  -7.1868259e-01  -5.6646675e-01   8.9348946e-01   5.7303780e-01   7.4231963e-01  -3.1598113e-01   3.0714507e-01  -5.1926892e-01  -9.1887618e-01  -3.1722581e-01   9.5395202e-01  -6.5252552e-01   7.7155877e-01   4.3560232e-01   9.5304913e-01   9.0780589e-01   2.0459975e-01  -8.1729745e-01   5.9749013e-01  -4.1412891e-01   3.3660423e-01   6.8903846e-01   2.2993975e-01  -7.5940849e-01   7.9890796e-01   7.6410125e-01   6.0955247e-02  -2.0577073e-01   5.3282442e-01  -5.4047237e-01  -8.3769233e-01   2.5526846e-01   6.7794067e-01   7.4599008e-01  -7.9228541e-01  -2.8241275e-01  -1.5419499e-01   9.5233132e-01  -3.8079970e-01   2.0917989e-01  -2.3096074e-01  -4.6883214e-01   8.7111231e-02   8.4745914e-01   3.7889218e-01   3.2610250e-01  -8.1749373e-01   3.4414321e-01  -2.5507989e-01  -7.9513083e-01   2.7555709e-02   8.2126918e-01  -9.4343518e-01  -7.2379732e-01   9.3360056e-01   3.6182101e-01  -5.7436370e-01  -5.9932942e-01   3.1598962e-01  -7.5658588e-01  -1.4439700e-01  -6.3364489e-01  -6.2804581e-01   7.3466204e-01   1.5046430e-01   7.6003025e-01  -4.8536759e-01  -8.8975143e-01   4.0432176e-01  -7.8436226e-02   6.2097409e-01   2.0416351e-01  -8.4623848e-01  -6.9620136e-01  -9.5237405e-01   9.5829430e-03   4.3895271e-01   4.1626590e-01   2.4274239e-01   3.0774967e-01   5.3178184e-01  -1.6599182e-01  -3.9085922e-01  -1.5323647e-01   2.3247175e-02   5.4249596e-01  -5.9947068e-01   1.9217238e-02  -4.6013809e-02  -6.8279582e-01   3.1801233e-01   1.7509075e-01  -6.8537822e-01  -8.1192931e-01  -4.1546503e-01  -6.0709888e-01  -8.3355075e-01   4.5204837e-01   2.6738589e-01  -4.6198112e-01  -4.2089244e-02   9.1039184e-01   4.8294556e-01  -5.0931030e-01   5.2715980e-01  -1.1996958e-01   7.5420171e-01  -2.7856777e-01   3.3969536e-01   5.5619937e-01   4.6078386e-03  -5.3124000e-01   9.7933730e-01  -1.6708550e-01  -9.1689532e-01  -2.7091937e-02  -3.1517518e-01  -2.3652041e-01   4.6687142e-01  -3.8950697e-01   8.5949867e-01  -4.0947562e-01   8.1975537e-01  -5.3746054e-01   7.2422555e-01   1.2980587e-01   3.4986165e-02  -4.3300363e-01  -3.6471662e-01   2.5393470e-01  -9.2615560e-01  -5.8493104e-01  -2.8284707e-01  -5.5281092e-03  -7.6665375e-01  -2.0834740e-01  -8.3345557e-02   5.9790106e-02   6.6687147e-01  -5.5624667e-01  -9.3821651e-02   1.7095975e-01   1.8765686e-01  -7.9868588e-01
   8.0537126e-01   6.4108945e-01   4.2901989e-01  -8.4455986e-01  -8.2812160e-01  -3.3233447e-01   6.8017011e-01   3.0053513e-01   4.6043940e-01   9.9850945e-01   2.7455488e-01   1.1642372e-01  -4.3608535e-01   7.0439965e-01  -7.7491175e-01  -4.9675486e-01   8.7931954e-01  -1.3364668e-01   9.7285406e-01  -2.3432462e-01  -4.7050859e-01  -8.0637019e-01  -5.9502977e-01   6.1116801e-01  -5.7944884e-01  -9.1141051e-01   1.1173302e-01   6.0876144e-01  -2.2529358e-01   2.9084472e-02   7.2139262e-01  -1.2920742e-01   5.9945169e-01   1.4978744e-01  -2.2322134e-01   5.1343561e-01  -2.5286921e-01  -7.1350336e-01  -9.3122118e-01   6.4824934e-01  -7.6459400e-01   2.3045899e-01   4.4703394e-01  -3.4654252e-01   3.8584328e-01   5.8477375e-04   7.1437304e-02   3.1420993e-01  -2.7749564e-01   5.5962924e-01  -4.4922214e-01   2.8409382e-01   8.0933580e-01   4.9986688e-01   6.0344287e-01  -6.4447777e-01   9.0279841e-01   1.7213283e-01   8.9379964e-01  -9.6591033e-01   8.2800867e-01  -6.5549910e-01   8.8911538e-01  -3.2378710e-01   6.6286743e-01  -5.3723402e-02  -3.1495353e-01  -5.0601622e-01  -3.6925162e-01   7.9314876e-02   4.2536296e-01   1.2315379e-01  -8.1587290e-01   7.6572891e-01   7.9298040e-01  -3.2461646e-01   7.7123052e-01   3.5185087e-01   1.4588216e-01   1.4567790e-01  -2.8673378e-01   9.4249114e-01   1.1242365e-01  -4.2892605e-02   2.7011830e-01   9.2608370e-01   3.0166827e-01   2.5281486e-01  -8.5949712e-01   1.9777378e-01   7.1302078e-01  -2.1812954e-01   7.9183780e-01  -7.7686075e-01   8.6229643e-02  -1.9118161e-01   2.5445565e-01   8.1587509e-01   9.3891756e-01  -2.8314580e-01   8.5860058e-01   4.1156446e-01   9.0903639e-01   7.5742335e-01  -3.8820933e-01   1.6750719e-01   8.8178036e-01   7.7399216e-01   1.5523893e-01   2.7538140e-01   7.8544625e-01   1.2091281e-01   3.0159256e-01  -9.3266633e-01  -6.3660342e-02  -4.7994240e-01  -3.3009298e-01  -2.8690790e-01  -2.4092349e-01  -7.2744498e-01   3.3885499e-01  -9.1948916e-01  -8.5868860e-01   3.6986287e-01   4.5398291e-01   3.8225348e-01   4.2594250e-01   7.4675672e-01  -7.4552895e-01   3.9308289e-01  -3.5659091e-01  -1.6406556e-01   2.9189456e-01  -5.0005210e-01  -9.7188570e-01   8.4636633e-01   2.8281524e-01  -1.0305482e-01  -7.1393745e-01   2.5373354e-02   3.3951926e-01   9.3429494e-01  -5.0293085e-01  -4.8601712e-01  -5.0966054e-01  -5.4421725e-01   4.8773334e-01  -7.2110043e-01   1.0340389e-01  -5.6126600e-01   7.8207584e-03  -6.7843563e-01  -1.2296578e-01  -8.4483960e-01  -3.8671262e-01  -5.5500988e-01  -2.5294667e-01   4.9581703e-01  -7.7967255e-01  -4.4815293e-01  -1.4894951e-01  -8.1739322e-01  -8.2355298e-02  -1.7586446e-01  -8.9765254e-01   3.1506484e-01  -1.8000878e-01  -3.2054543e-02  -3.8891853e-01  -9.9736654e-01   8.7684639e-01  -9.7072021e-01   6.3456755e-01  -6.1127057e-01   2.3976072e-01  -1.5674970e-01   2.7165931e-01   5.9941303e-01   4.7086494e-01  -2.5815931e-01   5.1146443e-01   4.5454139e-01   4.2478352e-01  -1.5278741e-02  -8.7344723e-01  -4.5690121e-01  -8.3812094e-01   5.0081993e-01   8.4568558e-01   6.0176023e-01  -3.5100362e-01  -5.1246817e-01  -9.4233458e-01   9.0019516e-01  -5.7322458e-02   4.2058783e-01  -1.5070029e-01   3.3377060e-01   6.0640373e-02  -4.9024022e-01   3.6645442e-01   7.2356486e-01  -2.6384319e-01  -9.7887202e-01  -6.4006690e-01  -3.7782321e-01  -6.4203826e-01  -1.0901172e-01   3.9555430e-01   2.4465580e-01  -1.6187039e-01  -3.9696292e-01  -5.7030268e-01  -6.5445543e-02   3.2195924e-01   5.3405539e-01   5.4051279e-01  -7.2362711e-01  -8.1773475e-01   1.4152898e-01   8.8088567e-01   9.7401535e-01   5.6349018e-01   9.6159075e-01  -9.6085743e-01   3.7888088e-01   8.3154395e-01   5.8027727e-01  -8.3477382e-01   4.1730492e-01  -1.9377826e-01  -9.4045358e-01  -2.8132757e-01   3.3289063e-01  -4.0800758e-01  -4.1407977e-01  -6.6756428e-01  -9.8982399e-01  -6.6040343e-01   4.8346165e-01   2.5597288e-01  -8.0072448e-01  -1.9889076e-01   3.2189918e-01   2.9631765e-01  -5.6419904e-01   8.2139089e-01  -1.6644488e-01   7.6989993e-01   2.6382757e-01  -2.3552081e-01   7.2134814e-01   9.4434058e-01  -5.5700428e-01  -1.4986755e-02  -5.9822374e-01   6.9640861e-01  -3.0268218e-01  -3.5828634e-01   8.2532155e-01   8.9426500e-01  -7.9980125e-01  -7.6328679e-01   8.4969757e-01  -9.8837378e-01   3.7774803e-01   4.2636952e-01  -5.9726902e-01  -4.6913976e-01   5.4333894e-01  -1.0750454e-01  -6.7323443e-01  -1.6885340e-01  -2.2498043e-01   5.9535905e-01  -9.6406492e-01  -9.3441172e-01   5.0548328e-02  -3.9888442e-01   5.4029549e-01  -5.0711854e-01   1.0795173e-01  -9.1110408e-01  -6.5116451e-01  -8.0140910e-01  -4.2486056e-01   4.9585710e-01  -4.7230853e-01  -7.4318342e-01   2.6716705e-01   7.7302283e-01  -8.6329582e-01   3.0951043e-01   7.7086898e-01   3.2515680e-01   1.1639633e-01   7.9614516e-01  -9.3968051e-01  -8.0844499e-01  -3.5682867e-01  -8.0208863e-01  -6.8356643e-01   5.3920983e-01  -3.9022920e-01   7.7189551e-02   2.8430245e-01  -2.1846382e-01   3.9721241e-01   6.6110412e-01  -8.6536662e-03  -4.7565138e-01   5.8968703e-01   2.9186370e-01  -3.2970308e-01   6.5729420e-01  -6.7702808e-01   2.9647657e-01  -8.5220748e-01   3.1202227e-01  -8.6123008e-01  -9.6359297e-02   6.7113229e-01  -5.1145567e-01  -1.8448035e-01  -6.3636063e-01   2.8207452e-01   8.3175051e-01   1.4215334e-01  -7.2573253e-01  -4.3807269e-01  -5.7413565e-01   1.5826466e-01  -4.0679313e-01   5.6169359e-01   6.1660126e-01  -3.9554718e-01  -7.3414684e-01  -6.6797922e-01  -3.3851143e-01   3.1238561e-01  -8.9683793e-01  -4.2813066e-03   6.9494870e-01  -1.5336951e-01  -5.5364770e-02   3.4820145e-01  -6.8168320e-01   8.1037953e-01   1.5090339e-01  -5.7063639e-01  -3.9452869e-01   3.5721170e-01  -2.8540311e-01  -2.2805310e-01  -3.3347155e-01  -8.2780757e-01  -1.0519377e-03  -2.0360403e-01  -1.2267754e-01   5.0031019e-01   6.1802318e-01  -4.1320168e-01   3.6000770e-01  -3.2961170e-01  -1.1410822e-01  -7.8132165e-01   3.7478329e-01   8.7914400e-02  -1.6471546e-01  -6.8130549e-01  -7.1015864e-01   2.5239001e-01  -7.1745500e-01   4.5741058e-01  -5.0124052e-01  -2.9732761e-01   8.1402820e-01  -8.0562396e-01  -3.6832232e-01  -3.4526374e-01   2.6577630e-01  -2.3446393e-01   4.9667528e-02  -3.6639798e-01  -6.8606952e-01  -4.0813798e-01   7.9225091e-01   2.4940722e-01  -7.0473286e-01  -8.0265598e-01   4.1966327e-01  -9.7614184e-01  -3.2305819e-01   9.3529054e-01   7.4266333e-01   4.1937514e-01   7.8911616e-04  -1.5591414e-01   6.7474379e-01  -6.8832825e-01   6.9406587e-01   3.9892049e-01  -8.1624468e-01  -4.7399442e-01   7.2684245e-01  -3.2456109e-01  -6.8971106e-01   2.1842652e-01   2.8745256e-01  -8.7654543e-01  -6.4677384e-01   8.6047698e-01  -6.0986446e-01   9.1795463e-01  -7.7794794e-01   6.8604566e-01   5.8909227e-01  -9.5223450e-01   3.4561433e-01   2.4809056e-01   4.0470955e-02   9.7024576e-01  -7.2640764e-02   3.3001441e-01  -9.3075331e-01   4.5982583e-01   4.2822965e-01   2.9327701e-01   2.3628814e-01  -8.2391770e-01  -2.3335678e-01   8.6925573e-01  -9.9689860e-01  -8.4411935e-01   1.2746514e-01   4.4996454e-01  -6.2113992e-01  -1.1729526e-02  -2.5804240e-01   8.8918651e-01   3.1556868e-01   9.9288144e-01  -6.4775718e-01   4.4691825e-02   1.6344982e-03   2.5405374e-01  -2.0114808e-01  -5.5956330e-01   1.1703513e-01  -8.6204061e-01  -4.9404145e-01   9.0107358e-01   9.6734353e-01   2.7977869e-01   8.6424448e-01   4.6877567e-01  -1.1116011e-01  -1.0894300e-01   4.4448621e-01  -9.9429807e-01   3.2104888e-01  -4.0400905e-01  -3.6525769e-01   6.4867451e-01  -4.0803231e-02   3.8170118e-02  -6.4233867e-01  -8.6271026e-01  -6.2250279e-01   9.2497931e-02   9.8203066e-01  -7.4964856e-01   3.1054982e-01   4.1868605e-01  -3.6476719e-01   9.9099899e-01   9.0963947e-01  -8.8493114e-01  -8.4321135e-01  -5.7195182e-01  -3.0605976e-02   3.0481295e-01  -7.7604969e-01   2.6203488e-01  -1.2069402e-01   8.9722465e-01   8.8390733e-02   5.8010681e-01   6.2924123e-01   9.3906210e-01  -5.3949876e-01  -3.2549358e-01  -5.9518099e-01  -4.8260729e-01  -8.5704971e-01   5.0224949e-01  -4.9248701e-01   5.4193085e-01  -4.4310825e-01   1.9248745e-01   2.0939211e-02   7.2197886e-01  -4.0369626e-01  -7.0743454e-01  -4.8898428e-01   8.4335205e-01   8.7246666e-01   5.5552596e-01  -7.4038856e-01  -9.7707298e-01  -1.8091091e-01   8.5816578e-02   7.0259153e-01   6.2881709e-02  -3.4588484e-01   4.4790829e-01   3.0415392e-01   5.9658981e-02   3.9113533e-01   1.8197900e-01   4.6639190e-02   7.0143199e-01  -7.2914137e-01   8.1547199e-01  -6.4941051e-01  -8.5106480e-01   8.4988011e-01  -8.4280508e-01   6.6642980e-01   3.0428160e-02   9.2938652e-01  -3.1881771e-01   2.5104895e-02  -6.0452338e-01  -9.0316020e-01   8.5382846e-01   4.4640297e-01   8.2210348e-01  -2.8704111e-02   6.3987219e-01   3.2444676e-01   4.7932044e-01  -3.7464587e-01  -7.2642089e-01  -7.8623225e-02  -7.6285821e-02  -6.7178316e-01   6.4466030e-01   2.0871363e-01  -2.7407840e-01  -9.0079855e-02   1.1093154e-01  -3.6820834e-01  -5.0043380e-01   1.5160843e-03   3.4677619e-02   6.8633374e-01  -5.6996790e-01  -1.8027827e-02   3.5055081e-01  -5.9143874e-01   3.6223380e-01   8.0395494e-01   3.4182495e-02  -8.7180774e-01  -3.7108873e-01   6.3394051e-01  -4.6525988e-02   2.3008361e-01   3.6868614e-01  -3.6847188e-01   6.3330670e-02  -8.0782706e-01   1.6577972e-01   9.4310295e-01   5.2169861e-01  -7.7990092e-01   6.6291698e-01  -2.1316275e-01  -8.9036097e-01   2.7553123e-01   1.0979779e-01  -6.4405513e-01   9.5346785e-01   7.0825136e-01  -4.5946218e-01  -9.6326225e-01   5.8084316e-01   9.7353818e-01   9.2921094e-01   4.8557509e-01  -7.0133015e-01   3.0274761e-01  -4.2054573e-01   8.9450264e-01   6.2623890e-01  -7.5070141e-01  -6.1639683e-01  -2.4905467e-02   7.0585764e-01   2.9212587e-02   9.7589640e-01   3.3602635e-01  -6.6229424e-01   8.3875691e-02  -5.8407314e-01   9.3936708e-01  -6.9745593e-01   8.7498634e-01  -6.3599521e-01   2.2727794e-02  -7.6953144e-01  -5.6028361e-01  -7.5057402e-01   7.8581465e-01  -6.1767566e-01   4.9338288e-01   2.8155403e-01   4.3033469e-01  -1.2585413e-01   6.6107645e-01   1.2092847e-01  -1.8104226e-01  -5.8059417e-01   9.5314318e-01  -7.2648655e-01   4.2076858e-01  -6.2882699e-01  -8.2056539e-01   1.6066153e-01   8.5097534e-02   7.0677574e-01  -6.5517041e-02   6.9250139e-01  -8.4195763e-02   4.1423981e-01   8.3254404e-01   1.9022395e-01   1.4900487e-01   2.0661524e-01   3.0861200e-01   4.1788299e-01   7.6845623e-01  -4.8093721e-01   3.6361869e-01  -5.4675696e-01   6.7468281e-01   2.8471434e-01   3.2185336e-01  -5.9351956e-01   2.9427120e-01  -4.8564107e-01  -6.6368717e-01   4.5697267e-01   5.2204157e-01   3.4732913e-01   1.0027636e-01  -1.8352113e-01  -9.4123056e-02  -6.2472624e-01   4.4344457e-01  -8.0066913e-01   9.7515393e-01   8.5940302e-01  -3.4011722e-01   3.5467818e-01  -6.3732785e-01  -2.1275315e-01   4.9084482e-01  -2.3054388e-01  -6.8324731e-01  -3.5007315e-02  -2.1890836e-01   6.2101558e-01   6.4359191e-01  -3.0983312e-01   2.8442147e-01   9.7186404e-01   8.2281576e-01  -7.6331759e-01   8.1063978e-02  -4.2193689e-01  -7.3003866e-01   2.2908113e-01   5.6533828e-01   3.0659525e-01  -5.4167496e-01  -8.4233945e-01  -4.2608164e-01  -1.0231910e-01   9.1763551e-02  -9.6196336e-01   3.1102134e-01  -1.7399842e-01   8.9415726e-02  -8.4167502e-02   2.3855222e-01  -5.2001590e-01   2.8186221e-01  -5.7745797e-01  -3.2487162e-01  -3.5549165e-01   5.7916199e-02   3.3122080e-01  -5.9633301e-01  -4.9146048e-01  -6.1874065e-01  -5.9140492e-01   1.1960311e-01  -4.9231303e-01   5.6699451e-01  -4.2662607e-01  -6.1359639e-01  -6.0717268e-01   6.7021196e-02  -8.5949146e-01   6.1001275e-01   7.9564863e-01   6.2518953e-01  -9.5724188e-01  -7.1261465e-01   1.7195439e-01  -5.4930426e-01   6.8699859e-01   6.6278813e-01  -8.2800532e-01  -3.4778771e-01   7.5221735e-01  -5.5537891e-01   1.1770000e-01  -4.4516124e-01  -3.8173229e-01   3.4624403e-02   9.0516039e-01  -5.2665142e-01   8.5700779e-01  -6.8994510e-01   5.4499599e-01  -6.6520676e-01   9.1901993e-01  -5.1717766e-01  -5.5559133e-01  -8.4486050e-01   4.4218679e-01   1.0517971e-01  -2.3041081e-01  -1.5383239e-01   9.4411753e-01  -5.3641976e-01  -6.5443110e-02  -7.4285123e-01  -9.4130255e-01   4.1646215e-01  -1.6114673e-01  -5.5273743e-01  -7.0198225e-01  -7.4872298e-01  -8.6139605e-01   2.5771291e-01  -3.5352292e-01   8.8379066e-01  -6.4458398e-01   9.1063369e-01   8.4580152e-01  -3.2742333e-01   5.7095354e-01  -9.2680895e-02  -4.3664602e-01  -7.7529823e-01  -4.3100255e-01   7.3770023e-01  -5.9841365e-01  -7.3060567e-02  -2.8091385e-01   8.5647217e-01  -2.5343101e-01  -6.6567676e-01   2.3184801e-01  -2.9995500e-01   8.9453111e-01  -7.7075616e-01   4.7801133e-02   8.9983616e-01   2.7740090e-01   9.6862120e-01  -8.7196492e-01  -6.5388411e-01  -1.1135302e-01  -2.5330285e-01  -4.0720584e-01  -8.0651117e-03  -4.9873577e-01   6.7706919e-01  -9.0637830e-01  -8.1192118e-01  -3.2707215e-01  -9.3232864e-01  -1.9142287e-01  -7.4025344e-01  -4.8086236e-01   2.1975687e-01  -5.3681334e-01  -9.1060840e-01   8.4828157e-01  -3.0455853e-01  -2.8782053e-01  -4.0647406e-01   3.5612093e-01  -3.8979848e-01   3.7088788e-01  -7.4733674e-01   7.5306237e-01   8.8469783e-01  -2.3189648e-01  -9.6783151e-01   2.3768462e-01   3.0527544e-01  -9.2646003e-01   7.3604396e-01  -5.0530158e-01  -9.0607923e-01  -2.4480030e-01  -2.0331880e-01  -1.9892029e-01  -8.1617354e-01  -1.3920201e-01  -3.3032657e-01   2.4093966e-01   8.5448791e-01  -6.7713927e-01   2.4668583e-01  -6.7492830e-01   3.6591934e-01   3.9985142e-01   6.5532197e-01   3.0512015e-01  -4.7221951e-01   4.4806450e-01  -6.3691815e-01  -6.7583056e-01   4.5002505e-01  -9.2570994e-01   3.6514525e-01   7.6015525e-01  -4.4125239e-01   1.7286324e-01  -7.3940768e-01  -8.1277094e-01  -9.4059167e-01   9.7786283e-01   5.5743477e-01  -7.2836930e-01  -9.0448458e-01   9.5226308e-01   7.7705626e-02   7.4531629e-01   1.8418880e-01   1.3328412e-01   6.9277684e-02   4.3645017e-01  -5.6336360e-01  -1.7277774e-01   5.3920270e-01  -4.6063781e-01   1.9416664e-01  -1.4121992e-01  -6.9073849e-01  -9.1144716e-02   5.7598618e-01  -4.4460299e-01  -8.3858542e-01  -1.7378637e-02  -1.7136590e-01   8.1917575e-02  -4.3149333e-04  -9.5293265e-01   2.9526586e-01   6.9146853e-01   5.8080265e-01  -6.6362338e-01  -9.4008900e-01  -4.0109380e-02   1.9981687e-01  -9.0497189e-01  -5.6985464e-01   3.7623337e-01   6.3454994e-01   5.0017522e-01  -3.0494487e-01   8.2993429e-01  -1.0034502e-01   7.1726066e-02   1.2364128e-01  -8.0588278e-01   8.4474750e-01  -5.7849616e-01  -3.2388582e-03  -7.4709900e-02  -7.6131603e-01   5.8391538e-01   7.3552281e-01   4.9195122e-01  -6.6689033e-01   6.5408288e-01  -3.3215702e-02   3.6781311e-01   7.3602681e-01  -8.1726958e-01   8.7713349e-01  -5.8589937e-01  -4.4522806e-01   9.1560419e-01  -8.2203368e-01  -2.6633000e-01   9.2349924e-01  -9.3019432e-01   5.3649995e-01   1.7556426e-01   7.1678413e-01   5.6012015e-01   7.2869263e-01   3.5755125e-01  -8.9790900e-01  -4.1634186e-01  -7.2162139e-01  -6.7039243e-02   5.7818916e-01   3.7277959e-01   9.2962852e-01   3.8611615e-01  -2.1899556e-01  -6.2261702e-01   3.6077437e-01   1.9355185e-01  -3.0135716e-01   8.1750781e-01   7.3066384e-01  -8.6956567e-02   3.3345950e-01   1.2296741e-01   7.0054411e-01  -2.2484016e-01  -5.3867885e-01   8.1009431e-01   4.2499185e-01  -1.5882517e-01  -4.9277164e-01  -8.0344103e-01   5.9300149e-01   8.0654716e-01   2.0135778e-01  -7.6402919e-01   4.0345387e-01   7.5311980e-01  -2.4958116e-01   9.4049596e-01  -3.6232048e-01  -4.0513675e-02  -9.7836344e-01  -3.3650514e-01  -7.2150628e-01   3.8628681e-01  -5.5217335e-01   7.5349398e-01   8.3490408e-01  -1.3369322e-01   3.0753281e-01   8.0552696e-01   9.7723718e-01  -2.2088967e-02  -1.7839261e-01  -1.7946559e-01   5.7527090e-01   2.0220446e-01   6.3341075e-01  -4.0208934e-01  -2.0541160e-02  -4.6554115e-01  -9.4736906e-01   8.5031137e-01  -1.3825828e-01  -7.7267370e-01  -6.0151580e-01   2.8373492e-01  -1.4605593e-01   8.1148832e-01   4.2207271e-01  -5.3747281e-02   4.7634646e-01   6.8454678e-01  -3.6212676e-01   3.6090097e-01  -7.2289462e-01   7.9792943e-01   9.8130206e-01  -7.5642536e-01  -7.1540451e-01  -9.9995186e-01   6.7371865e-01  -7.2875206e-01
