   2.9463033e-01   1.6515903e-02  -6.6723495e-01   6.0122820e-01   5.3492336e-01  -5.0794831e-01   9.1849417e-01   5.5785128e-01   1.3460088e-01  -5.9929367e-01   6.9612032e-01  -8.4016504e-01   4.4391458e-01  -1.5833989e-01  -4.9020757e-01   2.8431526e-01  -3.1426440e-02   8.9723343e-01  -6.3417902e-01  -9.4277492e-01   6.7482450e-01  -3.2518209e-01   8.9342907e-02  -5.1023281e-01  -8.3097241e-01  -4.1313178e-01   6.6779676e-01   8.0149957e-01  -1.4236638e-01   7.8728378e-01   1.4485748e-02  -2.9900704e-01   6.2641828e-01  -6.4556118e-01  -3.0969551e-01   9.9297696e-01  -2.2860179e-01  -7.0779460e-01   8.0698787e-01   5.8483300e-01  -8.6190609e-01  -7.2734200e-01   4.5524946e-01  -2.4988641e-01   8.0483356e-01   4.3095199e-02   1.5638792e-01   8.7061961e-01  -5.6264961e-01   9.3120014e-01   2.0334050e-01  -1.1909536e-01  -6.4016974e-01   1.8108518e-01   9.7173769e-01  -8.6495342e-01  -6.3786039e-01   5.6102956e-01   2.7545877e-01   8.9734196e-01   6.5892177e-01  -2.2490065e-03   6.1106995e-01  -7.9803062e-01  -7.7538201e-01   1.3696609e-02  -5.1655504e-01  -5.0261979e-01  -8.3448808e-01  -8.2216699e-01   9.0846476e-02   5.2193868e-01  -6.6749362e-02   9.0847943e-01  -6.0079785e-01   4.5533359e-01   6.9629805e-01   2.0446647e-01  -9.9012843e-01   1.5212404e-01   8.0318168e-01  -2.6369398e-01  -6.2303330e-01  -5.9647118e-01  -9.7079101e-01   7.6848724e-01   5.4278446e-01   7.1572068e-02   1.0447738e-01  -9.1772964e-02  -8.1006415e-01   2.0102794e-01   2.1750321e-02  -1.9261581e-02   2.2950880e-01  -7.2420596e-01   1.2865717e-01   3.2911840e-01  -3.5211904e-01   8.0437754e-01   2.1013942e-02  -4.9804250e-01   1.7826079e-01  -7.9797487e-01  -1.6835775e-01   7.1890632e-01   1.7756870e-01   1.7418304e-02  -5.6488885e-02  -5.1370250e-01   6.6519943e-01   9.9065461e-01   9.7281173e-01  -7.7723871e-01   7.5658300e-01  -8.5140771e-01  -3.8192037e-01   6.8238437e-02   7.2415436e-01  -6.8025873e-01  -3.8429961e-01   2.3492893e-01   5.2203580e-01   4.8869927e-01   5.9135742e-01   6.1459980e-01   4.2667113e-02   3.9213496e-01   4.8047015e-02  -6.8868273e-01   9.4616431e-01   8.7009750e-01   7.3191622e-01  -8.8838836e-01   2.3299953e-01   6.1315293e-01   9.3470601e-01   3.7989861e-01   8.4288677e-01   7.5546332e-02  -8.7016194e-02   3.0179724e-01  -4.0633500e-01  -1.1502375e-01  -6.0016428e-01   7.2124500e-01  -5.2041160e-01   1.3166598e-01  -9.1798159e-01   9.5889721e-01   2.8716688e-01   2.4638717e-01   1.9652221e-02  -1.3096566e-01   1.9804631e-01  -3.8553840e-01   6.2492805e-01   2.4568043e-01   1.0805748e-02   4.0727670e-01  -2.7150711e-01   9.7727620e-02   4.9312994e-01  -3.1113064e-02  -7.3241234e-01  -2.2542347e-01  -6.6522513e-01  -2.3768317e-01  -4.8849826e-01   4.7798840e-01   3.9057772e-01   6.8919042e-01  -5.5455258e-01  -8.8890249e-01   7.5858380e-01   2.1166475e-01   4.1770395e-01   9.3393838e-01  -2.6250358e-01   2.6246366e-01   1.7265437e-01  -4.8786539e-01  -6.5617046e-01   4.5421787e-01   3.9999003e-01  -9.4258203e-01  -1.0522435e-01  -7.8103016e-01   4.7762066e-01   3.3588375e-01   1.2182011e-01   8.7543763e-01  -8.7395859e-01   6.6896797e-01   1.9126041e-01   7.0032305e-01  -5.5711594e-01  -3.5708514e-01  -9.7993141e-01  -6.0742050e-02  -4.4926981e-01  -7.4639884e-01  -1.8058201e-02   2.7839216e-01   1.7600573e-01   9.2325095e-01  -8.9880219e-01   8.2407948e-01  -6.0449355e-01  -1.3372092e-01   2.5813946e-01   5.7669859e-01  -6.8336903e-01  -3.5418465e-01   9.4574419e-01   7.6220205e-01  -6.8755069e-01   6.5969930e-01   2.5646375e-01  -8.0222676e-01   8.7846007e-01  -7.3622706e-01  -9.8713473e-01  -2.5881899e-01   8.5348740e-01  -3.9529391e-01   9.3923419e-01  -3.2672772e-01   5.9393217e-01  -8.8333511e-01  -2.1355470e-01  -7.8096392e-01   1.3667172e-01   3.2851225e-01  -7.7951702e-01   7.2992502e-01   2.9990689e-01  -2.8476892e-01   9.0099532e-01   5.7607147e-01   6.7747068e-01   2.4588690e-01  -9.3263741e-01  -3.1744911e-02  -1.5151602e-01   9.2043554e-01  -9.0365187e-01   6.8767196e-01   6.4041077e-01  -6.1082145e-01   5.4441115e-01  -3.3882039e-01   8.9902148e-01  -1.7549992e-01  -3.8878192e-01  -9.6967189e-02  -3.1911044e-01  -3.9713243e-01  -9.7361393e-01   5.5304414e-01  -7.6487489e-01  -7.8306744e-01   8.8799032e-01   9.8763878e-01  -8.2559386e-01  -7.8256290e-01  -6.2554209e-01  -4.1037786e-01  -9.0654009e-01  -1.5550242e-03   2.7439285e-01   2.2843767e-01  -8.6960274e-01   2.7716931e-01   1.8067659e-01  -6.4240116e-01   9.2026244e-01  -8.8642309e-01   5.6448508e-01   5.7955220e-01   6.2667169e-01   5.2903344e-01  -4.9594337e-01   4.4200995e-01  -7.9069394e-01   3.3279582e-01  -7.9008632e-01  -9.3305305e-01  -8.7714916e-01   5.8650570e-01  -7.9720858e-01   3.8160536e-01  -3.2117590e-01   7.8240808e-01  -8.1927120e-02   8.8430061e-01   7.9911434e-01   7.8362606e-01  -8.0410333e-01   8.8500083e-01  -2.0864701e-01  -7.5390587e-02   9.0602334e-01  -6.0743272e-01  -4.1070311e-01   6.8423863e-01  -7.0867739e-01   4.0074021e-01  -7.8268602e-01  -7.2426163e-01   8.4655329e-01   5.9858075e-02  -9.8981908e-01   5.8831116e-02  -5.9453541e-01  -5.6601346e-01  -6.7538621e-01  -3.9518429e-01  -2.9926884e-01   9.2525503e-01   5.9728403e-01  -6.7820552e-01  -6.0551986e-01  -3.8978827e-01   2.4775143e-01  -3.3923601e-01   9.0739179e-01  -9.9604417e-01  -6.9285875e-02  -8.8144257e-01   5.8742699e-01   4.1520647e-01  -6.4537016e-01  -6.5373734e-01  -9.6307800e-01  -6.0398147e-02   3.6566086e-01  -7.6008767e-01   3.9884101e-01   4.0664175e-01  -5.0721116e-01   6.6101592e-01   1.2432763e-01   4.4962365e-01   8.0716168e-01  -1.1138124e-01  -4.9773068e-02  -7.7129757e-01  -7.7133102e-01  -8.2961215e-01   4.2643511e-01   8.3022435e-01   4.8059401e-01  -1.5155712e-01   4.7520371e-01  -6.0124198e-01  -7.5813508e-02   4.2376798e-01  -9.2754856e-01   5.6053340e-01   9.7420582e-01  -9.7166963e-01   9.9744997e-01  -7.2049789e-01  -8.0801191e-01   4.7994879e-01   3.8562611e-01  -5.1047496e-01   7.4069900e-01  -6.2395344e-01  -4.9571713e-01  -8.5990385e-01  -4.6870283e-01   1.1398698e-01   2.7110121e-01   3.3137783e-01  -3.1307181e-01  -8.5000398e-01  -3.2777510e-01   7.8645538e-01  -5.9578395e-01   8.2430060e-01   1.6441039e-01   5.4120010e-01  -1.9458661e-01  -1.5631225e-01  -4.8260716e-01   4.5790838e-01  -7.1434503e-01   1.1290936e-01   9.0384539e-01   9.3966802e-01  -3.4794404e-01  -7.8367304e-01   1.2678186e-01   1.9414612e-01  -2.8547975e-01   6.1412623e-01  -5.0090969e-01   9.9797016e-01   8.8650377e-01   7.5646372e-01   1.9126306e-01   5.5428460e-01  -1.6340677e-01  -2.6648894e-01  -9.7163591e-01   8.9959237e-01   5.1075404e-01  -6.7095830e-01  -3.2757012e-01  -8.9991943e-01   8.6056484e-01   7.9174508e-01  -4.8954425e-01  -6.4111736e-01   8.8851567e-01   9.6175254e-01  -8.2672204e-01   5.4716324e-02  -7.8400063e-01  -6.2670320e-01  -6.1437722e-01   5.5642387e-01  -9.6658094e-02   4.5809963e-01   6.1388968e-01  -5.6708383e-01   5.2133384e-01   6.1147477e-01  -5.2849398e-01   8.7223664e-01  -6.1876083e-01   5.7943793e-01   1.2690323e-01   4.6955742e-02  -2.0165049e-01  -8.4574691e-01   7.0243575e-01  -9.2634008e-01  -6.0914647e-01   1.0015282e-01   1.6999496e-01   1.8187994e-01   8.6811326e-01  -3.5077938e-01  -9.7657439e-01  -6.7042059e-01  -2.3130018e-01   6.2869463e-01  -9.5599019e-01   5.5892063e-01   2.0557928e-01  -3.4982921e-02   5.2089773e-01   9.4750723e-01   1.2082741e-01   3.2809147e-01   3.0351670e-01   3.8790644e-01   6.6325726e-01   6.6860696e-01  -9.3916627e-01   8.8324126e-01  -3.1746748e-01   3.1903222e-01  -8.4987181e-01  -6.2220482e-01   1.3967709e-02   9.6097954e-01   7.3041916e-01   4.5540357e-01   1.4368154e-01   9.8453885e-01  -6.0612150e-01  -2.8861868e-01   3.1560238e-01   3.9746784e-01   7.3522674e-01  -8.8636179e-02  -5.7338511e-01   2.3225251e-01  -7.5419585e-02  -4.1391613e-01   8.6618373e-01  -4.9133847e-01  -6.4563593e-01   5.6669970e-01  -3.6957413e-01  -5.3072724e-01  -2.7894261e-03   6.3409956e-01   4.8094583e-02   5.4478151e-01   8.5222850e-01   3.0458195e-01  -1.3881872e-01  -2.9332947e-01  -9.8875310e-01  -9.9568806e-01  -8.8095150e-01  -2.3781531e-01  -7.2302215e-01   7.4920337e-01   7.1037568e-01  -9.2784740e-01  -9.1188184e-01   8.4112041e-01   7.5989316e-01  -5.1942209e-01   6.9218493e-01   7.9904637e-01   6.3517939e-01  -8.8654954e-01   1.0427960e-01   1.6740418e-01  -7.8704258e-01  -1.2888303e-01   4.0317057e-01   9.9255525e-01   5.3582039e-01  -5.5128616e-01   9.1257869e-01  -7.4486389e-01   8.8337088e-01   7.9745135e-01  -9.7164807e-01  -6.5202109e-01   4.7489026e-01   5.8519667e-01   2.0564690e-01  -6.2979191e-01  -8.0313188e-01  -2.2944917e-01   4.7077280e-01  -7.0599364e-01  -1.9061685e-02  -1.2987101e-01  -7.4191523e-01   5.3116550e-01  -5.9550969e-01   1.0662398e-02   4.3026344e-01   6.7603520e-01   1.6088858e-01   9.5424914e-01  -7.0282806e-01  -1.8851470e-01  -9.8847518e-01  -4.6612606e-01  -7.3727217e-01   5.0733920e-01   1.1334682e-01   6.0447345e-01   6.2075200e-01  -1.9681390e-01  -9.4826740e-01   2.7640101e-01  -1.9232902e-01  -8.3557371e-02   5.0207594e-01   3.8470057e-01   8.7281405e-01   6.1899962e-01  -8.6347863e-01  -6.8137268e-01   1.0274051e-01  -5.7391401e-01  -7.2936562e-01   2.9130827e-01  -6.1805436e-01  -7.6365073e-01  -4.5364121e-01   8.3514292e-01   5.9196399e-01  -3.4411281e-01   3.6494124e-01  -1.4646181e-01   8.5402068e-01   6.5438367e-01   5.3501528e-01  -9.8517331e-01  -1.0412283e-01  -6.0054708e-01   8.8428297e-01   1.2023279e-01  -7.6213178e-01  -3.1576079e-01  -6.9491429e-01   3.6641645e-01   9.2702937e-01  -1.7440095e-01  -8.4709543e-01   5.7875566e-01   9.9836568e-01  -2.5766187e-02  -4.0285844e-01   5.5458795e-02  -4.3746398e-01   1.7308907e-01  -7.6020133e-01   7.0583783e-01   6.7904871e-01  -1.6356707e-01   8.9356817e-01  -3.4268463e-01  -1.0688592e-01  -3.5234588e-01  -7.2405150e-01  -6.0237706e-01   4.4449729e-01   1.7132430e-01  -4.9356050e-01   1.0336744e-01   2.2180309e-01   3.7986923e-01  -3.7013459e-01  -7.6783411e-01   1.8848070e-01  -8.1290764e-01  -9.2000154e-03   8.6271531e-01   8.2566516e-01  -5.7107335e-01  -9.5388686e-01   9.9518145e-02   2.6323188e-02   7.2991178e-02  -9.5524306e-01   5.1243837e-01  -6.1596709e-01  -8.7097263e-01   4.7890353e-02  -5.8815735e-01   8.9986989e-01   5.3893360e-01   9.2269736e-02  -4.5363347e-01  -4.0715374e-01   7.8922829e-01  -9.5010332e-01   8.8029810e-02  -7.6472002e-01  -1.0071799e-01   8.8033678e-01   5.9692968e-01  -7.4604131e-01  -1.8645311e-01   6.7216510e-01   7.8881991e-01   7.3910792e-01   1.2961502e-01  -3.4502414e-01  -8.8297343e-01   7.3330729e-01  -9.5597971e-01   1.8514563e-01  -7.6283788e-01   8.0113150e-02  -4.3647245e-01   4.5416305e-01  -7.4709187e-01   2.0964086e-01  -1.6016824e-01  -9.4156068e-01   6.5819930e-01   6.2598966e-02  -9.8917089e-03  -7.7186272e-01   7.7018403e-01  -6.3361975e-02  -9.0805981e-02  -9.7735258e-01  -7.9523385e-02   5.4489739e-01  -6.6104123e-01  -6.4328121e-01   6.3670963e-01  -6.1904949e-01   3.6111700e-01  -2.9915468e-01   6.9397482e-01   5.2725615e-01   4.0899276e-01  -1.0151852e-01  -8.7363636e-01   6.2206416e-01  -5.9762292e-01  -2.8276734e-01   8.6017231e-01  -4.7805392e-01  -4.4070515e-01  -6.7438578e-01   3.0465317e-01   7.0860310e-01   8.1828850e-02  -8.9633949e-01  -3.4328366e-01   9.2846588e-01  -6.0067887e-02   6.2707385e-02   6.3372818e-01  -5.6407935e-01  -5.4113626e-01  -4.6874392e-01  -7.7683140e-01  -8.8490706e-01   1.8114277e-01  -2.6534283e-01   3.7981190e-02  -2.7812600e-02  -6.3764592e-01  -3.3828827e-01   9.9752813e-01  -5.5859977e-01   7.3479711e-01  -7.7271079e-01  -7.0379864e-01  -2.9112191e-01   6.8075338e-02  -9.3486442e-01   9.3961871e-01  -2.0001193e-01  -3.0421456e-01  -2.1237950e-01  -2.6261019e-01  -9.2612045e-01   1.6053179e-01   2.9342286e-01  -6.5574282e-01  -1.0825225e-01   5.6092569e-01   8.8690576e-02   7.9270548e-02   4.2827072e-01  -7.1170222e-01  -3.0247172e-02  -2.6466101e-02  -5.3854396e-01  -1.9792277e-01   7.4061368e-01  -4.3098166e-01  -1.3630485e-01  -1.4433043e-01   1.0257365e-01  -3.5703296e-02   8.8415557e-01   7.0575971e-01   4.4925455e-01   8.9971990e-01  -1.2551231e-01  -9.6840946e-01  -8.5222310e-01  -4.8320006e-01  -7.5692547e-01   1.4822700e-01   8.6715257e-01   8.2329006e-01   4.1564893e-01   4.4823367e-01  -1.5887358e-01   6.7877182e-01  -7.1026025e-01  -8.9506645e-01   5.1431023e-01  -4.3705213e-01  -9.6116116e-01  -1.6110250e-01   6.9463637e-01  -3.5207086e-01  -7.6668285e-01  -7.7417197e-01   2.6553392e-01   6.6086461e-02  -6.7450691e-01  -9.9336152e-01  -1.7455951e-01  -6.0406644e-01   7.1004662e-01  -1.9240506e-01  -8.0036924e-01   1.1285799e-01   8.9845869e-01  -2.4978287e-01  -2.0731504e-02   3.6813409e-02   7.5758945e-02  -3.9780220e-01  -6.7639102e-01  -8.6202087e-02   1.6453935e-01   1.3710157e-01   1.5090365e-01  -2.4666481e-01   4.0192432e-01   7.9787755e-01   6.5501985e-01  -8.7747411e-01   7.7513785e-03   2.9389095e-02   3.2348818e-01  -9.3615256e-01   4.9583631e-01   4.2907238e-01  -4.7575828e-01   6.4029396e-01   2.7048386e-01  -2.2661358e-01   1.3336632e-01  -7.0550636e-01   9.0469569e-01   1.9474073e-01  -9.0586648e-02   4.0843591e-02   4.8916121e-01  -3.0909089e-01   6.3766929e-01   8.1800272e-03   6.9430285e-01  -3.1774401e-01   4.8368294e-01   6.6979173e-01   6.3301796e-01   8.9883342e-01  -5.5771072e-01  -2.2629457e-01   3.4012864e-01  -7.1251353e-02  -1.5394740e-01   7.3951276e-01  -8.5836964e-01  -8.2224718e-01   8.7383407e-01  -3.7182706e-01  -7.5799355e-02   7.9001104e-01   9.2594666e-01  -4.6632748e-01   6.4352021e-01  -7.0779175e-01   8.8053102e-01  -6.9771936e-01  -9.6521164e-01  -2.2986698e-01  -7.5388602e-01  -1.4938928e-01  -3.3217409e-01  -1.8443735e-01   4.2107033e-01   5.9885184e-01  -1.3595067e-01  -8.5295261e-01  -4.5986084e-01  -5.1737447e-03  -5.4887319e-01   6.9731657e-01  -6.3668042e-01   1.2197030e-01   2.0996108e-01  -3.5249634e-01  -3.2908909e-01   2.0890887e-01  -6.6387637e-01  -5.0591090e-01  -4.1601462e-01   2.7207050e-02  -2.6861257e-01   4.0952000e-01   7.1746222e-01  -4.5773493e-01  -7.8531807e-01   4.0400452e-01  -7.6874580e-01   1.2659519e-01   5.9814006e-01  -3.8392059e-01  -9.6323110e-02  -5.2876282e-02   5.0476883e-01   4.7701715e-01  -2.0476296e-02  -4.9063340e-01  -7.1026084e-02  -3.3830833e-01   8.7737738e-01   4.4372269e-02  -6.6519813e-01   5.5255421e-01  -5.8071349e-01   3.5276289e-01  -6.2033948e-01  -5.7845040e-01  -9.6026678e-02  -9.4879455e-01  -4.5086028e-01  -1.0719669e-01  -9.0533360e-01  -1.3613316e-01   9.1195990e-01  -8.7401360e-01   4.9284027e-01  -3.7949102e-01  -7.9372577e-01   1.3499219e-01  -6.3702246e-01  -5.1151103e-01   5.6123433e-02  -1.7580382e-01  -6.8869469e-01  -6.3690715e-01   7.4433353e-02   8.4670846e-01  -5.0772365e-01   4.9460940e-01  -8.3964018e-01   1.2175558e-01   9.6357336e-01   7.1500456e-01  -5.2774504e-02   8.1819213e-01  -3.3342287e-02   1.0859355e-01  -4.2986895e-01  -5.0510470e-01  -1.3914059e-01  -5.1542115e-01  -4.7792933e-01  -5.8764757e-01  -5.1413523e-01  -3.8476045e-01  -6.8443796e-01  -3.0439436e-01   9.6989962e-02   9.0649698e-01  -2.8611595e-01  -8.7599653e-02  -7.4986800e-01  -9.8842725e-01   2.5063664e-03   4.6825564e-01   5.2368923e-01   1.5205165e-01  -8.7712892e-01   2.8301949e-01  -3.7502218e-01  -4.5251829e-01  -3.2432327e-01  -6.1095068e-01   8.9779191e-01   4.3507725e-02  -4.1922031e-01   2.1332018e-01  -3.2071645e-01   6.9396918e-01   1.3368956e-01   1.5636881e-01  -2.1007876e-01  -9.8267864e-01  -9.5786280e-01  -3.7139738e-01   2.7649523e-01   9.9164875e-02   3.9120798e-01   7.6100424e-01   3.3130094e-01   3.1549687e-01   6.9256717e-01  -4.9728309e-01  -8.6807963e-01   9.8220637e-01  -1.7981676e-01   3.8791592e-02   1.5322760e-01   8.1537651e-01  -4.0842652e-01  -3.5357003e-01  -3.5083680e-01  -2.6589697e-03   7.3981043e-01   1.4989741e-01   9.7759862e-01   3.0517507e-01   6.6323545e-01   8.1633489e-01   2.5958695e-01   1.1989447e-01  -8.4072930e-01   8.9679843e-01   7.6840505e-01   4.1310257e-01   2.7369065e-01  -5.3914409e-01   4.9691060e-01   9.3411016e-01  -5.3556462e-01   2.1609405e-01  -8.0886465e-01  -6.4320898e-01   6.1128652e-01   4.5638677e-01
   1.6257722e-01  -2.5277776e-01   8.1722851e-01  -4.7295229e-01  -2.6405614e-02  -3.7622125e-01  -9.7797745e-01  -2.0013204e-01   4.5686642e-01  -3.6034561e-01  -3.5005799e-01  -1.2079125e-02   2.8092718e-01   3.7414690e-01  -3.8408864e-01  -6.3220308e-01  -9.9265558e-01   7.1086557e-01   3.5985500e-01  -4.6749564e-01  -4.6544889e-01   1.4791946e-01  -8.3324819e-01   5.1688005e-01   8.7863863e-01   2.6036976e-02   5.0332463e-01  -4.0324925e-01   2.6133180e-01  -5.7811726e-01   3.8528012e-01  -9.6714016e-01  -2.5422747e-01   4.6789182e-01   1.1070052e-01  -3.5408600e-01   1.9469793e-01   4.2841848e-01  -4.4868119e-02   6.4045511e-01  -9.4275479e-01   3.9061565e-01  -6.7342646e-01  -2.5033940e-01  -9.4378523e-01   2.1500020e-02   2.5863837e-01   6.1905873e-01  -7.6930638e-01   4.7950948e-01   7.8729012e-01   8.0138031e-01  -2.6671324e-01   6.7124131e-01  -7.3990070e-01   7.9831224e-01   7.1347764e-01  -3.7708039e-01  -4.4334111e-01  -8.5155804e-01  -9.1531061e-01  -8.5004344e-01  -2.6080020e-01   4.3740807e-01  -2.9325610e-01  -8.4675535e-01   6.5769555e-02   5.0464705e-01   7.1481405e-01  -4.6894574e-01   9.1560839e-01  -6.5479657e-01   3.0711135e-01  -2.4109497e-01   6.8403753e-01  -1.7376941e-01  -4.1297222e-01  -5.3026372e-01  -9.3042947e-01  -2.1482361e-02  -4.6343355e-01  -6.8364185e-01   3.0538455e-01   1.7724543e-02  -3.1720885e-01   2.0734346e-01   8.0509814e-01  -2.5226219e-01   9.8886766e-01   4.2378601e-01   4.3246814e-01  -6.2883340e-01  -2.6484654e-01   4.2685404e-01   1.7138004e-01  -5.7651695e-01   1.5599541e-01  -6.1239896e-01   8.9181994e-01  -5.2042724e-01   8.5597804e-01   9.9706108e-01  -7.4334546e-01   8.4304523e-01  -4.7567262e-01   4.5123392e-01   4.1848992e-01  -4.8157036e-01   6.1802049e-01   7.4435147e-01   9.6864540e-01  -4.9474161e-01  -2.3384310e-01   3.9522118e-01  -5.9590151e-01   2.3503094e-01  -2.3124955e-01  -3.4218899e-01  -3.4432458e-01   5.6812428e-01   8.8619350e-01   5.4962882e-01  -2.8785287e-01   5.7530892e-01  -5.0337878e-01  -6.5350191e-01  -5.0203622e-01   6.1371154e-01   3.5357429e-01  -1.7652555e-01   4.7411204e-01  -4.9543257e-01   5.2855314e-01  -5.2075979e-01   3.9156325e-01  -6.5197628e-01  -2.5722424e-01   3.9793579e-01   9.0494022e-01   7.3803863e-01   8.6331351e-01   5.5717650e-01  -9.5556789e-01  -7.3074555e-01  -2.1890909e-01   3.5926518e-01   1.0814720e-01  -1.1208968e-01   7.2044473e-01  -8.5628935e-01  -4.1508589e-01  -4.6014001e-01  -7.0357676e-01   4.7958036e-01  -3.5599184e-01  -7.1151698e-01   7.5601126e-02   6.0091855e-01   7.5295232e-01  -4.2788143e-01  -5.7398166e-01  -9.4896935e-01   7.2433017e-01  -7.3194233e-01  -2.6770067e-01  -8.8554789e-02   3.6200364e-01   5.8366940e-01   7.3556363e-02  -9.4497343e-01  -6.8169450e-01  -9.3998763e-01   4.6840316e-01  -6.1498437e-01   1.5416804e-01  -2.9776791e-01  -4.0755515e-01  -3.6559130e-01  -7.4731368e-01   3.2799481e-01  -7.6055958e-01  -5.4980510e-01   5.5451523e-01   3.3474588e-01  -8.1129319e-01  -4.1722569e-01   2.7030497e-01  -4.8285368e-01  -1.0773750e-01   1.7361070e-02  -2.7591558e-01   4.8668153e-01  -6.6762121e-01   8.0326302e-01  -7.9882957e-01  -2.5175738e-01   8.6845501e-01   6.4270516e-01   7.1629306e-01  -8.1547595e-02  -4.6006376e-01  -8.0814823e-02  -7.5260378e-01  -7.6991020e-01   9.2797411e-02  -2.7230750e-01  -8.6255826e-01  -5.7520398e-01   7.1841165e-01  -1.9450015e-01  -3.3704929e-01   9.9864696e-01  -7.8737993e-01  -7.5678498e-01  -2.1562217e-01   5.8559930e-01   8.4005430e-01  -7.3051351e-01  -4.1543364e-01   9.4290360e-01  -2.1901637e-01   1.9714789e-01   1.3787040e-01  -9.5606193e-01   6.6255916e-01  -2.8191603e-02  -6.0593166e-01   1.8235474e-01  -3.8717772e-02  -1.3135489e-01   3.0605027e-01  -6.7711007e-04  -3.0696848e-01   1.7533645e-01   4.4916917e-01   7.0908314e-01   5.4461253e-01  -3.9878032e-01  -9.9326767e-01   5.2892331e-01   6.8161744e-01   4.4520916e-01  -8.2994832e-01   6.5151585e-02  -4.6063999e-01  -3.8437325e-01  -2.1318141e-01  -2.5993542e-01   2.8256194e-01   3.9850608e-01  -5.9504406e-01   2.7185213e-01   2.7255862e-01  -6.7814174e-01   6.6296903e-01  -1.6611226e-01   7.9803685e-01   1.6713566e-01   5.1816083e-01   7.2269688e-01   7.7176979e-01  -7.9338599e-01   1.2371911e-01  -3.1478211e-01   1.4295398e-01  -7.0875940e-01   1.1955384e-01  -7.7243612e-02   1.5850016e-01  -9.3817385e-01   4.5293715e-01   1.1876365e-01   6.3574029e-01   2.3432729e-01  -7.8160270e-01   6.9676010e-01  -9.6689726e-01  -4.0747531e-01   4.5347187e-01  -8.9807152e-01   6.0242870e-01  -2.2991891e-01  -7.3733041e-01   9.6624013e-01   2.7148455e-01   1.9813523e-01   2.9957593e-01  -5.2174191e-01  -8.4034361e-01   7.9417322e-01  -5.5258149e-01   9.6280161e-01   4.7222467e-02   8.4896937e-01   2.0833151e-03   3.9214286e-01  -2.1060341e-01  -4.2879588e-01  -5.3225800e-01   5.5948939e-01   8.6555711e-01  -1.7862734e-01   6.5112552e-01  -7.8271758e-02   8.1086301e-01   6.9040231e-01   1.9234448e-01   7.4929673e-01   7.9352059e-01   3.8694958e-01   4.0270879e-01  -1.0621488e-01   4.5411495e-01  -6.7482332e-01  -7.5203057e-01  -6.2412447e-01  -3.6932746e-01   7.4033089e-01   2.3307780e-01   7.9001120e-01  -9.0672622e-01  -7.5211724e-01   3.4983375e-01  -7.1374963e-01   3.3059392e-01  -9.2557820e-01   8.7993020e-01   1.9566310e-01   3.7769208e-01   5.6574682e-01   3.8715899e-01  -6.7667937e-01   2.1042507e-01   3.4856168e-01   6.8583681e-01  -5.1699583e-01   3.2634433e-01  -7.1781024e-01  -9.2453155e-01  -8.0709296e-01  -8.2006969e-01  -5.2170030e-01  -6.7917355e-02  -7.6122026e-01   6.6866958e-01  -3.5039857e-02   6.3716426e-01  -6.9216637e-01   6.3413312e-01   2.0939460e-01  -3.5656266e-02   4.0112838e-01  -3.5420706e-01   8.5552217e-01   6.3592270e-01   1.1818414e-01  -3.1912007e-02  -3.8540758e-02   3.0226682e-01   7.9929800e-01  -2.7522226e-01  -3.9400509e-01  -1.6379275e-01  -1.7552347e-01   5.7117753e-01   8.1294305e-01  -1.2387482e-01  -1.8791058e-02  -5.4003428e-01   3.8485103e-01  -7.4429369e-01  -3.7818783e-01  -2.8828465e-01  -9.8186243e-01   1.7774497e-01  -5.8769191e-01  -2.2619417e-01  -9.7080718e-01   6.1647756e-01  -9.6955789e-01   9.4531114e-01   9.9620935e-01  -8.5741457e-01  -2.8527315e-01   9.9446099e-02  -3.8826432e-01   3.1242556e-01   6.6794483e-01   2.0860596e-01  -9.9727655e-01   6.8997934e-01  -1.5266713e-01   7.2558794e-01  -7.0483039e-02   8.1726200e-01   8.8717778e-01  -3.5451106e-01   7.9336668e-02   8.3997056e-01   1.6017297e-01  -5.4648203e-01   8.7204023e-01   8.6919760e-01  -2.1283933e-01   8.3715761e-02   5.0235534e-01   3.0363742e-01   7.3924975e-01  -3.4411869e-01   9.9486264e-01  -1.0918810e-01   8.9574541e-01  -8.0452357e-01   5.4147153e-01  -8.0829027e-01  -2.8265720e-03  -1.1841263e-01  -1.5830715e-01  -3.9357908e-01  -2.4535211e-02  -5.5192495e-01  -2.4863215e-01  -5.8050331e-01  -6.0860238e-01   4.1901948e-01  -6.4615129e-01  -2.6055215e-01  -1.7274681e-01   3.2933610e-01   9.2328548e-01  -2.3663374e-01  -8.8399000e-01  -9.9258731e-01  -9.2797641e-01   3.2645866e-01   9.4684347e-02   4.3533158e-01   7.7810833e-01   2.6500143e-01  -8.1865815e-01   6.3217083e-01  -7.9323985e-01   1.9803745e-01  -8.7108083e-01   9.1730205e-01   7.2156295e-01   8.1495169e-01  -3.9791881e-01   2.1202134e-01  -3.0044678e-01   9.6272403e-01  -6.0163629e-01  -2.0702557e-01  -9.9127018e-01  -2.9662681e-01   9.2574982e-01   5.2246733e-01   4.3825154e-01   8.9904356e-01  -8.8778916e-01  -5.1310381e-01   5.3174057e-01   6.0767672e-01   9.7766097e-01  -2.0977610e-01   4.1520497e-01   4.6028763e-02  -3.1579729e-01   6.7255100e-01  -8.1428634e-01  -2.9742069e-01  -6.9096075e-01   8.8448316e-01  -9.9735667e-01  -8.5851072e-01  -3.1671044e-01  -7.0166018e-01  -2.6055139e-01   7.6977414e-02   5.1283192e-01  -6.3585071e-01  -6.0537517e-02   2.6975118e-01  -5.0642911e-01  -6.9254398e-01  -1.0324132e-01   3.4286741e-01   5.0706868e-01   4.6435844e-03  -5.6676382e-01   4.0257398e-01   5.8123963e-01  -3.7992826e-01  -2.0803460e-01  -9.5094110e-01  -8.2774978e-01   1.9637809e-02   5.1132158e-01   2.1549315e-01  -6.3568862e-02  -9.8215556e-01  -4.6381709e-02   8.1314584e-01   1.9132445e-01  -2.2419361e-02  -2.5791740e-01   2.4370248e-01  -1.7288028e-01   1.1921743e-01  -7.7143328e-01   9.2035058e-01  -8.0710040e-01   5.9145634e-01  -7.1989208e-01  -6.8727995e-01   7.0239795e-01  -5.3415248e-01   5.2752806e-01   3.7979189e-01   2.0344882e-01  -5.3703863e-01   1.8937606e-01   1.9146884e-01  -8.1868105e-02  -8.3319308e-01  -2.9472453e-01  -9.5683435e-01  -3.9604420e-01   1.0743470e-01   8.0604469e-03  -3.2983589e-01   5.5918017e-01  -5.0671315e-01  -7.8755196e-01   9.9354853e-01   5.7307663e-01  -5.7605708e-01   2.2103157e-01   1.5397772e-01  -3.5835885e-01  -3.8838372e-01   9.6142546e-01  -8.1267793e-01  -1.9482193e-01   1.1908665e-01  -4.4219008e-01  -2.0774146e-01   3.5309034e-01  -3.5375207e-01  -3.1969409e-01  -6.9410342e-01  -6.5665947e-02  -2.5443103e-01  -1.3307012e-02   4.7402580e-01  -5.8290085e-01  -8.3609295e-01  -8.1543146e-01   8.0282992e-01  -4.4041276e-01  -7.0674905e-01   9.4219093e-01   6.1799737e-01  -8.4072852e-01   6.9211102e-01   1.4058243e-01   5.7216049e-01   5.1983381e-01   3.5206507e-02   5.2809174e-01   3.3217289e-01  -2.1417670e-01  -4.0432295e-01   6.7851380e-01   7.9018454e-01  -2.5050568e-01   5.5176590e-01   5.2592088e-01   2.4346132e-01  -5.0810157e-01   1.1702756e-01   5.0929073e-01  -5.5111320e-01  -2.7151222e-01  -4.8015182e-01   7.4929281e-01   6.5728295e-01   1.8644885e-01  -6.0337789e-01  -7.9078275e-01  -3.8145783e-01  -9.6367998e-01  -4.2237195e-01   4.5728218e-01  -3.8360009e-01  -3.9283698e-01  -1.5336567e-01   3.5896155e-01  -7.0991831e-01   7.5213750e-01  -9.0732260e-01  -1.3939128e-01  -2.7901557e-01  -5.9489523e-01  -3.0954099e-01   7.0699592e-01  -4.8773031e-02   7.4245052e-01  -1.6374054e-02   4.7141043e-01   6.5727182e-01   7.9600067e-01  -8.0872472e-04  -5.2971599e-01   3.6498193e-01   4.3167105e-01   5.8919569e-01  -7.3810677e-01  -9.5276443e-01  -6.4597246e-01   8.3289597e-01  -1.6318569e-01  -5.1240371e-01   4.8651327e-01  -4.5363933e-01   1.0208232e-01  -2.8479491e-01   8.5405479e-01  -4.9847383e-01  -4.1934732e-01  -8.0659425e-01   6.5229672e-01  -8.5739194e-01  -9.1829401e-01   7.8662859e-01   9.9237099e-01  -6.9464398e-01  -9.1548458e-01  -9.6951352e-01  -6.8809527e-01  -1.3780571e-01   6.6558620e-01   1.6348089e-01  -8.1171387e-01   7.2075346e-01  -8.1046569e-01   5.3430942e-01   1.4621711e-01   5.1156480e-02  -9.8173822e-01   4.6852999e-01  -7.3716220e-01  -2.6262938e-01   5.8330670e-01  -2.9607932e-01  -3.5193141e-01  -4.2388841e-01  -8.4173172e-01   5.4533754e-01   5.8538623e-01   6.0991977e-01   9.6546833e-01  -8.4029604e-02  -9.5423816e-02   6.6553254e-01   2.7923559e-01  -4.2442577e-01  -2.8811176e-01  -2.7900875e-02   4.5345054e-01   6.2015131e-01  -4.4891986e-02   4.8753236e-01   5.8313814e-01   3.8247923e-01   2.1757644e-01   5.2101484e-01  -5.2576356e-01   2.0443406e-01  -7.3600553e-01  -5.8750451e-02  -9.3096876e-01   8.1293071e-01  -2.0611795e-01  -6.1423643e-01   1.9087785e-02  -8.4651716e-01   8.0728415e-02  -5.9595782e-01   6.5660167e-01   6.2771738e-01   7.2947571e-01   8.6737987e-01  -9.1592224e-01   8.3889601e-01   2.2800296e-01  -5.6598987e-01   3.8695586e-01   5.6184467e-01   1.5301255e-01   5.9579091e-03  -6.6828562e-01  -1.0447933e-02  -2.8309091e-01  -6.3312515e-01  -8.1792892e-01   4.7877669e-01  -7.6817800e-01   6.4282378e-01  -3.6785195e-01   6.8090802e-01   7.2110803e-01  -1.4385479e-01  -2.5291522e-01  -5.1994614e-01   6.4531356e-01   3.0974737e-01   2.5399395e-01  -1.9181984e-01   8.3368025e-01  -2.8610962e-01  -5.2680318e-02  -7.0479701e-01   9.6851477e-01  -9.2840934e-01   7.9252115e-02   6.3707093e-01   1.2663432e-01  -1.4221409e-01   3.7221771e-01   8.5843913e-01  -6.5057128e-01   5.9511441e-01   3.1913069e-01   6.3151245e-01  -4.4877982e-01   6.3413386e-01  -9.0072144e-01   2.6578376e-01   3.4420525e-01   5.1476564e-01  -5.4223809e-01  -6.6739522e-01   7.6386182e-01   6.5416056e-01  -9.0110872e-01  -3.5154958e-01  -5.0460318e-01   6.6152844e-01  -3.0049701e-01   5.0720839e-01   3.9540574e-01  -2.3520009e-01  -3.7943037e-01  -4.4923859e-01   6.0571723e-01  -5.9299575e-01  -2.8073736e-01  -7.8944501e-01  -3.5378564e-01   2.2128666e-01  -6.8769034e-01  -5.6118563e-01   9.3708764e-01  -1.0095743e-01  -1.5297430e-01   3.0316656e-01   7.8651272e-01  -1.9415654e-01  -2.2307020e-01   2.3178005e-01  -8.9661530e-02   7.5356788e-02   6.2184281e-01   9.0135006e-01  -6.1364355e-01   2.7541560e-01   5.4717494e-01   5.0709827e-01  -7.1483242e-01   1.0343280e-01   7.1932988e-01  -2.4442720e-01  -7.7657609e-01  -2.8277579e-02  -5.1300634e-01   3.0944743e-01   8.9317651e-01   1.0649335e-01  -8.5665661e-02   9.9030680e-02   4.8194869e-01  -4.2691438e-01   1.5544922e-01   4.1471094e-01   1.3339699e-01  -9.3978056e-02   9.6951358e-01   1.9337841e-01  -1.9963005e-01   7.8859692e-01   8.7304609e-01  -5.5911401e-01   7.1163384e-01  -9.2764052e-01  -8.6254731e-02  -3.6890349e-01   1.4163955e-01  -4.9154828e-01  -1.4885510e-01  -2.0353397e-01  -1.5084370e-02   7.3129740e-01   4.3205192e-01  -6.3564818e-01   2.9400399e-01  -4.4748947e-01   9.0153805e-01  -4.5560807e-01  -7.1715324e-01   9.0186271e-01   8.4001225e-01  -6.6304173e-01  -5.6763430e-01   7.6339516e-01  -1.9985938e-01   5.8319375e-01  -1.5391433e-02   6.9361446e-01   4.2890566e-01   2.3053747e-02   3.1068497e-01   9.1651363e-01   6.0734228e-01   6.1774339e-01  -4.3714828e-01   3.5321410e-01  -8.9799892e-01  -3.9196250e-01   7.0334961e-01   6.9214469e-01   7.2008187e-01  -2.3101741e-01  -8.0753767e-02  -8.5995418e-01   6.9342818e-01   9.8457180e-01  -1.7655087e-01   4.3599038e-01   5.0021800e-01   2.0325891e-01  -1.7851422e-02  -9.6130090e-01   2.8912942e-02   4.7523475e-01  -2.8831444e-02  -7.2883940e-01  -7.6902869e-01  -4.1363016e-01  -1.1083647e-01   4.7222287e-02   3.9379251e-01   6.9554247e-01  -7.9575619e-01   3.5887402e-01   7.4695948e-01  -4.2514364e-01  -3.3438169e-01  -8.0570317e-01  -4.8782839e-01   2.5268185e-01   3.0564016e-01  -7.8175816e-01   4.9795893e-01  -4.8033877e-01   1.4022656e-01  -4.1380407e-01   3.8793074e-01  -7.0154163e-01   2.7351457e-01   9.6366781e-01   3.8944252e-01  -6.9925234e-01   8.0555712e-02   6.7104509e-01  -2.9480029e-01  -5.7057769e-01   5.4908940e-01   4.2186972e-01   2.0532390e-01  -2.2563008e-01   9.9095690e-01  -6.9493495e-02   6.3475222e-01   9.2749455e-01   1.2829473e-01  -6.5529939e-01   6.0831510e-01   1.7808895e-01   2.3014862e-01  -4.7272848e-01  -6.5514285e-01  -6.2978946e-01   6.1016593e-01  -2.6199714e-01   7.1272160e-01  -1.8117054e-01  -7.6008616e-01  -6.4564652e-01  -3.3747619e-01   4.7494266e-01  -6.0145957e-01   3.4558302e-01  -2.2008041e-02  -6.1999780e-01   9.0173966e-01  -8.9860857e-01  -7.8107393e-01  -3.3253717e-01   9.3316541e-01   7.9708025e-01   1.9490906e-02   8.5281823e-01   8.8958077e-02   6.1333160e-01   1.8295846e-01  -4.1049083e-01  -9.5737423e-01  -1.4912288e-01   3.1513756e-01  -1.9516250e-01  -5.1519359e-02  -8.5271611e-01  -3.7927396e-01  -3.3853142e-01  -1.4361203e-01  -7.2303087e-01   5.2336767e-01   7.5286681e-01   3.7030651e-02   7.9424641e-01  -6.9175878e-01  -4.6762400e-01  -8.3536124e-01   7.7200481e-01  -4.5531726e-01   6.9346917e-01   5.0515037e-03   4.3510671e-02   4.5867821e-01   5.7343550e-03   9.2931318e-01  -3.9876015e-01   5.1511804e-01  -7.5626505e-01   3.3837336e-02   5.1022678e-01  -8.4849214e-01   3.8131255e-01   3.4444955e-01   4.0162535e-01  -5.0324597e-01   4.9620719e-01  -4.0186159e-01  -9.0497923e-01   2.3275357e-01   9.4352649e-01  -3.2233590e-01  -5.9658249e-01  -5.8984559e-01  -7.6075608e-01  -8.6850299e-01  -8.5736915e-01   4.6477508e-01  -5.3600047e-01   7.7062137e-01   7.5951090e-01  -1.6941496e-01   1.4955714e-01   5.5405188e-01  -6.0209522e-01   8.1002507e-01   2.1012930e-02  -5.1140937e-01  -2.2299954e-01  -8.2698498e-01   5.7434865e-01   8.5561956e-01   2.1303341e-01  -7.5251097e-01  -3.8374472e-01   4.6606148e-02  -7.5546635e-01  -2.3147227e-02  -1.7574734e-01   5.3607189e-03  -6.6589822e-01   5.0441449e-01   7.5851847e-01   3.2032278e-01
  -9.2129310e-01   2.1856718e-01   1.7322438e-01   6.3530183e-01  -3.0289125e-01  -5.6914436e-01  -4.8744522e-01   6.0248302e-01   7.3106563e-01   6.8924628e-02  -9.5335405e-01   9.3363632e-01  -8.8818180e-01  -7.2950788e-01   3.9894134e-01   4.8849461e-01  -5.2663190e-01   2.6740789e-01  -4.1937115e-01  -9.5012717e-01  -2.2784145e-01   5.7104071e-01  -3.7855529e-01  -2.8859666e-01  -1.6904903e-02   8.2309351e-02   5.4873779e-01  -6.4225162e-03  -6.7129155e-01   6.0824626e-01  -1.8802281e-01   7.5135598e-01  -7.5054327e-01  -8.6660477e-01   5.4498219e-01   3.1152447e-01   7.6705407e-01  -2.3137819e-01  -4.1503137e-01   4.1434996e-01   9.5175617e-01   7.5149268e-01  -7.6161447e-02   8.9286024e-01   1.5168431e-01   9.3887861e-01  -1.1429638e-01   8.4128840e-01   3.0626374e-01   4.5999025e-02  -5.7698123e-01   6.6051947e-01   9.5467792e-01  -8.4023438e-01  -3.7436703e-01  -6.1494247e-01   4.6842675e-01   9.6919792e-01  -4.8669033e-01  -3.9339950e-01   6.4229458e-01   7.4504084e-01  -3.1507323e-01   1.2409453e-01   1.0996679e-01   3.1805187e-01  -8.3475279e-01   3.0690379e-01  -2.9723359e-01  -5.0131427e-01  -4.1167109e-01   7.6552134e-01  -1.8459563e-01  -7.2018423e-01   9.1453203e-01  -2.8152559e-01  -8.3740369e-02  -7.7006394e-01   4.5621693e-01  -7.9805739e-01  -5.3206702e-01  -3.5561857e-01   6.9491032e-01   7.1313076e-01  -5.3635935e-02  -9.3475087e-01  -1.1887476e-01   4.9655084e-01  -3.5734992e-01   4.3477063e-01   8.9332349e-01   9.6637453e-01   2.1516122e-01  -9.2088974e-01  -9.5009543e-01   1.7076919e-01  -9.3145660e-01  -2.5681992e-01  -5.4603997e-01   7.7896949e-01   7.9882288e-01  -4.1071379e-01  -5.1614660e-01  -3.0951856e-01   3.2929915e-01  -1.7688933e-01   8.6773697e-01   2.9712820e-01  -1.8855069e-01  -5.5304235e-01   5.9347328e-01   8.3361154e-02  -2.3650995e-01   1.1161430e-01  -1.3125789e-01   6.4935970e-01  -6.3895619e-01  -9.7281469e-01   5.2293181e-01  -6.9671416e-02  -8.4032686e-01  -3.2501996e-01   2.6340508e-01  -5.5621678e-01   3.1349352e-01  -8.0594262e-03   8.7497096e-01  -8.5977712e-01  -9.1741384e-01  -5.8215205e-01  -2.5919521e-01  -2.6900758e-02   8.4144807e-01   4.4569328e-01  -4.5495961e-01   2.1680610e-01   7.7280869e-01   3.4223068e-02  -8.6107089e-01  -5.2560306e-01   3.5417971e-01   7.6138520e-01   1.9105305e-01   6.0439879e-01  -1.4594413e-01  -6.4047080e-02   5.8518203e-01   3.7484988e-01  -8.7673832e-01   6.0352992e-01   2.7990165e-01   1.2446658e-01   6.0810245e-01  -8.5659014e-01  -8.1347690e-02  -8.4179883e-02   3.1093498e-01   4.6995983e-01  -4.3954207e-02  -6.6521204e-01   7.7048494e-02   1.2236624e-01   1.2790659e-01   8.5330208e-01   8.1932645e-01   2.7528206e-01  -1.5437026e-01  -5.0487020e-01  -5.2948232e-01  -7.0273860e-01   7.3305573e-01   6.8727223e-01  -4.9255025e-01  -4.6010548e-01  -8.8999755e-01  -1.9291982e-01   1.3692204e-01   7.9643164e-02   4.5338309e-01  -8.6111092e-01  -8.6002133e-01   8.6313176e-01   5.5722036e-01  -2.0246723e-02  -6.6246397e-01  -8.9914930e-01  -3.9549508e-01   7.2950055e-01   9.4360313e-01  -1.1947566e-01   5.6590502e-01  -1.7970337e-01  -5.6056024e-01  -2.2332112e-01   6.5488554e-01   3.9547327e-01  -5.1667270e-01   3.7572422e-01   9.7120592e-02   1.1121932e-01   4.0797044e-01  -8.3567753e-01  -3.4207505e-01   3.1849705e-01   5.3347493e-01   7.0880315e-01  -1.8521302e-01  -6.3119986e-01   6.3453703e-01   8.0144822e-02   1.2518257e-01  -8.3215930e-01  -4.9665195e-01   6.2620563e-01  -2.4108481e-01   7.8896937e-01  -3.4130928e-01  -5.2185080e-01   5.5211225e-01  -9.6192558e-01  -5.4155238e-01   6.3081540e-01  -8.0121419e-01   4.0483362e-01   7.9261170e-01   8.9619529e-01   5.8384314e-01   4.4001459e-01  -5.7487807e-01  -2.4255861e-01  -4.4026773e-01   2.2843646e-02  -1.8283019e-01  -2.7920253e-01  -1.2050682e-01   9.4626905e-01  -6.3525123e-02   6.3276743e-01   2.7483097e-01   2.3063432e-01   1.4898413e-01   2.0739166e-01  -1.0318738e-01   6.3580689e-01   7.4505617e-01   1.7435199e-01  -1.8372117e-01  -8.3417209e-01  -8.7717430e-01   2.7247219e-01  -1.6462220e-01   9.9456200e-01  -6.3721657e-01   8.4030225e-01   8.9398087e-01  -8.7149651e-01   7.3896063e-01  -8.9699526e-01   5.3295902e-02   8.3422458e-01  -7.7462278e-01  -8.9213282e-01   1.5078019e-01  -2.8987943e-01   2.0316092e-01   5.2291287e-02   7.1231120e-01  -8.6058662e-01   7.5406194e-01  -6.8561818e-01   1.4843463e-01   2.5890585e-01  -1.3366101e-01   1.8240650e-02   3.2044444e-01   7.2881717e-01  -8.2099930e-02  -6.7368709e-01  -3.4698432e-01  -3.4676807e-01  -6.2302410e-02  -7.1237603e-01  -4.0034825e-02  -7.0350511e-01  -2.3305566e-01   4.8989613e-01   4.8170134e-01  -2.6865281e-01   2.9357906e-01  -3.1087131e-01  -6.7711645e-01   5.9409972e-01  -2.6183517e-01  -1.7561700e-01   5.8009799e-01  -1.0542582e-01   2.6863034e-01  -5.7445497e-01  -7.2759229e-02   2.2604064e-01   2.9902137e-01   9.0603929e-01  -2.2971497e-01   2.7706710e-01  -4.4888228e-01   5.3105522e-01  -4.1635823e-01   2.6821232e-01  -4.8054495e-01  -6.7751416e-01   1.6528411e-02  -5.3815689e-01  -2.2380210e-01  -3.2790454e-01   4.9057251e-01  -6.9684141e-01  -7.2779406e-01  -6.2672156e-01  -5.6798238e-01   8.8669177e-01   3.6961454e-01  -5.7005184e-01  -6.1432946e-01  -6.9568820e-02  -7.4459256e-01  -6.3711184e-01  -8.6446909e-01   2.3578054e-01  -7.7584854e-02   1.1083195e-01  -5.6001786e-01   6.3435049e-01   8.0484871e-01   4.3056179e-01  -1.9908827e-01  -2.9787470e-01   4.1017969e-01  -1.3469886e-01   8.9873792e-01   6.3638630e-02   6.8768101e-01  -4.0904386e-01  -5.7572477e-01  -1.9453520e-01  -4.3977889e-01  -5.0418353e-01  -2.0719697e-01  -4.1169827e-01  -7.1591332e-01   2.6139719e-01  -8.9861061e-01  -1.5120685e-01  -1.8393474e-01  -7.7094736e-01   7.4386530e-01   6.8661724e-01  -3.5113940e-01  -9.0404831e-01  -3.0017594e-01   7.4884310e-01  -6.7843412e-01  -7.4760680e-01  -8.9577934e-02   3.4473698e-01  -2.9927496e-01  -6.9253376e-01  -8.2885643e-01   4.8212991e-01   1.9788317e-01  -9.4046469e-01  -4.5870943e-01  -2.3219089e-01  -8.4103260e-01   1.4669261e-01  -8.9142151e-01   1.9435638e-01  -6.4620250e-01   8.7685318e-02   5.3953132e-01   3.7680371e-01   5.9816070e-01  -3.3765357e-01   5.8273730e-01   5.3067581e-01   1.6471858e-01  -5.8896231e-01   4.9231306e-01  -1.3484906e-01   8.4358625e-01   9.7628794e-01  -1.1081551e-01  -6.7547549e-01   7.9044626e-01   5.0257316e-01   6.9063961e-01  -1.8760854e-01  -3.1764296e-03  -2.6070203e-01   7.6772300e-02   8.1855753e-01   4.4681773e-01  -5.1258945e-01   2.9122957e-01   2.6988099e-01  -5.2260830e-01   8.0122660e-01  -5.9789398e-01  -1.2071544e-01   9.7342272e-01   4.6635272e-01  -7.6063203e-01  -8.7047087e-01  -6.6149386e-01  -3.1817232e-01   2.0215766e-01   2.6895230e-01   5.9593475e-01  -9.2133014e-01   7.7109247e-01   8.6653063e-01   6.4564732e-01   1.2938120e-01  -3.5129991e-01   2.8018821e-01   4.8561134e-01  -1.7571823e-01  -4.2432573e-01  -6.3188133e-01  -7.7545451e-01   4.3434625e-01   7.9633503e-01  -5.5236038e-01   7.7892080e-01  -5.9932742e-01   7.0660849e-01   9.8993596e-01   3.1698961e-01  -5.9658011e-01   8.9953115e-02  -4.6352082e-01  -5.7038189e-01  -9.0347190e-01  -7.2770347e-01  -8.4893285e-01   7.3977880e-01   8.4247510e-01  -5.2828047e-01   1.1178671e-01   8.4101799e-01  -9.9189899e-01  -9.6539123e-01   3.3419462e-03  -2.3090050e-01   2.0211107e-01   3.5972898e-02   7.7041199e-01  -4.0085557e-01  -5.0748295e-01   9.7356572e-01   3.8632649e-01   9.8386924e-01   3.6801475e-01  -1.7266982e-01  -3.9893438e-01   1.0188767e-01  -2.7434118e-01   6.6627474e-01   2.7358434e-01  -3.6545328e-01  -7.2158072e-01   1.6668150e-03   3.9153412e-01  -7.1414469e-01   8.2030503e-01   1.1210372e-02   8.7116722e-01   4.6211025e-01  -6.4372073e-01   9.7361876e-01   5.1083959e-01   2.1885434e-01  -7.9149021e-01   4.0416224e-01  -2.9899245e-01  -5.6836396e-01   4.4658122e-01  -1.0608779e-01   5.8284589e-01  -5.6040041e-01  -6.6074155e-01  -2.8987744e-01  -1.6823523e-01  -8.5775401e-01  -9.8131787e-01  -8.7560039e-01  -2.0711354e-01   6.1946811e-01  -1.0342206e-01  -4.1247068e-02   3.3378750e-01   4.2369233e-01  -9.6685586e-01  -2.7427267e-01  -4.0693783e-01   4.2803004e-01  -2.6124362e-01   3.3759793e-01  -1.4360917e-01  -4.7984158e-01  -2.4234214e-01  -5.4093837e-03  -6.2687824e-01   5.8596933e-01  -6.3571470e-01   3.3106984e-01  -8.3308447e-01   2.9568802e-01   5.6954617e-01  -5.0751987e-01  -7.9581032e-01  -9.0925303e-01  -9.8574079e-01   3.1925715e-02   7.3208514e-01   9.1199722e-02  -4.5233656e-01  -3.7641411e-01   4.0074372e-01  -1.8765286e-01   8.3535568e-01   3.3526661e-01  -2.3528353e-01   6.3033768e-01   6.4725820e-01   3.8319677e-01  -7.9028251e-01  -3.8679711e-01  -3.5050508e-01   6.5447393e-01   1.9756056e-01   8.1859672e-01   5.6553311e-01   2.1605500e-01   2.8292249e-01  -4.5350299e-01  -4.5687713e-01   2.0009389e-03  -1.5232868e-01  -1.1302465e-02   2.7988994e-01  -5.0333337e-01   5.4762034e-01  -5.1563915e-01  -4.5790516e-01   5.4886832e-01   8.1567054e-01  -5.3909945e-02  -3.6534215e-01   6.7041666e-01   1.0948541e-01   9.2359941e-01   9.2904210e-01   4.9944541e-01   3.2384545e-01  -7.4099747e-01  -2.4613205e-01  -1.0072517e-01   8.3563593e-01  -4.1803702e-01   2.9659262e-01  -5.9642441e-01  -8.4074077e-01   1.6276630e-02  -2.7912064e-02   3.7076501e-01   6.4409204e-01   8.7211955e-01   5.2710287e-01   4.8360867e-01  -7.6153493e-01   9.7385323e-01  -1.4013982e-01   7.0619722e-01   6.5468787e-01  -8.2298445e-01  -7.4259397e-01  -9.3323434e-01   1.1845854e-01  -1.6200549e-01   8.1916638e-01  -5.3950742e-01  -2.4579891e-01   9.8296077e-01   1.3556767e-01  -1.1534760e-01  -5.6590395e-01  -4.5232190e-01   8.1366652e-01  -7.8921504e-02  -1.7491869e-01   1.0375104e-02  -2.9175427e-01  -7.4637779e-02  -6.8221599e-01  -9.5694476e-01  -4.3389158e-01   2.6999218e-02   2.4692052e-01   7.8093656e-01  -4.6075261e-01   8.6387588e-01   1.1977390e-01   7.8739375e-01  -9.7006528e-01   5.7807275e-01  -8.4470234e-01   7.2197634e-01   6.0490281e-01  -4.8220864e-01   4.7753026e-01   1.4143574e-01   7.2481271e-01   9.6701529e-01   3.1378955e-01  -2.6228685e-01   8.8052771e-01   2.3154029e-01   8.4648847e-01   7.0168717e-01   8.2124621e-01  -7.8298929e-01  -5.1272815e-01   5.5707575e-01   5.7362674e-01  -5.0395589e-02   1.1923435e-01   2.5233291e-01   5.3926624e-01  -7.0438947e-01  -4.8235363e-01   4.3043783e-01  -1.9632023e-01  -4.6825833e-01  -2.3403024e-01  -1.0386082e-01   3.5155623e-01  -2.3579509e-01  -6.4734427e-01   5.0149323e-01  -3.4964192e-02   6.7092247e-01  -8.0890879e-02   8.2083724e-01   8.5357426e-01  -6.0380178e-01  -8.7740236e-01  -4.3107124e-01  -7.5677599e-01  -8.1855966e-01   6.3527206e-01  -2.4557113e-01  -2.6392614e-01   1.6430034e-01  -9.5543829e-01   5.7569822e-01   3.8892512e-01  -9.9408124e-01   5.8597136e-01   3.0926385e-01   9.0008502e-01  -3.4273448e-01   9.4010051e-02   7.4673512e-01  -8.1503547e-01   7.7380397e-01  -1.8237310e-01   5.7865588e-01   6.4656326e-01  -3.9629943e-01   2.1235889e-01  -8.7142760e-01  -1.2865923e-01   5.9201861e-01   6.2512508e-02   9.7526065e-01   6.9038978e-01  -2.9882662e-01   1.7120885e-01   2.6703874e-01   9.5547587e-01   5.7067789e-01   2.4953057e-01   4.2171407e-02   7.0733064e-01   4.9287996e-01  -4.0573402e-01  -6.1306508e-01  -1.4598481e-01  -9.8853425e-01   3.1096856e-01   8.6509850e-01  -3.7805574e-01   4.8216920e-03   4.0420961e-01   3.7847577e-01   1.8793408e-01   1.6514194e-01   7.0215572e-02  -1.2400069e-01  -7.7274316e-01  -1.9245352e-01   4.2833195e-01  -3.1060898e-01   8.5694297e-01  -9.2978747e-01  -7.2776374e-01   3.9034033e-01  -8.2876322e-01   1.7210094e-01  -6.0110115e-01   2.0134919e-01  -4.4066954e-01   6.3368661e-01   3.9633752e-01  -1.1248032e-01   1.6282788e-01  -2.1031166e-01  -1.5056491e-02  -8.6574397e-01   1.8601530e-01   8.8351545e-01  -5.5506757e-02   5.5035956e-01   9.1133829e-01   9.1064452e-01  -7.1745853e-01   5.1437730e-01  -2.2551982e-01  -4.6910496e-01  -8.2747696e-01  -7.2020327e-01  -2.1661082e-01  -8.6052945e-01   7.7619563e-01  -6.3836404e-02  -5.7170474e-01   9.0762513e-01  -3.4988615e-01   1.5535026e-01  -5.9098306e-01  -5.7202019e-01   5.8533701e-01   7.2294858e-01   3.7923861e-02   5.6221429e-01   8.2505514e-01   5.6157293e-01   4.2075972e-01   9.5124005e-01  -1.7590406e-01  -2.5378105e-01  -2.6566256e-01   8.0307877e-01  -4.5558355e-01  -1.9716681e-01   3.0773607e-01  -9.0052925e-01   2.6104325e-01   8.2409612e-01   8.7399750e-01   8.4431500e-01  -7.8128320e-01   5.1970829e-01   3.2158861e-01  -7.8985058e-01  -2.9868993e-01   5.0418520e-01   7.0117288e-01  -1.5500859e-01  -2.9597011e-01  -1.8293393e-02  -2.4479351e-01  -4.7120270e-01  -6.2758742e-01  -1.6147113e-01   9.6540026e-01   9.9296813e-01  -5.6966675e-01  -4.2288501e-01  -9.9042878e-01   8.6304874e-02  -7.1021956e-01   8.1036139e-01  -6.5349019e-01  -5.8188295e-01   4.8669585e-01  -5.4929143e-01  -4.4328052e-01  -2.7453442e-01   4.0890366e-01   7.9863200e-01  -1.8179771e-01  -4.7309377e-01   8.6161435e-01   8.3415972e-01   1.9250698e-01  -6.6366681e-01  -8.8104956e-02  -7.4136926e-01   1.8382360e-01   4.3432227e-01   8.8948630e-02  -7.6493991e-01  -9.7311983e-01   5.7302184e-01  -6.4840431e-01   1.6429100e-02  -8.6872777e-01  -1.2296730e-02  -9.9373724e-01   1.8205282e-01   6.6463195e-01  -7.4236773e-01   1.6041517e-01  -5.9652662e-01   9.7766388e-01  -7.6599148e-01  -6.8642011e-01   6.3979985e-01   7.6563843e-01   5.6715594e-01  -8.9799327e-01  -8.7871360e-01   1.1802291e-01   4.3102531e-01   5.9430871e-01  -2.9621389e-01   3.9233619e-01   9.3791101e-01  -9.7717136e-01   9.9299666e-01   5.7159888e-01  -4.6211379e-01   4.5523071e-01  -5.8830665e-01   5.6571088e-01   5.1138404e-01   5.1192819e-01  -6.7163300e-01   4.4491458e-01  -2.7122983e-01  -6.4328096e-01   1.9150849e-01  -6.8875853e-01  -7.9195965e-01  -3.5970810e-01   2.4094682e-01   4.5386648e-01  -9.0721271e-01   3.2719884e-01  -3.5880249e-01   2.0632184e-02  -2.5177722e-01   7.1583497e-01   9.0477496e-01  -9.3088427e-01   2.2839536e-01   1.4594203e-01  -7.4903479e-01  -3.1666262e-01   1.1606396e-01  -9.0916627e-02  -3.3485325e-02  -1.7216302e-01  -7.8417849e-01  -1.0347474e-01  -3.5507795e-01  -9.4223119e-01  -5.3572238e-01   9.1018272e-01   1.3223066e-01   9.8244117e-01   6.1600796e-01  -7.7846611e-01   8.7434215e-01   2.0677539e-01   3.5619820e-01  -8.1251924e-01  -6.5719582e-01  -1.9655740e-01   8.8476932e-01  -3.5183525e-01  -2.5285981e-02  -9.8421478e-01  -1.7395765e-01  -5.4253231e-01   4.3590755e-01  -9.3662767e-01   3.9677427e-01   1.1192545e-01   6.3318183e-02  -7.6010848e-02   3.3789527e-01   9.4693591e-01   1.3035122e-01  -4.7268438e-01   9.1566816e-01  -9.4193901e-01  -7.7891130e-02   9.1244698e-01   1.2204464e-01   1.1157609e-01   3.4970716e-01  -7.0913978e-01  -5.1362502e-01  -3.7099307e-01   3.6726516e-02   6.2509577e-01   3.2264310e-01   7.3058554e-01   9.9776591e-01   7.4405698e-01  -5.3361817e-01  -1.4420986e-02   2.0720182e-01   4.6893798e-01  -7.3167633e-01   7.3070720e-01  -6.3431491e-01   9.0843960e-01   3.7419057e-02   7.3289844e-01   8.0889992e-01  -2.4751362e-01   9.1263341e-02   1.5519071e-02   6.9422545e-01  -8.9766034e-01   1.2125715e-01  -7.8491828e-01   7.1046314e-01  -6.5183624e-01   1.3910370e-01  -4.6525325e-01  -8.2858950e-01  -5.4632651e-01  -5.1912879e-01  -2.4184447e-01   7.7197142e-01  -4.8932038e-01  -2.1700842e-01   4.9707775e-02   6.8244772e-01   7.5030157e-01  -2.6959120e-01   4.4410145e-01  -7.0817476e-01   8.0120622e-01  -3.6393323e-01   1.6014158e-01  -2.0256789e-01   9.3144925e-01  -4.4946253e-01  -7.5568999e-01  -7.7711599e-01   6.6215150e-01   5.5112142e-01   7.3576645e-01  -2.8395743e-01  -7.6060599e-01  -2.0015378e-02   4.5503191e-01   7.3232375e-01   7.5523175e-01  -9.3913823e-01  -2.5847276e-01  -4.5659288e-01  -5.4507165e-01   3.3122978e-01   3.6660986e-01  -4.8148433e-01  -8.8243611e-01  -1.6930866e-01  -8.2873463e-01   3.3048934e-02   4.8283877e-01  -8.9158720e-01  -9.9728768e-01   3.9763865e-01  -3.1532260e-01   2.5335193e-01  -3.7170348e-01  -2.7942334e-02  -9.4078193e-01  -4.7393198e-01   2.1926459e-01  -9.6642305e-01  -1.6315855e-01  -8.9840424e-01   4.5254483e-02
   8.5291797e-01   6.5327139e-01  -6.9441002e-01   3.2469192e-01   5.1402993e-01   6.9757753e-01   1.8230607e-01   5.0883858e-01   4.2769285e-01   5.2598488e-01  -5.6684275e-01   4.5687849e-01   5.7252254e-01   4.5236747e-01  -4.6815516e-01  -5.8280206e-01   5.6289450e-01  -6.3969568e-01  -8.2301706e-01   2.0657741e-01  -1.1156654e-01   3.2475391e-01   6.7512732e-01  -5.8528767e-01   2.6998033e-01   5.4959477e-01   1.4037077e-01  -7.8180285e-02   3.8938502e-01   6.4763960e-01  -7.2933598e-01  -3.7014634e-01   7.5940726e-01   1.8421784e-02   6.6794918e-01  -4.1811742e-01   1.2096634e-01  -6.6797742e-01  -8.9760989e-01  -3.5794396e-01  -6.2716874e-01  -1.8002153e-01   4.2263396e-01   6.8173539e-01   1.6719251e-01  -4.5708396e-01  -5.7682148e-01  -7.7590817e-01  -2.8726773e-01  -4.0486275e-01  -9.2794916e-01   4.4333000e-01   5.6327637e-01  -8.8409475e-01   3.0092822e-01   2.0701809e-01  -1.0247690e-01  -9.0406640e-01   7.2790062e-01  -5.6966980e-01  -8.2823468e-01   3.3303482e-01  -7.4624404e-01   3.2071736e-01   1.7554098e-01  -9.6539015e-01  -1.3257381e-01   1.7600133e-01  -8.2332648e-01   8.2313890e-01   4.3910223e-01   5.4637264e-01  -5.7811844e-01  -6.2600282e-02   9.7277354e-01   2.4092933e-01   7.9236947e-02   3.3046999e-01  -3.9311455e-01  -9.5269179e-01  -7.0335247e-01   9.9743115e-01   7.8074537e-01   8.7245665e-01  -9.9376006e-01   7.0042346e-01   8.9438791e-01   3.2212331e-01  -5.8193233e-01   7.0176094e-01   4.6563571e-01   6.1063005e-01  -7.4983433e-01  -4.0192470e-01  -2.4599591e-01  -4.6403454e-01   4.9389892e-01  -1.8976632e-01   2.4239630e-02   6.6331991e-02  -2.9165598e-01   4.0054427e-01  -6.4213835e-02  -9.1500752e-01   6.8916720e-01  -4.9688405e-01   2.8276277e-01  -2.9126509e-01  -5.0780814e-01  -2.5067949e-02  -8.1960633e-01  -9.3652786e-01   9.7898650e-01   3.2775830e-01   3.0179238e-01  -5.2130182e-01   1.1891761e-01  -2.2888313e-01   2.4824467e-01   6.2093772e-01   3.4565757e-01   1.7392002e-01   3.8384382e-01   9.2650105e-01  -9.2200626e-01  -1.6776285e-01   5.0554863e-01   9.3434976e-01  -6.0731190e-01   7.4085524e-01   4.5262386e-01   3.7337683e-01   5.2999779e-01   2.2846079e-01  -4.2676333e-02  -6.0670730e-02  -5.1825334e-01  -4.5597758e-01  -5.5840221e-01  -8.5599882e-01  -9.2669535e-01  -9.0100559e-01  -5.0244333e-01  -1.1205272e-01   6.2975473e-01  -2.6409147e-01   5.3771103e-01   3.6700664e-01   4.7609421e-01   2.5225260e-01   4.9685953e-01   2.3558536e-01  -2.9276345e-01  -5.7061055e-01  -9.0626496e-01  -8.8162832e-01   2.6935916e-01   7.6463510e-01  -9.7870086e-01  -7.8613058e-01   6.7650025e-01  -4.3741808e-02  -9.1661070e-01  -2.0408820e-01   2.8570494e-01   6.8416279e-01  -3.6183637e-01   3.5667108e-01   3.8642035e-01   2.6663924e-01  -8.2888951e-01   1.0683227e-01  -3.5615209e-01  -6.4946420e-01   9.3679521e-02  -6.6622105e-01   4.7610917e-01   9.1611160e-01  -8.7779186e-01  -7.0892363e-01   9.5607336e-01  -7.2345682e-01   7.2905621e-01   5.4196311e-01   8.7365430e-02   2.5428203e-01  -5.6391689e-01   1.0400292e-01   6.3008135e-01   7.7023202e-01   2.0527577e-01   4.3177243e-02   1.3623716e-01  -5.7139322e-01   8.9908385e-01   4.6446509e-01  -1.7788381e-01  -7.4107659e-01   6.0371646e-01   9.2867145e-01  -4.2575984e-01   5.8387153e-01   6.4201064e-01   7.1369253e-02   6.4659934e-01   8.3120869e-01   6.1867613e-01   6.0555688e-01   3.7367354e-01  -2.6190783e-02   8.0802895e-01   2.3032144e-01   8.5179264e-01   1.0349336e-02   1.4349102e-01   8.0063181e-01   2.6671522e-01  -8.9192766e-01   8.0634915e-01   4.2074866e-02  -3.5915161e-01   9.2574626e-01   8.2891713e-02   3.2351128e-01  -4.6065322e-01   8.1878881e-01   6.9626615e-01   6.2267376e-01   9.1341934e-01   1.0043404e-01  -2.1435456e-01   1.3736047e-01   9.5831105e-02  -3.4325719e-03  -5.9703191e-01   2.0298360e-02  -7.6246641e-01  -8.0077412e-01   7.5739032e-01   5.7332155e-01  -8.2867056e-01  -3.4864818e-01   5.5770993e-02  -3.0444604e-01   5.0067740e-01   3.3763325e-03  -3.2792379e-01  -5.3032664e-01  -8.7349416e-01   1.2330510e-01  -5.6366539e-01   6.2887776e-01  -5.9575489e-01   3.3243613e-01   9.8662638e-01  -4.7401096e-01   2.0682056e-01   3.4366561e-01  -2.8587059e-01   9.4192718e-01  -5.9332485e-01  -6.9584590e-01  -8.9422802e-01  -4.6748538e-01   3.4771690e-01  -9.3732954e-01   8.4615201e-01  -5.0292078e-01  -3.1762768e-01  -2.3294351e-01  -4.7047324e-01   2.9761962e-01   5.0913364e-01  -8.2580199e-01  -2.6553146e-01   5.2883654e-01   4.5800965e-01   3.8252983e-01   2.3516872e-01   2.0408134e-01  -8.9094078e-03  -8.0109454e-01   7.2558776e-01   3.0023076e-01  -9.7756676e-01   9.8375047e-02  -1.3996904e-02   8.1692313e-01   3.3299984e-01  -9.2429588e-01   7.6467708e-02  -8.2278166e-02  -3.0868049e-01   5.2688681e-01  -7.0551911e-01  -7.9515977e-01   7.1038844e-01  -6.9420054e-01  -2.7990178e-01   9.2493983e-02   3.7225067e-01  -7.5229077e-01  -8.7821955e-01  -4.2730384e-02  -9.7653921e-02  -7.3075895e-01   5.3192207e-01   8.6838875e-01   7.6820987e-01  -2.2146419e-01  -2.1880487e-01  -2.4403642e-01   5.2540230e-01   5.9577785e-01  -6.9463660e-01  -4.0611224e-01   1.4034664e-01  -3.0938747e-01   4.0992625e-01   5.4069892e-01  -8.5326191e-01  -8.4417805e-02   3.6495559e-01  -3.0296224e-01   9.5697776e-01  -9.2575131e-01  -8.1972961e-01   5.4861287e-01  -5.7975490e-02  -3.0587481e-01   6.6442488e-01  -1.3639414e-01  -4.6619779e-01  -4.1515882e-01  -5.1796721e-01   6.9928884e-01   2.2993629e-01   6.3369060e-02   3.6324336e-01  -2.6568686e-01  -5.9128861e-02   3.0025991e-01  -8.3448294e-01   4.9690658e-01   2.6266250e-01  -9.7126596e-01  -4.9198592e-01   8.1039192e-01   7.3452959e-01  -3.6350491e-01   2.1932314e-01   5.7616201e-01  -2.0016524e-01   8.5753773e-02   6.6282044e-01  -1.8911012e-01  -6.7133086e-01  -6.9155928e-01   7.8181502e-01   1.5639235e-01  -9.3374165e-01   2.3997771e-01   2.9012929e-01   7.0931669e-01  -8.4789475e-01   8.2790195e-01  -4.0823633e-01  -1.3586120e-01  -7.6772076e-01   4.3330888e-01   1.9941264e-02   3.6445504e-01   2.2734508e-01   7.4660641e-01   3.7530709e-01   7.4543662e-02  -2.0433146e-01   7.2937608e-01   3.6440379e-01  -4.2492998e-01   1.3094149e-01   4.4565877e-01  -1.7244321e-01  -9.8832965e-01   4.5167011e-01   2.4135733e-01   4.8930352e-01  -8.4008312e-01  -5.7259828e-01   3.8634207e-01  -7.1134054e-01  -1.6625809e-01  -6.3153901e-01  -9.6419554e-02  -4.5280522e-01   2.9621009e-02  -6.1184393e-02  -4.0562900e-01   6.9130897e-01  -7.0891983e-01   5.8152761e-01  -1.3565931e-01  -4.1380204e-02   6.0889696e-01  -6.9247102e-01   3.5897844e-01  -3.5585283e-01   2.3347188e-01  -2.8486319e-02   8.1255901e-01   2.4493054e-01   3.5067192e-01  -5.2580391e-01   3.4855372e-01   4.6721265e-01   9.9670944e-01  -5.0176828e-01   6.2732826e-01  -8.7444283e-01   7.1212314e-01  -5.7990349e-01   7.8665541e-01  -8.3862898e-01   4.4130281e-01   6.2996746e-01  -8.2427498e-01  -7.8299458e-01  -6.1077004e-01   4.7552201e-01   2.0265274e-01   1.1212406e-01   9.9182538e-01   2.6081621e-01   6.0623115e-01  -4.7894266e-01   9.0239869e-01  -4.9068758e-01  -5.5266473e-01  -5.8472819e-03   7.2716884e-01   4.4389976e-01   4.5093701e-02   1.6558966e-01   9.0770198e-01   6.3554190e-02  -5.2040232e-01   8.5112564e-01   5.3991426e-01  -3.2941368e-01  -4.1662169e-01  -4.8550030e-01   2.8155713e-01  -1.9796180e-02  -2.6240946e-01  -2.8923505e-01  -5.7356590e-01   7.5734208e-01   6.7176744e-01  -3.2193612e-01   8.7133192e-01  -3.9374614e-01  -1.9378587e-01  -9.3187927e-01   8.4143687e-01  -7.0354326e-01   1.4412616e-01  -4.7485110e-01  -1.5199356e-01   9.7292331e-01  -4.7743865e-01   5.4254488e-01  -2.0517234e-01   9.0816637e-01  -5.0493787e-01  -2.0660213e-02  -4.9779000e-01   8.9950226e-01   1.9158159e-01  -6.6019993e-02   2.3919753e-01  -9.9481974e-01   2.5698102e-02  -5.0768473e-02  -7.6000452e-01   9.5690208e-01   9.8820724e-01   9.0389269e-01   5.5203464e-01  -4.6571316e-01   1.2349529e-01   2.2401533e-01  -4.7486287e-01  -3.6695958e-01  -5.0270697e-01   6.4714423e-02  -1.4445070e-02  -7.9723265e-01   4.3698101e-01  -6.8114451e-01  -3.1870789e-01   5.7915206e-01   9.9401783e-01  -1.3930248e-01   1.3449513e-01   3.0548436e-01  -2.8192057e-02  -1.6251142e-01   9.0725296e-01   8.8183560e-01  -4.6840262e-01   8.2266714e-02   4.7929435e-01   2.1024703e-01   2.7317002e-01  -5.5677265e-01   5.8734081e-01  -1.6173859e-01  -5.8272125e-01   4.1964636e-01  -3.9970565e-01  -7.0538117e-01   3.8518605e-01  -1.9411911e-02   8.3016347e-01   1.4164047e-01  -3.8636434e-01   6.6275716e-01  -6.8344601e-01  -6.4887721e-01   2.2594228e-01  -9.3560194e-01   6.5393074e-01   8.1202297e-01  -2.6896620e-01  -1.5675823e-01   4.9783346e-01   2.8973656e-01  -5.7622451e-01  -3.6753054e-01   2.3179681e-01   3.1208210e-01  -4.3859466e-01  -6.1513185e-01  -7.6611396e-01   3.2504813e-01  -6.3515469e-01  -2.1299237e-01  -7.5316879e-01  -1.5806319e-01   7.7617292e-01  -7.1305956e-01   8.5502928e-01  -1.6078520e-01  -9.1471325e-01  -7.8727057e-01   6.8196745e-01  -9.0548281e-01   5.7263495e-01   1.6434638e-01   7.1729307e-01  -7.1668803e-01  -5.3500290e-01  -9.4288351e-01  -4.8223662e-01  -6.3831094e-01  -1.0848009e-01   5.8257995e-01  -4.9872804e-01   9.0394044e-01   2.4806334e-01   7.0671137e-01   4.1355680e-01   3.2905718e-01   4.9580647e-01  -7.6703024e-01  -9.1166092e-02   2.2196201e-01  -6.6675509e-01   4.2767937e-01  -5.7825999e-01   3.7168122e-01   2.5727121e-01  -7.7431957e-01  -7.7018181e-01   2.9778563e-01   1.3271535e-01   6.7583371e-02  -5.3726938e-01  -8.5109993e-01  -9.2123299e-01  -4.0459872e-02  -5.1446526e-02   6.1437589e-01  -9.2335460e-01   1.9597885e-01   6.1992908e-01  -4.1719619e-01  -3.7093037e-01  -8.9979014e-01  -3.5457527e-01  -7.4732238e-01  -7.4407816e-01   4.4728077e-01   9.9859116e-01  -1.6397001e-01  -6.6651556e-01  -7.7287309e-01  -3.6139280e-01   2.0606069e-01  -6.8417587e-01   3.3053147e-01  -9.1346908e-01   6.7815137e-01  -5.0716305e-01   8.0217289e-01  -8.2892530e-02   8.6285265e-01   7.0527412e-01  -7.2076377e-01   4.5281699e-01  -2.7353544e-02  -5.7120404e-01   8.8522288e-01  -7.0674605e-02   6.4457545e-01  -7.6758969e-01   4.7330376e-03   3.7406744e-01   3.4970073e-01  -3.0490589e-01   6.2980868e-01   7.3832890e-01  -3.8529053e-01   8.6157822e-01  -2.8526875e-01   1.9286097e-01  -9.4093257e-01   9.5447080e-01  -6.4506144e-01   1.2631846e-01  -8.1274893e-01   8.8107786e-01  -8.3872261e-01  -1.6546307e-01   2.0100810e-01  -5.2979367e-01  -2.9562847e-01  -5.8849591e-01   9.2847893e-01   5.9273210e-01   3.7053331e-01  -3.9291630e-01  -9.1634073e-01   5.1464494e-01  -7.1242773e-01  -9.2781402e-01   4.5057631e-01  -9.1305294e-01   4.1697613e-01   7.1146538e-01   8.0598134e-03  -4.1788037e-01   7.2393676e-01  -7.1971855e-01   2.9837737e-01   9.1745080e-01  -4.3086533e-01   1.9010151e-01  -4.8585174e-01  -1.7479128e-01   7.8785687e-01   6.1210921e-01  -5.5166719e-01   1.2502077e-02  -3.1387218e-01   1.0058470e-01  -9.2436965e-01   8.9009702e-01  -7.8119486e-01  -8.9068337e-02   2.6847255e-01  -5.5319380e-01   3.9731665e-01   7.9723712e-01   8.2141304e-01  -2.1623703e-03  -5.1927372e-01   9.8807840e-01  -8.4831880e-01   1.0323770e-01  -4.1788598e-01  -6.2203398e-01   7.8038543e-01  -7.1839654e-01  -7.4162493e-01  -2.6507875e-01   3.2063216e-01  -4.3330516e-01  -1.3754442e-01   7.7988288e-02  -3.7316075e-01   1.8147253e-01   4.7955753e-01  -9.6089715e-01   7.2026106e-01   7.5906421e-01  -8.9725224e-01  -1.4990032e-01  -4.5766425e-02  -1.0307598e-01   8.3773559e-01  -4.5374552e-01   6.2686583e-01   9.8439679e-01  -2.9696052e-01  -7.1432466e-01  -7.4643856e-01   9.0195621e-01   7.5311878e-01  -4.0421409e-01  -9.2991006e-01  -2.1406278e-01   5.1513594e-01   2.7600751e-01  -1.6493996e-01   3.2582597e-01  -2.7123903e-01  -6.2521904e-02  -2.1004775e-01  -4.0624177e-01  -5.4476948e-01   5.3043236e-01  -6.3832293e-01  -8.9988197e-01  -7.0904865e-01   2.2712964e-01   3.9020397e-01   9.8947272e-01   7.8928198e-01  -5.5225392e-01  -1.9568633e-01  -2.1979111e-01   9.5240282e-01  -2.8041199e-01   6.0913404e-01   4.9192672e-01  -4.1903436e-01  -4.1856710e-01  -5.3680005e-01   8.7502343e-01  -3.9980807e-01  -9.0551970e-01  -3.2997081e-01   8.4779885e-01  -4.5915141e-01   1.0900778e-01  -7.1820092e-01   9.2387743e-01   1.9108550e-01   6.7309175e-01   1.9028989e-01   1.7621532e-01   6.1008100e-01  -2.7974398e-02   1.1684734e-03   2.9050808e-01   8.1882228e-01   6.5239084e-01  -7.7224247e-01   8.0546685e-01   7.5397868e-01   4.1598111e-01  -8.3283245e-01  -3.3231415e-01   4.1294451e-02  -2.9675673e-01   1.6830207e-01  -8.9932194e-01   5.4836960e-01   3.7248848e-01  -6.1159325e-01  -3.5551010e-03  -4.6728096e-01   5.1441261e-01  -4.9452116e-01  -5.4968628e-01  -7.8987137e-01   4.7994323e-01   8.0210981e-01   4.9095604e-01   6.0616176e-01   3.7028720e-01  -6.6647171e-01  -8.6857579e-01   5.6656320e-01  -9.7025848e-01  -1.2912967e-01  -7.8069427e-02  -2.1507623e-01   9.7138509e-01   2.3992987e-01  -3.9200473e-01  -4.9408342e-01  -5.0533093e-01  -3.4868333e-01  -8.5893546e-01  -8.8873921e-01   5.4223907e-01   5.0478176e-01  -6.0894054e-01   8.8891984e-01  -6.5879591e-01  -3.2772706e-01   8.4368965e-01  -6.8626093e-01   7.7758690e-01   2.7198146e-01   3.8295727e-01   8.4853730e-01   4.2376321e-01   1.5251138e-01  -9.1867527e-01  -2.3068441e-01  -8.7242257e-01  -3.0606373e-01  -9.3542103e-01  -8.4853073e-01  -9.6972584e-01  -8.1156700e-01   1.2296020e-01  -8.2094462e-01  -3.6834204e-01   3.4548673e-01  -9.7810923e-01  -4.4304489e-01  -2.5251171e-02   7.9694746e-01  -7.5301261e-01   6.1498785e-01   6.5478989e-01  -1.9426201e-01   8.3965348e-01  -7.1048321e-01  -5.2286597e-01  -1.9816981e-01   2.8783462e-02   6.8250915e-01  -1.5520181e-01  -2.4768655e-01   4.9853218e-02  -4.8617669e-01  -3.5077992e-01   2.9719399e-01  -5.5738967e-01  -2.4895724e-01  -7.9107752e-01  -8.8612780e-01  -5.7402479e-01   1.2985247e-01   1.7084017e-02  -5.3337169e-01   6.9406959e-01  -6.2218010e-01  -6.7984574e-01  -8.0963051e-01  -7.1656712e-02  -9.2794469e-01   4.8200911e-01   4.7012812e-01   6.5651144e-01   3.7365256e-01   8.8608454e-01   5.0424750e-01  -5.4651893e-01  -7.1723949e-01  -2.5966699e-01   4.0291789e-01   6.3823075e-01   7.4110401e-02  -8.4763581e-01  -1.7117251e-01   3.4798351e-01   4.4632576e-01   2.4060818e-01   9.7481943e-01   7.4598116e-01   9.9221862e-02   6.0990449e-01  -5.7673446e-01   2.0628858e-02   6.5329757e-01  -8.0884773e-01   9.6670904e-01   5.9374690e-01   6.4799774e-01   3.0664904e-01   3.4171919e-01   4.6041375e-01   5.2838944e-01   5.5350431e-01  -9.8170568e-01  -6.5654904e-01   9.1389874e-01  -2.3203271e-01  -4.5855922e-01   7.2582874e-01   2.2586476e-01   7.8459801e-01   1.5103076e-01  -5.3280775e-01  -4.5863970e-01   1.3969833e-01  -4.6747144e-01  -9.1702746e-01   8.7586682e-01  -3.7950021e-01   5.9077547e-01   9.8985851e-01   7.6576386e-01   4.6379757e-01  -5.6503651e-02  -6.6447727e-01   5.7884568e-02   2.5614240e-01  -4.0738583e-01   8.3496406e-01  -3.8467478e-02  -1.2731457e-01   9.9377521e-01  -9.0557376e-01  -7.5626222e-01  -4.2460323e-01  -1.3466455e-01   4.2048765e-01  -3.8439515e-01   6.3919587e-01  -7.3722568e-01   6.5037918e-01   6.0854746e-01  -8.0427382e-01   3.1940784e-01  -5.5272501e-01   3.3956884e-01   9.0664882e-02   1.2110650e-01  -3.6387735e-01   9.1606568e-02   6.0190530e-01  -6.0768479e-01  -6.2959372e-01  -3.9290352e-01  -1.4582381e-01   2.1766971e-01  -4.9620690e-01  -3.7958440e-01   8.1878502e-01   2.9532343e-01   6.0483304e-01   4.5943700e-01  -9.6043888e-01  -5.0512121e-01  -9.7498198e-01   4.6144814e-01  -1.9724123e-01  -7.7763559e-01   8.6636377e-01   6.2383388e-01   9.2479270e-01   8.9998514e-01  -8.1452325e-01   8.0715263e-01   1.9400669e-01  -1.8316760e-01   7.6524986e-01  -1.6651829e-01  -6.9182859e-02  -6.4877575e-01  -1.1559797e-01  -9.9532910e-01   1.5860830e-01   6.9895361e-01  -1.0744028e-02   6.4475269e-01   6.5099863e-01   3.8442565e-01   5.4617521e-01  -3.8081603e-01  -9.3189702e-01  -3.7815031e-01  -5.7737155e-01  -7.8498116e-01   6.5941922e-01  -2.5224034e-01   2.2200459e-01  -5.2913937e-02  -7.8098027e-01  -3.8547552e-01  -6.7551960e-01  -9.8794949e-01  -4.5512812e-01
  -8.5578981e-01   9.4811929e-02  -2.6803193e-01  -9.5304961e-01   3.4039728e-01  -2.6917858e-02  -4.4846596e-01   8.6463238e-01  -3.3090896e-01  -9.4518866e-01   7.7509344e-02   3.6580991e-01  -9.9443610e-02  -6.7710067e-01  -3.7809786e-01   8.7813196e-01  -3.3506786e-01  -8.9000909e-01   4.2876876e-01  -5.2479004e-01   1.0487302e-01   9.0172886e-01  -4.4897632e-01   8.7450212e-01  -2.1036886e-02   9.5886794e-01   2.9242908e-01  -2.8650533e-01   4.3395789e-02   8.2093273e-01   5.4336400e-01  -1.9981132e-01  -6.3311693e-01   3.8331297e-01  -2.9126727e-01  -3.8452081e-01  -7.0258165e-02   8.4870647e-01   1.9891417e-01  -5.6410092e-01  -7.1598898e-01  -1.4471884e-01  -2.0961462e-02   2.5072914e-01   4.9237913e-02  -8.4709977e-01  -6.8447711e-01  -9.2396787e-01   6.8115240e-01  -6.6174976e-01  -8.5754241e-01  -8.1938892e-01   8.1698804e-01  -2.1179370e-01   7.3523354e-01   1.2097191e-01   8.3014284e-01   1.6659559e-01  -3.1069197e-01  -6.8210672e-01   1.4867436e-01   7.5343030e-01  -7.4518716e-01   2.7709271e-01   1.6665428e-01   4.2478470e-01   1.1694047e-01  -9.2254512e-01   4.3840113e-01  -6.9671059e-01   4.6082530e-01   5.7822097e-01   8.8767291e-01  -8.9207151e-01   7.4404342e-01   8.9401513e-01   5.9664419e-01  -5.5409774e-01  -5.2621798e-01   4.1855566e-01   9.9440791e-01  -7.3089137e-01  -3.0734251e-01  -4.7665494e-01  -7.2534584e-01   3.3621846e-01  -9.2521849e-01  -7.7924312e-01   7.0325884e-01   7.5756569e-01  -5.7183446e-01   7.3303479e-01   5.1219728e-01   6.5206853e-01  -3.3003306e-01   3.4629006e-01   4.7782284e-01   2.6850346e-01  -9.8056256e-01   8.9389013e-01  -1.8832558e-01   8.5254476e-01  -7.3293191e-01  -3.2066134e-01   4.0001467e-01  -6.3467985e-01   8.1601802e-02  -9.8702169e-01   3.3314989e-01   2.0036773e-01   8.0869376e-01   3.2358793e-01   6.2728884e-01  -2.8151451e-02  -8.0984558e-01   4.9607651e-02   4.4206606e-01   6.9485989e-01  -9.6664605e-01  -5.7152292e-01   3.5082204e-01  -2.4050031e-02   2.5584109e-01  -3.6418788e-01  -4.9332375e-01   9.6289091e-01  -7.4151541e-01  -9.4624820e-01   7.6773294e-01  -2.7814696e-01  -5.6722753e-01  -1.9134448e-02  -9.3251987e-01  -1.7791766e-02  -4.2071211e-01  -2.7658736e-01  -8.5756015e-01  -1.5077209e-01   8.4449499e-01  -9.9418798e-01  -3.1128752e-01  -5.9396345e-01   6.6126327e-01  -2.0748656e-01   9.8347988e-01   8.8271600e-01   5.9716744e-01   4.2838474e-01   3.6982999e-01  -6.4611641e-01   6.3022729e-01  -4.3421719e-01   9.0301301e-01  -7.2735110e-01   4.4553496e-01  -2.5007006e-01   3.5267277e-01  -2.7406290e-01   5.2975133e-01   1.5329614e-01  -4.4053027e-01  -9.4273940e-01   8.1987347e-01   9.2627257e-01   8.2597733e-01  -6.9588990e-01   9.7712985e-01   5.5200061e-01   8.9502437e-01  -8.2650369e-01   9.3335765e-01  -8.4122246e-01  -4.5692418e-01  -6.0423114e-01   5.8910997e-01  -9.4617832e-02   6.3537231e-02  -4.0989530e-01  -3.6296494e-01   5.0702856e-01   6.8284605e-01   6.5486234e-01   3.5455208e-01  -6.5236714e-01  -9.8558212e-01   4.6608469e-01  -7.6153358e-01   6.4200095e-01  -1.0867672e-01   7.0336639e-01   6.6157194e-02   6.3485550e-01  -1.2339328e-01  -9.5523651e-01   7.6837283e-01  -6.6973007e-01   1.2016029e-01  -5.9807253e-01   6.8337585e-01  -1.4228427e-01   3.3213442e-01   5.6071055e-01  -9.0744405e-01  -4.8541504e-01   6.7080179e-01   4.8127060e-01   7.9424052e-01  -5.2048904e-01   1.3445726e-01   6.1261234e-01  -7.6846588e-01   5.2503241e-01   3.4393669e-01  -2.9173209e-02   2.7941660e-01   5.9031718e-01   1.7660735e-01   3.7745756e-01  -9.5197510e-01   2.4344568e-01  -9.3475660e-01  -6.1240453e-01  -8.3069832e-01  -7.4829398e-01   8.4059008e-01  -7.4596764e-01   1.3728472e-01   1.5523175e-01  -4.4308922e-02   9.4662577e-01  -6.8273722e-01   4.5275273e-01  -7.2112939e-03   4.0426880e-01   9.9036757e-01   2.2057159e-01  -5.2238389e-01   2.6543055e-01   9.6868308e-01  -9.2395642e-01   4.0646299e-02   7.5714364e-01  -7.4066515e-01  -2.9781029e-01   1.9680987e-01  -2.6852553e-01  -4.4362499e-01   4.8941545e-01  -4.4036099e-01  -1.2895975e-01   5.1124471e-01  -7.4539661e-01  -4.8079558e-01  -8.0539754e-01  -8.7546818e-01  -2.3004454e-01   1.1321946e-01   5.3056388e-01   1.8940125e-01   6.8244821e-01   9.1143150e-01  -7.9632438e-01   1.2247391e-01  -7.5805989e-01  -8.1812891e-01  -2.9729409e-01  -1.6878368e-02   2.4463602e-01   2.8468502e-01  -2.5219094e-02  -8.4535451e-01  -6.8623550e-01   5.9712425e-01   7.6812634e-01  -5.7707448e-01  -9.5533211e-01   2.8660476e-01  -6.2704952e-01   6.3776717e-01  -9.5430950e-01   6.6118638e-02  -5.0630728e-01  -4.9705324e-01  -2.5012239e-01  -9.2993794e-01   9.5992677e-01  -4.5164464e-01  -3.6186613e-01  -6.8460540e-01  -2.3650775e-01  -2.2570933e-01   9.6947032e-01   9.3104451e-02   5.5438419e-01   2.6296135e-01  -3.2268927e-01  -5.5551549e-01  -4.7245878e-01  -3.4495211e-01  -8.5078111e-01   4.2155527e-01  -8.6685245e-01  -9.8653120e-01   3.9814044e-01   7.2137830e-01  -8.2284999e-01   9.3970225e-01   8.4484383e-02   2.8718844e-01  -7.5788239e-01   6.5967400e-03  -3.5764147e-01   3.2006380e-01   3.3288080e-01   1.2659015e-01   6.4510985e-01  -5.8937183e-01  -6.1598955e-01   8.4256173e-01  -1.9317381e-01  -3.4835862e-01   2.8918617e-02   3.2748984e-01   4.7063482e-02  -4.4721857e-01  -1.8740597e-01   5.0192283e-01   1.1638045e-01  -6.3651611e-01  -1.9191005e-01   5.1501250e-01  -5.6905290e-01  -9.2480441e-01   7.4747720e-01  -1.2240916e-01  -6.9299594e-01  -1.2292702e-01   8.3167294e-01  -7.8921100e-01   9.1368189e-01   8.6788684e-01   7.5146717e-01  -8.1212906e-01   7.6015776e-01   9.8547425e-01  -8.3353082e-02  -1.2893982e-01   7.9598077e-01  -9.0343414e-02  -5.9077182e-01  -9.8811094e-01  -2.6748468e-01   6.1496317e-01   9.4249638e-02   8.1317157e-01   5.6115477e-01   1.3391742e-01   3.9172327e-01   4.8504614e-02  -3.3973925e-01   9.2716668e-01   5.2655700e-02   5.3337079e-01   7.1253904e-01  -6.1371060e-01   7.6227057e-01  -6.7399136e-01   1.2635739e-01  -9.4248341e-01   8.5604782e-01   1.3161264e-01  -7.1901593e-01  -7.6817922e-01   3.5730269e-01   9.0975223e-01  -9.3029071e-01   7.9098555e-01   7.9925621e-01  -1.0389217e-01   1.7445536e-01   2.0139705e-01  -6.9425034e-01  -5.9112658e-01   1.3953623e-01  -9.8894384e-01  -2.9490551e-01   5.2048927e-01   7.0556660e-01  -1.6575525e-01  -5.4890326e-01   4.6340918e-01  -7.5615039e-01  -3.1868376e-03  -5.7169753e-01  -8.0663385e-02   8.4904831e-01   8.2483691e-01  -1.6702412e-01  -9.6501229e-01  -1.0027571e-01   4.3647776e-01   9.7121385e-01  -4.7017581e-01   2.0536965e-01  -2.9929851e-01  -3.5793531e-01  -9.4135899e-01   1.9450357e-01   5.5506984e-01  -6.0043233e-01  -6.3145120e-01   8.0373694e-01  -7.6432512e-01  -3.1164087e-01  -8.0282480e-01  -3.0989352e-01   6.6993550e-01  -2.7329513e-01   4.7584756e-01  -1.6262932e-01   8.5808859e-01  -4.6154892e-01   4.2212160e-01   5.1945772e-01  -2.6371183e-01  -9.5455865e-02  -7.4393248e-01   4.5223844e-01  -5.0317406e-01   4.1253441e-01   8.9616720e-01   5.8059919e-01   5.6140627e-01   2.8876603e-01   5.1580567e-01   6.5878104e-01   4.7983874e-01   9.6831706e-01   3.2769310e-01  -3.1417353e-01   9.4802519e-01   5.1895827e-01  -7.6685435e-01   6.5161430e-01   1.0175509e-01   4.0786615e-01  -5.7317888e-01  -4.4525582e-01   5.1402148e-01   3.9009347e-01   9.5975938e-01   7.2980289e-01  -5.3066139e-01   5.8457741e-01   6.6140778e-01   8.9995776e-01   5.7748587e-02   9.1094441e-01   2.7258406e-01  -6.3515565e-01  -1.4512189e-02   5.0617259e-01  -6.5874948e-01   4.4490730e-01   3.4556357e-02  -5.1390931e-02   8.3928781e-01  -7.5930013e-01  -9.6480554e-01   8.2761789e-01  -2.5548344e-01  -1.1178648e-01   6.8109138e-01   6.2854228e-01  -2.6598742e-01   8.0059753e-01  -5.1597149e-01  -4.7695362e-01  -7.5176358e-01  -2.8525919e-01  -5.2029439e-01  -9.8710532e-01  -4.3338817e-01  -3.1584543e-01   4.8913390e-01  -6.6905012e-01   1.3908840e-01   4.8139087e-01   7.3495102e-01  -4.9247540e-01  -2.3843664e-01   6.7240827e-01  -4.4736219e-02  -2.2410847e-01  -7.9487323e-01   4.8022671e-01  -6.9868089e-01   9.7454710e-01  -4.2047291e-01   3.5057213e-01   5.8190970e-03   3.6667604e-01  -7.4907310e-01   8.3863611e-01  -5.8981803e-01  -8.4798958e-01   3.6082891e-01   7.2832676e-01  -9.1488338e-01  -6.2028020e-02  -8.1335194e-01  -6.6769316e-01   5.0226949e-01   2.2422874e-01  -4.8482427e-01  -5.3627304e-02  -5.9177210e-01  -3.8876757e-01  -1.3012050e-01  -2.1507798e-01   3.0439133e-02  -9.7721004e-01   7.7527628e-01  -8.6524498e-01   3.0869882e-01  -2.9402140e-01  -7.8223383e-01   3.0563470e-01   8.8002100e-01  -9.1251876e-01   4.8317330e-01  -5.1163401e-01  -7.7778619e-01   3.8157064e-01   2.0296734e-01   2.5706812e-01  -1.5642075e-01  -4.3357764e-01  -4.7845164e-01   2.7377072e-01  -7.2133723e-01   8.0274119e-01  -7.2117368e-01  -4.6891219e-01  -9.2891924e-01   5.0905073e-02  -1.4479798e-01  -7.1858636e-01  -2.9932694e-01  -2.4986270e-01   3.6866989e-02   4.3710289e-02   3.1306584e-03   9.1306318e-01  -3.6605213e-01  -4.1594344e-01  -1.7575523e-01   6.2202525e-01  -1.0480366e-01  -5.3709415e-01  -4.2841248e-01   7.8598720e-01  -3.1393906e-01   3.9247234e-01   1.9354918e-01   1.9899631e-01   9.2836264e-01  -4.8935371e-01  -3.6795502e-01  -4.0283794e-01  -1.5731752e-01   8.8453100e-01   1.1970627e-01   8.9227046e-01  -1.1063262e-01  -8.0335830e-03   8.1302884e-01  -6.8222767e-01   8.2547902e-01   7.3110781e-01  -7.7900353e-01   3.2026516e-01  -6.8709238e-01   1.2875660e-01  -4.4940681e-01  -3.2373059e-01   9.9912720e-01  -7.3720629e-01   9.8419742e-01   5.2144333e-01   1.8974138e-04  -6.9164328e-01  -8.9461656e-01   7.4926455e-01   2.3204075e-01   9.7244513e-03   6.9190330e-01  -6.6105367e-01  -9.2783505e-02  -5.2123318e-01   9.1245511e-01  -4.0229403e-01   1.9951272e-01  -3.0951062e-01  -5.1377402e-01   7.3671386e-01  -1.3897610e-02   7.3815541e-01  -3.2516176e-01  -5.8763598e-01   6.2484571e-01   4.8595572e-01   1.6404474e-01  -5.3227844e-01   9.7787858e-01   3.7116065e-02  -2.5893124e-01  -4.4396990e-01   4.9075773e-01   5.2459702e-01  -6.3884771e-01   6.1996757e-01  -2.1792893e-01   7.3448549e-01  -8.5930847e-02   8.8941262e-01   2.3145649e-01  -8.7018073e-01  -5.1308481e-01  -7.9008817e-02   6.2644472e-01   8.3854374e-01   2.1552095e-01   5.8069495e-01  -9.0103458e-01  -5.0525993e-01  -1.6938508e-01  -5.6026090e-01  -9.5162161e-01  -6.4513099e-01   9.3846103e-01  -8.3659848e-01  -5.5566268e-01   5.3261477e-02  -3.0007748e-01   1.8958982e-01  -3.1906798e-01  -7.2614662e-01  -6.2597633e-01   8.6627477e-01   8.9143963e-01  -7.5151199e-02   3.8635140e-01  -4.6833344e-01  -8.1115290e-01   7.9413530e-01  -3.5162816e-01  -9.8441565e-01   9.9414115e-02   9.4472104e-01  -6.3762133e-01   4.5557043e-01   9.5426660e-01   1.9313873e-01   6.0380327e-01   9.4645193e-01  -4.5559071e-02  -7.9476650e-01  -9.4155310e-01   4.5017716e-01   2.3471387e-01  -6.5109194e-01  -8.8621975e-01   8.7447207e-01   1.8596330e-02   2.8990907e-01  -3.5008440e-01  -5.6462563e-01   6.1499639e-01   5.7539314e-01   5.5756225e-01   5.5501061e-01   4.4135520e-01  -1.7462892e-01  -5.4356014e-01  -7.1197767e-01   9.5250992e-01   9.6886974e-01  -7.3491455e-01   2.5390268e-01  -1.3372275e-01   9.1997771e-01  -4.8789233e-01   6.9189867e-01   3.5447494e-01  -3.5013328e-01  -8.2973948e-01  -8.6798367e-01   5.9024522e-01  -6.8508045e-02   4.8015824e-01   6.2315575e-01   6.0479985e-01  -2.7165472e-01  -6.6985365e-02  -1.9878453e-01  -7.1521682e-01  -4.0835751e-01  -3.9058257e-02  -1.8516382e-01  -9.5950464e-01   6.3629244e-01   5.6848045e-01   6.6528285e-01   1.1639410e-01   5.7164062e-01   2.8764840e-01  -3.9375247e-01   3.0635046e-01  -4.2244452e-01   1.5614924e-01   3.7980671e-01   4.3170145e-01   7.2499668e-01  -9.0584427e-01  -3.1222452e-01   7.3195129e-01   8.4119902e-01   1.7788809e-01  -4.2626276e-01  -5.4649381e-01  -5.9994942e-02   1.5117071e-01   4.6170021e-01   7.7059182e-01  -3.9729107e-01   8.4390337e-01   4.5942852e-01   2.5719640e-01  -6.8432029e-01  -8.2114598e-01  -5.4100347e-01   2.1524513e-01  -3.3400651e-01   1.1708017e-01  -5.5068085e-01  -9.3608290e-02   8.1415427e-01   5.0697058e-01   8.7184968e-01   9.9583811e-01   2.3197224e-02  -4.0415572e-01  -9.6881677e-01   2.7602788e-01   4.9949153e-01  -3.5271279e-01   3.1458995e-01  -5.5103955e-02   8.2343854e-03  -3.2369606e-01   3.4426912e-01  -4.5314521e-01   5.7285016e-01   6.5901854e-03  -6.4653114e-01  -1.8027649e-02   1.9737604e-01  -1.4438038e-01   3.3080865e-01   5.5078820e-01   8.3200048e-01  -2.0439794e-01  -5.1991343e-01   6.7555889e-01   1.4260651e-01  -2.1810643e-01  -1.4470436e-01   4.2632669e-01   4.3549539e-01   3.4761114e-01  -5.1864088e-01   9.7160211e-01  -5.1301127e-01  -3.6655191e-01   8.8018702e-01   1.6604746e-01   8.4003112e-01   2.5102636e-01   3.7247172e-01  -9.2460504e-01   2.9927519e-01  -3.3913900e-01  -6.3914997e-01  -8.8475068e-02  -6.1227140e-01  -7.3584239e-01  -1.5833898e-01   9.3370444e-01  -2.5189012e-01   9.3382410e-01  -6.4174429e-02  -2.8306535e-02  -1.5550689e-01   3.3965166e-01   8.7233234e-02   6.0174131e-01  -9.5353683e-01  -9.5018665e-01  -6.5270859e-01   4.7517710e-03   7.4357794e-02  -5.1134207e-02  -9.0174796e-01  -9.3559319e-01   1.9152830e-01   3.0379016e-01   8.0914021e-01   3.7363903e-01   6.0078316e-01  -8.9077732e-02  -5.6602431e-01  -3.9721015e-02  -6.6006272e-01  -4.3935287e-01   8.5306584e-01   5.7709013e-01   2.7358074e-01  -6.2408997e-01  -1.2248111e-01  -8.1052279e-01  -1.8949613e-01  -6.0786245e-01   8.1424766e-01   6.2682836e-01  -7.0719114e-02  -2.7253802e-01  -2.2106785e-02  -6.1237874e-01   2.6929450e-01  -9.3450593e-01   1.5107807e-01  -7.8209889e-01  -9.0426890e-01   6.0924961e-01  -3.4382480e-01  -6.3211017e-01   6.5444260e-03  -5.2828730e-01  -3.1988455e-01   9.2109265e-01  -5.5040585e-01   8.7545784e-01   4.2644657e-01  -4.4687280e-01  -3.3060735e-01   6.9330420e-01   5.6196647e-01   7.2613063e-01  -4.5909196e-01   3.3578849e-01   5.4224260e-01  -6.4457468e-01  -9.7146606e-01  -7.5117088e-01   4.1230918e-01  -6.4737520e-01   6.0881037e-01   1.0911814e-01   1.6066302e-01  -3.0941946e-01   8.1529583e-01  -7.0434307e-02  -8.3503251e-01  -9.9859173e-01  -5.0182513e-01  -8.5423820e-01  -2.0282498e-01   5.8296229e-01  -3.6043700e-01   9.9317866e-01   8.2640167e-01   6.5959649e-01   7.6220609e-01   4.1718131e-01  -8.9826838e-01  -2.8306346e-02  -7.7476010e-01  -6.6965887e-01  -5.9430955e-01  -9.0474130e-01  -9.9505784e-01  -4.8349870e-01   1.7128050e-01   1.5302203e-01  -9.7365482e-01  -8.5933750e-01   8.1613458e-01   2.7959063e-01   2.1948423e-01   7.3266922e-01  -6.6397643e-01   2.3954460e-01  -3.2054735e-01  -1.9446496e-01  -4.9536286e-01  -2.7490400e-01   7.8439280e-01   5.9227986e-01  -6.1790561e-01   1.1645376e-01   6.5930149e-01  -1.5102990e-01  -8.5566937e-01  -6.7041820e-01   7.3112680e-01   5.0775514e-01   6.0570683e-01  -4.0856734e-01  -2.9904277e-02   8.7113020e-01   1.2159019e-02   7.1727768e-01  -5.2384179e-01   4.4365020e-01   4.0461189e-01   8.6065612e-01   1.6573088e-01   1.7622341e-01   1.7413252e-02  -7.6654579e-01  -7.7564715e-01   7.0609350e-01   2.3205924e-01   7.7656620e-01  -9.7996692e-01   1.1911242e-01   6.3916737e-01   6.2679362e-01   1.8430581e-01  -9.6554637e-01   9.4533017e-01  -6.9260881e-01  -6.9040027e-01   9.1002321e-01   8.6310053e-01  -7.1455771e-01  -9.8309881e-01  -8.1115636e-01  -6.0628438e-01   3.0645074e-01  -9.3332127e-01   4.5502731e-01   1.6759558e-01  -7.2568511e-01  -4.5888564e-01   5.0998680e-01  -4.8250977e-01  -9.3086778e-01  -6.0475618e-01   1.4243617e-01   6.9388414e-01   7.3620452e-01   7.9109749e-02  -5.3666385e-01   4.3700582e-01  -1.6182751e-01  -6.4482048e-01   9.0263657e-01  -3.0954553e-01   9.2339953e-01  -6.7034259e-01   8.2774000e-01   2.0152236e-01  -6.5318673e-01   3.5020812e-01   8.0204145e-01   6.8933827e-01  -5.0419442e-01  -3.5632915e-01  -9.0993932e-01   7.1726931e-01   5.8453440e-01   2.1082514e-01  -2.2075737e-01   5.6088986e-02  -7.2979183e-01   4.7930350e-01  -3.1463149e-01  -9.5356280e-02  -8.6154052e-01   8.7790509e-01  -4.9262739e-01  -1.4302187e-01   7.6976098e-01  -7.9079885e-01   6.9077052e-01  -8.4283441e-01  -8.7092556e-02   5.7728074e-01
   6.6427005e-01   4.2232145e-01  -5.4840566e-01   7.4558838e-01  -5.2579311e-01   2.6510724e-02   5.6459018e-01  -7.2477111e-01  -4.3475975e-01   4.5345347e-01  -2.6815871e-01  -6.3651196e-01   8.0325061e-01   9.8318837e-01   7.5980125e-01  -5.7322492e-01   4.7805646e-01  -9.9373312e-01   9.8084767e-01  -5.6262608e-01   5.1227680e-01  -9.4652347e-01   7.7231801e-01  -5.5048502e-01  -6.2568618e-02   7.9082618e-01   8.0601119e-01   2.3363319e-01  -1.8801469e-01  -5.0557304e-01   9.9049686e-01   6.8293284e-01   8.3569191e-01   1.1488630e-01  -5.8153686e-01   4.3139688e-01  -4.4391997e-02  -3.6101344e-01   8.5330681e-01   9.6124908e-01  -8.0142262e-01   9.5179254e-01   2.3079212e-01  -5.3921564e-01   3.4030124e-01  -8.6714401e-01  -4.9246707e-01  -7.6207010e-01  -1.2549177e-01  -6.7454220e-01   1.8733427e-01  -7.5492416e-01  -1.4722710e-01  -3.2008255e-01   4.2200651e-01   8.4794774e-01   6.4637348e-01  -6.1808743e-01   3.2817309e-01  -3.8841502e-01   6.3162545e-01  -5.0186185e-01   3.7664284e-01   8.3165216e-02   2.4879917e-01  -9.9440049e-01  -1.0375412e-01   7.7833865e-01   3.5794599e-01  -2.3130436e-01  -2.4750315e-01   2.3877859e-01   8.1526997e-01  -7.0195239e-01   5.1803762e-01   3.6836055e-01  -1.6556032e-01   8.2503599e-01  -2.4448503e-01   1.4455905e-01   5.5934042e-01  -3.3098913e-01   4.9983589e-01   2.9993279e-01   2.4080711e-01   3.1939236e-01   3.1044735e-02   9.7864995e-01  -8.5803874e-01  -9.1514684e-01  -6.6675612e-01   6.9288197e-01   9.8432195e-01   1.1462826e-01  -9.0181153e-01   8.3596317e-01  -2.1776943e-01   8.6251136e-01   1.6262964e-01   6.9446793e-01   4.9658885e-01   5.3081129e-01   6.4628415e-01  -4.4839574e-01   2.6911106e-01   2.9712253e-01  -5.4083964e-01  -9.1665401e-01  -3.9237596e-01  -2.4877255e-01   8.7161192e-01   2.7235350e-01   2.0052639e-01   6.9495011e-01  -8.5356905e-01  -1.9736137e-01   6.2218551e-01  -6.4560828e-01  -9.0222251e-02  -4.0789855e-01  -9.7338045e-01  -1.1149917e-01   9.9449889e-01  -5.6373043e-01  -8.1919335e-01   7.3016258e-01  -6.2041548e-01   4.7596946e-01  -6.8864397e-01   2.3698036e-01  -2.1743358e-01   4.9940180e-01   2.5774878e-01   1.1600070e-02   2.6320496e-01  -7.1783191e-01  -4.0176769e-01   6.3296132e-01  -8.0008195e-01   4.4555289e-01  -4.0340812e-02  -3.7658274e-01  -4.6696846e-01   4.0109825e-01  -1.8294507e-01   6.0491451e-02   4.0058736e-01   9.6622030e-01   7.1516871e-03   9.7512254e-01   5.8087706e-01   4.7240524e-01  -5.2767714e-01   3.9802602e-01   1.1761174e-01  -6.5216359e-01  -9.9595406e-01  -9.3258373e-01  -1.0196706e-01   1.2211451e-02   9.4383480e-01  -9.0454451e-01  -4.2443128e-01   7.6114143e-01   6.2535141e-01   8.3437463e-04   3.1083590e-02  -8.2008678e-01  -6.9840931e-01  -9.7237686e-01  -6.5350146e-01   3.9994188e-01  -4.1693333e-01  -5.4228028e-01  -3.1849465e-04  -3.0400826e-01   7.0549538e-01   4.4216038e-01   1.5724699e-02  -9.3307469e-01  -7.1594041e-01  -2.8567836e-01  -6.9594896e-01   8.2849162e-01  -3.6552155e-01  -1.9563323e-01   5.7558695e-01  -4.9487148e-01  -3.8039791e-01   5.8787390e-02   2.8393326e-01   1.9735018e-01  -3.2543811e-01  -2.4588507e-01  -3.0380138e-01   2.7519418e-01   5.2342449e-01  -2.8894429e-01   3.8358642e-01  -3.7322409e-01  -2.2971435e-01  -7.7036816e-02   6.9979924e-01   3.4123180e-01   3.5146833e-01   6.7523231e-02   7.7343480e-01   1.3333975e-01  -6.8100472e-01  -9.9171187e-01  -6.1303994e-01  -1.4453231e-02  -8.1796334e-01  -1.9583772e-01   8.6853586e-01   7.1910375e-01  -5.3442422e-01   8.2386005e-01  -9.9878717e-01  -7.2216542e-01   4.9921579e-01  -4.1396928e-01   9.3749759e-01   5.1682464e-01  -7.1332737e-01  -1.6577456e-01  -8.9177178e-01   8.1431123e-01   2.2397103e-01  -9.3491953e-03  -5.1190387e-01  -1.7783184e-01  -4.4213316e-01  -8.5694306e-01  -5.3705792e-01   7.4717411e-01   2.8820520e-01   6.3541390e-01   1.4624095e-01  -2.7826805e-01   4.4917156e-02   9.4636899e-01   1.5673692e-01   7.7322106e-02  -7.0670423e-01  -8.1144368e-01  -8.1571174e-01  -6.2805513e-01   9.1354977e-01  -1.7615619e-01  -6.8770436e-01  -6.2151035e-01  -7.9191771e-01   8.3533081e-01   8.5630937e-01   7.8516005e-01  -2.4787952e-01   9.0184294e-01   7.7502652e-01   8.8986040e-01  -5.6390950e-02   4.9610685e-01  -7.4019209e-01   7.8540226e-02   3.8835544e-01  -2.2220503e-01   3.8152791e-01  -6.4275710e-01  -1.1007273e-01  -1.2934154e-01  -2.6272357e-01  -9.0539508e-01  -3.9840745e-01  -9.0870350e-01  -9.7226803e-01   1.6704922e-01  -3.1857656e-02   3.8427599e-01  -3.1804416e-01  -6.3461463e-01  -6.8814811e-01   2.4651955e-01  -3.2931762e-01   8.0098014e-01   1.1514722e-01  -7.7198534e-03  -9.2394045e-01  -2.5482080e-01   1.6432908e-01  -1.1734942e-01   8.1486834e-01   9.0106590e-01  -6.8852769e-01   8.1417982e-01   5.8171307e-01  -9.6519522e-01   1.2856289e-01  -3.1281984e-02   4.5516657e-01  -7.4102802e-01  -3.7640350e-01   2.3570015e-01  -2.1552230e-01  -5.7730011e-01   7.7374556e-01  -4.1856955e-02  -7.7209427e-01   8.2487637e-01  -4.3110186e-01  -8.2693402e-01  -3.1911831e-01  -1.2119100e-01  -1.8314482e-01   7.3785839e-01  -4.9251099e-01   8.7760248e-02  -3.4708709e-01  -3.1527907e-01  -8.5921818e-01   6.8685563e-01  -7.0622850e-01   5.2585452e-01   6.6944872e-01  -7.8955126e-01  -5.0697360e-01  -8.7362404e-01   6.5641965e-01   7.5216678e-01  -7.8448623e-01   8.7577719e-01   9.0138927e-01  -3.5805406e-01  -1.4569500e-02   6.2844945e-01  -1.2697595e-01  -5.7166304e-01  -8.6930666e-01  -8.1461062e-01  -4.5295905e-01   9.5798141e-01  -6.3390238e-01   6.9729294e-01   2.6506835e-01   4.0021560e-01   8.8414631e-01   9.8198482e-01  -7.5430941e-01  -3.1120845e-01   6.9662141e-01   8.0066009e-01   8.4118188e-01  -5.6333600e-01  -5.9989524e-01   4.3134736e-01   7.3130455e-01   6.7942230e-01  -3.7365741e-01  -6.7348619e-01   2.1048656e-01  -6.7897771e-01  -4.1219552e-01   8.9099723e-01   4.6544583e-01  -2.9339030e-01  -3.8214856e-01  -8.5009684e-01  -6.9209570e-01   3.4219043e-01  -6.3382941e-01   3.7981272e-01   8.7109421e-01  -6.8255948e-01   8.8410477e-01  -6.2806547e-01   3.2718021e-01   6.9425615e-01   1.9400342e-01  -1.4200829e-01   5.5194467e-01  -2.7391436e-01  -7.4041276e-03   1.9854949e-01   5.5179764e-01   7.6826544e-01   2.7710079e-02  -5.8110964e-01  -9.3559212e-01   8.8373650e-01   7.6386741e-01  -8.6352833e-01   9.1788067e-01   5.8579631e-01   3.7263300e-01  -1.1639989e-01  -1.1866158e-02  -1.2217850e-01   5.5534214e-01   7.0784006e-01   4.1516894e-01  -6.0527762e-01   1.7723478e-01  -1.7580922e-01  -9.0929921e-02  -1.4487577e-01   9.4142438e-01  -8.3485180e-01   1.0272486e-01  -3.4946334e-01   1.4837538e-01   2.9023094e-01  -5.1040502e-01   5.4577443e-01   7.3025738e-01  -1.4213793e-02  -7.6691340e-01   6.4204943e-01   4.6798819e-01   3.5167246e-01   1.0204753e-01   5.8811150e-01   4.3112582e-01  -7.5373365e-01   1.7337539e-01  -5.5699734e-01  -5.3113374e-01  -1.0231123e-01   9.5833645e-02   3.0452164e-01  -2.4241683e-01   8.3545891e-01   5.9618276e-01   5.7548427e-01  -3.1775506e-01   4.1531452e-01   5.4146906e-02   5.8406170e-01  -5.5343075e-01  -8.7914375e-01   6.3295919e-01   1.2211650e-01   1.7812909e-01  -2.5688749e-01  -8.2281060e-01   8.1488119e-01   4.3749426e-01  -2.9030152e-01  -6.3464534e-02   9.8440245e-01  -8.9427761e-01  -4.0138968e-01  -1.6924397e-01  -9.5911058e-01   3.3973070e-01  -8.7376459e-01   8.5155066e-01  -6.3246869e-01   5.7221175e-01  -7.0054841e-01  -9.3323190e-01  -1.0068366e-01  -2.3196868e-02   9.4794317e-01   3.9058966e-01  -7.6960105e-01  -5.2534641e-01  -8.8909190e-01  -2.3461429e-01   1.5894074e-01  -6.4323169e-01  -4.5481100e-01   1.8020768e-01   9.3038570e-01  -1.0551284e-01   5.9323128e-01  -2.3102616e-01   3.8927659e-01   2.9161375e-01   6.0212097e-01   7.1174370e-01   9.7819945e-01  -5.6286820e-01   8.5284001e-01  -1.4700366e-01  -9.0958946e-01  -7.1324178e-01  -9.5429549e-01   4.0189464e-01  -9.6876556e-01  -4.5221030e-01  -9.3162724e-01   8.3029615e-01  -6.5494233e-01   2.5576528e-01  -2.2693743e-02  -4.5388438e-01  -1.6674419e-01  -8.4423778e-01   4.0660538e-01   5.9191969e-01  -5.6860395e-01  -7.8790038e-01   2.7332661e-01  -4.0702218e-01  -3.8517068e-01   1.0383168e-01   4.4853182e-01  -8.6134804e-01   1.1362278e-01  -7.2318274e-01   6.6626997e-01   7.6974377e-02   5.7745078e-01   1.5558649e-01  -8.5869741e-01  -2.4598924e-01   8.0061432e-01  -7.5417958e-01   7.6959075e-01  -2.5328182e-01   9.9205600e-01  -1.1414541e-01   3.7436683e-01  -6.9039782e-01   4.3105709e-01  -3.6453540e-01  -2.3088618e-01  -8.3466671e-01   7.1241526e-01   4.1866277e-02   1.3471105e-01   3.3792297e-01  -1.7540516e-02   2.5464830e-01   9.9658904e-01   7.3872449e-02   2.7218248e-01  -7.9190232e-01  -2.1786309e-01  -4.4525656e-01  -5.9820750e-02  -6.1047106e-01   9.3220683e-01   5.9613282e-01  -5.4218460e-01   6.2994741e-01   5.3459906e-01   3.0343645e-01  -6.1347080e-01   1.3004583e-01  -9.6797301e-01   5.6502685e-01  -3.1587019e-01  -7.1022497e-01  -4.3075597e-01  -3.1856603e-01  -1.9549998e-02   9.5992893e-02  -2.1451258e-02  -4.0376813e-01  -1.4167495e-01   2.7572769e-01  -9.1098011e-01   5.6981267e-01  -8.6596806e-01   2.7479809e-01  -7.9059880e-01  -8.1256560e-01  -5.6042322e-01   9.7423687e-01  -9.1956153e-01  -5.8845448e-01  -5.8227192e-01   1.1948814e-01   9.4686713e-01  -5.6308741e-01   1.8063503e-01   4.6644336e-01   2.8484549e-01   5.1246363e-01  -2.4079311e-01   8.7058935e-01  -4.2407738e-01   6.6307576e-01  -2.9555587e-01   8.4322352e-01   3.5065364e-02  -2.9010056e-01  -3.9736451e-01  -1.6788893e-01  -2.8985084e-01   5.0904758e-01  -9.4605702e-01   8.2499187e-01  -9.5305172e-02   5.8249964e-01   9.5357731e-01  -7.9505568e-01   8.6426789e-01  -5.5852744e-01   1.9052924e-02  -8.7494078e-01   4.9690319e-02   8.4422837e-01  -9.0156525e-01  -5.3932108e-01  -9.9192941e-01   1.3768136e-01  -5.2789686e-01   8.4468008e-01  -9.0443835e-01  -2.3318541e-01   6.7781183e-01  -8.0158376e-01  -8.7571437e-01   7.1333471e-01  -1.5707792e-02   6.8701110e-01  -9.4475541e-01  -3.4742032e-01  -3.2147469e-01   4.6527121e-01  -9.3050395e-02   4.8424568e-01  -7.7918563e-01   5.8798312e-01   5.4668308e-01   8.6233804e-01   2.0416545e-01   9.5225364e-01  -6.2506859e-01  -9.5096340e-01   7.9539237e-01   2.2580400e-01  -8.8478945e-01   1.1637084e-01   3.7977251e-01  -3.1279954e-01  -1.7391346e-01  -5.8117718e-02   7.6666959e-01   1.5710852e-01   9.2889928e-01  -9.6774244e-01  -8.4652949e-01  -6.6441541e-01   1.3376000e-01   4.2325107e-01   4.9527191e-01   1.4427431e-01  -6.9267456e-01  -7.0775002e-01  -1.7418725e-01   9.9087512e-01  -8.5670851e-01   9.8415487e-01  -4.0529600e-01  -2.4786944e-02   2.6784670e-01  -2.5960599e-01  -8.2252629e-01  -2.4458858e-01   2.1476765e-01   4.4650326e-01  -3.6613206e-01   5.4980686e-01  -5.0452018e-01   6.6468573e-01  -1.3447630e-01  -3.4761633e-01  -3.2658643e-01  -3.8688034e-01  -3.8877792e-01  -9.1784982e-01  -2.6479207e-01  -1.1346733e-01  -9.4442312e-01   6.8199335e-01   9.7449780e-01   1.1109058e-01   3.5231036e-01  -4.7104003e-01  -4.3993729e-01  -1.8552514e-01  -6.3960632e-01   1.8114914e-01  -6.4241473e-01   7.9282385e-01   8.6341563e-01   5.3767296e-01   4.3257047e-01  -6.9237186e-01  -6.1113634e-01  -7.0714425e-01   5.2243298e-01  -8.6648494e-01   9.2728340e-01   8.5301449e-01  -6.6345052e-01   9.9584759e-01  -1.1794216e-01  -2.0884489e-01   5.8944831e-01  -7.2994309e-01   6.2322339e-01   4.0389013e-01   3.3597887e-01   9.0421361e-01  -2.6567006e-01   3.5119368e-02  -3.3892046e-01  -2.7264321e-01   4.2618347e-01   8.0436697e-01   9.6350527e-01  -9.9861698e-02  -4.3083355e-01  -3.3482304e-01   6.9414751e-01  -4.3769684e-01   6.7051138e-01   8.7204708e-01   3.5664096e-01   6.0039726e-01   2.3786907e-01   5.3739217e-01   2.4861321e-01   1.5482813e-01   3.6571292e-01   3.1201144e-01   8.8222135e-01  -4.6468548e-01  -2.9021434e-01  -9.2603134e-01   4.0211013e-01   9.5606204e-01   7.3744206e-01   6.1863890e-01  -4.9020616e-03  -7.5874152e-01   2.9808243e-01   1.9672690e-01  -2.9811829e-01   8.7534938e-01  -2.4700513e-01   1.5652342e-01  -6.4384575e-01  -5.5476747e-01   1.4179797e-01  -4.0698609e-01   5.4965988e-01  -1.4486581e-01  -7.4793686e-01  -7.0985171e-01  -5.4513352e-01  -7.3899504e-01   6.8319054e-01   1.5918666e-01   1.7350320e-01   8.1676786e-01   5.1874488e-01  -7.2609204e-01  -7.4781410e-01   6.9980088e-01  -3.2014125e-02   7.2776416e-01  -6.1805753e-02  -2.9395598e-01  -3.3544918e-01  -9.4677574e-01  -8.4435058e-01   9.8270615e-01   3.1156035e-01   3.9009839e-01   8.6592778e-03  -3.8367322e-01  -6.1869659e-01   9.0662050e-02  -6.3180526e-01  -5.5069754e-01   6.8130105e-01   7.6932712e-01   8.6193806e-01  -7.0617723e-01   9.9224626e-01  -8.8411580e-01   7.6237693e-01  -2.7269595e-01   7.5009668e-01  -3.9990751e-01   4.5304601e-01  -2.0389044e-01  -9.4616299e-02   4.9730221e-01   7.4400181e-01   5.0661707e-01   7.7753476e-01  -3.0623497e-01   5.2507873e-01   2.0478408e-01  -9.2539190e-01   2.5407874e-01  -1.1935730e-01  -6.4488604e-01  -7.5952915e-01  -1.4878093e-01   7.7338946e-01  -6.3716747e-01  -7.8079699e-01  -8.4386555e-01   1.3878718e-01   9.8661503e-01   9.9301489e-01   2.3752205e-01  -4.2270756e-01  -9.0992114e-01   9.7747614e-01   6.0334874e-01  -1.9941440e-02   2.4705849e-01   2.4250058e-01  -2.9979139e-02  -9.0236574e-01  -2.7308649e-01  -8.9698915e-01  -7.3460575e-01   8.9323649e-02   2.4007330e-01   8.9849561e-01  -4.3734825e-01   6.9741835e-01   7.3956468e-01  -4.2131556e-01   2.7191659e-01   3.5188633e-01   1.3233985e-01   4.9046330e-02   5.9530472e-01   1.0297512e-01  -9.6550480e-01   9.1499721e-01  -4.8565731e-01  -9.5114762e-01   2.1989697e-01   7.5776841e-01  -6.9202805e-01   3.0802148e-01  -4.8589900e-01  -6.7732892e-01   6.6389643e-01  -7.2283498e-01  -2.1380313e-01   5.5601528e-01  -7.4345443e-01  -5.4064337e-01  -9.5650334e-01   3.0750100e-01   8.6607618e-01   9.3395190e-01  -7.4914440e-01  -5.1258006e-01   2.6487081e-02   3.2470496e-01   2.6416144e-01  -7.2504646e-01   7.2003169e-01  -9.3935641e-01   2.7335087e-01   2.7738469e-01   9.4083731e-01  -8.4190046e-01   3.0287937e-01   6.7726811e-01   2.0269865e-01   2.3005590e-01  -9.3278982e-01   6.2616657e-01  -5.0603849e-01  -9.0064828e-01   4.5100602e-01   5.6662252e-01   8.4101620e-01  -3.1925048e-01  -7.0629808e-01  -3.6338940e-01   3.7883023e-01  -3.4481163e-01  -4.1587857e-01   9.9570736e-01  -8.5926003e-01  -2.3156470e-01  -9.7157590e-01   9.3010086e-01  -5.5415432e-01  -2.5783609e-02   1.7287997e-01   8.7500837e-01  -1.6456245e-01  -7.3808193e-01  -2.6867519e-01  -7.3248426e-01   9.1538084e-01  -9.9996711e-01   1.8215759e-01  -4.1289244e-01   1.8532552e-01   5.1524208e-01  -3.2292629e-01   6.6005033e-01  -2.1049359e-01   3.9801538e-01   9.7366627e-01  -9.7762247e-02   9.7879616e-02  -4.8150639e-01  -8.9796302e-01  -5.7959175e-01  -9.1443907e-02  -2.0310980e-01  -6.4521194e-01   2.3704265e-01   4.1746396e-01   4.6877880e-01   1.0781830e-01  -2.3481740e-01  -6.1989489e-01  -3.1465768e-01   3.1751095e-02   6.4669125e-01   9.0872959e-01   2.8831532e-01  -6.4010895e-01   7.0225331e-01   5.6991359e-01   2.5899864e-01   7.7874335e-01   4.5963299e-01   4.3825058e-02  -6.0103736e-02  -8.9655998e-01   6.7426431e-01   1.4125910e-01  -9.2940393e-02   6.5768764e-01  -4.6929245e-01   2.1487193e-01  -4.2236944e-01   6.2056110e-01   5.4714609e-01   3.7763146e-02   6.6231484e-01   5.7688431e-01   4.9631656e-01  -6.2260543e-01  -8.6674110e-01  -1.7786220e-03   6.8062074e-01   9.6241684e-02   4.2995711e-01   6.1412069e-01   4.9690126e-01  -8.3260297e-01   1.7521399e-01   4.7585028e-01  -1.5306423e-01   9.9165088e-02  -3.8668889e-01  -8.2371896e-01   1.1869578e-01   4.0051665e-01  -2.8882856e-01   4.8253503e-01  -6.5002360e-01  -8.2320470e-01  -4.5211098e-01   2.7731837e-01   9.3588451e-01  -5.2263675e-02   1.4456841e-01  -5.6966333e-01   9.9324231e-01  -2.0533292e-01  -4.6377635e-01  -6.7869892e-01   2.2357494e-01   8.9988732e-01  -2.9085703e-01  -1.4913674e-01   8.7724548e-01   1.7074855e-01  -6.0895475e-01  -7.2332508e-01  -2.9917280e-01   1.0297071e-01   1.4029482e-01  -4.7198533e-01  -3.2997982e-01   8.0595988e-01  -6.8140362e-01  -9.6639632e-01   2.1263376e-01
  -6.2702805e-01  -5.9290805e-01  -1.1704761e-01   9.7897301e-01   6.0233161e-01   3.1947045e-01   5.6078923e-01   8.5266160e-01  -3.0949957e-01  -5.0091748e-01   9.2884618e-01   4.9318084e-01   7.2496552e-01   6.8949231e-01   9.3815835e-01   4.7140959e-01  -3.6127173e-01   9.0088159e-01   3.8280079e-01  -7.7264076e-01  -6.7491106e-01   3.9288092e-01   9.4411389e-02  -9.4504419e-02  -6.5309206e-01  -6.7433574e-01   6.4594210e-01  -3.9862444e-01  -8.1526072e-01   8.0211959e-01  -8.3919162e-01   4.5288714e-01  -5.7507964e-01   2.1173787e-01  -5.7032533e-01  -8.3485871e-01  -1.5336511e-01   4.2270865e-01  -6.5271067e-01  -9.2355404e-02  -7.1871168e-01   7.2753718e-01   2.9379449e-01   8.2333199e-01   4.2573756e-01  -6.5594693e-01  -8.9795202e-02  -4.4270574e-01  -2.4396041e-01   2.6141962e-03   9.1739138e-01  -3.3109067e-01   1.3624874e-01  -8.8597254e-01   5.9701351e-01   5.7872554e-01  -5.5082780e-01   7.7230789e-01   3.8973838e-01  -9.1406937e-01   1.3034279e-01  -7.3277813e-01   8.0267588e-01  -6.7697757e-01   9.0204778e-01   6.5936279e-01  -1.1244338e-01   7.2713644e-01   7.9586723e-01   7.5315953e-01   3.5444052e-01  -6.1476617e-01  -3.1879677e-01  -8.0151768e-02   1.6140275e-01   5.6377724e-01   5.6444747e-01   7.3818334e-01   4.0846701e-01   3.8330230e-01  -8.6206142e-01   7.2822560e-01   8.5725661e-01  -6.2589276e-01  -8.1855327e-01  -6.8886240e-01  -7.4122410e-01   1.6429955e-01  -7.9607507e-01  -7.6502631e-01  -5.5410500e-01   4.1392264e-01   9.9966886e-01   9.9377599e-02   6.5182055e-01  -6.7844824e-01   4.1393351e-01   5.8407724e-01  -8.3491279e-01   5.4192487e-01  -2.5935511e-01  -1.1882704e-01  -5.1034986e-01  -2.7469759e-01  -4.6502191e-01   3.4451358e-01   8.8779754e-01   6.8910692e-01   5.4902571e-01   2.4856036e-01   7.2574866e-01   8.8209372e-01   2.2851881e-01   9.7606822e-02  -4.7078873e-01  -6.0070709e-01  -3.0308613e-01  -5.7935729e-01   9.6809394e-01   5.7230346e-01   6.9444034e-01  -1.6850811e-01  -7.8959271e-01  -5.4159603e-01   9.4446200e-01   4.6304924e-01   4.8874785e-01   2.4499948e-01   5.3042405e-02  -1.6440959e-01   9.7516631e-01  -3.7214871e-01  -4.2309746e-01  -5.5287348e-01   3.2993187e-01   2.6177036e-01   5.1720668e-01   3.2216182e-01  -4.6282976e-01  -5.9487421e-01  -6.8668766e-01   7.0444719e-01  -7.9080166e-01  -8.0882171e-01  -3.0497527e-01  -8.1562762e-01  -2.4335474e-01  -5.6982107e-02  -8.8169241e-01   2.4679331e-01  -7.8708372e-01  -4.0473073e-01  -7.8443155e-01  -8.1833471e-01   4.2575604e-01   1.4331934e-01   9.8924270e-01   9.4906184e-01  -5.0820167e-01  -4.5620418e-01   4.6919342e-01   5.1016685e-01  -1.4464551e-02  -1.4060408e-01   8.5809616e-02  -7.1374966e-01  -8.1624859e-01  -9.8879832e-01   9.6675394e-01  -6.0783602e-01   2.2166049e-01   2.5142801e-01   4.2598108e-01   1.4795986e-01  -8.9807564e-01  -8.0714173e-01   1.3566737e-01   2.2299622e-01   4.9224046e-02  -1.3387344e-01  -9.7055596e-01   5.9405976e-01  -6.9928083e-01  -2.9679222e-01  -1.4173674e-01   3.1804456e-01  -3.3815125e-01   8.5677024e-01   6.0318576e-02   7.0117623e-01   8.6389153e-01   4.4180569e-01   2.1151957e-01  -7.7950315e-01  -3.6354760e-01  -1.3338150e-01  -1.8005451e-01  -6.0404722e-01  -9.9877792e-01  -5.2502707e-01  -3.9952943e-01   4.0670001e-01   3.1035955e-01   6.7676276e-01   4.7956561e-01   1.3806783e-01   8.2244245e-01  -9.4462622e-01  -8.1354867e-01   4.8540536e-01  -3.9744906e-01   3.8898786e-02   6.3618000e-01  -1.2107101e-01   2.7551101e-01  -7.8288990e-01   2.4350927e-01   3.7912239e-01  -8.1599570e-01  -3.9389491e-01   7.6647971e-01   3.8507771e-01  -7.8955632e-01   8.3756023e-01   7.6961266e-01   7.6208290e-01  -5.3728886e-01  -4.5657518e-01  -4.1639947e-01  -6.2657802e-01  -1.0816347e-01  -6.2359559e-01  -9.5214979e-01  -2.5479758e-01   9.9926795e-01   7.5027425e-01  -3.0290621e-01  -1.0073251e-01   5.8071255e-01  -1.9558708e-02  -8.3644117e-01   3.9036108e-01   3.4005789e-01  -5.9388727e-01  -5.6634609e-01  -3.3558853e-01   5.2761223e-01  -2.6615521e-01  -1.5425846e-01  -5.5521771e-01  -6.7710990e-01   7.0956858e-01   2.8845775e-01   5.5453328e-01  -3.3533843e-01  -7.7012852e-01   4.9012767e-01  -1.2949910e-01   1.2788131e-02  -6.8265272e-01  -2.3077385e-01   4.8747510e-02  -7.0767225e-01  -9.3864827e-01  -9.9348363e-01  -9.2258506e-01   6.9381178e-01  -2.1373200e-02  -7.5042195e-01  -3.6162134e-01   9.7054268e-01   9.3034094e-01  -2.9411565e-01  -7.4793185e-01  -2.2514743e-01  -2.1780166e-01  -3.2279321e-01   9.0370263e-01  -3.9730917e-01  -1.8212824e-01   2.8085581e-01   3.6184403e-01   7.9151238e-01   5.6330087e-01  -6.4917883e-01   8.5428824e-01  -6.0547156e-01  -8.0067492e-01  -5.4332420e-01  -1.1765451e-01  -9.4308204e-01   7.2570903e-01  -5.1513380e-02   7.9074078e-01   2.1959854e-01   1.9144155e-01  -9.6816094e-01   5.7610554e-01  -5.8831411e-01   9.1386724e-01   4.5485371e-01   3.0178209e-01   6.4769385e-01   6.3114453e-01  -9.0404749e-01  -7.1316044e-01   5.5788184e-01   3.9806038e-01  -2.5211051e-01  -3.5434910e-01   6.2674949e-01   4.4840240e-01   6.2698003e-01   5.6154327e-01  -4.5688869e-01   6.8657892e-01  -8.2287057e-01   5.8934591e-01  -8.4063008e-02   8.7551707e-01   1.3918515e-01  -8.3031507e-01   6.4611602e-01  -5.1694119e-01  -6.4909652e-01  -8.3558300e-01  -9.7902461e-01   3.4231619e-01  -4.2764285e-01  -1.0153659e-02   6.6480369e-01   2.7783063e-01   9.0769780e-01   8.0269349e-01   1.7094622e-01  -3.5533476e-02   5.6913718e-01   5.0034032e-01   7.6946386e-02   9.9726831e-01   7.2979751e-01   6.3709527e-01  -6.6486958e-01  -1.8739285e-01   3.7421430e-01  -3.0398965e-01   1.7747413e-01   4.1692500e-01  -3.7778250e-01   4.8293788e-01   6.5997776e-01   9.1229035e-02  -5.2920919e-01  -3.4378241e-01   1.3742035e-01   2.7389993e-01   8.1180260e-01  -1.9542734e-01  -4.5080840e-02   5.0696601e-01  -9.4305843e-01  -7.6775556e-01   2.9812637e-01   7.2682931e-01  -1.8827762e-01  -6.4179168e-01   4.8716020e-01  -6.6797775e-01  -7.8189462e-01  -9.3545087e-01  -6.0317222e-01   6.8297596e-01   6.6660312e-01  -4.2001944e-01   2.9765081e-01   3.3635391e-01   4.6546972e-01  -6.3962987e-01   6.0523921e-01  -2.7959719e-01   1.2249665e-01   4.7205366e-01   7.1912627e-01   9.7809136e-01   8.8732223e-01  -7.9867074e-01   2.9187569e-01   1.2559129e-01  -4.4238094e-01   1.0839162e-01   1.5791252e-01   2.8229316e-01  -2.7887540e-01  -1.3118677e-01   9.8566758e-01   9.1524309e-01  -6.3895514e-01  -4.1653206e-01   4.3938370e-01  -9.7833713e-01   8.1642722e-01   5.2928311e-01   6.2982750e-01  -6.0047421e-01   9.8650224e-01  -8.6846610e-01  -5.3035211e-01  -3.5117551e-01   2.1894442e-01  -9.5804249e-01   6.0171350e-01  -3.6700269e-01   3.9809920e-01  -4.8701316e-01  -2.2674451e-01  -4.9458290e-01   4.2344661e-01  -7.6767039e-01   2.4023493e-01  -3.7483878e-01   2.1436211e-01   2.1955009e-01   3.7469359e-02  -2.7715683e-01   3.1377470e-01   5.0056438e-01   1.0244766e-01  -1.1550787e-01  -7.8105119e-01   7.2838587e-01  -7.3300676e-01   2.8441375e-01   4.8521331e-01   6.7211057e-01  -7.8070505e-01   5.3412163e-01  -8.1495021e-01  -3.8476447e-02   9.5978138e-01   4.7721940e-01   7.2655242e-01  -1.9188407e-01  -2.2946214e-01   2.5867948e-01  -8.4957008e-01  -1.7754268e-01  -8.6773548e-01  -8.5580817e-01  -7.9490130e-01   9.5130586e-01   8.1759643e-01  -2.0550168e-01  -1.5446898e-01  -2.7510951e-02   3.3940144e-01  -2.3129462e-01   4.0795020e-01  -9.0020564e-01  -2.9597778e-01  -3.6505399e-01   9.2827034e-01  -8.8649649e-01   2.4590338e-01   3.5197624e-01   7.7593307e-01  -3.8642613e-01   1.8800570e-01  -1.4039001e-01   9.7065575e-01  -9.0097243e-01  -9.3031220e-01  -1.0090579e-01   6.7468727e-01   9.1997531e-01   6.6059941e-01   9.3207643e-02   2.2839609e-01  -7.4407760e-01   8.5946675e-02  -1.3309128e-01   5.5337577e-02   3.1153384e-01  -4.4199319e-01  -9.8146211e-01   9.1281216e-03  -2.7335880e-01   9.6082345e-01   8.9728163e-01   1.1424408e-01   1.6206296e-02  -1.7382350e-01  -4.4779428e-01  -7.5816818e-01   7.1190179e-01  -7.8388129e-01  -4.5477778e-01   8.6000468e-01   5.8619901e-01  -6.8663913e-01   6.4715756e-01  -3.8761519e-01  -8.6196918e-01  -6.2366216e-02  -2.6239770e-01  -1.1973410e-01   3.2523818e-01  -6.2021684e-03   2.5841941e-01  -1.5700239e-01  -5.5315703e-01   2.4539452e-01  -9.1432467e-02  -1.8487223e-01   4.5567469e-01   9.0417703e-01   7.2154607e-01  -2.8072390e-01   5.0308425e-01   7.3584094e-01   3.4337939e-01   9.0211625e-01   6.8587775e-01  -9.3490979e-01   6.6249503e-01   3.1426515e-01  -2.2641765e-01   8.3262074e-01   7.1014641e-01  -2.9279375e-01   5.2354440e-01  -6.5492799e-01   5.3760981e-02  -8.9444750e-01  -6.8207958e-01   8.8856067e-01   1.1338582e-01  -9.6100757e-01   5.3601271e-01  -5.3117309e-01   2.3543807e-01  -3.6390886e-01  -6.4791922e-01  -6.9054977e-01  -1.6561765e-01  -4.5727380e-01   4.2102730e-02   8.2197556e-01   7.9657496e-01  -9.1277527e-01   7.6306084e-02  -2.6043277e-01  -7.3409337e-01  -1.3233672e-01  -3.6362455e-01  -4.7760561e-01   4.1662468e-01  -3.3255556e-01   7.6372540e-01   3.9034854e-01   7.0907684e-01  -7.5176461e-01  -9.5880442e-01   2.7177193e-01   8.3254753e-01  -3.0174543e-01   3.2165704e-01  -1.2496618e-01  -2.4632371e-01   7.7285291e-01  -4.6407685e-02  -4.0065607e-01   4.1431761e-01   5.3325455e-01  -3.3368706e-01  -7.6733270e-01   2.4355554e-01  -4.4041072e-01  -6.3791667e-01   6.2911794e-01   5.8252876e-02  -8.7325722e-01  -6.5285869e-01   5.9408784e-01   5.1812513e-01  -3.2992117e-01  -1.5662830e-01  -8.4013230e-01   7.9985175e-01   8.6789595e-01   1.4427241e-01  -8.1607853e-01  -1.3323654e-01  -6.9024590e-01  -4.1636616e-01   8.4833082e-01  -1.0551508e-01  -9.1209456e-01   4.8047588e-01   8.9139685e-01   4.6344042e-01   4.6884234e-01  -7.8562336e-01  -2.9490760e-01  -3.0848891e-02   8.0195274e-01  -7.3880666e-01   6.6472399e-01  -3.9316346e-01  -7.7653471e-01  -3.8703944e-01   1.5561391e-01  -5.7950281e-01   2.6934747e-01   6.8139129e-01   3.3698015e-01  -6.2273970e-01   6.5698019e-01  -5.2327401e-01   3.7357025e-01  -2.6136047e-01  -6.3627155e-01  -3.3293865e-01   4.8839625e-01  -5.6898901e-01  -7.6602031e-01   7.3870476e-01   8.2335568e-01  -9.4183323e-01   3.5333845e-01  -5.0725080e-01   2.4557883e-01   1.6422799e-01   1.4806609e-01   5.9443502e-01   3.9862813e-01  -6.3076287e-01   1.6034579e-01   5.9331708e-01  -8.4073720e-03   8.1330709e-01   3.6349691e-01   4.6325463e-01   9.8846428e-01   8.7442555e-01   4.3427623e-02  -3.0874953e-01   1.1260559e-01   9.1711222e-01   1.8714065e-01   4.0958693e-01   4.8198482e-01  -3.1686820e-01  -4.8573062e-01   5.2814807e-01  -4.1007652e-02   5.6571236e-01   3.1677769e-01   4.0341045e-01   2.7641065e-01   6.4141927e-01   6.9394946e-01  -1.7800334e-01   9.8642808e-01   7.3314362e-01  -4.0904759e-01  -9.2376012e-01  -9.3666699e-01   8.8071519e-01  -7.6120256e-02   1.9010822e-01   2.9081817e-01   5.8578218e-01  -3.7672922e-01   9.4682328e-02   6.0502338e-01  -9.0946716e-02  -1.6066001e-01  -9.1382347e-01  -5.0920052e-01   3.2935807e-01   1.4826121e-01  -5.5036516e-01   5.3953941e-01   1.1311070e-01   6.3174262e-02   2.6199961e-01  -3.2420939e-01  -4.9839508e-01   8.9257925e-01  -5.8598548e-01  -5.2844458e-01   5.1848381e-01   5.6058825e-01  -7.7240307e-01  -7.9258263e-01  -9.4214952e-01  -9.5074204e-01   7.7022248e-01  -8.8330962e-01  -8.6608699e-01   6.0744979e-01  -4.8345291e-01   5.7387620e-02  -2.3573442e-02  -4.0891676e-01  -8.9174755e-01  -1.6462835e-02   4.8877056e-01   9.7985389e-01  -6.7843114e-01   4.1176544e-02   4.7642436e-01  -9.3895804e-01   7.6183134e-01   4.6444259e-01   7.9282030e-01  -8.3411499e-01   3.5419354e-01  -1.4180253e-01   6.0322168e-02  -7.9264782e-01  -1.7081413e-01  -2.1567018e-01  -5.3534750e-01  -3.0940649e-02   9.2111038e-01   5.3437725e-01  -4.4840013e-01  -9.5233226e-01  -9.1823044e-01  -4.1760675e-01  -2.5268085e-01   8.1932059e-01  -5.7036129e-01  -1.9824573e-01  -3.4855718e-01   7.4567780e-01   5.6366516e-01  -2.3016492e-01   4.0113584e-01   5.3402446e-01  -1.2684540e-01   7.0777266e-01  -4.9217088e-02  -4.7429485e-01  -7.0853563e-01  -5.8783978e-01  -3.2710515e-01   9.2721842e-01  -3.1432532e-01  -8.6481218e-01   9.9368775e-01  -9.5231010e-01   2.1774689e-01   3.9546486e-01  -7.3448579e-01  -5.3004569e-01   1.7290068e-01  -4.0586151e-01  -1.9381097e-01   4.8309682e-01  -5.4172553e-01  -5.7968350e-01  -7.4915203e-01   9.8614742e-01   8.3483898e-01   6.7683654e-01   1.9926957e-01  -7.2089265e-02  -9.8463636e-01  -6.6595720e-01  -4.1650354e-01   2.3448430e-01   5.5864340e-01  -9.5601079e-01   5.7916329e-01   2.2985587e-01   4.3990081e-01  -6.4496356e-01   4.0529198e-01  -3.4635922e-01   8.8742432e-01   9.8365161e-01   8.6913269e-01  -4.7074585e-01  -5.0460191e-01   4.9866033e-01  -7.8376827e-01  -7.0309820e-01   7.2912416e-01   1.2014171e-01  -3.5503513e-01   3.5097312e-01   7.2927329e-01  -1.5355967e-01   6.4344734e-02  -1.4493842e-01  -9.3659287e-01  -6.2208143e-01   2.5143679e-01  -4.7395643e-01   5.0093391e-01  -5.0114354e-01   9.7619853e-01  -1.6203243e-01   5.6843453e-01  -5.5687583e-01   8.8964952e-01   8.4003397e-01   3.8385207e-01  -1.3853303e-01   1.0251921e-02   3.2320606e-01   6.1657296e-02   6.9653700e-01  -1.8703493e-01   4.7127110e-01  -8.7422945e-01  -9.3644176e-01  -6.7784641e-01   8.5621741e-02   7.8794752e-02   9.7044533e-01  -6.5918923e-01  -2.1999597e-01   7.0450128e-01  -8.1919243e-01   3.1675821e-01   8.5687750e-01  -4.9709674e-01  -8.4915520e-01  -8.7383213e-01   7.6958232e-01  -9.3385373e-01   2.8984175e-01   3.7833720e-01   7.6936612e-01  -4.9723120e-01  -5.1049200e-01   1.3691285e-01   1.1269740e-01  -1.8143539e-01   2.6025637e-01   6.9648844e-01   2.4529010e-01   2.6444700e-01   1.9077812e-01   4.7061649e-01  -3.5220534e-01  -1.3193794e-01   7.8697287e-01  -3.7073528e-02  -5.0019362e-01   2.0249834e-01   8.7592997e-01  -1.2753591e-01  -1.4192814e-01  -9.6437753e-01   3.2915191e-01  -3.9273996e-01  -1.8008628e-01   7.6619153e-01   8.9459623e-01  -5.3188422e-01  -9.8928003e-01   4.5575007e-01  -8.3051479e-01  -6.4220725e-01  -3.2541608e-01   4.6685134e-01   9.4284700e-01  -5.2969009e-01   8.8923261e-01  -1.6937613e-01  -7.9501525e-01  -1.8850251e-01   3.2504497e-01  -5.8892780e-01  -1.4775599e-01   9.4174106e-01   5.7703603e-02  -8.6766867e-01   1.1415225e-02  -8.2975044e-01   9.2650703e-01   2.8205278e-01   3.9325116e-01  -9.8754039e-02  -8.4216745e-01   1.7269235e-01  -2.6251993e-01  -4.8611485e-01  -6.5110924e-01  -2.7419672e-01   9.1890940e-01   2.3509193e-02   8.0990998e-01   6.1319600e-01  -5.6390239e-01  -1.6075772e-01  -4.4492152e-01   8.4608984e-02   8.4045214e-01  -3.8874679e-01   4.0623842e-01  -5.8905088e-01  -1.1620344e-01   8.9534054e-01  -8.3169150e-01   6.8560803e-01  -1.7654056e-01   1.3039869e-01   9.0304160e-01   4.5961707e-01   2.7290653e-02   6.9330516e-01   4.5265980e-01   1.9600064e-01  -5.2092294e-01  -2.7625696e-01   1.9504009e-01  -5.0517582e-01  -2.4551557e-01   3.0924703e-01   1.8443141e-01   4.7789231e-01   3.8628313e-01  -2.4861392e-01   7.0258076e-01   3.2164194e-02  -6.6750761e-01   4.8401263e-01   6.6663755e-01   7.9481355e-01   3.2513618e-01   4.1906431e-01  -7.8756558e-01  -6.3615993e-01  -2.3056025e-01  -1.6485214e-01  -4.7233490e-01   5.6240703e-01  -8.7629560e-01  -6.0041600e-01  -8.6361474e-01   1.0281040e-01   1.3969919e-01   9.3912540e-01   5.9311053e-01  -6.9296159e-02  -7.4887101e-01   7.5818994e-01   9.6465821e-01   8.2293209e-01  -2.7786196e-01   6.5451391e-01  -2.6633300e-02   2.8527136e-01  -5.1172394e-02   2.3997027e-02  -8.0409098e-01  -6.2513583e-01   1.7401206e-01  -4.7599474e-01  -1.5672130e-01   1.5916169e-01  -7.3227103e-01   3.2116639e-01   8.0985609e-01   9.3109485e-01  -5.1414305e-02  -3.4015883e-01   4.5507295e-01  -6.2538093e-03  -7.5961552e-03  -2.9705656e-01   3.4030580e-01  -8.2892209e-01  -1.9509132e-01  -9.7753219e-01   3.7886581e-01  -5.8208369e-01  -3.3539330e-01  -9.5464152e-01   1.3075047e-01   8.3861342e-01   2.1655530e-01   7.9588495e-01  -6.9038428e-01  -8.3498372e-01   3.8536913e-01  -6.1443352e-01  -6.6247336e-01  -6.1431995e-01   8.3594353e-01   6.1012734e-01   6.1996972e-01   8.6429740e-01   1.1806396e-01   8.3372410e-01
