  -1.7379304e-01  -7.0384584e-01   9.8035759e-01  -3.8156170e-01  -4.1873880e-01   8.7155921e-01   6.5187521e-01  -8.8156055e-02  -2.3670265e-01   9.4467439e-01  -6.8478346e-01  -7.2785657e-01   7.3817908e-01  -6.2646616e-01   3.6882086e-01  -7.7771057e-02   1.4439836e-01   2.8750823e-01  -8.7355695e-01  -3.8354307e-01  -6.4226700e-01  -1.4166338e-01   2.8565627e-01  -9.2721789e-02   9.5092264e-01   4.3675300e-01  -5.9436680e-01   4.9690379e-01   7.7331084e-01  -9.2981600e-02   8.0571712e-01   9.6031929e-01  -3.5308318e-01   6.5647219e-01  -6.4630353e-01  -7.1113219e-01  -1.4391075e-01  -2.3708620e-01   4.1396845e-01  -1.9271487e-02   1.8380774e-01   8.9695418e-01   8.4753977e-01   9.8997737e-01   4.9236534e-01   5.7111321e-01  -4.0832518e-01   4.6805249e-01   5.0724758e-01  -9.8058642e-01  -2.9709124e-01   4.0105409e-01  -7.2601244e-02   7.0821002e-01  -1.1140468e-01  -3.5821122e-01  -6.3579710e-01   8.3810493e-01  -5.1003999e-01  -1.4447507e-01  -9.6160716e-01   5.6198945e-01  -2.6314364e-01  -9.0833522e-01  -2.7343445e-01   1.7448241e-02  -5.5280185e-01   5.7822617e-01  -8.2915652e-01  -7.1179924e-02  -7.2763400e-01   7.1125305e-01  -3.1550571e-02   3.2248556e-01   9.9467190e-01  -3.6227698e-01  -5.2817362e-01   4.8066679e-01   3.2167179e-01  -2.3142333e-01   5.7378123e-01   3.9412966e-01  -9.5330822e-01   7.4456725e-01   9.3736160e-01   5.9426015e-01   1.7222665e-01  -8.4869998e-01  -6.7383738e-01  -7.5173241e-01   4.8684080e-01  -6.6243121e-01  -8.5401814e-01   9.8609578e-01  -8.8699885e-01   4.4031614e-01   6.2107984e-01  -1.9352949e-01   9.5124142e-01  -5.0423345e-01   6.8661435e-01  -2.2002962e-01   7.8256557e-01  -7.7154962e-01  -5.3871899e-01   7.8088060e-01   3.4601749e-01   7.2420848e-02   7.3085119e-01  -1.0740949e-01   1.2178244e-01  -1.5275648e-01   6.1064349e-01   2.6009020e-01  -5.2013671e-01  -5.5865250e-02   1.3432217e-01   4.6881194e-02   8.6531142e-01  -6.1959275e-01  -7.5082988e-01   7.1600794e-01  -6.5594881e-01   3.4108773e-01   1.4470642e-01   3.7095302e-01  -9.1932681e-01  -5.4177927e-01  -6.8393900e-01   7.1073065e-01  -5.5498749e-02   6.4194762e-02  -7.8660888e-01   6.9910714e-01   1.5136661e-01  -1.7887915e-01   9.6648911e-01   7.2455421e-01  -9.2915322e-01  -1.2369585e-01   5.0047125e-01  -1.5430082e-01  -7.6397990e-01  -1.0601414e-01  -6.8911124e-01  -9.4281990e-01   2.4948167e-01   3.2050633e-02  -3.6436241e-01  -4.2761168e-01  -6.0366234e-01   9.7380334e-01   3.8239179e-01  -1.0301652e-01   1.6532304e-01   6.5780929e-01  -4.8260798e-01   6.1550172e-01  -6.7109503e-01   4.7804136e-01  -7.9985294e-01   6.7981599e-01   8.4610574e-02  -2.1284294e-01  -6.3211360e-01   4.8645956e-01   8.2244162e-01  -1.9331458e-01  -9.0388310e-02   2.7412615e-01  -5.0681984e-02   8.4231177e-01   1.2797711e-01   3.4526580e-01  -6.7365634e-01  -6.1758418e-01  -3.5592917e-01  -7.3883073e-01   5.9039077e-01   3.9172409e-01   6.7907331e-01   4.6351738e-01  -9.3198836e-01   6.5537514e-01   3.1892929e-01  -5.5380254e-01  -5.4100117e-01   1.7724381e-01   2.5408377e-01  -6.7119987e-01  -3.2124548e-01   3.2550893e-01   3.1237162e-01  -8.0802070e-01   6.3964670e-01   5.0963026e-01  -1.0983787e-01  -2.0271043e-01   5.3900795e-01  -9.0123291e-01  -2.0382503e-01   6.5092223e-02   4.1282366e-01  -4.7707986e-02  -6.1975361e-01   9.5187469e-01  -5.1624599e-01   5.6754512e-01   6.7679071e-01  -8.1468713e-01   8.6810176e-01   2.0648860e-01  -9.3151360e-01   9.5119040e-01   5.4438529e-01   9.5645284e-01  -6.5284376e-01  -4.3779858e-01  -3.0775793e-01   1.3250930e-01  -3.0267261e-01   4.1600938e-01   2.9406113e-01   4.4826077e-02   9.3555128e-01   6.5631832e-01   9.0612479e-01   9.9903147e-01   3.3170188e-01  -4.2160755e-01   3.8183188e-02  -9.9237693e-01   7.1394407e-01   6.6932921e-02   5.6638925e-01  -3.4040176e-01  -5.0919442e-01  -6.4318155e-02  -5.4126333e-02  -4.0418131e-01   7.7168278e-01   4.8961267e-01   6.5337724e-01  -7.0868392e-01   5.1068017e-01  -9.9721668e-01  -2.9560398e-01  -3.3898469e-01   1.5120350e-01   6.9636575e-02  -8.8563812e-01  -9.8751253e-01  -7.9075885e-01  -8.5787047e-01   3.0881451e-01   5.2478640e-02  -7.2157424e-01   7.8576408e-01   5.2335955e-01  -5.4201997e-01   6.4706806e-01   4.3929561e-01  -4.6799699e-01   8.3603987e-02   6.2841889e-01   7.7258714e-01  -5.8353386e-01   6.0321800e-01   4.2367589e-01  -3.6866406e-01  -3.4496882e-01  -7.2376686e-01  -4.5038463e-01   3.2015567e-01   5.1112350e-01  -7.2107860e-01   5.1200801e-01  -3.8054616e-01   4.6176822e-01  -9.0849416e-01   6.5770389e-01  -8.7125622e-01   6.2355017e-01  -4.4868290e-01  -7.0401227e-01   3.5464064e-01  -3.8319722e-01   7.1010695e-01  -3.1977078e-01   9.9054452e-01   2.3084000e-01  -3.8359617e-01  -1.8031357e-01   9.9624873e-01   6.9494914e-01   5.2011225e-01  -8.5761963e-01  -1.6457268e-01  -1.5209382e-01   1.8643061e-01   3.9567594e-02  -6.5625776e-01  -8.8300286e-01   8.1293407e-01   9.5161707e-01   9.8226504e-01   3.5734649e-02   2.8724796e-01  -5.1976315e-02   3.1682145e-01  -4.7089589e-01   8.0090323e-01   3.2936518e-01  -5.7791888e-01  -6.5434507e-01   7.6004511e-01  -1.8334597e-01   5.3211277e-01  -8.6077125e-01   7.8110425e-01   1.9176876e-01   8.1905159e-02  -4.7616353e-01   5.0614827e-01  -8.1904640e-01  -1.8538472e-01  -8.8414133e-01   1.6746187e-01   9.9059280e-01  -1.7789989e-01   5.9991088e-01  -7.3491629e-01   3.4257951e-01  -4.5880924e-01   7.2012901e-01   3.0385809e-01  -7.9278915e-01   5.5873494e-01   7.2363162e-01   9.9689564e-01  -2.9109126e-01   5.4580048e-01   2.6418030e-01  -2.7478281e-01  -7.2080279e-01  -7.3191309e-01  -3.3916372e-01  -4.5113517e-01  -3.3167460e-01   9.9459164e-01   9.1737418e-01  -5.4253762e-01   8.9082216e-01  -1.1289563e-01  -3.8956926e-01   8.6138478e-01   2.8879364e-02  -9.1340020e-01  -8.5620708e-01   6.5865255e-01  -9.2080099e-02   7.5398195e-01  -5.3707872e-01  -8.0878515e-01  -4.3086144e-01  -5.0935097e-01  -5.1890642e-01   6.0228513e-01  -4.6123563e-01   2.4865093e-02  -8.3098915e-01   2.9325972e-01  -1.7133156e-01  -9.7716899e-01  -7.1263294e-01   7.9162844e-01   4.4280691e-01  -1.5471301e-01  -4.9634135e-01   2.2869185e-01   5.2774378e-01  -4.9436916e-01   3.7345610e-01   6.2230221e-01   1.4417358e-01   5.9527207e-02   3.8955183e-02  -7.1278256e-01  -8.4271248e-01   9.3440305e-01   6.3558118e-01   3.1273316e-01  -9.7942246e-01   7.1270340e-01   6.5392343e-01  -7.6457955e-01  -3.6339260e-01  -6.5296455e-01   5.8549442e-01  -9.1353062e-02   9.0731796e-01  -6.3711684e-01  -8.2289127e-01   2.7335722e-01   5.5094987e-01  -4.2463270e-01  -5.0691443e-01  -5.4571349e-01  -1.2726829e-01   3.8053446e-01   5.6212102e-01  -3.3898607e-01   1.5104829e-01   3.4945858e-01  -7.1035913e-01  -7.4514589e-01   5.8108084e-01   3.1765684e-01   9.6146761e-01  -9.3185901e-01  -6.2589893e-01  -7.9225845e-01  -5.5907809e-01  -8.5316875e-01  -2.7149309e-01  -9.2030441e-02   9.9017199e-01   4.9636483e-01   9.4917673e-02  -1.8851739e-01  -8.4763748e-01  -2.0236058e-01   6.8876177e-02  -7.2069045e-01  -9.9893255e-01   1.4361619e-01   9.2789482e-01   2.0563362e-01   7.5838100e-01  -1.8684577e-01   2.8182638e-01  -4.5577878e-02   4.3552942e-01   8.6913207e-01  -9.9017959e-01   9.8978552e-01  -9.0740792e-01  -3.3421268e-01   1.8585609e-01  -9.4632919e-01  -4.2530439e-01  -1.5439304e-01  -3.6896330e-02   2.2057706e-01   2.1260555e-01   4.8256220e-01  -7.4862161e-02   5.2931881e-01  -4.3918808e-01  -6.2838243e-02   7.6543059e-01  -6.5224340e-01   7.0962011e-01   6.6552299e-01  -1.1957461e-01   9.1096725e-01   4.5871643e-01  -2.0250263e-01   8.2842796e-01  -4.2277348e-01  -7.0844510e-02   5.4014564e-01   7.6941257e-01  -1.9653565e-01  -1.4499335e-01  -4.2745200e-01  -9.3721983e-01   3.8265680e-02  -8.8607962e-01   7.1081124e-01   7.7165281e-01   7.5340157e-01  -3.6387643e-01  -9.7230151e-01   2.1802856e-01   3.9692940e-01  -7.4603869e-01  -5.8838552e-01  -1.9290728e-01   2.4488728e-01  -6.2427466e-01   6.8993727e-02   8.8553871e-01  -9.7129868e-01   6.4903827e-01  -2.6326946e-01   3.2037510e-01  -2.3649593e-01   7.1972847e-01  -1.8460332e-01   2.2241040e-02  -1.2118556e-01  -8.3942632e-01  -1.0502821e-01   2.0135348e-01   6.7105313e-01  -5.3703948e-01   9.3925781e-01  -4.7353411e-01   1.3763811e-01  -1.7150496e-01  -7.5964126e-02   9.6204620e-01   5.8249509e-01  -5.9526073e-01  -4.8907188e-01   4.7543674e-01   2.5518886e-01   1.2249961e-02   4.3907461e-02   3.5882975e-01  -3.6368119e-01  -8.8303594e-02  -1.4108294e-01   1.0106738e-01   4.9032260e-01  -7.7602504e-01  -1.8474628e-01   9.9881292e-01   8.2443252e-01   1.1331724e-02   6.3557313e-01  -5.8595089e-01   6.0227532e-02   8.9366911e-03  -4.7715863e-01  -6.0560385e-01  -7.8894023e-01  -4.5551307e-02   6.5366346e-01  -2.8148797e-01  -4.5662921e-01  -8.2831163e-01   2.0602026e-01  -1.7429972e-01  -1.7444539e-01   5.0147717e-01  -4.6461219e-01   7.8768047e-01   6.9711029e-02   6.9643819e-02  -3.4157471e-01   6.8777765e-01  -6.0413373e-02   8.2932143e-01   2.5400626e-01   5.1442332e-02  -8.0085727e-01  -2.6147361e-01   3.9392056e-01   3.3495638e-01  -8.5355624e-01  -4.4834687e-01  -4.9935648e-01  -7.2179012e-01  -5.5219700e-01  -2.0202810e-01   1.2075034e-01   2.6553563e-01   3.9821974e-01  -4.0141002e-01   1.4855282e-01  -6.5306218e-01   8.0761528e-01   3.8338232e-01   9.3343235e-01   5.0777110e-01  -3.6441040e-01   5.3201603e-01  -9.5511531e-01  -4.9758313e-01  -7.7683583e-01  -9.9361860e-01   7.3693803e-01   7.7306172e-01  -3.8822109e-01   5.4727515e-01   9.5227283e-01   7.1453030e-01  -5.3844512e-01   2.9878939e-01   7.5010583e-01  -9.6186923e-01  -1.3550016e-01   2.8574573e-01  -1.0242758e-01  -2.8484099e-01  -8.9852995e-01   6.4478051e-01  -4.0352337e-01   2.3958857e-02   5.0795046e-01   6.5070342e-02  -6.2902799e-02  -8.9120469e-01  -7.2319597e-01  -2.9754696e-02   8.0629860e-01  -5.5628029e-01  -4.3504057e-01   2.6187053e-01   9.9051266e-01   9.0287794e-01   6.2308662e-01  -8.6695700e-01  -5.5116574e-01   6.4461173e-01   3.9826080e-02   3.4331442e-01   4.0538109e-01   7.2719624e-01  -6.5317039e-01   3.0180478e-01  -3.9198358e-01  -4.9901231e-01  -8.1979187e-01  -6.5283281e-01   7.6074501e-01   6.8249413e-01   4.5900288e-01   2.7937213e-01   5.0096615e-02   6.2677780e-01  -8.2377531e-01   4.1136897e-02   3.8067522e-02  -8.9650716e-01  -6.4098004e-01   7.6683378e-01  -7.2103898e-01  -6.5093671e-01   5.1862514e-01  -5.4770577e-01  -3.2369153e-01  -3.1844814e-01  -5.2126049e-02  -8.9291655e-02   4.9447433e-01  -1.0172634e-01   8.7998944e-01  -8.8456918e-01   6.3390433e-01   8.5687322e-02  -6.3905490e-01   7.0676198e-01  -3.4293576e-01  -3.3173010e-01   1.0985301e-01  -2.0256026e-01   8.7625594e-01  -4.1601858e-01   1.6744894e-01  -1.8097478e-01   4.2450988e-01  -5.5477588e-01  -7.1506246e-01  -9.3580997e-01  -8.5567162e-01   6.7062923e-01   6.8631171e-01  -7.2521152e-02   8.4893163e-01  -9.0239655e-01  -5.5088046e-02   9.9338603e-01   6.8122928e-01  -2.0546929e-01   3.0003804e-01  -6.2963122e-01  -4.5342495e-01   8.4496169e-01  -4.7675894e-01   3.1166831e-01   8.3478920e-01  -5.5618153e-01  -6.6565061e-01  -4.4275403e-01   7.3390276e-01   8.8424082e-01   1.1576396e-01   2.2305750e-02   3.9375273e-01  -5.5968622e-01  -4.9702866e-01  -3.8005781e-01  -7.1296603e-01   2.8007750e-01  -8.0922629e-01   3.1652102e-01  -8.9512212e-01   7.9122163e-01   3.9396234e-01   5.4949830e-01   9.5190952e-01   9.3725192e-01   1.7812492e-02   1.7239733e-01  -8.1977618e-01  -7.9500435e-01  -9.1106746e-01  -7.5302454e-01  -7.5270925e-01   1.5296200e-01   4.3490263e-01  -1.8657424e-01  -6.4757183e-01   6.5986419e-01  -8.2780463e-01  -3.1873131e-01  -8.5343279e-01  -4.6267975e-01  -2.7402077e-01   6.4621165e-01   4.7490443e-01  -2.0246802e-01  -5.0425043e-01  -8.9807042e-01   6.3870494e-02   9.4347129e-01   4.9263100e-01  -9.4153392e-03  -2.7286882e-01  -4.7039409e-01  -1.9806642e-01  -5.8915352e-01   7.2935529e-01   7.1565945e-01   8.7461950e-03   8.3016702e-01  -4.3508115e-01   4.2750334e-01  -6.6544135e-03  -6.0430634e-01   7.2493696e-01   3.5701395e-01  -9.1840478e-01  -4.1573828e-01   1.9408569e-01   5.7010522e-01   1.1647758e-01   9.6596381e-01   2.5623725e-01   8.0212884e-01   9.5575464e-02  -8.1003580e-01   2.9326394e-01   2.9604392e-01   4.4665710e-01   9.9058791e-01  -4.5429545e-01  -8.9097875e-01   4.6649470e-01   7.8499181e-01   9.0437149e-01   6.2342333e-02  -7.9532687e-01   4.6422986e-01  -9.4031898e-01   4.1577392e-01  -8.7645731e-01   3.6204550e-02   1.6332210e-01  -8.6476286e-01  -3.8241594e-01   3.0937924e-01  -6.7661484e-01  -8.2109038e-01  -5.1322264e-01  -4.1092476e-01   3.6767856e-01   6.8342769e-01  -8.1334872e-01   1.1645080e-01   2.5399128e-01  -3.0064970e-01   5.7665673e-02   3.3264870e-01  -7.3917525e-01  -9.9785188e-01  -5.0791243e-01  -8.8342670e-01   2.0831745e-01   4.4400842e-02   3.4408111e-01   3.7222977e-01  -9.5319245e-01  -2.7287575e-01  -5.9373162e-01   9.4188148e-01   2.2388806e-02  -7.9602443e-01  -4.5463322e-01   7.3709047e-01   1.1009732e-03  -3.8912701e-01   9.1077111e-01  -4.6344189e-02   2.0632253e-01   1.4518969e-01  -8.3497839e-01  -4.5773330e-01   5.5363036e-01  -4.2451674e-02   4.8920462e-01  -6.7126857e-02  -5.1405207e-01  -9.4814021e-01  -7.6059742e-01   3.7791109e-01   6.0202881e-01   6.0545091e-01   6.3144609e-01  -1.8086684e-01  -5.4638404e-01  -6.6085746e-01  -3.8974543e-01   4.6564876e-01   8.9964783e-01   2.6476004e-01  -5.2383032e-01   1.3423867e-01   9.1446309e-01   8.6976096e-01   8.2298472e-01   1.7042390e-01   6.7676959e-01   2.4201403e-01  -2.4452321e-01   7.5452284e-01  -7.5655816e-01   5.2918111e-01   1.2725515e-01  -2.6560341e-01   9.7926434e-01   4.9816834e-01   5.0798778e-01   9.5040896e-02   6.2822048e-01   7.8833337e-01   1.0569403e-02   9.1556096e-01  -7.1782382e-02  -7.1271579e-01   4.8521754e-01   3.3803659e-02  -9.7306938e-01  -7.4926423e-02   9.0913198e-01   8.6125424e-01   4.4343314e-01   3.1374279e-02   4.8131371e-01   5.7136442e-01   8.7171642e-01  -4.7442791e-01  -1.6870460e-01  -2.7793285e-01   9.0300310e-01  -4.0847047e-01   8.0237313e-01   7.2901670e-01  -9.9349859e-01  -2.4432374e-01  -3.5234510e-02  -3.0147654e-01   4.1078587e-01  -4.1290809e-01   2.7458288e-01   4.9263881e-01  -5.2671993e-01   9.8201470e-01  -9.0382432e-01  -4.6751539e-01  -4.9011882e-01   3.4995090e-03  -3.2022916e-01  -9.4659814e-01  -8.9563429e-01  -2.3196504e-03   4.3106624e-01  -5.2303635e-01  -7.9609407e-02   4.6717896e-01  -3.6339758e-01  -5.5078232e-01   8.6755724e-01  -5.1764461e-01  -8.0341521e-01  -8.5240207e-01  -2.5407199e-01   9.8213069e-01   4.2439428e-01  -5.0580243e-01   1.5190846e-01   9.6664756e-01   5.2937766e-01  -8.3862223e-01  -4.8626934e-01   9.9895093e-01  -3.0349333e-01  -2.5557496e-01  -6.6675000e-01   9.1083681e-01   8.8699580e-01  -6.1744988e-01   5.4977244e-02   8.8880263e-02  -3.2204512e-01  -2.8531067e-01   2.6036536e-01  -9.4918917e-01   5.1302838e-01   9.2198916e-01   2.5816988e-01   5.8903582e-01  -9.8493669e-01  -1.4249416e-01  -1.7782887e-01  -3.9628502e-01   1.2935301e-01   2.8081949e-02  -8.1841399e-01   4.3607404e-01   1.5249329e-01  -9.4639822e-01  -3.0250221e-01  -3.5792917e-01  -2.9317254e-01   1.2025021e-01   9.7233501e-01   6.6933990e-01  -9.3272734e-01   2.1018560e-01   7.3315235e-01   2.4204064e-01   6.2304093e-01   1.4188342e-01   5.6979946e-01   3.9086239e-02   2.0570207e-01   2.7790257e-01   2.8640015e-01  -5.2034482e-01   3.2083458e-02   5.1425845e-01  -9.9206247e-02   6.6743089e-01   9.9062755e-01  -8.0442174e-01   3.3694067e-01   4.7681300e-01  -6.6668086e-01   4.6581366e-02  -1.4292313e-01  -7.3017981e-01   5.9429605e-01   2.9448084e-01  -9.0814050e-01   1.5902221e-01  -7.7471570e-01   2.5974202e-02   6.6673204e-01   2.9179680e-01  -4.6485333e-01  -4.6273517e-01   5.4411780e-01   5.6162842e-01   1.2740526e-01  -9.0214602e-01  -2.4556914e-01   2.4543450e-01   2.4520826e-01   5.3929152e-03   5.5523442e-01   9.3665971e-01   8.9335330e-01  -8.4436865e-01  -8.1172601e-01   5.5654857e-02   5.1873172e-02  -6.1529652e-01  -3.5319219e-01  -3.6763029e-01   9.2156927e-01   9.0472522e-01  -3.2053122e-01   9.3599246e-01  -7.7558819e-01  -2.8823580e-02  -7.0570868e-01
  -7.6177545e-01  -8.5506992e-01   6.8629248e-01   6.2568621e-01  -8.8795448e-01  -4.8332995e-02   4.1208540e-01  -3.7237786e-01  -3.3344621e-01  -5.2482702e-01   8.0730782e-01   7.4729188e-01   3.2987027e-01   9.3050830e-01  -8.4715471e-01  -4.9297528e-01   4.8949092e-01   6.8436478e-01  -6.1363448e-01  -6.5485031e-02  -9.3922147e-01   6.4318929e-01  -2.4791578e-01   4.8935429e-01   7.2253186e-01  -4.3237615e-01  -7.5851961e-01   6.9365299e-01   3.9395968e-01   8.3760322e-01   3.6883474e-01   9.3957942e-01   6.6886684e-01  -9.0411935e-02  -7.8191728e-01  -1.1565523e-01   7.3183513e-01  -9.5510233e-01  -9.5229867e-01   9.7409056e-01  -5.8562496e-01  -7.5636155e-01   2.3677198e-01  -5.7856467e-01  -1.4316203e-01   8.4214445e-01   5.9524516e-01  -3.5782365e-01  -5.3005164e-01   3.3221066e-01   9.5801597e-01   9.8466266e-01   1.9597730e-01   3.5491192e-01  -2.8196066e-01  -8.7313812e-01  -7.0988335e-01  -9.2022965e-01   1.1104738e-01  -1.9692328e-01  -9.1509803e-02   4.2520411e-01   1.0607110e-01  -2.0598888e-01  -4.9442396e-01   5.6552072e-01  -3.9966365e-02  -1.3004967e-01  -9.9529036e-01   6.5619626e-02   9.0307964e-01   2.5929741e-01   6.4786867e-01  -6.4510813e-01   3.9975293e-01   8.9420622e-01   8.7065178e-02  -2.5063003e-01  -5.1493532e-01   1.7455645e-01   1.5343435e-01  -8.7747667e-01   7.0871043e-01  -9.4316533e-01   1.4233680e-01  -5.2796967e-01  -2.6906056e-01  -8.4424009e-01   8.8408752e-01   4.5954057e-02  -7.5298218e-02  -1.9279664e-01  -9.0518845e-01   6.7981572e-01  -5.8672181e-01   7.6369447e-01   8.6038969e-01   7.5535865e-01  -5.5417796e-01  -9.0368674e-01  -8.4592116e-01   5.1531293e-01  -1.4663277e-01  -9.9910386e-01  -4.8843995e-01  -5.5215486e-01   2.2701038e-01   3.6989145e-01  -9.8524607e-01  -2.0247690e-01  -7.2977873e-01  -7.5121598e-01   2.4344464e-01   5.3125743e-02  -2.7773806e-01  -9.4699555e-01  -3.6882905e-01   8.0076847e-01   8.4162529e-01  -6.6957749e-01  -6.0117745e-01  -9.2154488e-01   7.7016846e-01  -8.1316916e-01   6.6524017e-01   8.4000153e-01  -2.6260028e-02  -1.2762795e-01   8.3176398e-01  -8.8446177e-01   3.5405722e-01  -2.5245109e-01  -9.9645213e-01   7.7382121e-01   8.1048487e-02  -2.4934220e-01   6.2537665e-01  -2.8004894e-01  -8.5160031e-01  -6.2811831e-01   5.2069689e-01  -1.6738640e-01  -2.3371839e-02   8.9844726e-01   8.6243778e-01   2.5878965e-01  -6.9174762e-01  -7.5614778e-01   8.1546308e-03   4.4455661e-01  -7.6517949e-01   5.6805511e-01   8.3199784e-02   1.9010598e-01   7.9343374e-02   3.6120709e-01   2.6465929e-01   1.7514562e-01  -3.4737549e-01  -7.6552764e-01  -2.4744909e-01   2.4191101e-01  -5.9113746e-01  -3.4306487e-02  -9.0964147e-01   5.6077367e-01   5.1407709e-01   8.0750632e-01  -5.9548419e-01  -2.2533520e-01  -6.2681420e-01   8.0653516e-01   6.6934749e-01  -9.7615445e-01  -1.7002507e-01  -6.9893728e-01   2.1389500e-01   3.8028468e-01   4.9209448e-01  -6.7012366e-01  -7.9768166e-01  -3.3175966e-01   4.2393323e-01  -4.9205755e-01  -3.9223200e-01  -2.0793637e-01  -1.2379986e-01  -2.6726508e-02  -7.4702033e-01   5.7265939e-01   2.4269435e-01  -3.1925028e-01  -1.3652735e-01   9.6251211e-01   3.2003011e-01  -4.0093639e-01   6.0491683e-01  -1.0629734e-01  -9.8528625e-01   5.1606890e-01  -6.6224917e-02  -3.5773222e-01  -6.6156874e-01   4.1621604e-01   6.2457727e-01   3.6501640e-01  -8.4195242e-01  -3.6374074e-01  -2.2312354e-02   1.3677783e-01   8.9673256e-01  -5.6181195e-01   9.2552976e-01   9.0606409e-01   8.0333266e-01   5.0241761e-01  -9.9802497e-01   6.7415616e-01   9.3707707e-01  -1.1200778e-01  -1.6318119e-01  -5.5880101e-01  -8.1213987e-01   4.0405674e-01  -6.5686832e-02  -6.8689262e-01   8.4673923e-01   8.6411589e-01   3.4658423e-01   6.4649708e-01  -4.2048718e-01   1.7263935e-01  -2.2206445e-01  -3.3411664e-02  -1.2513657e-01  -7.6909103e-01   1.9242703e-01  -8.2665901e-01  -5.4585042e-01  -2.2876654e-01   3.4805981e-01  -9.8280162e-01  -9.7976681e-01   6.3340608e-01   2.3439644e-01   3.8469082e-01   1.8119970e-01  -4.7195721e-01  -6.0568835e-02  -1.4680809e-01   7.5763741e-01  -3.0273421e-01   3.6786377e-01  -5.3722636e-01   9.2220278e-01  -9.6962936e-01  -1.3288306e-02  -2.5619632e-02  -8.6891678e-01  -3.1637431e-01  -3.3566095e-01   5.3730408e-01  -7.8222172e-02   6.1587995e-01   6.1475900e-02  -4.7510612e-01  -6.9954905e-01   9.3415319e-01   6.3602314e-01   5.9095706e-01   2.4004717e-01   1.6374709e-01  -8.0526764e-01   3.2044131e-01   3.0572071e-01  -7.7496206e-02   9.8617434e-01  -3.1062752e-01   3.3299059e-01   6.2351422e-01   2.9135607e-01  -7.0508830e-01   8.8650564e-01  -4.2829858e-01   6.9945828e-01  -6.4137310e-01   1.4062329e-01   7.4674077e-01  -3.4682866e-02   2.9532304e-01   4.5712376e-01   5.1712065e-01   9.3933094e-01  -8.2756591e-01  -5.5846517e-01  -1.7294819e-01  -3.6678411e-01  -1.4133897e-01  -6.1697107e-01   3.4050855e-02   3.4821905e-03  -1.5874588e-01  -7.8764867e-01   3.1026607e-01  -5.2905593e-01  -7.1856556e-01  -2.1879739e-01   7.0378380e-01  -7.3184330e-01  -1.2163539e-01  -4.4666194e-01  -7.2813996e-01   1.4084584e-01  -3.8759750e-01   5.0298194e-01   5.6303401e-01   8.8993953e-01   2.8452650e-01  -5.3764473e-02   3.8028614e-01   7.0002784e-01  -8.6570330e-01   2.7915022e-01  -9.5587544e-01   1.2898274e-01   7.7215484e-01  -4.0800641e-01  -2.3725037e-01   5.6346175e-01   6.8447549e-02  -6.9337973e-01  -2.6233893e-01   9.3257391e-01   7.0047292e-01  -2.6249789e-01   1.4742078e-02  -3.5706490e-01  -9.4783851e-01  -8.4104176e-01   9.6705002e-01  -6.1902069e-01  -6.5227275e-01  -3.5208252e-01  -2.1584967e-01  -9.7993183e-02   1.4184721e-01  -8.7022091e-01   5.8105639e-01   8.0456881e-01  -4.3709837e-01  -1.6222017e-01  -7.0973258e-01  -4.9783892e-01  -1.1590231e-01  -1.9165934e-02   7.3076996e-01   6.8222816e-02   8.8982749e-01   2.6263732e-02  -5.4659197e-01   9.5500382e-01  -3.9370483e-01   5.9927343e-01   6.5756013e-01  -1.0748395e-01   8.1003415e-01  -8.1610361e-01  -5.1379336e-01   7.5555033e-01  -5.3435296e-01  -3.6443481e-01  -2.0002472e-01   5.3681909e-01  -7.7215902e-01  -9.5958459e-01  -8.5623164e-01  -5.5451187e-01   8.1317682e-01  -8.8374755e-01  -5.5060451e-01  -3.0824103e-01   6.6806600e-01   9.8276400e-01   5.5555552e-01   5.6605859e-01   9.4804088e-01  -8.8286526e-01   8.2084237e-01   1.9424414e-01   2.3551516e-01  -5.2286391e-01  -7.8166022e-01  -8.8661953e-02  -7.7481809e-03  -9.6326888e-01   5.6032193e-01  -6.3282708e-01  -3.6975173e-01   3.4706800e-01   9.8635135e-01  -4.2140890e-01  -7.1007057e-01   8.5158904e-01   7.6557448e-02  -6.0262651e-01  -8.4483532e-01   5.7647475e-01   6.7350145e-01  -6.8255052e-01   7.2935662e-01   1.3361839e-01  -8.9292169e-01   6.0348335e-01   7.6511730e-01   1.4035803e-01  -4.0034335e-01  -9.3597656e-01  -5.3410884e-03   5.9758932e-01   7.0182109e-01   1.7266834e-01  -2.5991108e-01  -1.8673705e-01   5.6911824e-01   8.2256007e-01   5.9207850e-01   9.1570553e-01  -6.2162996e-01   3.8986985e-01  -6.0592287e-01   9.7610361e-01   1.0890553e-01   2.8543042e-01  -4.1394283e-01   6.3112109e-01  -9.3873612e-01   9.6300217e-01  -5.1808855e-01  -8.3111687e-01   4.7647842e-01   7.2009097e-01   3.0643054e-01   5.9334534e-01  -6.5383506e-01   2.1038518e-01   4.7916382e-01  -2.0699043e-01   6.1725013e-01  -9.6253250e-01  -8.5922970e-01  -9.9251918e-02   2.6371641e-01  -3.9938351e-01   4.8067445e-01  -8.4647398e-01  -2.4384997e-01   9.8026180e-01  -8.3437839e-01  -4.9781088e-01   9.9750757e-01   2.6305471e-01   6.8214661e-01   3.0057414e-01  -3.7903201e-01  -9.8121494e-01   8.6636162e-01  -4.9901202e-01  -6.2545441e-01  -4.2259598e-01   1.5962714e-01  -8.1288499e-01  -5.4036604e-01   1.3742170e-01   3.0117882e-01  -1.1639404e-01  -1.0870831e-01   8.1987867e-02   4.6036370e-01  -6.6222883e-01   7.3687701e-01  -5.0456763e-01   1.4571095e-01  -9.0842581e-01  -2.0598384e-01   3.5848995e-01   9.6048667e-01  -7.9232625e-01  -2.1091629e-01  -9.3841321e-01  -5.0439112e-02  -3.1078889e-01  -1.8198338e-01  -6.2781538e-03   4.4561333e-01  -5.8556833e-01   2.9735860e-01  -4.4116304e-02   7.4742447e-01  -6.4894905e-01  -5.3444958e-01   9.8517867e-01   8.3674013e-01  -8.2838929e-01   7.6657442e-01   3.3843583e-01  -3.0045488e-01   7.3410370e-01   1.5341840e-01   4.9203048e-01   8.0396414e-01  -8.7062842e-01  -4.0291926e-01  -4.5720493e-01   3.4177045e-01  -8.8492902e-03  -9.5710473e-02   9.8192787e-01   1.1765539e-01   9.7066258e-01   6.6534817e-02  -6.6745188e-01   5.5313131e-01  -3.8668337e-02  -9.5725915e-01  -3.7240664e-01  -8.2878267e-01   5.7687335e-01  -5.9652855e-01   6.7943356e-01   9.9191499e-01   7.0754041e-01   3.8788262e-01  -4.5857861e-01   8.5063595e-01  -3.8972260e-01  -4.7790658e-01  -3.4751618e-01   8.8988139e-01  -8.0808819e-01   5.0607509e-01  -8.7949197e-01   2.6036278e-01  -4.4279340e-01  -6.7823330e-01   2.9617938e-01  -1.0630228e-01  -6.8882045e-01  -7.7911645e-01  -3.2709597e-01  -9.1077764e-01   9.8796733e-01   7.2744269e-01   8.2490066e-01   7.4658765e-01   2.0708864e-01   4.8980560e-01  -7.0434975e-01   9.6137281e-01  -4.3762809e-01   8.8943669e-01  -7.2564218e-01   4.6318090e-01  -8.1572271e-01  -8.2535993e-01  -7.6104301e-01   5.0320622e-01  -3.4759611e-01  -9.2810629e-01   3.3874046e-01   1.4745486e-01  -1.2813614e-01   5.4206084e-01   8.8367526e-01  -5.4692854e-01   5.2209583e-01   7.6744730e-01  -1.5958212e-01  -2.8848085e-01  -4.4890344e-01  -4.4547851e-01  -3.8451736e-01   6.4647536e-01   8.4798835e-03  -6.8112297e-01   7.6992570e-01   9.4183561e-01  -3.0743422e-01  -3.7439519e-01   7.3198568e-01  -6.8138326e-01   2.3831205e-01  -4.4707752e-01   4.3872809e-01   8.5855402e-01  -1.5052956e-01   9.5435357e-01  -5.6314516e-01   2.0414401e-01   4.5559630e-01  -7.3606419e-01  -9.7369508e-01   6.5460730e-01   5.2541917e-01  -2.4657916e-01  -9.9233141e-01   8.7898995e-01   1.5880811e-01   1.2419918e-01   2.1180702e-01  -8.7610754e-01   8.7595157e-01  -8.6127372e-01   6.7263521e-01  -8.5738921e-01   7.7181507e-01  -5.2980075e-02   2.7484273e-01  -5.0328168e-02  -7.5224900e-01  -5.3482779e-01   5.1560309e-01   3.0623377e-01   5.5210269e-01  -4.9715982e-01  -8.2478111e-02  -7.2051937e-01   7.2655968e-01  -2.7320820e-01   9.6563019e-02   2.9278515e-01  -5.3778145e-01   4.3322210e-01  -2.3402506e-02  -7.9375034e-01  -2.5513720e-01  -8.0092400e-01  -3.5019566e-01   3.0790822e-01  -3.3314092e-01  -9.0630006e-01  -9.0809517e-01   1.4020729e-01  -9.2859465e-01   4.0493384e-02  -8.1831263e-01  -4.8534607e-01  -6.2084287e-01  -5.9369007e-02   6.5853462e-01  -9.9298964e-01   2.4119516e-01   2.1485580e-01   3.5452608e-01  -4.7202128e-01  -2.3461731e-01  -8.4981400e-01   2.5734844e-01  -1.7079588e-01  -6.6498048e-01  -5.1568173e-01  -3.2682467e-01   6.2892479e-01   4.5952129e-01  -5.8095670e-01   2.4526239e-02  -8.3366538e-01   1.1360605e-01  -2.0195050e-01   5.2359148e-01  -5.3066386e-01   8.5217656e-01   4.9813508e-01  -1.5854794e-01  -4.5763944e-01  -4.5721495e-01  -5.6331389e-01   7.7511922e-01  -4.9170511e-01   6.4746081e-01   5.7577039e-01  -9.5230181e-01  -1.5097377e-01   6.0263000e-01  -6.8384310e-01  -1.0184766e-01  -5.2999371e-01   2.8833582e-01  -9.7967234e-01  -4.7752801e-01   9.8058171e-01   1.9113422e-01  -4.2236412e-01  -4.0133968e-01   4.5951312e-01  -6.0872064e-01  -8.6648994e-01   3.5171379e-01  -1.5035580e-01  -1.7291687e-01   2.9755612e-01  -7.7192959e-01   9.1494459e-02  -2.5839251e-01   6.0796056e-01   6.8261198e-02  -5.4728531e-01   4.9103626e-02   7.5022794e-01  -7.4638427e-01   1.6849204e-01  -3.1077183e-01   7.3587421e-01   3.3037026e-01  -2.0105125e-01   9.8888986e-01  -2.9719892e-02   9.0178486e-01   6.0004541e-01   1.1554315e-01   3.3722865e-01   4.4517061e-01   8.6528744e-01  -6.4226453e-01  -9.2320561e-01  -8.1677408e-01   3.0035724e-01   9.6292007e-02   2.6812636e-01  -9.2467708e-01  -5.9847355e-01  -4.9665769e-01  -8.5920232e-01   5.6915732e-01   3.1754714e-01   1.4804686e-01  -9.1374949e-01   7.2515612e-02   5.8115512e-01  -1.7673789e-01  -9.0519232e-01   2.6833714e-01   1.7867155e-01   8.1253793e-01  -7.7778195e-01   7.7806551e-02   3.3517969e-01  -9.7031264e-01   5.7681005e-02   2.6529397e-01   2.2146951e-01  -1.9630510e-01  -9.7418993e-01  -2.7710790e-01   8.9660049e-03  -1.3563994e-01   8.9886330e-01  -1.1067172e-01   8.0217831e-01  -8.7289076e-01   8.5799386e-01  -5.0099633e-01   9.1401463e-01   4.7596912e-01  -8.5597229e-01   8.8021390e-01   3.1811428e-01  -6.8883258e-01   6.7451226e-01   4.6905046e-01  -5.9380033e-01   6.2068065e-01   4.2763794e-01   7.8723605e-01  -1.5965681e-01  -4.5091107e-01  -9.6956642e-01  -3.0033765e-02   3.2622734e-01   7.4443152e-01   9.5344856e-01  -2.6650494e-01  -4.3394056e-01  -3.5431781e-01  -6.1212865e-01  -5.0517379e-01  -2.7405941e-01  -9.0643179e-01   2.6121339e-01  -1.1086297e-01  -1.8950250e-01   8.6244373e-01   7.9253294e-01   7.8891682e-01  -1.7251428e-01   3.6239738e-01  -6.2135301e-01  -3.9284437e-01   9.3331868e-01   2.5875854e-01  -5.6852593e-01   9.0204978e-01   9.7107031e-01   3.0041432e-02   9.2720752e-01  -1.5723344e-01  -1.7078403e-01  -2.9260233e-01  -2.2937759e-01   8.2175229e-01  -5.4928704e-01  -1.7327068e-01  -2.0510640e-02  -3.6478559e-01   6.8748207e-01  -2.1109646e-01  -6.2797904e-02   8.4539299e-01  -1.9826971e-01   8.0866982e-01   9.9855093e-01  -9.8088931e-01  -5.2368649e-01   1.1895976e-02  -5.0304387e-01   1.7397201e-01   6.9259743e-01   5.8431876e-01   7.6066108e-01   4.4160906e-01  -1.4850274e-01   3.0369793e-01  -7.3643022e-01   1.2155468e-02  -4.8536746e-01  -9.4277728e-01   8.7421625e-01  -6.2442703e-01  -8.4865249e-01   3.3260945e-02  -1.0759550e-01  -2.2331071e-01   8.1375130e-01  -4.4854430e-01   7.1611139e-01   4.4651229e-01  -3.4080791e-01  -2.0821654e-01  -5.7269056e-02   5.5785108e-01   9.2618078e-01  -6.6499880e-01  -2.5762933e-01  -6.3318700e-01  -6.3093997e-01  -5.4734675e-01  -2.8796980e-01   6.4629444e-01  -6.0243848e-02  -7.1329055e-01  -6.5076362e-02   9.4091301e-01   9.7957391e-01   1.1485258e-01  -5.9961651e-02   9.3219252e-01   7.2437986e-01  -1.8767542e-01   9.5822165e-01  -2.2434231e-01  -4.9916674e-01  -1.5027635e-01   3.7341605e-01   5.7714169e-01  -4.3079430e-02   1.3805997e-01   7.0863607e-01   5.1689058e-01  -7.7840299e-01  -8.4972998e-01  -4.5333377e-01  -8.4108453e-01   6.1201626e-01  -1.2918966e-01   4.0624162e-01  -9.3412466e-01  -3.6198840e-01  -1.6935071e-01  -2.8749668e-01  -8.6954955e-02  -3.8945518e-02  -8.2041664e-01  -8.5675646e-02   2.6348643e-01   1.1909819e-01  -4.7251559e-01   8.0306267e-01   6.0081920e-01  -6.1941395e-01  -9.2831163e-01  -7.5526499e-01   3.2375505e-01   6.2506543e-02  -1.5683095e-01   6.0111524e-01  -4.7825604e-01  -7.6524955e-01  -9.7618327e-01  -5.9766804e-01   1.5206492e-01   2.9811123e-01   8.7574623e-01  -3.7432710e-01  -7.9151755e-01  -5.3014442e-01   9.0636806e-01   1.6935339e-01   9.3480615e-01  -5.0626143e-01   5.9157115e-01   7.7869112e-01   6.8016395e-01   8.8166358e-01   9.2826499e-01  -1.8643357e-02   9.6713587e-01  -8.5702431e-01   7.2151372e-02  -7.8604613e-01  -8.1408579e-01   2.0150512e-01  -2.7852279e-01   2.7107925e-01   4.8354545e-01  -6.3295914e-01   7.0631992e-01   3.8411968e-01  -9.7295489e-02   2.8309413e-01   9.8808737e-01  -5.3476361e-01   6.9187575e-01  -3.1970080e-01   1.2612730e-01   9.6905490e-01   6.6563075e-01  -5.5689449e-01   5.5310746e-01  -1.2129890e-01  -1.5449479e-01  -7.9526499e-02   6.9310810e-01  -2.0948571e-01  -7.9142917e-01  -2.5887001e-01  -4.9853678e-01   7.2212774e-01  -3.7620595e-01   6.8512173e-01  -9.9945552e-01   2.6777289e-01   5.5818180e-01  -3.2273946e-01   5.1987646e-01  -6.6312481e-01   8.1736656e-01   5.4726878e-01  -4.2335935e-01  -4.3805670e-01  -4.2183473e-01   5.2858315e-01  -1.9275194e-01   8.2950645e-01  -8.3066724e-01   9.0004497e-01   4.4586336e-01   1.2057256e-01  -7.3506230e-01   9.7085159e-01  -1.3469378e-01  -8.6648471e-01  -4.8026165e-01   2.9352686e-01  -3.6160457e-01   3.7593568e-02   4.6883653e-01  -4.3157933e-01   8.2204525e-01   8.0339436e-01  -8.8633274e-01  -2.7296045e-01   2.9044846e-01  -6.0957210e-01   9.8044933e-01   2.1352966e-01  -8.5561549e-01   6.0619621e-01   1.5520082e-01   9.1766402e-02  -4.0834463e-01   7.8428531e-01
   6.8975454e-01   9.9776834e-02   9.8332605e-01   9.2181583e-01  -2.8180434e-01  -9.1499755e-01  -7.2335835e-01   4.3361830e-01  -2.2522385e-01   4.0883259e-01   8.7321387e-01  -2.6895440e-01   1.0071877e-01  -1.4819461e-01  -3.4720103e-01  -7.3511312e-01   2.1020917e-01  -2.1807734e-01   8.2483527e-01   9.2351399e-01   8.7945247e-02  -8.0261003e-01  -3.7849497e-01  -2.4170400e-01  -1.7608426e-01  -9.5026259e-01   5.2641495e-01  -9.3720773e-01   3.0901734e-01  -8.1329332e-01   4.4457981e-01   5.1321573e-01  -7.4524119e-01   7.7638931e-01   6.1571784e-01   6.9069615e-02  -8.9489476e-02   2.5824527e-01   2.3425194e-01  -2.0781038e-01  -1.7189840e-01   6.6631510e-01   8.9384587e-01  -1.6730266e-02   4.9757758e-01   6.9861693e-01  -9.3545646e-01   8.9032845e-01   3.5222225e-01   1.7237207e-01  -4.6828918e-01   9.6025067e-01   1.3615127e-01   6.6352479e-01  -5.7223335e-02  -5.1345867e-01  -4.8231656e-01  -6.8491504e-01   4.7100357e-01  -6.9383888e-01  -5.4462421e-02   7.5915300e-01   5.7299004e-01   1.5305520e-01  -7.1622152e-01  -5.0620760e-01  -5.4447434e-01  -5.8700438e-01   1.9902931e-02   1.3124610e-02  -6.8714616e-01   1.1601364e-01   2.1563789e-01  -2.4458713e-01   3.2931834e-01   8.1651997e-01   2.5430528e-01   5.5642287e-02  -9.4350700e-01  -6.3599198e-01   2.6642798e-01  -7.3133795e-01   9.1600986e-01   9.7102837e-02  -1.3342877e-01  -6.9471738e-01   8.3746758e-01  -8.1130876e-01   8.4387340e-01  -4.4596058e-01   8.7661886e-01   6.6791231e-02   1.7809368e-01  -9.0224458e-01   2.7591518e-01   6.3226361e-01  -8.5026445e-01   3.4228614e-01   8.4020083e-01   8.2695527e-01   5.0761293e-01   7.7029781e-01  -9.6529416e-01   6.9262890e-01   5.8332383e-01  -4.7683456e-01   6.6813567e-01   6.2156902e-02  -1.2594444e-04   5.2090125e-01  -5.0398651e-01   7.5425759e-01  -1.9970930e-01  -5.3870073e-01  -3.3961360e-01   3.1161240e-01  -9.2955964e-01  -1.7984311e-01   4.6468668e-01  -7.3677629e-02  -7.2113053e-01   6.7897478e-01   3.3318309e-01  -2.3199435e-01   1.2889544e-01  -8.0503306e-01   1.1726366e-01  -6.2057296e-01  -5.0815850e-01   6.0038231e-01   7.3386176e-02  -1.4536958e-01   9.4179210e-01  -5.5461008e-01   4.2203385e-02   9.3508553e-01  -6.1789982e-01   2.5302546e-01   8.5274502e-01  -6.5242376e-01   1.3674427e-01   2.0628983e-01   8.1105433e-01  -9.9963302e-02   9.4890226e-01   2.2017630e-01   1.7424099e-01  -7.3113133e-01  -5.8127871e-01  -1.7817497e-01   6.9109342e-01   4.7894044e-01  -3.8119039e-01  -8.7939708e-01   5.8008801e-01  -2.9015723e-02  -2.3010318e-01   6.2000812e-02  -8.6544317e-01  -2.0588558e-02   6.6650689e-01  -1.2316827e-01  -7.7285971e-03   9.3527473e-01  -3.3101069e-01  -7.8510020e-01   2.6240267e-01   2.4635597e-01  -6.4136822e-01   6.3311748e-01  -4.8315744e-01   8.1845681e-01  -3.1885801e-01   7.5661339e-01  -3.8306092e-01  -8.5878082e-01  -3.3643564e-01   6.9934631e-01  -3.8270956e-01   3.3998747e-01  -4.1185117e-01  -5.4590367e-01  -5.3978603e-01  -7.5917306e-01  -2.7828237e-01  -6.8206428e-01  -6.4114208e-02   7.1802879e-01  -9.2126571e-01  -8.7858187e-02   1.6363955e-01  -1.0365907e-01   9.5868594e-01   1.3167266e-03   7.0647823e-01  -7.8713520e-01  -1.8448860e-01   1.8578656e-01  -7.3255649e-02   3.5837840e-01  -6.2040122e-01  -1.2515014e-01  -4.0953530e-01  -5.4822198e-01   6.3507361e-01   9.5056121e-01   9.2271058e-01   9.9113561e-02   3.6325645e-01   5.0680430e-01   4.8010886e-01  -5.8608232e-02  -4.4094700e-01   8.7451931e-01   4.3656214e-01   9.4288989e-01  -9.8529277e-01  -2.4455951e-01  -4.5787525e-01   7.6402099e-01  -3.2178726e-01  -5.4701771e-01   8.7082833e-01  -2.9436043e-01  -6.6782436e-01   1.1270124e-02  -9.9153732e-01   3.5104863e-01  -7.8965777e-01  -6.0970906e-01  -8.5616111e-01  -5.8331153e-01  -3.6632661e-01  -3.7321328e-02   1.5643593e-01   4.1581402e-01   6.0676818e-01  -3.1362024e-01  -5.7769915e-01  -3.6600358e-01   8.8964598e-02  -6.2030187e-01  -9.0514096e-01   3.7625291e-01   4.9242674e-01  -1.6635262e-01   4.3780906e-01  -7.7576170e-01   1.0209410e-01  -9.6879237e-01  -9.8765426e-01   9.4519349e-01  -9.5416563e-01   7.0681399e-01  -5.8079187e-01  -2.1965326e-01  -7.4540700e-01  -4.2273071e-01   6.9634921e-01   4.7925187e-01  -1.4461662e-01  -5.4415018e-01   7.9278144e-01  -3.8731779e-01   4.7424457e-01   2.8743894e-01  -3.0680594e-01   2.6458641e-01  -8.2973687e-01   1.6014577e-01   6.8055052e-01  -1.4951927e-01  -4.7550961e-02  -8.0420241e-01  -3.5966066e-01   4.7578646e-01  -3.8749733e-01   4.9345254e-01   7.9659331e-01  -3.1532344e-01  -7.3913404e-01   2.1959652e-02  -9.9332670e-01   1.5172431e-01  -8.0763234e-01   4.6237444e-01  -1.6502702e-01  -7.4065908e-01   1.5469545e-01   2.9497868e-01   4.4892846e-01  -5.9621433e-01  -2.4186937e-01   2.6301674e-01   5.7235231e-01  -2.1500622e-01  -4.8315876e-01  -8.0967069e-01  -1.1485433e-01   1.6901814e-02   1.3071697e-01  -2.4700800e-01  -8.0518632e-01  -5.5507704e-01   6.2444287e-02  -5.4556733e-01   2.6687091e-01  -2.8396290e-01  -4.2216951e-01   5.5065872e-01  -1.3837859e-01   2.4424695e-01  -9.1828253e-01   1.0214433e-01  -6.2501284e-01  -6.8643410e-02  -6.7532769e-01   5.8970481e-02   7.8392044e-01   4.9727882e-01  -3.3071064e-01   6.1667066e-01   5.2137447e-01  -4.7056544e-02   3.4708174e-01   1.5489525e-01   6.1269214e-01  -6.8217116e-01   5.2104491e-01   8.2350793e-01   2.9355632e-01  -1.3745389e-01  -5.5513900e-01  -2.5340016e-01  -5.2232064e-01  -2.8684549e-01   1.5767079e-01  -8.2791788e-01  -5.4107146e-01   4.3676056e-02  -6.5723407e-01   2.7958307e-01  -2.3840938e-01  -9.3029370e-01  -6.3560896e-01  -9.7741004e-01  -1.0197473e-01   6.4686403e-01  -5.0549375e-01   8.1387302e-01  -2.6283844e-01   7.2931570e-01   2.0543466e-01  -1.4793236e-01  -7.6699982e-01  -4.9417293e-01   9.7429729e-01  -2.6262154e-01  -6.6827785e-01  -6.7615600e-02  -5.5779655e-02  -5.4948819e-01  -6.7023818e-01  -7.0272061e-02  -9.9266599e-01   3.1965527e-01  -4.4544974e-02   8.3896544e-01   4.5509673e-02  -4.4647937e-01   9.8920690e-01  -2.1300970e-01  -7.8383484e-01   4.4158426e-01  -6.9805245e-01  -4.7363746e-01  -7.2730548e-01  -2.2109574e-01  -3.6836770e-02   2.1045058e-02  -7.0192554e-01   7.4931519e-02  -1.8861829e-01  -9.3530719e-01  -8.2937858e-01   3.0393549e-01  -4.9931677e-01   5.0599218e-01  -3.8444240e-01   1.0114006e-01   2.6673199e-01   8.0957429e-01  -2.9970619e-02   4.3111997e-01  -2.0740344e-01  -1.1294403e-01   8.0516842e-01   2.3421017e-01  -1.7213584e-01   4.4118893e-01   1.1642354e-01  -2.5867385e-01   3.4759211e-01   4.9222866e-01   8.4779159e-01   8.0036953e-01   6.5076244e-01   6.9943872e-01  -2.5261351e-01  -9.9578675e-01   9.8813511e-01  -4.7142759e-01  -7.0038823e-01   4.8470059e-02  -5.1236770e-01  -2.5362962e-01   5.2769896e-02   1.6625471e-01  -2.9612308e-01   6.7935751e-01  -7.4466227e-01   6.1465819e-01  -6.9965394e-01   8.4030112e-01  -4.4689023e-01  -4.7073764e-01   3.9382063e-01  -5.6327633e-01  -1.3431981e-01   3.1045442e-02   2.4642109e-01   4.8965491e-01  -5.2005784e-01   5.6663700e-01   6.6315420e-01  -8.3988383e-01  -5.2737453e-01  -8.9105802e-02  -8.0382822e-01   3.7631894e-01   9.8837142e-01   2.7571086e-01   5.8888259e-01   8.3435791e-01  -2.6624004e-01   2.4785578e-02   2.7094517e-01  -8.1136651e-02   9.0043927e-01  -8.6612129e-01  -3.4674795e-01   6.9528681e-01  -1.4659959e-02  -3.1934776e-01  -3.8771536e-01  -8.6769519e-01  -2.3480179e-01  -5.3404406e-01   9.3022870e-01   9.3535491e-01  -3.7030155e-01   1.4607393e-01   3.1649817e-01  -9.2674393e-01  -9.8310773e-01   2.9341706e-01  -9.8921701e-01  -7.5813045e-01  -8.9867750e-01  -2.9619988e-01   8.6841272e-02  -2.2225010e-01  -5.6745492e-01   5.7108066e-01   9.6746708e-01  -7.0870459e-01  -8.2387670e-01  -2.9918259e-01  -2.2671147e-01   4.5047849e-01   8.8411713e-02   1.6839083e-01   9.3394824e-01   9.6690143e-01  -4.7586042e-01  -6.3232448e-01  -4.0535803e-02   2.5788092e-01  -2.1094279e-01  -8.4233550e-01   3.0053963e-02  -5.1758503e-01  -7.8141528e-02  -2.1338370e-01  -8.4765732e-01  -6.9801616e-01   3.7401471e-01   2.1277858e-01   8.8906652e-01   9.2750787e-01   8.3096497e-01  -6.8449009e-01  -4.9686763e-01   7.6513131e-01  -8.4406243e-02   3.7447772e-01  -5.2258831e-01   5.5137367e-03  -6.9602513e-01  -6.7316046e-01  -3.7009688e-01  -4.2303945e-01   6.6554708e-02  -5.1288421e-01  -3.7968324e-01   2.5158013e-01  -2.3300773e-02  -1.3482901e-01   7.5553555e-01   1.3438632e-01  -3.1797378e-01   1.6556501e-01   5.5060904e-01   7.0790903e-01   8.3840597e-01   1.3506937e-01   4.0169571e-01  -4.8687221e-01   7.2656742e-01   1.1245358e-01  -4.2084290e-01  -7.0853055e-01  -9.1588749e-01   1.5834206e-01  -3.9351383e-01  -2.8953176e-01   4.9765388e-01   7.7184544e-01   3.4567486e-01   8.5251056e-01   2.9618287e-01   9.0755267e-01  -1.1982537e-01  -9.6451083e-01  -9.4791021e-01  -2.5910659e-01  -3.6439998e-01   4.2292373e-02   1.6338244e-02  -5.1452418e-01   8.1637757e-01   8.8429600e-01  -8.1269292e-01  -6.2868649e-01  -4.8857405e-01  -4.4736348e-01   4.4221061e-01  -8.3122696e-01   4.8047835e-01   1.4917797e-01   6.3716275e-01  -7.6679441e-01  -3.6999406e-01   2.4250565e-01  -3.0833621e-02   8.4920731e-01   7.1675287e-01   6.0477150e-01   7.1417287e-01  -1.8645518e-01   6.0886523e-01  -7.9019037e-01  -6.0239492e-01  -9.3522269e-01   4.3242094e-01  -5.2580490e-01  -1.5228718e-01   5.1293223e-01  -9.9177600e-01   6.8206572e-01  -6.2798874e-01  -4.1934189e-01   5.1816532e-01  -9.5901658e-01   9.2993949e-01   1.3196705e-01  -8.8885449e-01  -1.4358360e-01  -4.6766495e-01  -6.5905470e-01   1.8963510e-01  -2.9934472e-01  -4.1718830e-01   7.4064564e-01  -8.2198666e-01  -9.6966612e-01  -1.8145315e-01  -1.3316737e-01  -7.1555338e-01  -4.4133457e-01  -6.8042834e-01  -3.0561366e-01  -5.7737451e-01   9.9893974e-01   2.9014554e-01  -8.1520431e-01  -5.2834233e-01  -9.4036682e-01   2.7830789e-01   4.3864704e-01  -1.5905444e-01   6.0472871e-01  -1.6433711e-01  -5.4428405e-01  -5.6113663e-01   2.7469503e-01   1.3163167e-01  -4.7513673e-01   8.2158829e-02   4.0523556e-01  -7.4244800e-01  -2.6651335e-01  -6.0473350e-01   3.9844065e-01  -4.5938996e-01   6.5302876e-03   8.0727902e-01  -9.4596412e-01  -4.0005791e-01   1.8682713e-02  -5.6284306e-02  -2.6632383e-01   5.5490105e-01   8.7088415e-01  -3.1476645e-01   4.0745892e-01   2.8184778e-01   8.3579576e-01  -1.1706357e-01   8.2444117e-01  -5.1736671e-02   4.7987285e-01   7.8217830e-01  -9.8618300e-01   4.8617575e-01   8.2325705e-01   8.7770704e-01  -1.6713776e-01   9.7791462e-01   9.6734113e-01   4.0476571e-01   2.9405585e-01   9.5584491e-01  -2.2020757e-01  -4.1536115e-01  -7.5201904e-01  -1.3070332e-01   2.3475861e-01   8.4954988e-01  -2.7427989e-01   3.5378946e-01  -4.9211567e-01   4.5862681e-01   7.3116679e-01  -4.8296485e-01  -7.2274574e-01  -2.8807145e-01  -9.6073789e-01   3.5191504e-02  -2.9940522e-02   4.6887752e-01   6.4772316e-01  -8.7543880e-01  -2.3381784e-01   8.3741861e-01  -4.5338358e-01   3.7190397e-01   9.8503869e-01  -3.0908452e-01   7.4826341e-01   6.7433275e-01  -6.8668462e-01   3.2745806e-01   7.9823642e-01  -9.9782123e-01   7.6855640e-01  -6.1253254e-01   9.4017888e-02   3.4950590e-01  -3.1946983e-01  -1.6730302e-01  -7.8684390e-01   5.7838836e-01  -5.4347970e-01   3.3008193e-01  -3.8821938e-01   4.1748954e-01  -1.3748133e-01   7.7441289e-01  -6.3936724e-01   3.3605361e-01  -3.7465289e-01  -8.4950752e-01   1.7620379e-01  -4.1084722e-01  -9.0696155e-01  -7.0060314e-03   8.4369968e-01   7.4018237e-01   4.9862415e-01   7.5669605e-01   7.2639616e-01   2.5678838e-01   9.9930443e-01   9.8772643e-01  -7.5182965e-01   2.2149155e-01   6.4153303e-01  -2.1480598e-01  -3.1466483e-01  -4.7801918e-01   5.9277235e-01   6.4570214e-01  -4.6520737e-01   6.6806867e-01  -1.0740755e-01   7.0221444e-02  -9.3438368e-01   2.2835976e-01  -4.7781427e-01  -3.1719849e-01  -9.2937357e-01   5.7369297e-01  -4.2496093e-01   4.4532358e-01  -1.9150412e-01  -9.6408164e-01   1.5997972e-01  -1.3559116e-01   2.6713862e-01  -5.2526113e-01  -9.2020718e-01   8.9426743e-01   8.7858021e-01   5.4217789e-01  -1.4505720e-01  -4.4789618e-01   4.6284150e-01  -5.3390616e-01  -7.2839827e-01   3.9392943e-01   2.7674068e-01   2.8598811e-01  -4.7368174e-01   7.3763971e-01  -8.5659357e-01  -3.0165606e-01  -5.9957141e-02  -4.7351189e-01  -6.7856713e-01  -5.3321814e-01   3.8450935e-02   6.2257226e-01  -5.6272159e-01  -7.1466997e-01  -9.6135331e-01  -8.8834881e-01  -8.9532125e-01  -7.7099932e-01  -7.8288741e-01   7.3381663e-01  -2.0394015e-01   1.6972351e-01  -8.4283549e-01   5.8799445e-01  -6.0768866e-01   7.7363300e-01  -4.7512187e-01   4.3217581e-01  -9.0620085e-01   5.0112602e-02   1.9688316e-01   5.6852420e-01  -4.5442074e-01  -6.8608471e-02  -8.2563333e-01  -5.7460563e-01  -7.8719872e-01   6.2183914e-01   7.1980168e-01   3.0849431e-01  -1.7051018e-01  -8.7739194e-01   3.1237644e-01  -2.8940853e-01   1.4561628e-01   8.9233332e-01   8.6665564e-01   7.8381594e-01   3.4245535e-01   3.9046122e-01  -3.6822132e-01  -4.7329160e-01  -8.7659982e-01   1.8454966e-01   2.7480074e-01  -3.5801299e-01   6.6441743e-01   3.1206083e-01  -7.6836485e-01  -7.4392339e-01  -6.5106893e-01   9.2870293e-01   1.6440333e-02   9.6463001e-01   9.7684339e-01  -6.3682336e-01  -5.1501917e-01  -5.9008614e-01   9.7801485e-01   5.0449870e-01   4.4368455e-01   7.9067079e-01  -8.9349461e-01   9.0411641e-01  -7.8306889e-01   6.1164376e-01  -3.6710875e-01   6.4039502e-01   5.9398230e-01   4.8568024e-01   6.5521653e-01  -2.4095769e-01   7.4199382e-01   1.5940376e-01   5.1901469e-01   9.2973637e-01   1.6930189e-02   9.0483187e-01  -4.3537963e-01  -7.0034844e-01  -1.2515350e-01   7.8171884e-01   9.6825161e-01  -3.1743047e-01   1.7624335e-01   4.7533144e-01   8.9182891e-01  -3.7343796e-01   2.1134396e-01   7.5650792e-02  -3.7484218e-01  -8.2773218e-01  -3.1692527e-01   6.3712703e-01  -1.4381688e-01  -2.0134979e-01  -5.2068383e-01   8.7505906e-01  -7.6808103e-01  -3.3521576e-01   9.8710868e-01  -9.7148163e-01  -6.8668557e-01   9.0755160e-01  -9.0892168e-01   2.1690108e-01  -1.5677383e-01   4.2160570e-01   2.3836461e-01   8.4164074e-01   8.1438816e-01   2.7734053e-01   5.2330003e-01   8.9057792e-01  -7.5585097e-01   8.6723416e-01   7.4206446e-01  -9.6828718e-01  -7.8192516e-02   4.9862314e-01  -7.3608524e-01  -5.1817288e-01   5.6982512e-01  -9.2733819e-01  -2.6962193e-02   8.8289378e-01  -7.3365368e-01  -1.4450150e-01  -8.6116162e-01   8.6558258e-01   7.2315984e-02   2.1783369e-01  -6.6624525e-01  -7.0100056e-01   5.2161940e-01  -4.9112653e-02   6.9320514e-01  -9.6263956e-01  -9.5432089e-01  -6.1521362e-01   2.1720728e-01  -2.7596481e-01  -8.1015267e-01  -6.6368049e-01   2.7809783e-01   5.2138988e-01   7.9652927e-01  -7.7232645e-01  -9.0477739e-01   3.8747594e-01  -1.9979619e-01   5.6947307e-01  -9.3633414e-01  -6.2340973e-01  -4.4637304e-01  -5.0446491e-01   4.3332664e-02   1.9050981e-01   4.6060678e-01  -5.4990748e-01   2.6761185e-01  -1.7887199e-01   5.2525486e-01  -8.6861220e-02  -3.7024223e-01  -1.3628744e-01  -8.5283041e-01   3.3919485e-01  -9.4779230e-01  -6.6590677e-01   7.6697688e-02   9.9073950e-01  -2.7123310e-01   4.0190653e-01  -8.7270432e-01   7.2735512e-01   7.7302801e-01   6.0366196e-01   2.5064250e-01   3.7087012e-01   8.6373106e-01   1.9032950e-01   7.4304587e-01   8.7757230e-01  -3.9235240e-01  -7.5238024e-01   8.6373471e-01   1.2890793e-02  -7.0876227e-01   3.2851082e-02  -6.4395671e-01  -2.8112714e-01   9.1097042e-01   2.5925737e-01   4.8369472e-01   9.2897145e-01  -4.6865879e-01   7.9586529e-02   2.0900691e-01   6.1644943e-01  -4.8844640e-01   7.9571855e-01   7.7012244e-01  -4.2312635e-01  -8.7856634e-01   8.3986421e-01  -7.4219016e-01  -9.7427756e-01  -2.8364126e-02  -1.3281929e-02   1.3957652e-01  -6.9292089e-01   1.9309358e-01  -4.7190755e-01  -9.6416305e-01   1.5572576e-01   8.6787931e-01  -1.8460064e-01  -2.7049703e-02  -1.3208563e-01   6.6716368e-01  -6.9201686e-01  -9.3575557e-01  -6.0353012e-01   5.3037937e-01  -5.9413691e-01   9.0206338e-01  -2.0231922e-03  -6.9109855e-01   6.6825040e-01  -1.9017145e-01  -4.7950159e-02  -8.1867108e-01  -2.3164274e-02   8.2256756e-01  -9.4207709e-01  -1.8329834e-01  -5.9582729e-01   2.5621768e-02
  -7.9426877e-01   7.5285721e-01  -3.7971696e-01  -8.4138930e-01   5.4473587e-01  -2.8938463e-01   3.4330898e-01   7.4847852e-01  -9.7318533e-01   3.0887281e-01   6.7086709e-01  -8.7760988e-01  -4.8200061e-01  -8.9126838e-01  -7.2665006e-01   4.0226006e-01   6.9124605e-01  -1.1608853e-01   2.5880552e-02  -8.3836900e-01  -9.5190533e-01  -7.0420558e-01   2.6286683e-01  -5.8759082e-01   5.3438613e-01  -3.4409214e-01   5.5021430e-01  -4.4358977e-01   9.7940816e-01  -9.2205148e-01   4.2673541e-01  -5.2162495e-01  -7.5113884e-01  -8.0715703e-01   8.0609566e-02   6.9750616e-01  -2.4438099e-01  -6.1778180e-01   7.6815883e-02  -9.7403896e-01  -1.7324014e-01   5.5770103e-01  -6.9604117e-01   5.6727288e-01   4.8952060e-01   6.6814548e-01   7.5104207e-01  -9.2472079e-01   6.9140415e-01   5.1587557e-02   4.4805894e-01   5.8413354e-01  -9.7146453e-01  -7.9073330e-01   3.7949016e-01  -8.8216637e-01   3.9498011e-01   6.1874627e-01  -1.6395421e-01  -3.1925050e-01  -1.7035794e-01   3.4429343e-01  -1.4542667e-01  -5.0742597e-01   3.5810679e-01   8.2081773e-01  -3.9126006e-01  -4.4713241e-01   8.4792685e-01  -2.7521554e-01   3.7732677e-01   6.5275419e-01   7.4356909e-01   9.8965180e-01  -7.0037892e-01   1.1706315e-01   9.4272922e-01   8.3776986e-01  -2.1736498e-01  -2.2487620e-01   6.5603713e-02  -8.2268952e-01  -2.4915656e-01  -9.6133363e-01  -4.0000834e-01   6.5778364e-01  -7.6352073e-02   3.5002300e-01  -9.7926788e-01  -3.8400780e-01   6.3194568e-02   8.0864073e-01  -8.6596526e-01   1.3255902e-01  -4.6676681e-01  -8.1830080e-01   1.6104106e-01  -9.9042404e-01  -4.7002747e-02   2.3205076e-01   5.4332852e-01  -2.2694577e-01  -9.5288525e-01  -9.4107189e-01   8.1232920e-01  -4.3568339e-01  -6.5185164e-01  -1.5238818e-01   8.5695823e-01  -8.5012332e-01   6.9004396e-01  -2.4055870e-01   7.7668069e-01   4.7308059e-01   6.2078774e-01   4.3185193e-01  -8.5517673e-01   3.6083887e-01   6.5254669e-01   9.4638155e-01   6.6283159e-01  -1.4433702e-01  -2.3539682e-01  -6.6183490e-01  -2.1209928e-01   4.7870193e-02  -1.2435098e-01  -7.3853573e-01  -2.8144433e-01   8.6767313e-01   2.7917258e-01  -5.3056714e-01  -2.3277976e-01  -3.9225266e-01  -5.5208440e-02   3.3025466e-01  -6.1196528e-01   4.8547253e-01  -9.5747668e-01   3.4486194e-01  -8.6879599e-01   2.0494643e-01  -5.0684302e-01   1.8889756e-01  -8.6196939e-01   9.1744466e-01  -6.4570764e-01  -9.7548678e-01   1.4548576e-02   3.6624666e-01  -1.0034755e-01   1.7298719e-01   4.3702631e-01  -4.4958419e-03  -5.4420678e-01  -3.5824704e-01  -3.6627077e-01  -6.8820199e-01  -6.1657955e-01  -3.1023733e-02  -6.6216605e-01   4.3024940e-02   2.1573034e-01   1.5384093e-02   7.7747635e-01   6.9439475e-01   5.5193460e-01   8.6616023e-01   7.4932427e-01  -5.0696239e-01   2.7597747e-01  -4.3232054e-01  -5.9598906e-01   3.8029198e-01   2.7710845e-01   6.1763497e-03   1.5795976e-01  -4.5234577e-01   4.7629362e-01  -1.9149949e-02   7.7076513e-01   6.4436179e-01  -3.0157442e-01  -2.2147314e-01   5.7736998e-01  -5.8179976e-01   4.3964060e-01   6.6113041e-01  -4.4052184e-01   9.6136702e-01  -7.0132863e-01   3.4821994e-01  -2.1361132e-01  -4.8129172e-01  -5.1361453e-01  -4.2393295e-01   2.8179552e-01   8.8071502e-01  -3.2241117e-01  -6.8376447e-01   2.2582679e-01  -3.7256310e-01   6.2879553e-01  -8.2236467e-01   1.0520826e-01   9.6537649e-01  -8.7685012e-02   3.0632046e-01  -1.3530494e-01   3.0749093e-02   7.1871099e-01  -4.2535516e-01   1.3522181e-01   4.6333232e-01  -8.4125261e-01   9.8129262e-01   9.3666137e-02   5.8940333e-02  -1.6403563e-01  -1.8472377e-01  -7.7996080e-01  -3.2373967e-01  -9.4709381e-02  -9.3849959e-01  -7.9604311e-01  -7.1067188e-01   7.0487844e-01   7.4928457e-01  -1.6269957e-02  -7.5884284e-01   8.8977076e-01   1.1280622e-01  -5.8101581e-01  -7.9429032e-01   5.7780353e-01   7.8349692e-01   1.0905936e-01  -4.8541567e-01  -5.0095066e-01  -5.4772819e-01  -1.1611654e-01   6.4160860e-01  -5.2610706e-01   8.4136642e-01  -9.6279695e-01  -3.0741641e-01   1.8019482e-01   2.2841331e-01   7.9577006e-01   7.9129332e-01  -1.1637983e-01   4.8561079e-01   9.9776871e-01  -1.9722467e-01   7.9849269e-01   8.2069954e-01  -3.0280011e-01  -2.9052592e-01   1.9081860e-01  -1.8915629e-01  -9.4672197e-01   8.8010025e-01   3.9136497e-01   8.7867342e-01   4.5320662e-01  -9.0462914e-01   4.3730669e-01   7.2051634e-01  -4.5479168e-01  -4.3868326e-01  -6.1478646e-01   5.5021987e-01  -6.4773060e-01   4.1230867e-01  -6.2684670e-01   9.5347111e-01   9.4578451e-02  -8.7612202e-01  -4.7012600e-01  -3.9489687e-01   2.7520056e-01  -8.6456474e-01  -9.2547089e-01  -9.4976157e-01   9.7759414e-01  -1.4883371e-01  -8.9908376e-01  -2.3496886e-01   2.8369236e-02   2.5999929e-02   8.3923753e-02   1.9881556e-01  -8.1791787e-01  -5.6041556e-01   6.2669109e-01  -6.8741748e-01   5.4176777e-01  -1.7418950e-01   2.1817784e-02   4.5297386e-01   2.8705758e-01   3.8823190e-01  -9.9353006e-02   3.5129655e-01  -8.5416577e-01  -3.3556587e-01   8.8474413e-01   1.5134868e-01   8.2128200e-01  -1.3951414e-01   7.5180575e-01  -5.0660962e-01  -4.7324134e-01  -8.7643076e-01  -3.5143244e-01  -8.7166232e-01  -2.1051434e-01   4.3980220e-01   3.9862195e-01  -7.4634013e-01  -7.3784260e-01  -2.9103487e-01   4.7367975e-01  -1.3667086e-01  -7.6368837e-02  -7.0186949e-01   8.1535174e-01   9.1437398e-01  -1.3378059e-01   6.4786339e-01  -5.5724073e-01   1.4220142e-01  -7.8994791e-01  -9.6087819e-01  -1.9486060e-01   5.4353696e-01  -6.7219152e-01  -1.5493570e-01   5.0282789e-02  -8.6017298e-01  -3.9777801e-01   5.0999226e-02   2.1925431e-01  -9.7031977e-01  -9.9544069e-01   5.2272865e-01   4.7100200e-01   4.5223535e-01   9.1944644e-01  -5.1036374e-02  -6.1187712e-02  -6.6598149e-01   3.1526507e-01   7.7765874e-01  -3.8149618e-01   5.0066941e-01  -2.8031146e-01   7.6092464e-01   3.9090504e-01   8.1307101e-03  -8.5680306e-01  -3.1011617e-02   5.6479612e-04   7.6137806e-01   8.6157229e-01   3.1936944e-01   4.1398410e-01  -2.8925192e-01   1.1050967e-01   8.1140948e-01   5.3733026e-01   3.5480495e-01  -2.8753716e-01   4.0648349e-01  -3.3467985e-01  -3.4447144e-01  -6.2972746e-01   1.8111965e-01   6.3295052e-01   7.3687605e-01   8.4107434e-01  -8.2866936e-01  -8.9617215e-01   4.5677465e-01   8.8285494e-01  -4.4143286e-01  -8.0814504e-01  -2.8037923e-01  -6.9429815e-01   5.8585170e-01   6.0987718e-01   8.3511805e-01  -6.5784799e-01  -4.9267623e-01   1.2612849e-01   6.4362894e-01  -4.0674634e-01  -5.9075398e-02   1.0838001e-01   2.1361148e-01  -2.5531853e-01   2.0300607e-01  -5.2133418e-01  -5.4415860e-01   5.7746282e-01  -2.4035896e-01   3.8850064e-01  -4.5827935e-01  -7.1310484e-01   3.8035561e-01   4.6682163e-01  -1.0539238e-01   7.8407020e-01   4.9069572e-01   1.9427503e-01   2.5137850e-01   2.0616858e-01   8.3797681e-01  -8.7640765e-01  -3.2943713e-01   9.4040802e-01   3.0415580e-01  -8.0414736e-02   2.0596884e-01  -4.8939820e-01  -7.8876312e-01  -1.5430159e-01  -8.8253098e-01  -5.9149751e-01   5.7401845e-02  -3.1139549e-01   6.2070765e-01   2.1576807e-01   5.3040598e-01  -3.8156722e-01  -6.1315338e-01   4.6815491e-01  -2.7710802e-01  -5.7132939e-01  -2.2171699e-01  -2.3185590e-01  -2.9884606e-01  -8.4031500e-01  -3.6550969e-01  -7.4837131e-01  -3.5758847e-01  -3.0471259e-01   2.8326550e-01  -2.3049527e-01  -6.0115828e-01  -8.2590720e-01   8.9113485e-01   7.2462122e-01   8.2085298e-01   7.8111634e-02   1.4659094e-01  -7.1456680e-02   5.0572609e-02   1.5238526e-02  -9.7369769e-01  -2.8039701e-01   1.0923297e-01   2.3539002e-01   3.2973611e-01  -9.6414148e-01   8.4913691e-01  -7.7537921e-01   5.3897516e-02  -1.4136034e-01  -6.6888625e-01   7.7043419e-01  -5.8249192e-03  -7.8799386e-01   1.7659643e-01  -9.6383604e-01   2.4699384e-01   5.2529374e-01  -8.1674041e-01   1.6077669e-01   2.9996031e-01   8.4624596e-01  -9.9406212e-01  -1.8849578e-01  -9.4537457e-01   7.1233366e-02   1.8960382e-01   6.6006433e-01   3.2405164e-01  -9.8738687e-01   7.4026598e-01  -3.4400651e-01  -4.4291484e-01   3.3044315e-01  -3.0764746e-01   7.9038077e-01  -2.0546423e-01  -7.9106133e-01   1.2752107e-01   5.3172669e-01  -2.5312700e-02  -4.2801627e-01  -5.5498963e-01   5.0081525e-01   6.7116861e-02  -1.6334980e-01   7.3584054e-01   7.2887873e-01   9.9502157e-01  -4.2052561e-01  -9.5621786e-01   3.7181361e-01  -9.2150513e-01  -7.0599498e-01   3.8342790e-01   1.5128581e-01   1.6966356e-01  -9.8965210e-01   5.5997274e-01  -7.2855357e-01  -3.1997205e-01   4.8194194e-01   6.4960587e-01   4.5089630e-02  -6.4841809e-01   7.0130863e-01   1.0566230e-01   1.8785667e-01   3.9483542e-01   3.8858314e-01   5.9068530e-01   3.3041356e-01   6.6087517e-01  -9.5782751e-02  -1.8308108e-01   4.2503524e-01  -4.0786556e-01  -3.7026726e-01  -5.0122100e-01  -9.6191117e-01   7.0539247e-01  -9.2223017e-01   6.1560335e-01  -9.6094602e-02  -8.7004931e-01   7.7623292e-01  -8.4764718e-01  -8.0558954e-02   6.7097338e-01   9.6244946e-01  -9.0019884e-01  -1.8330082e-01  -4.2481783e-01   2.7104664e-01   7.8925150e-01   9.5590528e-01   1.5052820e-01   9.7137840e-01   5.3855034e-01  -3.7096531e-01   7.5722567e-01   1.0522099e-01   1.3564383e-01  -1.2563316e-01  -9.9320685e-01  -9.1673954e-01   8.8517345e-01   9.8381495e-01   7.5130601e-01   7.1826029e-01   7.5497312e-01   7.0353197e-01  -6.6707026e-02   8.0171937e-01   1.5929758e-01  -2.7540148e-01  -1.0964301e-01   7.7747872e-01  -9.5531589e-01  -2.3740502e-01  -6.3156818e-01   2.9229955e-01  -8.7043947e-01  -9.3051924e-01  -4.7163891e-01  -7.3021522e-01   7.5925769e-01   3.4902972e-01  -1.3557372e-01  -3.6668325e-01  -7.2345846e-01  -2.3710192e-01   6.4415593e-01   8.0114613e-01   4.8929563e-01   4.6345885e-01  -1.5661040e-01  -9.5671106e-01  -3.7073336e-01   9.4385981e-01  -5.7564614e-01   2.7310532e-01  -3.7543825e-01  -2.8540235e-01   5.0001105e-02  -4.4887317e-01   8.2011220e-01  -5.5948387e-01   9.9361164e-01   7.9849224e-01   2.6105305e-01   5.7219355e-01   3.1042634e-01  -6.2520324e-01  -5.7154213e-01   1.2409287e-01  -7.1245003e-01  -1.8868193e-01   7.9602504e-01   5.3281769e-01   9.3822491e-01   4.1367965e-01   6.6792538e-01   7.4846817e-01  -6.1098792e-01   4.3073806e-01  -9.3538865e-01  -4.3797256e-03   6.3564032e-01  -7.3406500e-01   5.6981810e-01   1.4284718e-01  -9.7363149e-01  -9.6230362e-02  -4.1557213e-02  -3.4922854e-02   7.6547830e-01   9.2795634e-01   3.3522173e-01  -7.6618712e-01  -8.7452371e-01   7.7811562e-01   6.3257569e-01   7.4748292e-01  -9.0556896e-01  -5.7100798e-01   6.1663314e-01   4.7000428e-01  -9.7785619e-01   6.2014849e-01   4.8738121e-01  -9.1083607e-01  -4.5991118e-01   7.9999764e-02   2.4028562e-01  -6.4790646e-01  -1.5848584e-01   7.4588686e-01  -4.2772836e-01  -9.0156505e-01  -7.5495269e-01  -2.0217943e-01   5.3834221e-01  -3.5850321e-01   9.2665162e-01  -4.6553161e-01  -1.1287106e-01  -7.9904552e-01   2.8887580e-02   5.2080472e-01  -2.7588743e-01  -5.3052324e-01   2.7567289e-01  -7.2744225e-01   1.7694415e-01  -7.9718056e-01  -7.7160304e-02   6.2988384e-01  -9.2264634e-01  -8.1181620e-02   4.8673603e-02   7.4933833e-01  -5.7266835e-01   9.0715578e-01   8.5390304e-01   3.6933399e-01   1.4673647e-01  -4.1658981e-01   1.3441099e-01   9.9624067e-01  -9.8373290e-01  -9.4096299e-01   2.3511250e-02   4.4804797e-01  -4.7010088e-01   4.6675150e-01  -3.6616338e-02  -3.0709422e-01  -2.5737569e-01  -4.2697261e-01   6.9666026e-01  -8.1548871e-01  -4.2855652e-01   9.9457410e-01   8.5341145e-01   5.4040998e-01   9.2201294e-01   6.0808060e-01   6.7349879e-01   3.6129600e-01   8.5214930e-01   2.9751127e-01  -5.4390907e-01  -1.2661073e-01   7.9442437e-01  -5.2727390e-01   9.6044557e-01   2.5648372e-01   1.1737895e-01   4.6787128e-01   3.6174691e-01  -1.0735221e-01  -3.2137783e-01  -9.1041941e-01   7.8527857e-01  -4.0161662e-01  -7.9113792e-01  -7.5323618e-01   9.6230116e-01   9.1646378e-01  -1.9374358e-01  -2.6229531e-01  -9.8806674e-01   4.7847068e-02   5.9446643e-01   4.6118197e-01  -3.4762803e-02   6.1414871e-01  -6.8022314e-01   9.1488571e-01  -2.4706285e-01  -7.6373436e-01   7.7333793e-01   5.1402581e-01   2.0879844e-01  -4.9393560e-01  -1.0627379e-01  -7.9122830e-01  -3.7991982e-01  -6.8581593e-01  -6.3616187e-02  -8.7782276e-01   2.2487166e-01   6.2540708e-01   2.2931905e-02   4.6026198e-01  -4.0864405e-01   5.4550582e-01   4.3225471e-01   1.9803837e-01   4.2800397e-01   7.7527227e-01   5.9393687e-01  -5.8000133e-01  -7.6649204e-01  -3.1392202e-01  -7.6962309e-01   4.9986008e-01   7.1244773e-01  -3.7464532e-01  -4.6042267e-01   1.8201736e-01   5.3227496e-01  -2.4100308e-01  -9.6921472e-01   3.3094232e-01  -7.0079622e-01  -5.5163604e-01   7.1554208e-01  -4.8920855e-01  -4.7202180e-01  -9.6896929e-01  -3.9416142e-01   4.1295356e-01  -3.6325549e-01  -8.9220210e-02   6.6334509e-01   4.1063970e-02  -9.2624847e-02   4.4655529e-01  -1.3741669e-02  -4.3349826e-01   8.4737989e-01  -7.0186757e-01  -4.9519251e-01   6.6404818e-01   5.7998125e-01  -7.1485908e-01  -1.3819978e-01   6.2712290e-02  -2.6270800e-02  -8.4283082e-02  -7.0308698e-01   9.0801538e-03  -8.6907537e-01   3.3390091e-01  -2.5871829e-01   9.6541634e-01  -2.2754300e-01   3.9932538e-01  -7.2202086e-01  -9.9001922e-01   1.9285174e-01   6.7744668e-01  -4.8167868e-01   5.3057162e-01  -7.7122568e-01  -6.6195481e-01  -4.8562838e-02  -6.7646693e-01   7.4453775e-01  -3.1763737e-01  -5.6223742e-01   2.0960878e-01  -6.9430074e-01  -4.7464085e-02   3.9175978e-01  -8.5381432e-01   5.9271837e-01  -3.2597520e-03   2.2333866e-01   9.0510984e-01   5.3741255e-01  -2.4712087e-01   3.0553231e-01   9.8024950e-01  -7.1655107e-01   5.9265695e-01  -7.6076659e-01  -6.1280116e-01   4.4344322e-01  -6.4659833e-02  -3.7958464e-01   9.9743958e-01  -5.0607252e-01   8.9357653e-02   4.1355014e-01   8.4934833e-01   2.6226098e-01   2.1905136e-01   1.0136406e-01   2.3586712e-01   2.2608762e-02   1.1056963e-01  -5.9566338e-01   9.0989222e-01   5.5410029e-01   3.6160639e-01   7.7324053e-01  -2.2096632e-01   9.5403645e-01   9.1768216e-01   8.8753797e-01  -5.9591465e-01   6.6539347e-01  -3.8869965e-01  -6.6304134e-01   6.4183822e-01   3.0850508e-01   3.0027305e-01  -6.5370609e-01   6.0482891e-01   2.7946033e-01   3.9031480e-01  -1.4143378e-01   9.4104060e-01   5.7448818e-01  -9.2044956e-01   8.2208417e-01  -7.3728807e-01  -8.9284218e-01  -7.4514323e-01  -6.8204054e-01  -9.6358584e-01  -2.4991206e-01   6.6041965e-01  -3.2253607e-01   7.0763132e-01   5.3240319e-01   9.8882574e-01  -1.6670396e-01  -9.5927900e-01   3.3692191e-01  -7.0031583e-01  -6.6414302e-01  -7.1797449e-01  -5.3639034e-01  -6.7761709e-01  -4.0575895e-02  -8.4870860e-01   2.7806180e-01   8.5421346e-02   3.5625825e-01   6.0076901e-01   1.1468142e-01   2.6509755e-01   3.7085059e-01  -5.0242451e-01   8.3805931e-01   9.8265568e-01  -6.3243423e-01   8.0620436e-01  -3.8007607e-01   3.0866986e-01   4.7135427e-01   5.8121747e-01   5.8469684e-01   5.5720309e-01   3.8167464e-01   6.6334917e-01   4.0583230e-01   3.6168905e-01  -6.3555084e-01  -6.7609731e-01  -6.1037334e-01  -9.2585968e-01   9.4850141e-01   7.7996961e-01   8.0358760e-01  -2.0366808e-01  -4.6147224e-01  -2.8355657e-01  -1.0486690e-01   2.4692856e-01  -2.2677395e-02  -6.5902046e-01  -7.1369886e-01   1.4908161e-01  -7.9231461e-01   3.0178074e-01   5.2010269e-01   2.1801485e-01  -1.7463332e-01   4.1935028e-02  -7.3151465e-01   8.9360443e-01  -1.1492124e-01  -1.5865890e-01  -7.5815663e-01   1.1116315e-01   1.0558149e-01   6.0608342e-01  -7.0997465e-01   5.6936787e-01   6.4633487e-01   6.8562333e-01   2.6908021e-02  -2.4915819e-01  -6.2897336e-01   8.1003491e-01  -5.4254554e-01   1.5864123e-01  -1.8641605e-01   2.5995315e-01  -8.4085864e-01  -5.2392980e-01  -4.5171962e-02   2.0454116e-01   2.9009930e-01   4.6078642e-01  -6.2608100e-01   5.2432795e-01  -3.0680300e-01  -4.6519668e-01  -7.1438675e-01   2.4312914e-01   7.7153786e-01   7.7405363e-01   2.8090148e-01  -5.8893104e-01   2.5634270e-01   2.8949219e-01   4.0898232e-01   3.1947583e-01   6.0958003e-02   2.3755673e-02   6.2602141e-01   1.1023408e-01   6.6330785e-01   3.9300313e-01  -2.8998166e-01   5.2522017e-01   9.1536670e-01  -8.4955600e-01   2.1367336e-01  -4.9561637e-01   4.8951901e-01   8.4853945e-01   7.4785141e-01  -6.8002117e-01  -2.6014195e-01
  -6.7401287e-01   4.2378262e-02  -1.3284610e-01   2.7898269e-01  -1.7480663e-01  -7.9013043e-01   6.9446559e-01  -6.9858851e-01   4.7131096e-02  -2.7283658e-02  -9.6494719e-01   8.4022665e-01  -7.6957530e-01  -3.8873125e-01  -2.8236913e-01   6.6813148e-01   1.1086791e-01  -6.0038885e-01  -4.3382563e-01  -7.6472840e-01  -4.1545381e-01   6.2903051e-01  -7.8039060e-01  -3.2936090e-01   7.6409300e-01  -9.5921923e-01  -9.2807640e-01  -1.7361014e-01   9.0686681e-01   4.4159124e-01   8.8614156e-01   8.5233094e-01   3.3084929e-01   3.1037796e-01  -4.5312001e-01   3.0301939e-01  -5.2578003e-01  -2.9335120e-01  -9.5177793e-01   3.4889826e-01   3.0487080e-02   2.0594411e-01   5.7853255e-01  -6.9391740e-01  -5.4504265e-01  -3.7498668e-01  -4.9550911e-01   8.3006340e-01  -4.0168645e-01   9.7857926e-02  -2.4162131e-01  -4.8267762e-01  -5.4865685e-01   2.4297523e-01  -8.2736213e-02  -7.5220815e-01   3.7915214e-01  -3.5040702e-01  -3.1170387e-01  -4.6168211e-03  -1.0727982e-01  -1.7597402e-01  -8.3974974e-01  -6.5422786e-01   1.2241271e-01  -3.4408928e-02  -8.1265983e-01   6.4668140e-01   2.1818673e-01   2.9952059e-01  -4.2671689e-01  -6.0755379e-01  -6.4199069e-01   9.8910752e-01   5.3577028e-01  -7.0805635e-01   8.7976935e-01  -4.9981980e-01   1.1500808e-01   9.4261414e-01  -2.6860237e-01  -6.1179687e-01   5.3856519e-01  -6.8786236e-01  -1.7040070e-01   4.4487419e-01  -4.7045046e-01   7.6307511e-01   3.3880815e-01  -5.3460888e-01   8.0737684e-01  -4.1776586e-01   5.5679841e-01   8.0352245e-01  -1.3216835e-02  -7.9555863e-01  -6.5784306e-02   2.5937427e-01   3.7748012e-02  -7.9781185e-01   1.3424221e-01   2.5990812e-01  -3.2720738e-01   5.5265645e-01   6.1245903e-01   3.7532368e-01   6.7560080e-01   4.0395917e-01  -3.7117232e-01   2.1578961e-01   1.7828073e-01  -3.7607625e-02  -4.2169585e-01   3.0202176e-01  -3.9166047e-01   7.8080100e-01   6.3970968e-01  -2.7499264e-01  -5.6890480e-01  -2.9179646e-01   5.5186402e-01   2.3100856e-01  -7.7754271e-01   4.9017661e-01   9.5180927e-01  -7.4755738e-01   9.1689374e-01  -7.8995899e-01   3.0725211e-01  -3.3623653e-01   8.9869595e-01   6.5714847e-01  -6.7993915e-03  -9.0915974e-01   3.9592613e-01  -3.7725223e-01   5.2609373e-01  -2.6390931e-01   6.9147832e-01  -3.6478812e-01  -2.4628330e-01   1.7158703e-01  -2.1140033e-01   2.9966750e-01  -4.1545432e-01   3.1025319e-01   2.1767431e-01   5.9117981e-01  -6.2937500e-01  -4.4616313e-01   8.4443614e-01   1.7246595e-01  -1.3021482e-01   1.4593092e-01  -4.9509961e-01  -1.9156797e-01   3.3238107e-01  -8.8444188e-01   4.0355469e-01  -4.3087953e-01  -9.5197648e-01   2.5084244e-01  -2.8379985e-01  -6.2528721e-01   3.1440619e-01  -2.1815417e-01  -3.8206154e-01  -9.4762090e-01  -2.1130596e-01   5.7601677e-01   9.9398701e-02  -8.8874069e-01   3.4922891e-01   8.9618411e-01  -1.1815363e-01  -8.2400063e-01  -3.4994678e-02   1.4746193e-01  -3.8133572e-01  -4.3556042e-01  -9.4148781e-01  -9.5664679e-01  -2.2763439e-01   5.5010919e-01   6.7757928e-02  -3.7182807e-01  -7.4859399e-01  -6.0982242e-01   7.9729952e-02  -9.0169527e-01  -3.2548180e-01   1.0710187e-01   7.6915725e-01  -8.5557335e-01  -5.7946955e-01   1.9699500e-01   9.4418945e-01   3.6650969e-01   8.9135494e-01  -8.7487111e-01   1.8167235e-02  -1.8041821e-01   8.1195623e-01  -2.9056236e-01   5.9268997e-01   8.9210569e-02  -6.4607194e-01  -4.4592348e-01   9.9935229e-01  -1.1501339e-01   4.8475444e-01   7.9554032e-01   2.1020669e-02  -6.7553557e-01   7.7832385e-01  -5.8708900e-01   8.1491204e-01   2.3944850e-02   4.7295389e-01   7.6753082e-02  -6.1030271e-01  -8.3705780e-01  -7.9526813e-02  -7.7860886e-01  -6.9055635e-01  -3.7083827e-01  -3.7952894e-01  -3.0646549e-01   2.4310929e-01   9.8748323e-01  -8.2881899e-01  -9.9043758e-01   9.7919528e-01   4.3904132e-01  -6.3117950e-01  -3.1274399e-01  -7.6950615e-01   9.2717777e-01   3.2891478e-01   6.2428924e-01  -4.3203405e-01  -9.8885492e-01   8.8445092e-01   8.0963460e-01   7.5795258e-01   5.3562008e-01  -6.6556667e-01  -9.1142570e-01   8.0379021e-01  -1.8226337e-01  -1.9029494e-02  -4.8509782e-02   2.9657348e-01  -2.7585447e-01  -9.6980373e-01   2.8751846e-01  -8.3778827e-01   4.7619522e-01   1.8111561e-01   7.5500549e-01   9.8815498e-01   8.3665982e-01   3.9917314e-01   8.8843707e-01   8.6452731e-01   5.8559713e-01  -5.6346109e-01   4.1437985e-01  -9.1086702e-01   7.8452300e-01  -4.3424878e-01   4.5702736e-01   4.3568869e-01   8.7670879e-01  -7.8699597e-02   9.2242020e-01   1.8260604e-01   2.8784104e-01   4.5105299e-01  -9.3440532e-01  -2.7636700e-01  -1.3607703e-01   8.9335006e-01   4.0651877e-01  -6.4389554e-01   6.3230705e-01  -8.4078287e-01  -4.9867441e-02  -1.0762829e-01  -1.8462900e-01   4.9044106e-01   4.7808630e-01   4.8908831e-01  -7.4442463e-01   3.5749325e-01   7.9115593e-01   9.3650948e-01   5.5404004e-01  -2.9554045e-01   6.5128596e-01  -3.1772377e-01   7.2765713e-01  -8.4295107e-01   5.4968946e-01  -7.2060869e-01  -2.8620915e-01  -7.8720039e-01  -6.2275356e-01   9.7732771e-01   2.2233166e-01  -6.0562149e-01  -8.5601695e-01   2.8534991e-01  -7.3822609e-01   4.7829250e-01   4.4629160e-01   7.5944924e-01  -4.3060490e-01  -7.6679556e-01  -6.1943163e-01   2.6374984e-01   6.6527650e-01   1.4204799e-01   4.0788128e-01  -8.8071578e-01   7.7235633e-01  -6.7135476e-01   3.8717447e-01  -1.6696505e-02  -6.8296610e-01  -1.5494737e-01  -8.6706492e-01  -2.5274243e-01  -1.6794587e-01   5.5594380e-02   3.6857854e-01  -9.4566809e-01   3.9560818e-01  -3.6313690e-01  -7.3726070e-01   1.5149503e-01  -2.4858113e-01  -2.7450805e-01   7.2512301e-01   8.6120521e-02   2.7444507e-01  -3.4169317e-01   7.9150059e-01   1.2519075e-01  -3.0498247e-01   3.3269876e-01   9.5350980e-01   1.8257293e-01  -6.2292357e-01  -8.9275635e-01  -1.9079442e-01   2.2989149e-01  -7.4565721e-01  -4.3175835e-01  -2.3576769e-01   2.4513891e-01  -7.3258517e-02   4.8561072e-01  -4.4284486e-01  -4.6024311e-01  -7.1751131e-01   6.8583134e-02   7.9793558e-01   8.8945214e-01   6.7073446e-01   1.0409342e-01   8.4756338e-01  -5.3303509e-01   3.8990768e-02   1.6791139e-05   3.8744560e-01   8.1309997e-01   4.1935938e-02   3.9526432e-01   8.6083431e-01   9.8752413e-01   3.7684060e-01   9.8927911e-02  -4.7349186e-01  -8.9699905e-01  -3.3657265e-01  -9.7501221e-01   6.0235784e-01  -8.4794317e-01   4.1602601e-01  -8.2495474e-01   5.1080362e-01   6.1630829e-01   8.8321431e-02  -5.1486323e-01  -3.9582364e-01   2.2647560e-01   9.1090005e-01  -4.4326932e-01   2.9553055e-01  -9.8105670e-01   5.4308104e-01  -4.6421039e-01   2.9353928e-01   9.9137971e-01   4.0827183e-01   5.4688163e-02  -3.6105387e-01   6.3928713e-01  -1.6201545e-01  -3.7219264e-01  -1.2917910e-01   6.9124960e-01  -1.5883520e-01   6.5463039e-01   6.8229909e-01   6.2328114e-01   5.3753498e-01   2.4136202e-01   8.9917699e-02   4.1776296e-01  -8.6027796e-01  -5.5441363e-01   4.3709335e-01  -3.0973623e-01  -2.6677565e-01  -9.2293697e-01  -3.2029666e-01   6.9991365e-01  -8.1047804e-01   3.2837679e-01   1.5611876e-02  -8.2829446e-01   6.9451747e-01  -2.3791633e-01   4.2805224e-01   5.6633994e-01   3.4162326e-01  -7.0551638e-01  -3.5356080e-01  -7.3834686e-01  -8.5689790e-01   4.2711069e-01   5.7232023e-01  -7.0442877e-01   7.0788866e-01  -5.2888471e-02  -8.9915193e-01   4.3437070e-02   3.7635146e-01  -6.9558543e-01   5.9863046e-01   8.6705040e-01   1.6220126e-01  -2.4040642e-01  -8.8927271e-01  -8.4425911e-01  -1.6772935e-01  -6.4321818e-01   8.6686500e-01   7.6380982e-01   8.8994076e-01   8.7904976e-01  -6.0693692e-01  -5.2402646e-01   4.1324271e-01  -4.0362818e-01  -3.9259923e-01  -5.4400630e-01  -5.6810406e-01  -4.3869447e-01  -3.0631885e-01   1.0452371e-01  -6.4442288e-01   8.6974997e-01   3.7473198e-02   1.3646830e-01  -8.7198800e-01   6.5496602e-01  -1.0893814e-02  -7.8801588e-01  -8.0400741e-02   6.5881335e-01  -3.5752611e-01  -6.7305113e-01   3.3227661e-01   4.3591469e-01   7.2327110e-01   1.1226068e-01   3.9043220e-02  -8.5668313e-01   2.3444549e-01   8.6271554e-01  -3.1466337e-01   7.7665057e-01   4.2795368e-01  -8.1939371e-01   4.2342817e-01   7.2691138e-01   5.1780304e-01  -4.0673358e-01  -8.8927025e-01  -2.5761963e-01   2.4556156e-01  -3.0273259e-01   1.6600089e-01  -9.6829456e-01  -1.6922899e-01   6.0217631e-01  -8.2387529e-03   9.1613916e-01   3.5343371e-01   1.1605333e-02  -7.4302789e-03   7.1317311e-01   7.8241455e-01  -1.0177736e-01   7.8105206e-01  -6.4003377e-01  -7.8690064e-02   1.8077070e-01  -4.6014637e-01   7.7356657e-01   1.9122007e-01  -7.2006714e-01   8.1368735e-01  -9.6901375e-01  -4.3966459e-01   5.7927957e-01  -3.8868112e-01  -1.4729247e-01   8.9955742e-01   1.7500325e-01   5.4488429e-01  -3.6965143e-01   8.2898586e-01  -2.4208049e-01   7.5186796e-01  -5.7129893e-01   2.1285227e-01  -8.0349336e-01   7.4018475e-02  -8.2215395e-01  -1.0941325e-01  -2.3396057e-01  -5.4517239e-01  -5.5460591e-02  -6.3271647e-01   3.6206044e-01   4.6919781e-01  -1.9757804e-01  -7.5163304e-01  -4.0254291e-01  -7.2681339e-02   2.6060524e-01  -9.0864585e-01  -8.9119771e-02   9.2616086e-01  -5.7528558e-01   5.7836300e-02  -3.9545901e-01   5.3342076e-01   9.6333611e-01  -4.7371452e-01   8.0766868e-02   6.8890685e-01   3.4425876e-03  -9.8447327e-01   5.0151829e-01  -4.2310921e-01   3.4489988e-01  -6.9605100e-01  -6.6521281e-01   6.4847748e-01   2.5792964e-01  -3.0731400e-01   5.4230297e-01  -4.0662099e-01  -6.6051862e-01   4.5520015e-01   2.5274425e-01   1.0993665e-01  -9.8218498e-01   8.6774598e-01   7.4951595e-02   3.7083562e-02  -7.4421087e-01   9.0185758e-01   4.4436151e-01   3.8492331e-02   8.4482725e-01  -7.7251116e-01   5.6452525e-01  -2.5331406e-01  -6.7988527e-01   7.7606879e-01  -4.9487639e-01  -2.4625979e-01   8.3507030e-01  -2.7018009e-01  -3.0813517e-01  -9.0294795e-01  -2.6942106e-01  -9.7016232e-01   7.7694670e-01   9.5681307e-01  -7.5133237e-01  -8.8254391e-01   6.6791896e-01  -7.9127783e-01  -8.2409732e-01  -5.2388979e-01   5.4380270e-01  -5.2682552e-01  -1.2948035e-01  -2.6726865e-01  -9.2207477e-01   9.2142968e-01  -6.7913841e-01  -4.6402902e-01   8.8085514e-01   8.4319677e-01  -7.5028041e-01  -9.5679126e-01  -4.0981390e-01   8.8745024e-01  -1.1647105e-01  -4.1219294e-01   7.7918973e-01  -5.3377873e-01  -9.6460280e-01   2.6726405e-01   2.3943919e-01  -8.9902985e-01   7.2105685e-01   9.8632587e-01   7.2691266e-02   5.4258340e-01  -5.1835433e-01  -3.6912509e-02   3.1811989e-01   4.6055533e-01  -1.1887744e-01  -4.8978171e-01   4.4159886e-01   3.5345704e-01  -9.9850232e-01  -9.8779553e-01  -7.7627079e-01   2.0697434e-01  -9.1306757e-01   5.8730018e-01  -8.3017817e-01   5.4750536e-01  -1.9700714e-01  -3.0093330e-01   3.7686571e-01   3.1663457e-01   3.8220687e-01  -4.1653766e-01  -8.7777672e-01  -6.7320390e-02   3.1504462e-01  -8.3690551e-01   3.9068866e-01  -6.9937668e-01  -4.7303561e-01   7.6371664e-01   9.8814548e-01  -9.6552720e-01   3.8944293e-01  -7.3523159e-01   2.7858963e-01  -8.7484140e-02  -3.8999663e-01   4.2949593e-01  -8.0170123e-01  -6.1655499e-01  -4.0510962e-01  -8.3494764e-01  -8.7159759e-01   7.4347088e-01   9.3176787e-01  -4.8948127e-02  -5.2092765e-01  -2.7349809e-01  -3.9545835e-01  -9.1637349e-01   2.1036493e-01   5.3072977e-01   6.0894306e-01   6.8307323e-01  -9.9872478e-01  -3.0310908e-01   2.7899671e-01   2.2945617e-02  -3.2940790e-01  -8.8881362e-01  -8.9750641e-01  -1.7239763e-01   8.8168511e-01  -9.4577986e-01  -4.2368315e-01   8.1080303e-01   1.2435431e-01  -5.2489908e-01  -4.9368544e-02  -7.6882779e-01  -7.8672788e-01   8.4821203e-01   4.3745840e-01  -5.6864978e-02  -5.6457428e-01  -6.2598667e-01   6.0856698e-01  -5.0832246e-01   8.9472001e-01   6.4414525e-01  -4.6783736e-01   4.9948068e-01  -6.3803536e-01   1.5259407e-02   2.4360112e-01   5.1963288e-01   5.2105680e-02   5.7005426e-01  -8.8780538e-02   3.3609680e-01  -6.2038436e-01  -5.1701507e-01   1.0053115e-01   3.6621238e-01   1.5758623e-02   3.4161806e-02  -6.0290277e-01  -7.0363732e-01  -5.1772793e-01   1.9451913e-01  -4.5063528e-01  -2.6084368e-01   1.0820467e-01  -8.8120161e-01   5.1607627e-01   8.7237653e-01  -2.8073122e-01   2.9125399e-01   3.2433190e-01  -2.1346192e-01   8.2924862e-01   8.8194174e-01  -3.1989571e-01  -3.7276609e-01  -2.7926301e-01   3.1223040e-01  -7.7388883e-01  -2.3122603e-01  -3.9812565e-01  -3.2256811e-02   1.3013150e-01   6.3787113e-01   4.0354711e-01   8.9518237e-01  -9.7647416e-01  -2.0709915e-01   6.2014675e-01   3.1047127e-01   6.8427781e-01   8.1703830e-01  -1.4514815e-01  -4.1010438e-01   8.5819561e-02  -3.9404138e-01  -5.8036508e-01   2.7274520e-01  -6.3666982e-01   1.0323292e-01  -8.2052352e-01  -4.7441041e-01  -4.4097752e-01  -8.3110251e-01   3.8664887e-01  -1.9551730e-01   2.5626843e-01   2.4201090e-01   3.1596302e-01   6.0600876e-01  -9.2851902e-01  -7.3643975e-01  -9.3333793e-01   8.8481515e-01  -7.5502996e-01   2.4050564e-01  -8.8524609e-01   5.7189497e-01   1.6220148e-01  -1.2210535e-01  -5.8913742e-01  -2.9299621e-01  -4.6111632e-01   8.0488786e-02  -2.4824908e-01   5.8738999e-01  -6.5812027e-01   1.1765677e-01  -7.2792142e-01   4.8398332e-02   8.7634752e-01   6.9331497e-02   8.9064178e-01  -4.3218039e-01   6.7317492e-01  -1.9022007e-01  -5.0431305e-01  -6.3168991e-01  -2.3298835e-01  -9.6117653e-01   2.8873905e-01  -3.2234384e-01   6.1926201e-01  -4.8933725e-01   3.5892638e-01  -3.9505486e-01  -5.1043735e-01  -1.5632212e-01  -4.8715156e-02   8.7212457e-01   4.3244673e-01   1.8271365e-01  -9.5156171e-01  -4.7088629e-01  -4.8389432e-02  -5.6312601e-02   9.3044004e-01  -8.1127828e-01   3.5751857e-01  -6.7397950e-01  -2.3083181e-01  -9.0886215e-01  -8.2898691e-01   1.4898157e-01  -5.4374312e-01  -3.4251498e-01   4.6597875e-01  -3.6393206e-01  -9.9634811e-01   8.6500660e-01   7.3763294e-01  -5.1153811e-01   5.5523128e-01  -6.7905067e-01  -2.4237969e-01   8.4147441e-01  -3.4236900e-01  -6.0599317e-01   9.0771908e-01   7.2023150e-01  -5.3156116e-01  -1.7449888e-02  -4.6539464e-01   5.2540141e-01   7.3438113e-01   9.1804894e-01   3.4717878e-01  -4.8865950e-01  -6.9933277e-01   2.8505419e-01  -5.3389740e-01  -3.5019875e-01   5.0268232e-01  -2.4855732e-01  -4.1354869e-01   8.7091905e-01  -9.6739030e-01  -5.5413025e-01   6.3362742e-01   5.8376000e-01  -1.0777284e-01   6.9158050e-01  -6.5731769e-01  -5.1524361e-02   8.4936427e-01  -9.4500336e-01   7.3260901e-01   5.3845603e-01  -2.8861988e-01   3.1661979e-01   1.6919040e-01   5.9571236e-01   1.7174490e-01   3.1961541e-01   6.2730364e-01   6.6269166e-01   1.6758207e-01   3.8124568e-01   8.6635807e-01   6.4649772e-01   6.5915658e-01  -7.9657534e-01  -4.2165667e-01   1.7026196e-01   5.6300383e-01  -6.0948010e-01   3.2900229e-01  -7.2484560e-01   3.5069148e-01   3.7410777e-01   5.3592439e-01  -8.2268321e-01  -9.1028838e-01   3.6131183e-01  -6.4211099e-01  -1.8774626e-01   2.2137045e-01   3.4760966e-01   1.4203625e-01  -2.1510922e-01   9.4666000e-01  -3.4685654e-01   1.7048597e-01   3.0203512e-01  -7.4599246e-01   5.6315693e-01   5.2457363e-01   9.7441615e-01  -9.4292232e-01  -5.5149858e-01   1.8502612e-01   9.0918059e-01   5.1813643e-01  -7.9399747e-01  -5.5247685e-01  -8.9887292e-02  -4.8640613e-02  -9.6993150e-01  -2.1148501e-01  -8.7381477e-01  -8.7033001e-01   4.8029852e-01   6.4967166e-01  -9.8815963e-01  -1.8542398e-01   2.7066147e-01   7.2718400e-01  -1.8818125e-01  -8.5834182e-01   8.0052242e-01  -2.6575142e-01  -4.3280413e-02  -3.2588778e-01  -3.6660429e-01   8.0486609e-01  -8.9811620e-01   2.6824792e-02  -5.5328946e-01   7.5634222e-01  -7.4055063e-01   6.6735515e-02  -9.7034848e-01   4.4124634e-01  -6.2341690e-01  -6.9764218e-01   8.3882381e-01   3.2064574e-01   5.4858169e-01  -4.3678539e-01  -8.7636109e-01   9.7258165e-01  -7.5685330e-01   6.4971538e-01  -8.9043425e-01   2.5643595e-01   1.3947135e-01   2.6209919e-03   6.9917045e-01  -9.5005291e-01  -4.1776778e-02   9.5655349e-01   3.9552177e-01  -3.7621400e-01   7.4502659e-01  -7.5200874e-01   6.5539450e-01   8.6218070e-01   3.6006872e-01   1.4238091e-01   5.4483340e-01   9.4639922e-01  -1.7708853e-01   4.4571006e-01  -1.4488785e-01  -8.4878677e-01  -2.5454577e-02  -8.0584683e-01   6.3414647e-01  -9.6362229e-01   5.3942601e-01   4.2402464e-01  -4.0894663e-01   5.3361217e-01   5.4965765e-01
  -4.3367181e-02   5.8224442e-01  -7.0364455e-01   5.5306432e-01   5.1398546e-01   2.7738243e-01  -3.5955544e-01   8.2770297e-01  -1.0737881e-01  -9.2126111e-01  -2.5424915e-01  -7.5905194e-01   8.9067097e-01  -2.9037620e-01   8.2819087e-01  -1.4525251e-01   4.6134083e-01  -4.0444064e-01   7.8813138e-01   1.4858628e-01  -2.2349205e-01  -9.8747858e-01   6.0661064e-01   9.6943856e-01   3.8737788e-01   7.1756153e-01   7.9189207e-01   3.6424249e-01  -7.6857054e-01  -3.9402890e-01  -6.0366589e-01   2.6761067e-01  -7.0949710e-01   6.2699879e-01  -6.3871626e-01  -8.8900719e-01   3.4788387e-01  -7.9364227e-01   4.5510659e-03   7.8602747e-01  -6.0768808e-02   8.5737524e-01  -8.7268637e-01   1.6391505e-01  -6.2036305e-01  -5.8670181e-01  -7.3961352e-01  -5.5230941e-02   9.8053359e-01  -6.0241809e-01   7.3312131e-01   1.2949141e-01   3.0402189e-01  -8.3797481e-01  -1.8255717e-01   9.3896926e-01   2.3669157e-01   9.3362847e-01  -7.5588279e-01  -9.8914525e-01  -2.8980440e-02   6.4416600e-01  -8.1780669e-01  -2.2198122e-01  -6.9259865e-01  -9.7427576e-01  -1.4158026e-01   7.2969687e-01  -6.1730306e-01  -6.3143604e-02   8.0857869e-01  -1.2251194e-01  -1.4051296e-01  -2.6349904e-01  -6.8029633e-01   4.9800310e-01   3.9170764e-01   3.3038438e-01   1.5785378e-01  -9.8063895e-01   6.8655496e-01  -4.2778566e-01  -6.4838685e-01   1.0800836e-01  -5.5222255e-01  -4.8346481e-01  -8.3812658e-01  -5.5949679e-01  -8.6719215e-01   9.2596507e-01   6.8241906e-03   7.3872965e-01  -3.4619122e-01   1.2863003e-01   5.6593251e-01   1.8122818e-01   7.7240642e-01  -4.2381719e-01   6.6269824e-01   5.7518856e-02   3.0948883e-01   1.4547438e-01  -2.7027590e-01  -6.9955181e-01   4.0753292e-01   3.9919128e-01  -3.5469833e-01  -8.5718125e-01  -9.0433074e-02  -4.9560402e-01  -1.3587437e-01  -9.5119287e-02  -9.7975105e-01  -6.6799515e-01  -7.6359105e-01   3.1286003e-01   1.3336738e-01  -5.0306040e-01  -7.7457412e-01  -1.0826306e-01  -3.5719988e-01   4.2409338e-01  -3.4957618e-01  -9.0151074e-01   5.4683938e-01  -1.0056889e-01   4.9078813e-01  -4.6485865e-01   2.6473904e-01   1.4211405e-01   4.4700847e-01   8.7950081e-01   6.4828655e-01  -3.2150112e-01   8.1542799e-01   2.2454571e-01  -5.3214103e-02  -9.2550984e-01   6.2010995e-01  -5.8031561e-01  -7.4955984e-01  -2.0197828e-01  -3.9334616e-01   5.6198241e-01   6.4387124e-01  -3.5029672e-01   6.4596741e-01  -8.4405399e-02  -9.1499495e-01   1.3357998e-01  -4.4001977e-01   7.6259264e-03   6.0128607e-01  -2.0958189e-01   5.5427972e-01   8.1019057e-01   4.8026449e-01   8.2368094e-01  -6.4105087e-01  -3.6051058e-01   6.2565465e-01  -9.7356571e-01   6.3840836e-01  -1.3845026e-01   7.0577322e-02   9.6678139e-02   7.9639699e-01   7.3674070e-01   5.2075363e-02   9.4416302e-01  -9.0411441e-01   9.6548010e-01  -8.9529321e-01   2.0371633e-01  -2.4192851e-01   2.6652627e-01  -2.8173032e-01   5.9520152e-01   8.4719535e-01   3.9021098e-01  -3.7189640e-01   5.5784649e-01   5.3733643e-01  -6.5705657e-01   9.9091710e-01  -6.9879046e-01  -3.0461766e-01   1.1900575e-01  -4.9474648e-01   1.1035921e-01  -5.4551687e-01   4.1624186e-01  -5.4569022e-01   5.4908154e-01  -3.3850602e-01   3.0795353e-01   9.6199766e-01  -4.0634618e-01  -4.1495926e-01   1.1643787e-01   3.6376603e-01   7.1068156e-01  -3.2482898e-01   7.9965756e-01   3.3849336e-01   5.1572257e-01  -4.5994707e-01  -1.4312691e-02   3.3423582e-01  -6.5412529e-01   6.5204168e-01  -8.6759673e-01   2.1763615e-01  -1.7949417e-01  -4.3717217e-01  -3.1105202e-01  -2.3929779e-01  -4.2357864e-01  -3.1182182e-02   6.5665910e-01  -3.7304243e-01  -4.3642986e-01   5.6798724e-01   2.1485272e-01  -2.2764767e-01   9.2764181e-01   6.7365832e-01   9.4468489e-01   1.3601105e-02   5.7839515e-01  -8.0085861e-01  -4.4508520e-02  -8.8736993e-01  -4.6941365e-01   9.2484299e-01   7.9306523e-01   4.8952299e-01  -4.7576361e-02   8.7310744e-01   7.1642488e-01   6.7324999e-01  -3.6706872e-01  -3.5931201e-01  -8.2487446e-01   4.8768668e-01   5.2303916e-01   4.0499202e-01  -8.2362267e-01  -9.9652870e-01  -4.0169814e-01  -5.2558707e-01  -7.9447596e-01  -3.2882263e-02  -9.1659739e-01  -2.5553415e-02   1.0501924e-01  -5.2251517e-01   2.3463513e-01  -3.6460260e-01   2.6373895e-01  -7.6177707e-01  -9.5628433e-01   9.2770242e-01  -6.0067325e-01  -7.9719718e-01   9.4558291e-01   2.7632859e-01   6.7728951e-01   3.8610355e-02   6.9926935e-01   9.0507645e-01   3.7830725e-01  -8.5678904e-01  -4.6822138e-01   2.2166214e-01   9.3448652e-01   9.8089282e-01  -3.4572934e-01  -2.0352003e-01  -4.2605195e-01  -1.7756515e-01  -8.5986770e-01   6.9044931e-01  -6.8086642e-01  -5.8657695e-01   4.9596786e-01  -4.7909727e-01   5.5220302e-01  -7.0572943e-01   3.4547623e-01   1.7162799e-01  -6.2559125e-01   1.6113132e-02  -2.3568649e-01   2.5528040e-01   4.8719927e-01  -3.3534431e-01  -8.6002533e-01  -8.2385384e-01   9.6744116e-01   6.3323946e-01  -5.7609672e-01  -3.7513639e-01   3.2970848e-01   4.0158242e-01   4.2998845e-01  -4.8902877e-01  -4.6958897e-03   6.1020981e-04   1.4290621e-01  -3.2799942e-01  -2.9631445e-01   5.7734699e-01  -6.7817637e-01   2.4564852e-02  -9.7639450e-01   9.8256616e-01   2.7117724e-01   2.0467653e-01  -4.9577535e-01  -8.6326957e-01  -3.5220080e-01  -3.6557879e-01   6.2843581e-01  -6.4863575e-02  -8.3609426e-01   1.7786467e-01  -9.4709792e-01  -2.3312929e-01   1.4906162e-01  -6.9018123e-01  -5.3474464e-01   5.2380868e-01   3.0553648e-02   4.9876384e-01   1.0200520e-01  -2.3347945e-03   5.4754084e-01   1.5031749e-01  -8.0349230e-01   5.2072412e-01  -8.8971231e-01  -3.7596984e-01   2.0611612e-01  -4.6104271e-01   8.4893470e-01  -9.9029977e-01  -2.8986919e-01  -6.4068708e-01  -8.5472718e-01  -4.3272264e-01  -3.2802854e-01  -4.9935820e-01  -7.1619256e-01   4.0430068e-01  -5.0856533e-01  -9.7698644e-01   4.7874941e-01   6.3400189e-02   1.0227710e-01   6.5278108e-01   6.8397075e-01  -2.9111572e-01   3.2865000e-01  -4.2191066e-01  -5.4068042e-01  -6.4201410e-02   8.5521473e-04   2.0014103e-01  -4.4827519e-01   6.8368387e-01   5.6128158e-01   8.3908716e-01  -7.2717907e-01  -7.8046491e-02  -4.5297158e-01  -6.0689821e-01   5.8337402e-01  -3.9680135e-01  -6.0462426e-01   3.2872772e-01   5.8305119e-01   3.3237106e-01   3.8492867e-01   8.6466726e-01  -1.0502181e-01   6.5978637e-01  -5.4492228e-01   1.6094419e-01  -5.3429920e-01  -6.0269550e-01  -5.5469139e-01  -4.1969618e-01  -9.1318649e-01   3.8143780e-01   1.5835249e-01  -2.1570915e-01   6.7625513e-01   4.5213125e-01   6.8499074e-01   2.8116964e-01   3.6184888e-01   2.1912022e-01   9.9025212e-01   9.9469156e-01  -1.4076635e-01   7.1912723e-01   9.6222705e-01   7.6318847e-01  -4.4845961e-01  -6.4627287e-01  -4.3845615e-02   9.8252557e-01   3.1433703e-01   1.1988301e-01  -6.9374819e-01   9.8614931e-01   9.6650707e-02  -4.7862041e-01  -5.8076866e-01   9.7960003e-01  -1.4781509e-01   2.9151458e-01  -4.8407892e-01   8.9603835e-01  -2.2058509e-01  -9.8245355e-01   2.4209629e-01   4.2862667e-01   1.8980951e-01   8.4899860e-01  -6.7667846e-02   8.0153951e-01   1.4551280e-01  -5.8183538e-01  -3.6300129e-01   8.0625392e-01  -7.6783336e-01  -1.0643123e-01   9.9815483e-01  -9.8287662e-01  -4.0743294e-01   1.8843177e-02   8.1110332e-01   9.7557770e-01  -8.0629874e-01   3.2148249e-01  -5.2837734e-01   5.8440117e-01   3.8588929e-01   3.1917433e-01   8.0289033e-02  -5.5700943e-01   9.0520069e-02   6.7400692e-01  -8.7170291e-01  -8.9207619e-01  -8.7762830e-01  -1.3057598e-01  -9.6477172e-01  -7.3193292e-01   4.9939361e-01  -4.7425461e-01  -9.9514391e-01   9.8057098e-01   6.0438209e-01   9.1369279e-02  -1.7989542e-01   5.9920630e-01   4.5629115e-01   3.6308732e-01   9.6315889e-01  -7.6497519e-01   5.4205544e-01  -5.0001186e-01  -9.2327692e-02   9.8072235e-01   5.5926737e-01   5.8613099e-02   4.8502435e-01   3.9067836e-01  -2.7092560e-02  -3.4946051e-02   9.8828162e-02  -8.9823383e-01   1.6795434e-01  -7.8604918e-01   6.1453811e-01   1.7732262e-01   5.8449365e-01  -3.1860780e-01  -5.4107515e-01   5.5207990e-01  -2.6823741e-01   4.6083099e-01   8.0031421e-03  -3.4724037e-01   4.8691066e-01  -8.8463426e-01  -3.7843503e-01  -2.9561871e-01  -2.2259532e-01  -8.0705932e-01  -7.7228634e-01  -8.5580480e-01   8.8208347e-01   7.5727721e-01   9.1040863e-02   2.2125073e-01  -4.9831791e-01   3.4386071e-01  -1.8112368e-01   6.6457640e-01  -4.0887292e-01  -2.6033479e-01   9.2240826e-01  -5.5784597e-01  -7.8947753e-01  -6.4089199e-01  -6.2931568e-01   4.4653975e-01   8.3406300e-01  -2.0232149e-02   2.1124306e-01  -7.0882905e-01  -7.0437996e-01  -6.2060330e-01  -6.3524830e-01  -4.6753453e-01  -4.7357045e-01  -5.8247788e-01  -5.7038536e-01  -7.5837323e-01   6.7358795e-01   5.2530891e-01   9.0854056e-01  -1.5811172e-01  -1.9497427e-01  -6.3742082e-01  -5.3546777e-01   2.7407964e-01  -5.9815693e-01   7.3821408e-01   5.9226752e-01  -4.3772782e-01   2.4654370e-01  -1.6347391e-01  -1.2384437e-01  -4.7424283e-01   3.1832801e-01  -3.1789488e-01  -2.2584764e-01   1.8388840e-02  -6.0794907e-01   8.6425168e-01  -1.7632058e-01  -9.5596969e-01  -2.0809122e-01   6.8305138e-01  -1.6325147e-01   8.5539693e-01   6.7926256e-01  -9.3133671e-01   2.6579920e-01   5.4766286e-01   4.5287783e-01  -9.5238817e-01  -5.5974163e-01  -2.7419777e-01   6.4577976e-01   9.7554396e-01   9.9433984e-01  -2.3596768e-01  -3.4383970e-01  -5.3030317e-01  -7.7817917e-01  -2.0745220e-01   4.2982768e-01  -8.6584667e-01  -3.7047476e-01  -5.6534573e-01   8.7664729e-01  -2.9335315e-01   7.1972130e-01  -4.1756222e-01  -9.1698147e-01  -7.6047039e-01   7.1200095e-01  -6.3183894e-01   7.7505278e-01  -6.4295297e-01  -4.0664410e-02   6.6991744e-01   6.5574455e-01  -6.8237214e-01   2.9272370e-01  -9.9286041e-01  -7.7696459e-01  -5.0794773e-01   9.5810277e-01   8.6248710e-01   9.8430594e-01   1.6389553e-01   6.4229118e-01  -2.1888947e-01   1.9117892e-01  -7.5289634e-02   9.2452504e-02   5.4892919e-02   7.7655456e-01   8.7928489e-01  -7.1369805e-01  -6.7442209e-01   3.5426818e-01  -9.4941026e-02   3.2752171e-01   4.8759757e-02  -9.8164147e-01  -6.1474862e-01   9.6671538e-01   2.1329312e-01  -5.7412684e-02  -9.6795082e-01   4.4625542e-01   3.4584039e-01   1.7109711e-01   5.9367857e-02  -9.9553939e-01   2.9304811e-01   4.7436814e-03   5.9584878e-01   3.2793482e-01   6.8490098e-01   6.3198542e-01  -2.8016613e-01   1.0982723e-01  -8.3782164e-01   2.8610074e-01   9.9789777e-01   8.5040739e-01  -6.4945320e-01  -3.9122642e-01  -6.5582738e-01   6.4067304e-01  -2.3261027e-01   7.8220694e-01   7.7047206e-02   5.4101963e-02   2.9742176e-02   4.6092048e-01  -7.2408117e-01  -9.3186610e-01  -1.9054017e-01  -6.3250718e-01   5.2441760e-02  -1.2524288e-01  -7.0029105e-01   9.5701359e-01  -5.1811529e-01   4.8610214e-01   5.5764258e-01   2.2539056e-01   5.2495478e-01   8.6748383e-01   1.3642857e-01   5.0428799e-01  -6.5731953e-01   1.9757149e-01  -9.9104187e-01  -7.1106283e-01   7.8399547e-01  -2.0455157e-01   1.3598813e-01   1.5152171e-01  -7.7504551e-01   6.0632589e-01  -6.6503663e-01  -6.6051195e-01  -7.5706819e-01   7.8908688e-01  -7.2059455e-01  -4.4080664e-01  -4.0728007e-01  -2.0089949e-01  -6.0013130e-01  -4.1044239e-02  -4.0619200e-01  -5.9141755e-01  -1.7281199e-01  -1.9803953e-01   3.1378778e-01   2.6082500e-03   5.9791717e-01   1.8681347e-01  -7.9837285e-01  -1.6331810e-01   8.7723316e-01   3.4604495e-01   6.9410172e-01  -4.0766559e-01   8.3199799e-01   6.4763687e-01   2.0985580e-01   8.3782200e-01  -1.6532209e-01  -3.4679068e-01   8.5628954e-02  -5.9359373e-01  -5.7484278e-01   5.6464636e-01   1.3003584e-01  -3.2005369e-01  -5.1904991e-01   8.4291600e-01   1.2206424e-01   5.2844483e-01  -7.9620858e-01  -3.7428613e-01   3.1275590e-02  -9.4781430e-01   2.4628395e-01   7.9586444e-01   5.6053608e-01  -5.3704671e-01   7.8267102e-02  -1.2071889e-01  -7.3312474e-01  -6.4384824e-01  -4.8084496e-01  -3.9044146e-01  -9.9512711e-01  -2.0861859e-01  -3.0812272e-01   4.5253755e-02   3.3894748e-01  -6.8837950e-01  -8.7976662e-01  -2.1621402e-01  -7.6123742e-01  -5.7615415e-01   7.9777438e-01  -3.5613776e-01   5.8724255e-01   9.8853244e-01  -6.0228282e-01  -4.3386295e-01  -8.1053229e-01  -1.8686432e-01   1.2873635e-01   3.0487921e-01   2.9472846e-02   2.6363357e-01  -1.8693488e-01  -3.2934850e-01  -1.3616107e-01   5.6060818e-01  -7.1950220e-01   4.5373474e-02  -3.7026280e-01  -1.9484339e-01  -7.8766931e-02   6.3510255e-01   8.0113587e-01   3.7448484e-01   2.3169375e-01  -8.6449916e-01   4.5672547e-02   1.7542268e-01  -6.7396931e-01   7.4632800e-01   9.7778375e-01  -3.3876320e-01   7.0735594e-01  -7.6801643e-01  -3.8860899e-01   1.1033161e-01  -9.9796266e-01  -9.2735187e-02  -4.9729115e-01   5.4062830e-01   6.7278844e-01  -9.4014106e-01  -9.9035665e-01  -3.5975879e-01  -6.5666067e-02  -2.4177249e-01  -6.6795329e-01  -4.2399551e-01  -2.5078323e-01   8.2620511e-01  -9.1214405e-01  -5.9651007e-02   9.4941071e-02  -1.9876181e-01   6.9859870e-01  -2.8445535e-01  -5.0963955e-01   5.0406472e-01   3.9598986e-01  -3.4035474e-01   5.8684264e-01  -1.5588063e-01   1.9919168e-01   3.4894004e-01   7.4492260e-01   6.4387760e-01   1.2681906e-01  -6.5017713e-01  -4.2652948e-01  -1.9476908e-02   8.6170772e-01  -9.1950785e-01  -8.1563322e-01  -7.6938712e-01  -5.3322718e-01   1.7375598e-01   5.7982248e-01  -9.5177748e-01   4.0718830e-01  -2.2804553e-01  -4.7841832e-01  -1.2352556e-01  -1.3566196e-02   4.7712364e-01  -6.0184355e-01  -6.5876064e-01  -8.9877597e-01  -6.8517871e-01  -5.1291738e-01   1.5003298e-01  -9.3954700e-01  -3.7854719e-01   5.3913932e-01  -8.3978087e-01   4.7075734e-01  -5.0994089e-01   1.6710372e-01  -1.6319919e-01   4.4155226e-01   3.5532631e-01   3.4282430e-01  -1.9732437e-01   5.7352398e-01  -9.8544382e-01   6.8668333e-01   1.1562472e-01  -3.4441520e-01   1.2643573e-02  -8.8321398e-01  -6.9149165e-01   1.4539999e-01  -8.4155888e-03   2.5996730e-01   6.3962341e-01  -8.8193533e-01   7.5755062e-02   9.9270280e-01   1.4543291e-01  -9.6721728e-01   9.0692829e-01  -8.8408492e-01  -2.2994818e-01  -6.9849697e-01  -1.7407430e-01  -9.2202542e-01  -7.0794454e-01  -7.1659976e-01  -6.9577820e-01  -4.7515528e-01  -7.7264278e-01  -6.2646985e-01   5.5275406e-01  -6.3391418e-01   7.2044751e-01  -6.5284447e-01  -9.6297846e-01  -3.2861911e-01  -3.4633600e-01   3.7204353e-01   9.9187367e-01   6.0791923e-01  -8.0262573e-01   1.8703006e-01  -6.3489342e-01   5.0431097e-02   1.9458178e-01   2.3614742e-01   3.0562527e-01  -2.3608794e-02   1.0099365e-01  -2.5880817e-01   1.8888332e-01   3.7709595e-01  -1.5718454e-01   4.8343575e-01  -4.0967398e-01   7.5130091e-01   2.2406720e-01   8.2212327e-01   3.5659160e-01  -9.0272997e-01  -6.5098676e-01   3.0051931e-01   2.4577101e-01   9.3464172e-02   9.4771401e-02   1.4345067e-01  -2.1103724e-01   2.7547540e-01   3.2592539e-01   4.9202787e-01  -6.6447318e-02  -1.6766956e-01  -8.0454497e-01   8.5506354e-01   6.6585090e-01  -8.0589521e-01  -3.4142215e-01   4.3229619e-02   4.6276611e-01  -1.3965778e-02   7.0559122e-01   8.5384306e-01  -5.7358740e-01   9.8212303e-01   3.5879416e-03  -8.9911132e-01   1.0507946e-01   5.6117779e-01   8.1009851e-01  -7.3449415e-02   5.4525057e-01   7.6945938e-01  -1.9593448e-01  -4.0595677e-01   2.6597631e-01   2.6299963e-02   1.8342589e-01  -3.6290593e-03  -4.6614743e-01   8.6815839e-01   5.3104793e-01   8.0680193e-01   6.7734469e-01  -6.9420192e-01  -5.9307170e-01  -3.1906499e-01  -5.0882328e-01  -1.9031085e-01  -2.1468784e-01  -5.8272319e-02  -3.5751613e-01  -5.1414430e-01   4.3555601e-01  -6.7979043e-01  -6.6940100e-01  -5.9107599e-02   9.2323755e-01   5.6707162e-01  -3.9797035e-01  -8.4732373e-01   2.3466639e-01  -6.4561728e-01  -1.4822241e-01  -3.4099132e-01   1.1777260e-02  -3.9794214e-01   4.3917077e-01  -1.8179858e-01   8.9745581e-01  -1.0578779e-01  -2.8551625e-01  -9.4752255e-01  -9.4826012e-01   2.9321718e-01   1.5165008e-02   5.0906355e-01   3.2115154e-01   4.5020304e-01   7.4476393e-01  -1.7466876e-01  -3.5847895e-02   9.2580625e-01   4.9427782e-01  -4.6573064e-01  -3.9313609e-01   4.2744086e-02   6.2725789e-02   1.9352341e-01   8.2282547e-01  -4.2683804e-01  -2.2037808e-01   5.6681047e-01  -4.4349767e-01  -8.2283980e-01   1.2809762e-01   2.6671031e-01   7.7774479e-01   2.4612984e-01   3.8314971e-01
   4.7174398e-01   5.2668169e-01   1.2279243e-01   4.3382495e-01  -4.6433684e-01  -2.0788433e-01  -8.7651860e-03   9.6864586e-01  -8.1411560e-01  -5.9876066e-01  -3.6219293e-01  -7.3399562e-01   3.9678852e-01   6.1780197e-01  -2.2198640e-01   9.4952423e-01   3.8505575e-01   3.8143591e-01  -9.7591702e-01  -1.2512807e-01   2.2794936e-01  -5.8198590e-01   7.7691684e-01   5.3004869e-02   8.3499287e-01   9.2524373e-01   3.6819813e-01   4.4637391e-01   7.7948066e-01   7.6193423e-01   8.0244234e-01   3.8999384e-01   1.1106662e-01  -4.7994537e-01   9.2966816e-01  -7.4438818e-01  -6.1915137e-01  -9.8367904e-01   1.8266649e-01  -1.8717262e-01  -5.8077130e-01  -1.8236392e-01  -7.9047882e-01   2.3336669e-01  -2.8078855e-01   2.1061428e-01  -7.6082422e-01   5.1053514e-01  -5.3969670e-01   7.5822416e-01   2.9260448e-01  -3.8026742e-01   5.0044791e-01   1.6787433e-01  -9.1860606e-02   6.1444454e-01   3.7359769e-01   7.3822219e-01  -8.4575828e-01   9.8508388e-01   3.4527212e-01  -3.0714513e-01   9.1816668e-01   1.8299938e-01   2.5988641e-01   5.3179134e-01   1.1768684e-01   1.3701117e-01  -6.4088822e-01  -7.8709880e-01   3.2854734e-01  -3.0026698e-01   7.1545676e-01   8.5634766e-01   7.6876271e-01  -7.0785687e-02   3.0369253e-01  -9.8749726e-01   2.9109877e-01  -4.5926585e-01  -7.3255566e-02   6.0051324e-01   7.2025225e-01   9.8841907e-01   6.4481676e-01  -1.4268361e-01  -6.1157574e-01   4.9670010e-01  -6.8245978e-01   5.9803076e-01  -3.0636698e-01   6.9035232e-01   4.2587172e-01   9.9292179e-01  -4.3739736e-01  -2.1218045e-01  -2.1079749e-01  -2.5625639e-02   2.3453068e-01   1.9334922e-01   8.6182043e-01   1.9535015e-01   1.5918947e-01  -2.6548444e-01   3.5856605e-01  -9.3660350e-01   9.6089842e-01   7.2727990e-01   9.2023076e-01  -9.9756765e-01  -9.8756843e-01  -2.0452672e-01   4.7771303e-02   3.2631437e-01  -3.9596542e-01  -3.6339326e-01  -9.8461439e-01  -9.5711948e-02  -9.8503071e-01  -9.1209382e-02  -8.6864723e-01  -9.4760373e-01   8.9871772e-01  -7.7413651e-01  -2.1852342e-01  -6.4910475e-01   7.6013733e-01  -6.9731182e-01   1.0498699e-01  -9.0991402e-01  -7.0656431e-01   4.2045064e-01  -7.0316154e-01  -1.3892086e-01   3.7353723e-01   1.2103402e-01  -8.7386082e-01  -8.3465323e-01  -7.2228808e-01  -7.6346238e-01   7.4948365e-01   1.8512542e-01  -1.3112327e-01  -3.5342732e-01  -4.6307853e-01   4.0383525e-01   9.0607706e-01  -8.0379550e-01  -8.7090248e-01  -8.5399113e-01  -7.0844641e-01   1.3437436e-01  -6.1608326e-01   4.9739650e-01  -7.5426877e-01   4.2711490e-01  -3.2690681e-01  -5.5886191e-01   4.6779293e-01   4.9033223e-01   2.0350828e-01   1.3011203e-01  -7.1267643e-01  -2.0964566e-01  -9.4509017e-01  -1.4934183e-01  -2.4185352e-01   9.2587606e-03  -9.5906819e-01  -9.6573063e-01  -4.0594863e-01  -4.2371729e-01   1.8399045e-01  -9.4081336e-01   9.6169741e-01   3.0307509e-01  -9.2961484e-01   5.0850733e-01   4.9178623e-01   5.8971509e-01  -5.7454560e-02  -6.6239216e-01   4.9881212e-01  -2.2758155e-01   6.8676586e-01  -1.9472644e-01  -6.8625568e-01  -6.8082251e-01  -6.3817106e-01   5.0447441e-01   8.6585343e-01  -8.7454118e-01  -2.9273895e-01  -1.7096357e-01   9.3421654e-01  -4.8647536e-01   1.4008424e-01   3.0928527e-01  -2.7657854e-01   3.8615829e-01  -8.2712506e-01   3.3053770e-01  -4.4981063e-01  -5.4357428e-01   6.5886209e-01   8.6223753e-02  -6.0499444e-01  -1.1881667e-01   9.3151655e-01   1.9569893e-01  -6.1123530e-03   3.2398351e-01   6.3332218e-01  -8.5450275e-01  -1.5260902e-01   6.3240469e-01   7.7071101e-02   6.2410071e-01  -4.4204544e-02   7.7664733e-01   7.6631865e-01  -9.9939523e-01  -8.9141981e-01  -8.1882897e-01   5.0245900e-01   3.6479356e-01   5.6254888e-01   5.4271025e-01   6.1991893e-02   4.9406604e-01  -8.5705924e-01   2.0463416e-01   4.6941612e-01  -5.8574555e-01   6.0211751e-01   1.9118349e-01  -4.6057426e-01   5.1891228e-01  -5.1457859e-01   6.0798341e-02   6.8329106e-01  -9.8925109e-01   7.1125446e-01   8.1413038e-02   8.9652436e-01  -8.6618049e-01  -7.3883871e-01  -4.1820867e-01   4.7871253e-01   1.0692818e-01  -7.4374190e-01  -3.3939440e-01  -2.8657164e-01  -9.8001046e-01   2.1392551e-01   6.4690304e-01  -4.5039558e-01  -4.8928625e-01   7.5053801e-01   2.8271634e-01  -3.2661474e-01  -7.7378136e-03   7.0412401e-01   8.4590976e-01  -7.8142436e-01  -2.7749025e-01  -3.4637775e-01  -7.0999966e-02  -5.8466562e-01  -2.6367689e-01  -5.7527434e-01   7.8781809e-01   6.4442089e-01   3.7489970e-01   8.5733788e-01  -7.2466979e-01   2.2944570e-01  -7.7146191e-01  -5.3590204e-01  -1.7445274e-02  -5.7359867e-01  -6.7757565e-01  -5.0665843e-01  -4.8895592e-01   7.7190004e-01  -7.9922813e-01  -7.9615200e-01   7.1629322e-01   1.7904771e-01  -5.4550678e-01   9.5646107e-01   7.5257146e-01   1.3780023e-01   9.5632118e-01   8.6521661e-02   1.3498805e-01   2.5958733e-01  -9.3967489e-01  -8.0341644e-01   3.9686174e-01   5.4135606e-02  -7.5642690e-01   7.0620679e-01  -6.1763252e-02  -3.3051410e-02  -9.2849512e-01   9.1839694e-01  -5.5627240e-01  -1.5390817e-01   6.9562912e-01   8.7745319e-01  -7.8070529e-01   2.7955901e-01   3.2640470e-01  -5.2743294e-01  -7.1045308e-01   9.5312693e-01  -8.7458110e-01  -7.0807011e-01   9.5743226e-01   6.1195286e-01  -8.5714211e-01   3.5907497e-01   4.6618749e-01   3.0266968e-01  -3.2214441e-01  -5.0332116e-01  -7.8856901e-01   7.8025797e-01   7.1781642e-02   9.6983379e-01   9.5387312e-01   9.7367141e-01   1.7972999e-01  -8.1566134e-01  -2.4002504e-02  -8.5575176e-01   2.2971094e-01   9.2805852e-01  -8.1485842e-01  -8.8221793e-01   5.4465598e-01   6.2515936e-01   6.1969348e-01   1.7616882e-01  -8.9917446e-01   3.4930395e-01  -8.5283103e-01  -3.6999719e-02  -8.5795551e-01   8.4508099e-01  -4.6286799e-01  -9.6799741e-01  -6.2296865e-01   8.2601347e-01   5.3136944e-01   7.4823328e-01   2.5606762e-01  -7.2886808e-01   2.1521537e-01  -8.5091775e-01   3.1232425e-01  -7.8236213e-01   6.1620071e-01   9.8761480e-01  -1.3142795e-01   2.9928270e-01   3.8186649e-01   8.5710676e-01   9.9196998e-01   5.3217304e-01  -4.2705899e-01  -6.0510169e-01  -4.3747120e-01  -8.3392057e-01  -3.2058027e-01  -1.8838359e-01   9.1098950e-02   2.0133053e-01   9.1350750e-01   5.9539789e-01   7.7609581e-02   4.3844981e-01   4.8798585e-01   7.2559502e-01  -8.9510657e-01   6.4453110e-01  -1.5495881e-02  -4.2400340e-01  -9.6623701e-01   9.2180629e-01   2.5198618e-01   8.7736302e-01  -4.4421365e-01   3.9829484e-01  -8.7700589e-01   1.3214157e-02  -7.0210231e-01   8.5290675e-01   9.6642987e-01   7.8837892e-01   9.8005689e-01   1.7659064e-01  -7.0116837e-01  -8.6618962e-01   3.6769997e-01  -8.0883902e-01   6.6374123e-01  -5.4744089e-01   9.7274692e-01  -2.6331780e-01   9.9066144e-01  -5.5967861e-01   6.2442419e-01   6.2434379e-01   4.2170849e-01  -6.6385453e-02   6.7778313e-01   2.5103286e-01   2.6529273e-01  -6.1850965e-01   6.0022212e-01  -3.0915834e-01  -3.0507049e-03   3.4355983e-01  -8.7140460e-01  -8.1559179e-01   4.9925218e-01  -4.9820649e-01  -2.5523750e-01  -1.3692595e-01   1.7235744e-01  -8.1642474e-01   5.5237832e-01  -3.1303376e-01   6.3256189e-01   9.6145150e-01   1.8018049e-02   5.9830609e-01   1.2589219e-01  -1.4215390e-01  -7.5311361e-01  -7.6277330e-01  -6.0650408e-01  -7.3865657e-01  -4.1502035e-01  -6.0732788e-01   4.4623030e-01   1.7657253e-01   7.0525377e-01   4.0590928e-01  -7.5460083e-01   9.1277412e-01   1.6347607e-01  -9.1598580e-01  -7.7196176e-01   8.8602100e-01  -8.9957123e-01  -3.6406069e-01  -4.6097645e-01   9.1017261e-01  -9.2965692e-01   6.7611165e-01  -6.9971898e-01  -6.6870160e-01  -3.2160418e-01   9.7616298e-01   1.0678220e-01  -4.9136427e-01   6.4223710e-01   8.4066234e-01   9.7296580e-01  -8.4799918e-02  -1.2416326e-01  -4.7687184e-01   2.5451090e-01   4.7230679e-01   1.5152215e-01  -3.6651112e-01  -1.5773873e-01  -3.4124214e-01   8.7972457e-01   3.8452708e-01  -5.6914260e-01  -8.0016921e-01  -3.2849699e-02  -7.6803018e-01   1.2486888e-01  -2.2759978e-01  -4.9793661e-01  -6.6552058e-01   3.1775698e-01  -7.9010820e-01  -4.9445868e-01   4.9169825e-01  -9.3180795e-01  -9.3688092e-01  -4.3675715e-01   5.3523960e-01   4.2555120e-01   3.5277415e-01  -8.8350102e-01  -5.0027201e-01  -5.8587253e-01  -3.6156077e-01   5.7479440e-01  -6.0278450e-01  -3.5792278e-01   2.2981834e-01   9.8728041e-01   4.0556912e-01   4.0289402e-01  -4.1371220e-01   5.9772408e-01  -6.5796092e-01  -7.1080681e-02  -6.4713622e-01  -4.5160596e-01  -9.7881583e-01  -3.5077735e-01  -5.6791726e-01  -9.4079539e-01   6.9021370e-01   1.7320096e-01   2.9755202e-01  -7.8327650e-01   1.8874072e-01   4.9317998e-01  -4.3440416e-01  -6.0314577e-01   4.9398947e-01   6.7173657e-01  -6.2378813e-01   1.8266199e-01  -5.1167894e-01  -1.6932713e-01  -1.0889046e-01  -4.9451103e-01   7.0456232e-01   1.1411663e-01   8.7564129e-01  -6.8083772e-01  -2.2219449e-01  -3.3646209e-01   6.7017249e-01   1.9173948e-02  -4.9319634e-01   7.9648240e-01   2.4642446e-01  -5.3461538e-01   3.2771744e-02   7.7719539e-01   6.0593202e-01   4.7141903e-01  -3.4429151e-02   2.3374401e-01  -2.6251495e-01   5.2065493e-01   2.4567524e-01   6.3199560e-01   1.8458684e-02   1.1189684e-01  -8.2649296e-01   5.5519864e-01   9.7763004e-01   1.4917565e-01   9.7811754e-01   7.8000063e-01  -3.3708460e-01  -1.9041193e-01  -6.0279450e-01  -2.9629999e-01   7.8126052e-01   1.5162322e-01  -3.2697371e-01  -3.4980760e-01   9.2508237e-02   8.1453577e-01   1.7634219e-01  -6.5488097e-01  -1.9960144e-01   4.6017215e-01   5.5628607e-01   8.6998213e-01   1.0354292e-03   4.5746304e-01  -7.4968745e-01   5.5718429e-01  -5.1365621e-01   9.9100381e-01  -7.5883787e-01  -6.7459256e-01   5.1104893e-01   2.1292166e-01  -7.1727582e-01  -2.7684082e-01   1.4090702e-01   8.9495984e-01  -6.7925853e-01   8.4763456e-01   9.6321101e-01  -8.6839836e-01   5.5886942e-01   5.0122917e-01  -9.4892889e-01   9.9593501e-01   1.6641452e-01   1.6264021e-01  -3.3911992e-01   1.9831796e-01  -7.9872487e-02  -2.8434525e-01   3.2895720e-01  -7.4017350e-01   1.3127075e-01  -1.6054079e-01   3.2784720e-01   2.7690866e-01  -1.6854070e-01  -4.5044959e-01   8.8259728e-01   7.8801100e-02   3.7873401e-01  -9.5138707e-01  -9.9390547e-01   1.0444972e-01  -3.3276026e-01  -2.8967850e-01   4.4614819e-01   1.5730704e-01  -6.7405776e-01  -8.8486985e-01  -8.0566566e-01  -2.6303014e-01  -9.2485057e-01  -8.4786458e-01   1.4190184e-01   5.1636660e-01   7.5991774e-01  -3.3910927e-01   8.9063765e-01   9.9443882e-01   8.0974893e-01   5.9309771e-01   4.8666906e-01   3.9655641e-01   6.6287050e-01  -8.5969462e-01  -6.7057093e-01   5.0289757e-01  -8.2703730e-01   8.8805720e-01   3.2658861e-01  -8.1028536e-01   7.5969289e-01  -2.0086772e-01   4.1994448e-01   1.6138844e-01  -8.2348098e-01  -9.5658607e-01   4.4575123e-01   5.7243890e-01  -1.3526796e-01  -3.1720667e-01   4.2386321e-01  -3.6596588e-01  -5.3697762e-01  -4.7872534e-01   4.8019397e-01  -6.6389275e-01  -6.9435017e-01   1.2174726e-01  -5.6680986e-01   4.7555779e-01   7.3817836e-03   5.4181171e-01  -7.2988505e-03   6.4052144e-01  -4.0852333e-01   1.4652851e-01   1.8123371e-01   3.4434846e-01  -1.0805606e-01   6.0209673e-01  -6.6458169e-01  -7.4956653e-01   6.5221462e-01  -4.8069674e-01  -7.7262063e-01  -4.0056243e-01  -6.4625602e-01  -7.8189380e-01  -7.6807482e-01   2.0692830e-01  -4.6183055e-01  -1.4929798e-01  -5.8590183e-01  -7.0566539e-01  -5.8727976e-01   3.2647584e-01   9.8653310e-01   6.4323411e-02  -4.4678269e-01   1.3935773e-01   6.6999383e-01   1.0880544e-01  -5.2362372e-01   7.7105350e-02   1.0013900e-01   3.8930066e-01   3.6629535e-01   9.4064258e-01   8.2331192e-01  -2.7409521e-01   4.6891961e-01   6.0673203e-01  -8.2633204e-01   9.2892727e-01   1.9789078e-01  -6.6123978e-01  -5.8765105e-01   3.4623233e-01  -7.4258227e-01  -7.5560180e-01   1.3033858e-01  -5.6234396e-01   9.7287109e-01  -4.0038013e-01   7.8696784e-01   8.8371170e-01   8.5670914e-01  -1.7171390e-01   1.5233851e-02  -1.7131516e-02  -5.4071240e-01  -1.2611414e-01   5.2764761e-01   1.2741681e-01   6.8015841e-02  -6.8305857e-02   9.0519915e-02  -4.8403139e-01  -3.2845069e-01  -1.4737083e-02  -1.7533184e-01   1.7632125e-01  -1.2748806e-01  -1.9864746e-01   6.7251674e-01   3.5064214e-01   2.1555505e-02  -3.9807964e-01   1.9417646e-01  -7.0284914e-01  -9.5032546e-01  -3.4155678e-01  -8.2012057e-01  -2.7750021e-01   5.0038916e-01  -6.4132260e-01   6.5401123e-01  -4.5761194e-01  -7.2486762e-01   3.5493896e-02  -5.2775435e-01  -7.8695792e-01  -9.7869684e-02   4.4770752e-01   7.4847267e-01  -2.6467640e-01  -9.1178589e-01   9.0145992e-01  -1.1692013e-01  -2.7965371e-01   2.8620347e-01   2.7882355e-02   6.5763194e-01  -9.7419605e-01   6.1899582e-01   7.3284043e-01  -8.7299876e-01   7.4272918e-01  -2.5607432e-01   9.7939478e-01  -9.6250734e-01  -2.5070410e-02  -6.3437239e-02   6.1159871e-01  -6.2078232e-01  -9.4788717e-01  -6.7043494e-01   9.4761633e-01   5.1992460e-01   8.0178442e-01   5.1198862e-01  -9.2214893e-01  -4.1825516e-01   5.6266021e-01  -1.3313411e-02  -1.6674120e-01  -5.3229263e-01  -7.9542220e-01   3.4623028e-01  -4.6148818e-01   1.7902095e-01   4.0872392e-01   8.6687838e-01  -2.1334374e-01  -3.5493962e-01   7.7142028e-01  -6.4456820e-01  -3.9514507e-01   9.0526440e-01  -8.0437322e-01   7.2785260e-01   2.4855253e-01  -1.5542068e-01  -7.7109190e-01   2.6758124e-01   5.8559219e-01   1.1284760e-01  -2.7695362e-01   5.4037190e-01  -8.2118049e-01  -8.4221970e-01   5.2109502e-01  -7.2086162e-01   8.9069663e-01  -9.0009092e-01  -6.5959018e-01  -7.2580597e-01   1.1842072e-01  -4.5609570e-03  -2.1215305e-01   3.1076214e-01  -4.9898106e-01  -4.1027320e-01   6.7946428e-01   4.9522917e-01  -1.3250323e-01  -3.9896807e-01   4.5094397e-01  -9.2316519e-01   7.6394315e-01  -1.2523987e-01   7.1490169e-01   6.1684685e-01   8.0496051e-01   5.8906266e-02  -7.2102479e-01   8.2596786e-01  -4.0733247e-01   6.3433109e-01   9.4126778e-01  -5.8406936e-01   8.8122902e-01  -6.7984167e-01   5.4249159e-01   4.2613729e-01  -7.7046092e-01   6.7597559e-01   4.0728190e-02  -1.7708528e-01   1.5860301e-01   9.6555963e-01   6.3572093e-01  -9.8871287e-01   6.3260829e-01  -7.4834379e-01   7.2738673e-01  -3.7846976e-01   5.4929769e-01  -4.0152331e-01  -2.9114120e-01   8.3921674e-01   7.4563836e-01  -5.8253084e-02   1.0146938e-01  -2.9576361e-01  -2.2511251e-01  -7.3563390e-01  -4.1723984e-01  -5.3867797e-01   7.2069179e-01  -2.0088527e-01  -7.5093447e-01  -4.5745599e-01  -7.1768164e-01  -1.8482077e-01   7.5232894e-01   1.0782318e-01   9.6512486e-01   7.2352783e-02   5.2458220e-02  -1.9602120e-01   9.2306335e-02  -4.2749526e-02   6.7576923e-03  -8.8104323e-01  -8.7682128e-01  -1.0703230e-01  -3.1518147e-01  -8.4726905e-01  -6.3615727e-01   7.5293097e-01   8.5035305e-01  -8.6144629e-01   6.3491875e-01  -6.7566216e-02  -5.4350800e-01  -5.3380719e-01  -5.2090022e-01   9.6368473e-01   6.0107429e-01  -9.9146175e-01   5.4158845e-01   7.0566682e-01  -8.1397483e-01  -9.1164965e-01   3.0856836e-01  -8.9366661e-01  -3.2702833e-01  -9.3530536e-01   1.5946879e-01   1.9233739e-01   1.3222543e-01   5.2350565e-01  -7.0478547e-01  -3.5307147e-01  -6.5784457e-02   9.4841152e-01  -4.2343039e-01  -4.9578604e-01   7.1210525e-01   1.0496204e-01  -3.2393459e-01   6.5027100e-01  -8.3775903e-01   6.9704276e-01   6.8599160e-01  -6.6015808e-01   1.5315061e-01  -8.7074103e-01  -9.8622816e-01   3.4694482e-01  -7.9925354e-01  -7.7159326e-01  -2.5014553e-01   1.3694934e-01   4.7881527e-02   6.4156096e-01   2.3067694e-01  -1.2031308e-01  -9.7937435e-01  -1.1098778e-01   5.0718960e-01   9.8918632e-01  -4.4077540e-01   4.9927822e-02  -6.0530869e-01   8.1794738e-01   5.3911611e-01  -1.2991834e-01  -5.2122190e-01   2.1159993e-01   8.2514061e-01   2.2484011e-01   7.5407836e-01  -1.2776236e-01  -4.9641468e-01   8.8113931e-01   8.7317298e-01  -6.3286383e-01   3.8987692e-01  -2.2388739e-01  -3.6444394e-01   8.4393120e-02   2.1457063e-01   2.1851177e-02  -1.5061737e-01  -4.7089219e-01  -4.8044310e-01   6.8353042e-01  -6.7642409e-01   9.8007673e-01   3.4015151e-01  -3.9983489e-01   1.1896931e-01   9.3208416e-01   1.3180881e-01  -5.7871603e-01  -1.2906566e-01   4.8459701e-02   4.8899517e-01  -8.2771680e-01  -9.9659604e-01  -8.7642580e-01   9.0305067e-01  -8.2652010e-02  -5.9382172e-01
