  -3.5456357e-01   1.2942291e-01   6.2675864e-01   7.0900991e-01  -5.8577693e-01   2.8263617e-01  -1.7013295e-01   4.4699404e-01   1.6915250e-01  -1.1192986e-01  -5.3864553e-01  -9.6007575e-01  -2.1082628e-01   8.6993388e-01   7.6857496e-01   8.7347316e-01   8.1205067e-01  -4.3216802e-02   5.0860673e-01  -2.8549568e-01  -8.3556049e-01  -2.6124198e-01  -6.4653551e-01   8.7588534e-02   6.2630383e-01  -4.0412797e-01   9.3299581e-01   2.3420945e-01  -7.9982912e-01   3.4259927e-01  -8.2657571e-01   2.9839220e-01  -1.4945181e-01   1.1580937e-01  -4.9465972e-01  -8.4429664e-01   6.4150492e-01  -2.0665907e-01   5.2089861e-01   7.7338173e-01  -4.6504519e-01  -6.1876936e-01   2.5630638e-01   4.5313507e-01   4.9427785e-01  -9.8830188e-01   4.7887736e-01   6.8217779e-02  -3.4670518e-01   1.1531782e-01  -1.9301702e-01   3.8494421e-03   8.3844560e-01  -3.8319168e-01   6.8648409e-02   4.4266479e-01  -8.1463645e-01   9.0356630e-01   6.6006830e-01   9.3232854e-01  -1.2685055e-01  -9.2900278e-01  -1.3683189e-01  -6.3796015e-01  -4.2607977e-02   2.4359348e-01   3.0264146e-02  -7.4809619e-01   1.8562481e-01  -2.8823180e-01   6.6273053e-01  -3.8955467e-01  -8.5127312e-01  -7.9922379e-01  -3.4525830e-02   5.3946520e-01  -9.6689760e-01  -5.1805764e-01  -5.0626670e-01   3.5341870e-02   9.8172015e-01  -1.7931975e-01   4.6943237e-01  -8.5094928e-01   7.0517899e-01   4.8961069e-02   6.7479379e-01   7.1413639e-01  -2.1517396e-01   1.4723295e-01  -2.4500778e-01  -5.1765547e-01   4.3243924e-01   2.3599944e-01   9.1334398e-01  -9.4618982e-01   7.4087436e-01  -8.3797912e-01   2.0511469e-02   5.1218440e-01  -5.8782597e-01   7.4582292e-02   3.5245890e-01   8.2042332e-01   3.2807219e-01   4.9977676e-01   8.8485865e-01  -7.9769873e-01   8.5742359e-01   1.2921638e-01   6.8698160e-01  -9.1178839e-01  -5.7718039e-01  -7.9527172e-01   4.2093559e-01  -3.7039679e-02   7.3495448e-01  -5.1351011e-01   9.6388537e-01  -2.6377171e-01   9.3426315e-01  -4.0118849e-01  -1.8650629e-01  -5.0555574e-01  -5.6364831e-01   2.8210556e-01   5.5221251e-01  -8.3125610e-01  -4.7233517e-01   9.2004076e-01   3.9973320e-01  -3.5974219e-01   8.0230101e-01  -7.8102448e-01  -7.3881516e-01  -1.3277154e-01   4.9850703e-01  -7.9674931e-01   4.7626965e-02   4.4353844e-01   1.0937481e-01  -3.1486319e-01   4.0484634e-01  -3.5584578e-01   2.6455559e-01  -9.0287273e-01  -7.3329560e-01   2.5570842e-01  -2.2817396e-01   5.7030562e-01   7.8960227e-01  -2.1394614e-02  -7.5978346e-01   7.7726020e-01  -1.7637459e-01   6.7115916e-01  -9.9674096e-01  -9.7871157e-01  -2.2339214e-01   6.8760613e-01   2.5842880e-01   6.8739772e-01   9.9879257e-02  -3.4831576e-01   5.6002150e-01   5.0321628e-01   7.4591127e-01   5.5755414e-01   3.4764870e-01  -4.9212175e-01   5.5374659e-01   3.0594839e-01   3.3939712e-01   5.1596268e-01  -3.0795766e-01   1.9262541e-04  -3.7549335e-01   9.6183608e-01  -8.5183363e-01   7.6172028e-01   4.1917025e-01   1.9736816e-01  -2.5982425e-02   9.1871522e-01  -2.7032834e-01   3.8933366e-01  -8.6939112e-01   3.3950480e-01   4.1864092e-01   4.0848450e-01   5.1720667e-01  -7.4847435e-01  -6.1117814e-01   8.7151890e-01   5.9090770e-01  -8.1939920e-02  -5.0841836e-01   9.5355278e-01  -8.4798599e-01  -2.8118606e-01   2.3205010e-01   1.4732480e-02   8.0421212e-01   2.3232395e-01   7.2713990e-01   6.9030378e-01  -6.3809377e-01  -6.6558192e-01   9.1000942e-01  -1.8227544e-01   6.9624974e-01   4.6661457e-01  -6.5685886e-01  -9.2221321e-01  -5.4483851e-01   7.4716645e-01   9.4378697e-01  -5.2135276e-01  -3.9933216e-01  -6.0178096e-02  -2.1798230e-01   7.2337538e-01  -2.5031246e-01  -6.9875895e-01   4.9124126e-01  -8.1041556e-01   3.1179742e-01  -1.9257755e-01   4.6865426e-01   4.4323479e-01   5.2981992e-04   1.4307685e-01  -5.7437283e-01  -3.9103955e-01  -2.6430914e-01  -8.9964724e-01   7.5960191e-01   3.7639392e-01  -2.6479242e-01  -2.6596743e-01   6.3743637e-01   7.2521608e-01   4.5018412e-01  -8.9732746e-01  -5.9708098e-01  -1.4501171e-01  -2.4107193e-02  -4.5777032e-01  -6.4093641e-01  -1.4426565e-01  -8.5478454e-01   5.8712880e-01  -6.3816932e-01   7.4022904e-01  -2.2205041e-01  -2.2275061e-01  -1.7621731e-01  -2.8255759e-01  -4.7434150e-01   4.2824861e-01   4.4213269e-01   3.3050674e-01   7.5533911e-01   8.3970937e-01  -3.3157039e-01   5.5160589e-02   5.4077771e-02  -7.4675133e-01  -2.6004452e-01   2.8593095e-01   7.4683394e-01  -9.4972022e-01   8.7611803e-01  -9.5843440e-01  -2.4556961e-01   3.6825913e-01   9.1294064e-01  -3.2291458e-01  -8.6865590e-01   6.0945815e-01   5.2996284e-01  -5.6684526e-01   7.5204193e-01   7.6599293e-01   6.6036436e-01  -6.5672300e-01   3.9059888e-01   9.7206428e-01   2.1964374e-01  -6.5531702e-01  -3.8804926e-01  -5.1362772e-01  -5.8524344e-02   6.7303410e-01  -1.7202229e-01  -2.1554021e-01  -8.3739700e-01   8.4906950e-01  -5.0171092e-01  -2.9510975e-01   3.3076340e-01   1.1690867e-01  -3.6920791e-01  -4.8127756e-01   8.7002705e-01   1.2469264e-01   2.0976179e-01  -6.5737023e-01  -1.0886005e-01   1.3696287e-01   5.1947591e-01   2.1272419e-01  -6.3696150e-01   5.7479246e-01   8.9635596e-01   4.1812053e-01  -2.8779276e-01   9.3985030e-01  -4.9106302e-01   8.3554597e-01   1.7073439e-02  -5.0260268e-01  -8.7829517e-01   7.2850731e-01   3.8427615e-01   4.4178055e-02  -3.1376755e-01   5.9657930e-01   9.4809171e-01  -3.7033652e-01  -3.0969333e-01  -5.8359020e-01  -3.0741126e-01  -2.8601095e-01   9.7129505e-01  -9.1777120e-02  -2.7223508e-01   2.2801613e-01  -1.5974123e-02   9.2569990e-01  -1.4063229e-01   9.4309033e-01   2.3548737e-02   3.2746545e-01  -7.4841930e-01   5.6303975e-01   4.8240124e-01  -5.8405650e-02  -6.5128191e-01  -2.1857413e-01   6.8119394e-02  -3.1658456e-01   3.9178062e-01   4.3606194e-01   3.8180874e-01  -2.1703154e-01   4.2077571e-01  -6.1352696e-01  -5.7612305e-01  -5.6346842e-01   1.8216131e-01   1.4169532e-01  -9.6879528e-01  -2.8534732e-01  -9.6390867e-02  -1.6276865e-01   3.5529718e-01   1.5378568e-01  -5.3444888e-03  -4.6240354e-01  -8.6003162e-01  -2.0516851e-01  -8.9856147e-01  -9.4802810e-01  -8.6020069e-01  -1.3138257e-01  -6.4509826e-01   5.2234180e-01   5.3769455e-01  -8.5358415e-01  -1.1537979e-01  -6.6410778e-01  -5.4160056e-01  -8.6472291e-01   4.6670489e-01   5.9773247e-01  -2.7096732e-01  -6.0716285e-01   9.9523775e-01   3.7204907e-01  -8.4548557e-01  -4.0025390e-01   9.4397648e-01  -5.4159882e-01   5.8418313e-01  -5.0881562e-01   4.4501616e-01   9.7959736e-01   7.8828957e-01  -6.0387145e-01   4.0353698e-01   2.3961660e-01  -2.5577284e-01   2.9880778e-01   8.2614108e-01  -6.1017072e-01  -7.0683813e-01  -2.4168530e-02   7.1034541e-01   7.2176244e-02   9.9136185e-01  -6.6506567e-01  -4.4154636e-01   9.8344250e-02   6.7064643e-01  -9.1603941e-01   4.2906243e-01   9.8299306e-01  -7.7171139e-01  -8.7454141e-01   2.3134209e-01   6.6770162e-01   7.1274214e-01  -7.5394975e-02   7.3175472e-01  -4.0049975e-01  -1.3239973e-01  -9.1950073e-02   6.3307233e-01  -6.7728474e-01   5.6602529e-01   9.2021931e-02   4.6267378e-01   1.8141303e-01   4.1163340e-02   7.4764656e-02   2.1235791e-01  -4.6402931e-01   5.3254467e-01   8.2344657e-01   1.6750782e-01   9.4670002e-02   1.6349823e-01  -3.7421521e-01   5.5356858e-01  -2.2208189e-01   1.4173724e-02   6.6912400e-01   2.0148447e-01  -6.9772247e-01  -8.8529052e-01  -7.4061647e-01  -5.0593120e-01  -3.4746928e-01   7.4335628e-01  -1.7855019e-01   1.4318835e-01   6.4644074e-01   5.3358987e-02   5.0130229e-01   2.4155246e-01  -4.8791937e-01  -7.8776326e-01  -2.7293534e-01  -5.7969493e-01  -7.6147226e-01  -8.5677160e-01   9.2852733e-01   6.1502434e-01  -9.7684096e-01   7.0491279e-01   8.5427885e-01   6.6243220e-01  -3.9613037e-02  -3.4860321e-01   4.2357317e-01  -4.3227196e-01  -1.7671867e-03   6.2224137e-01   9.7723969e-02  -2.3642631e-01  -5.1936523e-02   3.0962527e-01  -2.7193893e-01   5.6103989e-01   6.0466109e-01   2.4960195e-02  -3.1715086e-01  -1.7929127e-01  -4.1827030e-01   6.2566064e-01  -6.6895118e-02   1.6330322e-01   2.4264435e-01  -7.9392915e-01   4.3590708e-01   9.2532770e-01  -9.6023888e-01  -3.8396362e-01   3.5944113e-01  -9.5270321e-01   3.6614126e-01   1.9393300e-01  -5.5971018e-01   1.4746871e-01  -3.7470408e-01  -2.7297995e-01  -5.1949216e-01  -6.1695140e-01  -2.3140900e-01  -1.1236107e-01  -5.7841258e-01  -8.0638094e-01   7.5904684e-01  -5.5866996e-01   7.9962701e-01   8.1540012e-02  -9.6199163e-01   3.2612353e-01  -1.5791803e-01  -6.3248749e-01   1.8841426e-01  -4.4635655e-01   4.9463264e-01   1.9036903e-01  -7.3435132e-01   2.3766868e-01   1.3421220e-01   1.7364134e-01   9.5354009e-01  -3.0049446e-01   6.9005404e-01   5.8917822e-01  -6.0977589e-01   5.0946331e-01  -7.0630383e-01   7.7353555e-01  -9.8729615e-01   1.5007072e-01  -6.1982477e-01  -3.1335772e-01   8.0540331e-01  -5.0905554e-01  -3.5725990e-01  -2.8527515e-01  -1.4389974e-01  -4.9102924e-01   4.9838512e-01  -7.4184489e-01   7.9018600e-01  -3.7608989e-02   3.8635940e-02  -4.9401059e-01  -7.9848621e-01  -1.4530537e-01  -5.4794990e-01  -4.7386375e-01   4.2872706e-01   9.3269540e-01  -8.1621316e-01   1.2131732e-02   2.0690159e-01   2.7568607e-01  -1.9440659e-01  -4.6336110e-02  -2.2841545e-01  -4.2334649e-01  -4.9735521e-01  -1.4880638e-01   1.0299774e-01  -1.3959101e-01   4.6692750e-01  -7.9239741e-01   3.2291619e-01  -4.1181652e-01  -5.2925765e-01   8.8444827e-01   3.1998559e-01   3.0245622e-01   3.0381827e-01   2.6365558e-01  -9.3929797e-03  -2.7046878e-01  -8.6463024e-01   9.9682823e-02  -4.5714947e-01   9.6781029e-01  -1.6518705e-01   9.1255446e-01  -6.5288790e-01  -7.1241086e-01   2.8465523e-01  -5.2403188e-01  -8.5636160e-01  -8.2431368e-01   6.0431360e-01   7.6926815e-01  -8.5974132e-01   7.6606371e-01  -5.7804198e-01   9.0749462e-01  -2.9067656e-01   1.3915260e-01  -7.1195523e-01   6.5054796e-03   9.5984347e-01  -3.2072116e-01  -9.9218195e-01  -3.2101201e-02   7.4526463e-01   2.2096947e-01  -3.8502219e-01   6.7167085e-01   5.7975766e-01   8.4506470e-01  -4.3011905e-02   9.8947853e-01   9.6993138e-01   9.7560046e-01  -5.2498071e-01   5.4253184e-01  -9.0083313e-02   8.2408193e-01   3.2577859e-01   7.8412453e-01   7.7577037e-01   3.8960860e-01  -5.8527070e-01   1.9366079e-01   8.6634109e-01   5.6309144e-01   1.1335153e-01  -7.7275462e-01   8.8817117e-01  -5.8647671e-02   2.6573276e-01  -8.5287419e-01   6.4543921e-01  -1.8123210e-01   2.7356840e-01   9.8290079e-02  -8.6072228e-01  -6.4945044e-01   9.1502074e-02   3.6261520e-01   4.3135876e-02   9.0136163e-01   4.3721204e-01   8.1285490e-01  -6.0443378e-01  -9.2890307e-01  -7.0599384e-01   3.5364094e-01   9.3080628e-01  -9.2629192e-01   7.9900742e-01  -2.5688463e-01   3.4902850e-01   6.0958138e-01   3.9221190e-01  -3.0775387e-01   6.6697320e-01   1.7787980e-01   6.1497983e-01   9.1184430e-01  -6.9103194e-01  -4.2796936e-01   6.4889458e-01   1.7544940e-01   7.5244834e-01  -9.0732568e-01  -2.3253307e-01   2.9656299e-01   8.2008591e-01   4.0772964e-01   4.9655044e-01   5.4781548e-01  -3.5321743e-01   9.9863352e-01   6.5305920e-01  -2.9514912e-02   8.0177155e-01   3.6219347e-01  -2.5197163e-01  -3.2073706e-02   6.0354632e-01   3.2123397e-01  -8.1701594e-01  -8.4866953e-01   5.0401265e-01  -9.3525661e-01   2.4758082e-01  -7.7627849e-01  -8.8557564e-01   2.9908761e-02   6.1839765e-01  -3.0069997e-02  -4.7665416e-01  -5.9764256e-02  -8.1422974e-01   5.1809533e-01  -8.6699641e-01   3.9292751e-01   8.3672760e-01  -5.2943337e-01   5.9300704e-01   2.8092851e-01   4.8180356e-01   7.4344216e-01   1.5379472e-02   1.7794016e-01   6.1751575e-01   6.2154510e-01   1.3565827e-01   9.7689894e-01   7.3024466e-01   2.2877263e-01  -6.3302250e-01  -7.5359974e-01   9.7974701e-02   1.2137791e-01  -5.6951715e-01   8.9804411e-01   4.7951897e-01   5.7514753e-01   7.2839205e-01   2.3462394e-02   8.3355236e-01   2.4431011e-01  -3.4386388e-01   1.8060102e-01   2.2812892e-01  -3.5996172e-01  -4.3857542e-01  -3.5267338e-01   6.6389678e-01   6.1856984e-01   9.1869568e-03  -7.2052421e-01  -3.7552188e-01  -5.7537711e-01  -9.8964265e-01   2.4836007e-01   7.6823173e-01   6.9113690e-01  -7.2213391e-01  -3.3800140e-01   2.0634222e-01  -4.9718711e-01  -3.9063902e-01  -3.4982881e-01   5.9602309e-01  -6.5448253e-01   2.3975238e-01  -8.1327039e-01  -7.3953854e-01  -8.8328104e-01   1.5223459e-01   6.3925096e-01  -9.8214248e-01  -3.3030264e-01   5.0165108e-01   4.0434412e-01   2.1501249e-01  -4.1522458e-01  -8.4157971e-01  -4.3483177e-01  -1.5856894e-01  -6.9750376e-02   7.4795700e-01  -7.8143688e-01   2.1134778e-01   5.6714046e-01  -8.6281505e-01   4.5650009e-01  -6.2954024e-01  -5.1077613e-01  -5.1044738e-01  -9.0806518e-01  -8.5512383e-01   2.7192818e-02   9.0589451e-01   7.2647471e-01   3.8060741e-01   1.0592879e-01  -5.8344262e-01  -3.7761534e-01  -9.7383195e-02  -7.5907478e-02   4.3284407e-01  -5.0417730e-02   3.2266051e-01   2.6305693e-01   6.9700119e-01   2.8929026e-02  -3.9490523e-01  -7.7143399e-01   9.4207192e-01   5.2960691e-01   5.7862505e-01  -8.7577560e-01  -3.7892018e-01   3.4173961e-01   2.9453757e-02   9.6922703e-01   9.8367000e-01   9.7231316e-01   8.7499384e-01  -9.9196229e-02   4.4062364e-01  -6.3552438e-01   1.6620022e-02   8.1025880e-01  -9.2409716e-01  -2.6400524e-01  -1.4047802e-01   5.3431617e-01   6.1186666e-01   1.8930813e-01   5.6372803e-01  -1.5954691e-01   5.2581397e-01  -4.8776139e-01  -7.2578968e-01  -1.2424666e-01  -9.4010732e-01  -1.2669410e-01  -1.0127328e-01  -4.5989118e-02  -2.1391243e-01  -8.1004272e-01  -5.0753253e-01   8.5915184e-02   7.7817933e-01   3.3031110e-01  -2.2742723e-02  -5.3410763e-01  -3.5734503e-01  -8.0279826e-01   3.9671499e-01  -3.7984485e-01   5.5542812e-01   6.4138142e-01   2.1923479e-01   4.0198922e-01   5.8988254e-01  -5.2295225e-01  -1.1197481e-01  -1.0256894e-01   2.2052966e-01   4.7011442e-01   3.2334715e-01   1.3030486e-01   2.3083589e-01   2.2412691e-01  -7.2672168e-02   8.4331899e-01  -1.1344577e-01  -7.3913721e-01  -6.4265066e-01   8.7106390e-01   3.4970393e-01  -7.9837264e-01  -4.5946214e-01   4.7144504e-01  -1.8244697e-01   6.7152609e-02  -7.0574059e-01  -7.6168071e-01  -2.2995870e-01   6.3592787e-01   8.3361392e-01  -5.7753559e-01   2.5859412e-01   3.2897475e-01   5.6519924e-01   9.6224973e-01  -4.0725525e-01  -1.6826629e-01  -3.1837497e-01   2.9555871e-01   9.6298012e-01   7.9558637e-01  -6.4869379e-01   4.8222561e-01   8.3793058e-01  -3.3436741e-01   6.2290635e-01  -4.3665443e-01   4.5018711e-01   2.6516012e-01   7.5615841e-01  -9.5479543e-01  -9.2687810e-01   4.6172596e-01  -5.9854813e-01  -6.1266467e-01   2.4154664e-01   9.3693800e-01   4.1633588e-01  -2.7911806e-01   2.0655687e-01  -7.4662316e-01  -9.3019290e-01   1.2025829e-01  -1.7156181e-01   2.0073809e-02  -8.2713648e-01   3.3374207e-01  -1.6454812e-01   9.7367647e-01  -7.6066406e-01  -6.8431150e-01   4.3684962e-01   8.9622950e-01  -1.2195570e-01  -2.5866038e-02   8.5325324e-02  -9.9235522e-01   1.7006798e-01   3.1375133e-01   4.3718857e-01  -2.2016336e-01   9.2457544e-01  -1.8605039e-01  -1.6787384e-01   2.6228308e-01  -1.7290299e-01   3.6823434e-02   1.1564328e-01   6.5607936e-01  -2.0536035e-01   2.5935561e-01  -1.6406940e-01  -5.2018507e-01   1.3758015e-01   1.2888466e-01  -8.2921839e-01   2.1364904e-01   9.5410276e-01   3.4816643e-01  -5.2265789e-01   9.2227811e-01   1.7672776e-01  -7.3332859e-01   2.4830202e-01  -6.8094452e-01   3.3888375e-01  -8.1571569e-01  -8.3793261e-01   1.2359537e-01  -2.7497463e-02  -7.6150742e-01  -7.2005932e-01   9.2757328e-01   8.7411150e-01  -7.2046608e-01  -5.1453401e-01   8.1122021e-01   6.5340886e-01  -4.8747042e-01   5.1240719e-01  -2.0484328e-01  -5.1945577e-01  -4.1424309e-04  -7.4200514e-01   6.9164241e-01   4.1779397e-01  -2.6554387e-01   3.8944877e-01  -8.6590217e-01  -2.2285400e-01   3.6393143e-01   6.3844604e-01  -9.4030213e-01   3.6999072e-01  -3.3007716e-01  -2.1252955e-01   6.2728356e-01  -4.1284170e-01  -9.5153398e-01  -7.1110344e-02  -3.9350268e-01  -8.2704088e-02  -3.1196871e-02   8.8871561e-01   4.4222630e-01   5.5463848e-01   7.8345365e-01  -7.9196781e-01  -4.6791595e-01  -1.0253441e-01  -3.6585307e-01   8.2081405e-01   7.8455057e-01  -8.3346789e-01   7.5818632e-01   1.7811349e-01  -3.6961926e-01  -7.1312767e-01
  -5.2756511e-01   7.9600356e-01   8.9590734e-01  -6.4376260e-01   3.8639110e-02  -6.0630730e-01  -3.8450259e-01   5.0840738e-01   3.3399007e-01   8.6712293e-01   7.6310739e-02  -6.2014355e-01  -3.5415962e-01  -3.0305709e-01  -9.9995476e-01  -6.4348937e-02   9.5055618e-02  -4.1863596e-01   5.3813494e-01  -5.0100939e-01  -8.6870626e-01  -6.8518291e-01  -6.0067450e-01   9.9252184e-01  -4.7901722e-01  -7.1159269e-01   5.6346453e-01  -9.9939535e-01  -8.7779763e-02  -7.9900106e-03  -4.2357076e-01  -1.1978995e-01  -4.4421808e-01  -7.1175695e-01  -1.5872465e-01   9.2755269e-01   1.4920682e-01  -5.7780697e-01  -3.2051235e-01   3.5445674e-02   4.3901811e-01  -7.5228720e-01  -6.3749223e-01  -3.9412827e-01   6.0572924e-01   4.5221969e-01  -3.6354281e-01  -6.6519755e-01  -9.7043104e-01  -2.2094012e-01   7.8683348e-01  -5.7304121e-01   2.0831042e-01  -2.2426706e-01  -1.4454067e-01  -3.7980603e-01   1.6222876e-01  -7.9917882e-01   2.1250870e-01  -8.0699829e-01   2.9516266e-01  -4.3031710e-01   5.3524002e-02   7.1516183e-01  -9.6380404e-01  -3.9998780e-01  -4.3312577e-01  -4.6443462e-01  -7.9727683e-01   4.0663121e-01   2.4857455e-01   2.2766727e-01   1.5074948e-01  -9.6486136e-01   5.3703661e-01  -5.6560497e-01   8.5834713e-01  -9.2281978e-01   5.1682872e-01  -7.9832228e-01  -9.7775347e-01   6.4435787e-01  -8.9029247e-01  -4.2550888e-01   6.1340910e-01   7.9770687e-02   2.9002355e-01  -3.2930417e-01  -9.0007032e-01  -8.0773064e-02  -1.6346879e-02  -8.8001607e-02   8.8147157e-01  -2.8813326e-01   5.7182019e-02   9.5232915e-01   5.9913663e-01   4.4197797e-01   8.4801017e-01   9.8872212e-01   9.0580530e-01   1.2529677e-01  -1.6532997e-01  -9.5216415e-01  -4.9262836e-01   1.2167673e-01   5.7793508e-01  -4.9797910e-01  -9.9121741e-01  -1.4257278e-01  -3.2613377e-01  -8.2514300e-01  -4.9017624e-01  -9.3031989e-01   1.5879362e-01   2.5821331e-01   5.3074868e-01  -3.7989321e-01   4.8778794e-02   6.0236874e-01   5.3199839e-01   1.5844674e-01  -5.0954746e-01  -8.6645047e-01  -1.1016849e-02   7.7772466e-01  -7.6316952e-01   9.5175807e-01   4.3924067e-01   5.9925948e-01  -9.5234074e-01   1.3338271e-01   6.8184948e-01   6.0529252e-01   5.1806306e-01   9.0379719e-01   1.7478195e-01   7.1946726e-01  -9.2239024e-01   2.6095938e-01  -3.2769492e-01  -6.9410337e-01  -1.5636459e-01  -9.7894809e-01  -5.4098941e-01  -2.3016105e-01   9.0421997e-01   7.8443538e-01  -9.9398061e-01   1.7490888e-01   3.5337085e-01  -7.0196124e-01  -8.9134728e-01  -9.5475041e-01  -5.6574153e-01   8.1896920e-01  -6.2480275e-01   6.2298054e-01   1.8900113e-01   2.8140335e-01   2.5687346e-01  -7.7357763e-01  -8.7779741e-03  -3.6902362e-01   1.2354340e-01  -9.4526479e-01   8.6323047e-02  -8.4980606e-01   2.1148861e-01  -9.4142868e-01  -7.6511830e-01  -4.9369576e-01  -6.5113868e-01  -7.5799234e-01  -5.9520786e-01   6.1774645e-01   7.6003082e-01   6.6194307e-01   8.0641491e-01  -5.6232640e-01  -3.8814578e-01  -2.6699209e-01  -3.0394512e-01  -2.1452923e-01  -3.7888815e-01   6.6137171e-02   7.2486528e-02  -9.4477200e-03   5.8252545e-02   6.2746994e-02   1.2269168e-02   5.4138439e-01   4.0454832e-01   2.1326393e-01   2.6192376e-01  -1.1598854e-01   2.7463230e-01  -5.2803826e-01   7.5884121e-01   7.8496614e-01  -1.6462895e-01  -1.0242000e-01  -9.4471116e-01   3.7848934e-01  -2.5639634e-02   3.9729606e-01   1.8630684e-01   9.8263602e-02   4.7304017e-01   9.5354592e-01   5.4823524e-01  -9.8806043e-01   7.8974253e-01  -9.2009939e-02  -5.4656044e-01  -7.7055909e-01   8.5503954e-01  -5.9576677e-01   7.9257313e-01   4.5046698e-01  -3.0844455e-01   6.4033548e-01   9.4098085e-01  -6.2066634e-01  -5.2915877e-01   2.2704925e-02   9.6846804e-01  -8.1964327e-01   2.1033381e-01   9.0193171e-01   1.7110409e-01   6.5584147e-01  -8.8926339e-01  -4.5810870e-01   7.9612241e-01   2.1106336e-01   7.8552876e-01   3.5338902e-01   3.3980016e-01  -4.9554537e-02  -8.8249406e-01  -6.0189184e-02  -8.2267138e-01   9.7528976e-01  -8.8781854e-01  -2.2038635e-01  -4.7568290e-01   2.8285788e-01  -6.3850991e-01  -3.2535283e-01   5.9142717e-01   5.0969538e-01  -9.7887651e-01  -4.0220193e-02  -2.0079433e-01  -4.9800117e-01   6.6035738e-01  -2.0287021e-01   6.7671262e-01  -9.2991878e-01   9.1950806e-01   4.1580062e-01   3.3792015e-01  -7.6424619e-01  -4.2838720e-01  -8.6756616e-01  -8.7843450e-01  -3.4749855e-01  -1.0132692e-01  -8.3188664e-01   1.0634594e-01   8.6703687e-01   7.6575806e-01  -3.4254917e-01   6.6607365e-01   1.9733438e-02  -7.0366468e-01   4.9288080e-01   8.1774483e-01   3.9685469e-01  -7.6424449e-01  -1.9752398e-01  -4.9091377e-01  -9.4264686e-01   2.9628785e-01  -9.2618238e-01  -8.9131057e-01   3.9828987e-02   5.5210446e-02  -8.2433843e-01  -2.1712462e-01  -4.3423736e-01  -2.6735903e-01  -8.3567124e-02   2.2623122e-01  -3.4006068e-01   3.9741192e-01  -2.8026343e-01  -2.6579902e-01   8.1609627e-01   1.0793917e-01   3.0446838e-01  -5.1918721e-01   1.1924033e-01  -2.3696024e-01  -8.8644240e-01  -7.1470620e-01   9.9852478e-01  -1.2379572e-01   7.7777743e-01  -7.8324743e-01  -3.2354992e-01   8.9758299e-01  -4.1464783e-01   1.1510837e-02  -9.4277101e-01   2.9808806e-01   3.0065814e-01   7.2385751e-01   7.1085864e-01  -6.0644859e-01   2.3974821e-01   9.2076921e-01   9.7533643e-01  -5.6111332e-01   6.9202865e-01   3.0209638e-01   6.2536008e-01   9.7215319e-01   8.4737146e-01  -5.4468451e-02  -8.8262985e-01   2.4825901e-02   7.8890148e-01   9.5298559e-01   8.6228046e-01  -7.8752344e-01   5.6057546e-01   2.5354835e-01  -3.7558546e-01  -7.2481740e-01   7.4830624e-01  -5.1404743e-01  -4.4026287e-02   7.5943075e-01  -9.0382395e-01  -4.8783250e-01  -6.2114121e-01   7.0743056e-01  -4.2918404e-01  -9.3910465e-01   9.7849827e-01   9.0058221e-01   9.0957735e-01  -7.5757252e-01   1.3007715e-01   6.5879993e-01  -8.8947653e-01   5.5169887e-01   1.2893056e-02   1.3138250e-01   7.9374268e-01  -6.7488023e-01   3.7448965e-01  -9.4544919e-01  -8.7310854e-01  -4.0657018e-01   8.7546325e-01   8.4213125e-01   8.2819022e-01   2.7080516e-01   6.6236015e-01  -2.5942918e-01  -1.0271590e-01   2.3853130e-01   5.0606808e-01  -5.5490659e-01  -8.7380498e-01  -5.8474146e-01   2.3307377e-01  -3.0251618e-01   8.2561594e-01  -1.1987400e-01  -7.8488398e-01   6.1248014e-01  -4.0840404e-01   8.4438418e-01   5.8165616e-01   3.5500185e-01  -6.5540176e-01   6.8855311e-01  -4.3301417e-01  -8.0565837e-01  -2.7851888e-01   1.0854010e-01  -8.8886580e-01   5.1771075e-01   1.8530134e-01  -7.3674211e-01   5.1911388e-01   6.7066706e-01   5.1150027e-01  -7.7190213e-01   3.1807158e-01   3.2806414e-01   7.0039801e-01  -3.0577412e-01  -4.5841394e-01   6.4597954e-01   9.2421739e-01  -2.8790831e-01  -1.8980801e-01   5.1595507e-01  -6.9940792e-01   1.6359491e-01  -3.2304105e-02  -7.1417133e-01   6.1193192e-01  -5.8425820e-01   9.1568007e-01  -7.7528460e-02  -5.7699738e-01  -6.8040745e-02   6.7747684e-01   7.8227510e-01   1.1951759e-01   4.2903001e-01   1.9567215e-01  -4.3282732e-01   8.8371103e-01  -9.8718650e-01   9.2241540e-01  -5.0821090e-01   7.9383099e-01  -6.0882332e-01   8.4528431e-01  -2.1431173e-01   2.8131584e-01   2.9354108e-01   7.4176005e-01  -7.8109525e-01  -6.4790306e-01  -5.1754769e-01  -8.8839105e-01  -3.4393358e-01   5.9076192e-01  -7.0860119e-01   7.6468231e-01   8.3901310e-01   7.2259419e-01   8.3941126e-02   9.2730113e-01  -1.4705880e-01  -5.8163605e-01   1.3648757e-01  -7.6194557e-01   5.1916509e-01   5.5811912e-01   8.9488298e-01  -9.5303289e-01   2.6146840e-02  -5.7042039e-01  -5.4899656e-01  -2.7346752e-01  -6.3160844e-01  -7.4769888e-01  -4.2844235e-01  -4.3627274e-01   3.8618513e-01   7.4368744e-01   1.3925887e-01  -2.3896308e-02   9.1960962e-01  -8.4808536e-02  -9.2617097e-01   9.9068164e-01  -2.6350724e-01  -5.6058720e-01  -3.3288551e-01   8.7312434e-01  -1.5180898e-01   6.9746359e-01  -4.5391321e-01  -4.0329773e-01  -7.7575621e-01  -7.0588191e-01   8.1233458e-01   8.2677645e-01  -9.8707160e-01   4.4744529e-01  -6.0510075e-02  -8.8684007e-01   2.6871751e-01  -1.3887032e-01   3.4202059e-01   1.5639177e-01   2.5339726e-01  -2.4633858e-01  -3.7081972e-01   9.5538500e-01   1.0333926e-01   6.2748597e-01  -4.9938304e-01  -9.3722866e-01   4.5744208e-01   4.4882819e-01   5.4241761e-01   1.1553629e-01  -5.7057438e-01  -8.5547629e-01   5.5484931e-01  -4.0560188e-01  -9.3736657e-01   6.5428002e-02   6.9893374e-01   2.6751019e-01  -7.5021036e-01   6.2479116e-01   3.9592093e-01   9.2184382e-01  -4.9250376e-01  -7.7769710e-01   9.0498703e-01  -4.0909816e-01   2.1421781e-01   9.8508648e-01  -4.9020809e-01  -2.1180866e-01  -9.6755651e-01   2.9385324e-01   6.4505227e-01  -5.6675550e-01  -7.2951274e-01  -2.1430278e-01   7.6914127e-01   9.7499949e-01  -6.6462392e-01  -1.4175592e-01   8.6629308e-01   9.4061778e-01  -1.4336677e-01  -9.2837383e-01  -2.5112853e-01   4.8793567e-01   9.0014202e-01   8.7667927e-01   5.1585932e-01   4.5909559e-01  -3.9772399e-01   6.6192222e-01  -4.9639427e-01   8.9413543e-01  -9.9296388e-01   4.5376485e-02  -6.6742962e-01   7.6437763e-02  -6.1040504e-01  -8.1029267e-01  -3.8579888e-01   1.5782029e-01   7.2451422e-01   2.8753774e-01  -7.4203355e-01   3.2853307e-01  -3.0775820e-01  -1.7146960e-01  -8.4397215e-01  -7.8087958e-01   1.5046312e-01  -6.7228270e-01   8.5601462e-01   3.7151417e-01   5.9747200e-01   6.8426389e-01   8.2202583e-01   2.1541418e-01   1.7419834e-01   8.1215595e-01  -1.1771117e-01  -5.9373533e-01  -8.4050856e-01  -4.3034457e-01   7.7791190e-01   9.6148735e-01  -5.6499808e-01  -8.3794480e-01   7.5001521e-01  -6.1301947e-01  -4.0404298e-01   3.1503531e-01   4.7908828e-01   9.4819113e-01  -6.0846618e-01   1.6948180e-01   6.3968947e-01  -2.2775678e-01  -7.6020050e-01  -2.5664859e-01   9.0766200e-01  -7.9525802e-01  -1.1551765e-01  -1.4689908e-01  -5.0927694e-01   6.3066315e-01   8.6900942e-01   8.7780961e-01   2.7372517e-01   6.9919157e-01   6.1484910e-01   9.6236502e-01  -2.1819595e-01  -3.3715710e-01  -5.7553858e-01  -6.9854317e-01   5.8544330e-01   2.5160222e-01  -3.8835751e-01  -8.2858497e-01  -1.4659402e-01  -1.7933229e-01  -8.3011514e-01   4.1865720e-01  -7.5515153e-01  -3.9157217e-01   1.4910011e-01   4.9398357e-01   5.7058786e-01   6.9357143e-01  -9.2941478e-01  -3.1002138e-01  -5.7533130e-01  -9.7692329e-01   8.9471363e-01  -2.5099769e-01   2.6996347e-01   8.4252646e-01  -7.4725346e-01   5.3252788e-01   9.8719766e-01  -2.7725250e-02   6.4411114e-01  -4.8958708e-01   9.9876304e-01   9.8028763e-01   8.6872916e-01   1.7602395e-01  -7.3585125e-01  -1.0001101e-01   4.5647508e-01  -7.4609695e-01   8.1708517e-01   7.6187465e-01   9.8394383e-02   6.2058392e-01   6.8625681e-02  -8.3101487e-01  -7.8203514e-01   2.4964056e-02  -4.2699807e-01  -9.2659150e-01  -2.6345881e-01   8.9212636e-01  -8.5080725e-01  -3.3900093e-01  -3.5444875e-01   8.2270351e-01   3.6620576e-01  -7.0764282e-01   5.1242102e-01  -2.6501398e-01  -2.3830951e-01  -9.2029752e-01   4.0540380e-01   5.3138411e-01   9.2129637e-01  -8.4644119e-01  -9.1889877e-01   2.7786504e-01  -5.0153972e-01  -3.8966913e-01   3.7920993e-01   2.5626211e-01  -3.9429261e-01  -7.1494492e-01  -6.1155823e-01   5.3164396e-01  -6.7599680e-01   8.3924767e-01   6.1173058e-01  -7.6476561e-01  -6.4744175e-01  -5.6079080e-01   1.5570726e-01   1.8298601e-01   8.4475409e-01   6.1225451e-01   5.5360663e-01   4.4372155e-01  -5.7301243e-01   3.6501386e-01   9.4653250e-01  -9.9191778e-01   1.9021654e-01  -5.8024271e-01   7.7661810e-01   8.0123236e-01   5.7547024e-02   1.4563338e-01  -4.2225284e-01   4.6943565e-01  -3.4290474e-01   4.8237642e-01  -3.6971106e-01   7.8165933e-01  -8.0990880e-01  -5.1802372e-01   4.5832715e-01  -8.6148266e-01   7.4962288e-01  -1.8242903e-01   3.3641247e-01  -5.3318197e-01  -6.0685924e-01  -8.8100605e-01  -2.2539619e-01   1.0698855e-01  -5.4526672e-01   5.3860083e-01  -3.4211596e-01  -3.9454930e-01  -7.5194396e-02   1.7320487e-01  -8.6147850e-01   1.3400205e-01  -3.6177791e-01  -7.4254227e-01   3.7794283e-01   6.6445927e-01   4.7320819e-01  -2.6160750e-01   3.7481610e-01   4.3884529e-01   8.6339627e-01  -6.5504916e-02   7.8439482e-01  -6.5294225e-01   2.0781352e-01   5.6869568e-01  -8.7500009e-01   7.3466994e-01   4.6408312e-01  -3.2181091e-01  -6.8268720e-01   2.5210026e-01  -8.9361952e-01   5.5284422e-01   7.8421046e-01   8.5565066e-01  -1.4745540e-01   8.9822047e-01   8.7626801e-01   9.2176799e-01   2.3945940e-01   9.0264364e-01   2.8713276e-01  -3.4127941e-02   7.4044860e-01  -9.3825097e-01  -6.5911130e-01   3.1289392e-01   8.3230640e-01  -5.7273762e-01   5.6776048e-01  -6.3328744e-01   5.0651268e-01   6.9771448e-01  -6.6290735e-01   1.2332174e-01  -7.0803130e-01   6.6688911e-01   5.9719415e-01  -4.7093514e-01  -8.2893996e-02  -4.2323516e-01  -9.9952330e-01   5.6296577e-01   6.0929351e-01   1.9333638e-01   3.9031516e-01  -1.7525868e-01  -3.8952645e-01   8.0654058e-01  -9.1109017e-02  -5.5848830e-01   2.9043543e-01  -1.9644338e-01  -5.3893899e-01   1.8191429e-01  -8.9959807e-01   3.3191033e-01   6.7082938e-01  -7.9860382e-01   6.9583322e-01  -4.4129444e-01   8.2459744e-01  -9.8541070e-01  -2.1139073e-01  -7.7192420e-01   5.6958938e-02   5.4381962e-02  -5.4843205e-01  -7.5077867e-01  -9.9514418e-02   7.1016715e-01   4.1336734e-01   3.0469402e-02  -3.9674345e-01  -3.0419844e-01  -5.8132601e-01  -2.9652413e-01   1.4764928e-01  -1.9452428e-02   1.0390983e-01   7.1283721e-01  -8.2202835e-01  -8.7694621e-01  -1.6855629e-01   8.6795715e-01   9.1556504e-01  -5.3744740e-01   3.2405557e-01  -3.1267285e-01  -1.0849300e-01   3.6121546e-01  -9.4120294e-01  -8.5173746e-01   5.6177422e-01  -2.6550640e-01   7.2063144e-01  -2.5195880e-01   7.1196504e-01   9.5485415e-01   9.5961547e-01   3.0247540e-01  -9.2271817e-02  -5.3251177e-01  -5.6550849e-02  -8.4790164e-01  -9.6149679e-01   2.0546182e-01  -4.8727001e-02  -2.8877841e-01  -8.7023192e-01  -6.9094768e-01   8.9852359e-01  -5.5314729e-01   6.3772702e-02  -6.5960951e-02  -1.1272369e-01   5.8738842e-01  -6.0285883e-01   4.4606205e-01  -9.4520747e-01   6.9848016e-01  -2.9006176e-01  -3.6470709e-01  -8.0930226e-01   2.8531986e-01   6.0812717e-01   7.6271440e-01   5.7714022e-01   7.7311084e-01   8.1116103e-01   6.4930454e-01  -8.0861142e-01  -2.6389666e-01  -9.3680999e-01   4.9508474e-01  -1.3424125e-01  -3.7345152e-01   4.4673113e-01  -3.4051128e-01  -6.7700052e-01   1.7869950e-01  -7.7913003e-01  -3.0845502e-01  -9.1838582e-01  -8.6000205e-01  -3.0324462e-01   6.1695995e-01   4.0265135e-01  -2.2475833e-01  -5.5536115e-03   6.8712850e-01   7.2489548e-01  -1.6170181e-02   3.0875667e-01   8.3512299e-01   1.2731528e-01  -4.5108565e-01  -3.3293901e-03  -9.9434348e-01   1.9744844e-01   2.1932510e-01  -7.3581261e-01   9.4187490e-01  -7.4552353e-01  -7.7025904e-01   8.5149626e-01   5.3293785e-01  -4.8390210e-01   9.3042819e-01   2.6476494e-01   7.5752716e-01  -3.2725849e-01   6.8709982e-01  -1.5973108e-01   2.5635391e-01   1.1966846e-01   1.7534310e-01  -3.8342177e-03   7.9587025e-01  -9.4651109e-01   9.0652011e-01  -9.9222871e-01  -4.4341684e-01   7.0065668e-01   6.5664028e-01  -6.7629777e-01   6.6060512e-01   7.4966452e-01   1.9870938e-01   7.3292034e-01   4.7075575e-01   9.6121084e-01  -8.3886560e-01  -7.4671984e-01  -3.3673007e-01  -8.2563415e-01   4.4086940e-01   5.1997020e-01   4.3241489e-01  -5.0863281e-01  -3.8819438e-01  -9.8445342e-01  -8.3459207e-01   5.9980770e-01  -2.4876906e-01  -4.4491042e-01   9.3291619e-01   6.2822404e-01  -9.3157648e-01   7.3081393e-01   3.3356094e-01  -9.6836144e-01  -2.1682819e-01  -3.8280209e-01  -3.7837694e-01   1.3266695e-01  -7.9906106e-01  -1.0739312e-01   7.3118217e-01  -2.9280593e-01   4.0393355e-01   2.7175766e-01   9.5304101e-01  -1.3904755e-01  -1.0485736e-02  -1.8053161e-01  -1.0498999e-01   7.7308809e-02   6.6089549e-01   1.3014272e-01  -7.0825044e-01   8.0964319e-01  -9.1508472e-01   7.3612929e-01  -3.2302133e-01   1.2625069e-01  -1.6352426e-01  -9.7423563e-01   7.6430683e-01   3.0006968e-01   1.8894944e-01   4.7696332e-01  -1.3083623e-01  -9.6503499e-01  -2.2840419e-01  -5.9972687e-02  -1.9069110e-01  -8.2156428e-01  -3.9150064e-01  -2.9901170e-01   1.7692925e-02  -2.4060801e-01  -3.4869138e-01   1.9732164e-01   3.4187003e-01  -9.4725163e-02  -3.5082624e-01
  -2.2180284e-01   1.6709336e-01  -2.4552489e-01  -8.6871367e-01  -4.0730665e-01  -2.8267324e-01   6.5812634e-01   8.7621990e-01   6.8340484e-01  -1.7801508e-01  -5.8861397e-01  -9.5957341e-01   7.8481540e-01  -4.0575280e-01  -3.0309204e-01   3.0028580e-02  -8.6177316e-01   8.9361744e-01  -3.4949873e-01  -6.9874014e-01  -6.7170677e-02   2.3317546e-01  -6.5555755e-01  -9.5723670e-01   9.6941811e-01   6.7724683e-01   2.1356574e-01   3.1735977e-01  -4.9984811e-01   9.8665432e-01   6.7182941e-01  -4.8797764e-01  -1.0824824e-01   4.5655312e-01   3.9984542e-01  -1.9884594e-01  -2.0478755e-01  -1.7045304e-01  -2.3067881e-01  -3.8450248e-02  -5.7445500e-01  -4.1148221e-01  -7.6848083e-01  -5.7684862e-02  -1.3133750e-01  -8.3958735e-01   7.5669447e-02   8.4970611e-01   6.4484620e-01   9.5231532e-01   9.1530785e-01   8.7067206e-01  -7.8607574e-01  -4.5371776e-02  -4.1570450e-01  -6.3024639e-01  -3.1481317e-01   1.1419178e-02  -7.1004020e-02  -8.9800043e-01   7.9337096e-01   9.8637518e-01   3.1223455e-01  -2.6174013e-02   3.8425429e-01   3.4288147e-01  -8.4021725e-01   8.0141099e-02   2.8143729e-01  -1.3022371e-01  -3.0777421e-01   4.2950018e-01  -3.7512384e-01  -3.2178614e-01  -6.1424611e-03   2.6888108e-01   3.0729313e-01  -7.7400309e-01  -2.6657314e-01   3.6848245e-01  -1.2013198e-01   6.4458901e-01   5.6618841e-01   5.3155854e-01  -5.4055395e-01   9.9613165e-01  -2.3226636e-01   8.8334787e-01   8.5259951e-01  -5.4212042e-01   8.0090071e-01  -4.3440542e-01  -5.4213747e-01   9.4401485e-01   7.7578157e-01   8.4564597e-01   2.1984909e-01  -4.9444012e-01   4.5737135e-01  -2.7636279e-01  -9.5806374e-01  -4.4714984e-01  -8.4601790e-01   7.8907464e-01  -6.4922996e-01  -5.3751093e-01   6.0040264e-01   8.4465407e-01  -8.7197931e-01   3.2562853e-01  -1.6225657e-01  -8.5630092e-01  -3.7377473e-01  -8.0979910e-01   8.5394013e-01   6.1535213e-01  -6.7243546e-01  -8.2596108e-01  -6.0162805e-01   2.0442260e-01   1.2403828e-01  -4.9740702e-01  -8.7338303e-01   9.5692474e-01   1.3554266e-01  -7.7743243e-01   7.3547768e-01   7.5672727e-01   8.2701198e-01  -3.2585510e-01   7.5974414e-01  -3.4868192e-01  -9.6016892e-01  -4.2629853e-01   7.0681193e-01  -7.4181648e-01  -1.0527298e-01   6.1607955e-01  -9.8297692e-01   1.4986080e-01   3.7283154e-01   6.6035017e-01   2.4346074e-01   3.3827702e-01   8.7415947e-01  -4.8728652e-01  -4.0715199e-01  -6.5622593e-01  -8.8987143e-01   2.6049903e-02  -2.6569585e-01  -1.3372141e-01   4.1527501e-01   7.7157101e-03   9.8830421e-01   3.9360841e-01   9.6160933e-01   6.3719875e-01  -3.2130030e-01   6.5797321e-01  -5.3530876e-01   8.3172123e-01  -6.7698023e-01   2.1583437e-01  -8.6715711e-01  -2.2806763e-01   4.2790616e-01  -7.5383648e-01  -5.3293795e-01  -6.3937316e-01  -2.0834495e-01   9.4773296e-01  -8.4389638e-01  -8.0599651e-01  -1.5980192e-01   2.6631741e-01   8.4451712e-01  -7.4175105e-01  -1.7377382e-01   1.2436161e-01   3.1033593e-01  -1.6820090e-01  -9.8345454e-01   6.4466901e-01  -3.7407961e-01  -2.2276368e-01  -8.4856753e-01   4.0842814e-01  -2.1822613e-01   5.5954752e-01  -5.2901499e-01   1.3826194e-01  -4.8184857e-01   8.0775250e-02  -3.6727155e-01   6.0962323e-01  -8.8859484e-01   1.7525729e-02  -6.9102519e-02   1.8961190e-01   4.1591884e-01   3.6268505e-01  -3.5599865e-01   6.9008699e-01  -4.5226521e-01  -6.4305535e-01   4.0144511e-01   1.2211285e-01   7.3776493e-01  -2.4056379e-01   4.9031612e-01  -2.0983223e-01  -7.6812763e-01   1.9354873e-01  -6.4871932e-01  -7.8327165e-02   9.1196089e-01   1.2177938e-01  -8.4377326e-01   3.8424259e-01  -6.7303527e-01   6.4418969e-01   5.3815994e-01   5.7650593e-01  -4.6737974e-01   5.6583428e-01   8.2312384e-01  -2.6548512e-01   2.3051694e-01  -7.6525317e-01   8.8574861e-01   5.6663168e-01   3.7099587e-01  -5.3120282e-01  -2.0076686e-01   1.6904054e-01  -8.9341184e-01  -9.3643201e-01   6.6874989e-01  -2.4583656e-02  -3.7607771e-01  -3.5604314e-01   3.8898368e-01   5.6547225e-01  -6.6719138e-01  -7.1451585e-01  -7.8436718e-02  -6.9944018e-01  -6.0482620e-01  -8.6424217e-01   9.2765338e-01   5.9227514e-01  -4.3624807e-01   8.8286220e-01   5.5847489e-01   4.9579170e-01   5.8705880e-01   5.7701202e-01  -2.6156616e-01   9.6093870e-02   4.4427851e-01   3.2536409e-01   8.1249310e-01   4.6017556e-01   2.4279662e-01  -9.9421451e-01   2.4185384e-01  -6.2707498e-01   4.8594557e-01  -6.4783323e-01  -4.0197592e-01   1.6949733e-01   6.9997453e-01   2.7625611e-01   3.1316712e-01   2.7855118e-01  -2.6970524e-01   5.7125768e-01  -2.6022728e-01  -2.6669600e-01  -7.5399361e-01  -1.5271488e-01   1.2841883e-02   3.4773356e-01   1.6407161e-01   9.7836097e-01   2.5315413e-01  -6.2466254e-01   8.9199938e-01  -8.7651016e-01  -1.6853488e-01  -2.0753217e-01  -3.2444971e-01  -3.5649273e-01   3.2215791e-01  -8.7922964e-01   1.6437897e-01  -3.4561488e-01  -2.1456506e-02  -1.7928179e-01   3.9075703e-01  -4.2849661e-01  -1.5135105e-01  -1.4673563e-01  -3.4001957e-01  -5.2926233e-01  -4.7878762e-01   3.5402739e-01  -8.2050546e-01   6.7443685e-01   8.6553569e-01  -4.7010650e-01   2.2319270e-01  -9.4662141e-01  -7.4017582e-01   5.7986066e-01   4.3430016e-01  -7.3191905e-01   3.3434641e-01   6.8674956e-01  -9.1891774e-02  -5.4874667e-01  -3.3400050e-01   1.7344386e-01  -4.5444889e-01   1.4107209e-01   1.2495736e-01  -3.6406108e-01  -6.4659820e-01   2.9366914e-01   2.4765162e-01  -3.3266103e-01  -8.8912826e-01   9.1127948e-01   8.6295076e-01   7.0111817e-01   7.4427583e-01   3.2786910e-03  -1.4671055e-01  -8.1309070e-02   1.0276343e-01  -6.8869725e-01   7.6282811e-02  -3.1550110e-01   6.7424722e-01  -7.0580008e-01   5.3658155e-02   2.0668160e-02   1.3699096e-01  -5.9280316e-01  -4.1156709e-01   8.1077390e-01   2.7685505e-02  -5.8365661e-01   4.8368317e-01   4.6393993e-01   2.4819284e-01  -1.4052096e-01   9.0532600e-01  -2.7293158e-01  -9.9905591e-01   7.7901464e-01  -6.0439028e-01  -8.7554610e-01  -1.0527764e-01  -8.8683803e-01   4.3569971e-01  -8.5974965e-02   3.1280609e-01  -1.4328869e-01   4.5813129e-01  -7.3879901e-01  -6.0879233e-01  -7.2736879e-01   8.7181099e-01   6.4650894e-01  -4.2721331e-01   6.9088136e-01   1.6775058e-01   3.7246333e-01   1.4428021e-01   9.8948132e-01  -9.6079221e-02   4.8464254e-01   6.4052475e-01  -3.4475251e-01  -5.3584334e-01  -2.7818634e-01  -2.6677285e-01  -3.3213939e-01   8.0260941e-01   6.6238852e-01   5.9468495e-01  -5.3059011e-01  -1.9047173e-01   5.7294831e-01   4.8061029e-01  -9.4281181e-01  -9.2686194e-01  -4.0552755e-01  -3.7197552e-01  -4.0658369e-01   3.3986108e-01  -2.0677373e-01  -5.0427581e-01   9.2692721e-01  -4.5923826e-01  -4.4559080e-01  -2.7077779e-01  -7.8666622e-01  -1.1683397e-01   5.2133886e-01   2.1576622e-01  -6.7975328e-01   3.5179148e-01   3.0574816e-01   4.2394666e-01   3.4467903e-01   2.6560114e-01  -4.5721178e-01   6.6412896e-01  -9.0579658e-01   2.0669732e-01   4.9188247e-02  -1.1894097e-01   1.9944165e-01  -4.8759040e-01   9.0358190e-01  -6.9640238e-01   9.9974299e-01  -2.3814187e-01  -1.6287320e-02  -4.5896081e-01  -9.1682457e-01  -1.3840337e-01  -4.2753186e-01   9.3788487e-02   7.7071465e-01   9.3841561e-01  -3.0022058e-01   5.8194168e-02   3.0968354e-01   4.6701059e-01   5.0605806e-01   7.4207216e-01  -6.3956398e-01  -6.9091234e-01   1.5825830e-01  -7.1935117e-01   5.1966713e-01  -7.2590442e-01  -7.9716851e-01   7.2287875e-01  -2.1559037e-02  -1.8587946e-01   9.1980638e-01   8.4584879e-01   7.2691926e-01  -1.4612161e-01  -7.0451091e-01  -2.7265747e-01  -8.6938122e-02   5.9978862e-01  -8.8018363e-01   2.1283806e-01   4.4656880e-02   2.8362411e-01  -4.4617504e-01   9.2477349e-01  -1.7211745e-01  -5.3403351e-01   1.0911713e-01   8.4182977e-01  -4.8012610e-01   1.8551317e-01  -3.1473056e-02   7.1039516e-01   4.5414530e-01   4.0483286e-01  -9.8682546e-01  -4.1391737e-02  -8.8871126e-01  -9.0666490e-01  -7.2092776e-02  -1.3171633e-01   1.1776984e-01   4.1636291e-01   9.2459790e-01   2.7786130e-01  -4.2462459e-01   4.3802118e-01   1.6731486e-01  -6.7503612e-01   5.1846180e-01   7.4371089e-01   2.1050633e-01   1.5763682e-02  -7.7019997e-01  -1.6603101e-01   8.3900177e-01  -4.6620371e-01   4.1622897e-01   4.9014741e-01  -5.6639760e-01   7.1773619e-01   7.4479017e-02  -7.5739569e-01   3.5922893e-01  -8.9951866e-01   4.9195331e-01   4.5795840e-01  -6.4936604e-01  -8.3164519e-01  -4.2504328e-01   3.0466000e-01  -5.8412478e-02   7.2530654e-02   5.8942125e-01  -1.5950521e-01  -7.9401716e-01   9.5116874e-01   7.9540461e-02   8.6380751e-01   6.3004083e-01   9.6613097e-01   4.9100069e-01  -7.8777564e-01  -4.1360147e-01   2.5496986e-01   4.6841631e-01  -4.6375600e-01   3.2976149e-01  -1.0120991e-01   9.8301685e-01  -2.7879266e-01  -1.7998516e-01  -7.4222315e-01  -1.2498536e-01  -1.2545630e-01  -9.5551799e-01  -9.6257109e-01   6.0295015e-01  -4.3800602e-01   8.2424874e-01  -3.3565125e-01   6.8169546e-01  -3.2796217e-01   2.3797142e-01   7.0894409e-01   3.2764930e-01  -8.3155461e-01  -6.9042775e-01  -2.6904765e-01   1.4839393e-01  -3.4227560e-02   9.4172284e-01  -3.6012047e-02  -4.4422749e-01   2.7087066e-01  -1.8997257e-01  -6.6080395e-02  -1.0910751e-01   6.8191016e-01  -8.2431512e-03  -7.2220164e-01   9.1920778e-01  -5.4234620e-01  -5.5909295e-01   6.9964124e-01   9.5824768e-02  -7.3249505e-01  -3.2403236e-01   3.7144847e-01  -3.9315873e-01  -2.8439243e-02  -5.6596242e-01   9.1728189e-01   1.8260319e-01   7.7321964e-01   4.2449425e-01   2.4342118e-01  -6.9431878e-01   1.2882700e-01   5.0745809e-01  -1.5269158e-01   1.5576800e-01  -9.2495982e-01   4.1733949e-01   3.5028986e-02   6.3042428e-01   6.3035258e-01   7.0039028e-01   6.9559854e-01  -8.6280280e-01   5.7195593e-02  -6.0966066e-01   5.2718574e-01   8.5605094e-01  -7.8442814e-01  -6.7511020e-01   5.5592099e-01   3.8240181e-01   1.1144324e-02  -2.7834940e-01  -5.8140193e-01  -3.9702540e-01  -9.1229654e-01   2.0262161e-01   5.5980927e-01   5.2402691e-01  -5.6077776e-01   2.7658714e-01  -9.5697549e-01  -5.1337689e-01  -3.4941101e-01  -8.3083750e-01  -2.1924194e-01  -5.9830635e-01   3.7586352e-01   1.6693356e-01   3.9065202e-01  -6.3877042e-01  -9.7611200e-02  -9.3730759e-02   7.8942751e-01  -5.5441864e-01  -1.2821864e-01   9.8946466e-01   7.0009364e-01  -5.4707496e-01   5.5124456e-01   7.2182657e-01  -5.4522217e-01  -3.8300620e-01  -7.1097748e-01   6.5169307e-01   3.8156019e-01   6.5072062e-02   1.2067285e-01   6.0625408e-01  -6.0529610e-01   1.9002190e-01   1.5974482e-01   2.5240908e-01  -3.0661570e-01  -2.7172641e-01  -6.0183086e-01   2.4256845e-01   5.5649877e-01   2.0531275e-01   3.3618635e-01  -1.2032982e-01   5.2294404e-01   9.5971858e-01   8.4640872e-01  -3.3144679e-01   2.2687361e-02   4.6439009e-01  -1.2849016e-01  -6.0801999e-01   1.4583345e-01  -4.9817553e-01  -1.2144089e-01  -1.8518872e-01  -1.3376714e-01   3.6962964e-01   3.6899986e-01  -2.6508254e-01   8.7632770e-01  -4.2853617e-01  -3.2833338e-01   8.1918451e-01  -3.3989996e-01   6.6296134e-01  -5.4340699e-01   4.9012725e-01  -4.6567065e-01   4.8837132e-01   4.8295055e-01  -3.5476398e-01   6.1755476e-01  -3.6944794e-01  -8.7811050e-01  -8.6494504e-01  -1.4078798e-01  -7.8533532e-01  -3.4598686e-01   2.2348454e-01  -6.1821682e-02   6.2489257e-01   1.3342252e-01  -5.7309292e-01   4.5074415e-02   1.1794151e-01  -6.3370292e-01  -9.7500444e-01   2.1654565e-01  -5.3466010e-01   3.6018362e-01  -4.5872008e-02  -3.3179085e-01  -1.4964638e-01  -5.4173150e-01  -5.4891587e-01  -4.6556296e-01   3.9093175e-01  -5.3598024e-01  -2.1714255e-01   5.0073115e-01   4.7034323e-02   9.1749627e-01   7.2120595e-02   6.4218005e-01  -9.7852471e-01  -7.4820468e-01  -3.8032065e-01  -8.9617374e-01   1.7388110e-01   8.7737185e-02  -6.5857723e-01   9.5401023e-02   3.4271002e-01   6.2358798e-01   1.8624037e-02  -1.9331325e-01   6.3251856e-01  -7.7238290e-01  -9.1433336e-01   4.8471099e-02   7.8947965e-01   9.9771539e-01  -7.1729692e-01   4.6958277e-01   6.6568060e-01   7.0030087e-01  -3.2347262e-01   6.6149861e-02  -1.0455026e-01  -3.8415192e-02   8.0008920e-01  -2.8973436e-01  -4.7698616e-01  -2.7425831e-01   1.2479607e-01  -7.1843875e-01  -3.0898643e-01  -6.1303497e-01   6.2952768e-01  -4.6542799e-01   9.4179907e-01   6.6338622e-01  -8.1955371e-02   3.0733820e-01   5.0124308e-01  -2.7981208e-02   1.5211622e-01  -5.3034680e-01   7.2903316e-01  -9.6379392e-01  -5.8404503e-01  -9.5070951e-01   3.6621745e-01  -8.2707567e-01  -9.6637248e-01  -1.1757538e-01  -5.4816273e-02  -4.3980749e-02   8.9852388e-01  -1.5766214e-02   5.6342901e-02   2.8494426e-01   5.3347647e-01  -2.3726231e-01  -5.1922195e-01  -3.2906519e-01   4.0415057e-01   5.0744450e-01  -3.3657503e-01   6.7550300e-01   1.9904060e-01   4.7153850e-01   9.1846478e-01  -8.5769812e-01   3.0970636e-01  -6.9149634e-01  -9.7787546e-01   6.4986746e-01   8.1836635e-01   8.8812036e-01   6.8692007e-01  -1.3794145e-01  -6.9369062e-01   9.0921673e-02   1.5950277e-01   5.7823768e-02   6.6768236e-01   3.5773201e-01   1.2519136e-01   6.0661992e-01  -1.7957979e-01  -9.1544927e-01   1.5357936e-01  -8.2877441e-01   9.0713366e-01  -2.5108176e-01   3.8178597e-01   8.7359755e-01  -8.6480720e-02   9.7428893e-01   9.0198384e-01  -3.7733006e-01  -8.4793990e-01   2.7275787e-01  -4.4399367e-01   9.5876511e-01  -9.6368093e-01  -8.0306786e-01  -1.0111722e-01   7.6046349e-01   1.8233737e-01   3.1617268e-01   3.0059117e-01  -7.5736451e-01  -4.1608677e-02  -8.2931451e-01   4.8993979e-01  -6.1965136e-01  -5.0492021e-01  -8.4296919e-01   3.2307358e-01  -1.2449141e-01   7.6542260e-01  -6.4716601e-01  -4.6411702e-01   3.8090082e-01  -2.1506857e-01  -9.8675716e-01   3.8654731e-01   8.3095794e-01  -7.3252129e-01  -6.2746899e-01  -8.6183099e-01   7.9879738e-01   8.7356453e-01  -5.2283661e-01   3.7399105e-01   6.2749666e-01   8.4975119e-01  -2.8828222e-01  -4.4832502e-01   4.7623308e-01   4.8254992e-01  -9.8444241e-03   7.3169585e-01  -7.4896569e-01  -9.4020456e-02  -6.4395077e-01  -4.3481247e-01   6.0760516e-01   1.9630524e-01  -9.8460575e-01  -7.9073017e-01   2.2628067e-01  -9.2893764e-01  -5.5806671e-01  -4.4562365e-01  -1.5329829e-01  -4.7466808e-01   4.6687273e-01   5.3555435e-01  -9.4305563e-01   2.0928445e-01   9.2800635e-02   4.2594809e-01  -9.5250411e-01   4.6608698e-01  -8.4771540e-01   6.0286611e-02   3.6013733e-01  -3.6765623e-01  -6.9953184e-01  -4.7199373e-01  -5.4021448e-01  -8.4232999e-01   1.6972977e-01  -1.4079205e-01  -4.7179271e-01  -3.7175806e-01   8.2609818e-01  -8.0346057e-02   2.8303260e-01  -6.9098569e-01   3.9474684e-01  -7.5023543e-01  -7.2588378e-01   6.6856602e-01  -6.6410583e-01  -1.0032663e-01  -9.2910672e-01  -6.7151388e-01  -7.0880886e-01  -9.0006226e-01   6.1609426e-01   3.9732874e-01   2.0710006e-01   1.0192358e-01   4.7659877e-01  -6.2596365e-01  -3.2864172e-01  -1.0260484e-01  -1.6828242e-01  -5.4112967e-01  -6.5776583e-01   1.8020482e-01  -2.1262720e-01  -2.4271113e-01  -5.5498576e-01  -7.8362872e-01  -7.3300013e-01   7.2687154e-01   9.2989563e-01   6.6741993e-01   1.7516418e-01   7.1042998e-01  -9.4618598e-01  -2.0807531e-01  -5.0296625e-02  -4.6243540e-01   9.8721386e-02   1.3251528e-02   2.2100320e-01  -5.9905055e-01   5.5316318e-02   6.1256883e-01  -4.8608086e-01   6.5999446e-01   9.8353216e-01  -3.9230928e-01   6.7410097e-01  -6.0484404e-02   3.8816950e-01  -4.5833288e-01  -6.0611080e-01  -6.5494021e-01  -1.0334788e-01   3.2312647e-01  -7.0722769e-01  -4.2084293e-01   8.1981582e-01   8.3647153e-01   1.7513972e-01  -9.5902980e-01   7.0958855e-01   4.0226996e-01  -4.2702680e-02   2.5258797e-01   9.0884872e-01   9.9258369e-02  -6.8292224e-01   9.7660205e-01  -7.9133006e-01   3.6335860e-01  -9.0877330e-01  -9.4912548e-01  -1.4563813e-01   3.8251021e-01  -6.1519951e-01  -7.4394172e-01   4.7081603e-01  -8.5374412e-01  -6.1583135e-01   4.2419342e-01  -3.9202342e-01  -3.7581450e-01   9.3750544e-01   5.5313386e-01  -8.3444210e-01   6.0181719e-01  -6.0276823e-01  -2.0916517e-01  -2.4272773e-02  -8.2283373e-01  -3.0439447e-01  -8.2755861e-01  -8.5876940e-01   4.6689736e-01   2.7733350e-01   2.1910012e-01  -1.2624655e-01  -2.6853259e-01   8.2888428e-01  -6.4790299e-02   9.6853439e-01  -9.8630385e-01  -2.9042920e-01   2.2001080e-01   6.6281187e-01  -8.7081034e-01  -2.8160639e-01   6.1504622e-01
  -4.8860648e-01  -7.6292404e-01   9.7219344e-01   6.2321407e-01  -8.8948060e-01   8.2717086e-01   6.8810676e-01   9.9626233e-01   1.2206423e-01   5.0174093e-01   5.6244010e-01  -2.6645609e-01   7.3901212e-01  -1.2759414e-01  -8.9924847e-01   2.6518476e-01   2.4951697e-01   3.5416529e-01  -5.4448126e-01  -6.2795853e-01   1.9800313e-01   9.9662264e-01  -9.7630203e-01  -8.6991963e-01   4.5928246e-01   9.0123899e-01   7.9765181e-01   9.7382021e-01  -1.3788057e-01   4.7957768e-01  -5.9110203e-01   1.1065839e-01  -9.3162592e-01   1.9159158e-01   9.5338818e-02   2.3030892e-01   1.7110924e-01   3.8191323e-01  -4.9717495e-01  -7.2879530e-01  -8.8807246e-01  -1.5979575e-01  -3.1896795e-01   8.1148894e-01  -9.1237813e-01   1.7862328e-01  -8.4235831e-01   6.3691874e-01  -9.4264821e-01  -5.0729846e-01  -4.5809965e-01  -3.1627308e-01   3.7223186e-01  -8.5546317e-01   6.9048399e-01  -9.0553959e-01  -1.9117873e-01  -2.7745647e-01   6.1878161e-01   8.8859850e-01   6.6177742e-01  -8.1633191e-01  -6.3282349e-01   4.3213151e-01  -1.8423020e-01  -3.4681761e-03  -8.1637130e-01  -5.2465713e-01   9.0906075e-01   1.0284668e-01   8.5973143e-01   9.5859336e-01  -9.9835521e-03  -6.5122082e-01   7.3079987e-01   5.3445218e-01   4.4194687e-01  -5.6210274e-01  -5.0297551e-01  -6.9241486e-01   2.4026731e-01   4.5270228e-01   5.8654569e-01   9.9062458e-02   3.0419528e-02  -7.5997661e-01  -4.0060950e-01  -1.5161453e-01  -5.6473762e-01  -6.8412908e-01   6.3537411e-01   2.6860981e-01   3.2793656e-01   8.5028075e-01   1.5340920e-01  -1.2227988e-02  -6.5063825e-01   3.5273786e-01  -3.7753754e-01   4.5667027e-01  -7.3990271e-01   5.6349634e-01   2.4318820e-01  -5.1374110e-01  -3.5654277e-01  -1.1348474e-01  -5.6852670e-01   2.2503342e-01  -1.3370980e-01   8.2166320e-01  -5.9678987e-02  -5.8459417e-01  -8.8690971e-01   4.6231626e-01   6.7649806e-01   5.9430415e-01  -3.0971764e-01  -3.3639632e-01  -4.3078657e-01  -2.8069560e-02  -9.5814800e-01  -7.9039069e-01  -6.8867808e-01   7.1510181e-01  -4.0473032e-01  -4.6248220e-01   8.3413330e-01   6.5142372e-01   7.2926715e-01  -4.8472574e-01   3.3065373e-01  -5.5699002e-01  -8.1534871e-01   3.8747039e-01  -5.6384761e-01  -5.4101486e-01   6.9839374e-01  -9.7372132e-01  -8.2970038e-01   7.2923464e-01  -7.7484888e-01   2.6437084e-01   3.2032654e-01  -7.1511692e-01  -8.3367250e-01  -5.6816037e-01   7.2941999e-01   3.0428212e-01  -9.3704050e-02  -3.5899693e-01   9.6035746e-01   9.5884652e-02   1.3792181e-01  -3.2285628e-01   9.4406092e-01  -1.9975577e-01   3.9213058e-01  -7.4973574e-01   1.3865570e-02   7.3101601e-01   3.0931768e-01  -6.2812157e-01  -7.8532369e-01   7.8836560e-01  -5.1145338e-01   4.0793204e-01  -6.8690192e-01  -8.5873876e-01  -1.2298063e-01  -5.9150505e-01  -3.0855484e-01   1.7774639e-01  -6.9222397e-01   5.1399175e-01  -9.5026399e-01  -5.5905184e-01   2.4975106e-01  -6.5846245e-01  -9.6357415e-01  -9.9452958e-01   7.2429377e-01  -2.6769076e-01  -9.7851358e-01   1.2673007e-01  -6.5779357e-01  -7.4878452e-02  -8.4158260e-01  -9.1376021e-01  -9.8080514e-01   5.8428162e-01   6.6973398e-01   7.3261486e-01  -8.5973917e-01  -2.4759748e-01  -8.7141339e-01   1.0289358e-01  -1.2469434e-01  -9.2528709e-01  -7.5997181e-01  -9.1536259e-01  -2.5803152e-01  -9.5380857e-01   4.3584367e-01  -9.8478034e-01  -4.4978103e-01  -3.5607572e-01   3.7637657e-01  -9.8307935e-01   5.2928842e-01  -7.3435927e-01  -2.9402941e-01   5.6361292e-01   2.9460230e-01   9.1068382e-01  -8.8696712e-01  -3.2849191e-01  -3.2469406e-01  -6.4975128e-02  -2.5570895e-01  -2.0931548e-01  -3.6019876e-01  -4.4744895e-01  -1.7634094e-01   2.8548573e-01   7.4443411e-01  -3.6820767e-01   1.0230736e-02  -6.5434917e-01  -7.4647753e-01   4.1660857e-01   7.1887830e-01  -9.5000041e-01   5.2392775e-01  -9.5567151e-01   2.4078631e-03  -3.9215381e-01  -2.3906780e-01   3.7721524e-01  -5.1447722e-01  -7.5013013e-01  -1.4975618e-01   8.2331317e-01   6.5937414e-01  -6.0379354e-01   7.7216586e-01   7.3544159e-01   6.3935623e-01   1.9955720e-01   6.2520767e-01  -1.4765520e-01  -9.4226298e-01   8.7608919e-01   3.4187564e-01   5.9596955e-01   4.9094849e-02  -5.9073887e-01   5.0551243e-01   7.0640991e-01   2.0235577e-01   5.0929629e-01  -7.9857613e-01   9.7491642e-02  -4.0674390e-01   8.3217498e-01   5.3868115e-01   2.4452295e-01   1.7715129e-01  -9.5123305e-01  -5.8708701e-01  -2.0077892e-01   9.2240432e-01   5.7954990e-02  -9.8965612e-02  -7.2959192e-01   5.7167860e-02   3.0557664e-01  -5.1298251e-01  -6.7814861e-01   2.5660541e-01  -1.8465800e-01  -3.0286332e-01   5.4369780e-01   2.6251383e-01   4.5138911e-01  -1.2702783e-01  -9.1797510e-01   8.9277096e-01   1.8558616e-01  -3.3406169e-02  -2.0362717e-01  -5.5371627e-01   8.5786760e-01   8.4399414e-01  -9.1923672e-01   8.9198113e-01  -7.4359340e-01  -5.5915901e-01   9.7508818e-01  -2.3492894e-01  -7.4592914e-01  -6.7725003e-01   2.8021185e-01   6.6068349e-01  -7.1050787e-01  -9.5801297e-01  -9.3349545e-01   8.2960030e-02   8.1754770e-01  -5.8634886e-02  -7.1216288e-01  -6.8552298e-02   6.0985885e-01   5.3360388e-01   6.8670926e-01  -2.9339529e-01   9.7751738e-01  -9.7208185e-01   1.5690640e-01   3.8065282e-01  -2.9004144e-01  -8.5363990e-01   4.9211817e-01  -3.6071457e-02  -8.2588694e-01   2.8171814e-01  -3.5859611e-01   4.0051595e-01  -7.6948565e-01   1.9164536e-01  -7.4410385e-02   2.4983647e-01   2.5792467e-01  -1.6245155e-01  -1.3000837e-01  -1.9279404e-01   7.7109217e-01   3.9353341e-01  -7.8056546e-01  -1.4398959e-01   2.8256162e-01   9.6540877e-01  -8.9346156e-01   7.5304968e-01  -8.7889357e-02  -8.2639958e-01  -8.1713816e-01  -9.8314596e-01   3.6341238e-01   9.4526169e-01   3.9691774e-01  -5.5185107e-01   1.1275699e-01   1.7137036e-02   5.4351977e-01  -7.3185723e-01  -1.4901006e-01   5.7837964e-01  -1.3522502e-01   5.5236456e-01   3.0260952e-01   5.4337522e-01  -7.9390315e-01   7.9372921e-01  -6.2485307e-01   8.6608568e-01   9.0719330e-01  -4.2834346e-01   7.0911733e-01   7.0799410e-01  -5.6650985e-02  -5.7818982e-01   2.1797025e-02   4.0024058e-02   8.9292059e-01   3.4008538e-02  -1.2420974e-01  -4.5512845e-01   5.6650836e-01   9.9703690e-01   7.4304326e-01   2.7272265e-01  -7.0744686e-01  -5.8484273e-01   6.6966946e-01  -1.8754581e-01   4.6377336e-01   5.5408251e-01  -9.1209312e-01  -2.0893490e-01   3.5901037e-01   4.5037454e-01   4.7027409e-01  -4.1173150e-01  -2.2031893e-01  -5.5680165e-01  -4.0566196e-01  -3.8665662e-01  -3.6486911e-01  -4.6749336e-01   1.6980471e-01  -1.7037119e-01   8.2380706e-01   9.1717724e-01   2.1546937e-01   3.2750668e-01   4.3960041e-01  -8.7802224e-01   2.0146454e-01  -3.4182953e-01  -6.4122683e-01  -2.7560798e-01   5.0106545e-01   6.8847907e-01  -8.1846735e-02  -4.0535814e-01   6.3733819e-01   6.7889360e-01  -5.5849707e-01   7.1592279e-01   9.6754323e-01   8.5074147e-01  -1.5771530e-01  -8.3501155e-01   4.0021240e-01   4.5812196e-02   9.0036132e-02  -3.6288516e-01   8.3737575e-01   1.3909563e-01   1.9856440e-01   4.9436534e-01   2.2458439e-01   5.3807345e-01  -2.0967739e-01  -8.3955279e-01  -9.4654176e-01   6.8587823e-01  -8.7502398e-01  -7.8540471e-01   6.8920646e-02   3.3000713e-01  -3.5618172e-01  -6.1718869e-01   2.6819179e-01   5.8848830e-01   8.5083960e-01   9.4751913e-01   4.3432463e-01  -9.3236080e-01   9.8777737e-01  -9.9861477e-01  -8.0759363e-01   1.3043929e-01  -2.5977022e-01   4.9986772e-01   7.7986731e-01   1.1711002e-01   5.7532758e-01   4.1912109e-01   8.7156115e-01   2.6888900e-01  -7.3591395e-02   1.5503849e-02   9.7398991e-01  -3.2852277e-01  -9.5296743e-01   6.7318319e-01   6.2901949e-01   4.7465148e-01   7.9310240e-01  -9.2995065e-01   3.5712036e-01  -5.1941066e-01   9.5026816e-01   1.0371974e-01  -7.4899021e-01   7.6962141e-01   3.4016134e-01  -3.9960678e-01   5.3284456e-01   5.1400926e-01   2.8086831e-01  -8.3912674e-01   7.9950498e-01  -2.0667263e-01   5.9570996e-01  -8.5582216e-01  -7.2351484e-01   4.7840163e-01   4.0971652e-01  -4.2899262e-01  -5.8804546e-01  -3.2363110e-01   2.3745013e-01  -3.2038904e-01  -6.4970293e-01  -9.6050269e-01  -4.4551963e-01  -7.5589556e-01   5.4941036e-01  -5.7773044e-01   1.3193854e-01   6.1647587e-01  -1.4044161e-01   1.2297550e-01  -3.6996200e-01   5.3798793e-01  -9.8962672e-01  -7.0588041e-01   6.9049792e-01   6.4231470e-01   8.7819034e-02   8.5321045e-01   5.4696663e-01  -4.8819756e-01  -2.4358053e-01   2.1752425e-01  -9.7433608e-01  -5.6372296e-01  -2.6750835e-01  -6.1883988e-01   1.0243671e-01  -8.9232737e-01   5.2448413e-01   3.1961885e-01  -6.5888279e-01   8.9450392e-01  -9.2702902e-01   6.9699840e-01   9.8291809e-02  -1.7524002e-01   1.9673853e-01   3.5354263e-01  -1.0874192e-01  -1.8957605e-01   5.0895476e-01  -1.6670539e-01  -6.8338065e-01   5.4371438e-01   4.3609482e-01  -1.9271836e-01  -4.6551154e-02   9.8255937e-02  -8.1539878e-01  -9.5640833e-01  -8.2844025e-03  -8.0894270e-01  -5.0309730e-01  -2.4942225e-01   8.9640857e-01   2.5813361e-01   9.2294125e-02  -9.7833238e-01   9.5770752e-01   3.2629641e-01  -7.2446367e-01   4.2289143e-01   6.6875701e-01  -1.4664174e-02   9.2449015e-01  -9.7498012e-01   1.4177825e-01  -8.6430787e-01   1.7576847e-01   9.6681859e-01   4.2957544e-01   9.1839723e-01   4.9355221e-01  -9.6319217e-01  -7.5026827e-01   2.3788374e-01  -4.9595532e-01  -7.1759379e-01  -6.5515639e-01   1.0459706e-01  -6.6260719e-01   7.0635259e-02   8.2955711e-01   9.6920275e-01  -1.8436989e-01  -1.1816223e-01  -2.4229956e-01   5.2346980e-01   4.7409575e-01  -7.9474343e-01  -5.5885763e-01  -8.4484259e-01   4.8800443e-01  -8.0009516e-01  -2.0245576e-01  -7.2248393e-01  -9.2933541e-01   7.1627113e-01   5.5148055e-01   1.2675126e-01  -2.5696688e-01   7.6940438e-01  -6.1384703e-01   6.5078867e-01   2.9388834e-02   1.4695040e-01   9.5273167e-01   8.5705753e-01  -6.9268708e-01   9.1501385e-01  -4.4426953e-01  -2.6317673e-01   8.4998440e-01   7.4125593e-01   5.5258412e-01   9.4004117e-01   3.1967517e-01  -8.4174209e-01   9.1056087e-01  -9.1934423e-01   4.9103886e-02   5.1062505e-01   9.2750634e-01  -5.0905823e-02   2.3575374e-01   6.5161755e-01  -5.6819038e-01  -4.1958740e-02   1.8353668e-01   5.6211753e-02   1.4945667e-01  -8.0637252e-01   4.6323178e-01   5.1525795e-01   7.4815058e-03   4.5979501e-01  -3.4826421e-01  -1.1719476e-01   4.4177752e-01   9.3583521e-01  -8.3814476e-01  -3.7345514e-02   8.3610440e-01  -6.9055499e-01  -2.7443863e-01   2.3956241e-01  -8.5948124e-01   5.8433618e-01   5.8325891e-01  -8.7385195e-01  -8.3726064e-01  -7.7315641e-02  -1.4284058e-01   3.4890386e-02  -3.4286434e-02   8.9457347e-01  -6.0628665e-01   4.4954448e-03  -2.7028113e-01   4.1362585e-01  -9.3344493e-01   2.6232674e-01  -1.0910584e-01  -6.8221023e-01   6.6530807e-01   5.0807352e-01  -3.1547873e-01   4.8523056e-01   6.9545696e-01   8.7160931e-01   1.3959074e-01  -7.8884489e-01  -3.0375625e-01  -2.6650370e-01   1.8362690e-01  -1.7171089e-01  -6.2804281e-01  -7.0295081e-01  -2.6456653e-01  -8.3702705e-01  -2.0902488e-01   1.9164495e-01   3.5447208e-01  -7.4392913e-01  -7.5861646e-01   4.6525888e-01   3.4093231e-01  -7.0206351e-01  -4.1750755e-01   7.3497645e-01   8.8244218e-02   1.4069351e-01   5.1033517e-01   7.3641354e-01   4.7917512e-01   9.6038157e-01   6.8278472e-01  -7.2184373e-01   6.4860012e-01  -2.1581363e-01   8.7868920e-01  -5.0531357e-01  -4.5009662e-01  -7.7135297e-01   2.5629648e-01  -2.3233753e-01  -9.6243077e-01  -6.7276435e-01   2.6378537e-01  -9.1718289e-01   6.3527013e-01   7.4649143e-01   1.9953703e-01  -7.0001706e-01  -5.6656316e-01   4.6536108e-01   9.1429740e-01  -1.7606812e-01   6.3744227e-01  -2.5107978e-02  -1.6923522e-02   1.7608603e-01   5.2279944e-01   2.8760323e-01  -6.3167659e-01   5.5695469e-01   8.3707299e-01  -7.3428226e-01  -2.3467692e-01   5.2063053e-01  -8.4606502e-01  -1.2331021e-01  -5.8081608e-02   8.9299509e-01   1.0119060e-01  -2.2875239e-01  -1.2814416e-01   9.9364651e-01   2.9658604e-01   9.6976260e-01  -7.4872383e-01  -6.9376129e-01  -1.3127936e-01  -6.0822841e-01   8.1871166e-01  -4.6155977e-01   4.9254117e-01  -1.1374624e-01   6.8481374e-01   6.2019129e-01  -9.8481354e-02   4.7149099e-01   5.0399265e-01  -7.6945918e-01   9.0175441e-01   8.3538252e-02   4.1806847e-01   3.1964147e-01   7.5233345e-01  -5.3864386e-01   2.7779791e-02   2.6224726e-01   8.0294567e-01  -2.6827177e-01  -7.7428523e-01   4.2741597e-01  -6.5973535e-01   4.0622951e-02  -4.9816096e-01  -9.2655967e-01  -8.1793689e-01   5.3115071e-01   1.5825482e-01   2.0668202e-01   6.3158116e-02  -1.3925625e-01  -7.9872861e-01   4.6105363e-01  -3.8768203e-01  -5.1514636e-02   8.4138511e-01   8.1133149e-01   9.9475432e-01   4.1037269e-01   3.9792149e-01   6.6790149e-01   6.3368693e-01  -4.1930604e-01   5.9122231e-01  -9.1138316e-01  -5.4295975e-01   7.6399646e-01   8.9266243e-01  -2.8787521e-01   2.2748179e-02  -1.3917938e-01   1.9943221e-01  -1.0353028e-01   4.9965657e-01  -6.6102606e-01  -5.0055881e-01   3.9339338e-01  -1.4441414e-01   3.7948507e-01  -9.5129709e-01  -3.1845460e-01   1.0645668e-01   5.7254832e-01   5.8385142e-01  -5.5451215e-01   3.7371938e-01   4.8418303e-02   4.6918776e-01  -8.7100039e-02   9.0867574e-01   5.0069684e-01  -1.2095219e-01  -4.9283395e-01   5.7732639e-01   7.5671848e-01   9.0304208e-01  -9.8678140e-01   2.4728465e-01  -4.9668026e-01  -3.2418251e-01  -7.8681701e-01   8.1832467e-01  -6.1470638e-01   1.9864046e-01  -4.9468218e-01   6.0038626e-01   2.4091601e-01   3.0445259e-02   8.6329381e-01   2.8269307e-01   8.6810871e-01  -3.0523660e-01  -9.9426712e-01  -3.6135259e-01  -6.0730402e-01  -3.1169702e-01  -1.4201954e-01   1.8479747e-01  -7.3400429e-01  -1.3348253e-01   4.5200712e-01  -3.9928220e-01   1.4293914e-01  -8.2511043e-01  -7.4693462e-01  -2.9205357e-01   5.0389470e-01   8.7775409e-01  -2.9924931e-01   5.4293597e-01  -9.8363555e-02  -3.4145666e-01   9.4154250e-01  -1.4433933e-01   7.2927994e-01  -4.8763817e-01   8.1798524e-01  -9.5226287e-01  -4.8516961e-01  -9.0661547e-01   7.6490869e-01   1.6627981e-01   8.1813308e-01  -9.5895267e-01   3.0240725e-01   3.1535547e-01   7.5242638e-01  -5.4246882e-01  -9.1210961e-02   1.6316606e-01   1.9345254e-02   4.8810096e-03  -3.0217311e-01  -3.4001320e-01  -7.7902036e-01   5.0240832e-01  -3.0165010e-01  -9.1859305e-01   8.0481088e-02  -6.4635504e-01   3.0371803e-01  -1.1567377e-01  -8.5401042e-01  -2.1417331e-03   9.1037988e-02   9.8209240e-01   9.4163466e-01  -1.4129870e-01  -5.2804464e-01  -1.0193809e-01  -3.5202523e-02   6.0499355e-01  -4.8218705e-01   4.7367837e-01  -9.9538244e-01  -4.4876650e-01  -6.7596069e-01   8.3926031e-02   5.0275736e-01  -6.1023533e-01  -4.1600548e-02  -8.6770185e-01  -5.2701131e-01   8.4805673e-01  -6.3302759e-02  -8.8894058e-01   5.0893570e-01   2.9686917e-01  -6.7249351e-02   8.1376253e-01   5.7682552e-01  -8.6061750e-01   2.6799912e-01   4.9203452e-02   8.2124939e-01  -5.0931330e-01   9.8617797e-01   4.0591767e-02  -1.6696939e-01   5.7087518e-01  -8.6433110e-01  -8.0426797e-01   7.0586212e-01  -4.8532701e-01   4.9227315e-01   9.5662994e-01  -7.5688912e-01   7.2130278e-02   9.8357827e-01  -6.3772734e-01  -7.9593478e-01   7.4958232e-01   9.1431861e-01  -6.1326088e-01   5.3158100e-02   6.4105230e-01  -2.0855703e-01  -6.8345554e-01   3.4567339e-01   7.3626286e-01  -3.7112325e-02  -2.5655178e-01  -6.9640590e-01  -8.6944568e-01   9.8253572e-01  -1.2619313e-01   6.2996221e-01  -5.5050798e-01  -9.6818692e-01  -3.5391286e-01   7.5105218e-01   4.6568848e-01  -4.7536868e-01   4.9709761e-01   7.2408248e-01  -9.4559883e-01  -8.8421837e-01   3.2055128e-02   3.5350947e-01   8.3501495e-01   7.6303209e-01   4.7501973e-01  -6.7816616e-01  -5.0497317e-01   9.6631031e-01   4.6629775e-01  -7.6841415e-01  -9.5827299e-01   4.3102381e-01  -8.1951969e-01  -1.2127005e-01   1.0600367e-01  -7.5044802e-01   5.5959551e-01  -9.5141598e-01  -4.7126641e-01   9.3018833e-01   8.8646825e-01   8.0824258e-01   4.6213804e-03   7.0014419e-02   2.9369355e-01   4.0373457e-01  -9.8851996e-01  -6.4785093e-01  -9.8788934e-01  -3.0491033e-02  -4.3868063e-01  -3.2538846e-01   8.4428950e-01  -8.5655812e-01   4.4175153e-01   3.9272174e-01   5.3188224e-01   3.1159264e-02  -2.6513339e-01  -7.7629764e-01  -9.2072057e-01  -6.1544752e-01   8.2215685e-01
   7.3535116e-01   7.2307342e-01   5.6875731e-01  -2.2696253e-01  -2.0336783e-01  -5.4942049e-01   4.1131152e-02   6.1368800e-03  -2.6962040e-01   5.4223055e-01   4.9524747e-01  -5.8584159e-01   2.4418586e-01  -6.8870898e-01  -3.1802969e-01  -7.9429030e-01   8.8024200e-02  -5.8201010e-02  -6.1411366e-01   2.8823395e-02  -7.3846946e-01  -6.7029072e-01   2.7482031e-01   6.4566741e-01  -8.7712486e-03  -3.7393863e-01  -2.0062472e-01   7.8548259e-01   5.8052175e-03  -2.8832968e-01   9.9524672e-01  -5.1194332e-01   8.5464476e-01   3.3977723e-01   3.6409720e-01  -2.7112333e-01   9.7901902e-01   4.8093225e-02  -5.6301950e-01  -4.4962789e-01  -7.5411651e-01  -7.5826053e-01   3.7666892e-01   1.6106577e-01   3.0370821e-01  -2.3143450e-02  -6.1960216e-01   9.1225327e-01   7.7615568e-01   5.1833942e-01   3.7474481e-01  -9.5377076e-01  -9.4424128e-01   5.6133659e-02  -5.7306254e-01  -5.3286953e-01   8.4648610e-01   2.9534002e-01  -6.7148243e-01  -3.0238483e-02  -3.1344065e-01  -1.7579111e-01   8.9388403e-01   2.1299781e-01   7.2767860e-01  -2.0101380e-01   9.2475435e-01  -8.2472115e-01  -9.0906682e-01  -8.6735313e-01   4.9525550e-01  -7.5475922e-01  -7.5412271e-01   7.2052216e-01   1.9711796e-01  -5.4877940e-01   7.9901051e-01  -9.2061615e-01   4.5024747e-01  -6.2169691e-01  -9.3675948e-01   2.9419648e-01   8.3762474e-01   9.9172850e-01   2.8789842e-01  -7.2585766e-01   3.8758805e-02   4.6704498e-01   8.9446255e-01  -3.5716127e-01   2.5966947e-01  -9.5363629e-01  -8.6295466e-01   6.2825155e-01  -1.6335850e-01  -7.5004148e-01  -4.5311644e-01   2.9612603e-02   3.0399713e-01  -6.6054255e-01   7.5979353e-02   1.1000825e-01   7.5895442e-02   9.5933976e-01  -2.3645462e-01   6.8843028e-01   9.4117612e-01   5.9333163e-01  -4.2365449e-01  -6.3087271e-01  -3.3541078e-01   9.3620401e-01   5.6997673e-01   9.2986550e-01  -1.9338972e-01  -6.1494284e-01  -8.7503074e-01  -5.2108327e-01  -8.9701903e-01   8.7292558e-01   1.9585614e-01  -3.4681559e-01  -4.4464698e-01  -7.3035599e-01  -8.0199770e-01   9.6827219e-01  -8.9243574e-01   3.9573921e-01   8.0910474e-01   1.2077548e-01   3.1816348e-01   6.8306492e-01   7.5148610e-02  -9.0651681e-01   6.3853714e-01  -8.7637067e-01  -1.6712030e-01   9.3790105e-01  -4.4672704e-01   6.8456665e-02   5.7369267e-01  -5.4441766e-01   8.9524463e-01   4.4907989e-01   7.7818509e-01  -7.3102258e-01  -9.0399334e-01   7.2334291e-01   6.4009090e-01   3.9110147e-01   8.3721821e-01   8.4966701e-01  -8.8108172e-01   1.5968330e-01   7.0858378e-01  -5.8753979e-01   9.3158125e-01  -8.4319067e-01   1.4529560e-01   7.7471214e-01  -3.9669241e-01   5.4320307e-01   1.6791381e-02   7.7154741e-01   3.0848156e-01  -1.8919301e-01  -9.2964501e-01   7.5060470e-01   7.3107508e-01   1.7833751e-01  -8.2902782e-01   2.7027949e-01  -9.8987815e-01   5.8128932e-01  -7.5996931e-01   1.0796987e-01  -9.1559636e-02   4.5141644e-01   3.8583840e-01  -6.5564923e-01  -7.2347710e-01   9.3146869e-01   5.5636601e-02  -5.0229962e-01   3.0261857e-01  -5.1834026e-01   9.6071018e-03   3.3309803e-01   5.1662024e-01  -7.9958300e-01   5.0985031e-01   5.5524600e-01  -7.8284707e-03  -8.8246062e-01  -3.8950978e-01  -2.5450673e-01   5.9475273e-01  -5.0843364e-01   1.4729472e-01   5.4437056e-01   7.4010049e-02  -2.5787253e-01  -9.8545153e-01   5.9028187e-01   5.8657532e-02  -9.6259801e-01   4.8120056e-01   4.9282187e-02   3.9688689e-01  -5.9954182e-01  -8.7750268e-01  -1.2588954e-01  -4.6472094e-01  -1.5119581e-01   7.0283198e-01   1.7666648e-02   6.6388611e-01  -8.1475501e-01   3.3236868e-01  -3.7244563e-02  -5.5851458e-01  -3.1015720e-01   3.4323942e-01   7.8494161e-01  -4.0825734e-01   9.1546376e-01   9.6204068e-01   9.9727372e-01  -4.4235198e-01  -5.6858351e-01   8.0274285e-01   7.0240314e-01   2.1736437e-02  -3.5911866e-01   1.7838217e-01   3.3027202e-02   2.2772602e-02  -4.1181061e-01  -2.5952033e-01   4.9179192e-01   4.6329729e-01   1.2157416e-02   7.1243364e-01   7.6698458e-02  -3.5725014e-01  -5.2996631e-01   7.2019868e-01   4.8182672e-01   5.1283036e-01   5.4344328e-02  -8.2512462e-01  -5.8277425e-01   9.5809882e-01  -6.8119872e-02  -2.0490627e-02  -3.6248325e-01   4.0073035e-01  -4.3965091e-01  -5.2374061e-01   9.8946171e-01   9.4912553e-01   7.5707127e-01  -3.2162068e-01   9.9824538e-01  -9.6096854e-01  -7.7825167e-01  -6.7567469e-01   9.9055319e-01  -2.6637232e-01   6.6193936e-01   6.2292535e-01  -5.6731735e-01  -3.0917429e-01  -9.3871273e-01  -4.7189783e-01  -6.7079966e-01  -7.6273596e-01  -9.5406560e-01   4.9427414e-02   5.7559423e-02   6.4394606e-01  -7.5010703e-01   8.8785523e-01  -2.4912120e-01  -3.2751760e-01  -4.9072697e-01  -1.8560219e-01  -6.5648668e-01  -4.5560633e-02  -1.1931820e-01   6.0375015e-01   6.8582410e-01  -7.2772036e-01   8.4680190e-01   5.0435483e-01  -7.8598450e-01   9.2603853e-01  -8.4588045e-02  -6.7072250e-01  -1.2635978e-01   3.3024399e-01   5.7745005e-01  -3.7492814e-01  -7.0063480e-01   9.6550696e-02   8.6745868e-01  -7.1455224e-01  -1.3572636e-01  -4.1302617e-01   2.5409474e-01   2.0157457e-02  -8.8753353e-01  -5.2874237e-01   9.1957119e-01  -6.9469757e-01  -9.3794549e-01   3.0580236e-01  -7.4427544e-01  -3.9332928e-01  -3.5437177e-01   4.1267975e-02   6.2408032e-01  -9.1126523e-01   3.4105088e-01   8.5950940e-01  -6.1021667e-01   2.4128836e-01   2.5482060e-01   9.5358480e-02   9.4157915e-01  -1.0378966e-01   3.9244527e-01   8.8218210e-01  -6.0216859e-01  -6.9540046e-01   6.1710729e-01  -9.3090091e-01  -3.1173162e-01  -2.3711016e-01  -6.2274770e-01  -5.6780828e-01  -9.2871735e-02   6.1103590e-01  -9.3843705e-02  -3.7233275e-02  -2.0112523e-01  -6.6660184e-01   5.3741177e-01  -4.8542563e-01  -6.3267077e-01  -7.5481673e-01  -7.8392336e-01  -3.0253575e-01  -2.8739895e-01  -8.4972144e-02   5.9591888e-01  -4.2632752e-01   6.3456164e-01  -3.0533346e-01   9.0106726e-02  -8.6175326e-01  -2.9256513e-01  -9.5470704e-01   4.4975306e-01   5.4496324e-01   8.9915159e-01   4.9332249e-01   7.4382523e-01  -6.2396786e-01   1.1129396e-01   1.2613651e-01  -5.1269536e-01  -3.6255678e-01   2.4613678e-01   6.2047271e-01   7.7737255e-02  -6.7256946e-01  -1.7480404e-01  -7.9518985e-01  -5.2595334e-02  -6.8829681e-01  -6.5406605e-01   2.6736364e-02  -2.1662383e-01  -2.8041147e-01   5.1948614e-03  -7.8735437e-01  -2.6286083e-01   8.4168284e-01   3.4381437e-01  -1.8929442e-01   1.3700772e-01  -1.5232347e-01  -7.8536406e-01   5.8960876e-02   7.7357931e-01  -7.6760487e-01  -5.7643477e-01   4.9948224e-01   9.9328461e-02   3.8085582e-01   7.0795696e-01  -2.0158314e-01  -2.0507397e-01  -1.7378909e-01  -2.7718740e-01   5.3245454e-01   7.5376791e-01   1.2254280e-01  -8.3690914e-01   5.1679844e-01  -3.7771923e-01  -6.9799923e-01  -9.6782307e-01  -6.7119873e-01  -2.3478612e-01   4.6953929e-01  -3.3226899e-02  -5.9650433e-01  -3.1542047e-01  -6.7615607e-01   5.7817902e-01   7.2270713e-01  -2.6993094e-01  -4.3576349e-01   4.7907551e-01   7.9372993e-01   9.9572251e-01   7.7202650e-01   1.5552270e-01   3.8313178e-01   7.8476398e-01   7.5845334e-01   5.1893680e-01  -4.7316003e-01  -1.0901044e-01  -2.5652846e-01  -6.7198946e-01  -3.8500363e-01   7.2645913e-01  -4.8505669e-01   6.3108878e-02  -4.6554141e-01   8.6574537e-01  -5.3648593e-01  -2.8027844e-01   5.0275202e-01   3.5008292e-01   9.9546830e-01  -1.5463068e-01   4.7212857e-01  -3.9316944e-01  -4.1233483e-01  -2.5104106e-01  -3.6178037e-01   7.3159235e-01  -1.3799817e-01   8.4954510e-01  -1.8155668e-01  -3.3524980e-01  -8.7815067e-01  -4.0902207e-01   6.4783185e-01   3.2473715e-01  -8.0085416e-01  -5.3050511e-01  -5.5597247e-01  -5.6892054e-02   8.1172874e-01   4.3911715e-01   5.9262488e-01  -1.7119555e-01  -3.9294705e-01   9.2392073e-01  -5.2055810e-01   9.9030604e-01  -2.8700955e-02   7.4608019e-01   3.1108332e-01  -5.8071816e-01   5.3934669e-01   9.7316241e-01   4.2578617e-01   2.0600386e-01   2.8079742e-01  -8.1737733e-01   2.2565929e-01  -2.6763952e-01  -1.9646144e-01  -4.8138063e-01  -6.2941683e-01  -4.9288368e-01   4.9966952e-01   3.3657779e-01  -2.3638527e-01  -3.6998476e-01  -3.3084019e-01   8.5727642e-01  -5.7198169e-01   2.2850871e-01   3.0221503e-01   8.6041957e-01   2.9287771e-01   9.1571484e-01  -3.2086123e-01   9.9942077e-01  -5.8876372e-01  -7.6077435e-01  -7.1192453e-02   7.0822396e-01   8.1158983e-01  -8.8844699e-01  -2.1642547e-01  -5.0139612e-01   1.7122304e-01  -3.2925559e-01  -2.4317117e-01  -8.2551672e-01   5.2605150e-01  -4.9478644e-03  -7.7548303e-01  -7.1054023e-01  -5.4327644e-01   6.3123318e-01   3.5331288e-01   9.0832141e-01  -4.9086078e-01  -1.4293799e-01  -1.7538709e-01   4.0257027e-01   1.8848506e-01  -8.9755664e-01   9.8071543e-01  -8.7996174e-01   5.9925026e-01   8.9099553e-01  -8.5603586e-01   7.9803946e-01   5.4393229e-01  -6.4855209e-01  -7.8765344e-02  -8.8687703e-01   9.1279597e-01   5.6788618e-01  -6.4292800e-01   2.4817580e-01  -5.1785753e-01  -1.6411204e-01   1.9730093e-03   5.6533586e-01  -2.4548925e-01   9.7182154e-01   5.3690231e-01  -7.2777890e-01   9.3446377e-01  -8.3911032e-01   7.8706660e-01  -1.0536846e-01  -5.5322644e-01  -9.0519723e-01  -5.6221705e-01  -6.0359459e-01   4.8311237e-01  -1.5920755e-01  -1.7809207e-01   7.3842799e-01  -8.1054809e-01   2.1201977e-01   6.8256694e-01  -9.5271329e-01   2.9892408e-01   8.0736673e-01   9.7893371e-01   8.8504047e-01  -3.3436634e-01   8.9610129e-02  -2.8210067e-02  -7.3477663e-01   7.1013451e-01   8.3034140e-01   8.9400281e-01   9.3927422e-01  -2.6827077e-01   3.2902696e-02  -5.9098563e-01  -1.6508418e-01  -1.8318633e-01  -8.6660721e-01  -5.0819827e-01  -1.7728978e-01   3.0565269e-01  -3.3394582e-02  -6.8903392e-01  -5.4507292e-01   2.2237959e-01  -3.7915088e-01   1.1295847e-01  -8.4240101e-01   2.6993939e-01   4.9592697e-01   9.7416683e-01   2.5392941e-01   4.2341982e-01   6.5152195e-03  -8.7173596e-01  -6.9552046e-01   4.7174660e-01   9.5105906e-01   9.3577441e-01   5.3815516e-01  -8.4953049e-01  -3.7814999e-01   6.0693586e-01   4.6149643e-01   7.8459347e-02   8.7069344e-01  -4.8105082e-01  -3.1258280e-01  -4.6111699e-02  -5.5471483e-01  -4.6013097e-01  -9.6024761e-01  -2.0121103e-01  -2.2866144e-03   2.4010522e-01   8.3889564e-01  -9.7724779e-01  -9.6904664e-01  -3.1248748e-01   3.0563426e-01  -1.4005196e-01   2.3604215e-01   7.1088017e-01  -5.8686588e-01  -5.4820534e-01   3.0449991e-01  -4.1107776e-01   5.3250574e-01  -4.4173200e-02  -1.5589618e-01  -7.3706252e-01  -5.8488237e-01   8.6515395e-01   4.4019542e-01  -2.6618163e-01  -6.8835892e-01  -8.4439611e-01  -8.2141438e-01   4.8702578e-01  -1.3555661e-01  -3.1952783e-01   8.9534802e-01   1.8603091e-02   8.0081272e-01  -2.1568996e-01   8.2590748e-01   4.5179060e-01   1.9458840e-01   7.5584889e-01   4.0258279e-01   2.2471395e-01   5.7236530e-01   2.0295729e-01  -8.1182561e-01  -6.9319437e-01   9.7503900e-01   6.9939024e-01  -6.8309725e-01   7.5166864e-01  -7.8181560e-01  -8.9506912e-01  -8.0683644e-01  -1.2631178e-01   3.8616102e-01   1.6022442e-01  -6.8096174e-01   2.2947769e-01   9.3757686e-01   1.6846471e-01   2.5973268e-01  -2.3224672e-02   4.8626871e-01  -5.9173784e-01  -4.6485574e-01   8.6201372e-01   8.8110397e-01   1.2892039e-01  -7.4362821e-01  -2.2261169e-01   6.3378016e-01   4.0418792e-01   9.6992916e-01   9.1836979e-02   6.9254569e-01  -7.3523919e-01   4.6239248e-01  -6.7215566e-01  -3.6840491e-01  -5.9363545e-01   8.4647656e-02  -5.1841140e-01  -6.8039599e-01   4.0464392e-01   4.1623054e-02   9.5895359e-01   8.4855402e-01  -6.0759440e-01  -8.2693025e-01  -3.0561481e-01  -8.6683751e-02  -4.7429218e-01  -3.3105238e-01  -5.6908438e-02  -2.2857596e-01   2.6794195e-01  -6.3892494e-01  -9.6210554e-01  -4.9519811e-01   2.7167818e-01  -4.0650594e-01  -9.4435589e-01   3.2686852e-01   7.7502112e-01   4.4582303e-01   3.1855832e-02   6.1464492e-01   6.2051056e-01   4.1068065e-01   1.2666754e-01  -1.9416005e-01  -5.6412203e-01  -5.0718088e-01   2.2841280e-02  -5.3580574e-01   5.7914686e-01  -8.1852396e-01  -5.0137139e-01  -9.2257024e-01  -9.2698667e-01  -6.3929838e-01  -8.3167731e-01  -4.4103526e-01  -6.1609126e-01  -6.9216753e-02   4.5530810e-01   2.3891115e-01   6.1384825e-01   8.6768785e-01  -4.1212340e-01  -1.3468549e-01  -5.9162354e-01  -2.2745116e-01  -1.9388604e-01  -4.6328383e-01  -4.7839888e-01  -6.1764112e-02   2.7812583e-01   9.7845755e-01  -6.9431552e-01  -6.4065035e-01   5.9197953e-01  -8.3342022e-01   8.0945090e-02  -5.0104088e-01   7.1047323e-01  -5.2580049e-01   4.4940777e-01   2.0887024e-01  -7.5442099e-01  -6.4059972e-01   2.8319426e-01  -7.3023950e-01   6.8628234e-01  -2.8258286e-01  -4.1758713e-01   5.2846261e-01   4.3516216e-01   9.6313315e-01  -4.6600486e-01  -5.0218167e-01   4.7708290e-02  -5.5369376e-01   8.0798708e-01  -1.2514845e-01   1.1420831e-01   9.4406201e-01   7.5507920e-01  -3.4396743e-01  -1.8753846e-01   8.4161757e-01   5.0860647e-01   4.7162065e-01   7.7563813e-01  -2.1661864e-01  -2.3143240e-01   1.6858487e-01   4.3794156e-01  -6.2620859e-01   5.5367710e-01  -2.7696659e-01  -5.2764135e-01   5.7344723e-01  -8.9271787e-03  -1.7702127e-01  -4.3036417e-01   9.3245212e-01   2.9795658e-01   8.2639842e-01   7.2267593e-01   5.9978414e-01   1.8357308e-01  -4.5793688e-01  -5.3346820e-01  -9.7372514e-01  -3.1459977e-01   8.7240992e-01   7.5962684e-01   8.1281132e-01  -1.8726058e-01   2.6280248e-01   1.9537581e-01   3.6393007e-01   8.4866477e-01  -7.4789353e-01  -1.6554234e-01   2.2826662e-01  -2.5580814e-01  -7.2491388e-01   9.1741905e-02  -3.0404183e-01   3.2255082e-01  -1.3001606e-01  -3.3949487e-01   5.5141917e-01   8.0016265e-01   9.9067053e-02  -8.1162039e-01  -9.8382819e-01   5.0802409e-01  -4.1352140e-01   9.2714843e-01   5.7767294e-01  -3.2873003e-01   2.8162665e-01  -6.5949592e-01  -3.5650839e-01  -5.9896773e-01  -5.9243933e-01   2.4945973e-01  -1.8679076e-01   8.6174633e-01   5.9553359e-01   1.3945868e-01   2.5935313e-01  -6.2651492e-01  -2.2758589e-03  -5.7894655e-01  -5.2038373e-01  -9.1046317e-01   4.9777725e-01   9.3628367e-01   6.2158781e-02   2.0652134e-01  -6.4909454e-01   4.7343581e-01  -2.0619078e-01  -9.3952411e-01   6.3647423e-01   2.0230192e-02  -6.8824195e-01   2.4718203e-01  -6.8997054e-01  -7.5466282e-01   3.6453452e-01  -4.1536211e-01   1.2427569e-01   7.3086503e-01  -2.9693182e-01  -3.2952367e-01  -9.4716059e-01   6.9958416e-01   7.7865892e-01  -1.5219385e-01  -9.3579366e-01  -1.1119980e-01   9.4727403e-01  -6.2420809e-01  -1.7710501e-01  -6.2644743e-01  -7.1728130e-01   4.4118342e-01   1.7567823e-02   4.5828902e-01   3.8628319e-01   4.8650591e-01  -7.0903271e-01   5.9441750e-02  -6.1248502e-01   2.9570999e-01   2.7025896e-01  -9.1229626e-01   4.9611182e-02   8.5734851e-01  -7.4989409e-01   1.6887370e-01   8.1533114e-01   4.9810618e-02  -6.1271130e-01  -4.3697218e-01   2.5011705e-01  -5.5662324e-01   2.4418503e-01   9.1058916e-02   5.5788644e-01  -5.0159033e-01  -8.2508830e-01   2.5222632e-01  -3.8443492e-01  -1.3163833e-01   9.1542941e-02  -6.6043392e-01  -9.6285737e-01   2.8042166e-01  -9.0882781e-01   7.7530784e-01   5.1116844e-01   7.2162173e-01   5.6141491e-01   3.5138034e-01  -6.4268051e-01   6.6866994e-01   8.5220865e-01  -8.7026172e-01  -3.6463412e-01  -2.7334801e-01   2.2107092e-01   9.3485695e-01  -9.8941359e-01  -9.2825661e-01  -8.5764913e-01  -6.8570964e-02  -3.8603843e-01   2.0737665e-01  -7.0549228e-01   4.8966860e-01  -4.0409235e-01  -2.1630311e-01   7.4561217e-01  -4.8368617e-02  -7.8084648e-01   3.7356599e-01   9.7649959e-01   1.3321026e-03   9.2752071e-01   7.7742983e-01  -6.0344740e-01  -6.4209705e-01   2.6378737e-01   1.5638944e-01  -2.5800395e-01  -8.3062775e-01  -2.2116349e-01   7.6720636e-01   8.6711334e-01   4.7600196e-01   1.9835527e-01   5.0571907e-01   9.0599312e-01   4.2046044e-01   3.6457415e-01   3.4150534e-01   7.9105252e-01  -7.5125120e-01   8.3164664e-01   7.4803374e-01   3.9909228e-01   2.6846558e-01   2.3359202e-01   5.6568982e-01  -5.0628438e-01   5.7427526e-01   7.2310386e-01  -6.4183960e-01   4.6064873e-01   4.0940500e-01  -4.9492118e-01  -8.0680294e-02   9.1087215e-01   2.2288480e-01  -9.7709144e-01   3.2233484e-01  -7.2138042e-01  -3.3385910e-01  -3.0153711e-01   4.0433947e-01   5.4449875e-01  -3.0509365e-03   8.8407115e-01  -6.9327647e-02   7.6469210e-01
  -3.6637514e-02  -9.1107005e-01  -3.5327047e-01   5.2759820e-02  -6.7995512e-01  -8.2148363e-01  -2.7403020e-01   5.5776076e-01  -7.4594096e-01  -7.7512511e-01   4.2121298e-01  -2.9320589e-01   6.6950231e-01  -5.4382225e-02  -8.3705617e-01   9.4544871e-01   2.2685780e-01   3.6411372e-01   3.2250387e-01   6.9700924e-01   8.7783009e-01  -5.8685020e-02  -5.8951579e-01   6.2105387e-01  -2.7880677e-01   6.3053245e-01  -7.7699100e-01  -8.3948585e-01   1.2037233e-01  -6.3382145e-01   1.8276465e-01  -5.1428286e-01   6.8390929e-01  -4.9320759e-01  -5.8224610e-01   3.1319980e-01  -8.0186437e-01  -8.0061473e-01  -3.3424654e-01   8.0283984e-01  -8.9416291e-02  -6.8327579e-01  -9.8052950e-01   7.1597590e-01  -2.4301722e-01   3.9917882e-01  -3.5211910e-01  -8.7298078e-01   4.8365532e-01   5.8363387e-01   4.3595063e-01   3.6339618e-01   1.6680003e-01  -7.6934283e-01   8.7807903e-01  -6.3495654e-01   5.0247764e-01  -3.5239336e-01   8.4052045e-01   9.5010807e-01  -7.5390792e-01   6.6255860e-01  -1.6933973e-01   5.8614661e-01  -6.2860694e-01   2.6731424e-01   4.0296982e-01  -3.3100393e-02   4.8121163e-01  -9.2523073e-01   5.2380255e-02   4.6719491e-01   1.2284477e-01   6.7082570e-01  -2.1167974e-02  -1.8730706e-01   3.5090962e-01   8.0905477e-01  -2.9046997e-01   5.5105995e-01  -9.2480715e-01  -9.0702033e-01  -5.9262398e-02  -5.4961879e-01  -2.0902964e-01  -7.5575037e-01  -9.3122484e-01  -6.7670191e-01  -7.0639783e-01  -3.5365936e-01   2.3733138e-01  -7.0625628e-01   2.7588070e-02  -8.2754397e-01   2.7600559e-01   4.8269801e-01  -8.1661364e-01   5.5766539e-01   9.4862859e-01   5.9248490e-01   7.3072083e-01  -4.7695677e-01   4.2650859e-01  -3.5127938e-02  -2.5254389e-02  -1.7193700e-01   5.4143782e-01  -1.6670531e-01  -3.6117976e-01   7.1175895e-01   9.5432845e-01  -2.2613512e-01  -4.7456673e-01  -5.8849566e-01  -4.0688508e-01  -9.6875536e-01   7.7171765e-01   1.1950205e-01   6.6245800e-01  -7.3738493e-01  -6.2771466e-01  -9.3442779e-01  -2.7626340e-01  -1.0683029e-01   2.6278618e-01   9.4838322e-02  -8.7678132e-01   4.7363642e-01   3.3132041e-01   2.0570074e-01  -3.9391403e-01   5.9274677e-01  -5.3537010e-01  -9.7343693e-01   2.3007945e-01   1.0675144e-01  -3.0298824e-01  -5.2202532e-01   1.2377360e-01  -9.3675373e-01  -4.4744817e-01   5.5487457e-01   5.8275565e-01  -9.0254235e-01  -6.5230860e-01   1.6865482e-01  -5.5364099e-01   4.4377367e-01   8.8645931e-01   2.5885774e-01  -5.9534092e-01   5.9103710e-01  -3.4640700e-01   4.1532863e-01  -3.5943519e-01   4.5405408e-01  -6.0010002e-01   1.7231974e-01  -2.4152974e-02   4.1674173e-01  -1.2761072e-01  -9.2992999e-01  -9.3311943e-01  -3.2505200e-01   4.9808019e-01   9.7820474e-01   5.4562602e-02   6.4276032e-01  -8.8603946e-01   8.9280176e-01  -1.4425645e-01  -7.7933272e-01  -8.8096157e-01  -4.4120472e-01  -3.6775778e-01  -2.8530074e-01   1.5907206e-01   1.8249851e-01   5.6024475e-01   9.4223499e-01   9.0852371e-01  -7.9049911e-01   9.2832526e-01   2.6557688e-01  -1.2860172e-01  -3.7609602e-01  -2.8685370e-01  -3.7949903e-01   9.5046848e-01   2.2975706e-02  -7.0570370e-01  -5.0436097e-01  -7.7994166e-02   4.9657937e-01   4.8581235e-01  -3.8554649e-01  -9.0679791e-01  -6.6368086e-01   6.9817887e-01   6.8886625e-01  -7.1967469e-01   1.8023737e-01  -5.9578965e-01   5.4373831e-01  -8.3380126e-01  -3.6853450e-01  -5.1179717e-01  -9.7027935e-01  -5.9670026e-01   3.7886636e-01   3.9102496e-01  -7.0737479e-01   3.5488284e-01  -5.3401863e-01   3.8382085e-01  -5.0394223e-01   7.7499263e-01   5.1903451e-02   9.1757712e-01   1.2685878e-01   2.1686732e-01  -7.2395219e-01  -1.3378140e-01   9.1525164e-01   2.9017735e-01   5.1704741e-01  -9.1013442e-01   2.5841338e-01  -5.6593510e-02  -6.9284412e-02  -8.3009081e-01   5.9904591e-01   6.9005328e-02   1.1437915e-01  -9.6936995e-01  -4.4516643e-01  -9.5730375e-01  -5.3020450e-01  -8.3265573e-01  -3.0862279e-01  -7.7067585e-01   7.0810561e-01  -7.3561106e-01   1.7203292e-01  -3.9931322e-01   5.7268857e-01   4.2269456e-01  -5.8225846e-01  -5.2991928e-01   9.5134564e-01   7.0843046e-01   6.2767343e-01   8.2683769e-01  -3.8993347e-03  -6.3217375e-01  -3.2907586e-02  -8.3648282e-01   2.4680966e-01  -1.0478129e-01  -3.0152380e-01   9.9118396e-01   9.5623285e-02  -9.8185639e-01  -6.9219498e-01   5.2488956e-01   7.0203418e-01   7.1488769e-01   5.0507426e-01  -7.0798402e-01   3.8972254e-01  -6.1625076e-01  -7.0384331e-01   5.1247416e-01  -4.2697141e-01   4.5679691e-01  -2.1229600e-01  -1.4502095e-01   1.4739048e-01  -6.4797283e-01  -1.7311372e-01  -6.7979861e-01  -6.3130434e-01   4.3815848e-01   9.8323215e-01  -2.1614270e-01   3.5804689e-02   9.1257203e-01   3.5367383e-01   3.2998315e-01  -5.8647601e-01  -2.5921437e-01  -3.1860225e-01  -7.4104057e-01  -9.8378284e-01  -8.0549445e-01  -9.6779060e-01  -5.9643956e-01  -7.8400848e-01   8.5427331e-01  -1.8019325e-01  -7.8105650e-01  -7.5070677e-01   7.1184410e-03  -6.2893346e-01  -5.6474251e-02   2.2253302e-01  -8.2853331e-01  -5.3475181e-01  -4.0882039e-01  -7.2057020e-01  -7.5283406e-01  -5.0950123e-01   1.4405478e-01  -7.1464398e-02  -5.4424795e-01   7.1706110e-01  -1.1381912e-01  -4.1447481e-01   5.2736625e-01   3.3227841e-01  -9.8547626e-01   6.1603125e-01   5.6656451e-01  -3.4132784e-01  -9.0790826e-01   6.7670329e-01  -3.9300114e-01  -3.6269145e-01   6.7448071e-01  -7.3385600e-01  -9.0626478e-01  -1.1134438e-01   4.8660688e-01  -8.2315947e-02   5.2302367e-01   1.4125527e-01   7.8806804e-01  -8.2405391e-01  -3.0800767e-01   8.5652272e-01   1.0199571e-01   2.3558615e-01  -1.4187356e-01   3.2219314e-01   8.6892425e-01   6.4582688e-01  -4.9801443e-01  -2.6823639e-01   6.8138908e-01  -9.2473059e-01  -2.4786715e-01  -8.6778569e-01   7.7281285e-01   5.1649893e-01  -1.2040332e-01  -7.0968105e-01   7.8422918e-01   2.5318814e-01  -7.6698648e-02   8.3303989e-01   6.1115607e-01  -9.1957964e-01   6.4463375e-01   3.3641822e-01  -7.7805186e-01  -2.1522511e-01  -2.3668673e-01  -6.8815157e-01  -2.4304262e-01   5.6551853e-01   8.3478242e-02  -5.7357710e-01  -5.2514152e-01  -5.9394988e-01  -3.3861879e-01  -7.6012646e-01   4.2655503e-01   9.4991044e-01   3.2241530e-01  -4.5526966e-01   7.8637287e-01   1.4429846e-01   3.4128743e-01   8.3533141e-02   2.3701147e-01  -3.8177974e-01  -6.1461236e-01   1.0390097e-01  -8.9133892e-01  -1.1123775e-01  -7.2190984e-01  -6.4585961e-01   7.8514196e-01   4.0865271e-01   6.8159078e-01   7.0706772e-01   8.9256544e-03   3.9706392e-01   4.7736727e-01   8.7076294e-01  -9.3470590e-01   8.4225473e-01   3.6243025e-03  -7.4654179e-02   2.3188874e-01  -8.0411115e-01   3.6082854e-01  -7.0916894e-01   4.3097476e-01   9.4760092e-01   5.7839362e-01  -2.9818067e-01   7.7431607e-02  -6.1883453e-01   2.0999098e-01   6.1093556e-01  -6.8503326e-01   3.1183078e-01  -6.2533758e-01  -1.5306962e-01   9.9711003e-01  -1.0696377e-01  -8.5407163e-01  -2.2397866e-01   4.9311521e-01   7.3189465e-01   7.3355246e-01  -4.1731579e-01   7.6743658e-01  -5.5186327e-01   1.8334901e-01  -7.5826697e-01  -8.8921312e-01  -9.8196657e-01  -4.1695911e-01  -4.8617414e-01   9.3487646e-01  -4.1088351e-01  -4.7184016e-01   2.9720554e-01  -3.4638668e-01  -1.9626290e-01   7.9032090e-01  -4.1103982e-01   1.9726940e-02  -3.1421613e-01   9.4298493e-01   9.8385375e-01  -8.4563160e-01  -9.6814204e-01  -6.8221715e-01   2.5234002e-01  -3.5130597e-02  -1.5425375e-01   5.7613302e-01  -7.2540240e-01   9.6072943e-01   3.2009835e-01   2.2780848e-01   3.7745121e-02   7.9410186e-01   2.6181796e-02   7.1924644e-01   7.7686070e-01   5.6936950e-01   7.7158764e-01   1.5540567e-01   9.2021081e-01   5.2787349e-01  -9.4648675e-02  -8.7399043e-01  -3.7151586e-01   2.5607009e-02   3.9940410e-01   9.0057882e-02  -6.1930011e-01   2.5938197e-01  -6.6904062e-01   4.3695947e-01  -8.7628028e-01   1.8502069e-01   4.4086859e-01  -5.0918968e-01  -6.4974949e-01   8.1284605e-01   6.2507125e-01   1.9901333e-01   1.2529885e-01   6.1548114e-01  -2.9676847e-01  -6.6837493e-01   4.9688152e-01   9.1275364e-01   7.4876728e-01  -7.7599646e-01  -1.6424658e-01   1.9313768e-01   3.4335647e-01   5.6288507e-02  -8.3207121e-01   4.2817054e-01  -4.5117310e-01   8.7965956e-01   6.7347163e-01   2.7444992e-01  -5.2466177e-01   1.0928114e-01   1.2416727e-01   3.2113805e-01   1.0885235e-01  -3.7039087e-01  -5.6656806e-01  -7.6020734e-01  -6.4427491e-01   3.1047246e-01   4.0929079e-01   9.8220520e-01  -9.5615325e-01   4.6347215e-01   8.6443022e-01  -8.0202883e-01  -5.9108498e-02  -6.3186288e-01  -7.4991153e-01   7.7832967e-02   5.1967651e-01   1.0440171e-01   9.6023142e-01  -8.3283967e-02   3.3583149e-02  -7.8928200e-01  -7.8652165e-01  -7.0264304e-01  -2.2836801e-01   7.0490319e-01   8.4897762e-01   8.7245413e-01   7.2795381e-01  -9.6098396e-02  -1.6887953e-01   7.6563774e-01   3.5819504e-01  -4.5603593e-01   6.7056173e-01   3.9628295e-01   7.8075715e-02   5.9699927e-01  -7.9503533e-01  -3.7199491e-01  -5.9725646e-01   9.2352237e-01   2.2558855e-03   6.5096625e-01  -7.6180285e-01  -9.9144511e-01  -3.1007703e-01   5.3598763e-01  -2.5025586e-01  -7.2926790e-01  -1.3212152e-01  -1.6957547e-01  -8.2490563e-01  -4.6044406e-01   1.8655232e-01  -6.1428954e-01   5.6131726e-01   5.0438742e-01   5.3324892e-01  -4.7603223e-01   5.4425392e-02   9.2639868e-01   9.3339173e-01   2.0639077e-01   4.5007196e-01  -2.0165789e-01  -1.8109668e-01  -9.1295497e-01   6.8775879e-02  -3.7063124e-01  -1.8798011e-01  -7.0815764e-02   9.9114015e-01  -4.1852077e-01   5.5341020e-01   7.2646926e-01   3.6383493e-01  -8.1456253e-01  -5.5866912e-01   8.4204490e-01   1.7277511e-02  -9.6140311e-01  -8.0387650e-01   2.4909560e-01   7.7597179e-01   2.4013019e-01   1.5836292e-01  -1.4755638e-01   2.5769533e-01  -3.5575659e-01  -3.4898342e-02  -9.4808612e-01  -4.9168344e-01   7.3028002e-01  -7.0119154e-01  -8.6433066e-01  -6.4497327e-01   1.8819716e-01   4.7299911e-01   4.4515923e-01   7.0691287e-01  -7.3854239e-01   5.4438893e-01  -7.8746428e-02  -8.5331530e-01   7.3221017e-01   6.0710264e-01   7.5791810e-01  -2.2650240e-01   6.2989514e-01   5.7860354e-01   2.2213185e-01  -4.5307280e-01   1.5932562e-01  -7.3913486e-01   1.6609868e-01  -9.6397393e-01  -2.1162816e-01  -7.0700189e-01   9.4115061e-01   4.3597980e-01   2.5758886e-01  -9.9189280e-01   7.5557387e-01  -6.8495985e-01   4.3195583e-01  -8.5678567e-01   9.4242584e-01  -5.0561204e-01  -8.5732967e-01  -6.8767246e-01  -3.0964256e-01   5.9194316e-01   5.0008744e-02   1.6596199e-02  -6.4850923e-01  -9.1362634e-02  -1.6290007e-01  -1.8828668e-01  -7.9814027e-02  -1.2718855e-01  -1.2185361e-01  -9.1700998e-01   9.6120042e-01   1.8052667e-01  -3.0633279e-01   5.0446254e-02   2.8647908e-01  -3.6123573e-01   9.7873135e-02   5.4645753e-01  -4.8309754e-01   4.4587102e-01   6.3764571e-01   4.8029483e-01   3.3556273e-01  -2.5820195e-01   5.7363527e-01   7.5312282e-01   6.4700564e-01   4.3862884e-01  -7.9154225e-03   2.1816550e-01  -7.6617524e-01  -7.9777870e-01  -6.3751501e-01  -2.4886567e-01  -2.1694420e-01   4.8582437e-01   6.6777951e-01   6.1430774e-01  -2.1613710e-01  -9.1302081e-01   5.7784341e-01   1.0495189e-01  -3.0521440e-01   3.9472295e-01  -7.8425044e-01   2.0888304e-01  -3.8488266e-01  -6.6325911e-01  -2.5501112e-01   2.6570594e-01   7.7595075e-01   7.1592073e-01   1.0793075e-01  -5.8032301e-01   7.2093711e-01  -2.2045741e-01  -1.6987169e-01  -8.4041494e-01   1.4461528e-01  -8.4125181e-01  -3.5875277e-01   4.7954576e-01   3.1847302e-01  -2.8914047e-01  -3.6613958e-02  -7.7572894e-01   8.1622376e-02  -1.4498380e-01  -9.5442566e-01   2.5905368e-01   9.8376975e-01  -4.3092619e-01  -5.3404214e-01  -4.3666015e-01  -1.6133111e-01  -2.5746236e-01  -3.3021000e-01   4.0462386e-01  -1.9470408e-01   7.7226002e-01  -9.2488285e-01   8.0193455e-01   7.4020658e-01   5.6506341e-01  -2.7967546e-01   2.3447299e-01   1.6456621e-01  -8.9331460e-01  -2.9658521e-01  -3.0123292e-01   7.7712476e-01  -8.8147696e-01   6.8110842e-01  -9.7574897e-01  -8.6208433e-01   5.1604058e-01   8.0745988e-01  -4.0180949e-01   4.8071236e-01   1.5600640e-01  -3.8240908e-01   3.5717937e-01  -6.1075201e-01   3.0590503e-01  -6.1087725e-01  -4.0480787e-01  -9.3393853e-01   9.6072980e-01  -3.9172627e-02  -4.3834528e-01  -6.2536052e-01  -8.1915547e-01  -6.1753258e-02  -9.7726414e-01   1.0601207e-01  -7.3042813e-02   2.5140951e-02  -1.5773126e-02   4.3376418e-01  -5.0034674e-01   3.7877790e-04   4.0809894e-01  -2.0454874e-02  -8.7172225e-01  -8.3903030e-01   2.3959233e-01   7.5788961e-01  -8.1599441e-01  -4.3923149e-01  -6.6096900e-01   9.8073421e-01  -3.1594459e-02  -5.4763100e-01   8.5596967e-01   8.4304134e-01   3.8317174e-01   8.7431459e-01  -3.8831184e-01  -7.2999389e-01  -2.2062878e-01  -8.3753552e-01  -6.6901312e-02  -3.2025658e-01  -3.5633106e-03  -8.3915828e-01  -7.5763861e-01  -7.4815133e-01   5.7440260e-01   5.8445928e-01   7.5253161e-02  -1.2965510e-01  -7.6127749e-01   7.8407039e-01  -9.7226557e-01   9.5869931e-01  -8.7891152e-01  -5.1175503e-01   7.4966330e-01  -2.4621416e-01  -8.7787762e-01   6.5455765e-01  -3.0967270e-01  -5.7249138e-01  -9.8281720e-01  -7.7031932e-01   6.6827992e-01  -1.9675988e-01  -5.0333497e-01  -5.1769326e-01   3.6810738e-01   8.6262334e-01   3.2603921e-01  -9.6888541e-01   1.8590045e-01  -4.3882793e-01  -4.1819710e-02   3.4775544e-01   5.3225694e-02   5.3625962e-01   1.0969759e-01  -2.8474663e-01  -3.7642674e-01   1.2062096e-01   3.3974720e-01   8.6575379e-01  -2.8567404e-01   8.1330714e-01  -3.5842663e-01  -6.6731204e-01  -8.5799226e-01   4.0002591e-01  -7.8957820e-01  -4.8947143e-01   8.8577442e-01   8.8188504e-01   5.1505845e-01  -4.9669425e-01  -7.1270163e-01   4.7082141e-01   2.2242757e-01   5.4706580e-03  -3.5607946e-01  -6.8350625e-02   6.8937783e-01  -6.9758098e-01  -9.8829497e-01  -2.7596197e-01  -7.5653470e-01   8.4584776e-01   8.0687577e-01   2.6943780e-01   9.2492397e-01   2.7901675e-01  -9.1774481e-01  -2.4529133e-01  -8.9142633e-01  -5.5598588e-01   7.4994822e-01   4.8943779e-01   7.2107189e-01  -7.5469968e-01   7.8078290e-01  -1.5896069e-01   3.1213861e-01  -4.0896639e-01   8.0326454e-01   5.0029738e-01  -5.6041279e-01   5.3306747e-01   1.5036873e-01  -5.4620167e-01  -3.4492065e-01   7.0206287e-01   6.9359498e-01  -8.4745202e-01   9.4498352e-01   1.9358011e-01  -8.9243679e-01   8.4349682e-02   4.9717823e-01  -7.7354873e-01   7.7957679e-01  -5.5321115e-01   1.3417394e-01  -1.2551945e-01  -2.1796367e-01   7.9905073e-02   6.3829206e-01  -1.3906441e-01   2.3020366e-01  -2.7558001e-01   6.6393111e-01  -9.6146418e-01  -2.2959694e-01   3.0082832e-02   6.8744942e-01   8.3616263e-01  -1.3227606e-01   1.6454962e-01   6.6665024e-01   7.1808621e-01   6.9897731e-01   1.4899166e-01  -6.5354001e-01  -8.7928575e-01  -4.6797690e-01  -5.6411218e-02  -9.1172526e-01   8.7192103e-01  -5.2516169e-01  -3.0672403e-01   9.3010279e-01   3.3942983e-01   1.0140638e-01  -3.0357389e-01   8.5834800e-01  -3.2094764e-01   1.8407896e-01   1.0226421e-01  -6.7107540e-01  -8.0861433e-01  -6.0627724e-01  -7.1343941e-01  -7.4706872e-01   1.1721746e-01   7.0141209e-01  -9.7803604e-01   8.5261195e-01  -1.1697551e-01  -7.8704533e-01  -8.8662457e-01  -7.8879801e-01   9.9710723e-01  -3.1434790e-02  -3.5019708e-01   4.1366180e-01   5.6377810e-02   8.0954646e-01   6.7510448e-01  -5.9423790e-01   9.5496595e-02   3.7913246e-01   9.0542906e-01   2.5439044e-01  -1.5971237e-01  -6.1149484e-01  -5.8482259e-01   6.3528906e-01  -2.4583397e-01  -6.6931384e-01   6.5672238e-01  -2.0456343e-01  -4.5034386e-01   5.0327566e-01   5.0276370e-01   4.5262422e-03  -5.4658420e-01  -3.1741967e-01   8.5149952e-02   4.4930460e-01  -9.2406406e-03  -3.6226551e-01   7.8732821e-01   3.0510771e-01  -4.6112596e-01   4.3962526e-01  -2.7923801e-01  -5.0982574e-02   2.8977527e-01   4.8471676e-01  -8.1375726e-01  -7.1343955e-02   1.7649272e-01  -3.2928647e-01  -5.2986547e-01   2.8859225e-01  -8.6143632e-02  -5.7945649e-02   2.8991950e-01   5.9550714e-01   8.0208229e-01  -3.6398299e-01  -5.4859221e-01   5.8993738e-01   9.8538927e-01   2.7516718e-01  -1.9827260e-01   3.2570185e-01  -8.5110887e-02  -7.6003516e-01   5.1604295e-01  -6.9873628e-01   3.7214247e-01  -6.4822758e-01  -5.5187393e-01  -9.9364411e-01  -3.0067707e-02  -9.7164371e-01
   4.4368919e-01   5.0436080e-01   1.4230862e-01  -4.7927309e-01  -6.0507215e-01  -6.7638312e-01  -6.1211140e-01   1.5412561e-01   2.3734963e-03  -6.9469543e-01  -5.8155477e-01   8.4693311e-01  -3.3380572e-01   4.2953647e-01   2.1298938e-01   6.9599503e-01  -4.0187937e-01   5.6369748e-01   2.0726269e-01   9.2267745e-01   6.0215519e-02  -8.6401681e-01   8.5674977e-01   4.8673410e-01   6.0734008e-01   6.1816578e-01   5.5499980e-01  -1.2860123e-01   9.3965443e-01  -7.9422905e-01   1.4899089e-02   5.5474890e-01  -2.2714117e-01   5.9977013e-01  -2.2661851e-01   9.7757236e-01   4.0561500e-01  -7.5797453e-01  -5.1875798e-01   9.8438976e-01  -3.7233223e-02   8.5479130e-01   9.8868236e-01   1.9516160e-01   6.4514656e-01   1.3293797e-02   7.9916911e-01  -8.7620449e-01   6.1569555e-01  -8.3052286e-01  -2.2046718e-01   7.3780382e-01  -6.9693015e-01  -7.4026748e-01   6.4359124e-01  -8.2036645e-01  -4.9468467e-01  -7.5049266e-01   2.0989585e-02   2.7480582e-01  -3.1149645e-01  -8.3843981e-01   7.9152868e-01  -9.0814587e-01  -6.9653076e-02   1.6029571e-02  -6.2847701e-01  -7.2702872e-01  -8.4464934e-02  -4.1309958e-02  -2.7072784e-01  -4.5128320e-01   3.5484763e-01  -7.2583518e-01  -5.2879931e-01  -2.4839583e-01   7.1131540e-01   5.0273195e-01   4.2577240e-01  -3.8296976e-02   7.2146385e-01  -2.4139833e-01   3.1707274e-01  -1.1383268e-01   3.0034286e-01   3.1994333e-01  -8.5901778e-01  -8.1899513e-01   9.3792252e-01   7.1272836e-01  -8.9295314e-01  -2.7563683e-02   4.9189707e-01   1.3802475e-01   9.7650968e-01  -3.5575905e-01  -4.0177080e-01  -9.2962802e-01   5.3758129e-01   5.5220010e-01  -7.1391092e-01   2.0445169e-01  -9.1412851e-01   5.5712632e-01  -9.4426747e-01   1.1724566e-01   9.0654884e-01   7.9314221e-01   5.6746800e-01   1.6905021e-01   4.0353307e-01   4.1419901e-02  -7.8500320e-01  -6.4702020e-01   1.4317607e-02  -1.7221639e-01   9.7441645e-01   2.1322318e-01   7.1643944e-01   7.8228650e-01  -6.9291550e-01  -9.7761498e-01   8.5669509e-01  -1.3296935e-01   2.1360635e-01   7.6865786e-01  -5.8932613e-01   8.5048838e-01  -6.6695270e-01  -6.9824585e-01   7.4450247e-01  -4.1579717e-01   7.6912042e-01  -7.5927624e-01  -3.9960593e-02   5.7027601e-01  -9.3883235e-01  -9.7961940e-01  -8.3199104e-01  -9.4683696e-01   4.6501130e-01   7.9997138e-01  -3.2447300e-01   5.0895515e-01   2.4598444e-01   4.2341848e-01   7.5147457e-01   5.4156376e-01  -7.6602884e-01   7.5538597e-01   4.3723142e-01   6.9238080e-02   3.6818561e-01  -3.8637972e-02  -4.5039153e-01  -1.2159706e-01  -8.5275412e-01  -4.5585713e-01   5.0307457e-01   3.5776282e-02  -4.1745854e-01   3.4949417e-01   8.2285620e-01   5.1528452e-01   9.1736407e-01   1.6297273e-01   1.7180672e-01  -8.9472500e-01   9.2159718e-01  -9.5109458e-01  -2.6452165e-01  -8.7536167e-01   3.0100735e-01   7.6321283e-01  -7.3294574e-01  -1.0729938e-02   1.3826306e-01  -7.7034368e-01   7.4516312e-01  -5.1666559e-01  -1.5124429e-01   9.0432960e-01   1.5330704e-01  -8.3190965e-01  -5.9496345e-01  -5.6273107e-01   5.5441113e-01  -4.8040841e-02   5.6550549e-01  -4.0626596e-01   9.6980327e-01  -4.5928756e-01   4.5883843e-02   8.7173354e-01   5.8583781e-01   4.8306084e-01  -4.6237026e-01  -3.2716783e-01  -9.8095667e-01   6.1336477e-01   2.1781561e-01  -4.0564776e-01   8.4186901e-01   8.9428349e-01  -1.3432794e-01  -7.7941889e-01   1.8961833e-01   8.2157724e-01   6.5213179e-01  -8.0640282e-01  -5.2033743e-01   1.3916640e-01  -9.9508258e-01   6.3716879e-01   2.0964061e-01  -3.7977026e-01   2.2931433e-01   4.7574955e-01  -4.0377122e-01   5.3259226e-01  -6.4241044e-01   9.1494401e-01   3.4560719e-01  -5.8725897e-01   1.6153709e-01   6.3007740e-01  -5.5998924e-01   7.2362569e-01  -8.3645390e-01  -4.4546646e-01   1.2928514e-01  -2.4113957e-01  -4.8958877e-01  -6.5798395e-01   4.6247233e-01  -2.3752177e-01  -2.3009979e-01  -4.2183245e-01  -9.9590041e-01  -5.3292839e-01   7.2921070e-01  -6.6084652e-01   8.4049256e-01  -7.4733816e-01   7.7072537e-02   3.3118092e-01  -6.8515949e-01   8.5817407e-01   6.7027559e-02   9.1870581e-01  -9.8060767e-01  -3.8650666e-01  -1.3767602e-01  -8.3720685e-01  -9.5231868e-02   8.5106139e-01   6.0647712e-02   6.5895685e-01   8.1919901e-02   9.3880754e-01   2.3722481e-01  -7.1051087e-01   3.1758290e-01  -5.3024092e-01  -5.3358605e-03  -2.8293599e-01  -9.8483727e-01  -2.0275512e-01   9.4329128e-01   9.7649029e-01  -1.6286830e-02   6.6747930e-01   6.9777812e-01   1.4329365e-01  -9.4148485e-01  -4.9866256e-01   4.6646387e-01  -7.5245912e-01  -3.8371064e-01  -4.5637806e-01   8.0321822e-02   5.7343096e-01   2.7074039e-01   9.0770257e-01   5.7283749e-01  -9.3559348e-01  -4.8735485e-02   9.0708810e-01  -9.0298943e-01   2.6245199e-01  -3.6710230e-01   5.0778468e-01   8.5107342e-01  -1.6542295e-01   4.7730081e-01   4.2798604e-01  -7.5128448e-01  -9.1170197e-01   7.8471482e-02  -4.8250558e-01   8.3027434e-01  -2.8641834e-01  -8.9859897e-01  -7.8336740e-01   4.7573927e-01   7.5722914e-01   1.8515755e-01   2.4993347e-02  -7.0850440e-01  -3.3318769e-01  -8.5719432e-02   3.2861634e-01  -8.4804319e-01   5.6816902e-01   8.5716507e-02   1.4203665e-01  -7.9174718e-01  -7.8131498e-02  -8.3373418e-01   6.0750469e-02   8.6082844e-01   6.6151289e-01  -4.0993798e-01   1.1184401e-01  -6.2696575e-01  -8.9623530e-02  -1.5670557e-01  -9.4974952e-01   5.8625580e-01  -1.0199501e-01   4.6139696e-01  -9.9369205e-01   1.0785588e-02  -6.6802438e-01   7.1419210e-01   1.1035454e-01  -9.9854864e-01  -4.8128846e-01   3.0976034e-01  -3.5520565e-01  -8.9032662e-01  -3.4490980e-01  -4.5589213e-01  -8.9922562e-01   8.3164242e-01   2.3401385e-01   3.2945450e-01   6.9224673e-01   7.3752075e-01   1.8914329e-01  -3.4768734e-01  -3.7884706e-01  -8.0211690e-01  -7.6162647e-01   7.8777957e-01  -3.1850292e-01   2.9870621e-01   7.8704251e-01  -2.6126297e-01   6.5149013e-01   6.5447165e-02  -5.2768856e-01  -2.7211252e-01  -5.0167978e-01  -7.5704908e-01  -5.3628793e-01   3.8487376e-01   4.5819539e-01  -6.1231983e-01   7.9001699e-01   5.4338372e-01   7.0111552e-01   2.4226432e-02  -4.5446328e-01  -7.0484163e-01  -9.5454331e-01  -7.7321375e-01  -4.5083300e-01  -1.8356311e-01   7.7078393e-02  -5.5505409e-01  -7.7248514e-02   2.9226872e-01  -1.2350488e-01   4.4866435e-03   4.6295847e-01  -4.6450782e-01  -7.8797046e-01  -7.4964211e-02   2.2501712e-01  -2.1071166e-01   9.7514413e-01  -6.2961340e-01   1.9812405e-01   6.2569977e-01  -4.0640555e-01   9.2380646e-01   3.4449165e-01  -9.6537151e-01   9.0431564e-02   1.5888859e-01  -5.5079570e-01  -6.9865256e-01   5.5146867e-01  -2.4739305e-01  -3.5516072e-01   1.9393119e-01   3.9374011e-01  -3.6982817e-02   3.6251811e-01  -7.0747293e-01  -5.8835382e-01   4.8426463e-01  -9.5204720e-01   4.1626836e-01  -6.6967348e-01   1.8418777e-01  -9.1207724e-01  -9.5355605e-01  -1.1891452e-01  -1.5291369e-01  -6.3413992e-01  -2.6713774e-01  -5.1069569e-01   7.9072001e-01   1.0466468e-01  -8.7516916e-01  -2.9453815e-01  -2.0225897e-01   7.0606358e-01  -3.5938540e-01  -4.9234537e-01  -2.5963035e-01  -1.2108836e-01  -9.6157405e-01   1.9592917e-01   3.6492222e-01  -5.1829146e-01  -5.8550344e-01   5.9562342e-01  -6.4691667e-01   1.9985071e-01  -2.7480375e-02   4.0739131e-01  -1.9823269e-01   2.8316885e-01   6.2122500e-01   3.2596680e-02  -7.6705812e-01  -4.5480871e-01  -8.3804635e-01   6.9311466e-01   2.1316476e-01   4.2342878e-02  -1.5631610e-01  -9.7491038e-01  -5.8574941e-01  -8.6744002e-01  -1.8129479e-01   9.9004920e-01   5.5575461e-01   3.9281856e-01   8.7108208e-01  -3.8025329e-01   2.8638521e-02  -6.9540476e-01   9.6345836e-01  -1.3960090e-01   9.2435741e-01   2.7674616e-01  -5.2745714e-02   1.4705586e-01   3.4685353e-01  -5.6110868e-01   6.5879854e-01   4.5438561e-01  -3.7077323e-01   7.4015075e-01   8.5252359e-01   8.1544927e-01  -8.0093710e-01   6.2794424e-01   1.1112834e-01  -1.7392386e-01   9.6865301e-01   6.2037587e-01  -3.3964992e-01   2.6009730e-01  -4.7093195e-01   5.6835812e-01   4.2051910e-02   7.8604532e-01  -3.4841160e-01   1.7652126e-02  -6.2248890e-01   2.1754387e-01   3.1517567e-01   4.5068307e-02   3.9134606e-01  -3.2239317e-01  -8.7133403e-01  -9.6077372e-01   1.5523702e-01  -9.0050377e-01   4.6574457e-01  -2.2317726e-01   2.5160802e-01  -9.3375303e-01  -5.1020028e-01   3.0212973e-01   1.4882828e-01  -4.9132101e-01   1.7268674e-01  -4.6031519e-01  -3.0278995e-01   1.2289360e-01   4.7845429e-02  -1.3140369e-01  -2.7889563e-01   5.2723099e-01  -7.2040304e-01  -5.7310717e-01   9.8086585e-01  -6.7378035e-01   8.7164066e-01  -4.2331321e-01   4.7856610e-01   9.8176177e-01  -4.3894606e-01   9.2770635e-01   7.1635813e-01  -3.3330562e-01   8.1121682e-01   9.7332761e-01   9.7611956e-01  -7.2170510e-01   2.7774275e-01   8.6613262e-01   5.1021233e-01  -8.5305517e-01   5.9173435e-01   1.4642271e-01  -4.4673414e-01   7.6430097e-01  -5.8644650e-01   8.4043407e-01  -4.8932473e-01  -6.9445326e-01   7.8139961e-01  -1.1808380e-01   6.3946046e-02  -7.2542546e-01   8.9937290e-01   5.8305003e-01  -2.9646805e-01   8.1684255e-01   8.0085656e-01  -5.7321265e-01  -2.0149202e-01   9.8870333e-02   2.2553876e-01  -5.4180058e-01  -6.7838749e-01   3.9068973e-01   8.8403749e-01   2.4103130e-01  -5.8919960e-01   5.0754582e-01   9.7357263e-01  -8.6005256e-02  -8.1132630e-01  -6.4820144e-01   7.8097619e-01  -8.7031453e-01  -6.3257632e-01  -2.6048099e-01  -4.3210141e-01   3.1181023e-01  -1.7330914e-01   9.2542408e-01  -7.9026942e-02   3.0885613e-02   3.6798078e-01  -8.1432536e-01   6.5986265e-01  -2.2395864e-01   4.6112143e-01   4.1852550e-01  -2.4297455e-01   5.6417090e-02   5.1954980e-01   8.6967306e-02  -9.8768660e-01  -2.8746531e-01  -5.1825950e-01   4.9894857e-01   8.8110480e-01   4.6323706e-01   2.5779962e-01   2.6469361e-01  -8.0504260e-01  -5.5388255e-01   6.6163875e-01   2.1204825e-01  -1.9433788e-01   8.3618645e-01   9.3395045e-01   1.5292132e-01   3.4507603e-01   4.9392881e-01  -7.9687278e-01   7.6071466e-01   5.8361638e-01  -5.0414646e-01  -9.4223452e-01  -4.0777881e-02  -1.6165049e-01  -2.8938335e-01  -8.2710563e-01  -8.9133984e-01   9.4926443e-01   1.2551764e-02  -4.6685179e-01   9.4023442e-02   5.1735767e-01   6.8898972e-01   2.1436603e-01   7.8374706e-01  -3.2050813e-01   1.8896980e-01  -8.8356784e-01  -5.0295866e-01   5.8889266e-01  -8.0779591e-01   9.2539724e-01  -1.0040421e-01   5.8853685e-01  -8.8371145e-01  -9.2083257e-02  -5.6492399e-02   6.6688857e-01   4.0896994e-01   8.4131799e-02   7.0347231e-01   3.5724066e-01   3.9539696e-01  -8.7237312e-01  -8.6277348e-01  -5.6778414e-01   6.0052032e-02  -2.9786261e-01   1.2719726e-01   6.2985591e-01   3.5833479e-01   4.9732304e-01   2.7687563e-01   4.9702336e-01   2.2984502e-02  -2.4928027e-01  -9.0526250e-01   8.2380755e-01   5.0629436e-01  -9.1583700e-01   7.1989893e-01   3.1348952e-01   3.1794052e-01  -1.0175844e-01   9.9132582e-01  -3.1958900e-01   4.5845021e-01   8.3503174e-02   7.1399830e-01  -6.3276774e-01  -4.5606167e-01  -6.3988256e-01   2.6123904e-01   7.9557647e-01   2.5391184e-01  -9.8172080e-01   4.3377806e-01   7.2855337e-01  -8.6324935e-01   4.9480058e-01   4.1167272e-02  -7.5493625e-01   5.4310889e-01  -6.8900771e-01  -2.4485444e-01   9.1533855e-01  -7.6649627e-01  -1.9262097e-01  -1.8907409e-01   9.2216251e-01   6.9214153e-01  -4.9244975e-01   6.0351340e-01   3.8802263e-01   8.2722989e-01  -2.3908038e-02   3.7712535e-01  -7.9582501e-03   8.6479193e-01  -8.3295344e-01   6.0705377e-02  -9.0403749e-01  -9.7932265e-01  -4.2983927e-01   9.0644683e-01   9.7560382e-01   1.7209504e-01  -5.8499678e-01  -1.5822890e-01   2.5461678e-01  -2.3707384e-01   9.6482159e-01  -2.9908989e-01  -3.4940386e-02   6.5051736e-01  -6.7034787e-01   9.9477952e-01  -3.3104600e-01  -6.7579640e-01  -8.8928561e-01  -3.4815624e-01  -9.5304659e-01  -5.2491793e-01   8.3549850e-01   3.0421376e-01   2.9869197e-03   3.3611767e-01   2.9052487e-01   9.3286053e-01   4.0781859e-01  -8.5216126e-01   8.6749395e-01  -7.7224761e-01   7.6797148e-01   2.6429902e-01  -6.5181366e-01   1.8049752e-01  -2.9452197e-01   1.5760793e-02   3.3058267e-01   9.8692640e-01   2.3309528e-01  -7.8965143e-01  -6.5811432e-01  -9.0673412e-01   5.2553680e-01   6.7500596e-01   2.7567011e-01   1.1314722e-01  -2.0407803e-01  -8.0007949e-01   4.5657584e-01   7.4211982e-01   2.7952302e-01   1.3600886e-01  -3.3231835e-01   4.3839224e-02   7.8204357e-02  -2.1163192e-01   8.4935099e-01  -1.9545462e-01  -6.7053515e-01   9.0680550e-01  -1.9004644e-01  -8.8916602e-01   8.6342148e-01  -6.9593410e-01   2.3522615e-01   4.0728412e-01  -5.0032012e-01  -5.3828587e-01  -2.3605398e-01  -7.3033298e-01  -9.0729305e-01   5.3195365e-01   7.2390026e-01  -3.0728074e-01   5.9211674e-01  -7.5450038e-01  -5.8927673e-01  -8.1027763e-01  -2.0551475e-02  -2.9480494e-01  -6.5586538e-01  -9.3622642e-01  -5.8274359e-01   8.9952362e-01   6.5241010e-01   6.8115192e-02   1.1274240e-01  -6.8214553e-01   4.2765995e-01   7.0130917e-01  -6.0137060e-01   3.1926729e-01  -9.5138744e-01  -9.8584028e-01  -9.5314016e-01  -8.4440813e-01   5.5281230e-01  -8.9133428e-01   8.8053257e-01   1.1856576e-01   6.0962619e-01   6.2656336e-02  -6.9823477e-01  -6.6310240e-01   1.1166977e-01   5.2574037e-01  -4.9553425e-01  -3.8311558e-01  -7.8822660e-01   4.2216019e-01  -6.7705093e-01  -3.0369817e-01   6.6438652e-01  -3.5470254e-01   4.4880747e-01   9.9536067e-01  -8.0340427e-01   1.4212777e-01   7.1632743e-01  -9.0741467e-01   9.2110933e-01  -8.9221947e-01   5.0798679e-01  -4.0641555e-01   4.2166806e-02  -3.7923134e-01   1.2156948e-02   6.2946934e-01   3.1754378e-01   2.7852230e-01   4.9158491e-01   5.6191965e-01   2.3896328e-01  -3.2108028e-01   6.3064671e-01   9.3319135e-01   8.2066655e-01  -7.3128383e-01  -8.7520777e-01  -2.3987893e-01  -2.6352087e-01   9.4699243e-01  -3.0242882e-01   3.2899750e-01  -4.8046997e-02  -6.8749557e-02   9.3362075e-01  -7.6254221e-01  -8.7498359e-01   6.6333486e-01  -2.2738797e-01  -2.0672286e-01   4.8204746e-02   5.5761623e-01   2.2109524e-01   4.7502154e-01   2.3195706e-01   3.2985676e-01   7.3622396e-02  -3.8306770e-01  -5.8277571e-01   6.3964419e-01  -1.1185401e-01  -3.1217090e-01  -8.9581302e-01  -5.3028396e-01  -6.4295150e-01  -8.1176880e-01  -8.1951343e-01   7.1890998e-02  -1.8190597e-01  -3.2820381e-01   1.2582026e-02  -9.1634322e-01  -3.1805984e-01   3.5516232e-01   4.2508428e-02  -3.2549125e-01  -4.7120344e-01  -5.0010911e-01   8.8887942e-01  -9.8369238e-01  -5.7317566e-01   3.4629149e-01   8.1344568e-01  -9.4393532e-01   9.7385468e-01  -3.9580835e-01  -4.9895574e-01  -5.0336711e-01  -2.4017382e-01  -1.3605549e-01   6.9873832e-01   4.1561242e-02   1.8732601e-01   8.8415790e-01   6.0768963e-01  -9.2448865e-01   8.9780798e-01   2.5783269e-01   4.3868611e-01  -4.8215331e-01  -2.2772756e-01   3.6935534e-01   6.2783982e-03  -4.2310943e-02  -6.8912138e-01   9.9510243e-01  -1.9909104e-01   5.9778737e-01   6.9865509e-01  -5.9408149e-01   6.7952703e-01  -3.1465640e-01  -2.0030003e-01  -4.4936864e-01   3.4239999e-01   5.7384830e-01   6.8131420e-01  -9.8163990e-01  -7.8917998e-01   3.8492700e-01   6.7486853e-01   6.6559468e-02   3.7751833e-01   5.6705962e-01  -4.8728498e-01   4.9497693e-01   5.9252439e-02   4.7888098e-01   4.7321679e-01  -4.5781180e-01  -5.3356860e-01  -5.1670177e-01   8.0967704e-01   2.8874710e-01   3.1189798e-01  -3.0573180e-01  -2.0249273e-02   2.4050002e-01   1.0782513e-01   7.7617412e-02   6.4987274e-03  -6.4111209e-01   2.6773810e-01   5.7114932e-01   8.4836043e-01   9.3974201e-01   3.7765828e-01   8.9361332e-01  -2.5304082e-01  -8.7640832e-01   2.4592680e-01  -4.2850839e-01   2.7594959e-01  -4.1565221e-01  -1.1160363e-01   9.7150017e-01  -9.1011660e-01  -8.5172382e-01  -2.1272289e-01  -2.1343715e-01   6.5028603e-02   8.3189213e-01  -7.1882404e-01   2.9867653e-01  -9.5849601e-01   1.3343693e-03   8.7280126e-01   9.5905244e-02   1.0468716e-01  -8.6920248e-01   8.9007609e-01   8.0138228e-01  -2.9977105e-01   2.7799042e-01  -9.5555714e-02  -9.4185961e-01  -7.0527141e-01  -7.8061638e-01  -7.7780010e-01  -4.1843842e-01  -9.9310770e-01   3.0441928e-01   7.0356970e-01   9.0837585e-01  -4.7888965e-01   9.6190117e-02   7.2609425e-01   3.5071502e-01   6.9141916e-01  -8.7229857e-01  -9.2048731e-01   3.1193353e-01
