  -9.6746727e-01   7.1994946e-03  -4.0740012e-01   9.8087473e-01  -9.1162224e-01  -4.0459975e-01   2.5462326e-01  -8.1795573e-01  -5.4360682e-01   5.7501785e-01  -2.1513265e-02   6.4417821e-01   7.4755857e-01   4.7426001e-01   6.1489672e-01  -4.3168060e-01  -2.8224199e-01   2.4444964e-01  -7.8195302e-01  -9.5191001e-01   2.1170062e-02  -8.1181231e-01   5.0416026e-01  -1.2776933e-01  -8.4806953e-01   7.7772364e-01  -6.1473048e-01   6.6880788e-01   1.1938331e-01  -3.0054774e-01  -9.3793794e-01  -7.8340060e-02  -4.5601715e-01   5.8466104e-01  -5.8041043e-01  -4.8208496e-01   1.2759105e-01  -6.8716010e-01   6.9072489e-01   4.1445023e-01   7.1103303e-03   7.4805479e-01  -7.7756442e-02  -2.8684702e-01  -5.0309549e-01   5.0928978e-01   7.3050022e-01   5.8020430e-01  -4.3738993e-01  -8.0337559e-01   4.0378196e-01  -4.6740291e-01  -1.9277453e-01  -6.2794445e-01   9.8951066e-01   1.1746117e-01  -5.5879672e-01   9.4050782e-01  -5.9985319e-03  -5.8048913e-01  -9.7113411e-01   3.6052921e-02   6.5958026e-01   6.4723618e-01  -6.3678132e-01   2.2200825e-01  -3.3310500e-01  -5.4367032e-01  -4.3617036e-01   1.9034898e-01   1.5824021e-01   5.4296563e-01   9.4786195e-01   4.2541208e-01  -4.8748747e-01   2.4437763e-01  -7.9360882e-02  -8.1687693e-01   9.4274262e-01   2.8890853e-01  -7.7814395e-01  -8.1729373e-01   2.1519522e-01   4.1397335e-01  -7.2590079e-01   1.8370629e-01  -5.4871856e-01   2.9900532e-01   3.8278907e-01  -6.3437689e-01   4.2576451e-01  -5.0270541e-01   2.1749000e-01  -1.2134920e-01  -8.4539087e-01   8.4340825e-01   4.6662676e-01  -5.9174320e-01  -9.3522619e-02  -9.9236680e-01  -2.7919557e-01   2.5981707e-01   5.2296003e-01   1.0892233e-01  -3.1476435e-01  -7.5956157e-01   4.8642175e-01   4.8127720e-01   5.8216661e-01  -3.1606936e-01   1.6179039e-01  -8.6589082e-01  -9.7545720e-01  -6.8361369e-01  -9.2844512e-01  -4.6824033e-01   5.9510637e-01   9.8668259e-01  -8.7919513e-01  -5.0680558e-01   4.0377645e-01   3.0626051e-01   9.9401497e-02   4.2039175e-01  -1.1171879e-01   5.3202923e-01  -3.7314621e-02   2.0257460e-01  -5.9514612e-01   1.3393712e-01   1.4174975e-02  -6.6718282e-01  -9.9451382e-01  -1.0891503e-01   9.9768998e-01  -7.5056317e-01   7.7750013e-01  -9.8252899e-01  -9.3464345e-01   3.3377779e-01   3.8826403e-01  -2.3953802e-01   2.4640726e-01   4.9110775e-01  -8.8964173e-01  -8.7584931e-01   3.3613997e-01   9.1790287e-01  -4.2792670e-01   8.2370019e-01  -3.4187061e-01   5.2346719e-01  -4.9583527e-01  -8.8653349e-02   2.8379999e-01   1.7926247e-01   1.8206064e-01   8.5618317e-01   6.9532553e-01   7.4900857e-01   3.1167126e-01  -4.5140622e-01  -7.6090750e-01   2.1883386e-01   1.5865103e-02   2.1988748e-01  -6.7579234e-01  -6.8000559e-01  -5.6351525e-01  -6.1324105e-01  -4.3109878e-01   2.8296773e-01  -9.5030777e-04  -7.8549117e-02  -5.0865381e-01  -7.8799109e-01  -9.6679143e-01   7.9109468e-01  -5.6470298e-01   6.8964701e-01   5.1618480e-01   9.6027716e-02  -1.4735793e-01  -8.7849602e-01  -2.5344918e-02  -5.9569469e-01  -1.0481654e-01   4.3160327e-01   1.1831718e-01   9.3240305e-01  -6.6761009e-01  -4.6345425e-01  -3.2478539e-01  -6.1328638e-02   8.0925170e-01  -6.7249320e-01  -6.4342151e-02   9.7701914e-01   2.7019741e-01   7.3495687e-01  -7.0518487e-02  -4.4880698e-01   2.4004556e-01   5.9964651e-01  -2.9421798e-01  -7.2619931e-03   5.8166004e-02   4.8794620e-01   6.8808459e-01   5.0572795e-01  -9.0496607e-02  -8.4044551e-01   4.3131458e-01   9.2114790e-01  -4.5985111e-01   6.4107299e-01   7.3765880e-01  -9.5038768e-01   4.7859975e-01   8.1513645e-01   9.0431767e-01   6.6834139e-02   8.3388607e-01   9.3512868e-02   4.2976366e-01   9.8074121e-01   1.0917767e-01   3.9873350e-01   4.0666590e-01   2.3570887e-01  -6.8733953e-01   1.9030600e-01   9.6787825e-01  -7.7905270e-01   1.3241096e-01  -9.7177942e-01  -2.9074149e-01   9.2697508e-01  -2.4760913e-01   4.7619343e-01   8.1676757e-01   1.4775975e-01   4.7850003e-01   3.8665561e-01   8.5233297e-01  -1.5288500e-01  -8.1846478e-02   9.0644180e-01  -9.0073019e-01   7.5257479e-01   7.1915056e-01   3.6178901e-01  -5.0560722e-02   1.1136931e-01   8.3999846e-01   7.2612178e-01  -5.5100225e-01  -5.9181508e-01   7.7825167e-01  -8.0633655e-01  -4.0477792e-01  -7.5936812e-01   3.3151080e-02  -1.6787407e-01  -6.1759565e-01  -7.3415089e-01  -1.4142151e-01  -1.1756403e-01   4.0824736e-02  -6.3903577e-02   1.7853479e-01   3.0288239e-01  -1.7471480e-01  -5.4901784e-01  -7.0915811e-01   9.4456923e-01   6.6664459e-02  -7.7640271e-01  -5.3668035e-01  -9.6489353e-01  -2.8338340e-01  -9.8012819e-01   3.7685077e-01   1.7104153e-01  -2.0087058e-01   2.7523871e-01   1.9026022e-01  -2.6834419e-01   3.8484849e-01  -5.4947198e-01   2.1970779e-01   7.3579825e-01  -1.2947240e-01   2.5897372e-01   9.7601535e-01  -2.6385878e-01  -1.3429500e-02   5.0532186e-02  -9.1017302e-01  -2.2215835e-01   4.6752103e-01   3.9667735e-02   2.1442045e-02   5.1485368e-01  -9.1390065e-01   1.3225456e-01  -6.8993124e-01  -5.4894405e-01   9.0169273e-01   3.7006488e-01   9.6717765e-01   5.4415156e-01   7.8330744e-01  -3.1516674e-01   7.5953108e-01  -7.7218910e-01   8.5280008e-01   7.5772218e-01   8.1982527e-01   2.9736173e-01  -2.0231601e-01  -9.3061236e-01   4.7847524e-01  -5.3562331e-01   9.1963405e-01  -9.0372404e-01  -1.7738319e-01   1.2942926e-02   1.9958078e-01   3.9251547e-01  -5.4068984e-02  -8.5509403e-01   8.6297731e-01  -7.2391724e-01   1.2374550e-01   2.0557055e-01   7.2634279e-01  -9.2759889e-01   9.4253895e-01  -9.3749124e-01  -8.3957304e-01  -7.4622493e-01   3.7119336e-01  -1.4536789e-01  -7.5506375e-01   2.5791722e-01  -8.4800270e-02   3.9653235e-01  -2.8605824e-01  -7.9926269e-01   9.5488279e-01  -5.4643445e-01  -9.4514444e-01   7.4835414e-01  -8.6785374e-01   8.8248792e-01   6.6235991e-01  -5.1459715e-01  -2.3982657e-01   4.9753327e-02  -6.3932661e-01  -1.4689094e-01  -4.8336471e-01   3.5030284e-01   4.1126092e-01   7.0828932e-02   1.7616297e-01  -9.6768086e-01  -3.2535642e-01   9.9056188e-01  -2.1131802e-01   3.8256860e-01  -4.0961488e-01   6.8392082e-01  -7.6522476e-01  -2.2712934e-01   9.7653152e-01   1.7473488e-01  -4.7577721e-01  -9.3482164e-01  -6.8280875e-01   6.0351578e-01   7.3003869e-01   3.1136534e-01  -2.2286891e-01  -9.2059413e-01   3.7741095e-01   4.0340684e-01  -2.7786248e-01  -4.4080318e-01   1.7146088e-01   7.9176901e-01  -9.4347223e-01   2.3587558e-01  -3.2407472e-01   5.2552802e-01   2.4812495e-01   3.9182091e-01  -7.1780611e-01  -8.6565199e-01  -7.0853415e-01  -5.4729812e-01  -6.5462998e-01   2.0141687e-01   1.4758638e-01  -6.9329818e-01  -6.4577741e-01   5.9333961e-01  -9.9538349e-01   1.3660315e-01   6.7474845e-01   2.0212692e-01   8.8273274e-01  -3.5022777e-01  -6.6763333e-01   1.3661716e-01   3.6716448e-01  -5.2779721e-01   3.7217222e-01  -3.0165260e-01  -7.9151251e-01   1.2624017e-01  -2.2414032e-01   3.7701228e-01   2.3245587e-01   8.8361239e-02  -7.3478540e-01  -6.8912714e-01  -8.1424826e-01  -9.6427018e-01  -1.7786049e-01  -7.8117476e-01   7.8782165e-01   6.5454983e-01  -5.0236759e-01   4.9846586e-01   1.9022533e-01   6.3452198e-01   3.9702873e-02   9.6915579e-01  -2.5523070e-01   2.0128337e-01  -1.5263505e-01   3.6293555e-02   1.5900375e-01  -1.2082307e-01   7.3962627e-01  -7.0962084e-01  -9.1534635e-01   2.7454286e-01   4.0011580e-01  -7.2608886e-01   7.9684553e-01   2.5019548e-01  -7.3676438e-01   4.6042150e-01   9.0754099e-02  -2.9195877e-01  -1.9182208e-01   9.5768768e-01   1.2110923e-02   7.1177622e-01   9.1222261e-01   4.6253281e-01  -9.5461359e-02  -5.0348247e-01   5.4267593e-01  -4.0524628e-02   2.8098251e-01   1.5694847e-01   4.9979690e-01  -8.3175145e-02  -8.4358482e-01   6.3484615e-01   5.0309336e-01   8.8807841e-01   1.5786412e-01   6.7564657e-01  -7.9426352e-02  -8.2969198e-01   5.9213776e-01   1.1587180e-01   5.3528383e-01   5.3860559e-01  -2.2680605e-01  -3.9067764e-01   4.3852616e-01   5.9338284e-01  -9.6993708e-01  -9.0681112e-01   8.3741235e-01  -8.5093369e-02  -4.9064631e-01  -1.2738300e-02   7.3501402e-01  -6.8516275e-01   1.1666734e-01  -5.0796946e-01  -6.7383766e-01   3.3922052e-01  -7.7803425e-02   7.5200064e-01  -8.3049292e-01  -9.4001453e-01  -2.6864587e-01   8.5160459e-01   1.7449967e-01   5.1555726e-01   2.4397607e-01  -5.5519696e-01   6.8917522e-01  -2.6180112e-01   1.8684147e-01  -9.7510110e-01   2.6456873e-01  -8.5499258e-02  -8.7247840e-01  -2.9488617e-01   4.0172506e-01   7.5284748e-01  -1.5747605e-01   3.0844383e-01   7.7815462e-01   8.5190784e-01  -4.3529979e-02   6.2274670e-01  -9.0972154e-01  -5.8614489e-01  -7.2376116e-01   4.2641548e-02   8.2217436e-01  -5.5046247e-01  -7.4276682e-01   4.9836811e-01   4.2563815e-01  -6.6167435e-01  -8.8090531e-01   8.7153335e-01   1.6644930e-01   5.7357459e-01   5.0354011e-01   6.9935289e-01   3.1487249e-01   3.5264482e-01   7.0005909e-01  -6.2787074e-01  -5.3233880e-01  -1.5661446e-01  -4.9506570e-01   5.4807262e-02  -1.2019369e-02   2.0780031e-01   5.2589219e-02  -5.1711371e-01   3.2963491e-03   2.7793899e-01  -2.1121444e-01  -6.1553144e-01   2.2694241e-01   6.7633672e-01   2.9802469e-01  -5.6518755e-01  -1.4514175e-01  -1.9445784e-01  -6.0007912e-01   3.9617060e-01  -1.5591239e-01   6.9428966e-01  -3.9445800e-01  -5.1636107e-01   2.1636350e-01  -7.8197284e-01  -9.8644964e-01   8.1290356e-01   2.4917539e-03  -4.3419660e-01  -3.4624917e-01  -8.3145262e-01   3.0604172e-01  -1.5409466e-01   8.0531019e-02  -9.6291128e-01   8.4058013e-02  -8.2902439e-01  -4.3650303e-01   8.8330572e-01  -8.5359242e-01  -5.0086351e-01  -3.1949696e-01   4.2809747e-01  -8.2583185e-01  -4.8861206e-01  -1.6780350e-01   5.4046217e-02   4.3563802e-02   3.2338726e-01   2.2022691e-01  -6.3246741e-01  -6.9127436e-01  -9.1921516e-01   6.2181523e-02   9.4727084e-01  -4.8887693e-02  -6.1698300e-01   5.6922935e-01   2.9698362e-01  -1.1349149e-01   2.2054505e-01  -5.7438556e-01   7.9777016e-01  -9.9522867e-01  -3.0693209e-01   2.1582845e-01   2.9311890e-01   2.5097714e-01   2.6923576e-01  -1.6930297e-01   4.2359457e-01  -2.9273735e-01   2.3943996e-01  -4.6296226e-01  -8.4347465e-01  -7.6124372e-01  -3.7211753e-01  -8.1192057e-01   7.1420548e-01  -3.4659959e-01  -6.9247238e-02  -7.0994707e-02  -7.0914982e-01   8.5174844e-01   3.2423568e-01   6.0435210e-01  -8.0831202e-01   9.4290401e-01  -9.3605881e-01  -3.0304062e-01   7.0019634e-01   2.4886893e-01  -7.3184182e-01   7.1568416e-01   2.0539477e-01  -2.6630609e-01  -8.6582396e-01   2.0604368e-01  -6.9144575e-01  -4.5762772e-01   5.7422213e-01  -2.7821038e-01  -4.7663929e-01  -9.2218775e-01   3.1186766e-02  -8.6528867e-01   3.1871267e-01  -9.7791841e-01  -3.8992467e-01  -5.3297262e-01   4.4049497e-01   3.2351301e-01  -5.7840681e-01   7.2336702e-02  -6.1184408e-01  -9.5774398e-01   3.9690078e-01   5.3015973e-01   6.9386090e-01   1.8327136e-01  -9.5945742e-01  -1.6570095e-01   9.8502698e-01  -4.2808086e-01   2.2972342e-01   8.2409874e-01   3.1089273e-01   1.1092653e-03  -9.7800648e-01  -6.8039072e-01  -3.8870037e-01   8.3644359e-01  -8.7536765e-01  -3.4393449e-01  -4.3281781e-01   2.6106849e-01   8.9655752e-01  -4.5419809e-01   4.2184369e-01   2.6296842e-01  -1.9932432e-01  -9.1310342e-02  -8.0969417e-01  -2.4964498e-02  -6.5372941e-01   2.3464386e-01   6.5114412e-01   8.0695439e-01  -1.8922475e-02  -8.6699719e-01  -4.2013748e-01   8.5660804e-01  -9.8460020e-01   3.7626101e-01   2.9671285e-01   7.2866050e-01   5.9308185e-01  -3.0643444e-01   9.6028267e-01   1.0476976e-01  -8.3255128e-01   4.3679917e-01   1.7850557e-01  -6.0906065e-01   5.3715236e-01  -7.4050440e-01   7.4881535e-01   4.5043017e-01  -5.5537705e-01   9.3909618e-01  -8.6964553e-01  -8.0792075e-01  -9.7426353e-01  -7.0323958e-01  -7.7896641e-01   8.4003858e-01  -2.7537303e-01   4.3046594e-01   5.6174586e-01   9.1965586e-01  -7.0192970e-02  -6.6634891e-01  -5.4316070e-01   9.3614770e-01  -4.7352478e-01   3.2042553e-01   2.9292010e-01  -3.6664618e-01   9.1601868e-01   8.8008703e-01  -3.9186152e-01   5.2156213e-01  -5.8785018e-01   3.4971241e-01   4.2933095e-01   4.6802733e-01   1.6158177e-01  -4.3012937e-01  -6.8380480e-01   5.1883260e-01   1.5597285e-01   7.7393039e-01  -3.1326577e-01  -8.0343431e-02   2.5793396e-01   4.7031461e-01   1.1853384e-01  -8.0301476e-01   8.3235251e-01  -7.7164527e-01  -1.9762688e-01  -9.7889841e-02  -2.7896658e-01  -2.9266567e-01  -3.8535888e-01   1.1421868e-01  -8.9796096e-01  -4.5112024e-01  -4.8324279e-01   8.3548220e-01  -9.8948153e-01   8.1143881e-01  -2.9313712e-01   9.1119663e-01  -3.4079728e-01  -7.5311646e-01   4.3837097e-01  -1.7774369e-01   2.9220849e-01   7.2788841e-01   6.1719299e-01   1.2372383e-01   8.1865826e-01  -5.9920714e-01   7.0015192e-01  -3.5778692e-01   1.9410579e-01   4.9916609e-01  -1.3541427e-01   2.6131638e-01  -5.0887420e-01   9.4694886e-01   5.6808460e-01  -2.5713528e-01  -7.6857001e-01  -7.4510078e-01   7.6417891e-01  -1.5290065e-01  -7.3010870e-01   1.6252224e-01   4.7580293e-01   1.0165924e-01   4.6417886e-01  -9.2312101e-01   4.0543720e-01  -7.7546628e-02  -6.2526498e-01  -8.2273609e-01  -3.1277972e-01  -4.2924871e-01  -4.2791294e-01  -6.2715863e-01  -4.7067956e-01  -4.5841218e-01  -1.0088481e-01  -1.4957666e-01   9.4038893e-01   4.7074100e-01  -7.9559564e-01   1.7869267e-01   4.9442182e-01   3.1093280e-01   3.8700862e-01  -5.8635787e-01  -2.9790845e-01   1.3634846e-01   8.0241292e-01  -8.1681535e-01   2.6099687e-01   7.0009613e-02   2.3560481e-01   2.1257690e-01   5.5904655e-01   7.7599381e-01  -7.5333712e-01   7.5502776e-01   3.3842525e-01  -2.6414518e-01   4.3009890e-01  -9.5887019e-01  -9.9638441e-01   3.2864052e-01  -2.4235334e-01  -6.9981404e-01   9.5329882e-01   9.3692979e-01   1.7928652e-01  -3.3928854e-01  -2.1864489e-01   2.7110027e-01   2.7452943e-01   9.4921954e-01  -7.9523410e-02  -8.5904595e-01   9.7174802e-01  -2.3639628e-01   3.0145726e-01  -3.3674296e-01  -3.1289774e-01   3.8083189e-02   4.5823336e-01   5.9420583e-01  -8.0478176e-01  -1.0017713e-02  -1.5380932e-01   7.5922225e-01  -1.0968550e-01   1.5793255e-01  -3.4499888e-01   6.2357385e-01  -9.4567875e-01   7.4078182e-01  -9.7351985e-01   1.2343640e-01   6.6384108e-02   7.3391183e-01   3.0667340e-01  -6.0792647e-01  -3.6011910e-01  -7.4342360e-01   4.0509475e-01  -5.3009407e-01  -1.0008904e-02  -8.0586498e-01   3.6813579e-01  -9.0373630e-01  -9.3315041e-01   1.4629966e-01  -6.3459059e-01  -3.9756493e-01  -3.3646022e-01   5.9477204e-01  -4.4061926e-01  -1.6669724e-01  -8.5558782e-01  -7.3777452e-01  -1.1161566e-01  -4.4058625e-02  -8.8677288e-01  -4.0762353e-02  -2.8586054e-01  -2.6665382e-01  -9.9993415e-01  -8.1535068e-01   1.7359794e-02  -3.1111376e-01  -2.0035046e-01  -4.8820226e-01  -7.6267671e-01  -9.2509931e-01  -4.9297170e-01  -9.9641401e-02  -8.9960985e-01   7.3024657e-02   7.8424405e-01  -5.9541667e-01  -5.8561369e-01  -8.1289204e-01  -8.4910728e-01  -2.9285306e-02   8.7999931e-01   1.6729205e-01  -8.8506237e-01   2.2281252e-01  -5.6605908e-01  -9.3535017e-01  -4.1583705e-01   4.4487622e-01   6.2404376e-01  -4.6003088e-01  -4.4999725e-01   8.6152059e-01  -5.8765036e-01   8.3271120e-01   9.4092819e-01   6.4371806e-01   6.9390993e-01   8.4273438e-01  -7.3380354e-01  -9.7884357e-01  -3.4901133e-01  -8.0390447e-01   1.9724884e-01  -8.1244467e-01   8.4073621e-01  -4.0966021e-01   4.1573960e-01   1.9492244e-01   5.4084810e-01  -4.4810356e-02  -9.2617603e-01   4.9426568e-01   6.3488901e-01  -7.7618921e-01  -1.9867330e-01   8.7791272e-01  -6.4961390e-01   7.6209397e-01  -2.0446758e-02   1.4348186e-02  -7.9958475e-01   3.8089662e-01   8.1980161e-01  -7.9972063e-01  -9.7417528e-01   8.1073275e-01  -5.6705054e-01   7.9851219e-01   9.6984129e-01   7.3762711e-01  -4.7826602e-02  -4.9606594e-01  -8.6028630e-01  -2.7889415e-01   5.2877481e-01  -2.8742432e-01   8.1982188e-01  -8.9269876e-01   6.0648672e-01   5.2644481e-01   2.7138211e-01   8.9835993e-01  -3.0606854e-01  -6.7288877e-01   9.9418487e-01  -7.7478930e-02  -1.9270729e-01  -1.9907764e-01   4.8259701e-01   5.1604057e-01   9.7867010e-04  -7.6421619e-01   9.3677819e-01  -1.3834912e-01  -9.4003697e-01  -4.5237174e-01   4.2471131e-01   9.3592903e-01  -3.8077902e-01  -6.2521748e-01   9.6647011e-01   5.8420446e-01  -7.1219500e-01
