  -5.9805194e-01  -5.5218854e-01   7.5926809e-01   7.9204982e-01  -5.2076012e-01  -7.6992234e-02   2.6384983e-01  -6.4247100e-01  -2.7738177e-02  -6.9485056e-01   8.8327970e-01   7.1448216e-01   3.2939908e-01  -8.7631128e-01   8.1493747e-01  -6.0030964e-01  -6.5009295e-01  -3.7690679e-01   1.3951148e-01  -4.8394435e-01   9.5424635e-01  -4.0266243e-01  -5.7875316e-01  -6.2794414e-01   7.5755842e-01   6.9526899e-01   6.9488205e-01  -5.5547455e-01  -6.2609835e-02   4.6330641e-01   5.1135324e-01  -8.4354456e-01   9.8205968e-01   8.2527343e-01  -8.8690137e-01  -3.5693265e-01   2.1022345e-01  -1.9310634e-01   2.9660223e-01  -3.3594094e-01   4.4813995e-01   4.7201644e-01  -2.6930825e-01   5.6691179e-01  -2.8973448e-01  -5.7301929e-02  -6.4086463e-01  -1.5233866e-01   5.9565535e-01  -9.5850581e-01  -6.1998057e-01  -1.5999053e-01   7.5809080e-01  -2.9444838e-01   7.3866537e-01   6.9251892e-01  -7.3307991e-01  -6.9513596e-01   3.6213414e-01   6.3462814e-02  -2.3589823e-01   6.9144169e-01   3.9380640e-01  -9.9605503e-01  -3.3880201e-01   8.1077138e-01   6.1955970e-01   9.0436489e-01   4.6862731e-01  -3.1253309e-01   4.0113191e-01   6.0130411e-01  -3.8495302e-01   4.3458439e-01  -3.4946280e-01  -4.0163970e-01  -2.7233528e-01  -8.2303869e-01  -4.8522829e-01   4.8874477e-01  -9.3351146e-01  -6.9066698e-01  -8.6171622e-01  -6.4121623e-01  -2.3922294e-01  -2.1946706e-01  -9.0126761e-01  -4.7795298e-02  -8.4019050e-01   2.0820983e-01  -8.2378796e-01   9.2365830e-01  -4.4257116e-01   4.8231324e-01  -1.2344451e-01   8.0098403e-01  -3.1126230e-01  -8.4449862e-03   6.1784777e-01   4.5107818e-01   1.3839476e-01   6.8472767e-01  -2.0879393e-01   8.7560195e-01   2.7661937e-01   5.3557552e-01   7.4296223e-01   8.5900566e-01  -7.7852508e-01   8.1702649e-02  -8.7098618e-01  -9.0848839e-01  -7.1509353e-01  -4.2830416e-01   4.0080031e-01  -9.6538146e-01  -9.0672934e-01  -6.3741387e-01   8.3347024e-01  -9.4794538e-01   8.2498615e-01  -3.3811472e-01   5.2378978e-01  -2.4498041e-01  -3.3998432e-01   9.6944166e-01  -4.4669244e-01   4.0345780e-01   6.9060522e-01   9.7417724e-03  -6.8749643e-01   9.1396822e-01  -5.6723141e-01   4.5904680e-01   9.2569256e-01  -8.2602465e-01   5.4765391e-01   9.0727080e-03   7.9325998e-01   9.2583789e-01  -9.9581832e-01   2.7482962e-01   8.4210005e-02   7.3147256e-01  -7.2466637e-01   7.2277557e-01   6.3859794e-01   8.1394276e-01   6.2638858e-01   5.8811820e-01   5.6321809e-01   4.8763276e-01   1.5733197e-01  -8.7352772e-01  -9.6368494e-01   3.8637689e-01   9.5888151e-02   1.2978932e-02  -6.8402034e-02   2.7537457e-01  -4.8214744e-01  -6.6742960e-02  -4.6303528e-01  -8.8119101e-03  -8.7175560e-01  -4.3238557e-01  -3.3759124e-01   6.5489673e-01   5.4117860e-01  -2.1944472e-01  -5.9413143e-01  -4.0880287e-01   1.2770953e-02   9.8290640e-01  -2.3056849e-01   1.0643695e-01  -6.8159249e-01   7.7614046e-01   1.7098955e-01   3.2052144e-01   2.8909369e-01  -3.8473581e-01  -5.2839090e-01   1.7239237e-01  -6.9765603e-01  -1.4425154e-01  -1.9019888e-01  -4.8456305e-01  -4.7618490e-01   4.5826849e-01  -8.1926283e-01   1.6218717e-03   8.8624437e-01  -2.7525284e-01  -8.4194322e-01  -8.3586330e-01  -2.1490257e-01   4.1436233e-01  -3.4046517e-02   8.8634178e-02  -1.4176664e-01   1.6621215e-03   7.1175230e-02   1.1718740e-01   4.9537072e-02   4.8336716e-01   2.3561363e-02   8.1954198e-01   1.8669374e-01   9.9131328e-01  -4.7051534e-01  -6.9381144e-01  -7.6199204e-01   2.9478348e-02   8.5766599e-01  -4.3207394e-01   6.8538590e-01  -6.5275289e-01  -7.9722684e-01   5.6770238e-01   6.8284199e-01  -5.9181373e-01   7.8133489e-01  -1.9320590e-01  -8.4034099e-01   1.3342567e-01  -2.1731935e-01  -8.5083843e-01  -8.1070714e-01   2.1104816e-01  -1.1750565e-01   6.8799685e-01  -4.2152765e-01   2.3234698e-01   5.0958922e-01   8.4829962e-01  -7.4325773e-01   9.2307139e-01  -4.3857985e-01  -5.9456107e-01  -6.6848220e-01   8.7732889e-01  -1.9025079e-01   4.3428584e-01   6.4272132e-01   8.3899247e-01  -4.8357635e-01  -5.2085280e-01  -1.9216577e-01  -9.6371237e-01  -5.9206468e-01  -9.7860157e-01  -4.0911250e-01  -3.8303185e-01   5.1953262e-01  -8.2126440e-01  -5.8555281e-01  -2.4497594e-01  -7.2284364e-01   8.4446481e-01   1.2452693e-01   3.4689096e-01   2.0440361e-01   2.8230584e-01  -5.4464716e-01  -4.7691623e-01   9.1467660e-01  -3.4228929e-01  -4.6788843e-01   9.1295323e-01  -5.1524654e-01   1.6984336e-01   8.4883609e-01  -9.8014089e-01  -6.3823539e-01  -6.7131522e-01   6.8518490e-01   6.5731967e-01   6.9166861e-01  -3.0721163e-01   1.6457190e-01  -8.0279717e-01  -2.3861776e-01   3.4090429e-01   5.7098609e-01   9.0916719e-01  -4.5779227e-01   4.0889345e-01  -7.1547017e-01  -7.2067936e-01  -7.4549894e-01   3.7375300e-01  -6.0676931e-01   6.7540990e-01   5.1659655e-03   6.4613746e-01  -8.4408786e-01  -2.0154893e-01   3.7731832e-01   5.8185620e-01   8.5046993e-01  -7.9273792e-01   5.1256889e-01   6.1505730e-01  -7.9540012e-01  -4.4805224e-01   1.2976521e-01  -7.9012600e-01   7.9278337e-01  -9.0137446e-01  -1.2323376e-01   6.0343994e-01  -1.2156217e-01  -2.3599555e-01   6.7944628e-01   7.7093742e-01   1.7739463e-01  -5.1690564e-01   4.6694771e-01  -4.8512587e-01  -9.7031434e-01   2.5796624e-01   6.8860596e-01  -7.9702603e-01   3.0176762e-01   2.5909680e-01   5.5747192e-02  -9.0860095e-01   7.2471179e-01  -7.3014003e-01   6.0257307e-01   3.6663744e-02   7.9376679e-01  -4.5129404e-01  -3.7220731e-01  -6.3477545e-01   4.7374715e-01  -1.9001327e-01   7.7529600e-01   4.0011130e-02   1.1852303e-01  -3.6852343e-01  -9.1872452e-01   6.1105649e-01  -8.0734732e-01  -6.7584243e-01   5.3758819e-01   2.4254081e-01   1.6999242e-01  -1.4273862e-01   5.3681254e-02   7.4845416e-01  -9.1241215e-02  -8.8845811e-01   8.6520212e-02  -1.1062432e-02  -2.6163629e-01  -3.0162574e-01   2.9516830e-01   3.4023461e-01   7.7025934e-01  -6.1076466e-01   9.0884708e-01  -1.7179136e-01   8.6859468e-01   4.3313456e-01  -4.6136852e-01  -9.1140042e-01  -2.0077080e-01   2.2049989e-02   1.2954249e-01  -6.0796219e-01  -3.9563769e-01  -2.3406961e-01  -5.5027920e-01   8.8493024e-01  -4.5281844e-01  -4.0140261e-01   5.8388906e-01  -2.9599540e-01  -6.2435620e-03  -9.2524133e-01  -2.9678181e-01   9.6658788e-01   1.1978399e-01   6.3723603e-01   1.2962694e-01   4.9592803e-01  -2.3495959e-01   4.8749990e-01  -3.2244927e-01   3.8192566e-01  -6.7013396e-01  -3.6111223e-02  -3.3586971e-02  -5.4230169e-01  -7.4880624e-01  -1.6996566e-01   4.3427031e-01  -3.2096859e-01   1.1609148e-02   4.6835488e-01  -9.2832274e-01  -4.3061870e-01  -1.0664454e-01  -5.1370306e-01   1.2844704e-01   8.4499548e-01   5.1970578e-01  -4.9575845e-01  -5.2929790e-01   8.5966063e-01   4.1993463e-02  -9.4810684e-01   9.2198529e-01  -6.4579696e-01  -5.4497771e-01   7.1517809e-01  -2.4051066e-02   1.1447573e-01  -4.9968224e-01   4.3555134e-01   6.2098082e-01   4.2704415e-01  -5.1309925e-01  -1.3233708e-01  -1.8901156e-02   8.6304241e-01  -7.9671023e-01  -3.3164860e-01   7.6337317e-01   6.5012024e-01   7.6757267e-01  -4.8939607e-01  -8.2352850e-01   8.0970236e-02  -8.5068882e-01   2.1134247e-01  -5.6320476e-01   6.3665396e-01  -1.5264517e-01  -9.9106869e-01   5.8808568e-01  -4.9008450e-01  -9.8231593e-01   3.2897827e-01  -6.5257116e-01  -7.2571187e-01   2.0871134e-01  -4.3002948e-01   9.0322099e-01  -1.6131205e-01  -4.6328377e-01  -3.6729346e-01  -4.2809908e-01  -6.0017715e-01  -7.7985092e-01   8.1492464e-02  -6.8000367e-01   3.4723720e-01   5.2285562e-01   3.7221340e-01   6.9604741e-01  -2.1661176e-01  -1.2491040e-01  -1.7565366e-01  -8.7809439e-01   3.3443254e-01  -1.4071040e-01  -8.3084304e-01  -6.1202869e-01   8.8121929e-01  -8.8682886e-02   9.6167822e-01   9.1474432e-01  -4.5282189e-01  -5.1138090e-01   7.2736662e-01   2.0253875e-01   7.5500411e-01  -6.3866108e-01  -9.7538551e-02  -5.7806568e-01  -3.8537775e-01   1.5182916e-01   1.9660788e-01  -7.8269731e-01   3.5831413e-01   8.8137622e-01  -5.1253576e-01  -5.5195480e-01  -1.9291406e-01  -7.2356909e-01  -8.5167675e-02   7.6548245e-01   8.3995409e-01   2.0366133e-01  -2.8037860e-01  -6.3591389e-03   8.8131934e-01   9.9532882e-01   9.9820721e-01   3.7631453e-01   4.7629765e-01  -3.0045363e-01  -8.4653076e-01  -7.4888479e-01  -9.7757622e-01   5.1944660e-01   7.3325517e-01   1.8195169e-01  -1.2980247e-01  -6.5454578e-03   9.6438986e-01   2.6025723e-01   7.6767903e-01  -2.7510384e-01   4.9300636e-01   5.8384192e-01  -8.0718940e-01   2.4848580e-01  -6.3546665e-01  -6.7524589e-01  -4.9064131e-01   5.3193307e-01  -2.9157728e-01  -2.0328644e-02  -3.5783609e-01   1.1714978e-01   2.2550570e-01   3.8389109e-01  -7.5504313e-01   8.9327471e-01   6.5073157e-01  -5.1490401e-01   7.9461680e-01   3.6233690e-01   8.1472776e-01   2.5300080e-01   5.7083931e-01  -8.0412908e-01   4.9104057e-01  -5.0587841e-01  -9.1467564e-01  -5.6072268e-01  -1.3919723e-01  -8.5874164e-01  -8.0724585e-01  -1.8740174e-01  -8.6794068e-01   3.9795726e-01   9.9465407e-02  -4.8589781e-01  -9.4860049e-01   6.1627063e-01  -2.0755622e-01   8.6551907e-01  -7.4517776e-01   7.4298433e-01  -1.2656004e-01   4.8224866e-01  -2.9788971e-02   9.1747300e-01  -1.3209659e-01   9.7263050e-01   3.4346175e-01   5.1996571e-01  -1.1840217e-01   1.1998952e-01  -2.9984459e-01  -4.0087817e-01   9.4216464e-01   6.6092754e-01   6.3282005e-01  -8.6455305e-01   1.8200108e-01  -5.6082137e-01  -9.2345912e-01   1.4464287e-01   1.3225627e-01  -5.4987857e-01   7.6959100e-01  -1.7471427e-01   5.1304683e-01   4.1425702e-02   1.9291453e-01   7.8187473e-01  -3.8721638e-01   7.4043426e-01   7.7687371e-01  -9.0443995e-01  -5.5497509e-01  -7.7025164e-01   2.2963284e-01  -8.5900953e-01  -3.9525091e-01  -5.9759355e-01   8.6511152e-01   9.3867746e-01  -8.4098265e-01  -4.8098013e-01   3.0856774e-01  -3.9315382e-01   6.8861953e-01   3.9727314e-01  -7.5297491e-01   7.7787427e-01   6.6514861e-02  -2.6339004e-01  -7.1267325e-01   5.9676274e-01   3.2526872e-02   4.0422148e-01   2.1489102e-01  -4.7393856e-01  -1.1917141e-01  -5.7463354e-01  -1.0806919e-01   7.0403597e-01   5.0179876e-01  -9.5729317e-01   2.1841086e-01   6.9692259e-01   1.1373785e-01  -6.6881225e-01   9.9973422e-01   4.9203565e-01   8.7183802e-02   9.1059055e-03  -2.0385693e-01  -9.5888693e-01   2.1217424e-01  -5.9735024e-01  -8.4492881e-01   4.3895467e-01  -5.2266096e-02   6.6169289e-01  -9.7563430e-01  -4.8767745e-01   8.3252590e-01  -5.1685163e-01   4.5485645e-01   1.0562660e-01   8.6634920e-01  -1.0816423e-01   6.0747021e-01   5.7752554e-01  -7.1533807e-01   3.1190740e-01  -9.2662189e-01  -1.7587727e-01  -8.7290296e-01   2.9558018e-01  -6.3541843e-01   6.0803325e-01   4.5894737e-01  -8.1514649e-01  -3.7693053e-02   4.7555510e-01   9.7763727e-01   1.4792215e-01   1.8398895e-02  -8.3993680e-01  -6.2948124e-01  -4.1675663e-01  -1.8596479e-01  -9.1582309e-01   9.5242090e-01  -8.6502894e-01  -2.9609202e-02   2.7744197e-01  -4.6431774e-01   3.2793335e-01   4.3419118e-01   3.1731346e-01   8.5120368e-01   9.8543180e-01  -8.7447117e-01  -4.0451241e-01   7.2166474e-01   3.4295160e-01  -6.1001842e-02  -1.2418839e-01  -8.7885756e-01   2.5664561e-01  -4.6598144e-02  -4.9280073e-01   9.0155150e-01   5.7351324e-01   5.6956547e-01   3.2333834e-01   2.6316623e-01   5.9457698e-01  -7.4351731e-01  -6.0348207e-01   4.8064663e-01  -6.8874551e-01   1.7218897e-01   5.3349974e-01   4.6695600e-01  -7.5887687e-01   3.1115851e-01   1.7209380e-01  -9.9389509e-01   3.8766675e-01   4.7369021e-01   1.6984240e-01  -6.5470653e-01  -6.8659136e-01   9.5055340e-02   8.7199058e-01  -4.5888224e-01   3.7601430e-01   5.2205478e-01  -2.4331545e-01   5.8368170e-01  -1.1821134e-01   2.1298461e-01   3.0123259e-01   6.1515102e-01  -5.8188799e-01   5.2645130e-01  -6.8940811e-01   8.7848326e-01   6.8660222e-01  -3.1490055e-01  -7.3211199e-01   2.2594149e-01  -6.9550492e-02  -3.9526032e-01   5.5396745e-01  -4.2308407e-01  -5.7391988e-01  -3.6812790e-01   7.2482346e-01  -1.1146381e-01   7.5915546e-02   9.0475269e-01  -6.0523556e-01  -2.7933152e-01  -9.8237651e-01   5.1011327e-01   2.9329245e-01   1.0910942e-01  -1.6721515e-01   2.8079727e-01   4.9828197e-01  -2.5465602e-01   6.5025023e-01  -3.8317857e-01   5.1807553e-01  -1.7901225e-01  -8.2816161e-01  -4.6707180e-02   8.4442641e-01  -6.9851883e-01  -3.0262493e-01   5.7162872e-01   6.8465730e-01   3.7122340e-01  -4.2114795e-01   6.2180219e-01   2.6154471e-01   7.4862865e-01  -5.8742508e-01   7.6247811e-01   8.3913989e-01   4.6061368e-01   6.3239163e-01  -8.3088347e-01  -3.0130264e-01  -8.3262452e-01   7.7545205e-01   7.3923782e-01  -3.2611507e-01   8.9800257e-01  -1.7062631e-01  -3.6161940e-01  -1.8105370e-01  -1.9585765e-01  -1.0383104e-01   7.8893426e-01  -3.9395412e-01   5.6056318e-01  -2.5301619e-01   8.7969416e-02  -1.4071694e-01   1.5525191e-01   2.7107698e-01  -7.7395067e-01  -5.4745187e-01   5.0194386e-01   9.0163922e-01   3.6567657e-01   4.1780451e-01  -4.2354939e-01  -9.1597361e-02  -5.6364938e-01   6.5812373e-01  -6.0646505e-01  -5.1498495e-01  -1.2689108e-01  -5.8060739e-01  -1.0160744e-01   3.8386969e-01   2.6696232e-01   3.4769317e-01   3.7977540e-01   4.7586587e-01  -3.8230009e-01  -3.3369680e-01   4.6259529e-01  -6.1654064e-01   8.2237414e-01   1.6501326e-01   4.9177612e-01  -7.0921782e-01  -1.3404357e-01   1.7766632e-01   1.1508329e-01  -7.9223809e-01  -6.5807619e-01   9.2816377e-01  -7.6175361e-01  -4.9469043e-01  -4.7344586e-01   4.2046441e-01  -2.4173976e-01  -3.2201305e-01  -4.4797623e-01   1.5084465e-01  -5.5619597e-01  -6.0258278e-01   3.6835772e-01  -6.4287609e-03  -3.2081824e-01  -6.1031587e-01   3.0340945e-01   9.4618208e-01   7.8085004e-01   4.6047234e-01   1.6515868e-01   7.2001676e-01  -1.9353099e-01  -4.1583587e-01   1.4792253e-01  -2.1586362e-01  -6.7462563e-01  -9.5105037e-01  -9.7704990e-01   8.4902825e-01  -7.7333244e-03   7.3574735e-01  -4.1161117e-01  -6.0337520e-01  -8.4158455e-01  -6.5488641e-01  -2.4140131e-01  -7.1394214e-01   2.3553941e-01   3.6032206e-01   7.1283898e-01  -2.2008745e-01  -8.0499369e-01   5.1264146e-02  -3.8708888e-01   9.2747103e-01   4.8703469e-01  -7.8746040e-01  -4.8730496e-01   7.1665322e-03  -4.1305347e-01   1.7097416e-01   9.8237198e-01   3.1895098e-02   6.6873470e-01   1.3193883e-01  -3.5427630e-01  -8.7853996e-01   8.0764744e-01   1.5132692e-01   6.5305455e-01   2.9387460e-01   7.2413277e-01  -3.6688160e-01  -3.9079997e-01   9.0050394e-01  -3.5593373e-01   3.8353892e-02  -5.1096269e-01   2.0061917e-01   9.0248772e-01   6.9171415e-01   2.7323092e-01   3.3248622e-01  -9.6061842e-01   3.8152726e-01  -3.1575301e-01   4.2594567e-01   9.5740188e-01  -2.1213914e-01   4.5128902e-01  -8.7865628e-01  -9.3515218e-01  -2.8631625e-01  -7.0144563e-02   6.5100700e-01  -8.9425526e-01   5.9492809e-01   5.2536153e-01   3.2128122e-02   2.4202700e-01   4.8579609e-01  -4.0547848e-01  -8.6290765e-01   8.3395288e-01   5.5403456e-01  -1.8445576e-02   6.1144395e-01  -2.7519553e-01  -1.1935878e-01  -8.1742250e-01   9.4555944e-01   5.4978888e-01  -5.2372839e-01  -4.9513287e-02   1.0551233e-01  -8.1638272e-01   5.1972472e-01   7.5954012e-01  -3.8381031e-02  -8.8993896e-01   8.9596548e-03   4.3807873e-02  -7.3647638e-01   1.7723203e-01  -1.7975509e-01   7.2817487e-01   8.9102392e-01   5.4058760e-01  -6.7671986e-01   2.4513616e-01   7.3468682e-01   8.5260840e-01   7.9453287e-01  -8.1971466e-01   5.2490240e-01   8.9758450e-02   1.7521111e-01  -9.8128964e-01  -4.7469646e-01   1.8402797e-01  -4.6633501e-02  -3.4370696e-01   3.6884671e-01   3.3606019e-01  -4.2708129e-01   7.1022313e-01   2.4533696e-01   9.2407114e-01   6.2212418e-02   2.1611386e-01   6.3965944e-01  -1.4321091e-01   9.0740617e-01   4.3647946e-01   1.2751510e-01   4.1867185e-01   6.6254742e-01   9.2972314e-01  -8.8533556e-01   6.5812240e-01  -5.5079309e-01  -3.0844176e-01   1.2493578e-01  -2.1309607e-01   6.5813177e-01   4.1596243e-01  -4.5958143e-01   6.2209062e-01  -1.0460796e-01   6.6675556e-01   9.5357812e-01   6.3382451e-01   4.1033724e-01   9.5407692e-02  -3.0675713e-01  -1.6958009e-01   9.5698556e-01  -9.6323742e-01  -4.9062888e-01  -7.5070213e-01   3.4574672e-01  -6.1913435e-01   1.0569011e-01  -5.8833451e-01   2.9566840e-01   2.2122028e-01   4.5409788e-01   6.7853451e-01
  -3.5659901e-01  -5.0293640e-01  -8.9480219e-01   4.8084998e-01  -7.8228072e-01   3.5994374e-01  -2.4406199e-01  -9.5114731e-02   7.9306201e-01   5.5160561e-02   9.7334729e-01   4.2355133e-01  -1.0985172e-01  -3.9864832e-01   3.8485581e-01  -5.6230598e-01   3.1031046e-01   9.7408919e-01   2.5600681e-01   8.9644209e-01  -7.7470675e-01   4.0972714e-01   4.0462605e-01  -2.0259666e-01  -5.9237584e-02   2.8934724e-01  -5.9359535e-01   6.6697656e-01  -9.3923328e-01   8.6894665e-01   3.5273278e-01   4.4153587e-01  -7.7592502e-01  -4.1461456e-01  -1.2596863e-01   2.9374301e-01   3.1311052e-01   3.7843824e-01   6.2737124e-01  -1.8705587e-01   3.8163798e-01   9.0365037e-01  -7.0474550e-01   4.2127391e-02  -8.0925798e-01  -1.0152306e-01  -8.0655783e-01  -5.3418072e-01  -9.5548704e-01  -8.9787285e-01  -2.9186021e-01  -6.8146495e-01  -4.9113894e-01   3.0676975e-01  -2.0680225e-01   9.4987492e-01  -5.5348196e-01  -2.0042083e-02  -9.7220386e-01  -7.8682603e-01  -5.3660644e-01  -1.4906092e-01  -2.6538113e-01   6.4467461e-01  -2.7456816e-01   9.8300665e-01  -1.2809038e-01  -1.5679104e-01  -8.2921946e-01   6.7291217e-01   1.8142940e-01  -2.4978288e-02   5.5870179e-01   4.8338622e-01   8.6789698e-01   8.8240781e-01   2.0924644e-01   6.6914711e-01  -9.6114593e-01   1.8220046e-01  -6.5139605e-01   7.4134750e-01  -8.2498470e-01   3.2680001e-01   6.3338182e-01   4.1711021e-01  -2.6979666e-01   7.0238478e-01   1.2763249e-01   6.9009507e-01  -3.0211979e-02   6.1041689e-01  -4.4213399e-01  -4.9053498e-01  -8.0792266e-01  -2.6613403e-01  -3.9261618e-01  -2.0046414e-01   7.1009539e-02  -2.7609528e-01  -6.5484563e-01  -8.8802967e-01  -6.8124467e-01  -7.2467082e-01   8.8869457e-01   9.8177101e-01   8.2551053e-01   1.5240633e-01   2.3273152e-01  -3.8610354e-01  -2.2032363e-01  -6.8797938e-01  -2.5028910e-01  -9.6826307e-01  -1.6686310e-01  -7.8829958e-01   1.0167462e-01  -7.9026265e-01  -2.1848803e-01  -3.1945044e-01   1.5711367e-01   8.9434675e-01   2.9207684e-01   1.4089260e-01  -4.4944403e-01  -2.2024090e-01   7.0003007e-01   9.9021232e-01  -2.3850332e-01  -1.9328661e-01   4.7988411e-01   5.8802586e-01   5.0106230e-02   1.1401041e-01   4.8813438e-01  -2.8924442e-01   2.4622365e-01   4.7944749e-01   4.4640311e-01  -7.9394522e-01   3.0903905e-01   9.8839218e-01  -4.2342697e-01  -1.3293710e-01  -8.4044183e-02   8.3338552e-01   5.2660538e-01  -3.8229035e-01   4.9716566e-01  -3.9023286e-01  -8.0010049e-01   9.7370409e-01  -6.8246303e-01   2.6111539e-02  -9.7988065e-01   6.4243378e-01   3.1581891e-01  -2.5356447e-01  -8.5385565e-01   2.2690591e-01  -7.2939609e-01   1.8406897e-01   1.6042830e-01   3.3651823e-01   7.9690804e-01  -9.8238038e-01   4.6179436e-01  -3.9811788e-01  -9.8089575e-02  -6.4348805e-02  -2.1480204e-01   4.4682047e-01  -3.0330818e-01   8.2433713e-02   7.2716996e-01  -2.3922113e-01  -4.3455745e-01   6.0875486e-01  -9.7868531e-01   4.3139524e-01   1.8338954e-01  -2.7626899e-01   2.5949940e-01   6.6547217e-02  -5.4079267e-02   8.1477729e-01   3.0216052e-01   7.1718735e-02  -9.0986501e-01  -3.9751833e-01   5.8041308e-02  -2.9553629e-01   2.6308896e-01  -1.9495626e-01  -5.8103184e-01  -5.9833270e-01  -8.9371372e-01  -8.9486399e-01   4.8296379e-03   8.8398631e-01   5.2084189e-01  -2.1726735e-01  -7.6105006e-01   9.0868390e-01  -8.1738495e-01  -5.1916407e-01   9.7235782e-01   1.2673518e-01   2.0667826e-01   1.3623498e-01  -5.0084191e-01   1.7504752e-01  -3.3054751e-01   4.0920258e-01  -8.1937310e-01   8.3759092e-01  -8.6301869e-01   8.4279233e-01   6.8437157e-01  -8.8414026e-01   3.8478566e-01  -1.8659323e-01   3.5258012e-01  -2.8131806e-02  -2.4195366e-01   9.2999020e-03  -5.5266400e-01  -5.7226707e-01  -4.4723646e-01  -9.4823404e-01  -3.9775561e-01  -8.1498821e-01   5.9341568e-01  -5.4735833e-01  -8.4658510e-03   9.9115372e-02   6.0554427e-01   1.4092408e-01  -6.1668920e-01   6.6787678e-01   4.3967758e-01  -3.4185970e-01   8.0085344e-01  -7.9594514e-01   6.5924560e-01  -7.3056644e-01   1.3551050e-01  -8.5842889e-01   1.0593509e-01  -7.2984678e-01   8.4846889e-02  -4.5209190e-01  -2.9855119e-01   3.0812142e-01   6.2503280e-01   1.4215100e-01  -8.3036320e-01   8.5955787e-01  -1.1069117e-01   9.5115977e-01   9.4550643e-01  -1.3029474e-01  -5.7856360e-01  -8.3425752e-01   9.3578383e-01  -3.9061809e-01   3.9349655e-01   2.9179372e-01   1.3481392e-01   3.8066125e-01   2.6989429e-01   7.6522159e-01  -2.4851703e-01  -4.4956829e-02  -6.4870123e-01   8.6187354e-01   7.4610875e-01  -3.6741632e-01  -5.8816014e-01   4.4297667e-01   3.1459476e-01   8.5861936e-01   4.5129220e-01  -5.6456297e-01  -4.2460774e-01  -1.2039756e-01   5.2630753e-01  -5.3811104e-01   4.6832957e-01   6.1616047e-01  -4.3485909e-01   2.8564491e-01   2.7112496e-01  -5.2103147e-01   5.1701489e-02  -2.7693455e-01  -9.0208718e-02  -1.0261614e-01  -5.3844629e-01  -2.7925322e-01  -5.2827871e-01  -4.6807123e-01   2.8672718e-01  -4.5118700e-01  -4.7629622e-01  -7.5250818e-01   9.2782953e-01   6.1748007e-01  -5.2001591e-02  -5.8198450e-01   5.9829471e-01  -3.2356156e-01  -3.5115368e-01   3.3458407e-01   6.9051085e-01  -3.9123286e-01  -5.4876975e-01  -7.8394259e-01  -2.1311133e-01  -6.9826017e-01  -2.8777442e-01  -9.9281217e-01   4.6096087e-01  -9.3250141e-01  -8.6244848e-01  -6.3425079e-01  -7.5024949e-02  -9.4087968e-01   8.6571067e-01   6.2103597e-01  -1.7594844e-01   1.1282908e-01   4.7630125e-01  -2.5722679e-01   3.5588172e-01   8.3132170e-01  -5.7901963e-01  -1.3803638e-01  -6.9144013e-01  -3.9773754e-01  -4.9147436e-01   8.6686218e-01   2.3519887e-01   7.6306934e-01  -4.9581963e-02   3.7328535e-01  -6.0023431e-01   7.1252553e-01   9.3677055e-01  -7.5264884e-01  -6.6112746e-01  -6.8305234e-01   8.4233300e-01  -7.2625379e-02   1.8952453e-02  -6.9915825e-01   2.8714278e-01  -6.6777051e-01   1.4799485e-01  -5.7159975e-01  -2.4357339e-01   9.7446798e-03   3.6257679e-01   8.0375031e-01   4.1007504e-01  -7.7742367e-01   1.9870038e-01   8.1143025e-01  -2.5781692e-01  -2.0055180e-01   7.4972134e-01  -4.5501433e-01  -1.3870905e-01   6.7025605e-01  -1.2891797e-01  -3.4041392e-01  -9.4993934e-01  -4.8067517e-01  -4.5828295e-01  -3.7237302e-01   8.5325724e-01  -5.1032069e-01  -7.4883298e-02  -2.3503540e-01  -1.9359651e-01   8.5922092e-01   8.8985822e-01   8.0603714e-01   4.3347847e-01   1.7423959e-01   6.5402780e-01  -1.4614941e-02  -6.2225471e-01  -1.2379662e-01   7.4372251e-01   9.9059122e-01  -1.7361481e-01  -1.3268085e-01   8.3493686e-01   3.1514878e-01  -8.0673816e-01  -5.8993479e-01  -2.7894872e-02  -3.5274803e-01  -3.1359977e-01   1.7507198e-01   5.3838858e-01   6.6550969e-01   5.7055037e-01  -2.9472489e-02  -5.2109470e-02   4.4951401e-01  -1.8706117e-01   2.0481440e-01   1.2814786e-01  -7.9984075e-02  -3.7310731e-01   3.9906353e-01  -2.8327602e-01   1.6096201e-01   4.4662988e-01   5.2812265e-03  -7.9244689e-01   4.5629346e-01   4.9199940e-01  -1.1832972e-01   9.6368233e-01  -8.7024388e-03  -1.3580725e-01   4.7366503e-01   7.1381971e-02  -8.3170499e-01  -4.1847889e-02   8.0657139e-01   9.6091796e-01  -1.6790975e-01  -5.7684966e-01  -9.0226144e-01  -2.1586791e-01   9.2878559e-01   7.5708938e-01   6.7693845e-01   9.4341040e-01   9.2216677e-01  -5.2395181e-01   5.6944250e-01  -7.6250610e-01   1.9824257e-01  -3.7885662e-01  -6.8934881e-01   3.2162286e-01  -6.5068746e-02   5.2914998e-01  -2.7152801e-01   8.7197268e-01   1.5899830e-01   3.3138872e-01  -6.5570166e-01  -8.8826143e-01  -9.0857229e-01   1.7663850e-01   4.4981961e-02  -6.5276329e-01   1.3461915e-01  -4.8146742e-01   4.8633167e-01  -3.5045754e-02   4.0869997e-01  -3.1876258e-01  -4.2144100e-01  -5.9778700e-01   7.0681561e-01  -7.7121412e-01   1.1106728e-01   7.4048858e-01   8.9733894e-01   1.8299739e-01   1.9247918e-01  -9.3900407e-01  -2.3741254e-01  -7.1954543e-01   7.4553363e-01   8.5256262e-01  -6.2267980e-01  -5.7963813e-01  -5.5147624e-01  -8.6281070e-01   5.1635583e-01  -8.7931344e-01  -5.3185375e-01  -2.3852837e-02  -2.8694329e-01   8.1324639e-01   4.9861796e-01  -4.8334126e-01  -2.2046068e-01  -6.9129069e-01   3.8887570e-01  -7.3901934e-01  -4.6315373e-01  -7.4571523e-01   6.5192323e-01  -1.7373879e-01   5.8573515e-01   6.6300204e-01   9.4697787e-01   6.6306622e-01  -6.8050046e-01   1.0261153e-01   7.9434962e-01   4.4333255e-01  -8.9753448e-01  -7.7944482e-01   4.7954438e-01  -9.3343299e-01   4.2738999e-01   5.3946254e-01  -2.8248995e-01   3.5088389e-01  -6.6780154e-01  -1.5978924e-01  -3.8421219e-01  -7.6302169e-01  -8.8788090e-01  -2.7489718e-01   2.4865334e-01   3.7623165e-01  -1.7177753e-01  -5.9344708e-01   1.1731854e-01  -7.2285266e-01   9.9186589e-01  -1.2025328e-01   9.6840583e-01  -1.4532705e-01  -3.2631766e-01   9.5167439e-01   6.6562738e-01   9.1903351e-01  -3.6610872e-01   3.4476233e-01   3.9858622e-01   9.8024035e-01  -7.2078563e-02  -4.7196286e-01  -9.0231021e-01   8.6955059e-01  -3.9730240e-01  -7.7183833e-01  -5.3886231e-01   9.5252326e-01   3.4986751e-01  -2.5357401e-01   3.6801567e-01  -9.7786176e-01   3.8416972e-01   6.1982153e-01  -6.9829332e-01   3.1694806e-01   5.9386492e-01   1.2649278e-01   7.1796004e-01  -1.2770870e-01   5.8751064e-01  -8.8105568e-01   6.7536626e-01   7.3325895e-01   8.1255842e-01  -1.7147995e-01   4.5433374e-01  -8.0465524e-01  -4.1534529e-01   9.7209085e-01   2.6198010e-01  -5.5391747e-01  -1.6408492e-01  -8.2939860e-01  -1.1444208e-01   7.2993500e-02  -8.9479595e-01  -5.0201241e-02   5.5123490e-01  -1.2352204e-01   3.4224498e-01  -4.7589943e-01   3.2228769e-01   8.1872881e-01  -5.8506579e-01   1.7044981e-01  -4.7181967e-01  -9.3750373e-01  -8.2830849e-01  -4.3375313e-02   1.4567956e-01   5.8806692e-01   6.6586639e-01   2.9897858e-01  -2.4389563e-01  -6.6580656e-01   7.4198227e-01  -9.7699934e-01  -4.0712226e-01  -4.3801175e-01   7.9709133e-01   6.4015955e-01   4.8635432e-01  -5.7319732e-01   5.7655041e-01   7.0437325e-01   5.8244066e-01  -5.3191830e-01  -6.4762114e-02  -9.3353550e-01   3.6246184e-01   5.3549356e-01   2.7865622e-01   7.2855187e-01  -4.9052152e-01  -7.9266295e-02  -3.8592245e-01  -1.4726788e-01   5.0834876e-01  -8.5815362e-01  -2.1040355e-01  -7.7638852e-01   3.3045507e-01  -7.4833800e-01   1.7363753e-01  -3.5071333e-01  -3.7941336e-01  -7.0215430e-01   3.3211304e-01   4.4261578e-01  -5.8897605e-01  -9.7258855e-01   5.9096208e-01  -4.4354412e-01   1.4673461e-01  -3.3067173e-01   4.9135240e-01  -5.7766297e-01   9.9756272e-01   2.9692253e-02   7.2310221e-01  -7.2471524e-01   4.2752407e-01  -8.4376612e-01  -7.7587711e-01  -7.7191414e-02  -2.1648360e-01  -7.6902860e-01   9.4552264e-01   4.7033302e-01   9.3698963e-01   1.8341954e-01  -8.4057388e-01   5.1612988e-01  -2.9255536e-01  -8.2259849e-01   6.5009247e-01   2.4877910e-01   3.4501847e-01  -7.9028725e-01   8.7548229e-01  -9.0649731e-01  -7.8623095e-01  -1.8288585e-01  -7.7256830e-01  -5.9947634e-01  -7.1698866e-01  -5.3399462e-01   4.7785652e-01   3.2087467e-01  -2.7329562e-01   3.0175002e-01  -5.6408898e-01  -9.8886992e-01   2.4527065e-01   5.4115471e-01  -9.5964683e-02  -7.8035234e-01   3.7518724e-01  -8.1783473e-01   1.9018854e-01  -3.1130299e-01   8.2217562e-01   2.4524445e-01   6.3960589e-01   8.3206756e-01  -5.8305291e-01  -2.6977484e-01  -1.3460897e-01   2.7811744e-02  -1.4648700e-01  -3.0626628e-01   2.0643698e-02  -8.0600754e-01   7.5505987e-01  -8.2238805e-01   3.4220700e-01  -3.4693629e-01   7.5832994e-01  -2.6429626e-01   9.2891606e-01   6.4202657e-01  -1.0692489e-01   3.6790465e-02  -4.6805391e-01   1.0740995e-01  -1.4627459e-02   5.4636485e-01  -3.8427234e-01   7.1506901e-01  -1.0841849e-01  -5.2292519e-01   3.8042478e-01   7.2207590e-02   5.1125220e-01   8.0258726e-01  -7.6302761e-01  -6.7523380e-01   8.2389955e-01   2.8210475e-01  -8.1538064e-02   2.0307153e-01  -1.6491746e-01   6.7819620e-01  -8.8801586e-01   5.7408700e-01   3.3136849e-01  -5.1829071e-01  -8.0262409e-01  -4.6825588e-01  -6.6383953e-01  -8.7277996e-01  -4.7957573e-01  -1.0463863e-01  -6.6066354e-01   4.2715069e-01  -9.4284421e-01   5.5957358e-01   6.1358742e-01   4.5282424e-01   3.7879752e-01  -2.8691397e-01   6.9551708e-01   6.4390500e-01   5.6091198e-01   6.4768893e-01   9.3516109e-01   3.6393248e-01  -5.6804709e-01  -1.6712172e-02   4.0490546e-05   7.5337537e-01  -8.2162957e-01  -9.5711442e-01  -7.3101914e-01   9.2685062e-01  -1.2539212e-01  -1.6943474e-01   3.3350896e-01   9.8825897e-01  -5.0953947e-01   8.0680900e-01   5.0686666e-01   6.9549036e-01   6.5711019e-01   7.2317111e-01  -7.1725845e-01   2.9548334e-02   8.9199086e-01  -4.8158877e-01  -2.7967516e-01   4.5278075e-01  -2.9941779e-01   7.9060871e-02  -6.5925790e-01  -7.6667897e-01   2.1057087e-02   4.5374499e-02  -6.9680122e-01  -9.6208088e-01  -6.3547823e-01   4.4431240e-01   2.1990718e-01   6.4321437e-01  -3.7447716e-02  -8.1578251e-01  -6.9523607e-01   2.0735059e-01  -7.9424272e-01  -4.3746037e-01   4.5119838e-01  -9.5326555e-02   4.6219902e-01  -2.8185363e-01  -4.9512877e-01  -2.5094614e-01  -1.1708757e-01   5.8119268e-01   2.8506397e-01   9.0262134e-01  -7.4813433e-01  -5.1471750e-02   2.4944810e-01  -2.4799480e-01  -6.5341148e-01   1.7986668e-01  -3.5543750e-01  -8.8966947e-01   7.9561262e-01  -9.6723493e-01   8.8111377e-02   2.2052447e-01   8.9939767e-01  -8.7065507e-01   8.6407751e-01  -7.7061402e-02  -4.4790911e-01  -6.6228892e-02   2.5484838e-01  -2.7060106e-01  -2.6637967e-01   3.5110287e-01   4.8327606e-02   8.4074436e-01  -7.7655564e-01  -3.0425331e-01  -6.6511553e-01  -2.9976529e-01   3.2863965e-01  -7.7500857e-01  -9.8721741e-01  -1.4044389e-01  -7.7309456e-01   6.2333417e-01  -9.1188794e-01   1.0390176e-01  -3.5137571e-01   6.9036496e-01   2.2923487e-01   4.6350349e-01   9.1839663e-01   3.2827293e-01  -3.3496802e-01  -6.4327486e-01   9.4396428e-01  -5.4969805e-01  -3.3236160e-01   8.2796143e-01  -1.8635984e-01   7.5404720e-01   2.1330960e-01   5.9921868e-01   9.1002148e-01  -3.5652124e-01  -5.7129230e-01   5.3745974e-01   3.5543466e-02  -3.3031600e-01  -4.4323567e-01  -9.4612116e-01   5.9888913e-01   7.8930337e-01  -8.1175219e-01   8.8092287e-01   8.5804827e-01   9.3037254e-01  -9.2416125e-01   5.2204281e-01   4.5421829e-01   9.0179304e-01  -6.0738742e-03   4.3806978e-01  -5.3240678e-02  -4.9766631e-01  -6.7117473e-01  -5.7455450e-01   6.6378572e-01   9.0477452e-01   1.0724443e-01  -5.3286410e-01   8.2444356e-01  -2.6218484e-01   5.4276263e-01  -3.4734186e-01   7.4349051e-01   5.4321367e-01  -1.4060990e-01   2.5079556e-01  -9.0401849e-01   2.2118541e-01   6.9306395e-02   3.8110579e-03  -5.4700685e-01  -6.6745797e-01  -6.2754053e-01   2.4026680e-01  -8.2911009e-03  -9.6046080e-01   8.5557002e-01   8.3049828e-01  -3.6954699e-01  -4.2018815e-01  -9.2060614e-01   2.6537060e-01  -7.0107775e-01   6.3612751e-01  -2.8633073e-01   7.0768029e-01  -8.8539055e-01  -5.6773580e-01  -8.9369506e-01  -7.6370084e-01   8.2700970e-01   6.0871821e-01   8.5901652e-02  -5.2151752e-02   6.5944108e-01  -6.6193161e-01   1.3248912e-01  -8.8128528e-01  -9.8279392e-01   8.3695236e-01   2.6086260e-01   6.0333804e-01  -8.3156993e-01  -6.9645296e-01  -6.2647282e-01  -2.3140140e-01  -8.4181122e-01   1.5216667e-01   1.4298945e-02   1.0485753e-01   4.8393619e-01  -8.6607881e-01  -3.3913757e-01   3.5859375e-01  -5.0781702e-01  -5.6983655e-01  -3.5279826e-01   9.5489759e-01   5.2811755e-01  -5.5329791e-01   4.8147959e-01  -8.0270808e-01  -5.0128195e-01   6.8674619e-01   2.5487574e-01   5.8672748e-01  -2.5961237e-01   6.7552288e-01   2.2898087e-01   5.5406700e-01   8.9864903e-01  -5.6862084e-01  -5.8207862e-01  -2.0602055e-01  -6.6700871e-01  -6.1720504e-02   3.9912414e-01   3.5051278e-01   4.6627036e-01  -1.3185175e-01   1.0422248e-01   8.6419088e-01   5.6393088e-01  -7.9731140e-01  -8.7883110e-01  -2.7731864e-01   6.1775745e-01  -3.4001259e-01   9.9530979e-01   8.5601104e-01   1.9047175e-01  -6.6036118e-01  -4.3452997e-01  -1.1776147e-01   8.1724607e-01  -6.4813720e-01   1.7921725e-01   6.3004163e-02  -3.6087867e-01   8.9179787e-01   3.6095156e-01  -5.8850211e-02  -3.4793223e-02  -8.7758031e-01   2.7186456e-02  -5.9773029e-01  -1.3860900e-01  -5.0033065e-01  -3.8526762e-01  -3.9837853e-02  -9.3064760e-01   5.2971650e-01  -3.0168535e-01  -5.4195506e-01   7.3417170e-01
   4.2623863e-01  -7.7330189e-01  -6.4776541e-01   3.8056847e-01  -8.6466970e-01   4.8127564e-01  -4.1559093e-01  -2.5083933e-01  -1.4503437e-01  -9.3498081e-01  -4.2766183e-01  -8.5697131e-01   8.9649078e-01   1.6833473e-01  -2.7951746e-01  -3.5589716e-02  -4.4653594e-01  -2.7862448e-01   6.3886930e-01  -2.6331318e-01  -5.5659912e-01  -4.0502368e-02   5.8698251e-01   8.6178700e-01  -9.1725934e-01  -1.5493605e-01   2.2418831e-01  -7.1261259e-01  -9.3310800e-01   9.5443721e-01  -4.7258266e-01  -8.2065776e-03   5.3795800e-01  -2.2571153e-01   1.4668705e-01   7.8044224e-01   3.2738891e-01  -8.5031473e-01  -5.1247255e-01   3.2219966e-02  -3.7647722e-01  -6.4455276e-01  -9.2698644e-01  -4.9851256e-01   1.9106111e-01  -3.6043628e-01   6.3500700e-01   4.5963781e-01   4.1490465e-01   6.3302692e-01   7.4305477e-02  -1.2782049e-01   1.0503928e-01  -2.3483869e-01  -8.2955202e-01  -4.8766396e-01   2.5491831e-01   4.4409761e-01  -3.5561502e-01  -5.6040751e-01   3.4073645e-01  -9.4855347e-01   5.2508579e-01   6.2595723e-01   8.2190070e-01   8.2234725e-01   1.2089170e-01  -6.8503460e-01  -5.1491738e-01   3.5600531e-01  -4.6438867e-01  -5.9099093e-01  -9.8876675e-01  -4.7023361e-01  -5.0637084e-01  -2.4580254e-01   7.5279213e-01  -1.6666844e-01   1.1341941e-01   9.8199656e-01   7.4131085e-01  -4.9465628e-01  -2.9046307e-01   5.5760372e-01  -8.4060006e-01  -1.8698639e-01   6.6394317e-01   3.0445732e-01  -9.2249219e-01   4.2568732e-01   8.8506390e-01   4.1618141e-02   5.6234679e-05  -5.5599053e-01  -8.5935124e-01  -9.1424062e-01   4.3273068e-01   4.2039892e-01   7.9314894e-02  -1.7265895e-01   8.9747805e-01  -3.4138256e-01   3.8223747e-01  -5.6154336e-01  -5.7443964e-02   8.5155048e-01   5.0306754e-01  -6.5930863e-01   9.7031636e-01  -3.3353922e-01  -1.4372111e-02  -9.9745462e-02  -4.4571799e-01   3.7338172e-01   5.0449230e-01   2.4767871e-01  -3.9380009e-01   9.3858768e-01   7.7829441e-01  -5.3998741e-01   6.9999639e-01   2.9087490e-01   1.9424707e-01  -9.8473653e-01   1.6237947e-01   8.8089715e-01   9.9632038e-02  -8.9368941e-01  -8.4647541e-01   8.7791619e-01   8.8031615e-01   9.6995277e-01   1.8711055e-01  -1.0699985e-01  -4.6462927e-01  -3.4530548e-01  -7.6943335e-01   9.4975034e-02   6.0797722e-01  -8.1347299e-01  -1.2151627e-02  -6.4438682e-01   3.2026306e-01  -8.6832462e-01   8.8897191e-01  -6.6351051e-01  -1.2926496e-01   8.3101321e-01  -8.8774394e-01  -8.1203176e-01   5.1192280e-01  -3.1229159e-01   2.0353308e-01   6.8496719e-01   5.4283404e-01  -9.2081962e-03   3.5637519e-01   1.6965237e-02   7.8932711e-01  -9.6613670e-02  -8.6858231e-01   7.0341254e-01  -5.8768051e-01  -4.1062134e-01  -9.5523420e-01  -5.8139461e-02   6.2797892e-01   3.5969136e-01   5.4901594e-01   3.2091809e-01  -8.4330972e-01  -4.4881832e-01   9.9184517e-02   7.0091653e-01   5.0917002e-01   6.3364313e-01  -7.9393103e-01   4.9587486e-01  -8.8880461e-02   4.7717056e-01   1.6931748e-01  -8.5296558e-01   8.3238144e-01  -5.7232038e-01   7.9832528e-01   4.6169917e-01   3.7878473e-01  -8.9132880e-01  -1.0781429e-01  -7.3619044e-01  -9.0583958e-01   1.0307015e-02  -2.2952223e-01  -7.5129677e-01   5.8494020e-01   5.0670850e-01  -6.3246384e-01   7.4096017e-02   2.5056942e-01   8.5906007e-02  -6.7334082e-01   1.3902749e-01   9.8735265e-01   5.2372037e-01  -9.6461251e-01  -2.0782602e-01   7.7780245e-01  -1.6047452e-01   9.8535111e-01  -2.8275016e-02  -1.8839211e-01   3.7307263e-01   6.5069631e-01   8.3854815e-01  -3.0530930e-01   4.1167797e-01   8.3712613e-01   7.2006258e-01  -5.6095920e-01   4.5921155e-01  -5.9739370e-01   9.7572585e-01   5.4664583e-01   6.0114569e-01   8.3857532e-01   7.1183902e-01   7.6411173e-01  -3.4792225e-01  -2.5778470e-01  -5.2976344e-01   8.4237529e-01   4.4032598e-01  -8.8378533e-01  -5.1858395e-01  -8.1145101e-01  -1.5364839e-01   5.6315366e-01  -6.4778627e-01  -3.1731201e-01   2.4312997e-01  -2.6413530e-01   6.8876601e-01   5.7767039e-01  -4.3302157e-01   7.0877313e-01  -5.8963915e-01  -8.7686032e-01   7.3091114e-04   6.4509239e-01   9.1044968e-01  -4.7138082e-02  -6.7822658e-01   7.1277237e-02   2.6454647e-02  -3.2628404e-02   4.1993275e-01  -5.5220947e-01   3.4374460e-01   9.7136296e-01   4.5558866e-02  -5.0317302e-01   6.4722502e-01  -9.8634339e-01  -7.2481614e-01   1.7292512e-01   2.1320662e-01   5.7025441e-01  -2.8309554e-02  -6.6493273e-01   2.1870178e-01  -1.1610195e-01   4.3468278e-02   6.6758496e-01  -1.5748162e-01  -7.1553380e-01  -5.5698346e-02  -3.7756979e-01   4.5570400e-01  -3.4645541e-01   6.2708210e-02   8.2334797e-01   8.5880990e-01  -1.0778851e-01   6.3159639e-01  -8.0512633e-02  -4.4327680e-01   9.5287782e-01   7.6034925e-01   6.8067336e-01  -5.5902226e-01   9.8715945e-01  -1.6777176e-01   9.3442749e-01   2.0566349e-01  -5.7620142e-01  -3.3630293e-01   3.6237817e-02  -2.1725915e-01   5.2538443e-01  -2.7684802e-01  -6.5771172e-01   3.8981278e-01  -3.3055635e-01   2.5838364e-01   3.5658760e-01  -5.9640641e-01   2.0600636e-01  -5.2583482e-01   7.9009912e-01   9.2147081e-01  -3.3903476e-01   7.9393853e-02   6.2849297e-01  -3.7361384e-01   9.0042150e-02  -8.6412734e-01   3.7199837e-01   5.9558035e-01  -1.3434154e-01   4.9722460e-01   5.4256130e-01   4.0538896e-01   8.6474462e-01  -8.1884047e-01   2.2819565e-01   9.6504489e-01  -9.3070568e-01   3.4742879e-01  -5.7011553e-01   3.0126224e-01  -9.7889166e-01   6.9880239e-01  -4.9070999e-01  -8.9430103e-01   5.4859046e-01   2.2268245e-01  -4.4034450e-01   8.0314340e-02  -7.5337639e-01  -1.7181951e-01  -8.1328347e-01  -5.4880180e-03  -5.8421820e-01  -3.5127536e-01  -4.7954358e-01   8.1601020e-01   6.0865573e-01  -1.3414363e-01   1.9747331e-01  -1.3586527e-01   5.2875243e-01  -6.3068785e-02  -4.1345208e-01   3.2480021e-01  -4.1575973e-01   6.3885587e-01   6.2327674e-01   2.0390012e-01  -8.6385394e-01   1.1110893e-01  -9.3950858e-01  -3.6893064e-01   8.5341334e-01  -3.7380506e-01   7.3590756e-01   2.2119413e-01   8.3527088e-01  -9.7518046e-01   9.8447920e-01  -2.6683157e-01  -8.2266055e-01  -3.8765409e-01  -7.2565648e-01  -7.6366796e-01  -1.8285288e-01   9.0655906e-01   2.0016563e-01   1.6092294e-01  -8.1816264e-01   6.2923330e-01  -8.1721067e-01   5.8679663e-01   7.7140602e-01   2.3691238e-01  -5.0332524e-02   1.9349692e-01  -5.0601343e-01   8.0649446e-01   9.4469264e-02   3.1769592e-01   5.6773410e-01  -1.9820007e-01  -1.0030917e-01   3.8790977e-01   5.3975235e-01  -2.2777176e-01   4.2247414e-01   1.7589228e-01   7.9163171e-01   8.7192780e-01   8.3752768e-02   1.4698170e-01  -5.6277543e-01  -8.9033805e-01   5.1069695e-01   3.9904364e-01  -8.4554300e-01  -3.8997251e-01   8.0724662e-03   5.9647347e-01   1.9332857e-01  -9.3531860e-01   9.4992981e-02  -3.4649287e-01  -6.2254043e-01  -6.9899245e-01   4.4240403e-01  -9.7530682e-01  -8.1613087e-01   5.6008165e-01   3.5994572e-01   1.7380329e-02   7.7119348e-01  -8.8331684e-01  -8.8854071e-01   3.4676752e-01   8.9617369e-01   8.4762305e-01   6.1949375e-01  -6.2504232e-01  -3.8227301e-01  -7.3025456e-02  -1.9468329e-01   2.8129575e-04  -6.1827444e-01  -3.7442339e-01   2.9264773e-01  -8.1936074e-01   7.0834235e-01   3.0625677e-01   1.8913924e-01   1.4518169e-01   8.3632819e-01  -4.2487070e-02   5.7753031e-01   9.2539847e-01   2.2297008e-01  -8.5247323e-01  -2.5755470e-01   8.6942965e-01  -6.8740526e-01   1.2703749e-01  -8.3143275e-01   6.8330892e-01  -6.9411775e-01  -2.7359579e-01  -9.9288950e-01  -7.3842186e-01  -9.2741875e-02  -1.1076405e-01  -2.7010614e-01   8.9339542e-01   2.5595537e-01   3.8081342e-02  -1.7561081e-01  -8.4159817e-01   5.9771423e-02   5.0584339e-01   7.6672403e-01   8.0981208e-01   9.3450883e-01  -6.3696580e-01  -5.2224434e-01   5.8219354e-01  -3.5405455e-01  -4.9814206e-01   4.3949676e-01  -2.1747442e-01   9.1857965e-01   6.2356523e-02  -8.5254615e-02  -6.0387218e-01  -5.1803561e-01   7.1137843e-01   9.1697596e-01  -6.8682806e-02   5.9490106e-01  -9.3858889e-01   1.5136804e-01   9.3212972e-02   2.0728433e-01   4.5208478e-01  -1.7322889e-01   7.9526003e-01  -3.1373600e-01   8.3637811e-01  -9.3843569e-01   1.0814990e-02   5.4418370e-01   1.6882743e-02   8.4808456e-01   8.3808212e-01   9.3201651e-01  -4.6896383e-01   8.9969072e-01   2.5572960e-01   5.7988403e-01   3.1834127e-01   6.4310797e-01   5.1295699e-01   6.0906698e-02  -1.2181646e-01  -9.2774563e-01   2.0626346e-01   4.5143618e-01  -8.0042433e-01   7.8859000e-01   4.5862398e-01  -7.3959922e-01   9.4719835e-01   2.5138822e-01   2.4680753e-01  -6.9921337e-01   9.8396947e-01  -7.5437253e-01   5.3673721e-01  -9.2657221e-01   9.0481771e-01  -4.2761241e-01   8.2734952e-01   7.2943776e-01   4.6974548e-01  -8.8212286e-01   6.0542424e-01   3.7053405e-01  -8.4621122e-01  -3.0449785e-02   4.2863010e-01   9.9356684e-02   6.2306624e-01  -9.2290534e-01  -4.1328885e-02  -6.2746378e-01  -4.8431329e-01  -7.1685856e-01  -7.2169021e-01  -2.2684991e-01  -6.5348726e-02  -2.7297613e-02   2.2558735e-02  -9.7831709e-01   8.0609946e-01   1.1497046e-01   6.6562728e-01   4.9802058e-01   4.0556520e-01   6.9081324e-01  -7.9604501e-01   9.4869355e-01  -1.1481714e-01   6.2931944e-01  -6.7609898e-01  -7.0720960e-01   8.5011389e-01   1.3316317e-01  -1.7178467e-02  -1.0368092e-01   3.6631285e-01  -7.8819091e-01   8.7319548e-01  -6.7495508e-01  -8.6283633e-01  -1.9011094e-02  -2.4520789e-03  -1.4324144e-01  -4.9541491e-01   8.5997961e-01   7.9225792e-01  -9.2381543e-01  -7.9087214e-01   6.0582814e-01   1.9331597e-01  -2.3587589e-02  -3.1331718e-01   5.2260528e-01   1.2487300e-01   6.1590362e-01   8.2576182e-01  -3.7780469e-01  -4.9666832e-01  -6.8509124e-01   6.9778338e-01  -1.4316917e-01   7.8802957e-01  -2.8548507e-01   9.4401668e-01  -3.9972765e-01   7.6131510e-01   5.1328943e-01  -2.2562030e-01  -2.4463739e-01  -5.5981704e-01   1.8375800e-01  -1.0520338e-01   1.3222490e-01   9.2126352e-01  -2.7752850e-01   9.0611129e-01   9.4020276e-01   3.8640117e-01   5.5856487e-01  -2.9252727e-01  -7.4031618e-01   1.3264854e-01   2.4920963e-01   2.3902758e-01   2.8334549e-01   5.4924568e-02   4.7557260e-01   7.4355329e-01   2.9515723e-01  -9.8162855e-01   6.8640358e-01   2.2281726e-01  -4.1728907e-01   8.6192526e-01   3.1346522e-01   7.0332658e-01  -2.7814573e-01  -7.7684326e-01  -3.3689443e-01   2.6171831e-01  -7.1219225e-01   5.1030154e-02  -8.9422558e-01  -9.7091333e-01   3.9586479e-01   7.8768968e-01  -1.0264235e-01   2.5249655e-01  -7.1532483e-02   3.4020636e-01  -3.8714662e-01  -3.4258401e-01  -7.8217702e-01  -2.4593557e-01  -3.6858732e-01  -6.0330921e-01   4.3497599e-01  -6.9847512e-01   6.2896845e-01  -3.9724565e-01   9.6830704e-01  -4.5595591e-01  -4.1305621e-03  -1.0354287e-01   2.8531610e-01   2.5610388e-01   2.8222378e-01   3.0985072e-01  -9.7075623e-01   3.2662517e-01  -5.6290361e-01   4.9705352e-01   2.9385210e-01  -3.1004762e-01   2.7687949e-02  -9.1371569e-01  -1.4702577e-01  -3.5981800e-01  -6.7761482e-01  -1.3995134e-01  -5.0424376e-01   5.1457056e-02  -6.5360450e-01  -7.8190533e-01  -8.6051850e-01  -4.3693091e-01  -3.8043945e-01  -4.4141539e-01  -8.9194538e-01  -3.3308838e-01  -2.0210877e-01  -2.1301889e-01   3.3846394e-01   3.1021709e-01   5.8706114e-01   8.4445664e-01  -7.6942131e-01   1.5956880e-01  -3.6865878e-02   5.4861489e-01  -4.6735365e-01  -4.1900400e-01   1.8379800e-01   9.2004642e-01  -6.6807313e-01   6.1664103e-02  -2.1533173e-01   7.7693068e-02  -4.2548777e-02  -9.8010273e-01   6.1376717e-01  -6.0447719e-01  -8.8853126e-01  -3.3835279e-01  -4.4689044e-02   2.6962744e-01  -4.2187190e-01   9.4461180e-01  -5.2392836e-01  -9.0785166e-01   8.4270383e-02   2.0348919e-01  -1.3767871e-01   1.5152140e-01   8.8518984e-01  -7.4498220e-01  -2.5336484e-01  -3.7246754e-01   6.4645877e-01  -7.3707301e-01  -7.6629364e-01   9.0049766e-03   9.0344040e-01  -8.2559156e-01  -5.1181884e-01   1.5339555e-01  -3.8942131e-02   2.8669878e-01  -7.2078248e-01  -9.7403582e-01   7.0030131e-02  -8.5098500e-01   7.6848420e-01   7.7488772e-01  -1.7744403e-01   9.4017958e-01  -3.6692011e-01  -5.0107918e-01   3.3451477e-01   4.5276867e-02  -1.1872069e-01   3.3194046e-01  -4.8998710e-01   6.6484678e-01   8.8897622e-01  -8.7728241e-01  -1.5672353e-02  -9.7365719e-01  -8.1312568e-01  -3.6818049e-01   3.2977651e-01  -7.1791259e-01   4.4634971e-01  -4.8268444e-03   5.1264301e-01  -3.2416424e-01  -6.5801167e-01   5.8830508e-01  -5.6709653e-01   4.1229370e-01  -7.0924872e-01  -5.1161172e-01  -6.8723286e-01  -1.1905368e-02  -1.4305662e-02   1.1052890e-01   7.6531347e-01  -6.1425968e-01   8.9760171e-01   9.9265360e-01  -8.3226129e-01   4.3039566e-01   9.7755665e-01   5.0660581e-01   9.6378130e-01   3.8774908e-01   5.8230306e-01   2.7179363e-01   9.1839495e-01   8.2932215e-01  -5.8118063e-01   2.7914768e-01   6.6813178e-01   9.9006720e-01   9.2700571e-01  -4.3932143e-01  -5.4985061e-01   3.7658919e-01  -2.4462382e-02  -2.1199842e-01   1.3805664e-02  -3.0353521e-01  -7.5803166e-01   3.8130622e-01  -2.8015032e-01  -6.4318300e-01   4.6264559e-01  -6.9108872e-01   5.4069833e-01   2.9164460e-01   5.7928228e-01  -3.0426324e-01  -2.2731958e-01   6.2536191e-01  -3.9986971e-01  -6.7518387e-01  -2.3070531e-01  -8.9437038e-01   1.8746513e-01  -2.2293768e-01   5.0246588e-01  -6.7959347e-01  -6.1159116e-01  -1.9241343e-01   9.5828336e-01   7.7509955e-02  -9.5423521e-01  -8.9566657e-01   7.8605460e-01   1.0024171e-03  -1.0953060e-01  -5.6700708e-01  -5.9745140e-01   3.1171735e-02   5.5580941e-01   3.6542395e-02  -2.1730142e-01  -5.1875367e-01  -5.7303814e-01  -6.6084447e-01  -9.5327807e-01  -2.6899051e-01  -1.5508388e-01   1.8238663e-01   1.9393718e-01  -4.1131518e-01   8.1595660e-01  -3.4084744e-01  -1.3102843e-01   4.6928034e-02   8.1555727e-01   2.3513754e-01   7.6321183e-01   5.9293409e-01  -2.4305439e-01   9.0809038e-01   3.6504897e-01  -2.3792020e-01   6.1012715e-01  -3.7534599e-01   4.5448234e-01  -7.2875796e-01  -5.1711217e-02  -3.8369700e-01   5.0286521e-01   2.5090416e-01  -7.0111404e-01  -4.5774977e-01  -3.2055703e-01   1.0972161e-02   2.3271343e-01   3.7074664e-01   9.1169681e-01   7.4487551e-01   3.3833676e-01  -8.3465679e-01   4.1401217e-01  -5.1601715e-01   1.7981261e-01   8.6901415e-01   7.5704390e-01  -6.9067811e-02   4.6168328e-02  -4.6987587e-01  -3.1408501e-02  -4.8211923e-01  -8.2245288e-01   9.4182528e-02  -8.2757640e-01   1.8927357e-01   1.0021211e-01  -1.5616772e-01  -1.6434404e-01   1.7334473e-01   6.6658813e-01   1.4578640e-01  -9.7279385e-01   1.1935979e-01   1.6392124e-01   5.5526258e-01   2.3379835e-01  -3.2541386e-01   5.1565877e-01   2.0746073e-01  -5.3017493e-01   6.8789438e-01   6.9537712e-01   9.9464884e-01   4.5398975e-02   1.0844693e-01   3.4687421e-01  -7.5936284e-01  -4.2910501e-01  -5.1376949e-01   2.1354005e-01   9.4721038e-01   4.9552356e-01  -7.7474909e-01   4.5042888e-01   1.9778963e-01  -9.2896025e-01   3.0757344e-01   3.1571370e-01   4.4718300e-01  -8.9210020e-01   5.2632883e-01  -5.2978064e-01   3.3913570e-01   7.5484427e-01  -3.1657484e-01   2.1657089e-01   4.1191606e-02  -1.5083393e-01   5.8588641e-01  -4.1203155e-01  -6.8902057e-01  -8.2561499e-01  -3.6082616e-01   5.4506646e-01  -9.3973938e-01   5.8704294e-02  -1.2091854e-01  -6.0096268e-01  -2.1038280e-01   4.1048165e-01   7.3384812e-01   4.5296789e-01   8.4656358e-01   7.1660225e-01  -8.5684906e-01  -2.0904172e-01  -8.4002384e-01  -5.5396786e-01   3.9793996e-02   5.8964888e-02   3.0885334e-01   1.9214377e-01   6.7778309e-01   4.5728546e-01  -9.5134916e-01   5.5085903e-02  -2.1156982e-01  -2.5074230e-01   5.3792511e-01  -5.1158873e-02  -8.5913960e-01   5.4955819e-01  -5.7149580e-01  -9.6977385e-01   1.0083377e-01  -8.6889286e-01  -3.5964105e-01   7.3548116e-01  -7.2769517e-01  -2.5068043e-01  -4.8901017e-01   4.3248696e-01  -2.6108008e-01   9.2696687e-01  -1.9590403e-01   7.2791251e-01   3.0984612e-01   2.1600409e-02   1.6891057e-01  -8.8366378e-01  -4.2118345e-01  -9.4307366e-01   7.2076607e-01  -7.9851807e-01  -5.5472352e-01   4.6534332e-01   7.7499780e-01   9.4038774e-01   1.0670301e-01  -5.7052473e-01  -8.3168567e-01   6.4810400e-01  -7.0554181e-01   2.6698143e-01   8.1396013e-01   2.0385757e-01   9.8437646e-01   4.4568524e-01   9.3158623e-01   5.0646303e-01   6.1283956e-01   4.2114980e-01   4.4459512e-01
   7.4527680e-01   4.1207447e-01  -3.7584595e-01   5.9279876e-02  -8.9562839e-01  -4.4641188e-01  -5.8805909e-01   8.5881465e-01   6.8382047e-01  -3.0856408e-01  -9.2962623e-01   2.3268188e-01   9.0454715e-01  -4.9682404e-01   8.4126392e-01  -8.1106545e-02  -8.7024048e-01  -8.4742265e-01   2.9173175e-01  -7.1102414e-01  -2.6989537e-01   2.2835859e-01   3.0089695e-01   6.4589330e-01  -4.1846377e-03  -5.3052341e-01   2.1916294e-01  -3.1112834e-01  -9.8340960e-01   4.5330143e-01  -2.5776580e-01   6.9722182e-01   7.8324949e-01  -5.2275988e-01   3.3737965e-01  -1.4673885e-01   9.9421866e-01  -1.7604095e-02  -8.1963288e-01  -6.6243697e-01  -3.6978527e-01   3.5437288e-01  -6.1128820e-01   8.6786452e-01  -1.4188300e-01  -9.6699955e-02  -4.9965461e-01  -3.3694915e-02  -7.8887802e-02   3.7881347e-01  -5.4519167e-01  -5.2038413e-01   2.2737030e-01  -8.5008000e-02  -2.0819029e-01  -4.9261880e-01   1.5797336e-01  -6.9433720e-01   3.2947944e-01  -2.0383445e-01  -8.4106943e-01   8.4464696e-02   2.0980519e-01  -2.9758101e-01  -6.1763226e-01   7.1731384e-01   1.1295149e-01  -7.7386762e-01   9.5699310e-01   2.5244181e-01   7.9096550e-01   7.9530397e-01  -8.8845612e-01  -5.5771190e-01   7.6646815e-01  -9.8227206e-01  -7.5589906e-01  -9.9481868e-01   3.5372679e-01  -9.6284525e-02   2.1359398e-01  -7.0401749e-01   7.2917259e-01   7.0100702e-01   8.5819063e-01   9.2400896e-01  -7.2350366e-01  -1.2486049e-01  -3.0836347e-01   8.9963800e-01   7.4065886e-01   1.5352116e-01  -7.2916234e-01   6.6361111e-01  -1.8555803e-01   6.3389203e-01   4.2875685e-01   9.5992281e-01  -9.5890150e-01   1.2190148e-01  -5.0013505e-02   8.6903609e-01  -9.9375505e-02   7.9403036e-01  -6.5954910e-01  -1.7905770e-01  -5.3006052e-01  -3.0935620e-01  -9.9718835e-01  -6.7612443e-01  -1.3939050e-01  -9.7118438e-01  -7.7086731e-01   9.1597168e-01   4.2585371e-01   8.0928230e-01   3.5719484e-01   2.1417251e-01   9.5036082e-01  -4.5262013e-01   9.4899957e-01   4.5632492e-01   5.8596266e-01   9.0830592e-01  -6.0189876e-02   3.5283099e-01   2.8395415e-01  -5.2744191e-02  -4.3903995e-01   2.2716558e-01   9.3851749e-01   3.1033544e-01   5.3902995e-01   1.7750755e-03  -7.9399849e-01  -3.8643079e-01  -4.5031715e-01   7.3134615e-02  -6.4257746e-01   6.9975987e-01   6.7625475e-01  -9.4560836e-01  -4.2796324e-01  -6.8997870e-01   4.3249805e-01  -9.3754424e-01  -2.8630742e-01   3.8169708e-01   8.9479933e-01  -2.1027163e-01   3.8092066e-01   3.3484426e-01   1.7200623e-01  -3.3813240e-01   5.6692992e-01  -6.4372913e-01  -3.4161058e-01  -6.3445064e-01   8.4052623e-01  -5.0887861e-01  -7.6830136e-01   9.0093745e-01   8.1322669e-01   9.5547302e-01  -9.1680883e-01   9.3886709e-01   7.1803529e-01   7.2362756e-01  -7.7775752e-01   2.8745057e-01  -1.8016799e-02   4.7277167e-02   3.8059158e-01  -6.3363876e-01  -4.5627849e-01   7.4483782e-01   5.8646194e-01   9.1683246e-02   8.5779253e-01  -1.8830890e-01  -6.2632481e-01  -9.4595353e-01   1.2715025e-02  -7.9393456e-02   5.2359772e-01  -8.1107660e-01  -3.9736113e-01  -1.7767716e-01   2.6995762e-01   3.2072881e-02  -8.2555404e-01   7.1158308e-01   1.2706781e-01  -1.9168380e-01   8.1616054e-01   4.7110968e-02   6.0777833e-01  -6.0698929e-01  -3.1985148e-01  -3.6041940e-01   7.4187053e-02   5.8489599e-01  -2.0958570e-01  -4.9988816e-01  -9.5425802e-01   2.5939926e-01  -8.7051237e-01   4.0405772e-01  -2.4309820e-01   3.4346488e-02   9.3523527e-01   4.0772192e-01  -8.0306796e-01   9.4391396e-01   3.4545094e-01  -7.3474621e-01  -8.7481683e-01   8.4270818e-01   5.4167634e-01   8.7223879e-01   7.1048685e-01  -7.2968816e-01   2.0481324e-01  -9.8041454e-01  -1.5291877e-01   8.9449826e-01  -9.6352861e-01  -4.2547284e-01   1.7331190e-02   1.6971086e-02   4.9968967e-01  -1.9542150e-01   3.0543192e-01  -2.1024269e-01  -1.3187411e-02   6.6306328e-01   6.5215629e-01  -2.4620977e-01   8.0482144e-01   7.1450882e-01   8.1396099e-01   3.5125827e-01   3.3473860e-01   2.9151192e-01  -1.8363467e-01   4.0579545e-01  -4.5282510e-01  -6.5919889e-01   5.2535339e-01   7.3237474e-01  -6.4256036e-01   4.3795568e-01   7.9849711e-01   6.3886196e-01   8.2771844e-01  -7.3267147e-01  -9.4544559e-01  -8.6499900e-01   2.5681171e-01   9.8170213e-01   6.0943932e-01   7.1535062e-01  -7.1888821e-01   9.7793398e-01  -5.9155577e-01  -4.2564250e-02   2.4942398e-01   8.2388898e-01  -9.9965902e-02  -1.2730459e-01  -5.7278513e-01   4.2247352e-01   7.5076267e-01  -7.5967185e-01  -6.6048828e-02  -5.2715721e-01  -8.6213932e-01  -1.8464530e-01  -7.6993636e-01   5.7852866e-01   6.9020215e-01  -4.8165238e-01  -1.8086476e-01   1.3082559e-01  -2.9897646e-01   9.0068048e-01   3.4505735e-01  -1.4372677e-01   6.9512446e-01  -9.3443362e-01  -6.2932917e-01  -9.8251652e-01  -7.4142066e-01  -5.0626507e-01   2.7653294e-01   7.8376172e-01  -9.5832084e-01  -5.7631147e-01  -7.9330206e-02  -3.4911212e-01   4.9939167e-01   8.0504605e-01  -4.9909442e-02  -5.0952509e-02   4.1128679e-01  -4.8733139e-01  -6.6734537e-01  -1.1018496e-01  -4.3842694e-01  -6.3448395e-01  -8.2864221e-01   8.1299108e-02   2.8045171e-01   7.6131795e-01  -2.8462629e-02  -9.2706728e-01   1.0617771e-02  -3.5556173e-01  -2.0436910e-01  -6.4677217e-01  -3.8843926e-01   5.0146452e-01   4.8528358e-02   3.4931025e-01  -9.0607447e-01   5.7615011e-01  -8.1351660e-01  -5.3347686e-02  -6.7451962e-01   8.4487375e-01   4.8489196e-02   2.3418438e-01  -5.2436808e-01   5.2396610e-01   5.7204022e-01   5.3003030e-01  -6.3459420e-02  -4.8041773e-01   5.0358365e-01   5.3908815e-01   1.0120076e-01   3.9872479e-01   4.3179474e-01   2.3868094e-01  -9.9384873e-01  -4.7976084e-01   2.4158055e-01  -8.4525889e-01   3.7104941e-01  -5.6025030e-01   5.5557599e-01   2.8610457e-01   9.1155577e-02   5.2440632e-01   8.8255553e-01   3.4972889e-01   7.9862966e-01  -4.0293499e-01  -2.5401141e-01   3.3137466e-01   7.1093337e-02   3.3970117e-01  -4.9096557e-01   4.0470834e-01  -7.0110202e-01   4.4492303e-01  -9.4599746e-01   6.6882967e-02  -4.5074497e-01   1.1437055e-01  -3.1245625e-01   9.9263821e-02   6.8192018e-01   4.0318623e-01   9.0333042e-01  -8.7017635e-01  -6.6072602e-02   1.5958878e-01   8.8674116e-01   4.6340966e-01   6.6726377e-01   3.5851916e-01   7.1416304e-01   9.4471361e-01  -7.0955250e-01   9.0926196e-01  -3.6490152e-02   1.2505277e-01   4.6903022e-01   9.6256927e-01  -8.3060209e-01   5.3771556e-01  -5.9286161e-01   2.8981864e-01  -2.3149014e-01  -2.9379148e-01   6.4393977e-01   3.1493770e-01  -5.3457667e-01   7.9196033e-01  -9.1155955e-01  -7.2487467e-01   5.5471091e-01   2.8016405e-02   6.0801173e-01  -8.3508891e-01   4.8861174e-01   8.3019887e-01   7.0413469e-01   2.6100047e-02   2.5845597e-01  -2.0695923e-01   7.1743204e-01  -1.3712748e-01   9.9876796e-01   7.1262290e-01   4.1483887e-01  -9.1341334e-02   9.6420376e-01  -4.1958156e-01   1.4481942e-01   6.1739559e-01   1.2308683e-01   5.2450587e-01  -2.9313674e-01   7.6321117e-01  -9.3506140e-01  -9.8988746e-01   1.6902121e-01   8.7894861e-01   8.4839501e-01  -8.0691633e-01   8.2159143e-01  -1.7699142e-01   7.5319409e-01  -1.8852613e-01   6.5543591e-02  -8.5839023e-01   1.2235672e-01  -2.0444103e-01   6.5993608e-01   5.2969702e-01  -4.8438501e-01  -8.9086923e-01  -8.6254024e-01  -5.4722720e-01  -2.2859139e-01  -2.3465861e-01   2.1966337e-01  -9.4250579e-01   7.3883338e-01  -6.8287022e-01   5.1319177e-01   7.0598588e-02   3.5460158e-01  -1.6730482e-01   3.0095432e-01   6.0571851e-01   8.8144623e-01   1.5678213e-01  -4.7336103e-02   6.8321327e-01   6.4242950e-01   6.5410197e-01   2.6710353e-01   6.8016068e-01   6.4564355e-01   4.0074465e-01  -7.3951829e-01  -4.9843513e-01  -8.0752081e-01   4.4987848e-01   6.9121815e-01   8.9480613e-01  -7.3975897e-01  -4.4600640e-01   4.0643679e-01  -3.6434772e-01  -6.1084499e-01   7.5993441e-01  -3.8817889e-01  -3.2472143e-01   1.4550768e-01   3.5090102e-01   6.7847873e-01   6.4959613e-01  -6.9170276e-03   4.9896254e-01  -5.2559048e-01   1.2114846e-01  -6.1003302e-01  -4.1199839e-01  -5.8293805e-01   9.6190476e-01  -3.6593394e-02   2.7660294e-01  -8.6600028e-02   9.0599784e-01  -2.3591383e-01  -5.2830158e-02  -4.1824229e-01   5.3446580e-03  -2.7759700e-01  -4.1450177e-01   5.9269813e-01   1.2665463e-02  -1.0241836e-01  -1.4543170e-02   5.0319904e-01   9.7768492e-01   2.3053214e-01   2.3555219e-01  -6.0633296e-01  -7.9040223e-01   1.0950266e-01   1.2432802e-01  -9.7403412e-01  -2.1756691e-01  -2.2770093e-01   8.4583846e-01  -1.1632106e-01   3.0904072e-01   2.9443967e-02  -6.7099473e-01  -5.2618309e-01   9.1948394e-01   4.3728904e-02   3.9655192e-01  -6.2910119e-01  -5.1544531e-01   3.8523345e-01   8.9004985e-01   6.7217057e-01   2.6671797e-01   5.2402711e-01   7.6108894e-01   6.3646221e-01   4.9577787e-01  -6.2265749e-01   2.1375522e-01  -6.6005553e-01  -5.7634086e-02  -8.8697155e-01  -7.3031346e-01   4.5914386e-01   3.4460856e-01   7.1731013e-01  -5.3135611e-01  -8.3160819e-01   9.7025312e-01  -3.1498504e-01  -1.7907979e-01   6.1665719e-01  -5.3788101e-01   3.1048237e-01   1.5842763e-01  -8.5385679e-01  -3.7225589e-01   3.9462628e-01  -5.6786147e-01   1.4904925e-02   6.0985802e-03  -2.2489462e-01   4.9558269e-01  -5.5548404e-01  -8.9865307e-01   9.4103017e-01  -5.1636309e-01  -3.1236578e-01  -3.6009102e-01  -3.2191092e-01  -5.4948254e-01  -2.0992181e-01  -8.9364440e-01  -4.4180392e-01   2.8695135e-01  -1.3667278e-01  -5.0587420e-01   1.5938226e-01   7.5919653e-01   5.4774649e-01   6.8876185e-01   2.1832889e-01  -8.1741725e-01   8.2679393e-01   2.4425779e-01  -8.6705150e-02   4.0541604e-01  -6.1778644e-01   6.0006909e-01   9.0455850e-01  -5.7085429e-01  -3.6734559e-01   2.3465628e-01   4.5905105e-01   7.2912381e-01  -2.5365878e-01   7.9423647e-01   7.4631306e-01  -2.1764949e-01  -4.1684555e-01  -3.3529214e-01   8.3140212e-01   2.3335661e-01   4.5647155e-01   9.1161881e-01  -6.8834066e-01   8.4284871e-01   4.2537026e-01  -5.6420355e-01  -6.8120950e-01  -1.4886928e-01   7.0076065e-01  -8.7475306e-01   8.0867518e-01  -6.5456260e-01  -5.5867391e-01  -7.2409625e-01  -3.2084295e-01  -3.7594725e-02  -4.6643214e-01  -4.4532356e-01   4.4959090e-01  -6.3275849e-01  -8.7092585e-01  -6.7640967e-01   2.2740040e-01   2.6489746e-01   1.3859659e-01   8.6568342e-01   9.8267336e-01  -8.6443014e-01  -3.1362333e-01  -5.5838813e-01  -5.0777646e-01   4.5255391e-01  -2.7674265e-01  -7.5633161e-01   3.5567688e-01   5.6566894e-01  -3.8775985e-01   2.0639173e-01  -4.1584388e-01  -2.5956590e-01   1.5709351e-01  -6.7040063e-01   6.4026456e-01   7.1246281e-01   8.2312032e-01   4.7338443e-01  -1.1447807e-01  -6.2833935e-01  -3.6697820e-01  -8.9252222e-02   6.5369998e-01  -2.6111057e-01  -2.4609068e-01   6.8777632e-01  -7.1403212e-01  -4.5907935e-01   1.3868580e-01   1.6380013e-01  -3.7742221e-01  -5.8364427e-01  -1.9645306e-01  -2.7155132e-01   4.6786952e-01   9.9912466e-01   7.3283792e-01   2.3057456e-01   8.3430008e-01   3.5875809e-01   1.6097473e-01  -2.3165821e-01  -6.9530888e-01  -5.1959727e-02   1.2943474e-02  -7.7607881e-01   4.4029533e-01   9.9989091e-01   2.0212867e-01   3.4745867e-01  -9.7612131e-01  -5.8986745e-01   3.6524685e-01   6.1522285e-02   1.3278837e-01  -9.8718248e-01   8.0813404e-01  -9.8265202e-01   5.1048636e-01   1.2395602e-01   5.8959621e-01   5.4895135e-01   4.1815436e-01  -1.4349501e-01  -9.4441542e-01   2.8291874e-01   5.2869302e-01  -4.3484621e-01  -1.2613908e-01  -2.9352046e-01   1.9592134e-01   2.4382084e-01  -4.2519709e-01   9.4001721e-01  -2.8486514e-02   2.0922262e-01  -3.7347777e-02   8.9987907e-01   5.6363402e-01  -9.2788196e-01   1.3473817e-01   9.6960619e-01  -4.8615502e-03  -5.8133877e-01  -2.5278564e-01  -2.7866228e-01  -3.2726907e-01   3.8593487e-01  -6.6699694e-01  -7.0841154e-02  -1.1591089e-01  -9.8506272e-01  -7.1254219e-01  -5.5404255e-01   2.1784899e-01  -5.7706820e-01   2.6350328e-01   1.9530399e-01  -5.3338381e-01   3.0925101e-01   4.2817427e-02   9.0763545e-01   7.0962858e-01  -8.3318801e-01   8.2539141e-01   1.0150799e-01  -9.9113897e-01   2.0447234e-01  -6.4172226e-01   2.9585712e-03   4.7296231e-01   9.2774299e-01   8.2492338e-01   1.1727269e-02   7.1445674e-02   4.9367572e-01  -6.5411976e-01  -2.7477393e-01   6.4952282e-01  -6.6863470e-01   5.7906093e-01  -5.0207998e-01   8.2093481e-01   9.2383547e-01   4.5931054e-01  -5.4592849e-01  -3.7685064e-01   1.0975544e-01   7.9581584e-01   5.4502129e-01  -6.5984765e-02  -4.7029853e-01  -1.7856693e-01   1.5744635e-01   4.2783465e-01   1.3662317e-01   7.7210477e-01   4.0049447e-01   8.0656124e-01  -8.1449222e-01   1.7633157e-02   4.0873792e-01  -3.3367851e-01   8.2057666e-01  -5.8284505e-01  -3.3680325e-02   5.6542867e-01   2.5701995e-01  -3.9610503e-01   5.2809611e-01  -3.6867272e-01   5.7329845e-01  -8.5930815e-01  -5.1739997e-01   2.9480544e-01   9.3578697e-01   8.6577308e-01  -5.4220703e-01   1.8216756e-01   5.2804456e-01  -3.4966684e-01   6.5313168e-01  -8.3227544e-02  -6.0395916e-01   6.8304078e-01   2.8466748e-01   6.3271723e-01  -2.6575162e-01   5.1338386e-01  -2.2005889e-01  -3.4729089e-01   1.6102082e-01  -7.4444636e-01   6.9874441e-01   1.2607610e-01   4.1838797e-01   3.1822347e-02   5.6837336e-01  -5.0116808e-01  -6.1918452e-01   3.8629012e-01   5.6181736e-01   5.4772795e-01   8.9930153e-01  -6.7552330e-01  -5.7606847e-01  -1.8244178e-01  -8.8678732e-01  -8.8761079e-01   6.5064705e-02  -6.1739504e-01   1.9847785e-02   9.7116857e-02  -1.2067175e-01  -7.5547674e-01  -8.6166068e-01  -7.0142205e-01   5.5909043e-01   1.7776457e-01  -7.5475586e-01  -9.0605585e-01  -5.1301505e-01  -4.0152842e-01   6.8663989e-01  -5.5178761e-01   3.8182646e-01  -7.4186185e-02   4.7672154e-01   6.1215941e-01   6.8028026e-01   4.8849728e-01  -5.2248802e-01  -5.8192347e-01  -4.6606303e-01   1.7649043e-02  -2.6187234e-01   8.0723784e-02  -8.1969410e-01  -2.8274783e-01  -1.4817961e-02   3.0487827e-01  -8.2652932e-01  -1.9301177e-01   3.4639355e-01  -8.6276720e-01   7.0412335e-01   3.1951034e-01   8.5487998e-01   3.0605918e-01  -1.1065902e-01   6.5528372e-01   5.0571263e-01  -3.6753514e-01   2.0513967e-01  -8.2347410e-01  -5.8898035e-01  -3.3449469e-01  -1.4758477e-01  -3.4385547e-02  -4.6801472e-01  -6.2869806e-03  -9.6781391e-01  -1.4016290e-01   6.2720210e-01  -9.1588511e-01   5.7799433e-01  -2.5122269e-01   6.4962260e-01   3.4052791e-02   8.2483172e-01  -2.8067287e-01  -9.4685136e-01   1.8079344e-01   2.4045534e-01  -2.6140457e-01  -1.9835680e-01  -9.3771665e-01  -2.6505275e-01   9.3902701e-01  -7.7920127e-01   7.3774390e-01   6.8552497e-01   6.9491196e-01  -9.7690045e-01   4.0066257e-01  -8.8966963e-01   6.4802479e-01   7.9433380e-01  -8.4306549e-01   2.4815128e-01  -6.6050545e-01   9.1243422e-01   6.1815621e-02   9.7282757e-01   8.4168270e-01  -7.0063189e-01  -8.8483945e-01   8.1848601e-01   6.1994952e-01  -8.4357382e-01   3.6479707e-01   8.8040908e-01   8.0605144e-01   3.8221618e-01  -5.3521577e-01  -1.5856559e-01   6.5043994e-01  -5.3219732e-01  -3.9508214e-02   9.9633563e-01   3.9159280e-01   2.0859436e-01   3.6655204e-01   7.7331369e-01  -8.3275059e-01   5.9838879e-01  -2.2810431e-01   8.7451517e-02   9.8524823e-02  -1.1556338e-01  -8.3075580e-02   5.0208645e-01  -4.4648897e-01  -7.9605198e-01  -2.0392843e-01  -2.6925899e-01  -7.0301490e-01   9.3635597e-01   2.8266335e-01  -5.3950454e-01  -2.7498872e-01  -9.6550476e-02   8.1549335e-01  -4.1154562e-01  -6.3262682e-01   3.3525610e-01  -4.5213878e-01   3.1715393e-01  -6.2357367e-01   2.5998007e-01  -3.7725604e-01  -9.2475440e-01  -1.1161019e-01   8.8619167e-01   4.5743770e-01  -3.3841236e-01   6.0084499e-01  -3.3233701e-01  -3.0386517e-01   5.7919909e-01  -5.3962277e-01   6.5215785e-01   1.3358995e-01  -8.8849210e-01  -9.4940969e-01   9.3839036e-01   4.3334756e-01  -2.8091694e-01  -5.7660302e-01  -8.1236864e-01   4.3840091e-01   7.2950032e-01  -8.1997623e-01  -7.5351130e-01   5.4733542e-02   9.1572599e-01   6.8660717e-01   7.8515330e-01   6.9467967e-01  -2.3484801e-01   7.7100391e-01   9.1128498e-01  -1.2927561e-01   5.0413850e-01  -9.8024380e-01  -3.0813830e-01  -7.0533244e-01   6.6911138e-01   1.2446971e-01   3.6366675e-02   3.0621738e-01   4.4457408e-01   3.9483526e-01   7.8781294e-01   3.7242551e-02  -2.4559886e-01  -9.5148469e-02   1.0147923e-01
  -5.7763853e-01  -5.8927030e-01  -1.9442002e-01  -2.8401354e-01   7.4692129e-01  -9.3724225e-01   8.2903585e-01  -7.7377288e-01  -1.1048130e-01  -7.3209716e-01   7.9018955e-01  -7.4086275e-01   2.5882326e-02   6.9976751e-01  -4.3332305e-02  -7.9226696e-01  -3.1108398e-02   2.2335111e-01  -7.1991043e-01  -1.1766058e-01   3.1798536e-01  -6.6839583e-01   2.8745557e-01   8.4982828e-01   5.1458631e-01   4.2382953e-02  -3.8865989e-01  -2.9353983e-01   1.4613325e-01   3.5682447e-01  -4.0331890e-01   2.9803652e-01   3.3345834e-02   2.0264989e-01  -3.4851139e-03   3.3996453e-02   4.8824511e-01  -8.4506857e-01   8.5297114e-02   9.7265700e-01  -5.0002275e-01  -3.8304623e-02   6.9897760e-01   5.5916740e-01   3.2070086e-01   3.0202995e-01  -4.7857203e-01   5.9919906e-01  -8.2250445e-01   3.8725046e-01   8.4562089e-02  -9.6577601e-02  -5.2441807e-01   3.5898623e-02  -3.8900565e-01  -9.4820685e-01   4.7989657e-01   7.5523442e-01  -3.6362958e-01   2.8781947e-01   1.2460722e-01  -2.1363164e-01  -4.8406888e-01   3.8348875e-02  -1.5913178e-01  -3.2750420e-01   3.9011073e-01  -6.5104979e-01  -5.5853146e-01  -7.9692836e-01   8.1290639e-01   4.1981854e-01   8.6215814e-01   1.5123866e-01  -4.1248580e-01   6.3732370e-01  -1.4503412e-02  -2.8619700e-01   7.8856658e-01   3.1509132e-01   2.7890832e-01   3.5269529e-01   1.4636168e-01   6.1073932e-01   1.4731859e-01  -8.2347747e-01   8.5306172e-01  -3.2809375e-01  -8.1894440e-01  -7.7901471e-01   7.1439536e-01  -7.0157177e-01   9.7162326e-01  -7.9443127e-01   4.0846983e-01   9.1746585e-01  -6.6777413e-01  -8.2659581e-01  -2.8878208e-01   1.3327512e-02   8.6586962e-02   8.3166995e-01   1.7432909e-02   5.0747912e-01   2.8507776e-01  -5.5126007e-01  -5.2615215e-01  -5.5780890e-02  -5.4359261e-01   2.6066901e-01   3.2971723e-01   3.2788243e-01   7.1247662e-01   5.0264547e-01   6.9858891e-01   4.6023246e-02  -9.8003703e-02   7.1892652e-01  -5.5111344e-01  -6.3913616e-01  -9.6721828e-01   3.5075715e-01  -8.5944369e-01  -1.1229224e-01  -9.1507172e-01  -6.6154795e-01   8.8347510e-01  -4.8781574e-01   6.8463193e-01   6.7298556e-01   2.9804840e-01   3.9326418e-01  -4.2531994e-01   3.8809430e-01  -6.8949522e-01  -2.1110076e-01   9.4549348e-01  -7.4769667e-01   7.2796255e-01   6.2418175e-01  -1.3628236e-01   7.4178480e-01   5.8154538e-01   3.2425170e-01   6.4332881e-01  -8.6293590e-01   7.4931608e-02   9.8633636e-01   8.0634750e-01  -5.2175769e-02   4.5210857e-01  -3.9183063e-02   8.8597764e-01   9.3228528e-01  -2.6874320e-01   2.8249314e-01  -1.1097804e-01   5.9761638e-01  -6.5209251e-01   2.2464964e-01   1.7469031e-01   2.7248080e-01  -3.4821435e-01   2.2490300e-01   2.6922689e-01  -5.3169003e-01   2.6241437e-01  -1.6566470e-01  -5.6666683e-01  -5.8717700e-01  -8.0078742e-01   9.3746998e-01  -3.7778379e-01   4.0034892e-01   8.7627646e-01   1.2029897e-01  -9.7042114e-01   7.5387367e-01  -1.6206568e-01   4.3390724e-01   3.6046975e-01  -9.7605771e-01  -5.6685206e-01  -4.6159396e-01   8.0842355e-01   8.6254296e-01   1.9520523e-01   6.5552528e-02   6.1078778e-01  -4.9235619e-01  -2.9694865e-01   2.6199584e-01  -4.6258502e-01  -6.9735573e-01   9.6128324e-01   2.4399878e-01  -7.7015257e-01  -4.0750466e-01   9.6059494e-01  -2.2650991e-01  -9.6074950e-01  -1.1167311e-02   8.0599585e-01  -7.8545836e-01   5.4046929e-01  -7.9530553e-01   8.6868931e-01   9.1276342e-01   4.8977183e-01  -9.7857654e-01   1.2446082e-01  -6.0412043e-01  -8.4129334e-01   6.1300432e-01  -1.6296931e-01  -7.3614458e-01  -2.3957393e-01   6.6165208e-01   5.6628237e-01  -3.5312564e-01   2.4468405e-02  -2.5218480e-01  -9.3200287e-01  -7.4010281e-01  -5.3420470e-01   5.6924370e-01  -3.0161586e-01   4.9037015e-01   4.4639940e-02  -6.1385620e-01  -8.4013248e-01   2.0340740e-01  -5.9834743e-01   3.9857338e-01  -7.3808976e-01  -8.0274388e-01  -3.9387145e-01  -9.3588565e-01   2.0062757e-01   8.6280692e-01  -1.3673979e-01  -9.1386690e-01  -1.5645958e-01   4.5992652e-01  -2.7556489e-01   9.8223554e-01  -5.2885951e-02   7.8061827e-01  -8.7315297e-01  -8.2445681e-01   6.7503784e-01   7.0197578e-01   3.5780162e-01  -7.3769925e-02  -4.0089116e-01   7.7819482e-01   2.8252533e-02  -2.0967728e-02  -7.8935109e-01   3.6194162e-01  -7.6039778e-01   1.6705398e-01   1.1861098e-01  -2.3024912e-01  -6.1286904e-01  -3.5606191e-01  -6.2879433e-02   6.8329412e-01  -7.1038693e-01   2.9679929e-01  -3.3873387e-01   2.2474650e-01   2.8676615e-01   5.0367475e-02   7.0197256e-01  -1.8858686e-01   4.3419154e-01  -6.0476604e-01  -4.4863055e-01  -1.3199603e-01  -7.5496387e-02   3.7928589e-01   9.0180429e-01   7.0773230e-01  -1.9631107e-01  -8.1247486e-01   8.9933611e-01   3.9448454e-01   8.2392737e-01   8.6378246e-01  -5.9739577e-01  -3.8425463e-01   2.8789818e-01  -5.4877277e-01   6.1290240e-02  -9.9296150e-01  -3.3243723e-01  -5.6969419e-01   2.2071234e-01  -9.6584739e-01  -3.7065481e-01  -4.7034672e-01   5.8501020e-01   1.0920572e-01   7.8131528e-01  -9.6596266e-01   5.0256504e-01   6.4235157e-02  -5.4574188e-01   5.4468895e-01   3.6127020e-01  -3.8714989e-01   2.4374520e-02  -8.9494840e-01  -3.3514858e-01  -8.6199865e-03  -8.0155151e-02  -9.4124461e-01   4.9711289e-01  -7.3254650e-01   6.9608680e-01   3.7478313e-01  -6.1045251e-01  -5.6755671e-01   2.8031717e-01   6.2368618e-01  -9.4518122e-01   1.1551352e-01  -5.5564312e-01   1.5434994e-02   9.1827519e-01  -2.3105396e-01   9.0565572e-01   1.9018763e-01  -9.8117016e-01  -3.4355491e-02  -9.4036955e-01   7.2827513e-01   3.8323525e-01   3.4187405e-02  -8.7348155e-01  -4.5899822e-01  -2.4851217e-01  -1.0917890e-01   8.3235574e-01  -8.2604161e-01  -8.9133341e-01   4.0099952e-02  -1.7910150e-01  -5.8087210e-01   5.3742940e-01   6.9890133e-01  -8.4318796e-01   5.6139632e-01  -5.4640957e-01  -7.8205293e-01   6.0230776e-01  -4.4808205e-01   6.6115848e-01  -9.6731880e-01   6.4693478e-01   2.1918394e-01  -7.1851839e-01  -9.9132599e-01  -1.9081067e-01  -3.8810483e-01   1.2371725e-01   7.7775355e-01  -8.8029679e-02   5.9039934e-01  -8.2782120e-01  -6.4959192e-01   6.2760385e-01   5.3963030e-01   8.2640727e-01  -2.9661286e-02  -5.1022469e-02   3.2449801e-02   5.5847176e-01  -7.8471586e-01  -4.7453141e-01   7.2089466e-01   1.9517245e-01  -3.6345658e-02   2.0381911e-01   6.4852670e-01  -5.7955013e-01   9.0724625e-02   9.1508170e-01   4.5319357e-01  -5.2352625e-01  -1.3268062e-02   9.8874935e-01   6.3977295e-01   8.1989910e-01  -6.8572638e-01  -4.2388382e-01  -6.1627864e-02   6.8637396e-01   1.9248637e-01   9.9268047e-02  -2.9307779e-01   5.9647625e-01   4.0305788e-01   3.3861015e-01  -7.0503475e-01   6.3710342e-03   3.8187337e-01   1.7419021e-01   6.8605060e-01   7.8867884e-01  -4.2409574e-01   4.0331833e-01   9.1292239e-01   2.4645087e-01   9.8601202e-01   5.2981220e-02  -9.3289710e-01  -1.5339118e-01  -8.2806006e-01   3.6353452e-01  -5.2705796e-01   8.1669545e-01  -4.6744345e-01  -3.9067583e-02   4.3077216e-01  -2.2541712e-01  -2.3690795e-01   4.2292771e-01   3.1747685e-01   2.7047407e-01  -9.8119574e-01   1.1319773e-01  -5.8136645e-01   1.1308551e-02  -1.5390774e-01  -1.7000014e-02   5.4605633e-02  -4.1416995e-01  -9.0174056e-01  -4.5752096e-01  -2.6571256e-01   9.6951185e-01  -3.1811921e-01   6.5880083e-01  -7.1596202e-01  -7.2297402e-01   1.3700408e-02  -2.9562720e-01  -4.1018812e-01   8.1861069e-01  -5.2924002e-01  -6.7278377e-01   8.9359868e-01   6.0002670e-01  -2.1086800e-01   8.5002678e-02  -8.5755888e-01  -4.6160514e-01   2.9256369e-01  -3.1836953e-01   8.9553994e-02  -6.8397530e-02   4.1244311e-02  -3.1787639e-01  -3.2204324e-01   5.5675641e-01  -9.1226374e-01   8.1865640e-01  -6.5134893e-01   5.4864636e-02  -5.0857510e-01  -4.0906858e-01  -6.7679961e-01  -6.3146194e-01  -1.9546060e-01  -6.2842953e-01  -6.5951814e-01  -3.4533578e-01  -7.5862886e-01   5.0164734e-01  -5.6934816e-01   1.1446193e-01   6.7941556e-02  -3.3043515e-01  -9.2580934e-01   5.4195352e-01  -5.8507980e-01  -8.4495034e-01   8.4333563e-01  -1.5280059e-01  -7.3624642e-01   2.5655728e-01   4.1548794e-02   7.0097982e-01  -2.1357601e-02   3.8094810e-01   1.9412249e-01  -8.1907018e-01  -8.8551887e-02   9.5744928e-01  -5.9715147e-01   3.6552589e-01   8.8375189e-01  -1.9356020e-01  -5.1574236e-01  -7.1469747e-01  -9.1699473e-01   8.7579648e-01   6.8138761e-02   7.2295521e-01  -1.5394053e-01   5.2871822e-01   3.8020534e-01  -8.7728208e-02   4.7172621e-01   8.6316624e-01   2.5881785e-01   4.4177333e-03   1.9263124e-01   9.7537938e-01  -7.9951307e-01  -2.8342156e-01   7.0012022e-01  -6.5376426e-01   2.2800070e-01  -7.2109593e-01  -7.0563827e-01  -4.9435773e-01   4.2496685e-01  -6.9900474e-01   9.6206254e-01   7.4826548e-02  -4.8707087e-01  -2.9367782e-01   6.0635149e-01   8.5301760e-01   2.4253470e-01   5.5333526e-01   1.8349118e-02   1.3289110e-01   9.5553113e-01  -2.4004045e-02  -7.1219873e-01   3.8216944e-01   7.4940804e-01   4.5164890e-01   9.2199636e-01  -2.4385998e-01   9.3614395e-01   7.0785085e-01  -7.5163629e-02  -1.5074905e-01  -4.0119173e-01   5.9967007e-01  -3.6904770e-01   1.5495600e-01  -4.1806965e-01   6.5001697e-01  -1.4840919e-01   5.2528526e-01   8.1101466e-02  -1.8635957e-01   1.5919437e-01   9.8317750e-01   6.8009031e-01   5.6631287e-01  -2.7895496e-02  -2.8980240e-01  -7.5098932e-01   2.3667816e-01  -5.9275248e-01  -5.4568271e-02   5.2629587e-01  -3.3220932e-01   4.8404697e-03  -3.4113371e-01   4.6370316e-01   9.8731015e-01   9.2578652e-02   4.2795225e-01  -8.2231286e-01  -6.3969325e-01  -9.6370419e-02   8.1702926e-01   1.5199001e-01   6.4762133e-01   8.9713143e-01  -4.9840779e-01   9.4149848e-01   8.1134704e-01   7.7188816e-01  -6.6223458e-01  -5.1298681e-01  -6.1854336e-01  -4.0321975e-01  -4.5402967e-01   8.1408343e-01  -1.2664748e-01   4.4368325e-01  -3.2467701e-01  -4.8064643e-01  -1.9370797e-01   3.3817697e-01  -4.6602271e-01  -9.9472759e-01  -5.3287279e-01  -1.3690323e-01   3.7863200e-01   4.0941203e-02  -4.0514885e-01   3.1349324e-01  -3.1348234e-01  -1.3935350e-01   6.1034793e-01  -1.4190806e-01  -7.5235734e-01   4.5458503e-02  -8.9497001e-01   1.6276254e-01   4.2197250e-01  -2.8930757e-01  -5.4337752e-01  -5.5154505e-01  -5.2925199e-01   1.5853538e-01   8.9274055e-01   7.9717413e-01   2.7040020e-01   8.8281244e-01  -9.6580677e-01   6.0548692e-01   8.6924094e-01  -7.9340254e-01  -2.3317477e-02  -9.3839328e-01  -6.7077058e-01  -4.2764619e-01   2.1737395e-01   8.7223951e-01  -6.2070090e-01   4.5067907e-01   9.0646109e-01  -7.4348866e-01  -8.9325376e-02   9.7495155e-01  -5.6683361e-01   5.1500864e-01  -8.7906177e-01  -4.4266179e-01   5.5183376e-01   2.1580146e-01   2.9859304e-01  -5.1540421e-01  -9.3404594e-01  -7.4572775e-01  -2.8009240e-01   8.2550568e-01   2.0213224e-01  -3.9490703e-01   5.8371792e-01   8.9580834e-01  -3.7741017e-01   3.8236226e-01   3.1143579e-01   8.2583191e-01   5.5278259e-01   6.5019966e-01   2.5112433e-01   8.0402922e-01  -9.6331982e-01  -2.5674346e-01  -5.9885077e-01   3.0431969e-01  -2.5967134e-01  -3.3370199e-01  -9.6023739e-02   8.3320282e-01  -6.7288063e-01   5.7136996e-01  -8.2215690e-01   2.6967511e-01   6.9407786e-01  -4.4634860e-01  -8.8927354e-01   1.8547061e-01  -7.2220477e-01   8.4739742e-01  -5.5383992e-01  -3.0664059e-01   8.9565643e-01  -2.7033342e-01  -3.8450337e-01  -2.5080256e-01   2.0569761e-01   6.7595057e-01   5.3022419e-01   1.5416109e-01   7.6269289e-01  -7.5906427e-01  -2.5362478e-01  -7.4081445e-01   2.3367760e-01  -3.1336181e-01  -2.7418783e-01  -5.3029946e-01   6.5632704e-01   7.2971995e-01   7.1178298e-01   8.2640094e-02   9.5122472e-02   5.2286748e-01   1.6491967e-01  -4.5437878e-01   9.4937380e-01  -5.4408363e-01   5.4948945e-01  -6.9321291e-02  -2.0348524e-01   7.0768990e-01   9.2199338e-01   1.8832953e-01  -9.9663878e-01  -8.3126882e-01   7.3044336e-01   4.2591009e-01   9.0752781e-01   8.3986792e-01  -2.3018933e-02  -8.1568514e-01  -6.7988445e-01  -7.6526343e-01   8.8981200e-01  -8.8795141e-01  -5.4680312e-01   8.2238014e-01  -9.0090306e-01   6.5629794e-01  -4.9704176e-01   8.3253824e-01  -2.9170485e-01  -5.2574624e-01  -8.7641923e-01   5.5908567e-01  -5.1584437e-01   5.8183756e-01  -4.7725838e-01  -1.0819101e-01  -2.0366657e-01  -9.2695225e-01  -9.8885054e-01   7.3908063e-01   9.0237793e-01   5.4013980e-01   5.6770697e-01   2.8354256e-01   6.2575580e-01   5.2064532e-01  -1.3092429e-01   5.1613053e-01   8.7256521e-02   6.7213947e-02   8.2302071e-01  -3.5516838e-01  -3.4256266e-01  -5.9899219e-01  -7.3263279e-01   5.4830747e-01   6.9098516e-01  -1.2650232e-01   3.1127665e-01  -4.7681490e-01   8.5407385e-01   2.3570684e-01  -7.5792785e-01   3.4456484e-01   9.1360668e-01  -4.0267779e-01   8.9546345e-01   3.3528744e-01   7.2636420e-01   4.6642372e-01   6.1842202e-01   9.6958922e-01   8.2686937e-02  -5.3576424e-01   9.0355857e-01  -5.5900271e-01   5.7280722e-01   9.3590832e-02  -1.2089839e-01   7.5707838e-01  -1.6935915e-01   5.6982039e-01   7.7209665e-01   8.6002663e-01   9.1727586e-01   2.0508123e-02  -8.8912865e-01  -8.1632020e-01  -5.9534025e-01   7.0890367e-02  -5.2154581e-01   3.5817910e-01   3.5597003e-01  -8.4900735e-01   6.0165786e-01   5.8967705e-01  -6.1781586e-01  -9.7569597e-01  -1.7177607e-01  -8.8692536e-01  -4.9931245e-01  -8.8518833e-01   2.9279632e-01  -3.2542383e-01   5.1692265e-01  -1.0085693e-01   3.7286471e-01  -6.1408181e-01  -2.7420387e-01   8.0936066e-03   5.9210567e-03   4.4525233e-01  -1.8818797e-01  -3.0140245e-01  -4.4928407e-01  -6.1959896e-02  -8.3700047e-02  -2.6691158e-01   8.9379417e-01  -8.5896907e-01  -8.6771029e-01   9.0945887e-01  -2.8144531e-01   5.1195960e-01   7.0218018e-01  -6.3014544e-01  -8.7864631e-01  -3.7806794e-01  -4.8637666e-02  -7.4738601e-02   2.6836874e-01   9.2284536e-01  -5.9850062e-01   1.5869153e-01  -2.1232530e-01   4.5603560e-01  -2.0099141e-01  -1.7603255e-01   3.1797281e-01   5.2969071e-01  -8.4023819e-01  -5.6836645e-01   7.9864215e-01  -9.8959809e-02   4.0057708e-01   2.3626366e-01   9.9797574e-01  -7.8313661e-01   5.9450233e-01   3.2920314e-01   9.9847887e-01  -5.4210944e-01  -1.8216794e-01  -4.2708493e-01   6.7331892e-01   5.2601252e-01  -5.5649889e-01  -7.8933348e-01  -9.6609517e-01  -7.7904926e-01   1.5979856e-01   4.7441260e-01  -8.8910179e-01   3.0145022e-02   1.1440175e-01   6.1984251e-01   2.6890889e-01   5.3563281e-02   9.3663266e-01   9.3408262e-01  -8.3535044e-01   8.9162524e-01   9.7680853e-01  -7.6293162e-02  -1.8161733e-01  -3.2188374e-01  -3.2280290e-01  -8.0345498e-01  -5.2378489e-02  -3.3301419e-01  -1.7249528e-01   8.2159843e-01   9.9764492e-01  -5.0920262e-01   9.4999589e-02   6.8631648e-01   7.8738104e-01   2.8672166e-01  -5.5863379e-01   6.0218634e-01  -6.3443707e-01   9.4781588e-01   5.8088658e-01   8.6197765e-01  -1.9574832e-01   6.3318435e-01   4.4114767e-01  -2.5942434e-01  -8.7384584e-01   6.1923177e-01  -9.6651236e-01   1.0759665e-01   4.7667030e-01   4.1677522e-01   6.1048200e-01  -9.6948531e-01  -1.5352613e-01   4.3158636e-01  -3.2528614e-01   7.9312628e-01  -8.3314620e-01  -5.0494231e-01   8.6608621e-01   2.6333694e-01  -4.6274362e-01  -2.8649152e-01  -7.0826165e-01  -6.3677122e-01  -4.7675742e-01  -2.6323664e-01   1.8682601e-01  -9.6618444e-01   7.7776068e-01   3.4291476e-01  -5.5491629e-01   3.1805222e-01   9.4371037e-01   9.2484191e-01  -8.8828308e-02   5.1472958e-01  -7.4039314e-01   7.4346771e-01  -8.8251310e-01   3.2507615e-01  -4.8609915e-01   5.0797925e-01   9.7732912e-01   9.6332505e-01  -1.1697613e-02  -5.5242613e-01   5.7238345e-01   5.4842993e-01   1.0727125e-01  -5.9655736e-01  -6.0396860e-01  -6.0228606e-02   5.6757660e-01   1.0584869e-01   8.5938323e-01   9.5233467e-01  -1.1477324e-01   5.4674339e-01   4.0351275e-01  -1.8414020e-01   5.2964571e-01   3.9667858e-01  -7.0911495e-01   1.5638248e-01   1.2665184e-01  -2.9674504e-01   8.0397765e-02   9.7095002e-02  -9.6432874e-01  -9.2945772e-02  -3.7287058e-01   2.7295846e-01  -6.4609601e-01  -6.3538093e-01  -9.7817376e-01  -3.9680651e-01  -5.4880994e-01  -6.3765242e-01  -6.1833131e-02   1.9393592e-01  -5.3643321e-01  -2.1549200e-01   2.9087481e-01  -8.3113115e-01  -6.9439459e-01  -6.9471068e-01   6.9512037e-01   3.9212129e-01  -6.8897449e-02   4.9426089e-01  -8.7993285e-01  -6.9384555e-01  -7.3732913e-01   7.3204108e-01
  -1.9359200e-01   7.1406107e-01  -1.8057387e-01   1.8668219e-01   5.4271530e-01  -6.6663285e-02  -9.9824523e-01   9.8033365e-01  -9.6254939e-01  -6.2184344e-01  -1.0697212e-01   9.8230918e-01  -4.6254799e-01   4.8511823e-01  -3.7726569e-02   9.6845839e-02  -5.7480223e-01   2.9820178e-01   1.8463500e-01   4.7708938e-01   4.5455739e-01   3.3762595e-01  -1.7378161e-01  -7.5245871e-01  -7.0645060e-01  -6.1507422e-01   6.7652755e-02  -5.7725139e-01   3.7573725e-02  -8.9145110e-01   4.6349299e-01   7.5988680e-01  -1.9694589e-01  -6.9334093e-01  -2.0488402e-01  -7.3006107e-01   5.2589597e-01   9.7458401e-01  -7.6178026e-01  -5.2268254e-01  -7.4732678e-01  -4.6933707e-02  -5.5140381e-01  -5.0775040e-02  -4.7530051e-01  -1.6775160e-01   2.7072506e-01  -4.1549199e-01   9.2100247e-01   8.9391860e-01   9.4593444e-01   5.8733832e-01  -1.6735538e-01  -2.5108874e-01   7.5175989e-01   4.5487356e-01  -5.0513082e-02  -2.2179275e-01   2.8736924e-01  -1.0975149e-01  -3.6861806e-01  -8.8193102e-01   7.4019901e-03   6.7295247e-01  -4.4912696e-01   7.2398770e-02  -8.1982832e-01  -7.0167117e-01  -4.1199428e-01  -1.6440363e-01   8.8004736e-01   6.9067855e-01  -8.1329303e-01   7.7318706e-01  -9.8488457e-01   4.2716028e-01   7.9306478e-01  -9.1880008e-02  -6.4133745e-01   4.7438040e-01   5.8531165e-01   2.7390518e-01  -1.6886084e-01   1.0187788e-01   5.8724017e-01   3.0847774e-01  -1.8606802e-01  -1.2630645e-01  -4.6955460e-01  -2.0310632e-01   3.4996466e-01   3.0893544e-01  -5.9783254e-01   3.4293514e-01  -8.4578379e-01  -4.7066306e-01  -1.1437150e-01  -9.0162774e-01   8.3044927e-02  -8.2271502e-01   5.7066178e-01   4.0777489e-01  -7.7265084e-01  -2.5798063e-01   7.7630521e-02  -5.8676890e-01  -7.2128451e-02  -8.2184371e-01   2.9863647e-01   4.3919755e-01  -9.8015172e-01   5.0817315e-01   7.3094900e-01  -2.4276781e-01  -6.1698090e-01   4.8299167e-01  -9.2705568e-02   9.8626941e-01   6.1973035e-02  -4.2746702e-01  -1.5055970e-01   1.3582755e-01   8.9574342e-01   3.9503748e-01  -1.8299593e-01  -3.3619946e-01   8.7888804e-01   3.0717262e-01  -9.7084970e-01   2.5758392e-01  -8.3242899e-01   3.2708285e-01   6.9628033e-01  -1.6184433e-01  -8.1647862e-01   5.2405433e-01  -9.1673411e-01  -1.8997033e-01   7.2611715e-01  -9.6587338e-01  -5.0408027e-01   1.6039892e-01  -7.8234287e-01  -7.8570470e-01  -6.2522587e-01   1.3505317e-01   9.2081760e-01  -1.3761751e-01  -8.7925486e-01   8.5169087e-01   5.9463984e-01  -5.1070521e-01   5.8527135e-01   7.4631423e-01   2.0178397e-01  -3.5404645e-01   4.4506230e-01  -9.7626801e-02  -5.5890650e-01  -4.6821428e-01   9.3900632e-01  -9.3699339e-01  -1.9786029e-01  -8.4890413e-01   4.7740893e-01   4.0956941e-01  -7.9320750e-01  -4.0438804e-01   5.5333329e-02  -5.9121972e-01  -7.6406001e-01   3.0878010e-02   7.0817767e-01   6.9492686e-01  -3.1788172e-01  -1.3690090e-01   1.8488902e-01  -8.7069568e-01  -3.2431330e-01  -5.4433788e-01   3.5992642e-01  -4.7102209e-02  -5.1032114e-01  -7.6982644e-01   9.2839850e-01   3.6077323e-01  -2.9307828e-01   6.7594525e-01   3.8796719e-01   8.7794245e-01  -1.2384859e-01   7.4403343e-01  -6.5188723e-01   3.8663593e-01   4.2225010e-01  -5.4470623e-01   6.9801472e-01  -6.1131847e-01   2.9899997e-01  -6.9964864e-01   1.8902556e-01   7.5998342e-01  -2.1046831e-01   2.9232905e-01  -2.6039293e-01  -4.5392380e-01   2.6217663e-04  -5.7361116e-01   5.7050148e-01  -2.8334460e-01   4.1123139e-01   7.0505192e-01  -5.3346423e-01  -9.2113740e-01   8.8445398e-01   2.0439113e-01   2.3389841e-01   6.3233940e-01  -2.9705821e-02   1.0525965e-01  -1.8608636e-01   4.7239456e-01   9.7333096e-01  -3.7824310e-01  -4.9080763e-01  -5.2286286e-01  -4.3906482e-01  -6.9967755e-01   4.3758314e-01   4.2423309e-01  -7.0563972e-01  -8.3754284e-01  -9.7312241e-01   7.3098440e-02  -7.3553047e-01  -9.8775516e-01  -6.7431488e-01  -5.7294364e-01  -7.7580700e-02   2.3123891e-01   2.8388170e-01  -1.5852983e-01   1.0744205e-01   2.4641034e-01  -2.9456098e-01   8.2692333e-01   8.8875526e-01  -8.3540174e-01  -3.1410469e-01  -3.6554770e-01   6.8063898e-01  -8.6407839e-02   8.1948318e-01   8.5018778e-01   8.8322853e-01   3.3627344e-01   7.8496774e-01  -1.8237639e-01   3.6262784e-01   6.5183857e-01   3.8176240e-01   5.0592976e-01   1.9578466e-01  -7.8307679e-01   9.5434772e-01  -9.9630557e-01   7.3703528e-01  -9.9982917e-01  -3.4212013e-02  -5.6302459e-01   1.1022757e-01  -7.3612147e-01  -2.5821887e-02  -8.4366365e-01   2.6178517e-01   1.9289206e-01  -6.9248026e-01  -2.4881109e-01   4.4491890e-01  -3.6488883e-01   5.3030019e-01   7.7986250e-02  -7.6760533e-01   4.5541262e-02  -8.6443446e-01  -5.7722263e-01  -2.3029474e-01   2.6102068e-01  -4.3868532e-02  -8.4552340e-02   3.2936801e-01   8.6976965e-02   8.5527853e-02  -1.0890982e-01   2.4367856e-01   5.6578887e-01  -6.4536476e-01   1.1228738e-01  -4.0061504e-01  -1.8586267e-01  -4.8865955e-02   2.5872648e-01   5.5491129e-01   8.2031417e-01  -7.3433263e-01  -6.5722740e-01   2.2100279e-01  -5.1115122e-01  -1.7768344e-01   7.6453560e-01   8.3966928e-01   1.7016776e-02   6.8459166e-01  -5.1539152e-02  -3.0490071e-01   4.7231922e-02  -8.7252972e-02   3.8842173e-01  -2.5410702e-01  -8.3565490e-01  -1.8716698e-01   7.2634077e-01   5.0826145e-01   2.1556357e-01   8.6967267e-01   5.4252186e-02  -6.4153409e-01   2.4082914e-02   5.8872861e-01   9.5023583e-01   6.5110976e-01   6.6661830e-01  -4.2581583e-01  -1.9871641e-01  -2.0172167e-01  -1.4720196e-01  -9.4426250e-02   4.5594185e-01  -2.4007295e-01   2.3578806e-01  -2.4963133e-01   7.2183603e-01   1.5327702e-01   3.5339784e-02   1.2552221e-01   1.0152938e-01   3.7115144e-01  -7.9431337e-01   9.6793055e-01  -6.3435354e-02   7.2257659e-01   8.8222263e-01   2.2960229e-01   9.1341237e-01   7.2133562e-01  -7.1846807e-02   4.7037852e-01   5.5929952e-01   3.5516305e-01  -3.1765514e-01  -3.0559747e-01  -2.4000383e-01  -3.1920966e-01   2.5477862e-01  -6.2310101e-01   8.4332055e-01  -5.2543190e-01  -1.8188446e-01   3.5584045e-01  -3.4089337e-01  -7.4260743e-01  -8.4669498e-01   9.0811305e-02   8.4882887e-01  -9.2904343e-01  -6.4628573e-01   4.3465580e-01   7.0348133e-02  -4.4088622e-01  -1.0187217e-01  -7.2013090e-01   6.3619736e-01   6.4078857e-01   3.9610529e-03  -5.7023068e-02   7.2792981e-01  -6.6023144e-01  -8.9309432e-01   7.7890299e-01  -5.1129162e-01  -3.2654755e-02  -9.5834813e-01   8.8014727e-01   4.5492412e-01  -1.4274181e-01   5.6808124e-01   8.7394789e-01  -5.3290710e-01   7.1287018e-01  -2.1414764e-01  -2.4320029e-01   3.5668091e-01  -1.5384112e-01  -8.7968298e-01  -3.6353447e-01  -8.8764869e-01  -4.3691159e-01   6.9343181e-01  -9.6016039e-01   9.9762415e-01  -2.5633942e-01  -4.9905810e-01   6.9946863e-01  -5.2511357e-01  -9.1245727e-01  -4.4862803e-01   1.4302677e-01  -7.1383172e-01  -8.6619516e-01  -8.7569494e-01  -9.3234214e-01   2.9442990e-01  -2.3582935e-01   7.3227720e-01   4.1877104e-01   8.9506213e-01  -8.8439370e-01   5.4660981e-01  -5.6290688e-01  -6.6736101e-02   6.0817194e-01  -9.5760148e-01  -8.7932356e-03   7.7885704e-01   1.8614210e-01   9.4301937e-03  -9.7669128e-01   7.4304416e-01  -7.6879352e-01   2.9247967e-01  -6.3501289e-01   7.4191224e-01   5.5817014e-01  -5.7516124e-01   2.7250564e-01  -5.5695374e-01   8.1446439e-01  -7.5686358e-02   3.5459107e-01  -6.4508236e-01  -2.4104012e-01   3.2443638e-01  -5.5881271e-01   7.1189671e-01  -5.2881032e-01   1.5127907e-01  -1.6793905e-01   6.7684153e-01  -1.8632259e-01   5.2935429e-02  -8.1712452e-01   6.9140731e-02   5.2375383e-01   9.0158488e-01   4.3144162e-01  -6.6008370e-01  -4.6130834e-01  -4.4956372e-01  -9.0521923e-01   2.5700286e-01   4.0938310e-01  -2.7646832e-01  -9.8707823e-01   3.9261404e-01   3.8174867e-01  -6.8694834e-01   1.9480884e-02  -1.0828581e-01   8.1476607e-01   6.8196269e-01  -4.5200100e-01   9.8603784e-03   7.3360787e-01  -1.9008351e-01   1.2808953e-01  -1.7789521e-01   4.9311593e-01   8.9540342e-01  -1.4026966e-01   1.6759422e-01  -8.3026809e-01  -3.9986421e-01   5.3701156e-01   4.3535580e-01  -9.6875915e-01   2.1517209e-01  -8.0374084e-01   2.8124590e-01  -1.8938983e-01  -8.6469146e-02  -1.6372833e-01   6.1532732e-01   5.5051247e-03  -4.6344384e-01  -7.3336096e-01  -3.0125183e-01   6.5055858e-01   2.3658573e-01   8.0455114e-01   9.6602569e-01   7.6097976e-01   7.3878906e-01  -7.3808656e-01  -5.9994589e-01  -2.6443825e-02   2.1101858e-01   5.1850893e-01   9.1291502e-01   2.0051012e-01   6.1474419e-01  -1.0883544e-01   7.1762852e-02   4.7244402e-01   3.2416003e-01  -1.3677949e-01  -7.1706970e-01   8.3766309e-02   1.3283947e-01   8.7680107e-01   9.6717720e-01   3.2653653e-01  -3.2872550e-01   9.8357054e-02  -2.4732664e-01   3.0259173e-01  -2.5251396e-01   2.8240463e-01   1.6967341e-01   9.3539498e-01   9.8936078e-01  -6.8707909e-01  -6.3716525e-01   2.3203520e-01   4.1364010e-02   9.4781437e-01   1.1166029e-01  -2.3184774e-01   6.9423177e-01  -1.2225469e-01   7.7861018e-01  -1.8028998e-01   9.7480435e-01  -4.7630622e-01  -8.4552638e-02  -3.9856472e-01   3.2550899e-01  -6.3466589e-01  -7.1542654e-01  -9.0448440e-01  -2.3369630e-01   4.5478833e-01  -6.0316664e-01   3.4796117e-01  -6.4844946e-01   3.5586904e-01   7.5601955e-01   6.6451730e-01  -3.3193202e-02   3.1772423e-01  -7.8177186e-03  -5.1897515e-01  -4.5587225e-01   5.5992897e-01  -9.9671753e-01   6.3106999e-01   8.4482221e-01   4.6160309e-01   8.3105517e-01  -4.6018038e-01   1.8234362e-01  -4.9445581e-01   4.6751267e-01   2.3319251e-01   6.2568617e-01   6.9864738e-01   4.6752281e-01   3.0139247e-01   6.2711196e-01   8.0092806e-01   5.7445554e-01   9.6646812e-01  -7.1985508e-01   1.8561675e-01   3.7502781e-01  -3.6319015e-01  -1.0673788e-01   5.9158867e-01   7.3616684e-01   3.1582451e-01  -9.2826346e-01  -4.6366897e-01   8.3653022e-01   5.1363351e-01  -6.8420891e-01   6.1614062e-01  -4.5745188e-01  -7.5353808e-01  -7.6897993e-01   2.2767532e-01  -6.5475998e-01  -7.1790166e-02   3.4536482e-01   7.0996049e-01  -5.9590687e-01  -9.0510806e-01  -4.5277456e-01  -8.0144798e-01  -8.7586981e-01   2.2675719e-01  -7.4856503e-01  -2.1012450e-01  -2.9014093e-01  -8.3926743e-01   3.9683453e-02  -8.6425786e-01  -2.9546513e-01  -2.9083416e-01   1.1729296e-01   9.5751213e-01  -2.5685006e-01  -1.0157875e-01  -2.8060730e-01   9.6155915e-01  -8.8068534e-01  -4.2619621e-01  -1.0364462e-01   1.1317333e-01  -7.6464934e-01   1.3019840e-01  -6.5106953e-01  -1.9722381e-01   9.0370903e-02   3.3718445e-01  -9.3957182e-01   2.8980326e-01   7.7454846e-01  -3.4825814e-01   9.8770567e-01  -7.8822731e-01  -1.2568661e-01   8.3154136e-01  -3.5961819e-01  -2.2050443e-01   6.3781436e-01  -9.6163611e-01  -7.5267858e-01   4.6496501e-01   4.0892666e-01  -8.9373254e-01  -6.4159406e-01  -4.1688735e-01   5.9449185e-01  -5.2154194e-01  -5.7729797e-01  -5.2652122e-01   2.0338612e-01   5.9507323e-01  -7.0380759e-02  -8.6039515e-01  -3.5399511e-01   2.5036772e-01   5.8250707e-01   7.7276026e-01  -8.6300133e-01  -3.6567495e-01  -9.3767324e-01  -6.3951145e-01  -3.8821311e-01  -7.0961223e-01  -4.9316176e-01   1.1721243e-01   2.0811802e-01   6.6718437e-01   4.0071091e-01  -5.4908335e-01   3.0297872e-01  -5.5159089e-01  -7.3001211e-01  -5.9641534e-01   6.0306000e-01  -4.2858796e-01   8.5032886e-01  -1.3504015e-01   7.6661249e-01  -7.0708969e-01  -5.0211303e-03  -4.4142640e-01  -9.8189635e-01  -9.1052722e-01  -9.2482251e-01   3.4566541e-01  -8.8551170e-01  -6.2027943e-01   7.3972250e-02  -4.2115007e-01   4.1356805e-01   3.8536453e-01  -4.0517244e-01   4.6725736e-02   9.8538665e-01  -2.8534302e-01   4.9321583e-01   3.0763339e-02  -7.3909316e-01  -6.6175881e-01   2.2709911e-02  -9.1501600e-01  -2.0993379e-01   1.8136375e-01   4.9511787e-01  -4.9221705e-01   1.2497495e-01  -8.8450170e-01   6.3321027e-01  -2.3111736e-01  -8.3434698e-01   7.3465747e-01   8.8692466e-01  -2.6192912e-01   9.8740349e-01  -5.8291225e-01   5.5448473e-02  -7.6072745e-01  -7.8124044e-01  -8.2990651e-01  -5.1206460e-01   8.0445877e-01  -2.6047154e-01   6.0799582e-01   4.7014177e-01   5.5348544e-01   3.1306066e-01  -4.3435266e-01   7.2454586e-01  -2.0368134e-01  -3.6623100e-01  -2.2836395e-02   7.7957467e-01   8.7657541e-02  -7.3594766e-01   3.7054159e-02  -5.6459699e-01  -8.7092619e-01   3.0423159e-01   4.9901321e-01   5.8103804e-01  -3.9133119e-01   7.3912413e-01  -3.4705569e-01   9.9654287e-01  -7.9972768e-01   2.2490422e-01  -1.6155649e-01   7.6399264e-01  -6.9363526e-01  -5.0021812e-01   4.2795506e-01  -1.3655413e-01  -9.9218374e-01  -9.9871181e-01  -7.7616914e-01   5.9499056e-01  -5.5763458e-01  -7.3234015e-01  -4.0537658e-01   9.3150627e-02  -9.9296075e-01  -7.9599859e-01   5.2936511e-01  -6.9023270e-02   4.1507452e-01   4.8604883e-01  -4.5149788e-01   9.1102073e-01   6.2804295e-01   8.5593568e-01   6.3983390e-01   6.6532201e-01  -8.5027121e-01  -5.3253504e-01  -4.0184443e-02  -3.9958886e-01   4.1408079e-01  -7.3740847e-01   1.7925025e-01   9.7879415e-01  -6.6728875e-01   2.4007360e-02   7.6088571e-02  -8.9773031e-01   1.0979908e-01  -6.1342738e-01   2.9067869e-01  -2.6294627e-01   8.6893413e-01   9.8323152e-01   7.7958132e-01   2.7848530e-01  -2.0733453e-01  -1.1763525e-02   9.0773618e-01   8.4701532e-01  -6.7639159e-01   2.0068643e-01  -7.0995165e-01   3.6573755e-01  -4.4108383e-01   8.8913399e-01  -9.9276882e-01  -3.0959691e-01   6.7618154e-01  -6.0211068e-02  -5.2078719e-01   2.2703507e-01   7.6390402e-01  -6.1231522e-01  -1.2546645e-01   2.2936911e-01  -9.4223101e-01  -6.0863786e-01  -2.3913457e-01   9.1237355e-02  -8.2678020e-02   5.8699301e-01   1.5021398e-01   7.3893195e-01   3.3367049e-01   8.7402237e-01  -9.8972278e-01  -2.7315335e-01   1.5353162e-02   1.1133262e-01  -8.9625799e-01  -8.1485033e-01   2.3953173e-01   9.8187337e-01  -2.6031045e-01   3.2186298e-01  -8.0746899e-01  -6.4901971e-01   9.9453614e-01   8.8549314e-01  -5.7590982e-01  -2.9448162e-01   2.9888586e-01  -8.9976662e-01   6.6827088e-01   6.6099009e-01  -5.3664162e-01   2.0619052e-01   8.4380316e-01   6.9164147e-01   7.3745815e-01   4.9333944e-01  -9.5111419e-02  -8.4680931e-01   9.3964390e-03  -1.7142816e-01   1.5690624e-01  -1.8910247e-01   2.6084680e-01  -1.0710318e-02  -2.1993089e-02  -6.3611213e-01   8.6128142e-01   9.3842065e-01   8.8701404e-01  -2.0096047e-01  -4.8626059e-01  -5.7916520e-01   6.7687526e-01  -2.0007122e-01  -7.9205065e-01  -7.6879077e-01  -7.9731815e-01  -8.3449217e-01   2.8678715e-01   8.0723829e-02   2.1298547e-01  -4.1467789e-01   7.0211984e-01  -3.7867951e-01   7.1116821e-02   3.5549440e-01   8.1155259e-01  -7.6887361e-01  -4.9802059e-01  -7.4287240e-01  -5.5908964e-01  -7.0947155e-01   6.4280403e-01   4.9324085e-02   8.4979883e-01  -4.6746290e-01  -2.2260276e-01   8.1005533e-01   8.1617240e-01   3.7401269e-01   4.7426215e-01   9.8798615e-01   7.1221454e-01   4.8885869e-02  -5.9559979e-01  -5.4504754e-01  -9.1377109e-01  -6.2045364e-01  -3.4915398e-01   1.7343696e-01  -3.1359084e-01   5.1747099e-01  -7.3866492e-01  -6.3043163e-01   6.3018553e-02   5.4072866e-01  -8.5476018e-01  -4.0753852e-01   1.2477455e-01  -4.4482134e-02   2.0028909e-01  -7.0514052e-01   4.2876268e-01  -6.9864324e-02   6.9366899e-01   1.1800985e-01  -3.3672274e-01   4.2311789e-01   4.6389461e-01   9.9195200e-01   7.0078208e-01  -4.6109118e-01   4.5515134e-02   4.0437766e-01  -8.1140400e-01   5.8208696e-01   7.8990469e-03   8.0221172e-01   2.6720338e-01   2.9756779e-01   5.2805783e-02   3.6976277e-01   4.0044574e-01   8.0574641e-01  -1.1534800e-01  -5.6847418e-01  -6.6659822e-01   3.4072123e-01   1.0024694e-01  -1.3919624e-01  -6.0993658e-01   2.3452413e-01  -3.8982694e-01   7.2630048e-01   1.1034103e-01  -8.9463578e-01   4.7068137e-01  -3.9004451e-01  -1.5197404e-01  -5.1370212e-01   1.9865046e-01   7.2557420e-02  -3.4058839e-01   9.9243294e-02  -1.7180832e-01  -2.2270214e-02   7.1840923e-02   9.5494057e-01  -3.5838677e-01   4.3910213e-01  -7.4324935e-01   5.9486965e-01   4.3018241e-01  -9.9725253e-01   5.4865462e-01  -9.1437511e-01   3.3360455e-01   5.8250714e-01   6.1036632e-01  -8.8192970e-01  -6.5255130e-01   2.2362620e-01   3.4578746e-01   1.5946399e-01  -9.5607870e-01  -6.0803702e-01   6.0497447e-01   1.7379973e-01  -3.5678146e-01   6.6088277e-01   2.1574441e-01  -6.6816165e-01
  -7.6514535e-01  -6.3377036e-01  -1.9308769e-01   7.1058858e-01   1.3281078e-01  -7.2029805e-01  -5.2860409e-02  -9.2150757e-01  -4.5640402e-01   4.9947829e-01   5.4050410e-01  -4.6571222e-01  -4.5655155e-01  -9.9010483e-01  -1.4596231e-01  -1.1672814e-02  -7.4825982e-01   2.9413780e-01   7.0658771e-01   5.8348677e-01  -7.0172318e-01  -7.3319091e-01  -8.8637151e-01   8.1330869e-02  -9.5902382e-01  -1.2452599e-01   9.3465523e-01  -7.7824595e-01   2.1051476e-01   9.3164051e-02  -7.5218250e-01   4.3965450e-01  -2.7918615e-01  -4.7880382e-02  -6.3762934e-01   6.2285890e-01   6.5351935e-01   2.1272195e-01  -9.1292383e-01  -9.5410834e-01   6.8901736e-01   7.2084031e-01  -8.9808634e-01  -2.0828507e-01  -5.1559485e-01   3.2051118e-01   7.5840894e-01  -6.3714363e-01  -7.3596286e-01  -2.7302968e-01   6.0349194e-01  -4.1974292e-01  -7.2149582e-02  -2.3058634e-01   8.0229950e-01   3.6442154e-01  -2.1453817e-01   8.8866428e-01  -1.7306737e-02   8.0099237e-01  -6.5829449e-01   6.8069155e-01  -6.6152152e-01  -3.1327609e-01  -6.9058050e-01  -2.5878758e-01   9.7625826e-01   4.0952278e-01  -9.5338242e-01   2.5640193e-01   9.9804892e-01   5.6594382e-01   3.3868143e-01   6.3847161e-01   4.8211816e-01  -7.4302528e-01   9.0611051e-01  -2.2103609e-01   4.1918355e-01  -5.3919896e-01  -5.4990653e-01  -7.4339797e-01   8.9831868e-01  -9.7545978e-01   7.7294316e-01  -3.3710073e-01  -6.1427505e-01   8.7904430e-02   4.1297592e-01  -9.1208353e-01   2.2899414e-01   9.8565619e-01  -6.6166612e-01   5.3941828e-01   8.1030770e-02   9.6461696e-02  -5.3369440e-01   7.6271756e-02  -7.0406079e-01   5.0603187e-02   5.6950289e-01  -9.2637713e-01   7.7607978e-01  -1.5259482e-01   8.9960551e-01  -9.4255121e-01  -3.2499321e-01   3.9361155e-01   6.8216882e-01  -5.7246412e-01  -6.4712354e-01   6.6499393e-01   9.4672113e-01  -3.5195781e-01   3.8542065e-01  -7.3611778e-01   7.0648045e-01  -6.8853232e-01   5.3268816e-01  -1.6784848e-01  -4.7309775e-01   7.3423380e-01   6.7109224e-01  -7.4780989e-01   5.7224501e-01   1.6093800e-01  -2.8074717e-01  -4.0694214e-01   6.2803173e-01  -4.4348034e-01   3.9021188e-01  -9.4980360e-01   6.3204970e-01   9.0498264e-01  -1.6958956e-01  -1.5882327e-01  -4.7292363e-01   5.4007407e-01  -2.0197408e-01  -7.8281755e-01   9.2431180e-01   3.9165085e-01  -8.7799628e-01  -9.8774697e-01   1.2804503e-02  -8.5472657e-01   5.2780631e-01  -3.0538971e-02   8.7348206e-01   7.0215400e-01   9.7611251e-01  -5.8075416e-01  -7.2741698e-02  -9.2980379e-01  -4.0097036e-01   5.6228872e-01   8.1538753e-01   3.5750471e-01   6.3734439e-01   3.1662887e-01  -1.7102145e-01   8.9785154e-01   4.2930938e-01   7.2658710e-01  -5.9059513e-02  -6.9982140e-01   1.1174378e-01  -9.1152966e-01   5.2203761e-02  -7.2615154e-01  -9.0175678e-01  -9.4148195e-01  -2.8623944e-01   5.8152620e-01  -1.2049993e-01  -6.8332104e-01   5.4113526e-01   6.3785912e-01   8.3921054e-01   1.8828234e-01   5.2252682e-01  -9.4124160e-01   9.7230478e-01   8.7074523e-01  -9.2667258e-01  -5.6392973e-01   1.9760742e-02  -4.6434303e-01   1.9449254e-01  -1.6909292e-01   7.0901141e-02  -6.4693612e-01   7.7977295e-01  -8.6892207e-01  -1.6253034e-01   3.0575415e-01  -4.3050631e-01   2.0119802e-01  -6.9153085e-01   7.4883286e-01  -9.7255499e-01  -8.0531066e-02  -2.4567438e-01  -1.9175852e-01  -5.3784467e-01   1.3544125e-01   3.5174151e-01   5.9182946e-01  -1.6081546e-01   5.4728921e-01   7.8588646e-01   7.3577286e-01  -4.9689893e-01   3.0590883e-01   6.6462824e-01  -8.6623134e-01  -3.7919629e-01   8.9341963e-02   2.4353836e-01  -7.8733560e-01   2.4971051e-02   3.5397110e-01   2.7567267e-01  -9.3472582e-01  -5.3890755e-02   1.5185370e-01   1.3349862e-01  -3.0849762e-01  -9.6439261e-01  -1.3173504e-02   3.6856402e-01   8.8208092e-01  -6.9221317e-01  -4.3765703e-01   8.1356748e-01   2.1703311e-01  -6.0696667e-01  -7.8391539e-01  -2.9537233e-01  -3.1639428e-01  -7.5297795e-01   2.6633823e-01  -5.5368840e-01  -5.4760711e-02  -1.9697210e-01   8.0364660e-01  -1.5021110e-04  -7.3029187e-01   2.9697661e-01   1.2095776e-01   7.0315235e-01  -1.3496995e-01   6.1909243e-01   8.6251437e-01   5.4709398e-01  -9.1730565e-01   3.5610066e-01   5.6050032e-01   1.1018070e-01  -5.9919961e-01   1.6698172e-01  -6.3305231e-01  -8.2739395e-01   7.7886964e-01  -2.5598878e-01   7.1286710e-01   3.4601432e-01  -7.6691882e-01  -4.7573461e-01  -9.9044959e-01  -4.0369193e-01   8.4397790e-01   4.5907019e-01   9.2509814e-01   3.0267641e-01   7.8543973e-01  -1.8142882e-01   2.3957305e-01   4.0045932e-01  -1.2897087e-01  -5.3972829e-01   9.2604681e-01  -8.4829476e-02   3.9969458e-01  -5.2633547e-02   2.3936183e-01  -6.1604523e-03   8.0371949e-01   2.4286512e-01   5.1246262e-01  -3.9386958e-01  -2.4423930e-01  -2.3671793e-01   7.9460077e-01  -7.4693604e-01  -1.4310437e-01   9.4714271e-01   2.1676647e-01   4.2318519e-01   3.2239459e-01  -5.8932595e-01   8.5216812e-01   3.0015416e-01  -2.4926702e-01  -6.9144971e-01  -4.8967589e-01   3.5730356e-01  -1.1519810e-01   7.8849581e-01  -8.8502052e-01   7.2729351e-01   1.9692766e-01  -7.7399193e-01   3.8634305e-01  -3.7690145e-01  -4.3152235e-01  -7.7067803e-01  -4.7033118e-01   5.7063671e-01   5.2565465e-01  -3.0304609e-01   8.9566230e-02  -5.7234569e-01  -8.8337258e-01  -7.0230447e-01   3.0710423e-01   2.6501133e-01  -2.9851588e-01   9.5604136e-01  -9.0188603e-01   2.6951530e-01  -3.9655821e-01   2.2371085e-01  -6.6971658e-01   8.4241476e-01   6.9951346e-01   6.8211672e-02  -2.6015658e-01  -6.2812082e-01  -2.9748987e-01  -3.7853142e-01  -2.3479222e-01  -9.2048368e-02  -6.8577056e-01   6.4714417e-01   2.8772496e-01   8.1985587e-01   6.4891173e-01   6.1302420e-03  -1.6545485e-01   1.1746855e-01   7.5771562e-01   7.9236052e-01   1.3283103e-01  -5.4078762e-01  -1.3251853e-01  -1.9787467e-01   8.9648591e-01   4.6419797e-01  -5.3345442e-01   2.4401167e-01  -1.7533757e-01  -3.7833643e-01  -1.3350693e-01   5.1257046e-01  -2.1584195e-01   3.1711994e-01  -3.0206008e-01   2.6734876e-01  -9.5142021e-01   1.3021896e-01   4.1511271e-01  -3.3627273e-01  -6.1960134e-01  -5.6987537e-01  -5.9696489e-01   1.5726502e-01   6.8438532e-01  -4.1006506e-01  -5.7672428e-01  -9.7196865e-01   3.5253486e-01  -9.0464356e-01  -1.5290186e-01   2.6948666e-01   8.3105472e-04   6.4522475e-01   2.3310536e-01  -9.1493776e-01   6.6283990e-01  -3.3228589e-01  -4.0967628e-01   3.4928140e-01   1.7110247e-01   9.8881263e-01  -2.4836619e-01   5.5454022e-01   4.6761424e-02   2.8821236e-02   7.2456793e-01   5.1397906e-01  -3.5702572e-01   7.7069589e-03  -5.8776120e-01  -8.0158996e-01   6.6237695e-02   7.7457550e-01   7.5732205e-01   1.8315843e-01   4.4385176e-02  -7.0523852e-01   9.5143338e-01  -1.5907717e-01   4.9095355e-01  -1.1924023e-01   4.2653761e-01   2.8083496e-01  -6.8492792e-01  -4.3356941e-01  -6.9835361e-01  -2.2011827e-02  -9.7912834e-02  -3.0833654e-01   2.0638674e-01  -5.7619035e-01  -6.9342476e-01   3.7651384e-01   5.6946080e-01  -5.0581913e-01  -7.5389185e-01   7.0019311e-01   4.3569842e-01  -4.5431912e-01   8.8175567e-01   6.8408465e-01   7.5542582e-01  -8.8502721e-01   5.1850209e-01   5.9901085e-01  -3.9923034e-01  -1.9814291e-01  -1.9379453e-01   3.9405074e-01  -9.8514885e-01  -3.0588780e-01   2.0813788e-01   6.5496781e-01  -5.0584903e-01  -8.6247554e-01  -3.4136629e-01  -1.9019305e-01   8.5758889e-01  -6.3996888e-01   6.3067626e-01  -2.6940299e-01   3.3429076e-03  -8.3248853e-01  -4.7548989e-02   7.9572758e-01  -1.4460605e-01  -4.7817429e-01  -7.2619974e-01  -4.6345770e-01  -8.5337012e-01  -2.7010440e-01   1.8841887e-01   6.1598311e-01   8.1968365e-01  -4.8370028e-01   1.0696965e-01   8.2490114e-01   8.1691384e-01  -6.5302904e-01  -2.0482048e-01  -2.7282591e-01   7.0092427e-01   5.4798235e-01  -2.1195908e-01   3.8858148e-01  -7.3125628e-01   3.8746931e-01   8.4186656e-01   8.5438771e-01  -8.3167974e-01   9.4690054e-01  -6.1843826e-01  -9.9346191e-01   6.1365944e-01   4.8758773e-01   5.0070704e-01   4.0470041e-01   4.9585135e-01   5.4092219e-01   9.6597085e-01  -3.0784639e-02   6.2650562e-01  -4.4340684e-01  -8.9874902e-01  -6.0003546e-01  -9.9312555e-01   9.6358105e-01  -2.9840280e-01  -8.0824026e-01   7.6035243e-01  -2.2043141e-01   5.2355329e-01  -1.1876186e-01  -9.2038630e-01  -7.1568769e-01   5.8483107e-01  -4.0384727e-01   9.0424843e-01   2.7292408e-01  -2.5381960e-01   5.2010729e-01   6.4981452e-01  -8.0910225e-01   2.4361342e-01  -9.1007206e-01   2.5263630e-01   6.2813148e-01  -7.7206960e-01  -5.0546749e-01   1.8818927e-01  -4.1097764e-01   2.9795725e-01  -3.7887532e-01  -2.9882435e-01  -8.6125612e-02   5.8663867e-01  -2.3822598e-01   9.2604769e-01  -9.8832493e-01   2.4010610e-01   3.6996188e-01   6.4786881e-01   3.7006289e-01  -2.7069197e-01   7.3059257e-01   6.7188485e-02   4.9197167e-01   9.3960550e-01  -2.9292048e-01   9.7485647e-01   3.9649476e-01   3.2397214e-01  -9.1727493e-01   3.0929826e-01  -5.5601890e-01  -7.7762596e-02   4.2826054e-01   6.4586287e-01   4.4335420e-01   3.9092171e-02   7.9749819e-01  -1.6854886e-01  -2.0678782e-01   8.5680936e-01   5.4112277e-01   1.1837148e-01  -2.1305471e-01   6.8192424e-01   2.4942808e-01   4.9593388e-01  -1.5912879e-01  -5.2976619e-01   2.7955395e-01  -7.7079090e-01   5.3802095e-01  -1.6769058e-01   9.9730467e-01   3.8040100e-01  -8.1221510e-01  -5.5168692e-01  -8.4358853e-01   3.7987584e-02   4.1492053e-01  -2.9449724e-01  -4.3349071e-01  -7.9632762e-01  -1.2250152e-01   9.5486244e-01   9.2183927e-01   2.1358392e-01  -8.1781771e-01   4.5973312e-01   9.6826392e-01   3.8125109e-01   6.6872608e-01  -1.3527470e-01  -8.1061549e-01  -1.7561305e-01   4.2056970e-01  -1.5446802e-01   8.3277150e-01  -9.1528597e-01  -9.0719550e-01   2.6011534e-01   5.6360858e-01   8.2453429e-01   7.4338427e-01   5.3395559e-01  -6.1015993e-01  -2.8109372e-01  -6.8289021e-01   9.2267767e-01   9.4941509e-01   8.8120868e-01   6.2654944e-01   7.9314234e-01  -4.6473167e-01  -2.5910135e-01  -3.3177468e-01   6.3851750e-01  -2.8252644e-01  -7.9797739e-02  -5.0985285e-01  -8.8092455e-01   2.6910299e-01  -6.0658885e-01   4.4580233e-01  -3.0521263e-01   3.8926145e-01  -3.2060882e-01  -3.3245783e-02   9.9663795e-01  -3.1574629e-01  -4.0436917e-01   1.5270511e-02   1.3128338e-01  -5.6892073e-01  -9.3709669e-01   6.5871328e-01   1.2795876e-01   7.6669373e-01   7.4499999e-01  -1.9646301e-01   9.8959974e-01  -4.4050240e-01   1.0296877e-01   7.3495779e-01  -4.4477011e-01   1.9933251e-01  -6.9630197e-01  -7.0009032e-01  -2.5317228e-01  -8.8966847e-01  -1.8640044e-01  -6.8818024e-01   8.5794128e-01  -4.1682705e-02   2.3307988e-01  -6.0098176e-01   6.9241765e-01  -1.9337798e-01  -4.6313210e-01   5.2282799e-01  -7.6472569e-01   7.1176882e-01   6.3108970e-01   3.4924972e-01   3.0252511e-01   2.3974749e-01  -3.4835506e-01   2.1989405e-01  -9.4994006e-01  -3.1780891e-01  -8.4314319e-01   8.2945084e-01   7.4309482e-01  -2.3778112e-01   9.5874082e-01  -4.3237869e-01   4.8695387e-01  -5.7429311e-01  -5.1219172e-01  -1.8037475e-01  -4.3647566e-01   8.1795101e-01  -6.9090835e-01  -3.8181763e-01  -5.2016859e-01   6.6815475e-01  -9.3451034e-01  -6.1441976e-01  -6.4308340e-01  -1.1210925e-01  -4.2903494e-01   4.9037141e-01  -8.3524105e-01   9.8477422e-01  -9.5819657e-01  -8.3151454e-01   6.1359685e-01  -3.6094630e-01  -3.8589425e-01   4.0780876e-01  -5.0292048e-01  -6.3036101e-01   6.0119280e-02  -7.4506686e-01  -4.2611454e-02   4.7160172e-01   2.4372261e-01  -1.4056724e-02   7.5247638e-02  -8.4872664e-02   7.4403166e-01   1.6637285e-01   1.6626837e-01   7.3453771e-01   7.6856308e-01  -9.6148037e-01  -2.1947787e-01  -5.4334570e-01   5.5108154e-01  -3.0411092e-01  -6.4969319e-01   7.0567578e-01   3.7064564e-01  -7.2752215e-01   5.4524829e-01   5.8106596e-01   9.6658201e-01  -4.2042959e-01  -7.4621307e-01  -9.4327218e-01  -5.7225062e-02   6.2354847e-01  -5.7816211e-01   1.2411952e-01  -1.2800969e-01  -1.1933832e-01  -6.4446906e-01  -3.7244685e-01   9.6161181e-01   2.2864303e-01   1.4834952e-01  -2.3355072e-01   3.9012587e-01   2.7317734e-01   3.4440341e-01   4.5565321e-01  -3.1486184e-01   8.1306962e-01  -5.5588392e-01   4.6463629e-01   8.5671496e-01   9.0747682e-01   5.2577895e-01   1.7550972e-01   7.9617255e-01   3.3533246e-01   1.3464396e-01   7.6699266e-01  -9.0528995e-01  -8.4214708e-01  -6.0191899e-01  -2.8105785e-01  -1.5415526e-01   4.7504208e-02  -1.3143007e-01  -3.3699052e-01   3.9393997e-01  -1.7715417e-01   3.2832167e-01  -8.4320819e-01   9.9906587e-01   8.4611897e-01   2.5740233e-01   8.1150491e-01  -8.7725857e-01   6.8628001e-01   7.8164335e-01   6.0584647e-01   4.0985328e-01  -2.3377192e-01  -7.0828483e-01  -6.2626142e-01  -3.6377690e-01  -6.2172548e-01  -4.8163470e-01  -7.9721369e-01   8.3384417e-01   9.2210835e-01  -3.2162463e-01   9.2689382e-01   1.2246374e-01  -7.8789043e-02   6.3187313e-01   9.1913363e-01   7.5321677e-02  -8.4207541e-01   7.9278005e-01  -8.9310216e-01   3.3446716e-02   9.7533287e-01   7.1302056e-01   5.1433450e-03   4.3982987e-01   7.8889674e-02  -1.4371123e-01   7.5497920e-01   4.5013409e-01   8.8966619e-01   8.7840082e-01  -9.3480935e-01  -4.1797000e-01  -9.2218935e-01   3.0791354e-01  -7.9378823e-01   2.0571405e-01  -9.1623757e-01   6.2264809e-01   7.6205612e-01  -9.8083524e-01   6.3109487e-01   1.1935131e-01  -1.2022211e-02  -1.3959016e-01   7.6182190e-01   9.2785526e-01   5.8836648e-01   7.9290629e-01   9.2525797e-01  -6.6376053e-01   3.4300559e-01  -2.3856757e-01  -4.3790840e-01  -9.6437582e-01  -9.9007214e-01   3.7405378e-01   5.6344655e-01   3.4929303e-01  -4.5398841e-01  -5.0394325e-01  -4.4065030e-01   4.1231800e-01  -7.1283264e-02  -1.7986879e-01  -6.3479857e-01   7.3644306e-01   5.1523599e-01   1.9713585e-01   7.7686515e-01   5.5970583e-01   1.8070403e-01   7.2509851e-01   6.3417113e-01  -1.8890851e-01  -3.4310814e-01  -1.4706968e-01  -3.7796456e-01  -2.3327286e-01   5.6129719e-01   5.9703702e-02   8.0721019e-01  -7.7230358e-01   1.2374483e-01   1.4651944e-01  -2.1770665e-01  -8.0896988e-01  -4.6428706e-01   6.4635535e-01  -4.2427271e-01   7.4678012e-01  -4.2478633e-01   8.5771641e-03   9.2936885e-01   9.2111560e-01  -3.4124647e-01   4.3602240e-01   9.9952173e-01  -6.4741091e-01   9.7665617e-01   6.0374495e-01   5.0859168e-02  -3.0073525e-01  -7.4596582e-01   6.7312873e-01   6.2619555e-01   7.1016414e-01  -3.9244371e-01  -9.6537998e-01  -8.9930508e-01   4.5188559e-01   2.6772528e-01  -1.1039625e-01  -3.7186927e-01   3.6261328e-01  -4.8256459e-01  -3.4767804e-01  -4.8628744e-01   8.1143735e-01   3.4069317e-01   9.3925460e-01   3.5632221e-01  -3.2083604e-01  -2.3551797e-01   3.3599112e-01  -1.6483965e-01  -5.9921435e-01  -4.7600299e-01   8.9565384e-01  -2.4555131e-01  -3.4949133e-01  -2.1079339e-01  -1.0402248e-01  -8.6887594e-01   3.7476906e-01   9.2694313e-01   5.2779427e-01   5.6786485e-01  -3.4114456e-01   3.3687936e-01  -5.1140231e-01  -3.4340328e-01   1.8449111e-01  -6.2987013e-01   5.0904059e-01  -9.7476987e-01  -4.5846632e-01   6.0228869e-01  -8.0920367e-01  -6.8360182e-01   1.9768059e-01  -2.5995124e-01  -2.0576196e-01  -1.8151725e-01   6.8760461e-01  -5.2832289e-01  -3.0720970e-01   4.4775155e-01  -6.6467725e-01   1.4472279e-01  -2.1198103e-01  -7.0397211e-01  -2.5184826e-01  -2.4237272e-01  -7.5212869e-01   4.8726715e-01  -1.1589050e-01   3.4254642e-01  -2.7642903e-03   3.9758427e-01  -6.6755155e-01   8.9859186e-01  -1.0953107e-01   6.0574467e-01   1.8169878e-01   8.0278688e-01  -8.7191213e-01  -1.4185029e-01   1.7564132e-01   2.9548029e-01  -5.3275810e-01   9.1890353e-01  -3.9055857e-01  -8.7789812e-01   8.7688204e-01   7.8944825e-01  -2.2901672e-01   2.7434852e-01  -6.7607344e-01   1.1710351e-01  -3.9391210e-01   6.4797193e-01  -1.4554558e-01   2.8194105e-01   6.9598418e-01  -3.4710432e-01  -7.0260443e-01   1.9353113e-01  -7.8268740e-01  -7.9551224e-01  -2.5661389e-01  -1.1190868e-01  -4.5434016e-01   2.9617942e-01  -4.6742444e-01  -8.2556726e-02   6.5568374e-01   1.3769374e-01   9.5066628e-01  -4.6800820e-01  -1.7217736e-01  -2.6977108e-01   5.4199298e-01  -7.8196223e-01   1.6552339e-01   8.3941755e-01   9.1451506e-01   3.4252500e-01  -1.3323800e-01   7.5301395e-01   6.2539718e-01  -5.7044993e-01  -1.9738605e-02   4.8362481e-02   3.1317593e-01
