  -8.2248584e-01   3.3084530e-02   8.0624002e-01   4.1433438e-01  -3.6494463e-01  -2.8396206e-01   9.2065331e-01  -4.8003758e-01   6.8879290e-01   6.4602392e-01   9.7413629e-01   8.7045159e-02   7.5001349e-01  -7.3916319e-01   2.7511671e-01  -2.5389336e-01   7.7153928e-01  -5.1509917e-01   5.8135989e-01   7.4119239e-01   5.3096702e-01  -4.5700432e-01   3.9664091e-01   6.2777219e-01   1.7407939e-02   6.6435552e-01   8.6693653e-01   6.3455939e-01   7.7030823e-01   1.3439070e-01  -2.5897933e-01  -9.3442399e-01  -1.0484337e-01  -4.4302093e-01  -9.3531210e-01   8.6132317e-01   1.1149895e-01  -6.9738166e-01   4.2189088e-01   4.3677706e-02  -5.7775777e-01  -9.9316725e-01  -2.6976335e-01   2.4490289e-01   4.3743897e-01   8.4569472e-01   6.5104713e-01   7.4945045e-01   7.9889876e-01  -1.4357180e-03  -1.3569631e-01  -5.6247911e-01   5.1207140e-01   7.1095831e-01   2.0932960e-01   2.3469539e-01  -5.8636946e-01   8.7122465e-01  -4.0598723e-02  -8.7198109e-01  -6.9156239e-01  -3.2083638e-01  -3.9177482e-01  -1.6891152e-01  -9.6361110e-02   4.4451282e-01   8.6100144e-02  -7.3480856e-02   7.0029152e-01   2.3328442e-01   2.8979741e-01   2.1787012e-01   6.3821889e-01  -1.6516861e-01  -5.8344225e-01   7.4739501e-01  -1.1060561e-01  -3.1411469e-02   7.1434123e-01   3.7086436e-02  -3.8712760e-01   8.0601535e-01   1.7644824e-01  -3.1897870e-01  -3.0682347e-01  -2.3048362e-01   3.3960663e-01   4.3276295e-01  -2.4659597e-01  -8.1685286e-01   7.3787507e-01   3.5177778e-01  -2.0779793e-01  -4.9468368e-02  -7.1089935e-01  -5.0477033e-01   1.0437488e-01  -5.6564321e-01  -2.8118125e-01  -1.7142589e-01   4.1889306e-02   9.5841336e-01   1.2952692e-01  -4.9193118e-02   3.9067251e-01  -7.3527949e-01   6.9478128e-01  -8.8856586e-01   8.3547890e-01   3.2301380e-02   5.4424808e-01   8.6589886e-01   1.7380177e-02   5.9197179e-02  -3.3232716e-01   1.5287267e-01  -5.2156307e-01  -6.1440033e-01   5.6691438e-01  -4.3737872e-01   8.1808788e-01  -2.4158991e-01   4.6777755e-01   1.3058560e-01  -8.3593749e-01  -5.1728440e-01   2.1222243e-01  -3.4141404e-02   7.9912708e-01   1.4846032e-01  -4.6259688e-01   1.9804727e-01   2.9919065e-01   7.9276494e-01   4.4327351e-01   9.9598302e-01   7.9358068e-01  -5.1474672e-02   3.4594830e-01   4.0461844e-01   4.6469857e-01  -6.4721767e-01   5.9586718e-01   4.2998049e-01   6.4877618e-01   6.6020473e-01   7.8169061e-02   1.9126687e-01  -3.2876153e-01  -7.0868740e-01  -6.2021658e-01  -4.0056643e-01   3.8012005e-02  -5.7913660e-01  -1.7056808e-01  -3.0667105e-01   4.2968295e-01  -2.8343396e-01  -1.8874304e-01  -4.7836490e-01   1.9651425e-01   2.6339569e-01   4.2903909e-01   8.6252149e-01   7.6815572e-01  -3.4280606e-01  -4.4150866e-01   1.7463594e-01   2.1865257e-01   3.8798911e-01  -2.7424638e-01   3.7438358e-01  -4.2018478e-01   4.1338205e-01   8.3129071e-01  -6.1844978e-01   5.2526380e-01  -9.0875331e-01   2.1347212e-01  -3.4373909e-01   4.9737129e-01   3.8495620e-01   8.1036688e-01   7.9196608e-01  -8.1477623e-01  -8.6703789e-01   4.4274773e-01   4.6810866e-01  -5.9812155e-02   8.3722789e-01  -3.9771572e-01   5.4069325e-01   7.7856014e-01  -8.2437262e-01  -9.3743020e-01  -7.5473347e-01   1.7124077e-01  -6.4292310e-01  -6.6272375e-01  -4.0270470e-01  -1.6431989e-01  -8.7342705e-01   5.8145841e-01  -1.5502489e-01  -2.5858260e-02   3.7502172e-01  -4.1285685e-01  -3.0721141e-01   8.4059060e-02  -4.8751569e-01  -3.1705731e-01  -5.3979146e-01  -4.6930473e-01   5.6996176e-01   7.9426152e-01   4.7795730e-01  -1.2091153e-01   6.5555534e-01   1.3702776e-01  -3.2131697e-02   3.3307842e-01  -7.4167429e-01  -7.1028679e-01   5.8652882e-01   1.3936432e-01   1.9724637e-01   9.8784804e-01   1.4788714e-01   2.9195618e-01  -9.6198201e-01  -7.3773034e-01   1.2208279e-01  -6.8003075e-01  -3.4420042e-01   4.3704958e-01   3.9043485e-01  -9.8646514e-01  -4.4532528e-02  -3.6181281e-01   5.2430191e-01   6.6746723e-02   4.2272291e-01  -1.7609981e-02   4.6208055e-01   7.1828916e-01  -8.8122233e-01  -7.7896185e-01   8.1516519e-01   5.0451821e-01  -8.1805768e-01   8.3509346e-01  -8.6181161e-01   6.1337196e-01  -3.1455904e-01  -2.7675361e-01  -9.4823117e-01  -9.1351161e-01  -7.3831045e-01   3.2364006e-01   1.6728701e-02   3.2030359e-02   2.1519826e-01   5.1544734e-01   1.4054585e-01  -3.4131480e-01  -5.4517907e-01  -7.5717573e-02  -5.4755083e-01  -2.2820531e-02   5.8784155e-02  -7.5046713e-01  -8.4816581e-01  -8.1457733e-02  -1.8743331e-01   4.0938389e-01  -1.8017667e-01  -1.2347801e-01  -7.7960498e-01   7.5910260e-02  -5.6574678e-01  -9.2920386e-01   4.4024227e-01  -5.8507993e-01   9.6543828e-01  -6.2776502e-01  -4.8473290e-01  -9.7097880e-01  -4.9201831e-01  -4.8558466e-01  -7.5899237e-01   9.0354000e-01   7.4940214e-01  -6.4178673e-01  -5.1227040e-01  -4.4182739e-01   2.0839935e-01  -1.2262066e-01  -6.9140521e-01  -9.3719242e-01   2.6493958e-01  -7.7085651e-01  -6.7210735e-01   8.5071692e-01   7.9924557e-01   8.9217337e-01   6.4779524e-01   2.8289244e-01  -8.6589947e-01  -6.4176202e-02  -7.6666744e-01  -9.2527256e-01  -8.9476228e-01   7.8273965e-01   9.0704358e-01   7.1208654e-01  -3.8620315e-01   8.5966136e-02   5.1330470e-01  -4.9461632e-01   5.8094023e-01  -1.2030255e-01   5.2884080e-01  -7.7447670e-01  -5.3256956e-01  -5.8296430e-01  -9.5739682e-01   4.8854552e-01  -3.1359492e-02   5.2992168e-01  -6.4114220e-01  -5.7281245e-01   7.0789242e-01  -9.6536011e-01   2.3867236e-01  -8.2840677e-01  -5.9043553e-01  -4.0621095e-01  -7.8389650e-01   8.4442221e-01   6.1467025e-01   4.4538653e-01  -1.8269916e-01  -7.8412989e-01  -1.1958097e-01   7.7569272e-01   5.7142796e-01   4.2767372e-01  -3.3139446e-01   6.3312661e-01   5.4892392e-02  -3.4829781e-01  -5.5046557e-01   2.4073652e-01  -8.3668688e-01   8.0941299e-01  -4.4503918e-01  -2.9975716e-01  -7.6874274e-01   6.1942790e-01   4.2533054e-01   3.4280134e-04   2.4911223e-01   8.5933592e-01  -8.2803262e-01  -4.6658792e-01  -6.2364549e-01  -4.6733521e-01  -1.5747452e-01   8.9442590e-01   9.4465273e-01   7.1361748e-02   4.9523605e-01  -6.6898522e-01   8.6618204e-01  -1.9435368e-01   9.0381653e-01  -6.4052564e-01   3.1574052e-01  -1.8100510e-01   2.4773085e-01   4.5778110e-01   4.2253882e-01   9.0855079e-01   9.5254092e-01  -2.2590569e-01   1.7514512e-01  -1.1315490e-01  -9.0717151e-01   2.3314972e-01  -7.2160675e-01   4.2223729e-01   5.3094832e-02   8.5966074e-01  -8.3535149e-01   6.6695577e-02  -9.5721231e-01  -1.5675171e-01   1.4867517e-01  -9.5224550e-01  -3.9152280e-01  -3.5343918e-01  -2.9296033e-01  -3.6929365e-01  -4.9927080e-01   2.8875232e-01   1.4729264e-01   4.3729552e-01  -7.5408162e-01  -7.6279609e-01   9.9161369e-01   2.0920980e-01  -5.1465623e-02   3.7024688e-01  -4.3093257e-01  -8.4951862e-01   2.2564973e-01  -3.3191068e-02  -2.7808906e-01   8.0361985e-01  -1.9817474e-01  -8.8665695e-01  -6.1924165e-01   7.9415668e-01  -4.1076547e-01  -8.4392038e-01   7.9344004e-01  -5.2166249e-01  -2.3221588e-01  -2.5489051e-01   5.4820725e-01  -7.0396852e-01  -1.1944996e-01  -8.7068062e-01  -8.8994650e-01  -1.7836153e-01  -5.1195584e-01   3.7223595e-01   6.3438061e-01  -8.8973867e-01  -9.6269378e-02  -7.0946482e-01  -4.5486995e-01   6.6322362e-01   4.4414055e-02   6.2496016e-01  -8.7388967e-01  -5.1333761e-01  -9.3464864e-01  -9.9466227e-01  -4.2616063e-01  -4.3781324e-02   5.0724455e-01  -9.7034713e-01  -8.3963039e-01   7.3935598e-02  -7.5856660e-01  -5.5803195e-02  -3.2539302e-01   9.2269970e-02   8.3719120e-01   1.8202246e-02   4.1381686e-03   6.3924643e-01   6.6397512e-01  -7.7291141e-02  -9.6450899e-01   2.9116467e-01  -4.3299374e-01  -6.0910032e-01   7.1233253e-01  -5.9841835e-01   9.1276792e-01  -3.1627235e-01   5.4305588e-01  -6.2949083e-01   7.5723104e-01  -9.4675760e-01  -4.8442100e-01   3.4274928e-01  -7.7203437e-01   8.1382102e-01   6.1114753e-01   3.1429601e-01   4.7033748e-01   3.9881214e-01   2.1997862e-01  -4.0207751e-01   3.2548954e-01   2.3820084e-01  -5.8001698e-01   2.4145006e-01   7.9130768e-01  -6.2400406e-01   9.9367349e-01   8.2283664e-01  -2.4235681e-04   2.8704694e-01  -5.7795120e-02   6.0037414e-01   2.3612508e-01  -6.4306940e-01  -7.1428347e-01  -8.2993741e-01  -8.0486243e-01  -1.1397960e-01   2.7106347e-01  -5.9060352e-01   5.1684298e-02  -3.0096568e-01   8.6973645e-01   4.3140986e-01   8.4689183e-01   5.4741673e-01   3.4804800e-01  -7.4973010e-02   9.1477144e-01  -1.3797185e-01  -5.6131055e-01  -9.5651981e-02  -7.2410838e-01   9.5235807e-01   8.0654724e-02   7.8146679e-01   4.2561657e-01  -5.5575424e-01   7.1267204e-01  -1.4385397e-01  -7.0726187e-02  -6.8709605e-01   1.7654770e-01   6.1435928e-01   3.7193902e-01  -4.1028345e-01   9.4736415e-01   1.0355337e-01   8.7362487e-01   8.9379651e-01   3.4662929e-01   4.0624730e-01   3.2917030e-01   1.1827755e-01  -6.4140247e-01  -8.3942980e-01  -9.3215784e-01   3.9666609e-01   7.1061913e-01   3.7859619e-01  -9.8212786e-01   7.4786905e-01  -9.9637321e-01  -9.9834380e-01   1.7935799e-01   9.1624871e-01   9.2015382e-01   2.2951251e-01  -1.5579472e-02   8.7342203e-01   3.1249688e-02  -8.6129883e-02  -3.5639647e-01  -3.3688893e-01   1.2476541e-01   6.0118327e-01  -4.5674669e-01  -8.6356099e-01  -1.0515088e-01  -7.4634627e-01  -2.1523357e-01  -2.4829085e-01   7.1791787e-01  -2.2908687e-01   4.5163955e-01   5.9258865e-01   7.6764107e-01  -7.4590837e-02   7.1177321e-02   9.3562721e-01   7.2443491e-01  -4.3611315e-01   2.6836773e-01   7.0629770e-01   8.5582911e-01  -9.7192157e-01  -2.9954042e-01   9.2640747e-01  -1.4891323e-01  -8.9564501e-01   1.2457863e-01  -1.5469046e-01   4.3204769e-01  -5.8819320e-01   5.4516049e-02  -8.6111044e-01   1.0110260e-01   5.3192691e-02  -6.3484981e-01  -7.4874521e-02   7.0194195e-01  -2.4359012e-01   5.0509743e-03  -5.4508701e-01  -5.2690392e-01   6.7571230e-01   8.7659854e-01  -6.6301958e-01  -4.0445949e-01  -3.3095835e-03   2.3242259e-01  -5.6868145e-01  -4.5767900e-01   6.8483257e-01   6.2169023e-01   4.1922709e-02   5.3128354e-01   2.4131475e-01  -7.2835365e-01   2.9957384e-01   2.3734719e-01   3.4281895e-01   1.1813308e-01  -8.9980839e-01   1.0610708e-01   1.6656308e-01   8.6977974e-01  -9.8234651e-01   8.1501961e-01  -9.4651516e-01   9.2800943e-01  -5.5010252e-01   7.4006806e-01  -6.1326711e-01   4.0081137e-01  -6.5585158e-01   8.3465363e-01   1.2103691e-01   3.4839025e-01  -3.1249962e-01   3.8181904e-02   1.1766146e-01  -6.6169236e-01  -7.0480811e-01  -6.5772824e-01  -2.3850025e-01  -9.8015724e-01  -9.7241865e-01  -7.7185731e-01  -8.4456798e-01  -2.8418653e-01   4.9428728e-01   1.9002675e-01   9.9275473e-01  -9.0598609e-01  -4.9200438e-01   8.4015621e-01  -8.1488227e-01  -4.3810133e-01   3.4621273e-01  -4.4659553e-02   3.0280802e-01   8.5183031e-01   5.6757170e-01  -8.3335010e-01  -6.2047948e-01  -6.6348992e-01   4.4573282e-01   1.1335568e-01   4.2859082e-01   5.2379175e-01   5.2606281e-01   4.1903418e-01   3.2126568e-01  -1.2676636e-02   9.1536001e-01   8.6186577e-01  -2.9197201e-01  -3.7406804e-02   6.5635552e-01   8.2298989e-01  -8.9914717e-01   4.0274838e-01   5.5651071e-01  -5.3808202e-01  -5.5020013e-01  -6.7936184e-01  -4.3115941e-02  -1.8993039e-01  -4.9018930e-01  -6.2004698e-01  -6.5173491e-01  -6.3909453e-02   6.3031707e-01  -4.4623584e-03  -5.7066700e-01   9.7682388e-01   6.1955018e-02   9.8983924e-01   2.7040414e-01  -4.1169538e-01   9.1907868e-01  -2.7750249e-02   5.8507921e-01  -1.2443375e-01   7.7535974e-01   6.5360256e-02  -5.0370590e-01   2.9071462e-01   9.8290133e-01  -2.1521586e-01  -2.2134299e-01  -1.9894271e-01  -6.7968889e-01  -2.9403948e-01  -9.0393026e-01  -9.1150606e-01   1.9324017e-01  -8.6607588e-01  -4.5863336e-01   4.5781871e-01  -7.7326882e-02  -5.8690976e-01   7.6025607e-02   3.2478638e-01   9.8596458e-01   3.0524789e-01  -6.1262560e-01   6.3116899e-01  -5.6965812e-01  -4.1664819e-01  -5.4819408e-01  -2.4032110e-02   6.7119098e-01  -1.0510897e-01   9.6336049e-01  -9.0128865e-01   1.2301043e-01   6.5231956e-01   2.3580032e-01   1.5887464e-01   6.4564416e-01  -1.4076959e-01  -5.9667491e-01  -5.5990783e-01  -2.2172090e-02   5.5227553e-01   9.9910502e-01   4.4297009e-01   1.6664722e-03  -6.9191085e-01   2.0817009e-01   9.7502765e-01  -8.1644613e-02  -6.3805088e-01  -1.4669422e-01  -4.2565640e-01   8.7531601e-01   1.0365272e-01   8.1204660e-02  -1.7482504e-01  -7.5931781e-01   4.7689029e-01   1.4233612e-01  -9.5957084e-01  -4.6550177e-01   8.5659450e-01  -7.1182392e-01  -6.9200143e-01  -3.7515322e-01  -2.1455516e-01   9.0930028e-01   1.7799514e-01   2.3928837e-01   7.1884172e-01  -7.6352789e-01  -4.6497166e-01   5.9360255e-01   6.6232293e-01  -4.1358771e-01  -5.8931291e-01  -2.4544474e-01  -6.3128166e-01   5.4202401e-01   9.5057514e-01  -1.7194938e-01  -4.9909557e-01  -9.4139909e-01   5.8406774e-01  -5.0976454e-01  -3.6432769e-01   6.4444367e-01   8.4361127e-02   3.4269515e-01   4.7499945e-01   9.0866136e-01   7.3890867e-02   7.9974156e-01   2.4342449e-01   3.2817270e-01  -5.7457446e-02  -1.8561899e-01  -8.3867257e-01   4.5854467e-01  -2.1816029e-01   5.1220823e-01   4.9181067e-01  -4.4444907e-02   5.5707761e-01   7.4100711e-01  -8.1999286e-01   8.3821305e-02   5.4684585e-01  -1.3390773e-01   3.2873671e-01  -6.9121673e-01   2.6149943e-01   6.8237299e-01   6.2522982e-01   1.4837933e-01  -2.9912510e-01  -7.6949210e-01   2.0299209e-01   3.6396938e-01  -5.9147261e-02   7.7992065e-01   6.5426170e-01   8.0827877e-01   4.4707340e-01   5.2057292e-01   5.5360920e-01  -5.0806878e-01  -7.0211033e-02   9.5607873e-01  -5.5160263e-01  -3.6142094e-01   7.7981051e-01   5.7048183e-01   8.2488920e-01   3.7770031e-01  -8.8040445e-01   1.4663285e-01  -3.5883065e-01   7.9325426e-01   8.9313365e-01   3.7494912e-01   3.8525851e-01  -3.5690315e-01   3.0772091e-01   6.7751116e-01  -7.7902113e-01   2.8161508e-01  -7.3928822e-02  -7.2894860e-01   7.0549342e-01  -8.7610699e-02  -4.9961175e-01   9.8889373e-01  -6.6819231e-02  -5.0890773e-01   5.8833083e-01  -6.0223584e-01   3.3182591e-03  -6.6403668e-01   7.0427919e-01  -8.8711720e-01  -7.7777731e-01  -6.9166395e-01   4.0876927e-01  -5.0548899e-01   8.3480984e-01   7.3402167e-01  -2.2294907e-01   8.4121847e-01   3.4316302e-01   2.1072286e-02  -5.9742022e-01  -3.7943347e-01   9.7529574e-01   9.4475696e-01  -6.9411746e-01   1.3531124e-01   4.6924028e-01   5.9132458e-01   7.2445027e-01  -8.9388471e-01  -3.0304562e-01   6.6939618e-01  -1.0772652e-01   3.9020112e-01  -6.3057689e-01   6.8797598e-01  -4.5709000e-01  -8.1836358e-01   7.5294579e-01  -1.3412851e-01   2.1068477e-02   2.6968044e-01   1.8409248e-01  -7.5153747e-01  -9.1463749e-01   1.8580145e-01  -7.6477903e-01  -6.4131269e-01  -4.5885556e-01   5.0540657e-01   2.6283770e-01  -8.3801502e-01  -3.7978651e-01   5.9267614e-01   4.7540120e-01   7.7005875e-01   6.3238945e-01  -3.0125378e-01  -9.1409931e-01   9.7251105e-01  -3.0849867e-01  -8.8118787e-01   9.5921300e-01   4.0334627e-01  -9.3566126e-01  -7.7697988e-01   8.9185668e-01   7.3363795e-01  -9.3587563e-01  -9.9632863e-01   9.4724693e-01   9.9708992e-01   1.0236072e-01   3.6875898e-01  -8.2408792e-01  -8.9031396e-01   7.7806699e-01   1.3757107e-01  -9.9585611e-01   3.3545301e-01  -6.5409206e-01  -7.4080166e-01  -8.1751969e-01  -2.3269010e-01   9.3943419e-01  -9.3303005e-01  -9.2777417e-01  -1.4739180e-01  -7.0614407e-01   6.8629962e-01  -9.2474018e-01  -5.7115641e-01   1.3535881e-03   3.9273531e-01  -4.6389301e-01   6.2612106e-01  -9.0584345e-01   7.0914228e-01  -2.8341804e-01  -9.2142959e-01  -2.5002434e-01   5.2478520e-01   8.4806473e-02  -4.0497829e-01  -8.1954671e-01   2.8854410e-01   8.9027406e-01   9.2172339e-01  -4.6342077e-01   6.4773921e-01  -7.6477377e-01   1.2886271e-01  -1.0810376e-03   6.4833010e-01  -1.5094337e-01  -4.5612585e-01   7.7753244e-01   8.8239474e-01  -3.7302964e-01  -7.0718257e-01  -5.3007595e-01  -7.3880449e-01  -6.9075563e-01  -4.2420921e-01   8.1464203e-01  -4.6222744e-01  -7.4297652e-03  -3.0386460e-01   8.1743387e-01  -9.9776479e-01   2.0145571e-01  -2.5218586e-01   3.1308128e-01  -8.0758452e-01   7.6548845e-01   4.3842104e-01  -9.6150484e-01   7.5177427e-01   7.9047760e-01  -8.9558178e-01  -7.6199568e-01   9.8623691e-01   1.9769225e-01  -1.5353642e-02   1.5552652e-01   1.3660840e-01   5.8049874e-01
  -1.6868749e-01   3.3265189e-01  -1.6446834e-01   2.0871633e-01   9.6539404e-01  -9.7686992e-01  -6.1709318e-01   7.1818632e-01   5.1927753e-02  -2.4171776e-01   6.6698126e-02  -9.4175659e-01  -6.8965760e-02   7.6865817e-01   1.8058223e-01   7.1215121e-01  -7.4165553e-01   4.2829722e-01   6.9176886e-02   6.9745011e-01  -1.7242105e-01   5.2561318e-01  -6.5218013e-01  -4.1291385e-01   6.4651199e-01  -7.1924385e-01   8.6626588e-01   8.0998008e-01  -6.8233974e-01   4.8806919e-01   8.8391462e-01  -3.2353846e-01   1.2264767e-02   7.0912056e-01   8.9399737e-01   4.8380547e-01  -5.7212597e-01   5.8682058e-01  -6.2691741e-01   5.5764698e-01  -1.8972309e-01  -3.5103339e-01   1.0269391e-01   3.3392233e-01   7.1812186e-01  -3.1250733e-01   4.2689013e-01   3.6464954e-01   8.2750801e-03   3.5546371e-01   9.6927955e-01   1.7361247e-02  -2.1332599e-01   7.0329616e-01   6.0533323e-01   8.9386738e-01   1.2641468e-01  -7.6330329e-01  -3.9247379e-01  -4.4447560e-01  -5.8429159e-01  -7.9335922e-01   2.6934757e-01  -7.7183960e-01  -6.1940406e-01   5.6746954e-01  -4.7355233e-01   3.7825775e-01   2.6230787e-01  -4.8740996e-01   5.2908291e-01  -8.8744472e-01   9.8412518e-01  -3.3867662e-01  -9.9467714e-01  -2.1240624e-01  -4.5162289e-02  -2.1517070e-01  -1.2922056e-01  -1.7320424e-01   6.7313109e-01  -4.7097003e-01  -5.1928213e-01  -3.4582056e-01   4.4459398e-01  -9.3394743e-01  -8.6190885e-01   7.0107775e-01  -5.2668531e-01   7.9904136e-01   5.5464504e-01  -9.5085732e-01   6.1793936e-01   1.2464717e-01   7.5406405e-02   8.9286408e-01  -7.8324252e-01  -1.6455724e-01  -6.0843056e-01   4.3457378e-01  -8.8449304e-01   7.0751809e-01   7.1087796e-01   9.5942877e-01   3.1113804e-01  -6.5782541e-01  -3.9293014e-01   4.9646859e-01   4.9022038e-01   2.0840227e-01   5.0387837e-01   7.6127278e-02  -6.2952108e-02   2.1978918e-01   9.6159911e-01  -9.0969162e-01  -2.5387980e-02   4.0802897e-01   9.0530219e-01  -3.5015918e-01   4.4617687e-01   2.9715378e-01   8.9382444e-01   8.5358299e-01   4.3939474e-01  -7.2506261e-01   1.0073285e-01   9.0557734e-01   5.9728229e-01   1.4038188e-01  -2.2483635e-01  -5.7455407e-01   5.5934620e-01  -5.6365462e-01   8.2277942e-02   2.7763074e-01  -2.0349552e-01  -7.4859032e-01  -9.9156655e-01  -2.3774221e-01   5.5470361e-02   8.7214376e-01   1.1214717e-01   2.7669908e-01   2.4100328e-01  -7.9765043e-01   1.5319649e-01   2.5161508e-01   6.9408461e-01   8.4999273e-01   5.9188118e-01   2.4114612e-01  -1.2687922e-01  -1.6243613e-01  -5.0074685e-01  -5.5063027e-01   7.4322810e-01   1.2888913e-01  -7.2871301e-01   4.8464571e-01  -7.1863464e-01  -5.2746470e-01   5.6108996e-01  -8.4952199e-01   8.2872715e-02   3.3329795e-01  -1.2622865e-01  -2.0775847e-01   5.3480169e-01  -1.3236431e-01  -7.6362765e-01  -5.4635065e-01  -6.0797097e-01   2.7620272e-01  -5.0890395e-01   9.4909639e-01   6.3273320e-01   9.1229522e-01   1.3005017e-01  -2.3195041e-01   3.6176475e-01   7.1521027e-01  -9.7924911e-02  -5.1707459e-01  -7.2959245e-01  -1.8372481e-01  -7.8481720e-01  -1.5945100e-01   5.5691500e-01   2.0149925e-01  -9.2207060e-01  -2.8165325e-01   5.1145671e-01  -5.4280382e-01  -5.1142996e-01  -7.4562274e-01  -7.5474465e-01  -7.1585703e-01   7.8892806e-01  -5.4908141e-01  -2.0195073e-01  -3.2433019e-01  -1.6912137e-01  -4.8079084e-01  -2.5883831e-01  -4.4296596e-01  -5.1573930e-01  -6.0988542e-01  -4.4324174e-01   6.4183651e-01   6.7320809e-01   4.3517606e-01   9.0229456e-01  -6.8839748e-02  -1.4993493e-03  -9.7529059e-01  -2.7767227e-01   5.4129539e-01   6.1402892e-01  -4.5412689e-01   6.0364588e-01  -6.3249114e-01  -7.5065997e-01  -7.5130648e-01  -8.1421082e-01  -7.0819878e-01  -9.8789207e-01  -8.5525079e-01  -7.9743203e-01   9.4734387e-01  -9.1207170e-01  -5.2878521e-01   8.9816928e-01  -9.1841252e-01   5.4666867e-01   9.4922211e-01   1.9886622e-01   3.2767639e-02   7.5145060e-01   1.9154746e-01   1.7722143e-01   8.1697887e-01   5.0723643e-01  -8.8207098e-01   7.6931121e-01  -3.2395185e-01  -3.8222030e-01   2.5184977e-01  -2.1136335e-02  -2.4884405e-01   8.1639177e-01   1.9260865e-02   7.1647435e-01  -9.1984555e-01  -6.4700432e-01   7.9030962e-01  -7.0110232e-01   9.7781550e-01  -2.1948630e-01  -9.0308283e-01   5.3082223e-01   2.9111073e-01   1.1062434e-01  -7.8574128e-01   3.2773100e-01   2.3152161e-01   8.2889639e-02  -9.7101254e-01   9.6445519e-01  -8.0385351e-01   6.0331882e-01   4.7616452e-01  -7.0613227e-02  -9.7045817e-01   7.6773575e-01   5.0846954e-01  -1.1918771e-03  -4.5018945e-01  -1.9747705e-01   4.3031728e-01   8.1958234e-01  -9.8643593e-01   3.7761507e-01  -2.7055170e-01  -1.4804542e-01   7.8178078e-01   4.0328201e-01   1.3557917e-01  -8.5899001e-01   5.6669758e-02  -5.2645920e-02  -2.5306509e-01   7.7715525e-01  -6.9534935e-01   8.0829545e-02   4.9994688e-01   8.7115279e-01   7.4911438e-02   5.5544420e-01  -3.3292048e-01  -6.2338708e-01   1.0683410e-01   5.9462532e-01  -7.7634921e-01  -4.4625412e-02  -6.9559302e-01  -3.4355050e-02   3.5484675e-01  -7.8378391e-01  -8.9730605e-01   5.0613812e-01   1.5234465e-01  -3.1794981e-02   9.8415947e-01   1.1660663e-01  -4.8430187e-01  -5.4809205e-01  -2.9579232e-01   1.2623344e-02  -7.3542458e-01   8.1220778e-01  -7.0252568e-01   7.2271576e-01  -7.7007255e-01   2.0966868e-01  -5.5809932e-01  -3.2302215e-01  -8.7415904e-01   7.2836591e-02  -6.2789726e-01   1.1954120e-01  -2.7830623e-01  -7.5532476e-01   5.5992652e-01   2.1741969e-01   8.3485891e-01   8.4986291e-01   6.0939677e-01   3.1240636e-01   1.4221475e-01  -9.4732133e-01  -8.9851777e-01  -8.6891712e-01  -6.1180068e-02   4.6209494e-02   3.4490247e-01  -9.9031279e-01   5.1882893e-01  -2.6604716e-01  -1.3456241e-01  -8.2900832e-01  -8.1827959e-01   8.5663351e-01   1.0275172e-01  -5.6448255e-02   7.8371712e-01  -1.3850801e-01  -3.9766776e-01   6.9596861e-01   8.2668138e-01   5.1596419e-01  -1.0011358e-01   5.8734222e-01  -4.5071700e-01  -1.3565318e-01  -9.6511701e-01  -4.4480308e-01  -7.9960449e-01   6.6201025e-01  -1.7886934e-01  -9.8753418e-01  -2.3755248e-01  -7.3167764e-01  -4.9807956e-01  -6.7030214e-01   2.2124510e-03   2.3330575e-01   6.2994138e-01   6.8443131e-01   3.5611164e-01   6.6732187e-01  -9.2298427e-01   2.7839930e-01  -7.4923459e-01  -9.7623479e-01  -8.8681482e-01   6.9989948e-02  -2.9281410e-01  -6.1607794e-01  -6.3327910e-01  -2.1486202e-01  -2.6796201e-01  -7.4376962e-01  -6.2827680e-01   3.7222033e-01  -4.5621225e-01   6.9450540e-01  -3.1581051e-01   9.9926980e-01   8.5239965e-02   2.8801272e-01  -9.0442547e-01  -5.1470397e-01  -2.2180818e-01   7.6091762e-01  -3.1873095e-01   9.9949547e-01  -5.1278945e-01   3.1653762e-02  -5.5413053e-01  -4.2660617e-01   7.3874862e-01   3.7658005e-01  -1.6179941e-01   1.9202900e-01   2.6347970e-01   3.9237355e-01   1.5296659e-01   5.9251954e-01   1.8543592e-01  -1.2681343e-01  -2.8199498e-01  -1.7334721e-01   2.2447116e-01   3.5478220e-01   8.8166595e-01  -6.4240733e-01  -4.9788736e-01  -6.6580398e-01  -4.5765770e-01  -7.7009329e-01  -4.7622835e-01   4.6679036e-01   6.5542673e-02  -6.5511216e-01  -8.6015394e-01  -7.0936519e-01   8.7336656e-01   5.3851051e-01  -6.5309469e-01   5.2812546e-01   7.7847272e-01   3.5238316e-01  -1.7909586e-02   4.0238017e-01  -5.2273109e-02   7.4018352e-01   3.2381589e-01   5.6865398e-01  -1.3712327e-01   4.9924366e-01   3.0760199e-01   2.2331383e-01  -4.0872179e-01   6.0811348e-01  -4.7521944e-01  -2.0213860e-01   9.1432216e-01   4.8910108e-01   9.3171730e-01  -7.9978347e-02   6.0621563e-01  -4.3311243e-01  -9.1160173e-01   3.2324242e-01   8.6461127e-01   7.2175354e-01   1.5536441e-01   7.8281850e-01   8.4210730e-01  -1.2901253e-02   4.4320674e-01   3.4954155e-01   6.5846812e-01   5.3256709e-01  -7.0507059e-01  -3.1724313e-01   6.5672111e-01  -6.0196605e-01  -3.9016863e-01   2.7841806e-01   5.1067983e-01  -2.8230962e-01  -2.3998252e-01   1.7719796e-01  -7.3112905e-01   2.3946390e-01   4.2292522e-01  -5.5380808e-01  -5.3569645e-01  -5.6194722e-01   8.8028337e-01  -6.1285281e-01  -4.5769847e-01   4.2804169e-02  -8.4754145e-01  -5.2648406e-01   2.5248931e-01   9.7447271e-01  -5.6071289e-02   6.0838004e-01   2.5882038e-01   3.8516094e-01  -7.8123421e-01  -1.4822418e-01   9.8209515e-01  -8.9440611e-01  -9.2174523e-01   1.7652944e-01  -6.9321188e-01   6.4069541e-01   9.0859517e-01   6.7164493e-02   5.3531934e-01  -6.8444913e-01  -8.3258232e-01   3.1983535e-01  -5.3647739e-01   5.0846002e-02   9.6704420e-02  -5.5423437e-01  -7.5220985e-01   2.8915591e-01   9.3040692e-01  -5.1067111e-01  -7.1328995e-01  -8.5698556e-01   2.1324882e-01   9.2914703e-01   2.7623306e-01   9.6707859e-01   6.5099043e-01  -6.2545615e-01   3.8802864e-01  -9.6573681e-01  -1.7728490e-02   7.2642972e-01   4.5383130e-01  -6.8877349e-01   8.2108737e-01   8.9135003e-01  -5.2573030e-01  -4.7108057e-01  -6.9206878e-01   4.4564021e-01   1.4975206e-01   5.4030587e-01  -1.6415254e-01  -4.7251607e-01  -4.6510519e-01  -8.8595946e-01  -8.0470858e-01  -6.2230113e-01   9.7210106e-01  -3.7929617e-01  -4.0221618e-01  -5.4455647e-01   9.2574512e-01  -7.1762257e-01   3.1844849e-01  -1.1056602e-02  -3.9694773e-01  -5.7229639e-01   4.8417135e-01   3.3557309e-01   3.3920437e-01  -2.8335801e-01   5.1079788e-01  -4.5020797e-01   4.4584173e-01   1.5774095e-01  -9.9527103e-01   9.8243804e-01   7.6707265e-01  -3.4614672e-01   6.2373002e-01  -7.5197161e-01  -5.4013409e-01   7.2398550e-01  -4.2379095e-02   4.0201177e-01  -9.5646569e-01  -2.9869534e-01   5.5009124e-02   2.7643967e-02  -4.3611502e-01   7.8591914e-01   3.5037269e-01   5.3455232e-01   2.6748960e-01  -7.1945563e-01   9.4091418e-01   5.4579856e-01   3.0557689e-01  -8.3868551e-01   9.2624707e-01   8.8080126e-01  -7.3146929e-01   1.7184513e-01   2.7752844e-01   3.8915508e-01  -6.9640872e-01  -6.4657515e-01  -5.1974730e-01  -9.6124053e-01  -7.4057376e-01  -4.7543895e-01  -5.3906912e-01   3.1301002e-01   8.6349081e-01   1.1376195e-01   9.7473055e-01  -2.7177377e-01   3.5955057e-01  -4.2446246e-01  -7.6101791e-01   9.5945210e-01   6.6991759e-01  -1.9869287e-01  -3.2003585e-01  -9.1248848e-01  -1.4140337e-01   1.1427419e-01  -2.5233672e-01   7.6151307e-01  -1.3546376e-01  -6.3082003e-01  -3.4701902e-02   5.0098821e-01   4.9843175e-01   8.4344533e-01   7.4423874e-01  -1.6267389e-01   4.6230616e-01   8.6799722e-01   5.9538214e-01   2.9406199e-01  -3.2247710e-01   8.0475102e-01  -2.0724047e-01   4.2009923e-01   5.4375406e-01   6.3469502e-01   1.9605004e-01  -6.6928396e-01  -4.6913627e-01   2.8449314e-01   9.9690366e-01   5.6240906e-02   9.8731953e-01   5.5877810e-01   3.0415975e-01  -9.3573150e-02  -2.4709274e-01  -2.2313427e-01   4.5855375e-01   5.3383997e-03  -4.5437070e-01  -1.1305077e-01   5.1597603e-01   4.5591593e-01  -7.0249226e-01  -9.1760286e-01  -3.3215622e-01   1.7175760e-01  -5.2490938e-01   7.5196705e-01   9.8964534e-02  -8.7251132e-01  -7.7413613e-01  -4.5642718e-01   7.7887577e-01  -5.2250527e-01  -4.7019323e-01   2.0252466e-01   3.8704518e-01  -5.6581980e-02  -4.2944227e-01   5.8989924e-01  -8.2026305e-01   7.9007332e-01  -5.7547278e-01   4.7323835e-01  -3.8281155e-01  -8.5514654e-01  -2.7791487e-01   5.6393616e-01   4.9569426e-01   6.2973228e-01  -8.0374095e-01   4.8545579e-01  -9.0554190e-01  -9.7313946e-01   4.5666333e-01   7.1532882e-02   7.8217044e-03  -5.6243654e-01  -4.0208719e-01   4.6465916e-01   7.9696756e-02   6.6252625e-01   7.0240942e-01  -5.6652937e-01   2.2764155e-02  -5.3677415e-01   2.6221720e-02  -5.2017657e-01  -1.8255480e-01  -9.6264597e-02   8.7715098e-01  -4.5418602e-01  -1.3355772e-01  -4.2669393e-01   6.0381015e-01  -3.7503473e-01  -2.9141004e-01  -7.4058156e-02   2.0681200e-01   7.9375141e-01  -8.4686598e-01   8.3492936e-01  -8.9048395e-02  -4.8255498e-01   5.8619746e-01   4.1924158e-01  -1.0437044e-01   9.5148293e-01  -5.2005515e-01  -6.8143940e-01   9.4658576e-01   7.4267921e-01   4.2667997e-01  -4.9001215e-02   7.1756021e-01  -7.7697308e-01   4.2800163e-01  -5.6273065e-02   9.7565013e-01  -7.8940811e-02  -3.8488858e-01   8.4958891e-01  -9.3526700e-01  -4.8866047e-01   6.2997219e-01   5.7439328e-01  -8.9211770e-01  -9.0861751e-01   2.8676056e-02  -3.9008531e-01   2.0245281e-01   2.1722122e-01  -7.2421624e-01   5.8969671e-01  -1.9579631e-01   2.9639701e-01   8.5497039e-01   1.5213604e-01  -2.4706575e-01  -6.7656557e-01  -8.5091478e-01  -3.6735402e-01  -7.5551349e-01   8.5242789e-01   2.5910921e-01  -1.2289630e-01  -6.0133116e-01   1.2703279e-01   5.9972091e-01   4.1097138e-01  -3.2584336e-01   6.3102755e-01   9.3561253e-01   1.5742123e-01   2.7510926e-01   1.7041480e-01  -1.4696643e-01   2.7141139e-01  -9.7066054e-01   5.5458237e-01   4.8703989e-02  -4.2121376e-01  -5.2804512e-01  -4.1876237e-01   8.6109020e-01  -6.3286946e-01   9.0910924e-01  -5.1582438e-01  -1.1517702e-01  -9.4081405e-01  -2.2675939e-02   6.5830429e-01  -8.6857730e-01   2.0594080e-01   5.6471430e-01   9.4384799e-01  -9.6279981e-02  -7.5983399e-01  -9.9557311e-01   7.9112894e-02   3.3162013e-01  -9.8655054e-01  -1.6706088e-01  -9.4108390e-01   4.4350771e-01   5.6551435e-01  -1.7487771e-01  -2.1744296e-01   2.9750131e-01   3.0839546e-01  -7.6265584e-01  -1.3691502e-01   5.0970547e-01  -1.3746560e-02   5.8751396e-01  -2.3662012e-01  -9.1631644e-01  -8.1566265e-01   5.3672857e-01  -7.4990085e-01   9.1751916e-01  -5.5716847e-01   4.8593229e-01  -9.7428251e-01  -6.6333045e-01  -3.4217375e-02  -1.3742220e-01  -2.1549893e-01  -6.6970476e-01   7.8528151e-01   4.7344034e-01   7.0321775e-02  -6.7800690e-01   3.9885460e-01   8.6639880e-01  -7.9440923e-01  -2.0170599e-01  -8.4584374e-01  -2.4671131e-01   6.3684049e-01  -4.8608338e-01   1.5630662e-01  -9.7442005e-01   4.3462901e-01   3.5317503e-01   3.5716200e-01  -1.8051744e-01  -9.4514216e-01   7.6275974e-03   5.5415832e-01   7.7869136e-01  -7.8421697e-01  -6.4328513e-02   8.0129374e-01   1.7340205e-01   2.4425170e-01   3.7651809e-01   7.6706777e-01   8.7628986e-02  -4.0299270e-01  -3.1153067e-01   4.4023836e-03  -3.6724512e-01  -8.2053201e-01  -6.8519579e-01  -8.6070909e-01   9.0626384e-01   3.7673411e-01   6.9276859e-01   4.9450809e-01  -2.9958559e-01   3.2107447e-01   7.2965325e-01  -2.0772246e-01  -2.6733726e-01   1.8845128e-01   5.3918305e-01   2.0211134e-01  -1.4622934e-01  -6.2778402e-01   2.0131575e-01   7.4841792e-02   3.4345342e-01   9.3194005e-01  -1.9815904e-01   4.1437463e-01  -2.9657840e-01   7.8937866e-01  -1.8581871e-01  -8.4737305e-01  -6.8538252e-02   7.6563466e-01   9.1717968e-01   7.4387396e-01   7.6425456e-01   8.1352417e-01  -7.9040306e-01  -9.1735065e-01   1.7763097e-01   7.7566223e-01  -3.2087182e-01   4.4764978e-01   9.9093225e-02   9.4400325e-01  -2.6289442e-02   2.1094009e-01   8.0952884e-03  -6.9281709e-02  -7.0281344e-01  -4.2857046e-01  -2.0810741e-02   8.8473276e-02  -1.8737764e-01  -8.3692749e-01  -2.0665143e-01  -5.9415404e-01   2.9460030e-01  -1.4294483e-01   3.9669830e-01   6.5390758e-01   6.7109392e-01   8.4899308e-01  -8.9576276e-01  -7.7428172e-01  -6.8785222e-01   3.0268561e-01  -9.8026193e-02  -9.3668792e-01  -5.0769492e-02  -8.8231383e-01  -4.6469728e-01  -4.4601166e-01  -8.7369932e-01  -4.5196853e-01   3.5267120e-01  -6.2889517e-01   9.2962650e-01  -8.1947900e-01  -7.0937068e-01   4.1317051e-01  -1.3812536e-01  -8.4752844e-01  -6.7268171e-01   2.0431876e-01   2.4766403e-01   5.7899727e-01  -4.4347841e-01   8.8348477e-01  -5.6732237e-01   5.0807235e-01  -6.5577197e-01   4.1955937e-01  -9.0642821e-01   7.6069326e-03   4.4178925e-01  -3.0741810e-01  -8.2449608e-01  -6.1441246e-01  -4.7359864e-01   3.2648093e-01  -2.2256277e-02   4.3699883e-01  -7.2719884e-01   4.4957543e-01   7.9986337e-01  -5.7491852e-01  -6.7777010e-01  -2.7226180e-01  -8.6307526e-01  -8.7048587e-01  -7.7218783e-01  -9.2440388e-01   6.5179637e-01   2.5624183e-01  -4.2789355e-01   6.2913687e-01   7.1080074e-01   5.8504863e-01   2.3534350e-01  -3.1205145e-02  -9.0179932e-01  -5.0359394e-01   1.7253061e-01   4.6708619e-01  -3.6486683e-01  -2.1702387e-01   2.6443481e-01   4.8879051e-01  -1.7119191e-01   4.2202661e-01  -4.8826179e-01   6.4978183e-01  -9.6373990e-01   4.1616654e-01   6.2394206e-01  -7.3797212e-01   6.0744552e-01   5.2106928e-01  -1.4462670e-01  -7.5807049e-01   1.1713390e-01
  -2.0762598e-01  -2.1385132e-01  -7.9228346e-01   9.9275377e-01   5.3023267e-01  -3.0637961e-01  -5.7127323e-01  -9.9735019e-02  -9.0939964e-01   4.9656647e-01   2.5242649e-01  -8.0684169e-01   9.8114723e-01  -3.0266063e-01  -8.0897657e-02   8.7209998e-01   7.4131056e-01   2.0660142e-01   5.4079495e-01   6.4009214e-01   8.1050361e-01   6.4623707e-01   6.7178688e-02   4.0042216e-01   5.0829244e-01  -2.0998802e-01  -6.0500495e-01   3.6530203e-01  -8.1365148e-01   8.1165678e-01  -9.8174772e-01  -5.5700374e-01  -1.0380323e-01   8.6599002e-01   2.0513875e-01  -2.9262641e-01  -4.1876506e-01   7.6891908e-01   6.7827493e-01   1.1787986e-01  -4.1128528e-01  -7.4233567e-01  -5.6062566e-01  -1.7506197e-01  -2.1880769e-01  -8.8719296e-01   3.1378186e-01  -8.9507440e-01   9.7204123e-01   4.6547588e-01  -4.3171151e-01  -1.8983259e-01   5.3534974e-01  -7.2995877e-01  -6.6750517e-01   6.7855933e-01   4.9605470e-01  -8.7984196e-01   7.5894367e-01  -5.1088206e-01   7.3454623e-01   7.3359020e-01  -1.6682132e-01   5.4738408e-01  -1.2875424e-01   3.8263319e-01  -7.3184660e-01   7.2286923e-01  -4.4322979e-01   3.5387627e-01  -3.0405192e-01  -7.5305453e-01  -3.6263478e-01   1.0971483e-01   1.6229634e-01  -8.2455551e-01  -6.4054654e-01  -2.5071442e-01  -2.4458000e-01  -6.5107886e-01  -2.7262075e-01   7.9406701e-01   2.8770198e-01  -6.1164955e-01  -9.1677255e-01  -7.7383254e-01  -6.3559186e-01  -3.5968404e-02   9.6759885e-01   7.6295437e-01   4.2558450e-01   9.6133078e-01   3.4839427e-01   4.1961257e-01   9.9772442e-01   5.9535426e-01   6.2649164e-01   6.7652010e-01   8.3369147e-01  -3.9625285e-01  -2.8607068e-01  -1.4429283e-01   3.1198109e-01  -3.8884848e-01   8.1807909e-01  -1.9245728e-01  -2.3431588e-01  -5.6021777e-01  -7.8432611e-01   6.4456834e-01  -7.3017374e-02  -8.6353228e-01   6.7374838e-01   7.0078817e-01   8.3332034e-01  -6.7445255e-01   4.4958785e-01   8.5118130e-02   8.9014362e-01   9.4279397e-01   4.0390959e-01   3.8159549e-01   6.1927408e-01  -1.8550872e-01   7.9392754e-01  -6.2832611e-01   2.3918264e-01   1.5037452e-03  -5.8173523e-01   5.2877100e-01  -4.0850787e-01   6.2288669e-02  -8.3824022e-01   1.5861446e-01   8.8069309e-01   4.7875939e-01  -5.8805599e-01   3.5086551e-01   5.2362785e-01   2.4120388e-01  -4.8125278e-01   4.9689587e-01  -9.7316398e-01   7.6160853e-01   1.1729507e-01  -2.2129653e-01   8.7664407e-01  -7.5452589e-01   6.2605395e-01   4.6569471e-01  -4.1687781e-01  -6.2351452e-01   2.3943193e-01   3.6951884e-01   1.7251711e-01  -5.8777772e-01  -2.7738111e-01   1.2333528e-02   4.7228920e-01  -4.4899775e-01  -9.7420452e-01   1.2789119e-02  -6.1409717e-01   3.6624616e-01  -9.1549750e-01  -7.4226018e-01   5.4560761e-01  -8.3614141e-01   1.8990238e-01   8.0590960e-01   6.5363385e-01  -7.0805909e-01   5.9016355e-01  -4.4505015e-01  -9.6091371e-01  -8.2918529e-01   9.5286091e-01   3.0293940e-01   6.6973191e-01  -3.4580782e-01  -5.3308137e-01  -5.7515240e-01   7.2858998e-01  -3.4986174e-01   8.9656474e-01  -2.2408780e-01   7.3526256e-01   9.5768587e-01   4.2317216e-01  -8.1768181e-02   7.0438533e-01  -9.3066692e-01  -1.9630116e-01  -2.7816173e-01  -2.3497330e-02   4.3456829e-01  -9.6210753e-02  -9.6433336e-01  -8.9632114e-01  -7.7852367e-01   1.3947576e-01  -3.4697754e-01   6.4355149e-02   8.5677452e-01  -4.9204470e-01  -1.0562814e-01  -8.7517120e-01  -4.2290687e-01  -2.4202783e-01  -5.4040850e-01  -6.9538689e-01   3.2536360e-01   8.2652141e-01   9.0827823e-01  -4.4043873e-01   7.7142282e-02   8.1930259e-01  -1.9846727e-01  -6.3049297e-01  -3.2869237e-01   9.4813375e-01  -5.0232632e-01  -2.2976177e-01   4.6308910e-02   2.9493489e-01   4.0777521e-01  -3.6573497e-01  -1.9023571e-01  -4.1306232e-01  -9.3012279e-01  -5.2917865e-01  -4.3262129e-01   8.3067724e-01   1.8562591e-01   6.8562125e-01   5.2331270e-01   5.7905674e-01  -8.0903598e-01   9.3388863e-01   6.5821328e-01   1.3882593e-01  -7.0108247e-01   7.2034323e-01  -7.1261911e-01  -5.0040833e-01   3.1815259e-01  -1.1827977e-02   8.3916185e-01   7.2532608e-01   3.9126048e-01  -7.0269019e-02  -9.4936026e-02  -1.5000165e-01   7.7703973e-01  -9.7397763e-01   3.8796779e-02  -6.1336427e-01   6.3522746e-01   3.8102035e-01   5.8060831e-01   7.2643344e-01   3.9987287e-01  -8.4738727e-01   2.8623573e-01   6.6261668e-01   6.0732742e-01   4.0691839e-01   9.5494252e-01   5.8996182e-01   5.0629072e-01   9.6362405e-01   8.2066794e-02  -3.0963784e-01   2.4586138e-01   9.2528802e-01  -3.8502819e-01   5.8122859e-01  -6.1573167e-03   2.0616428e-01   6.4749350e-01   4.8008463e-02   1.9426273e-01   3.2523699e-01  -4.2994989e-01  -4.2123434e-01   7.9017018e-02   4.1524745e-01  -5.8229416e-02   7.2582360e-01   5.6082176e-01   1.5153181e-03   7.9222248e-01  -6.0725534e-02   6.0911409e-01   1.3313334e-01  -5.5004334e-01   3.1369872e-01  -5.4954181e-01  -1.9347207e-01   5.3695208e-01  -4.4763852e-01  -3.6650735e-01  -7.7057518e-01  -4.4854555e-01   7.6346920e-01  -1.2437135e-01  -5.8220790e-01   7.6971619e-01   2.8131356e-01  -3.5746733e-01   1.9496714e-01   7.0759609e-02  -1.0417868e-01   4.3702401e-01   5.0037657e-01   8.0377290e-01  -8.0791110e-01   8.3395112e-01   2.3710862e-01  -2.6085852e-01  -2.4856927e-01   9.8224841e-01  -4.8827588e-01  -7.0803297e-01   6.2809717e-01  -7.7518633e-02   4.1409089e-01  -4.0556337e-01   7.4428038e-01   9.9222964e-01   7.9273070e-01  -3.7285539e-01   9.8333882e-01   6.5675695e-01  -9.3446337e-01  -8.7893475e-01  -6.8565828e-02  -1.0631416e-01   7.5205282e-01  -2.6851606e-01   8.4262763e-01  -4.5552260e-01  -6.1949668e-02   7.2621431e-02   5.0301782e-01  -1.8350638e-01  -4.3240185e-02  -9.8853137e-01   6.4616599e-01  -7.4487008e-03   4.3306424e-03  -6.4162838e-01  -2.0339896e-01  -6.3506203e-01   5.7636156e-02  -6.3763741e-01  -4.8149454e-01  -8.5137707e-01   6.5279988e-01  -2.5875491e-01   1.1066879e-01  -6.2996083e-01  -3.8436172e-02   5.8640386e-01   9.7140415e-01  -3.3453034e-01   7.7224518e-01  -5.4031606e-01   6.5316150e-01  -5.9405380e-01  -1.6732145e-01  -1.5835108e-02  -1.2673893e-01  -4.3298987e-01   1.1733131e-03   8.6437474e-01   1.8701548e-01  -2.4583871e-01  -1.5212244e-01  -4.3342879e-01  -3.3031681e-01  -6.9286666e-01  -4.6804660e-01   1.3562561e-01   3.3723273e-01   9.6733455e-01   7.0374814e-01   4.8557246e-01   5.7800500e-01  -6.2146214e-01   6.4012664e-01  -1.0594679e-01  -3.9044321e-01   4.5369459e-01  -7.3887044e-01  -2.8358942e-01   4.1782574e-01   8.8736835e-01   6.2453804e-01  -4.2932083e-01   4.3718976e-01  -6.7065498e-01  -8.1810531e-01  -5.3072775e-01   4.2082409e-02  -7.1040098e-01  -2.4636745e-01   4.1519433e-01   4.4541039e-01  -4.0599612e-01   2.2162495e-01  -5.2421629e-01  -6.9782699e-01   1.7819255e-02  -8.6333123e-01  -1.6534121e-01  -1.8774426e-01  -8.4410170e-02  -4.3401591e-01  -6.9089913e-01   2.8208578e-01   2.7899399e-01  -1.9310099e-01   9.4451784e-01   6.1156212e-01   8.2876674e-01  -4.6251413e-01  -1.0404153e-01   1.9213909e-01  -6.5279877e-01  -3.3722245e-01   3.2120068e-01   8.5317514e-01   5.6554460e-01  -7.9316454e-01  -7.3295702e-02   3.3865016e-01   1.3087762e-01  -9.9088826e-01   5.7601034e-01   6.5723825e-01   8.8164920e-01   5.1607425e-01  -7.4901999e-01   1.9789403e-01  -9.2592832e-01  -9.4339269e-01  -6.9561152e-01  -1.3809342e-01   1.6867272e-01  -8.9371177e-01  -1.6102554e-02  -4.3190804e-01  -5.4244902e-01  -1.0403400e-01   1.6287278e-02  -8.4337944e-01   3.5338120e-02   6.9772359e-01   8.9733542e-01  -4.7113588e-01   4.1586968e-01   7.9055394e-01  -6.5397284e-02   5.7164400e-01  -5.4841553e-02  -8.7371996e-01   1.9733228e-01  -7.4786057e-01   9.1394483e-02  -7.0638408e-01  -9.6629368e-01  -2.7729731e-01   3.1265052e-01   4.5856688e-01  -6.0920492e-01  -5.4332626e-01  -5.0575641e-01   7.0786173e-01   4.0187048e-01   1.6874207e-01   6.9387437e-01   5.3045288e-01   1.2863091e-01  -2.3091982e-01  -3.3916420e-02   4.3054584e-01   6.3309854e-01   3.4787740e-01  -9.9073402e-01  -7.1309964e-01   3.0286602e-01  -1.9586823e-01   2.8352370e-01   8.6308107e-01   9.3763870e-01   1.5039027e-01  -6.6101876e-01   5.4206092e-01   7.6386807e-01  -8.6570164e-01  -7.6338222e-01  -7.2378437e-01  -7.9377920e-01  -8.1158460e-01   1.0632020e-01   9.8977941e-01  -4.4017831e-01  -9.6087695e-01   4.5106260e-01   5.9516346e-01  -8.2875334e-01   4.8009033e-02  -2.5079511e-02   5.6825953e-01   2.3141931e-01   9.9569196e-01  -7.6189544e-01   3.6674754e-01   1.5760081e-01   7.0307180e-01  -2.8664396e-02  -9.6217672e-01   2.2810422e-01  -1.6397996e-01   1.9389935e-01   7.4746397e-01  -4.2840461e-01  -3.1770838e-01  -4.1973410e-01   5.0291634e-01  -1.5004575e-01   3.7216777e-01   7.2642315e-01   2.2050771e-01  -4.0820473e-01  -3.9661483e-01  -9.5236853e-01  -2.3374649e-02  -6.9861683e-01  -2.6669397e-01   2.9467605e-01  -5.8228792e-01   6.0208544e-01   6.4208032e-01   7.2784984e-01   7.6940730e-01   9.1471386e-01   7.2758431e-01   5.7025424e-01   5.0490882e-01  -3.8158800e-01   5.6776207e-01  -1.5450877e-01   3.5084682e-01   1.5530263e-01  -4.0918770e-02   2.8273260e-01  -4.5262400e-01  -8.3027784e-01  -9.8835012e-01  -1.9852976e-01  -6.6876535e-01  -4.5309305e-02  -7.2208347e-01   8.4477611e-01  -6.5746750e-01   4.9500301e-01   4.5459988e-01   4.2522545e-01   2.1151587e-01   4.1030422e-02   3.4697912e-01  -5.2179819e-01  -6.0827380e-01  -7.2967965e-01  -3.8971986e-01   6.8672910e-01  -8.4829950e-01  -8.1723898e-01   8.6616095e-01  -3.0468008e-01  -1.2616872e-01   3.6427927e-01  -3.3049138e-01   4.3399086e-01  -9.2600260e-01   2.5914696e-01   5.5447754e-01   3.0758950e-01  -9.6403903e-01  -6.0775607e-01   7.2733130e-01  -8.1296260e-01  -1.4369872e-01  -9.3113813e-01   9.0289574e-01  -9.9746791e-01   9.1901843e-01   8.7136858e-01  -4.1530786e-01   3.6961804e-01   3.5924081e-01   9.6095392e-01   4.9564606e-01   2.2321969e-01  -2.0411059e-01   8.0014526e-01  -6.8317518e-01  -4.0317514e-01   1.3265993e-01  -9.0229336e-01   5.2090104e-01  -1.9412021e-01   5.7419740e-02  -5.9440522e-01  -1.2437200e-01   6.7347680e-01  -4.9693851e-01   7.6186382e-01  -8.9438761e-01   6.9152005e-01   9.2751426e-01  -3.8266686e-01  -4.9498303e-01   9.4743738e-01  -8.8514392e-01  -9.1479527e-01   4.0750638e-01  -3.2225851e-01  -2.9852303e-01   7.6048875e-01   3.5955364e-01   1.6385066e-01   2.2109377e-01  -8.9092990e-01  -3.4721823e-01  -2.7205808e-01  -1.7898376e-01  -6.8230590e-01   9.7164316e-01  -4.5872177e-02  -3.1326127e-01  -2.9909491e-02   1.2604755e-01  -9.1468362e-01  -1.7123114e-01   8.6139158e-02   4.8411373e-01   9.9883998e-01   1.5154251e-01   5.8621567e-01   4.8287725e-01   1.1708050e-01  -9.1163767e-01   8.9333449e-01  -1.4141214e-01   4.1063365e-01  -8.6120316e-01  -9.6095170e-01  -3.4174077e-01  -1.1131025e-01   3.9473001e-01  -5.0267318e-01  -1.1170151e-01   6.8078226e-01   3.2768919e-01  -6.8951931e-01  -9.5422792e-01  -4.8896958e-01   4.0498316e-01  -7.8155817e-01  -9.6148499e-01  -7.5735159e-01  -9.3539824e-01   3.6891720e-01   3.8607497e-01  -1.9344446e-01  -1.3600455e-02   4.7360399e-01   8.9107996e-01  -7.8640574e-01  -6.8235928e-01  -6.6565095e-01   2.8387716e-01  -1.9607364e-01   5.9439687e-01   2.2856724e-01  -9.8362803e-01  -6.5283540e-02  -7.8319083e-01   6.8099946e-01  -1.9334189e-01   7.4291343e-01   7.8319920e-01   9.5765262e-01   6.3175258e-01  -7.5861455e-01   6.7918532e-01   6.7617325e-01   4.3183002e-01   4.1567136e-01   9.5685689e-01  -8.3225094e-02  -9.2330883e-01   9.6566211e-01  -3.2132189e-01  -7.9837808e-01   4.2660186e-02  -1.3924026e-01   7.2249239e-01   8.1550039e-01   4.6106439e-01   3.6442820e-01  -7.3438006e-01  -6.8772205e-01  -6.6756501e-01  -8.5026288e-01   1.9986589e-01   7.4369823e-01  -8.4394162e-01  -7.7377765e-01   3.7542868e-01  -8.1623606e-01   4.5104037e-02   1.1892658e-01  -9.2484630e-01   1.0944174e-01   2.8702482e-01   1.1410585e-01  -8.6603015e-02  -7.6615058e-01   2.6075802e-01   3.7808943e-01  -3.2827393e-01  -3.4721636e-01  -1.7414981e-01  -5.8295912e-02   9.1437621e-01  -4.0547926e-01   5.8187976e-01   9.6505144e-01  -2.0890317e-01   6.7126267e-01  -6.3871935e-01  -7.9494068e-01  -1.5876234e-01   6.9996919e-01   2.2377169e-01   3.9282422e-01  -3.6550142e-01   1.4000475e-01   1.0853048e-01  -6.4593599e-01   4.2476639e-01  -3.1360339e-01   2.3492596e-01   2.7698732e-01   4.3048258e-01   8.2833937e-01   2.2200643e-01  -2.7771665e-01   4.8861162e-01   7.3154733e-01  -3.7369502e-01   3.5573887e-01   4.5395612e-02  -9.3504760e-01  -8.1030631e-01   7.7328133e-01   6.3930348e-01   2.0573598e-01   8.8392185e-02   4.1425644e-01   9.3770013e-02   5.8409268e-01   4.9274724e-01   7.0567868e-01  -1.3011819e-01  -7.9508631e-01   3.7306895e-01  -5.8769309e-01  -8.4979867e-01   3.2487381e-01  -1.2639293e-01  -8.4325060e-01  -9.6040923e-02  -1.8940869e-01  -9.1629115e-01  -2.1113354e-01  -5.9990991e-01  -7.2474683e-01   5.3083853e-01  -5.6994479e-01  -7.7190302e-01  -2.7132684e-01  -8.4179826e-01  -6.4058968e-01  -5.3763242e-02   2.2448544e-02  -7.1457941e-01  -3.4925692e-01   1.5423830e-01   8.8247668e-01   1.5564825e-01   5.0543017e-01  -9.4522992e-01   7.7333977e-01   7.7671408e-01   1.3848089e-03  -7.2896149e-01  -5.8282052e-01   3.2240379e-01   1.8801434e-01  -5.3316866e-01   9.6112631e-01   2.8174356e-01   1.0502232e-01   6.7982381e-01  -3.2719119e-02  -3.1890121e-01  -2.6786971e-01  -6.4653842e-01   2.9862500e-01  -5.0660151e-01  -5.0262651e-01   8.6717867e-01  -5.7841040e-01   2.1892487e-01   4.0125442e-01   1.2528131e-01   5.6031870e-01   8.2503465e-01  -1.3149816e-01   8.9938676e-01   4.8335681e-01   8.6035342e-01   2.1496124e-01   3.6073307e-01   6.3684801e-01  -4.6832291e-01   8.2562444e-01  -7.5816907e-01  -5.8107133e-01  -2.0961569e-01  -8.2035376e-02  -3.5698978e-01   2.8038366e-01   3.2801764e-01  -1.4311892e-01  -5.9782629e-01   6.8947124e-01  -2.4933229e-01   4.4899893e-01   9.0896702e-02   5.7117050e-01  -7.5306487e-02   2.0740121e-01  -3.1414642e-01   6.5254053e-01   6.2490667e-02   4.3974219e-01  -3.5433538e-01  -8.4698245e-01   7.5572435e-01  -1.4285407e-01  -9.7799325e-01  -5.3789211e-01   2.0738273e-01   3.5455129e-01   9.5179892e-01   1.5601863e-01  -2.9172155e-01   6.3389183e-01   7.0064141e-01  -9.4348542e-01  -1.8544729e-01   1.8975777e-01   1.1815763e-01  -4.8120933e-01   3.8585704e-01  -4.0795456e-01  -3.6386609e-01   2.9397755e-01   2.1316051e-01   2.4981176e-01   3.4157315e-01   4.5972757e-01   6.2554698e-01   8.7371579e-01  -7.5366130e-02  -9.4192575e-01  -2.0738402e-01   4.1654903e-01  -4.8742105e-01  -9.9825305e-01   1.6173393e-01  -9.7022429e-01   1.1666107e-01  -8.1074202e-01   8.3453703e-01  -7.4445507e-01   7.5674354e-01  -5.9439038e-01   1.4091808e-01   5.7313998e-01  -2.8602355e-01  -2.0541750e-01  -3.0773585e-01   5.0041628e-01  -1.2157304e-01   6.5913956e-01   3.5441354e-01   9.5538115e-01   2.0119216e-01   6.4370145e-01  -1.6091618e-01  -6.5800949e-01   2.3003531e-01  -3.7694350e-01   7.8651842e-01   1.8329309e-01   4.7083835e-01   3.0282561e-01  -6.5130657e-01   4.1561339e-02  -8.5407282e-01   5.2959225e-01  -3.1334915e-01  -9.0450245e-01   2.8903762e-01   3.4485559e-01   1.6052382e-01   9.4995264e-01  -4.2419868e-01   3.3512155e-01  -6.6083571e-01  -3.9664716e-01   2.2982549e-01  -8.8715905e-01  -4.1362829e-01   1.4763831e-01   5.3525480e-02   4.0770407e-03   3.4020035e-01   2.7569559e-01  -2.2238388e-01   7.0421384e-02   5.9874944e-01   8.0331701e-01  -2.8597580e-01   8.9784802e-01   6.2893549e-02   5.7274558e-01  -6.7614878e-01  -4.8103231e-01  -7.9971865e-01  -6.5456278e-01  -3.8937081e-01   9.8962234e-01  -4.3869415e-01  -9.2453577e-01   6.4064829e-01  -5.7375046e-01   4.1614395e-01   3.5750156e-01   1.4714634e-01  -7.3341074e-01  -7.0607801e-01   6.9931679e-02  -5.5509730e-01  -6.0618589e-01  -3.9756938e-01   9.3524482e-01   1.7425273e-01   9.0222462e-01  -8.3144708e-01  -1.7587932e-01   4.5291343e-01   9.7817122e-01   5.9322065e-01  -4.9950146e-01   7.8110003e-01  -6.9381845e-01  -5.2184034e-02  -6.8057294e-01  -2.0212285e-01  -7.5926947e-01   6.7918064e-01  -9.6409839e-01  -8.9641668e-01  -7.1941725e-01  -7.2703262e-01   8.6786019e-01   8.3383100e-01  -2.4386143e-01   6.8923510e-01  -5.5753269e-01  -5.7652410e-01  -7.8393603e-01
   6.2760003e-01  -5.6960207e-01  -7.7229440e-01   6.6923274e-01   1.0286590e-01   8.7889564e-01   4.9696961e-01   3.5734346e-01   8.5740408e-01   8.6359244e-01   3.2466756e-01   6.0168662e-01  -2.1039273e-02  -6.2302825e-01  -7.5902519e-01  -8.5455894e-01   1.9006548e-01   1.7198685e-01  -5.8815194e-02  -1.0160496e-01   5.3213292e-01   3.0974687e-01  -3.5543178e-01  -2.6754226e-01  -1.6872040e-01  -3.2872812e-01  -2.5007584e-01  -6.1819032e-01  -6.4957412e-01  -1.2443214e-02   6.2474472e-01   6.1680902e-01   2.7911356e-01   4.1512608e-01   9.4783530e-01  -5.4007831e-01   9.2396984e-01  -8.8895157e-01   7.1648383e-01   2.2429260e-02  -1.7188269e-01  -2.2429389e-01   7.4800983e-01   2.5495608e-01   1.8650952e-01   9.3507099e-01  -1.3907424e-01   8.8009849e-01  -2.6524720e-02   8.9027623e-01  -8.4280032e-01   6.6465546e-01  -1.8991125e-01   7.9084482e-01  -8.5985102e-01   3.9439086e-01   7.3350354e-01  -8.0635035e-01  -3.6422411e-01   4.1963670e-01  -3.3040900e-01  -7.9300343e-01   4.9895224e-01   6.3846883e-01   8.5555523e-01   2.5610303e-01  -8.2316473e-01  -4.1714183e-01  -5.7150721e-02  -3.9893974e-01   3.7392882e-01   4.3123225e-01  -1.3317419e-01   5.1661921e-02  -8.5633012e-01   9.3701278e-01  -7.5748437e-01   6.6701629e-01   6.8711427e-01  -7.6058636e-01   5.7571419e-02  -3.2958843e-01  -2.4167566e-01   5.6670628e-01   2.4423569e-02   1.2071061e-01  -6.0004776e-01   9.5814591e-01   4.7227988e-01  -1.0314775e-01   2.2410546e-02  -3.0672082e-01  -9.5717224e-01  -5.8052996e-01  -5.2068865e-01  -5.1082445e-02  -5.2539330e-01  -4.1427677e-01   4.8183268e-01  -1.9070054e-01  -7.6162814e-01   3.6405830e-01  -8.2291984e-01   9.9037703e-01   2.7581047e-01  -9.6434687e-03   5.9090502e-01  -4.0150976e-02  -8.7201067e-01   4.4884508e-01   2.2005397e-01   9.8965233e-01   2.9344803e-01   8.3091369e-01   6.9300290e-01   3.4869814e-01   7.7381502e-01   6.2851759e-01   6.0723605e-01   1.6063083e-02   9.8577919e-01   1.7120230e-01   5.9003713e-01   3.7078586e-01  -3.9013490e-01   3.7975890e-01   1.9421660e-01  -6.2495980e-01   6.7414075e-01   8.7215233e-01   6.0863517e-01   6.1605261e-01   7.6482770e-01  -7.1504849e-01  -7.1738290e-02  -5.3498792e-03  -3.0219801e-02   5.9556802e-01  -5.3732295e-01  -3.4990041e-01   2.6290977e-01  -7.6796808e-01   2.8528139e-01  -7.8693425e-01  -8.8943904e-01   8.0573122e-01  -6.4954696e-01  -1.2022756e-01  -2.8997285e-01   7.3749409e-01  -4.9083720e-01   4.7327615e-01   7.9900417e-01  -1.4546244e-01   1.2359151e-01   9.5193102e-01   2.1534396e-01   1.4748946e-02  -4.3958607e-01   7.4561116e-01  -3.0091376e-01  -8.8195489e-01   6.7010755e-01   9.9906540e-01   2.3691427e-01   9.4437593e-01   3.7337949e-01  -9.5324805e-01   2.0154568e-01  -2.0589120e-01   5.2211316e-01  -4.2964013e-01  -3.9794453e-02  -7.6116432e-01  -1.9292914e-01  -6.1043647e-01   6.1930097e-01  -6.8595274e-01  -7.6925881e-01   5.4957808e-01   2.9112671e-01   8.4307826e-01   8.0511856e-01  -8.2554733e-01   8.2385767e-01   9.2203548e-01   4.2269736e-01  -8.8266808e-01  -9.4022723e-01  -9.3578575e-01   8.3250370e-01   7.2343619e-01  -2.3832836e-01   3.6989399e-01   8.8485214e-01   4.7191682e-01  -4.7273407e-01   2.6384665e-02  -4.3581341e-02   8.1269950e-01   1.4489290e-01   9.4991455e-01  -7.9568762e-01   9.6703418e-01  -8.1396737e-01   2.5097089e-01  -8.4273138e-01  -8.7579504e-01   5.1597342e-01   2.5801211e-01   9.0810444e-01  -2.4410114e-01   1.5723930e-01  -1.7074106e-02  -5.2775666e-01  -7.5751356e-01  -4.0094465e-01   8.8410606e-01  -5.0557810e-01   1.9065988e-01   5.5294093e-01   9.2378439e-01  -9.1056412e-01  -7.5281084e-01   7.3462980e-01  -5.6490145e-01   6.9614959e-01   6.9192759e-01   3.5045819e-01  -5.4561309e-01   2.7079554e-01  -1.6083002e-01   6.5357770e-01  -2.5548572e-01   1.3116762e-03   8.3556789e-01   8.5656869e-01  -9.2646870e-01   9.7461229e-01  -6.7285273e-02   1.1111225e-01  -7.7297555e-01   9.2886938e-01  -9.7916633e-01   6.3804350e-01  -6.7640599e-02  -2.3543175e-01   7.6423884e-01   1.2937604e-01   7.3743696e-01  -3.8165560e-02  -2.9808022e-01  -6.4775775e-01   7.4488757e-02  -5.6258388e-01  -2.9379888e-01  -1.3355694e-01  -2.0042237e-01  -5.3271397e-03   2.2140629e-01  -9.2809100e-01  -8.6903379e-01  -5.4489218e-01  -7.4759415e-02   6.0407444e-01   2.6684370e-02   2.8342030e-01  -3.9174818e-01  -7.3003932e-01  -8.6107923e-02  -9.1611599e-01   6.8692006e-01   7.5223419e-01  -3.7476745e-01  -2.2916717e-01  -5.0269282e-01   9.9827884e-01  -5.4410780e-01  -5.9463262e-01  -1.4738625e-01  -8.0096093e-02  -6.9262024e-01   9.8944145e-01   3.7609064e-01   4.4616643e-01   7.5237438e-02   7.0398976e-01  -4.8653329e-01  -9.3919922e-01  -7.1788891e-01  -7.1889925e-01  -7.3546683e-01  -2.8106497e-01   1.5133348e-01   9.5542828e-01  -7.5052513e-01   3.4298529e-01   5.6997010e-02  -7.3039044e-01   1.3985696e-02  -8.0230013e-01  -3.0955860e-02   9.5115805e-01   1.4107062e-01  -7.4281866e-01   6.7777470e-01   5.5212436e-01   4.4175307e-01  -5.5174357e-01  -2.2007567e-01  -5.8864894e-03   6.5445220e-01   3.7172458e-01  -7.5914531e-01  -8.7587552e-01  -6.9498121e-01   3.5467458e-01  -1.8205118e-01   8.2597378e-01   2.3479676e-01  -7.8364665e-02  -3.7292040e-01  -3.6897654e-01  -3.4926525e-01  -8.3522427e-01  -4.3225497e-02   5.1519284e-01   8.6824693e-01  -2.5576055e-01   7.2621663e-01  -3.5430406e-01  -8.6677388e-02   7.9719548e-01   5.8174503e-01   8.2831889e-01   1.1082077e-01   4.1279437e-01  -4.9372710e-01  -4.8783599e-01  -1.8823142e-01  -2.5507018e-01  -4.7980542e-01  -8.5732401e-01   6.2027651e-01  -9.4465155e-01  -4.8875129e-01  -3.9632087e-01   1.5384891e-01   6.5669992e-01  -1.7751548e-01  -5.9527083e-01  -1.5994167e-01  -5.7564298e-01  -4.5436388e-01   6.1043141e-01   3.2829383e-01   7.3775984e-01   6.3624772e-01  -8.1753570e-01  -7.9463097e-01   6.8746707e-03  -8.8079328e-01  -7.3502034e-01   9.2489101e-01   1.4283410e-01   5.2409070e-01   4.2127653e-01  -1.8538254e-02  -3.8371438e-01  -7.2780863e-01   7.3246291e-03  -1.8096160e-01   1.5044313e-01   1.3057828e-01   3.2924553e-01  -7.2182928e-01   5.7891007e-02   2.5744643e-01   4.5844863e-02   7.7402669e-01  -9.1208927e-01  -2.1971303e-01  -4.6507360e-01  -4.4354458e-01  -9.1503555e-01  -1.7905735e-02  -1.9461721e-01  -5.4229626e-01  -4.4797774e-01  -2.0660932e-01  -8.9243300e-01  -2.9934394e-01  -6.9173990e-01   5.6093524e-01  -1.9723535e-01  -3.4048078e-01  -5.0390631e-02  -8.8192045e-01   3.4581708e-01   4.8791095e-02   6.4629264e-01   8.6713703e-01  -4.7779359e-01  -3.2311924e-01   8.3594325e-01  -4.1893754e-01  -4.6746339e-01  -3.3384459e-01   9.8553480e-01  -4.6151795e-01   1.2891285e-01   6.7162360e-01  -9.7221744e-01   6.5864505e-01  -9.9204157e-01   2.4543803e-01   4.3804649e-01   7.8139442e-01  -6.9863262e-01  -6.0572882e-01   5.2889822e-01   9.0414234e-01   6.7099583e-01  -9.6822099e-01  -8.9621906e-02  -9.0679669e-01  -4.3580391e-01   7.5805322e-01  -2.2342250e-01  -2.9162013e-03   4.8248532e-01  -8.8248452e-01  -3.4896746e-01  -3.5233015e-01  -2.9197857e-02   8.9048779e-01  -1.7151899e-01  -9.9788346e-01  -8.8230269e-01   8.5069893e-01   7.9433290e-01  -6.5554743e-01   3.0265918e-01  -6.7525935e-03  -2.9599199e-01  -5.3076447e-01   5.7476565e-01  -2.3287287e-01  -5.3579869e-01  -2.8714258e-01  -3.4022302e-02  -8.2017598e-01   9.3385793e-01  -7.1776290e-01  -9.2176830e-01   4.6129028e-02   2.8287809e-01   3.6443375e-02   6.3009900e-01   3.5880052e-01  -9.2578119e-02  -3.4754458e-01   5.0686316e-01   9.5482465e-01   2.7242301e-01  -8.3605607e-01  -8.8182569e-01  -5.0612788e-01   3.8776711e-01   9.2237561e-01   6.3943317e-01   6.8473726e-01   4.0100610e-01   6.0155041e-01  -1.6072226e-01  -8.3417514e-01  -6.3152331e-01  -2.9354711e-01   9.3605763e-01   3.6463121e-01   3.7352982e-01  -8.8015331e-02  -3.1236315e-01  -4.6559594e-01  -6.6562020e-01  -1.7749773e-01  -9.4383042e-01   8.6892840e-01   2.9694608e-01  -8.8806764e-01  -3.8755355e-01   8.8180158e-01  -7.5147958e-01  -4.5607610e-01   6.3980441e-01   2.3331835e-01  -5.7387391e-01  -6.8518566e-01  -3.9050379e-01   2.6584386e-01  -5.2830447e-01  -4.2348830e-02  -1.7427795e-01  -4.0482604e-01   5.1522963e-01   1.4649082e-01  -9.2619170e-01   4.6654003e-01   2.1352626e-01   7.4451528e-01   8.5119952e-01   7.4086678e-02  -6.0231317e-01   4.6930909e-01   1.1623502e-01  -6.9227696e-01   2.7991568e-01  -3.6538364e-01   1.3865402e-01  -6.6312624e-02  -4.3006118e-01   7.9395946e-01   5.5894728e-01  -4.0042297e-01   7.3737178e-01   9.8934399e-02  -3.0418692e-01  -9.0490155e-01  -5.2894372e-01   5.2344451e-01  -4.5128777e-01  -9.3596851e-01  -5.9261711e-01   8.1998510e-01   9.0675625e-01  -3.3661544e-01  -7.8890322e-01   1.8238851e-01  -2.2505943e-01   8.9961933e-01  -1.1939784e-01   5.7838337e-01  -1.8480618e-02   2.2917702e-01   9.3505251e-01   3.9243807e-01  -1.6697180e-01   5.9559531e-01   1.1287959e-01   9.3461837e-01  -8.5182675e-01   2.8331595e-01  -2.5369413e-02  -8.7275772e-02  -1.7023713e-01   4.5441198e-01  -2.8972239e-01   6.8593337e-02  -5.2858457e-01   5.8318883e-01  -1.0679495e-01  -8.3646380e-01   8.4374786e-01  -3.5555740e-01   9.2467162e-01  -6.4687825e-01  -8.3617644e-01  -6.2003790e-01   9.6252257e-01   4.8582952e-01   6.0135044e-01  -2.8521373e-02  -8.6413098e-02   3.3758090e-01  -9.3081057e-01   1.8034499e-02   6.6922654e-01   1.5555636e-01   4.1923050e-01  -4.5000108e-01   5.6218127e-01  -5.0243023e-01  -7.6435315e-01   7.6555403e-01  -8.2483078e-01  -7.0985088e-01  -4.5044469e-01   9.7320218e-01  -7.3643216e-01   2.8588857e-01  -5.9774934e-01   7.1037875e-01   1.4348903e-01   1.2582880e-01  -7.7225273e-01   2.0896805e-02   9.9723517e-01  -8.1070317e-01   4.9493638e-01   3.0222223e-01   9.5793939e-01  -4.8033013e-01   3.6609624e-01  -8.9455386e-02   3.6168878e-01  -8.1156110e-01   1.4838158e-01   4.0298773e-01  -4.5769297e-01  -6.9235432e-01   8.7964034e-01   4.5196951e-01  -8.8969000e-01   8.8044597e-01   3.6785417e-01  -7.1732822e-01  -7.5163028e-01   3.4313118e-01   9.0738808e-01  -7.2401143e-01  -7.8039721e-01   2.7343290e-01   3.4362927e-01  -3.6867623e-01  -1.9190733e-01   4.8123011e-01   8.5385049e-01   7.1054570e-01  -8.3209788e-01  -1.2972769e-01   4.5877331e-01   1.2510054e-02   8.3421610e-01  -4.6433783e-01   8.0948735e-01  -8.4496054e-01  -2.9550680e-01  -3.1195619e-01   5.3820160e-01  -2.1645615e-01   9.7978182e-01  -5.6999105e-01  -2.9765436e-01   7.5766144e-01   2.8805251e-01   1.0522052e-01   6.6166156e-02   2.4604835e-01  -3.2364410e-01   2.5873680e-01  -2.2864436e-01   7.5679310e-01  -4.3252352e-01   1.2259499e-01   4.8761961e-01   5.4479692e-01   8.4136380e-01  -2.0740017e-01  -2.8727984e-01  -5.3007326e-01   8.9923386e-01   7.9436756e-01   5.2771059e-01   5.6029352e-01  -4.2444852e-01  -4.4252633e-01   8.6527122e-01   2.8054566e-01   7.6381196e-03   3.4153051e-01  -3.3696422e-01   1.2418311e-01  -8.8185440e-01  -4.0213520e-01   8.7819224e-01  -6.4828109e-01   7.2510760e-01  -4.8835135e-01  -9.9203402e-01  -3.9253099e-01   4.8847388e-01  -7.0646726e-01  -9.7031383e-01   1.8792220e-01   5.2705183e-03  -3.4807281e-01  -2.2490345e-01   4.4351104e-01   5.0159034e-01   6.7658663e-01   9.8985995e-01   5.3152315e-01   9.9389129e-01  -8.2665671e-01   1.1313851e-01  -3.6095966e-02   8.4150408e-01  -3.2715174e-01   2.1868892e-01   9.0197621e-01  -9.8465521e-01   5.9631153e-01   1.7157042e-01   5.8297216e-01  -9.7067923e-01   6.8533808e-01   5.5309287e-02  -4.8835892e-01  -8.9100581e-01   6.1087460e-01  -3.1977612e-02   9.4440079e-01   4.1082887e-02   8.9345610e-01  -9.0287358e-01   1.5419240e-01   4.1590360e-01   7.6211512e-01  -7.2788278e-01   7.8129185e-01   6.0987401e-01   7.5838806e-02  -2.9142894e-01   5.0193371e-01   4.2407043e-01   2.3076612e-01   9.3870650e-01  -7.1245288e-01   4.6196089e-01   4.9582202e-01   9.7610910e-01   7.2768744e-02  -1.9726532e-01  -9.7891956e-01   1.9038618e-03  -8.7662326e-01  -9.4770594e-01   7.6384610e-01   5.6822008e-01   6.0569115e-01  -5.5893516e-01   4.7781880e-01   2.1474401e-01  -8.7655606e-01   9.8128666e-01  -8.6561267e-01  -8.2093159e-01   9.0114737e-01  -9.6098267e-01  -9.9899476e-01   5.9715305e-01   3.1691976e-01  -2.6595843e-01   1.9850879e-01  -1.3306234e-01   6.5335807e-01   4.7331539e-01  -9.1437843e-01  -6.7531295e-01  -7.0258173e-01   1.4272684e-01  -4.5637272e-01  -2.5870749e-01   8.3752741e-01  -8.9476264e-01   3.6252677e-01  -4.6885936e-01  -7.6725498e-01   1.6789936e-01  -9.3815089e-01  -9.4446235e-01  -2.4573599e-02  -5.7532211e-02  -5.4932345e-01   4.9902706e-01  -4.2489293e-01   9.4022913e-01  -3.9638828e-01   7.0672187e-01  -3.8219200e-01  -2.8361294e-01  -7.5011011e-01  -5.0824416e-01   2.8204700e-01   1.1632353e-01   3.3026888e-01  -9.1314538e-01  -7.3897508e-01   9.0765385e-01  -9.5944171e-01   2.6458884e-01   9.1461809e-01  -8.6891445e-01  -7.2513884e-01   7.0711761e-01   2.8679371e-01  -8.1847664e-01  -3.6514177e-01  -3.9849542e-01   4.5067543e-01   1.1027802e-01   8.5075687e-01  -2.2840743e-01  -3.4627009e-01   9.8808890e-02   9.4552343e-01   7.7841065e-01  -6.4546439e-01  -4.8084925e-01   6.9905274e-01  -6.1634175e-01   5.6795093e-01   4.2684541e-01  -6.7705192e-01  -3.5985595e-01   7.3144802e-01  -7.5598838e-02   6.5108017e-01  -6.4340673e-01   3.8139561e-01   6.4980509e-01   6.6531973e-01   2.5494264e-01   7.1205556e-01   8.0926431e-02   4.2034558e-01  -7.2765826e-01  -9.0566661e-01   6.1420459e-01  -7.7547241e-01  -4.4885840e-01   1.2622819e-02   2.3758447e-01   7.3433256e-01   9.4078749e-01   6.6933670e-01   7.7768317e-01   4.7536796e-01   8.1550546e-01  -4.1746353e-01   2.8381496e-01   9.8324425e-01   4.1816300e-01  -3.2175467e-01  -4.4211685e-01  -4.4976989e-01   1.2972717e-01  -5.4407643e-01  -2.2826147e-01   2.8027585e-01   9.0215675e-02   6.9367626e-01  -2.0107408e-01   8.1857801e-02  -4.1821956e-01  -5.4974287e-01  -7.6532383e-01  -2.9611514e-01  -5.1684037e-01  -4.7626603e-01  -3.7544059e-01  -5.3083996e-01   5.8427511e-01  -2.8721506e-01   7.5175058e-02   5.4713573e-01  -3.5606404e-01  -4.9289503e-01   9.9670970e-01   4.6977234e-01   4.2521277e-01  -3.6777442e-02  -4.3667946e-01   2.8835019e-01  -3.7628742e-01  -9.7908347e-01   1.7118088e-01  -9.5253800e-01  -3.1308143e-01   1.6087664e-02   6.4854253e-01  -8.2739468e-01  -1.2700796e-01  -6.6960117e-01   6.1896223e-01  -6.8865355e-01  -5.9758195e-01  -8.9892197e-01  -2.2566311e-01  -1.4864535e-01   5.5340558e-01   4.6757065e-01  -3.8274597e-01   4.3516122e-01  -3.5945366e-01   5.1612706e-01   2.3436729e-01   1.4114192e-01   3.3764059e-02   4.2060646e-01  -2.7235918e-01   8.0606491e-01  -4.9958841e-02   3.0866919e-01   6.0424749e-02   5.2745671e-01   3.7161061e-01   8.3872166e-01  -2.5111816e-01  -6.7355438e-01  -4.1909562e-01   3.7978722e-01   2.0997617e-01   3.2541602e-01  -5.7101128e-01  -6.7836844e-01   5.8441162e-01  -9.7257625e-01   8.3077359e-01   9.7836847e-01   9.6252303e-01   7.1692062e-01  -7.2687271e-01   7.4603082e-01  -2.2201230e-01   9.9489095e-01   6.9586920e-01   6.6653002e-01  -3.8752338e-01   8.5933991e-01  -8.9241706e-01  -3.7646999e-01  -1.8385089e-01   1.5980535e-01   8.7048644e-01   9.1427473e-01  -2.6641908e-01   9.9007188e-01   9.6348629e-01  -5.9008092e-02   5.4565746e-02  -4.4687026e-01   8.2505472e-01  -8.9015398e-01  -3.5055470e-02   6.6808101e-01  -1.7037474e-01  -2.9417354e-01   2.6246756e-01  -3.6148415e-01   7.4308817e-01   2.0516370e-01   8.0272688e-01  -8.2553334e-01  -5.0968457e-01  -9.3255152e-01   6.6928699e-02  -1.2642178e-01   1.9451203e-02  -9.4466330e-01  -1.7432687e-01   7.1520875e-01  -7.7060075e-01   1.0510847e-01   5.9788517e-01   2.6680056e-01   5.7405869e-01  -8.7238600e-01   1.3401630e-01  -9.1029606e-01  -1.6627564e-01  -5.6232746e-01   9.8163240e-01   8.5285554e-01  -1.1038336e-02  -8.4506978e-01  -6.1598982e-01   1.7386309e-01  -6.1288695e-01  -1.4863094e-01   1.5489477e-02  -5.1010254e-01  -8.9625143e-01   1.5025290e-01  -3.0179769e-01  -6.8432329e-01   3.3639680e-01   9.4226733e-01  -3.7897235e-01   8.1263474e-01  -2.8038821e-01   3.2712732e-01   8.0794937e-01   8.6251552e-01   6.7762530e-01  -6.2003010e-01  -6.5797599e-01  -8.0117497e-01   7.6181113e-01  -1.0400709e-01
  -9.6140947e-01   8.1391759e-01   7.3452722e-02  -4.8613636e-01  -2.1038887e-02  -4.3843302e-02  -7.2285880e-01  -7.5103184e-01   6.7500978e-01  -4.7928886e-01  -8.5974066e-02   7.1649603e-01  -8.8255881e-01  -5.8944169e-01   3.7489509e-01   4.0329088e-01  -1.8110612e-01   7.3502000e-01  -4.1479225e-01  -9.3897484e-01  -3.2234193e-01  -1.0234146e-01  -3.3830534e-01   8.5253236e-01   2.6935638e-01  -6.6364710e-01   5.6213669e-01   7.0630537e-03   6.8284448e-01   8.1283657e-01   2.6196092e-01  -8.6566527e-02  -6.0409697e-01   1.5046466e-01  -5.3514438e-02  -2.0786420e-01   7.2541603e-01  -6.0491641e-01  -6.0638262e-01   2.0133291e-01   8.4646911e-01  -1.3258955e-01  -2.3328433e-01  -5.6835131e-01   7.5038346e-01   1.0454777e-01   6.8337218e-02   1.5516304e-01  -1.6269427e-01   7.5848514e-01   7.1386971e-01  -7.5919935e-01  -8.0449415e-01   5.4105263e-01   2.7801814e-01  -7.9800018e-01   7.5838917e-01  -6.4808017e-02   4.1633496e-01  -7.0570523e-01  -6.9706836e-01   3.5733050e-01  -6.1385221e-01  -8.0975720e-01   9.3229561e-02  -9.6751383e-01   1.3175246e-01  -7.4022520e-01  -3.1538887e-01  -9.6692810e-01   6.6867405e-01   5.2764561e-01   2.9914944e-01   7.4298980e-01  -8.5145186e-01  -3.6662962e-01  -4.1999136e-01   2.6585224e-01   4.3383735e-01   9.3797397e-01   9.7333517e-01  -5.5667801e-01   3.4612006e-01  -3.0518488e-01  -4.7285867e-01   3.2444961e-01  -7.6280399e-02   3.2073712e-01  -3.6707656e-01  -4.1088021e-01  -6.7457010e-01   4.1344024e-01  -5.3717155e-01   3.2299770e-01  -6.5080643e-01  -1.7980592e-01   5.3558880e-01  -8.2197338e-01   1.2629832e-01   2.9544736e-01  -5.0999958e-01  -7.0368329e-01  -6.0169473e-01  -6.6003647e-01   4.4567729e-01  -1.8493380e-01  -5.2587084e-02  -8.1069162e-01   9.4085757e-01  -1.4938263e-01  -7.1508764e-02   4.2954179e-01   9.1155484e-01   4.2572510e-01  -1.5303821e-03   8.1016589e-01   4.1474684e-01   1.9262758e-01  -2.5718520e-01   2.3704079e-01   3.9298871e-01  -1.6209539e-01   5.5281310e-01  -7.6414413e-01  -4.5801375e-01   1.0682251e-01   7.4094382e-01   6.4635136e-01   2.3249620e-01   8.6776733e-01   4.7096460e-01  -7.7781276e-01  -8.1812036e-01   2.2004952e-01  -5.9282479e-02  -5.4903438e-01   4.6460389e-01  -6.9246785e-01  -1.9976684e-01   2.8073648e-01  -3.3719061e-01   6.0295100e-01   5.4894133e-01   4.8414562e-01   4.9291076e-01  -4.3321092e-01  -7.1298411e-01   1.5692177e-02   7.7094543e-01   2.3115024e-01  -4.3014712e-01   3.5327396e-01   1.3974080e-01   6.6958814e-01  -2.7307630e-02  -4.5641715e-01  -7.4211469e-01  -2.5723518e-01   5.1725869e-01  -1.7459070e-01   2.9325264e-01   5.7105177e-01   5.3149145e-01  -7.6660433e-01  -9.2077548e-01  -3.1690934e-01   4.9097338e-01  -6.5229194e-01  -4.1586571e-01   7.5259389e-01  -5.3764879e-02  -2.0526978e-01  -9.9666054e-01  -7.0815826e-02  -6.9378425e-01  -1.3569660e-01   8.1276561e-01  -8.6578259e-01   9.0146228e-03  -8.3878527e-02  -9.5621170e-01  -7.1533980e-01  -1.1316156e-01  -2.0669169e-01  -6.5446344e-01  -1.4678835e-01   7.3707570e-01   2.5733148e-01   7.6013268e-01   6.8666742e-01  -1.4945658e-01  -5.2433617e-01  -7.3725981e-01   5.2608858e-01   1.3289785e-01   8.8249091e-01  -8.5372055e-01   3.4207365e-01   3.4523024e-02   6.9687116e-01   2.9181136e-01  -8.6345961e-01   9.0565399e-01   2.0625159e-01  -2.9607645e-01  -4.5779530e-01   7.2574714e-01   7.2368483e-02   2.2473406e-01  -2.7380090e-01   7.2652742e-01   9.7344762e-02   1.2413427e-01   7.1358773e-01   5.3786175e-01  -1.5730080e-01   3.3202711e-02  -9.6877072e-01   8.2299784e-01  -7.3762871e-01  -5.1413077e-01   7.6660898e-01  -3.5324112e-01  -8.9312458e-01   9.4433775e-01   8.7792236e-01   9.9245040e-01  -4.6336184e-01   7.5616703e-01  -9.6147929e-01  -2.5723344e-01  -5.0235240e-02   7.7118505e-01   2.3766885e-01  -2.6239634e-01   3.5124922e-01  -4.1524284e-02  -7.6977596e-01  -6.4148875e-01   6.4193539e-02  -1.3780333e-01   7.5928006e-01   8.1669519e-01   6.4483049e-01  -5.3713926e-01  -9.2807159e-01  -3.0773950e-01  -8.7083875e-02   3.9831376e-01  -2.4016484e-01   3.8317123e-01   7.5587149e-01  -6.9043478e-01  -2.4347524e-01  -4.3186888e-01   5.4153373e-01  -3.9113203e-03  -9.5166944e-01   6.5353056e-01   4.3953407e-01   8.4417186e-01   2.1806607e-01   6.5124844e-01   2.6992764e-01  -8.1374860e-01  -3.9921520e-01  -6.4883088e-02   1.7869902e-01   2.9929797e-01   1.9264281e-01   7.4195532e-01  -8.5890363e-01  -2.5115660e-01   8.4499890e-01  -1.9263793e-01   2.0599005e-01   6.7608319e-01  -8.4055719e-01   8.9819566e-01  -9.5288386e-01   9.6308480e-02   1.3379095e-01   3.5019323e-01  -1.5167528e-01   3.6130077e-01  -9.6190422e-01  -6.5301975e-01  -9.7339660e-01  -3.8509989e-01  -2.7402861e-01  -4.3811157e-01  -5.1256994e-01  -5.4703948e-01   9.6914732e-01  -4.5285827e-01   3.1175171e-01  -3.4672826e-01  -3.5867972e-01  -9.7955982e-01   1.6250841e-01   5.6797511e-02  -8.6798846e-02   3.8816684e-01   5.6768734e-01  -4.8013398e-01   2.3608063e-02  -5.5945415e-01   1.6772144e-01  -1.0050524e-01  -1.2709050e-02  -2.7007987e-01   5.0482237e-02   4.5597121e-01  -5.6010911e-01   3.8679361e-02   4.4169419e-01  -2.9769081e-01   9.1766857e-01  -1.0240489e-01   4.6479650e-01  -3.9845030e-01   6.3065423e-01   1.1437481e-01   1.2822009e-01  -2.3547992e-01   4.9513554e-01  -3.9213764e-01   1.2129615e-01  -1.5999298e-01   8.8243620e-01   9.2447311e-01  -6.9289751e-01   6.2003402e-01  -2.3440921e-01   1.3303963e-02   4.4660074e-02   1.7277750e-01  -1.2316919e-01   9.9978860e-01   3.1447331e-01  -6.1399462e-01   8.8432064e-02   8.1959356e-01  -1.1390836e-02   6.9094155e-01  -2.1804861e-01   6.1041951e-01  -7.5291643e-01   4.4392696e-01  -3.6043637e-01  -2.4252733e-01  -6.5182887e-01  -2.3682587e-01   5.0411864e-01   6.2232259e-01  -7.7030084e-01   6.9760393e-01  -4.8847730e-01   9.0284446e-01  -2.8962903e-01   7.0056955e-01  -8.7423564e-01   4.2093146e-01   2.3677135e-01   1.2506598e-01  -5.0911493e-01  -1.6961854e-01   7.2986993e-01  -3.7364679e-01  -5.0702588e-01   9.7194766e-01   2.3956093e-01  -4.0961708e-01   4.7355392e-01  -1.6188815e-01  -7.3758432e-01  -4.9513193e-01  -4.7049594e-03   1.8238395e-01   3.2554471e-01   7.4770687e-01  -1.1472269e-01  -8.8963357e-01   2.1999979e-01  -6.6564295e-01  -5.3703817e-03   5.2866900e-01   6.2760446e-01  -1.1775083e-01  -6.0592239e-01   5.0093925e-01   2.7355874e-01  -2.0261485e-01  -9.9720924e-01  -1.9025468e-02   9.6142936e-01  -9.4604075e-01   8.2682529e-02  -2.8130161e-01   4.2613819e-02   6.4537622e-01   8.1388942e-01   9.8581305e-01   6.2768493e-01   3.5655443e-01   8.7385951e-01   4.2516927e-01   2.2949576e-01   7.7384141e-01  -2.0178743e-01   7.3737335e-01  -7.9214721e-01   4.4336100e-01  -8.6687894e-01  -2.9893398e-01   8.1619612e-01   6.2086507e-01   3.0968483e-01   9.3819695e-01  -2.4938535e-01  -5.3132859e-01   6.4654880e-01  -9.6873314e-01  -3.1163471e-01  -4.0513564e-01   2.0426345e-01   4.6620282e-01   7.8550795e-01  -8.5652442e-01   9.6379306e-02   2.2715262e-01  -7.5660614e-01  -2.8626758e-01   7.4016373e-01   1.5803171e-01   3.1185302e-01   6.4246405e-01   5.7526873e-01  -9.5611531e-01   2.8221265e-01  -1.5257238e-01   6.0192357e-01  -3.7561392e-01  -6.9253221e-01   9.4386046e-01  -2.2420247e-01  -5.1851464e-01  -4.6788901e-01  -4.3629673e-01   4.9206282e-01   7.5679813e-01  -8.2405040e-01   7.0027479e-01   5.2570898e-01   4.5387336e-01  -5.1528192e-01   7.0315143e-01   1.4126979e-01  -3.3867735e-01  -9.2041345e-01  -2.3169071e-01   4.7183195e-01  -7.4174131e-01   1.2372587e-01   5.4861801e-01  -3.4894335e-01  -9.6711238e-01  -7.2817813e-02   1.5054617e-01   6.9295446e-01  -5.6417742e-01   5.0317031e-01   9.4838337e-01  -2.6202653e-01  -3.8918745e-01  -5.5056739e-01  -5.7941954e-03  -5.8071013e-01   8.7792077e-01  -7.6248844e-01  -3.9711652e-01   7.1931082e-01   3.0624682e-01  -5.5587485e-01  -7.4436541e-01   6.8588406e-01   7.7575800e-01  -9.8584560e-01  -8.3546786e-01  -4.4558580e-01   9.9111029e-01  -7.0594818e-01  -2.3730430e-01   7.0239236e-01  -4.8762505e-01   2.1463995e-01  -5.2815478e-01   1.7627458e-01   8.3117261e-01  -5.6687027e-01   7.3826510e-01   2.1260189e-01  -4.3086887e-01  -1.9213975e-01   9.3343791e-01  -2.7650600e-01   2.9658039e-01   6.9500103e-01  -3.1316807e-01   7.5913397e-01  -5.5833507e-01  -9.1757262e-01   9.7230736e-02  -2.8421179e-01  -6.1488268e-01   4.1321468e-01   1.4858344e-01  -9.3220477e-01  -8.1652737e-01   8.1716231e-01  -1.5303316e-01   4.1371502e-01   5.2313944e-01  -1.4595784e-01   5.6482497e-01  -1.7455932e-01   9.1666850e-01   9.0011463e-01  -5.1132299e-01   2.5958499e-01  -3.6752651e-01   8.9410177e-01   5.1159851e-02  -9.7531205e-01   5.2752988e-01  -7.8585011e-01   7.1221515e-02   5.8005229e-01  -9.2221319e-01  -8.7334789e-01   7.0428478e-02   5.8320980e-01  -8.5087554e-01   8.1023004e-01  -3.8560616e-01  -9.3480392e-02  -5.1602544e-03  -7.7309105e-01  -8.4095296e-01   2.0796107e-01   1.5996741e-01   9.3362891e-01   3.7963988e-03  -3.8647465e-01   6.6047184e-01  -7.1643674e-01  -7.6472236e-01   7.5303931e-01  -4.6078899e-02   4.1807408e-01  -9.3170525e-01  -1.4399437e-01   4.8034702e-02  -6.1399600e-01   4.4743782e-01  -4.0257992e-01  -3.3148691e-01   3.9199661e-01  -9.0633287e-01   3.6378678e-01  -9.2274078e-01   9.5573800e-01  -8.8006442e-01   8.4428444e-01  -4.1304393e-01   7.5843852e-01   9.7031578e-01   3.0608337e-01  -9.3628096e-01   6.5781787e-01  -9.9863055e-01   3.6167372e-01   7.9352909e-01   8.0966258e-02   6.4004984e-02  -7.5514381e-01   2.2268873e-01   4.1981300e-02   9.3077089e-01   7.1286777e-01  -9.7283273e-02  -4.9130852e-01  -6.0861059e-01   7.2074909e-01  -2.0296737e-01  -2.1192736e-01   5.6088711e-01   3.5758620e-01  -4.4968122e-01   5.5568481e-03  -4.2201309e-01   9.1481219e-01   8.0177115e-01   4.4898086e-01  -3.0421532e-01  -5.2608958e-01  -9.2251176e-01   9.0139754e-01   4.6756406e-01  -2.2868263e-01   1.7164585e-01   3.2846519e-01  -6.4800458e-01   4.4325010e-01   7.1309615e-01  -4.1289656e-01   5.4458965e-01  -1.6726295e-01   3.4199767e-01   6.9485497e-03  -6.4339102e-01   4.2068489e-01  -8.6959084e-01   3.2475968e-01  -6.3324632e-01  -7.7994080e-01  -4.2546101e-01   8.7859172e-02  -7.6560721e-01   1.1476787e-01   5.6031689e-01  -2.5615959e-01   9.2106339e-03   9.6316565e-01   7.1440899e-01   5.1174515e-01  -2.2958615e-01   3.3954523e-02  -3.8151622e-01   9.3961102e-01   3.8379914e-01   8.4487889e-01  -1.5777516e-01   3.7948566e-02   2.2822758e-01  -2.5286987e-01   2.4065398e-02   2.5716381e-01  -2.7577632e-01   1.8366488e-01  -8.2569997e-01   3.8217361e-04  -9.3137372e-01   2.5933733e-01  -6.2156177e-01   7.9245565e-01   4.1646278e-01   5.2512141e-01  -3.2993366e-01  -8.0369848e-02  -4.8591284e-01  -9.3176527e-01   8.5792191e-01   3.5986894e-01   7.6925957e-01   9.7290559e-01  -4.9546620e-01   6.4445354e-01  -4.7514176e-01   4.7318412e-01  -1.3246611e-01   6.0594212e-01  -2.2398149e-01   3.0668429e-01  -4.7678136e-02  -8.4854000e-01  -3.2697623e-01   7.9396286e-01   5.1301603e-01   4.0439360e-01   4.4416626e-01   9.0148016e-01   7.6575752e-01   4.8889437e-02   9.5345730e-01  -4.1566765e-01   4.7385970e-01   9.7364370e-01  -8.8885578e-02  -1.9931269e-01  -5.3388442e-02   7.8494615e-01   5.6898042e-01  -4.1196304e-01  -7.1379643e-02  -1.2494016e-01  -6.9295417e-01   6.7750208e-02   7.3320605e-01   9.3208475e-01   1.8524513e-01   4.5132973e-01   7.2263348e-01  -1.5462988e-01  -4.2414413e-01   6.8315277e-01   5.8162956e-01  -8.8615716e-01  -8.5403690e-01   4.4440066e-01  -1.7500829e-01  -9.2321244e-01   6.8971353e-01   1.7065805e-01   8.8388637e-01   8.4224724e-01  -7.5025734e-01  -7.2798386e-01  -1.5761124e-01   3.6659386e-01   1.4661199e-01   6.7290573e-02   3.4065006e-01  -9.4388885e-01   3.1212946e-01   9.3272005e-01   8.3414035e-01   4.0735784e-01  -3.2027037e-01  -6.5672491e-01   4.6029159e-01  -2.8921016e-01   3.1322899e-01   3.7330050e-01   9.5044342e-01  -1.3877487e-01  -6.8219470e-01   9.0576972e-02   6.1882935e-02   4.1083689e-01  -3.5674691e-01   3.6125413e-01   3.4935457e-01   8.1810002e-01  -7.3088543e-02   8.1069629e-01   4.3264270e-01  -7.0646837e-01   1.0860302e-01   3.4080888e-01  -6.0428606e-01   5.9279567e-01  -8.9399995e-01   4.6647245e-01   5.9896551e-02  -2.8747130e-01   7.9560117e-01  -9.7071133e-01   2.9146706e-01  -9.2187304e-01  -3.8266125e-01   4.2947518e-01   6.0627361e-01   8.3865379e-01   4.4650516e-02  -3.9956580e-01   8.1434976e-01  -9.2345099e-01   7.7746510e-01  -7.5038307e-01   8.7556013e-01   6.8892122e-01   4.4281057e-01  -3.3541440e-01   4.7642283e-01  -3.2494321e-01  -9.2706901e-01   6.2473841e-01   1.1310137e-02   2.3961300e-01  -4.6851843e-02   7.3527360e-01   5.6759470e-01  -8.1090467e-01   8.5334546e-01   1.6614039e-01   4.1270716e-02  -6.5216027e-01  -1.0032277e-01  -6.3358349e-01  -2.9586367e-01   6.5022226e-01   6.1639672e-01   8.6187564e-01  -2.2439369e-01   5.9248132e-01   8.2088233e-01   4.0758340e-01   8.5073263e-01  -7.8024203e-01  -6.5194963e-01  -4.7998548e-01   7.8396080e-01  -4.2247359e-01  -1.5608829e-01   3.1654229e-01   6.2749436e-01  -5.3621018e-01  -4.8877619e-01   1.9795831e-01  -3.8819925e-02  -3.3275982e-01   9.2802982e-01   8.7316958e-01   2.1978993e-01  -8.5393747e-01   8.5608262e-01   3.0370679e-01  -3.1600810e-01   6.8095939e-01   5.3566707e-01   2.7291464e-01   7.8386898e-02  -3.7045445e-01   7.0239441e-01   9.3572075e-03   6.0512810e-01  -1.4142565e-01  -2.1878686e-01  -3.7496470e-01   3.4966737e-01   3.0376363e-01   3.6871126e-01  -5.9919116e-01   5.5697608e-01   6.5569825e-01   8.7970350e-01   7.3808327e-01   5.2826499e-01   2.8031407e-01   6.6184455e-02  -2.8221556e-01   3.3611132e-01  -7.7419091e-01   5.2776999e-01   9.5021960e-01   5.2979081e-01  -1.9565160e-01   4.9474203e-01   1.1735121e-02  -4.8588276e-01   9.6087134e-01  -2.7507730e-02   2.9166992e-01   8.1115908e-01   8.1064560e-01  -8.8028524e-01   5.6517877e-01  -7.8587665e-01  -1.3306475e-01  -2.8819592e-01   7.8006852e-01   5.1659147e-01   9.6567552e-01  -5.5400508e-01   7.9684733e-01  -2.8689965e-01  -4.5360775e-01   7.0296830e-02   5.7548626e-01  -1.7734204e-01  -2.1078410e-01  -3.4212378e-01  -4.9541291e-01  -7.9770590e-01  -3.2410348e-01  -7.9209826e-02  -1.1552317e-01  -8.8499278e-01  -8.1391071e-01  -8.1017523e-01  -7.1259534e-01   1.9713863e-01  -8.8070049e-01  -8.8650507e-01  -1.2472709e-01   1.1268995e-02  -9.8898067e-02  -2.7812937e-01  -4.3436473e-01  -3.3920909e-02   7.2192043e-01   3.6032288e-01  -5.3028289e-01  -2.1096153e-02   2.2457246e-01  -8.8347103e-01  -4.6594906e-01   9.8131011e-01  -9.3320146e-01  -3.9173816e-01  -9.9780199e-01   2.3488513e-01   4.2671405e-01  -9.5373461e-02   5.5169650e-01  -4.6537715e-01  -5.0569674e-01   8.1774652e-02   1.1348157e-01  -1.0707170e-01  -3.8424007e-01   8.0712800e-02  -9.3142878e-01   4.9712367e-01   1.6593029e-01  -1.8887871e-01  -4.1147897e-01  -1.4448246e-02   4.3236667e-01  -8.7015434e-01  -1.3908325e-01   8.3218264e-01   5.7239080e-01   4.5482944e-01  -2.5672604e-01   7.4303996e-01   8.8330278e-01   5.7126731e-01  -7.1236360e-01   1.3543010e-01  -1.8070693e-01  -6.6671434e-01  -7.2218360e-01  -6.3872855e-01  -8.7260889e-01   4.4705102e-01   2.0035820e-01  -9.7986988e-01  -7.6970563e-01  -1.4975919e-01   4.0878190e-01   6.8777856e-01  -9.8978682e-01  -9.2211445e-01  -4.0753358e-01  -5.3584348e-01  -4.3367854e-01   6.4948172e-01   6.7756519e-01  -4.3188126e-02   4.0697943e-01   6.2673746e-01  -2.1526393e-01  -4.1954314e-01   2.7484725e-01   9.2783359e-01   4.0360346e-01   5.0128919e-01   7.9228186e-02   1.1212649e-01   5.4867778e-01  -4.5102620e-01  -8.5729517e-02   1.2362301e-01   5.8516041e-02   1.5065729e-01  -2.6499666e-01   6.8654251e-01  -3.9454729e-01  -4.0791999e-01  -2.3417586e-02  -3.1279602e-01  -5.8906315e-01   4.9225315e-01  -7.6727032e-01   6.8650053e-01  -7.1735258e-01  -7.7500300e-01  -5.0825695e-01  -2.6329721e-01  -5.3963509e-01  -1.6688745e-01   8.5661029e-01   8.0786443e-01  -2.8268903e-01  -6.5046136e-01   2.3698112e-01  -2.5863414e-01  -5.5375902e-01   6.4121349e-02   8.4359377e-01  -1.1460470e-01   3.9990588e-02  -3.6859318e-01  -4.5456599e-01   6.9522440e-01   5.6621767e-01  -3.1995248e-01  -8.0519966e-01
  -9.8072074e-01   2.8545924e-01  -5.9833072e-01  -8.0574525e-01   2.6070804e-01   4.4167511e-02  -1.6906133e-01  -4.7607312e-01   5.5371348e-01  -1.9277788e-01  -2.8088202e-01  -1.1446883e-01  -5.7238346e-01  -7.5265179e-01  -9.3253292e-01  -7.8371407e-02   9.0659947e-01   9.2326725e-01   7.7242594e-01  -2.5757089e-01  -3.3949418e-01  -7.2628033e-01  -4.8483817e-01  -4.2755084e-01  -2.6684674e-01   7.5990724e-01   9.9846767e-02  -1.8945967e-01   2.4604879e-01   6.7787293e-01   4.0653987e-01   7.0108054e-01   6.3189159e-01  -6.6995576e-01   5.6443611e-01  -6.8880510e-01  -4.2219046e-01   2.8243993e-02  -6.2694221e-01   1.3357695e-01  -5.1914426e-01   9.4996004e-01   6.0601722e-01   7.5481532e-01   8.0075053e-01  -5.5946297e-01  -7.2164682e-01   4.1964487e-01  -8.8825137e-02  -6.2853276e-02  -3.9681166e-01   2.8717351e-01  -8.8527407e-01  -7.0612102e-01   3.7837675e-01   7.8948580e-01  -9.9207061e-01   2.2128554e-01   5.6959921e-01   9.0924279e-01  -5.9445648e-01  -4.8192962e-01  -2.4363422e-02   9.4081854e-01   4.5679950e-01   6.9538553e-01   8.3824983e-01  -3.7871683e-01  -4.0843740e-01  -5.8662786e-01   4.2681403e-01   1.2907908e-01  -8.7753673e-01   3.7830412e-02   8.7251814e-01   2.0575156e-01   2.6035081e-01  -2.6214633e-01   3.2065714e-01   6.7840661e-01   7.5484308e-01  -1.2860855e-01  -1.2685103e-01   9.0620986e-01  -8.8349933e-01  -2.6251824e-01  -5.4630146e-01   7.6777065e-02   7.6242621e-01  -4.5301512e-01   9.7183616e-01  -7.6167968e-01   8.4940973e-01   6.3413561e-01  -9.4976673e-02   2.3127906e-01   4.3353746e-02  -5.0165836e-01  -4.5933493e-02  -1.3344423e-01  -2.9233833e-02   6.9184889e-02   8.3680512e-01   7.9684724e-01   1.8679434e-02  -4.1310528e-01  -6.3341040e-01   9.5780761e-01   4.8987964e-01   1.0820980e-01   1.6867882e-01  -6.7433602e-01  -8.3123126e-01  -2.6526527e-01   7.1457291e-01   8.5720872e-01  -7.8153110e-01   8.4756723e-01  -9.3814347e-01   4.0132304e-01  -2.2515441e-01  -4.6857369e-01  -4.6535678e-01  -1.5897872e-01   7.8411011e-01   9.4052134e-01  -5.8564406e-01  -4.1157432e-01  -1.6779114e-01   8.0089146e-01  -9.9775598e-01  -9.7605677e-01   4.7215930e-01  -6.2669508e-01   8.1638047e-01  -3.7587650e-01  -6.8384800e-02   7.4101291e-01   4.7631403e-01  -1.9311441e-01   2.9480354e-01   2.9747049e-01   1.7506000e-01  -5.4381746e-02   5.0483584e-01   1.8344550e-01  -6.5049764e-01   3.5228292e-01   2.5126836e-01  -2.9008222e-01  -8.8662882e-01   1.3653865e-01  -2.9048981e-01   7.3748899e-01  -1.3635317e-01  -3.0579570e-01  -2.1693691e-01   1.5065073e-01  -8.8627143e-01   9.0260027e-01  -4.9171555e-02  -9.4748157e-01   5.0474180e-01  -5.3785505e-01  -1.3726924e-01  -7.4472026e-01  -2.4966307e-01   4.2517977e-01   3.3328080e-01   2.2900264e-01  -3.7606294e-01   4.2653467e-01  -7.1715776e-01   6.4262308e-01   3.8651689e-01   6.5954185e-01  -6.9543130e-01  -9.9312891e-01  -6.5100777e-01   6.5920445e-01  -9.2320363e-01   6.6240765e-01  -9.6793090e-01  -2.0459716e-01   4.4198653e-01   5.2954892e-01   6.3111010e-02  -6.3164460e-01   8.0613042e-01   4.9927645e-01   5.9585364e-01   6.7658888e-01  -7.4299551e-02  -2.8280262e-01   1.9250896e-01  -1.5479434e-01  -1.6068745e-01   9.0474464e-02   5.5665717e-01  -3.5861757e-01  -6.1398797e-01  -5.3255026e-01  -4.3209350e-01   2.7613039e-01  -3.7416474e-01   8.8932369e-01   8.8004590e-01   5.4312496e-01  -6.0146343e-01  -7.1177774e-01  -4.3332411e-01  -4.4593630e-01  -2.3148497e-01   2.7875612e-01   7.2447175e-01  -2.6886472e-01  -2.6105557e-01  -1.8973282e-01  -3.0714264e-01   3.8938768e-01   2.8985626e-01   4.3295581e-01  -3.2039042e-01   7.2625338e-02  -6.4248044e-01  -2.1158148e-01  -8.9750573e-01   6.1906500e-01   1.4291146e-01  -5.5908377e-01  -8.8590902e-01  -9.0808882e-01  -7.3916478e-01  -6.2798116e-01  -2.4450455e-02  -3.2559577e-01   1.1139994e-01   3.0343979e-01   5.9888814e-01   5.5595975e-01   1.5816549e-01  -1.1912179e-01   9.3937088e-01  -6.4655422e-01  -4.9146231e-01   7.8229793e-01  -3.2108439e-01   5.2898792e-01  -2.4539873e-01  -2.6785983e-01  -8.0707532e-01  -8.8949402e-02   7.6667562e-01  -8.9068994e-01  -9.2144429e-02  -4.4220725e-01  -1.0305495e-01  -3.5295723e-01   4.8683311e-01  -4.8984366e-01  -6.9128111e-01  -1.6994166e-01  -9.5017523e-01   2.9495180e-01  -1.2633505e-01   1.0290248e-01  -7.9502682e-01  -8.8111433e-01   2.1230896e-01   3.2441651e-01   2.9848488e-02  -4.8279888e-02   2.3943236e-01   1.8925842e-01  -6.8918014e-01  -3.4958293e-01   9.8039467e-01  -6.0557823e-01  -3.1497822e-01  -5.7572312e-01   1.6086612e-01   4.5523152e-01   7.1741986e-01   5.6602796e-01  -3.5963299e-01   6.7195133e-01  -5.7828447e-01  -8.4525182e-01  -5.3117615e-01  -6.0083849e-01  -6.9457921e-01   9.1240151e-01  -6.0144983e-01  -5.4405167e-01  -8.4008171e-01  -1.7204229e-01   8.0199223e-01  -7.5433664e-01   5.7193878e-01   2.7099278e-01   5.2874221e-01  -1.8991947e-01   9.8284121e-01   6.5648025e-01   4.8269532e-02  -4.1419565e-01  -8.3198355e-02   5.2315668e-01   6.5095309e-01  -2.8916298e-01  -6.2493557e-01  -6.6590165e-01   5.1915778e-01   5.9567305e-01   2.7379295e-01  -7.8505254e-01   4.8571237e-01  -7.9255639e-01   9.7340832e-01  -2.9218786e-01   2.4442670e-01   7.7493337e-01  -4.7962464e-01  -6.6987449e-01   1.7448338e-01  -9.0126009e-01   6.0902168e-01   1.0060390e-01  -6.2017231e-01   4.4252779e-01   1.8831155e-01   2.1628308e-01   2.6482262e-01  -8.7753003e-01   3.5583636e-01  -6.9193059e-02   1.0850055e-01   5.2031452e-01  -8.2430573e-02  -2.4332868e-01  -9.2206726e-01   2.9844869e-01  -9.5342569e-01   4.8594016e-02  -4.6356748e-01  -2.5838502e-01  -3.3095389e-01   2.4149516e-01  -7.9856508e-01   8.8265717e-01   9.3512426e-01   2.5045784e-01  -5.5519928e-02   5.6607218e-01  -8.1426212e-01   2.1942391e-01   3.1700639e-01   8.5233729e-02  -5.7923130e-01  -4.3125432e-01  -5.0692759e-01   3.2254164e-02   2.7826123e-01  -3.0836181e-02  -2.6796385e-01  -5.2191941e-01  -6.2808278e-01   9.5533077e-01   2.0306896e-01  -7.3019489e-01   8.7019926e-01  -2.6734109e-01   9.8165072e-01  -1.7015995e-01   3.0364402e-01   8.6431964e-01   8.1867380e-01   1.4420752e-01   9.8946463e-01  -3.4962615e-02  -7.5481304e-01  -5.9996528e-01   5.2907654e-01   6.4586342e-01  -3.4878632e-01   8.3009388e-01   3.6109506e-01  -1.4717460e-01  -5.5922370e-01  -9.4948172e-01  -4.1978521e-01  -8.5870738e-01  -6.1822255e-01  -1.1307182e-01   9.1877794e-01  -8.7905389e-01   5.7805645e-01   5.2463688e-01   2.0424739e-01   3.9103195e-01  -9.0668979e-01   3.8028510e-01  -5.5593022e-01  -6.6221673e-01   3.9360290e-01   7.2884694e-01  -9.2824133e-01   5.2375252e-01   3.9158081e-01   3.0644887e-01   2.8258516e-01  -4.0428833e-01  -2.1776934e-01   2.3868407e-01   5.2345651e-01   8.6657447e-01  -4.2488406e-01   8.8811377e-01   9.9052896e-01  -3.6326826e-01   3.9976369e-01  -5.3505355e-01   1.9829977e-01  -9.2172425e-01  -1.8621324e-01  -1.1650938e-01  -6.6390915e-01  -7.7922071e-01   3.7482587e-01   4.3454323e-01   8.1999483e-01  -3.6282166e-01   8.8650671e-01  -3.7328992e-01  -4.7945694e-01  -6.2463771e-01  -2.5089780e-01   6.2376509e-01   9.5763744e-01  -1.4122714e-01   3.0753592e-03   9.1510788e-01   9.9253218e-01   2.1436238e-01  -8.5290335e-01  -4.6304383e-01   4.0347562e-01  -3.4453359e-01  -7.3515621e-01   4.3391432e-01  -3.8337043e-01   4.9046238e-01   1.1206807e-01  -5.3343819e-01  -7.8627242e-01  -7.4557270e-01   8.7257382e-01  -1.3440580e-02  -3.2722186e-01   6.1278301e-01   2.2103648e-02  -1.1725228e-01  -7.7795648e-01   2.3091665e-01   4.6611928e-01   5.9881111e-01   7.3890509e-01  -6.3779061e-01  -9.6986582e-01   1.2549518e-01  -5.1077519e-01  -3.1913536e-01   5.2871702e-01   4.4840669e-02  -5.2605768e-01  -6.0281907e-01  -6.4021691e-01  -3.6994997e-01  -7.9751068e-03  -6.7689602e-01  -2.7504863e-01   8.2833292e-03  -4.7377546e-01   4.5665721e-01  -3.9362281e-01  -3.0715500e-01  -5.6358258e-01  -4.7204197e-01   5.6498734e-01  -3.1427055e-01   3.6151515e-01  -1.0469879e-01  -9.9788890e-01  -1.0333936e-01  -7.9762239e-01  -1.4975055e-01  -7.2366787e-01   3.8456835e-02   8.1928197e-01   7.5664323e-01   7.6024441e-01  -3.3085111e-01  -2.5643834e-02   1.5091623e-02  -9.1948075e-01   9.7425051e-01  -3.1805098e-01   2.3611580e-01   3.1205416e-01  -8.9589573e-01   1.8378667e-01  -6.9912117e-01   4.1266638e-01  -2.9408282e-01   3.7347367e-01   8.8825526e-01   1.2722573e-02   1.5523202e-02  -6.4092409e-01   4.8940861e-01   7.3876839e-02  -2.8031923e-01  -2.4112995e-01   1.5727261e-02  -3.2377288e-01  -6.0762185e-01  -4.4261759e-01  -2.0233295e-01   7.9469754e-01   5.9086569e-01   7.8089339e-01   1.5047795e-02   2.9147819e-01  -1.6556208e-01  -6.1944840e-02   5.9476632e-02   3.6855695e-01  -8.8249911e-01   6.4042102e-01   9.0471451e-01   6.8448543e-01  -1.1866289e-01  -8.2034837e-01   6.3246499e-01   7.2574599e-01   8.9149247e-01  -4.3917090e-01  -5.9419029e-01   1.0090637e-01   1.9646507e-02   8.4963041e-01   8.7693755e-01   7.5436409e-01  -4.2654865e-01   7.2207990e-01  -5.8111830e-01   6.1127070e-01  -1.3325862e-01  -4.6567684e-01   2.0107446e-01  -7.1254308e-02   7.2229298e-01  -5.2082374e-01  -2.0024077e-01   7.2910972e-01   7.0184728e-01  -1.9298774e-01   6.9914573e-01   8.9404396e-01  -6.2977542e-01  -7.0332425e-01   4.3518732e-01   4.6356240e-01   1.6736379e-02   9.2235075e-01  -2.3957731e-01   8.2821227e-01  -6.4632640e-01  -7.1499657e-01  -2.8526734e-01  -3.1720942e-01  -3.1000866e-01  -5.1887130e-02  -9.9044260e-01   8.2004421e-01   2.8612469e-01  -6.1559499e-01  -6.8523974e-01  -3.1599561e-01  -5.2761263e-01  -5.7231766e-01  -5.6783751e-01   8.2049409e-01  -2.0377399e-01  -4.0890556e-01  -9.7671228e-02  -4.7973123e-01   5.7808802e-01  -4.5070186e-01   1.7727569e-01  -6.6792364e-01   6.1956765e-01   1.2827333e-02   1.6994325e-01   9.6407623e-01  -6.9259022e-01   1.3538197e-01   5.5298640e-01   3.8149626e-01   4.1855751e-01  -5.8064912e-01   6.6755069e-01  -9.1827158e-01   9.1013869e-01   5.4317717e-01  -4.3480698e-01   7.2910902e-01   4.1478737e-01  -7.9206279e-01   1.0217471e-01  -8.8405310e-02  -9.8631498e-02   3.1634457e-01  -7.3787160e-01  -1.2890275e-01   4.0455649e-01  -6.4455452e-01   5.1474302e-01   9.2030928e-01   5.4873638e-01  -7.8270946e-01  -4.7474934e-01  -1.4438303e-01  -7.9046369e-01   4.3652374e-01   4.1818028e-01  -8.6428818e-01  -9.1056982e-01  -9.4414153e-01   7.6832902e-01   9.1170226e-01   7.8859104e-01  -5.6992728e-01  -1.8838051e-01   2.2150010e-01   9.5717001e-01   7.4730581e-01  -6.2537189e-01   3.9754313e-01   7.7498504e-01   5.8241734e-02   4.9948528e-03   5.3907170e-01  -4.4650712e-01   2.5021824e-01   4.8669159e-01  -1.3747315e-01  -3.8430488e-01   9.0331764e-01   1.9302662e-01  -2.0938282e-01  -6.3299131e-02   8.4565601e-01   6.0438283e-01   5.8276462e-01  -7.9950080e-02  -2.1552578e-01   5.0897307e-01   7.6607791e-01  -7.4625855e-01   8.2726021e-01   1.0446407e-02  -2.8993885e-01   8.5402401e-02  -1.8465572e-01   7.2146475e-01  -3.1958843e-02   2.8632467e-01   3.2645950e-01  -3.1284845e-01   8.6451190e-01   6.3350092e-01  -7.8987382e-01   1.1735953e-01  -5.1627755e-01  -8.0590468e-01  -2.5658661e-01  -8.6038839e-01   3.4518301e-01   6.9950307e-01   4.3009914e-01   5.6479729e-01   6.1893230e-01  -6.1910156e-01   2.5258251e-02   9.6063217e-02   4.7258553e-01  -5.2283565e-01   7.3274606e-02  -6.4240110e-01  -7.0475144e-01   8.7021927e-01  -9.8886576e-01  -3.8235712e-01   3.3673432e-01  -8.0207387e-01   7.7533261e-01  -2.1400145e-01  -8.9873171e-01  -1.4491050e-01   7.8323018e-01  -8.0258332e-01  -7.2670011e-01  -2.9525853e-01   7.3930633e-02  -4.4335592e-01  -1.4628275e-01  -6.3293547e-02   1.6270352e-01   7.9733911e-01  -4.3776039e-01   3.9596297e-01  -6.3841362e-01  -4.4386420e-01   7.1517172e-01  -4.8826982e-02  -5.9346603e-01   3.9853832e-02  -1.6562822e-01  -6.3098829e-01  -8.0877909e-01   3.6314057e-01   1.2863019e-01  -6.2744929e-01   2.0470542e-02   5.7147430e-01  -9.6805801e-01  -5.2268844e-01   7.5273624e-01  -9.6422084e-01   4.2477116e-01   9.3669604e-01  -3.5078068e-01  -7.5584521e-01  -1.9381999e-01  -3.3189538e-01  -8.1879419e-01  -5.9243690e-01   5.6037987e-01  -2.7564707e-02  -9.2421253e-01   9.0335118e-01  -2.3566320e-01   3.1415199e-01  -4.7490014e-01   7.9105710e-01  -7.3378603e-02   1.7224910e-01   9.0730979e-01  -6.0775348e-01   8.2676104e-01  -1.3615511e-01  -1.8889054e-01   4.4884284e-01   4.4145834e-01  -6.8847517e-01  -8.3533791e-01   4.2074475e-01   8.1940411e-01  -5.7469401e-01  -5.5330659e-01  -1.5550779e-01  -9.8075723e-02   7.6491159e-01   1.9562849e-01   1.4192428e-01  -5.9667937e-01  -8.0613346e-02  -9.0374574e-01  -8.1006659e-02  -5.1886828e-01   6.0461834e-01   5.1614826e-02  -1.1351921e-01   7.4137014e-02  -3.2963827e-01   5.4582996e-01   1.6336799e-01   6.0250500e-01   9.9170671e-02  -3.2920200e-01  -5.6477711e-03   2.5726109e-01  -5.8385713e-01  -4.1494422e-01   9.3470384e-01  -6.2633152e-01   4.1229801e-02  -6.7633058e-01   6.8694757e-01   6.9947280e-01  -1.9432835e-01  -3.9425343e-01   6.3696228e-01  -2.2878697e-01   8.8863857e-01   6.2656606e-01   5.7694689e-01  -2.1597108e-01   8.1880284e-01  -8.2451756e-01  -1.4716784e-01  -7.0456578e-02   5.4022433e-01  -5.6046616e-01   4.3030220e-01   4.3980405e-01  -2.6938646e-01   6.0810121e-01  -6.3984303e-01  -6.2673870e-01  -2.5995159e-01  -2.1351426e-01  -5.5615310e-01  -5.5149289e-01   2.5391927e-01  -3.4132205e-01   9.3636258e-01   6.0263802e-01  -7.4081470e-01   7.1639875e-01   7.6470163e-01  -8.0740295e-01   8.3786362e-01  -7.6181500e-01  -3.2396348e-01  -1.9201069e-01  -4.1429518e-02  -4.3163173e-01   2.8449258e-01  -2.0175489e-01   5.6806803e-01   4.5122868e-01  -6.3336878e-01  -3.7982313e-01   2.3096504e-02  -4.4265840e-01  -4.1113777e-01  -2.1159539e-01  -2.6930469e-01   8.1415941e-01   1.8991576e-01  -9.0687284e-01  -7.1512950e-02   8.3640285e-02  -8.6425013e-01  -4.3991822e-02  -5.8515421e-01  -6.1243566e-01  -1.9496473e-01   6.9127027e-01  -2.3992292e-01   4.3258099e-01   4.7334723e-01  -5.2315243e-01  -9.8332536e-01   8.0090867e-01  -6.9835679e-01   4.0370612e-01   8.3173558e-01   4.1763965e-01  -8.6507676e-01  -9.0588035e-01  -8.3186283e-01  -2.7317918e-01   5.9269294e-03  -1.7840384e-01   7.9157405e-01   8.3447042e-01   8.6328642e-01   9.2068137e-01   7.8946765e-01  -6.3736382e-01   4.5018510e-01  -8.5884865e-01  -5.1247162e-01  -3.1504981e-01   2.8576982e-01   2.6169233e-01  -6.0954591e-01   7.6298030e-01  -9.8412216e-01   8.8499811e-01   4.6025797e-01  -5.8058355e-01   2.0196671e-01  -7.0584159e-01   9.4834445e-01  -5.5855713e-02  -1.9235583e-01   7.9834951e-01  -3.2692420e-01   8.9033760e-01  -8.2708325e-01   2.4741198e-01  -3.9899089e-01  -6.9147493e-01   7.5146648e-01  -6.9430970e-01  -9.9007423e-02   2.2757955e-03   3.6931060e-02   1.3113259e-01  -5.1675269e-01  -9.3817251e-01  -1.7029542e-01  -6.8578921e-01   2.6036614e-01  -4.0419329e-01  -3.5724117e-01  -9.2291032e-01   9.1296309e-01   3.0956531e-02   7.2462554e-01  -1.0334299e-02   6.6533165e-01   5.9739729e-01   2.0851694e-01  -7.5316905e-01  -7.9003194e-01   9.3461984e-02  -4.9782165e-01   2.8634528e-01  -4.0075627e-01   9.9259823e-02   1.2721758e-01  -3.6708907e-01   1.3935542e-01  -2.5248029e-01   2.1601800e-02  -1.9451663e-01  -2.0614783e-01  -7.1630287e-01  -7.4959179e-01  -4.1424741e-01  -9.3280401e-01  -5.0250958e-01   1.8700608e-01   9.3185016e-01  -7.9157562e-01  -9.8706047e-01  -3.2416117e-01   8.6090330e-02   3.0743362e-02  -9.1049547e-01  -5.2373043e-02   2.0687238e-01  -4.1317801e-01   7.8427736e-01  -2.0238462e-01   2.9661508e-01  -3.0882243e-01  -2.9955070e-01   7.8448543e-01   2.3402942e-01  -9.4174515e-01   6.5230852e-01   1.0179951e-01   2.3600165e-01   9.7223486e-01  -4.4551119e-01   6.1795061e-01  -5.1697875e-01   9.6946621e-01   8.2510301e-01   4.9298466e-01  -1.3133776e-01   9.7929431e-02  -1.2933120e-01  -4.1302633e-01  -4.0306087e-01   8.0358555e-01   8.8166619e-01  -9.9486571e-01   9.7143933e-01   8.9621519e-01   6.7876973e-01  -7.2170013e-01   2.4752926e-01  -1.2819929e-01  -3.7612329e-01  -1.7524734e-02  -1.0952810e-01   2.0169474e-01   5.6824791e-01   9.7637978e-01  -8.4551496e-01   2.3528703e-01  -9.5499020e-01   1.8723582e-01
  -7.5099580e-01   3.9814210e-01  -3.1341318e-01  -6.8139701e-01  -9.8866985e-01  -1.6955985e-01   6.7067304e-01   8.6433127e-03   7.2918253e-01  -6.7785903e-02  -6.5606315e-01   6.5110435e-01  -7.9297822e-01  -9.9102455e-01   1.2815626e-01   1.7821089e-01   6.0205873e-01   8.9893245e-01   2.1463164e-01   2.1644827e-01  -1.0157791e-01   7.0352460e-01   1.6485646e-01   5.9420527e-02  -1.9960873e-01   8.1302242e-01   9.4580372e-01  -6.5584689e-01   5.9810123e-01   5.9853558e-02   1.3017356e-01  -5.7276599e-01   4.1772645e-01   5.1029261e-01   4.5763055e-01   7.9356086e-01  -8.6319162e-01   3.4179881e-02  -6.7304361e-01   9.2700555e-01  -3.0478455e-01  -6.1159407e-01   1.8398984e-01   9.7206352e-03  -4.7368712e-01   5.5173701e-01  -5.7034648e-01  -4.7467152e-01   4.1261639e-01   3.8374720e-01  -1.4410653e-01   5.8142569e-01   4.0535099e-01   9.8587647e-01  -7.3120562e-01  -6.3265318e-01  -1.1377090e-01   2.2150779e-01   7.1687747e-01  -1.6389225e-01   6.5333844e-01   9.0451617e-01   4.5849111e-03   2.1795312e-01   9.1983107e-01  -2.1964195e-01   5.4361921e-01  -6.9875354e-01   1.8414233e-01  -6.0347222e-01  -7.0561305e-01   8.4458272e-03  -5.2058014e-01  -8.3331335e-01  -6.7273647e-01   4.6710485e-01   9.8503793e-01   5.4215697e-01  -1.0069628e-02  -7.0813679e-01  -3.4409248e-01  -1.9123820e-01   9.6927874e-01   2.3523816e-01   8.9624840e-02  -8.6031336e-01  -2.3032176e-01   1.8111245e-01   2.1981502e-01  -5.0752557e-01  -1.7324720e-01  -5.4973624e-01   5.1920586e-01   7.1383372e-01   1.5140023e-01   7.6436795e-01   8.7023339e-01  -8.6780963e-01  -3.4810716e-01  -5.1384640e-01  -9.8330974e-01  -7.5608320e-01   2.2486383e-01   3.1866689e-01   5.1488865e-02   2.2185892e-01   9.4799795e-01  -1.2611589e-01  -4.0150889e-01  -4.4405485e-01  -5.9348711e-01   9.6019728e-01  -1.0890925e-01  -1.8444680e-01   2.4556333e-01  -5.4980099e-01   7.2073882e-01  -8.2864547e-01  -1.1975210e-01   6.2203104e-01  -8.8502146e-01   4.0123422e-01  -4.8987521e-01   7.4812452e-01  -6.9827655e-02  -8.9696386e-01   2.1421229e-01  -9.5129534e-01  -5.4347134e-01  -2.8587722e-04   5.5149372e-01  -4.2168993e-01  -4.1810883e-01   4.6459650e-01   5.5539664e-01   2.3075588e-01  -9.4752597e-01  -6.4659465e-01   6.3141055e-01  -7.7007985e-01  -6.9264471e-01   6.7276848e-02  -8.4882638e-01  -9.6728686e-01   7.6929543e-01   5.9827889e-01  -5.8045469e-01   2.2340763e-01   9.9589115e-01  -7.5527980e-01  -8.2102975e-01  -8.0895877e-01   9.0435431e-01  -5.2120219e-01  -5.1284645e-01  -5.2300613e-01  -6.4320837e-01  -2.7767393e-01   1.5777344e-01   6.9982892e-01   7.9564697e-01   2.3182293e-01   5.1931453e-01  -6.2873549e-01  -2.4219101e-01  -9.2624083e-01   2.0447724e-01  -8.2292286e-01   1.4399930e-01   8.2757408e-01  -5.4330747e-01   9.6485633e-01  -5.9641031e-01  -1.8264569e-01   7.8869226e-01  -3.8024085e-01  -5.5476459e-01  -7.2608747e-01   1.3594150e-01  -6.0812235e-01   9.6837750e-01   4.9563776e-01  -7.5169682e-02  -5.9045320e-01   4.0933649e-01   5.8904799e-01   4.2680781e-01  -7.1482167e-01   5.9902362e-01   4.6430644e-01   4.5529751e-01  -7.0588135e-01   4.4293339e-01  -5.4290356e-01  -3.8394657e-01   1.9898280e-01   9.8734509e-02   4.7218765e-01   1.6707951e-01  -9.4737281e-02   7.3577553e-01  -6.7776111e-01  -2.1882962e-01   4.6278876e-01   1.8129800e-01   4.4757681e-01   1.2984522e-02   9.2426800e-01   9.8206748e-01   1.1956443e-01   8.7136607e-01   7.2699215e-01   8.0192356e-01   6.5972182e-02  -5.6380801e-01   4.5223924e-01   5.0093811e-01  -7.6797678e-02  -8.7974728e-01  -5.6100111e-01   3.3032453e-01   1.5028224e-01  -9.6532193e-01  -3.1103293e-01   4.2268288e-01   2.7080780e-01   6.9382575e-02  -5.2299266e-01  -6.7499511e-01   2.8303117e-01  -2.2571563e-01  -4.2738892e-01   9.9047112e-01   1.1062228e-01   8.2508006e-01   8.8815438e-01   7.6222579e-02   5.7652348e-01   2.3054846e-01  -6.5512239e-01  -7.4550459e-01  -2.6875684e-01  -3.7883937e-01  -9.5968934e-01  -8.1043793e-02   4.9993151e-01  -3.2757990e-01  -6.6353191e-02  -5.9567206e-01   9.3868441e-01  -8.1399308e-01   7.4408840e-01  -4.5279880e-01   4.3883911e-01  -3.2689107e-01   9.9173751e-02  -7.7838050e-02   8.9954953e-01   3.2366077e-01   7.1722643e-01  -7.7140881e-01   6.7994916e-01   2.9494382e-02   7.5068591e-01  -4.9193987e-01   5.4317841e-01  -1.2343113e-01   2.6797062e-01   6.5575440e-02  -1.4312157e-01   8.5878214e-01   9.5966535e-01   7.3315234e-01   2.7564087e-01   1.0679632e-01   6.6463539e-01  -7.0428727e-01   7.4231876e-01   8.3226010e-01  -9.6522391e-02   5.6699069e-01   2.6813336e-01  -9.8432582e-01   1.0115772e-01  -9.4768435e-01   8.0854337e-02  -8.4426309e-01  -3.8778093e-01   8.7959259e-01   5.0745092e-01   5.7457478e-01   4.2114806e-01   1.8568892e-02  -5.2678220e-01  -2.1503917e-01   6.2696871e-01  -1.2867281e-01  -9.9916855e-01  -6.6738446e-01   6.0682199e-01   4.3003062e-01   6.3197512e-01  -5.2813051e-01   5.3983600e-01   6.6750526e-01  -4.2419791e-01  -2.2564895e-01  -7.4152520e-01   4.8263161e-02  -2.9609704e-01   8.4824820e-01   8.3508048e-01  -7.0753539e-01   2.7900842e-01   8.0686886e-01  -6.4781925e-01   3.0129665e-01  -4.0181283e-02   4.6518213e-01   9.0496165e-01  -2.2364287e-01  -3.0130203e-01  -3.5204649e-01  -7.1407145e-01  -9.9415435e-01  -4.4604077e-01  -2.6883063e-01   6.5807844e-01  -3.4413525e-01   5.5251463e-01   5.1721465e-01  -1.6133188e-01  -3.6043826e-01  -5.0842357e-02  -6.1259977e-01   3.9233595e-01  -9.4686556e-03  -4.9030543e-01  -8.1996984e-01  -6.4412476e-01  -2.2139448e-01  -1.9129934e-01  -3.7843984e-01   3.5766534e-01  -6.4630758e-01   4.2226127e-02  -8.2221894e-01   3.9075002e-01   5.8762009e-01  -3.6557693e-01  -2.9619079e-01  -4.6729770e-01  -7.8698920e-01   5.1002218e-01   1.2703400e-01  -8.1613737e-01   5.9624026e-01   9.5626004e-02   2.3945173e-01  -9.1574290e-01   6.6490401e-01  -8.4492379e-04   5.1430670e-01   6.9573356e-01   6.9788514e-01   6.4431829e-01  -5.1940975e-01   2.3239072e-01  -1.7692051e-01   5.9257939e-01   7.1351173e-01   7.7786600e-01  -7.4007327e-01  -2.7148170e-02   2.2601388e-02   3.0990785e-01  -2.4317601e-01  -9.9483749e-01  -4.4605072e-02  -6.2758417e-01  -5.6121038e-01  -8.1965171e-01   8.1692009e-01  -2.3122094e-01   7.3709971e-01   3.8046737e-01  -7.9331655e-02  -2.5908202e-01   4.1894032e-02   7.9645559e-01   2.4221617e-02  -8.0589132e-01   3.2997046e-01   6.3691372e-01   9.0572363e-01  -9.0448645e-01  -4.6453520e-01  -4.9982214e-01   3.7434861e-01   1.6349622e-01  -5.5315460e-01  -1.3576497e-01  -5.7520294e-01  -3.4071573e-01   9.3887219e-01   6.5862080e-01  -5.5816515e-01  -2.4956838e-01  -6.2039904e-01  -9.8254477e-01  -9.8501025e-01  -2.2779189e-01  -3.1664965e-01   4.1996173e-01   3.1231850e-01  -5.2956156e-01  -9.4629634e-01   4.9768362e-01  -7.5014234e-01  -8.4543957e-02  -8.5160119e-01   5.8895374e-01  -3.0799607e-01   7.9710241e-01  -4.3098186e-01   7.1723389e-01  -3.0416133e-02   3.6520045e-01  -3.1676961e-01   5.7897325e-01   6.1726064e-01   2.6037905e-01  -5.2364471e-02  -8.7754309e-01   3.3667966e-02  -9.9337692e-01   6.8154629e-01   4.7628455e-01   2.8110238e-02   2.5354156e-01  -9.8247334e-01   2.1909336e-01   6.2650708e-01   9.1313930e-01   9.1733625e-01   9.3923647e-01   7.0700023e-01  -6.3198540e-01   2.3397611e-01  -9.0681266e-02  -9.1058577e-01   6.3352352e-01  -4.9845959e-02   1.8468974e-01  -1.8903023e-01   8.4556941e-01  -5.8158595e-01  -5.8027987e-01   3.8869388e-01   4.3351593e-01   6.4628111e-02  -4.5814908e-01  -5.9326432e-01   6.7564686e-01  -4.5924420e-01   9.3539777e-01  -2.9945325e-01  -6.0149420e-01  -7.8078194e-01  -3.7441945e-01  -3.9203997e-01  -8.5682207e-01   9.8866315e-01  -6.2462079e-01  -1.3333546e-01  -5.5256227e-01   3.9677773e-01  -3.9355376e-01  -5.7239077e-01  -9.8865116e-01  -5.9344687e-01  -3.3510352e-02  -6.4857080e-01  -1.4807856e-01  -9.5267585e-01   8.9637892e-01   4.5624869e-01  -7.4281561e-01  -9.2166027e-01   4.7153283e-02  -3.0341063e-01  -7.1171248e-01   3.7175247e-01   6.0742620e-01   5.1055748e-01   9.9679324e-01  -2.1083370e-02   2.6361229e-02   8.4682177e-01   8.1024201e-01   3.4251201e-01  -5.7519319e-01   6.5263702e-01  -9.2104138e-01   3.0510236e-02  -4.4126663e-02   9.1222057e-02   1.4350232e-01  -7.4984878e-01   1.5331609e-01   9.5750004e-01  -2.7906282e-01  -3.0872931e-01  -7.2754034e-01  -5.9933925e-01  -1.5961213e-01  -8.1463723e-01   7.0826701e-01  -6.5331168e-01  -2.8713051e-01   3.7591020e-01  -2.8883750e-01  -8.3817207e-01  -4.0399488e-01   9.0490659e-01   4.4918523e-01  -7.0875012e-01  -9.4573960e-01  -5.8962872e-01   1.4394609e-01  -1.4037772e-01   3.5739504e-01  -2.1192841e-01   5.0071943e-01  -3.2891846e-01  -8.7656474e-01   5.6332881e-02   6.1614989e-01   7.6452716e-02  -4.0561750e-01   9.5141471e-01  -7.4844832e-01   6.5585018e-01   1.5843047e-01   3.1226503e-02  -7.1191673e-01  -3.0312690e-01   7.8724240e-01   2.8181274e-01   7.3547217e-01   5.7171390e-01   3.5776730e-01  -1.0947712e-01  -7.3655555e-01  -6.0891102e-01   8.5947251e-01  -4.6494838e-01   9.7073284e-02   1.3032429e-01  -2.4557429e-01  -1.2969276e-02   8.2664204e-01   8.5953980e-01  -7.7021021e-01  -3.1487045e-01   7.3611539e-01   6.8353537e-01  -3.4674454e-01  -6.2826509e-02  -6.1554752e-01  -2.5197233e-01  -3.9182701e-01   8.1244436e-01  -3.8950488e-01   9.9483098e-01  -6.2508159e-02   3.0359769e-01  -7.9702089e-01  -7.9380100e-01  -5.8207593e-01   8.3171276e-01   1.2433236e-01   5.0873321e-01   9.7438953e-01  -6.2077818e-01   4.3719552e-01  -7.6417523e-01  -2.1403631e-02  -9.4342020e-01  -8.5678248e-01  -6.9904252e-01  -3.6246928e-01   2.1451342e-01  -4.8718631e-01   5.4584748e-01  -5.5175982e-01  -8.4699391e-01   2.9587624e-01  -2.6902549e-01   5.3858928e-01  -5.0622929e-01  -3.1306589e-01  -7.9995709e-01  -2.4215364e-01  -6.7111659e-01  -2.1934105e-01   9.1574537e-01   3.4762609e-01  -6.8146953e-01   7.9666604e-01   6.9204052e-02   1.7797024e-01   3.3983034e-02   7.3660746e-01   1.7426768e-01   7.1094624e-01   1.3438677e-01   2.8956670e-01   4.5114697e-01  -5.0096028e-01  -3.6597793e-01  -6.3825955e-01  -4.3842471e-01   7.8131609e-01  -3.8800333e-01   2.2177221e-01  -5.7734426e-01  -3.7080563e-01   2.7459027e-01  -4.0587911e-02   2.2118597e-01   9.3616916e-01   8.0683536e-01   9.1064162e-01  -8.6062468e-01   2.5529087e-01   9.5191425e-01   8.2868415e-01   2.7931599e-01  -9.2773700e-01  -2.8417045e-01  -8.7990507e-01   1.8252538e-01   7.8596415e-01   3.4918968e-01  -5.8364044e-01   1.5854585e-01  -7.3186712e-01   6.3534728e-01   3.4994883e-01   5.3699774e-01   2.9302154e-01   6.6160971e-01  -9.1483801e-01   4.5082719e-01  -9.7221654e-01  -6.0969660e-01  -2.3228926e-01   3.0000516e-01  -7.8073350e-01  -1.3686260e-01   5.1970585e-01   9.1415386e-01  -5.5828024e-01  -3.3501283e-01   3.2400193e-01  -3.0510729e-02  -8.1615257e-01  -7.7242901e-01   1.1752801e-01  -9.5097862e-01  -1.5389803e-01   8.8386732e-01   2.8510320e-01  -9.4209877e-01   4.9053262e-01  -2.8581487e-01   1.1532128e-01   2.2711661e-01  -2.6872282e-01   4.5536340e-01   1.7131270e-01   8.6857133e-01  -2.9706164e-01   8.7683805e-01   3.9890582e-01   1.1774979e-01  -5.8996561e-01   3.4628244e-01   1.6133837e-01  -5.1728584e-01  -8.3019205e-01  -6.4809353e-01   4.9905961e-01  -4.5187132e-01   4.2195833e-01  -1.6934013e-01   9.0418198e-01   3.9080990e-01   5.6071144e-01   3.7464513e-01   4.3933149e-01  -4.0816405e-01  -9.2644990e-01  -5.7524699e-01  -8.2292159e-01  -7.9523788e-01  -5.0947106e-01  -5.8688824e-01  -8.7858159e-01  -4.5644812e-01   9.2263602e-01  -1.8553634e-01   9.6825068e-01   6.6522252e-01   6.1138132e-01  -9.5375718e-01   8.2200752e-01  -9.9756959e-01   2.2051633e-01  -3.3293941e-01   5.9752976e-01  -3.3499265e-01   8.9559713e-02  -5.5882117e-01  -8.2889647e-01  -8.4036245e-01  -8.8420991e-01  -7.3593902e-01   6.6866278e-01   6.0415907e-01   7.8069494e-01  -9.4517710e-01  -4.0174628e-01   8.8513225e-02  -4.1232609e-02   5.2704690e-01  -3.6782728e-01  -8.3840402e-01  -6.7611878e-01   1.8928774e-01  -9.4091420e-01   6.2233830e-01   4.0203875e-01  -2.7139618e-01   8.6109767e-01   5.6320211e-01   2.3333651e-01   1.5862104e-01  -6.4128690e-01  -8.4734125e-01   7.2040274e-01   5.8647142e-01  -3.0532421e-01   3.4395816e-01  -1.9810958e-01   7.9103523e-01   2.1055707e-01  -3.5616500e-01  -5.1514584e-01   4.8428398e-01   2.9240683e-01  -3.4636489e-01  -6.0318448e-01   8.5821982e-01   8.7283035e-01  -2.2674963e-01   5.7792147e-01   5.3592226e-01   1.3625171e-01   5.5397125e-01  -3.7566318e-01  -9.1359267e-01  -9.0495745e-01  -9.4083297e-01   8.2725680e-01   3.7579614e-01  -9.9320702e-01  -8.8391402e-01   3.2966822e-01  -6.3840138e-02   9.5847653e-01  -3.5978834e-01   4.4869853e-01  -1.7689154e-01   6.3568458e-01  -6.4597825e-01  -5.6891635e-01  -3.6714064e-01  -4.7444462e-01  -6.9637022e-01   8.8004127e-01  -5.9900446e-01   7.9716095e-01   5.0143434e-01  -5.1560743e-01  -4.9128808e-01  -4.1258702e-01  -2.6411038e-01  -6.5156239e-01  -1.3933888e-01  -9.4798345e-01  -9.8708586e-01  -1.2150491e-01  -5.3970967e-01  -8.8227966e-01  -5.8695827e-01  -9.6561376e-01  -9.6713542e-01   9.2347715e-01  -4.1910622e-01   6.1594498e-01  -8.2767909e-01   5.1172318e-01   7.5241867e-01   5.2121746e-01   9.0955667e-01  -1.9751746e-01   5.7235052e-01   4.5960086e-01  -3.1137578e-01   5.7265587e-01  -5.9260678e-01   1.8906273e-01  -7.4474133e-01   4.2465478e-01  -8.8902014e-01  -8.1055160e-01   8.0887002e-01   2.6853032e-01   5.2272111e-01  -3.9761201e-01  -9.1398075e-01   3.7290951e-01   5.1543615e-01  -5.4941096e-01   6.4118203e-02  -6.4263386e-01  -7.7775029e-01   7.4044344e-01   3.5969235e-01   8.8691271e-01   5.5111273e-01   5.6365670e-01   5.1454738e-01   5.6925232e-01  -7.8231692e-01  -4.6614015e-01   6.1255907e-02   2.8986511e-01  -7.0005429e-01   3.5152024e-01   3.3904710e-01  -2.5884597e-01   5.7447552e-01   1.3777355e-01   6.4770520e-01  -2.1685601e-01  -6.5867768e-01   8.7897470e-02  -5.8975662e-01  -1.8666273e-01   1.7904868e-01  -7.4806196e-01  -4.3539668e-01   8.3120830e-01   2.5621837e-01   1.6422061e-01  -9.1379972e-01  -9.7456825e-01  -5.1161601e-01   3.7731262e-01   1.2271230e-01  -1.0368448e-01  -7.9293313e-01  -6.4050477e-01   1.3126520e-01  -4.6194151e-02  -4.0033325e-01  -5.2642605e-02   2.9623545e-01   1.0331701e-01  -2.0343051e-01   4.5177884e-01   9.1948596e-02   4.3301988e-02  -1.1509829e-01  -8.3978547e-01  -4.6120454e-01   4.8479136e-01   2.1670575e-02   2.2353892e-01   2.0495455e-01  -2.7362857e-01  -9.6222276e-01   9.8324861e-01   9.9350496e-01  -5.9940611e-01   1.6970732e-01  -2.5627218e-02  -9.2343736e-01   3.2721372e-01  -3.6968375e-01  -3.1221616e-01   1.8870006e-01   7.2985672e-01   9.8475445e-01   7.8963551e-01   8.7914928e-01   9.7749917e-01  -8.7156688e-01  -1.6778043e-01  -3.3483050e-01   2.3231744e-01  -9.1714314e-01  -4.0011253e-01   6.2485151e-01   5.8113305e-01  -2.8198133e-01   9.1117224e-02  -4.2399070e-01   6.4872871e-01  -9.2215566e-01  -4.2981911e-01   7.2085576e-04   3.6649938e-01  -4.2550987e-01  -7.2504789e-01   3.6096635e-01   9.1703291e-01  -5.3158769e-02   5.5463433e-01  -2.1574436e-01  -6.5168412e-01  -2.4507642e-01   8.1310179e-01  -2.8691437e-01  -7.3047216e-02  -9.8603976e-01  -9.4610455e-01  -5.8706627e-01   4.4168322e-01  -9.9770479e-01  -9.8012718e-01   6.7889732e-02  -4.0922739e-01  -7.4027007e-01   2.2472827e-01  -9.4142348e-01   9.0053319e-01   3.6254658e-01   8.0163891e-01   4.0984187e-01  -4.8828930e-01   6.9600995e-01   6.7995180e-01   1.7950587e-01  -1.7741449e-01   3.2968522e-01   1.7267144e-01  -6.9886425e-03  -8.5233343e-03   7.3768822e-01  -6.1555036e-01   2.8623590e-01   3.3534808e-01  -9.4130274e-01  -6.8729770e-01   9.5641071e-01   1.2186452e-01  -9.3835921e-01   7.8018422e-01  -3.9301174e-01   8.2901714e-01  -9.7634370e-02   8.5340908e-01   2.3504364e-01  -4.7025281e-01  -5.1002528e-01   6.4582871e-01  -8.2458266e-01   2.0275298e-01  -9.6060168e-01   7.3182495e-01   4.1492660e-01   8.5601401e-02   8.2037834e-01   3.2121909e-01   2.0925820e-01  -7.3463039e-01  -8.3038366e-01   6.8789124e-01   9.1259251e-01  -6.9398488e-01  -2.4948017e-04   1.7809905e-01   4.4966331e-01  -8.3707229e-03  -9.9913678e-02  -9.9681665e-02
