  -3.4335497e-01   8.7941665e-01  -9.4825184e-01   2.5221152e-01  -4.5796992e-01   3.6067835e-02   1.2319638e-01  -6.8509172e-01  -4.8289071e-01  -7.1376990e-01   1.9456245e-01  -3.8719989e-01  -3.9391369e-01  -4.4875180e-01  -9.8602936e-01   2.3350895e-01  -9.0415364e-01   5.7061726e-02  -2.0000418e-01  -9.0016666e-01   9.3817013e-01   5.7393586e-01  -8.0376704e-01   1.3701833e-01  -2.1968192e-02  -4.6683369e-01   3.1197943e-01   7.7616111e-01  -3.4869278e-02  -8.1677449e-01  -2.8682939e-01  -8.9594863e-01  -5.8348048e-01  -3.9729508e-01   4.0410902e-01   5.4062758e-02   6.2705190e-01   6.4653178e-01   1.4843682e-01  -8.0063709e-01  -3.1582415e-01   8.1643039e-01  -5.4703074e-01  -5.7709558e-01  -8.3189798e-01  -3.1826494e-01  -8.2229521e-01  -5.3360044e-01  -1.1332631e-01  -7.0794265e-01  -3.7820847e-04   8.8698969e-01   2.7575427e-01   7.4773503e-01  -1.0129576e-01   9.2200949e-01  -1.3631846e-01   4.3827800e-01  -3.8540809e-01   5.4810942e-01  -7.9947178e-01  -3.2785805e-01  -5.3532968e-01   7.3642193e-01   3.9468830e-01  -9.0212801e-01   5.2853394e-01   7.5939953e-01   6.1014643e-01  -8.9173443e-01   4.6720532e-01   3.7350488e-01   3.5436760e-01  -1.1820457e-01  -8.9621206e-01   6.9627554e-01  -7.6624030e-01  -9.9656020e-01   4.8274515e-02   4.1238880e-01  -6.4156906e-01   4.0779068e-01   6.5834145e-01  -4.6871428e-01   9.5154371e-01  -4.8280571e-02  -3.1806722e-01   2.9638779e-01   8.3141036e-01  -2.0669687e-01   9.9547746e-02  -6.7960618e-01   9.8015778e-01   6.0670173e-01  -2.8690822e-02  -1.2179084e-01   2.2150902e-01   4.2435724e-01  -5.9027378e-01  -5.1158795e-01  -3.4310791e-01   8.4663875e-02   6.5115003e-01  -8.8770450e-01  -3.4941686e-02   7.8362362e-01   4.9623028e-01   2.9118940e-01   6.8378188e-01  -8.9029385e-01   3.0279978e-01  -6.3207896e-01  -5.8046212e-01  -8.8623650e-01  -6.2616636e-01  -4.2938298e-01   6.3415477e-01   4.8059725e-01  -1.3863996e-01  -9.5809317e-02   4.1153173e-01   2.4357244e-01  -1.1441116e-01  -1.3026203e-02   9.4987014e-02  -6.1914107e-01  -1.6400279e-01  -6.1543816e-01  -5.6188046e-01  -7.4921710e-01   7.8837778e-02  -8.3127542e-01   9.7688197e-01   2.0386126e-01   6.5759973e-01  -7.2801379e-01  -4.5113483e-02  -8.9231571e-02   9.6599366e-01   3.9874366e-01  -7.7328611e-02  -7.1653643e-01  -4.5046079e-01  -8.5246246e-01  -5.4938772e-01  -9.8336187e-01  -5.0860296e-01  -3.8528516e-01  -7.5154631e-01  -6.6804548e-01   4.7092743e-01   5.7098919e-01   8.7233355e-01   8.1805119e-01  -5.4141379e-01  -5.8077520e-01  -6.1870198e-01   8.0336982e-01  -8.8238086e-01  -7.9038007e-01   8.5437193e-01  -7.5609304e-01  -6.0839681e-01  -1.4838815e-01   2.7326087e-01   9.7641462e-01  -3.4169196e-01  -2.9787184e-01  -8.3245379e-01  -6.6175209e-02   4.6496720e-01  -2.9310332e-02  -9.1661592e-01  -3.3450242e-01  -2.7839455e-01   9.2631953e-02   1.0216428e-01   8.6341090e-01   7.4525928e-01   3.7326491e-02  -4.9798503e-01   2.5217631e-01   7.3319225e-02   3.3937649e-01   9.7721792e-01  -1.6786630e-01   1.9598182e-01  -4.1213560e-01  -5.7591849e-01  -4.4611462e-01  -4.2727551e-02  -9.6640354e-01   3.6858358e-01   5.9415994e-01  -3.3432053e-01  -2.8305450e-01  -7.1233981e-01   6.4998479e-01   7.6186836e-01  -3.6152485e-01  -1.7241526e-01   5.3727448e-01  -8.4311531e-01  -7.7104778e-01   9.8452813e-01  -7.4137882e-01  -7.7539936e-01   2.0822624e-01  -9.3560301e-01   1.5110372e-03   7.4423307e-02   9.6504955e-01  -1.7967308e-01  -9.6501245e-01   7.0247440e-01  -8.3142568e-01  -5.8635680e-01   7.7002206e-01   6.4186461e-01  -2.9394941e-02  -3.4144863e-01   6.8672212e-01  -5.5426690e-01  -4.1499858e-02   2.4068158e-01   8.1367446e-01   6.5937142e-01   1.4793025e-01   6.6893751e-01   2.2235280e-01  -9.8729964e-01  -9.4165307e-01  -5.7803631e-01  -6.4383779e-01   4.5188276e-01   5.3132252e-01  -3.2016317e-01   9.8037671e-01  -3.1044736e-01   8.7433422e-01   5.1993828e-02  -8.9171388e-01  -7.3105764e-01  -6.7135135e-01   7.1954082e-01   4.1624896e-01  -1.0838417e-01  -3.0124927e-01   5.9799062e-01  -2.9147688e-01  -5.2096708e-01   1.9360524e-01  -3.5807466e-01  -5.5965417e-01  -9.8767373e-03  -1.8079796e-01   1.5966991e-01  -9.1604143e-02  -9.8239986e-01   9.0946414e-01  -1.6416341e-02   7.1712239e-01  -9.5175000e-01   1.7898539e-01   9.8534001e-01  -9.4904912e-01  -6.9495277e-01   4.5853943e-01   3.8131888e-01  -7.9052037e-01   2.6042636e-01  -1.0767786e-01  -2.8351284e-01  -2.5431225e-01   2.4087501e-01   9.2384515e-01  -2.5159428e-02  -6.5846082e-01   6.7633290e-01   9.7709916e-01   4.7120385e-01  -6.1826471e-01  -6.5597927e-01  -1.4634025e-01   2.6376906e-01  -9.4955158e-01   2.5647101e-01  -8.5014294e-01   3.2297167e-01   8.5234252e-01  -7.4511033e-01   9.2521299e-01   6.7913182e-02   3.7287178e-01   7.6429787e-01  -9.4886001e-03  -4.5858876e-01   8.5731436e-01  -1.3808772e-01  -9.4186760e-01   2.5711584e-01  -6.1646100e-01  -6.3465488e-01   2.0935095e-01  -6.8112710e-01   3.9963898e-01   8.2401239e-01   8.7978730e-01  -5.1693582e-01   7.0272483e-01   2.3810082e-01   2.7378248e-01   3.6887110e-02  -3.3750480e-01  -3.4836398e-01  -4.1896262e-01   5.1075387e-01  -5.8799961e-01   1.2163576e-01   9.3564989e-01  -6.3821591e-01   1.1059400e-01  -3.9869249e-01  -8.3698113e-01   8.1931143e-01  -7.9405063e-02  -7.9409636e-01  -9.6127467e-01  -8.7209849e-01  -8.6791756e-01   8.8241554e-01  -8.5083601e-01   5.6016607e-01   2.8167416e-01   1.7729059e-01   9.2284471e-01  -9.0348814e-01   4.4740319e-01   7.9015258e-01  -7.0838252e-01  -2.2539242e-01  -5.3402443e-01  -9.7899323e-01   7.5066929e-01   8.7911185e-02   2.5030919e-01   6.8595035e-01   9.3480427e-01   4.9041871e-01   8.2984893e-01   2.1561784e-01   5.4507789e-01   1.2987586e-01  -2.6805490e-02  -5.0502456e-01  -3.1288215e-01   6.8202654e-01  -9.9171092e-03  -5.2179153e-02  -8.3930306e-01  -9.7210009e-01   4.9300893e-02  -8.6309118e-01  -4.5592637e-01   4.3259739e-01  -3.4915509e-01  -4.5839037e-01  -8.1182715e-01   2.5455726e-01  -7.5832847e-01  -5.8000753e-02  -7.5998094e-01   4.7492521e-01  -2.3221282e-01   9.5238044e-02   4.6881965e-02   6.2104081e-01   5.1623715e-01   5.8337664e-01   6.3237886e-01   8.0426486e-01   8.6866977e-01   9.8782595e-01  -6.7530118e-01   3.8896558e-01   7.4741919e-01   9.9057176e-01   8.9716959e-01  -3.8448583e-01  -1.0186667e-01  -9.4782522e-01  -1.6581610e-01  -8.9543213e-01  -4.5120441e-01   2.0353449e-01   4.4327115e-01  -3.8077932e-01   2.6492608e-01   7.7329977e-01  -7.1648737e-01   1.3303848e-01   2.1903578e-01  -5.5839203e-01   6.9304695e-01   8.8935769e-02  -3.4597496e-01  -9.6593055e-01   9.1735229e-01   6.5735074e-01   3.4303935e-01  -8.3404247e-01  -5.8262157e-02  -2.2342196e-02   1.9687993e-01   3.8105983e-01   6.1108490e-01  -3.3603246e-01   5.7329101e-01  -3.7848597e-01   2.9715492e-01  -1.9320255e-01   3.4029796e-01  -4.3418096e-01  -2.3215688e-01   2.6811288e-01   7.3708221e-01   2.7203856e-01  -9.0070111e-01   4.2218419e-01  -7.3152403e-02  -4.9319725e-01  -8.4067198e-02  -1.6071371e-01   4.1211484e-01   4.4416028e-02  -4.4094266e-01   6.6481843e-01  -3.5118283e-01   6.8918730e-01  -3.3474300e-01  -2.7139393e-01  -9.2241391e-01  -4.5867096e-01  -4.7571896e-01   5.5271150e-01  -2.9409342e-01   5.1486787e-01  -4.7533422e-01  -3.2140459e-01  -5.7530428e-01   8.3698036e-01  -8.4325007e-01   1.1361948e-01  -8.5196723e-01  -3.4356076e-02  -3.6780374e-01  -6.3916016e-01  -3.8094052e-01  -2.7618500e-01  -4.7463870e-01   1.7617300e-03  -3.7331373e-02   1.5709508e-01  -1.8225576e-01  -8.0360886e-01  -4.6329373e-01   5.5139432e-01   3.2446494e-01   8.5539894e-01  -5.8370458e-01  -8.2388142e-02  -7.1426843e-01   9.4005648e-01   7.2671216e-01   8.9379638e-01   1.1179850e-01   2.0022176e-01  -6.6985250e-01  -2.4801654e-01  -9.9273035e-01  -7.4686880e-01   8.8087892e-01   8.4117033e-01  -8.0722489e-01  -8.8041524e-01   7.3731644e-01   5.0201493e-01  -5.1944265e-01   3.1149167e-01  -9.6873145e-02   4.3122918e-01   6.5995528e-01  -9.0819356e-01  -4.1354976e-01   1.7598826e-01   5.1315948e-01   3.5542814e-02   3.6499903e-01   1.2925851e-01   8.1292602e-01   5.3604772e-01   2.5993684e-01   3.6731539e-01  -6.6703349e-01   9.9685033e-01   4.8880797e-01   9.3861773e-01   6.8838101e-01   8.3876396e-01   4.2416618e-01   6.4506672e-02   3.2427727e-01  -3.8810871e-01   4.8782326e-01   7.3293660e-01  -8.3793719e-01  -8.8114106e-01  -4.8529572e-01  -2.8516739e-01   9.0331740e-01   3.9584537e-01  -1.6531157e-01   4.4164819e-01   9.2976863e-01  -4.8508027e-01  -6.8331677e-01   1.7266210e-01   2.3388798e-01  -6.1655488e-01   4.5517011e-01   7.4212140e-01  -1.0198703e-01  -6.7322419e-01   3.5224943e-01   5.7773162e-01   1.3924161e-01   9.7272144e-01  -8.5557078e-01  -2.1864459e-01  -1.6887296e-01  -1.1081726e-01  -4.1869256e-01   1.7272716e-01   4.0751250e-01   7.8650546e-01   4.7771768e-01   3.9345440e-01   4.9699151e-02  -6.2657227e-01   1.9697885e-01  -4.3449245e-03  -6.0068091e-01   3.7448582e-01  -5.5429283e-01  -3.6920834e-01   5.8927706e-01   3.5345618e-01   8.1033300e-01  -4.0591080e-01  -9.5203783e-01  -4.3085699e-01  -4.6061172e-01  -4.2752031e-02  -6.8709058e-01   7.8317480e-01   8.6480167e-01   9.8044547e-01  -3.3490156e-01   3.7769073e-01   3.6380360e-01  -3.8265020e-01   4.9599971e-01   9.9094699e-02   1.4954342e-01   3.4397296e-01  -9.4043078e-01  -7.9078681e-01   7.3444033e-02  -1.9646369e-01  -1.3584989e-01   7.7286270e-01   1.1634348e-01  -5.6562063e-01  -2.4456898e-01  -6.1502161e-01  -7.3961991e-01   2.3738612e-01  -2.0786030e-01  -3.0299800e-01  -7.1066560e-01   9.4730998e-01   7.6925512e-01   5.3675155e-01  -3.4413764e-01   1.1969974e-01   3.5973968e-01  -7.4376075e-01  -1.8539433e-01   5.6707375e-01  -1.5203611e-01   5.5486462e-02  -8.0840132e-01  -8.4655766e-01  -2.9107273e-01   4.6076578e-01   5.8654071e-01   1.9285164e-01   7.9550680e-01   4.5824938e-01   5.6675122e-01   8.9236497e-01  -5.0697796e-01   5.4070609e-01   4.3699454e-01   6.4177594e-01   7.5666200e-01  -2.2108547e-01  -1.3000902e-02  -9.9491436e-01   5.1852259e-01  -1.7195337e-04  -4.7184505e-01  -5.8149679e-01  -6.4980197e-01   8.1373763e-01   7.1705986e-01  -3.9699142e-01  -9.6324977e-01   6.1580908e-01   1.3906453e-01  -3.4205382e-01  -2.7292262e-01  -1.2921797e-01   7.6846921e-01   7.5111052e-01   3.0087888e-01   3.4241372e-01  -4.2152836e-01  -6.1165326e-01  -6.5448049e-02   7.4360976e-01   9.9841046e-01  -5.0543965e-01   9.8960494e-01   8.5573420e-01  -6.3792307e-01   3.3342312e-01   6.1440213e-01   2.2473310e-01   1.0334154e-01  -9.7761094e-01  -5.0448144e-01   7.9281279e-01   7.5756160e-01   6.4341020e-01  -9.1591137e-01  -7.9165083e-01  -8.7976476e-01  -3.1042304e-01  -9.0891119e-01  -8.1799594e-01   7.4696078e-01   4.9003005e-01   7.8273901e-01  -3.2640168e-01   6.4549786e-01   2.2915857e-01   4.9566875e-02  -4.5149654e-01   3.5354374e-01   4.0949682e-01   8.6851735e-01  -7.0259437e-01   3.3723126e-02  -3.0961516e-01   5.7298639e-01  -5.6998291e-01   3.7006461e-01   8.3209242e-01  -7.5826957e-01   2.7345207e-01  -7.4113405e-01   1.4897133e-01  -5.4973577e-01   9.8995414e-01   9.9365195e-01  -7.1947787e-01  -5.9284093e-01  -2.6622588e-01   8.0161046e-01  -2.6504494e-01  -1.3816294e-01  -1.5376602e-01   8.4744544e-02  -9.9157509e-01  -7.2684158e-01  -3.5024847e-01  -2.6955686e-01  -3.5387979e-01   6.5298064e-01   6.1348132e-01  -4.0731946e-01  -9.5518762e-02  -2.5095921e-01  -9.4983786e-01   7.9565039e-02  -7.7393676e-01  -4.1359386e-01   9.8827931e-01  -1.0965630e-01   5.4862332e-02   2.7595128e-01  -4.7438692e-01   9.9459123e-01   7.3970891e-01  -6.5980648e-01   9.1783628e-01   1.0725104e-01  -1.3539443e-01   8.2248691e-01  -1.1968320e-02  -6.5270997e-01   2.3184354e-01  -2.1008062e-01   4.2111196e-01  -8.8582470e-01  -3.8343778e-03   7.1957164e-01   2.6037486e-01  -9.0608653e-01   6.3595020e-01   6.6728668e-01  -7.1528719e-01  -8.7943679e-01   8.4104265e-01   2.5609079e-01   5.6165285e-01   4.6334301e-01  -9.1515007e-01  -8.5220278e-01   5.1407036e-01   7.5940120e-01   1.4182501e-01  -6.4727712e-01   8.2917641e-01   7.8458022e-01  -6.3770780e-02   7.5649361e-01  -8.2754780e-01   4.6615492e-01   7.4764856e-01   5.9722460e-01   4.8378798e-01  -4.1849843e-01   1.9385744e-01  -8.9468979e-02  -8.1970506e-01   9.9589365e-01  -5.6887111e-01  -1.1628270e-01   8.1882440e-03  -6.2469810e-01  -4.1205491e-01   6.1886308e-01   7.3792458e-01  -9.8496641e-01   5.2685226e-01   3.6239761e-01   8.2572418e-01  -3.5292512e-01   3.2821750e-01  -5.8708001e-01   2.3681564e-01   6.2879342e-01  -4.6023805e-01  -8.7622305e-02   5.4998978e-02   2.7993310e-01   6.8123829e-01  -6.0879702e-01   6.7946088e-01  -3.5106055e-01  -2.7332592e-01  -4.0817898e-01   6.9241644e-01   8.0896659e-01  -5.3582310e-02  -6.1744206e-01  -2.1696727e-01  -4.2045665e-01   5.5709739e-01   6.8589244e-01   4.8446100e-01   8.8275235e-01   5.2998356e-01  -2.8203850e-01   3.7231163e-02   5.8052074e-01  -7.9774436e-02   4.9856656e-01  -8.8391051e-01  -6.4576449e-01  -3.6090620e-01   3.2706049e-01  -9.8348399e-01   1.2194948e-01   3.5079531e-01  -8.9895314e-02   1.0468540e-01   5.1373241e-01   4.5430695e-01  -1.1511611e-01  -1.0869625e-01   4.4610829e-02   6.0233614e-01   4.7880847e-01   7.1244196e-01  -1.9808070e-01  -1.4176506e-02  -8.2068062e-01   3.5311972e-01   1.5356311e-01   1.9122449e-01   8.6734331e-01   1.8189574e-03   2.5478126e-01  -3.1428724e-01   3.2231072e-01  -8.9702436e-01  -2.6442980e-01  -9.1609304e-01   7.5254039e-01  -9.0132568e-01   5.0793435e-01   3.7243930e-01   5.9952688e-01  -3.3122149e-01  -2.4686905e-01   6.0224952e-01   6.9712481e-01  -1.2719215e-01   8.6083624e-01  -2.8104327e-02   3.2985386e-01   5.0015384e-01   2.5901577e-01   3.6032434e-02   8.6055186e-01   1.6903645e-01  -9.3564638e-01   2.6759226e-02   3.3081602e-01   4.5061029e-01  -1.7870065e-01  -9.3415371e-01   7.5211737e-01  -6.4504464e-01   4.3452244e-01   2.4012402e-01  -8.6825838e-01  -7.9411854e-01   1.4545283e-01   9.7308559e-01   7.5486483e-02   1.1500412e-01   6.9065146e-01   7.9539221e-01  -6.5281918e-01  -8.1924620e-01  -9.7163767e-01  -8.4302615e-01  -4.1764104e-01   8.0940733e-01  -4.7037063e-01   3.7594472e-02  -7.2128802e-01  -6.7187909e-01  -2.7702610e-01   1.2385936e-01   4.3692938e-02  -6.5866928e-01   1.5286980e-02   6.8122644e-01   6.7240844e-01  -7.7479851e-01  -3.0970652e-01  -3.5029043e-01  -8.4158522e-01   6.5996597e-01  -1.1763184e-01  -9.5369387e-01   8.1124991e-01  -9.4155927e-02  -5.4936568e-01  -7.2268551e-01   9.3684478e-01  -6.4490424e-01  -3.5687353e-02   2.7071692e-01  -1.1067712e-01  -6.4926874e-01  -8.3904130e-02   1.5867057e-01   9.5629143e-01  -6.2018382e-01   4.6650919e-01   5.2427750e-01   6.6770879e-01  -8.3590240e-01   5.5539901e-02   2.4535528e-01  -4.7320462e-02   2.6488685e-01   9.8045484e-02  -5.2954531e-01  -9.3279713e-02   1.0961357e-01   3.8948167e-02   4.9862095e-01  -2.3663555e-01  -1.7893066e-02   6.7577475e-01  -9.6681082e-01  -1.7146719e-01  -1.3006393e-01   1.6417938e-01  -7.0118481e-01   7.0265558e-01   3.2827337e-02   4.3622171e-01   6.5539953e-01  -3.0644453e-01  -6.9508131e-01  -7.4573383e-01   3.8165508e-01   6.9674309e-01  -8.7281504e-01  -6.8761244e-01  -5.6151587e-01  -7.9645892e-01   9.2565560e-01  -8.9886301e-01  -1.2825971e-01   8.3790609e-02   3.2349090e-01   8.6920961e-01  -7.4025797e-01   1.1589035e-01  -7.3015372e-01   3.1489630e-01  -2.6858800e-01  -4.1718750e-01   1.1813870e-02   1.6592789e-01   1.7339556e-01  -4.5780931e-01   2.0609944e-01   6.1276728e-01  -5.7992718e-02  -2.7202951e-01   8.8459184e-01  -4.2483400e-01   3.6444677e-01   7.1694341e-01   5.6695379e-01  -3.2136667e-01   2.0412177e-01   8.8287570e-01  -4.8985198e-01   5.2786515e-02  -4.2710820e-01   1.3812980e-01  -7.2507277e-01  -7.9247324e-01  -5.5170315e-01  -8.6535292e-01  -2.7837263e-01  -9.1025656e-01  -1.7837484e-01   8.3709821e-01  -1.5902828e-01  -5.2401776e-02  -9.6419265e-01  -4.6607217e-01  -9.2595382e-01   6.3669787e-01   3.1958365e-01   6.6699030e-01  -9.8164213e-01  -9.2126220e-01   4.0730399e-01  -1.1197455e-02  -4.4490610e-01  -6.9765435e-02   3.4470961e-01   4.5984192e-01   5.7653218e-01   2.6826645e-01   1.8793373e-01  -7.8040314e-01
   8.9289810e-01  -9.6829656e-01  -2.4248518e-01  -4.2486451e-01   9.0349321e-01  -6.6942529e-02   4.7286080e-01  -7.1956185e-01   7.0847219e-01  -5.3029176e-01  -3.8140061e-01   4.3026593e-01   3.1506895e-01   3.2995179e-01  -4.4904494e-01   6.0652563e-01   3.3839932e-02   6.3433898e-01   1.8342963e-01   9.5256976e-02  -2.9630085e-01   6.1104413e-01  -8.6503718e-01  -9.5657436e-02   6.5568704e-01  -3.4911182e-01   5.3599807e-01   4.1475357e-01   3.6368791e-01  -4.3973055e-01   1.9727406e-01   8.4596663e-01  -6.8122985e-02   3.1462660e-01   2.8436111e-02  -4.5999508e-03   2.6452194e-01  -7.9930690e-01  -9.8043440e-01  -3.8771832e-01  -1.6114007e-01   5.0667587e-01  -7.6132967e-01  -3.1502638e-01  -5.4185115e-02   4.2870915e-01  -2.6236460e-01  -1.9581019e-01  -8.3060958e-01   3.6514866e-01   3.7278829e-01   7.3548967e-01  -2.0704192e-01   7.0509987e-01   7.3008955e-01  -9.4622673e-01   7.6288305e-02  -4.9000144e-01   4.8042284e-01   1.2311797e-01   3.4325599e-01  -8.1660425e-01  -1.4241292e-01  -7.0019577e-01   5.7026252e-01  -4.5136307e-01   3.8466991e-01   9.3984270e-01   2.5446684e-02   6.1769078e-01  -6.4253508e-01  -5.0514787e-01  -5.4110154e-01   1.9616774e-01  -2.1360003e-01  -4.4593301e-01   6.7203916e-02   6.3908252e-01  -5.1508305e-01  -5.9166019e-01   3.0079356e-01  -6.3887716e-01   4.6606495e-01  -8.6123482e-01  -6.3526484e-01   8.3292349e-01   6.8899883e-01   3.3889409e-01  -1.7092678e-01  -5.1190771e-01   6.5005055e-02   8.8868412e-01   6.9000170e-01   9.4999230e-01  -4.7846165e-01  -9.3930848e-01  -5.9519725e-01   1.4994248e-01   1.8171075e-02   4.5119882e-01  -5.0845507e-01  -5.1898129e-01   9.9268073e-01   5.0538808e-01  -5.5616596e-01  -7.3115842e-01   1.0572996e-01   9.2184360e-01   1.9236387e-01   4.4163769e-01   2.1022354e-02   7.1592124e-01   2.0166638e-01   5.2770880e-02  -9.8592168e-01  -4.8032015e-03  -6.4354447e-01  -5.0150698e-01  -2.4722407e-01   8.3242802e-01   1.6393610e-01  -9.8784950e-01  -3.8199443e-01   4.0374525e-01  -6.0595552e-03  -9.7595719e-02  -4.8459801e-01   9.4707891e-01  -7.6938933e-01  -9.0230937e-01  -7.7797149e-01   6.8314864e-01   3.5939342e-01   2.0250167e-01   4.4654791e-01   3.4363048e-01   8.6888030e-01  -2.1471270e-01  -7.6331412e-02  -9.2822638e-01  -2.6386040e-01   1.9102235e-01   3.5049699e-01   9.9945227e-01   6.7379361e-01  -1.9914499e-01  -1.7422399e-01  -9.5282307e-01  -8.7363101e-01   7.3309189e-01   7.7263492e-01  -8.2900006e-01  -1.3517005e-01   8.6517776e-01   2.1511875e-01  -1.6410420e-01   5.6231371e-01   2.8658162e-01   7.2649019e-02   4.1033914e-01   9.9693174e-01   9.0895376e-01   8.3057733e-01  -8.0582255e-01  -2.5569241e-01  -9.8367852e-02  -2.7809731e-01   6.4454392e-01  -1.8012719e-01   6.1109548e-01   8.4490460e-01   1.8620577e-01   1.5153422e-01  -6.8096193e-01  -8.9252413e-01   9.3797869e-01  -8.6073885e-01  -1.9946312e-01  -2.2806330e-02  -1.5016317e-01   6.3650995e-01   6.6519162e-01   5.6891238e-01  -3.2814340e-01   9.3598829e-01  -2.5236722e-01   8.8193082e-01   4.6713533e-01  -5.8144224e-01   7.5533476e-02   4.8249800e-01  -4.6272091e-01  -6.1793427e-01  -6.8700739e-01   7.6064155e-01   8.2673449e-01  -1.8576245e-01  -5.4856068e-01   1.5827559e-01  -5.0666045e-01   5.5633670e-01  -9.7513714e-01  -3.4199807e-02   8.3209853e-02   1.4644735e-01   7.9181931e-01  -2.3202744e-01   3.2766081e-01   2.8893837e-01  -9.0226737e-01  -4.0727206e-01   4.9983522e-01   3.7506439e-01   6.5842331e-01  -7.6091896e-01   6.6749918e-01   9.9312069e-01   3.2107853e-01   3.3665720e-01   8.1755717e-01   5.6024953e-01  -5.2782844e-01  -7.5410018e-03   3.9609642e-01  -7.3585961e-01  -6.9748479e-01  -3.5274453e-01   6.9583597e-01  -3.3354755e-01   8.4660871e-01  -9.3875071e-01  -7.4631412e-01   7.5521164e-01  -3.2489328e-01  -8.3439856e-01   9.0734103e-02  -6.7101936e-01   6.6560626e-01  -2.2464470e-01   6.0953822e-01   7.7852243e-01   1.7592575e-01   9.9276785e-01   3.8890951e-01  -9.4048737e-01   4.7392708e-01   4.9760272e-01  -3.1183020e-01   8.0049448e-01   1.0507652e-01   3.7284695e-01  -6.2261309e-01  -4.8577160e-02   2.3974456e-01   9.5217356e-02   4.7529425e-02   9.4378250e-01   3.7128839e-03   5.1980655e-01  -9.4570281e-01   6.0636176e-01  -3.5206893e-01   3.4566346e-01   6.7365292e-01   4.7102114e-01   5.5684115e-01   6.2909371e-01   7.6657365e-01  -1.1310504e-01   2.4746383e-01   9.7271105e-01  -1.0318295e-01  -2.7247448e-01  -2.5954110e-01   3.9095158e-01   9.9383232e-01   4.1653413e-01   2.4509082e-01  -2.2202138e-01  -6.5957170e-01   9.7249105e-01  -8.7312049e-01  -3.1468395e-01  -3.6653535e-01   3.8188074e-01  -5.4015361e-01  -2.3020245e-01  -7.9597209e-01   9.8232126e-01  -9.6579699e-01   6.6130491e-01   1.5061252e-01   4.6761207e-01   5.5178705e-02  -7.4634591e-01   7.8438260e-01  -3.4441522e-01   2.6312052e-01   6.0493590e-01   4.3646182e-01   9.8905871e-01   4.5953605e-01   4.0346222e-01   7.2067673e-01   5.9454246e-01   7.9592799e-01   3.5861545e-01  -9.1496181e-01   9.9557993e-01   2.8780429e-01  -3.9516293e-01  -1.8696718e-01   9.5154641e-01   6.5331909e-01   7.4474375e-01   6.7687583e-01   1.0782809e-01   7.3488181e-01  -2.1478291e-01  -1.7891264e-01   9.2344153e-01   3.8215426e-01   8.1426343e-01  -7.7005998e-01   4.8496620e-02   3.0606252e-01  -5.5094115e-01  -8.8829847e-02  -2.1980874e-02   9.7833582e-01   6.6448785e-01   3.0885008e-02   6.1195807e-01  -5.1062727e-01   7.3392670e-01  -6.3486758e-01   8.9568205e-01  -6.6284388e-01  -1.9513569e-01  -5.7383006e-01  -5.9166485e-01   6.7055516e-01  -7.5273731e-01  -9.2140881e-01   3.6035504e-01   1.0947730e-01   8.1791949e-02  -5.3382785e-01  -7.9663355e-01  -1.7923854e-01   6.5782696e-02  -5.5152175e-01   3.8585783e-01  -6.0532763e-01   8.4069005e-01   6.5479802e-01   3.5917843e-01  -2.0199292e-02   5.9451968e-01  -3.7114843e-01   3.6194447e-01   1.4748324e-01  -2.8020089e-01   9.4449797e-01   2.0428273e-01  -9.5081858e-01  -7.6403775e-01  -8.7971735e-01   3.3530133e-01   5.3880598e-01  -1.8582463e-01   6.3527801e-01  -1.0758299e-01   7.6001073e-02  -8.2806950e-01   1.7818026e-01  -4.5810055e-01   9.7197196e-01  -8.8867075e-01  -6.1271912e-01  -7.8727606e-01  -2.7138751e-01   7.0005970e-01   9.3420278e-01  -2.4904157e-01   1.4702662e-01   5.3166552e-01   4.6073731e-01  -4.0800562e-01   4.6675888e-01  -3.4572131e-01  -5.5022267e-01  -8.3729919e-01  -1.9939800e-01  -8.5846392e-01  -5.2933224e-01   6.1096519e-01  -7.3901404e-01  -7.0662677e-01  -8.0720844e-01  -8.7586076e-01  -3.0122626e-01  -7.0456099e-01   8.9649800e-01  -3.1378717e-02   7.1252601e-01  -1.1273166e-02   1.0486789e-01  -3.2887654e-01  -5.4490247e-01   3.7691101e-01  -7.6173135e-01  -4.8497939e-01  -2.0601996e-01   8.8282078e-02  -1.2173912e-01  -4.5051806e-01  -5.7735043e-01   2.0409837e-01  -8.0002199e-02  -9.2848601e-01  -2.3417842e-02   6.2566010e-01  -4.7197461e-01  -6.3926453e-01  -3.8567680e-02   5.7219018e-01  -2.5713360e-02   5.6851729e-01   5.2163978e-01  -4.2462522e-01  -8.7332999e-01   6.2107099e-01  -7.9257638e-01  -2.8885805e-01   8.5788230e-01  -5.9255672e-01   4.9616092e-01   5.4907574e-01  -8.8670327e-01   8.8486273e-01  -4.8499164e-01  -5.1460624e-01  -8.2580283e-01  -4.7295963e-01  -9.9225188e-01  -1.6673735e-01  -9.7408996e-01  -1.1990603e-01  -4.7164821e-01  -3.7688275e-01  -5.2251706e-01   5.0839503e-02  -8.1466525e-01  -4.5427989e-01   2.9311758e-01  -9.5353430e-01  -8.7373523e-01   1.9096884e-01  -3.4044559e-01   9.7826792e-01   9.5935595e-01   2.1073169e-01  -4.1882265e-01   3.5492166e-01   5.3881515e-01  -6.5159958e-01  -5.4917761e-02   9.2520996e-01  -8.4334496e-01   1.6657862e-01   1.4596015e-01  -4.3270447e-01   4.4931438e-01   6.9639889e-01   2.1421268e-01   9.7176409e-01   3.0941081e-01  -2.8229684e-01   5.1379014e-01  -9.9565191e-01   1.3022176e-01  -1.7534862e-01   8.9336300e-01   9.7231562e-01   4.4097532e-01  -5.3752798e-01  -1.9304715e-01   2.9034982e-01   5.2358764e-02  -7.3293712e-01  -6.5003663e-01   8.2143649e-01  -7.8250880e-01  -4.2369405e-01   1.6294281e-01  -5.0784450e-01  -4.5371868e-01  -8.1706246e-01   5.9006180e-01  -2.3434948e-01   1.1383865e-01   1.7482877e-01   6.2776437e-01  -4.7496215e-01  -6.2093727e-01  -6.7503597e-03  -9.6905028e-01  -2.0126303e-01   7.7239697e-01   5.4208694e-01  -2.6693127e-01  -6.4478011e-01   9.0546777e-02   8.7714999e-01   9.2042912e-01   2.4759318e-02  -4.4346297e-01   9.3448292e-01   6.5126237e-01   5.5720470e-01  -3.9780388e-01  -1.7659734e-01  -2.3464467e-01   7.8247085e-01   5.6156894e-01   4.2460339e-02   1.2710328e-01  -1.2122230e-01  -3.9291535e-01   9.0805449e-01   3.7476268e-01   6.1687467e-02  -3.8418258e-01  -8.4089830e-01  -6.7340653e-01  -4.0839412e-01   6.3795750e-01   5.9844826e-01  -7.8187616e-01  -3.2146452e-01   1.8214880e-01   9.1677154e-01  -6.5450288e-01   5.8585338e-01   3.9152650e-01   5.0824979e-01   3.4386132e-01   3.3582685e-01  -7.7942130e-01  -9.0177670e-01   6.0525899e-01   1.5291260e-01   9.5864525e-01   7.9757530e-01  -2.1234231e-01  -3.1558333e-02  -1.4301823e-01   8.1920998e-01   3.5131629e-01  -6.8336968e-01  -3.8838582e-01   3.2496756e-03  -6.6314159e-01  -9.8087929e-01   4.1929243e-01  -9.0856642e-01  -3.2606880e-01   2.9375131e-01  -7.2258752e-01  -6.3624459e-01   4.6180388e-01   8.0368745e-01   5.4534336e-01  -1.4074518e-01  -9.6818071e-01   6.4675854e-01   9.6505974e-01   9.8567694e-02  -4.2395521e-01   9.7269178e-01  -3.4799371e-01   2.5145785e-01   4.9060768e-01   1.9801243e-01  -8.0124705e-01   3.5033910e-01   9.6263415e-01   5.9917359e-01  -9.9341439e-01   2.4502210e-01  -5.5878496e-01   1.5931535e-01   6.6588040e-01   8.8762041e-01   3.9954334e-01  -8.6537121e-01   9.1792798e-02  -5.5226093e-01  -2.7933816e-01   1.3246503e-01   2.1702349e-01   2.4378759e-01   1.6925183e-01  -1.8591023e-01  -3.7931522e-01  -4.9141015e-01  -2.6530693e-01   2.8857040e-01   4.4561368e-01  -4.2647423e-01  -3.2053247e-01  -2.0804467e-01  -7.6699784e-01  -9.7061887e-01  -2.3884578e-01   1.5918537e-02  -2.4058280e-02   7.3370396e-01  -3.9569676e-01  -8.6356881e-01   5.7753530e-01   5.1839990e-01  -7.9116628e-01  -3.3221471e-01  -3.5292757e-01   4.8984738e-01   4.2166578e-01   6.0280919e-01  -4.9651623e-01  -7.9154547e-01  -3.1262369e-01  -7.9525285e-01   2.8921171e-01   1.4807131e-01  -8.4998849e-02   5.1421305e-01   1.5441286e-02  -9.5464212e-01   9.4026976e-02   1.1241218e-01  -8.8710935e-01  -1.4518816e-01   9.2679659e-01  -9.0978396e-01   4.0427960e-01   3.5694049e-01  -1.3701180e-01  -7.3286253e-01  -6.9097944e-01  -4.3488860e-01  -5.7533519e-02   1.8939597e-02   7.6246172e-01   3.3935724e-01  -9.8025731e-01  -4.5963495e-01   1.9186124e-01   5.6086217e-01  -5.4108544e-01  -5.7280041e-01  -6.9348366e-01   2.3715046e-02  -3.7213111e-01  -1.8915273e-01   9.6094212e-01  -9.6128129e-01   8.7645624e-01  -2.7632410e-01  -5.3633913e-01  -1.9614229e-01  -1.5558062e-01   7.8754025e-02  -9.2686863e-01   6.2671214e-01  -3.7327223e-01   4.9928006e-01   9.8011057e-01   1.4607474e-01  -6.4699351e-01   9.7142983e-01  -2.3415771e-01  -8.9863449e-01   4.4179173e-01  -7.0302405e-01   4.3799943e-01   6.2362776e-02  -7.4522073e-01  -4.3054807e-01   5.9771428e-01  -4.7426122e-01  -3.1652739e-01  -7.5114966e-01  -3.7935703e-01   9.6756191e-01  -1.8080657e-01  -5.5315458e-01  -6.8302226e-01  -5.6620275e-01   8.8594066e-03  -3.4929962e-01   4.4004973e-01  -9.9883981e-01   9.6771145e-01   5.2957542e-01  -7.2392823e-01  -6.1070298e-01   1.7245800e-01  -8.9170575e-01  -9.9300437e-01  -3.3559022e-02   7.5077653e-01  -5.6678570e-01  -1.6785361e-01  -2.0231220e-01  -2.6501521e-01   8.3584475e-01   8.9578059e-01   1.0466579e-01   3.9042042e-01   2.4893150e-01   4.7177207e-01   6.1561860e-01   4.2231231e-01   8.2492854e-01   2.1907513e-01  -4.2607093e-01  -6.7508401e-01   9.8437171e-02  -5.5160161e-01   2.2071857e-02  -1.7877710e-01  -2.0215468e-01   3.1742181e-02  -5.5843863e-02  -2.3481373e-01   4.3574141e-01  -7.6936153e-01  -5.6326884e-01   3.3259862e-01  -8.1937110e-01   3.0383452e-01   2.7187963e-01   9.2434821e-02  -2.1028099e-01  -4.5878858e-01  -2.1180331e-01  -2.5135873e-01   1.9720863e-01  -2.9871012e-01   1.4782592e-01  -8.6761301e-01  -4.2013745e-01   3.0951524e-01  -1.9776770e-01   6.6116948e-01   4.6471155e-01   5.5210640e-01   1.2389528e-01   5.7676279e-01   8.6299142e-01   3.3780665e-01   5.8021553e-01  -4.7026279e-02  -3.6376050e-01   4.7328760e-01  -3.1611151e-01  -7.0059844e-01   2.7895208e-01  -9.6748686e-01  -8.6523019e-01  -8.5991934e-01   7.9792230e-01  -7.9916458e-01   5.1034954e-01   9.0495727e-01   7.7210923e-01   4.5280464e-01   6.8180441e-01   1.4594654e-01   6.6048465e-01   5.8493388e-01   9.4870081e-01   2.4266640e-01   9.9653179e-01  -5.9793049e-02   8.3022287e-01  -4.7061873e-01  -2.4613533e-01   5.5972117e-02  -3.0016552e-01  -8.0737748e-01   8.4373949e-01   3.8767785e-01  -1.8777382e-01  -7.7475207e-01  -7.1220709e-01  -1.7024679e-01  -9.3005899e-01   7.1878579e-01   4.7365251e-01  -8.0098056e-01  -6.8993291e-01  -2.1641382e-01   2.0627808e-01  -7.4030254e-01  -3.5098665e-01  -1.7238096e-01  -3.8416753e-01   6.1305708e-02   9.3525957e-01  -8.9953777e-01  -9.2240752e-01  -2.0522517e-01  -5.3022770e-01   4.7797523e-01  -7.8708688e-01  -4.7847390e-01  -9.7036437e-01  -5.1407816e-01   5.7853953e-01  -3.4820133e-02  -7.4327308e-01   5.3383536e-01   8.0346325e-01   8.7463097e-01   7.8812774e-02  -2.9407433e-01   1.6699807e-01  -6.1882879e-01  -8.5040643e-01   8.8529199e-01   9.9187639e-01   8.2363236e-01   4.6312616e-01   7.8714927e-01   2.3795975e-01  -8.2751683e-01  -2.8420325e-01   8.1076244e-01   4.7302099e-01   3.3309035e-01  -1.8247739e-01   1.6425068e-01  -2.2656986e-02   5.8932566e-01   4.1431355e-01   1.8533507e-01  -5.3329971e-01   5.2381642e-01   6.9921273e-01   5.5984534e-01  -3.7227048e-01   8.5856211e-01   8.8960750e-01   4.3484752e-01   6.2440238e-02   7.5825250e-01  -1.8857577e-01  -2.9686974e-01  -8.9863222e-01  -8.8103174e-02  -6.0773664e-01  -2.2196440e-01   9.1524728e-01  -9.3963647e-01   4.5007082e-01   8.3237364e-01  -2.2357970e-01   5.6773843e-01  -6.0255568e-01  -2.2108018e-01   3.9437553e-01  -3.3775049e-01   1.9703517e-01  -4.5113992e-01  -6.6158859e-01   9.2012066e-02  -4.2374343e-01   8.5345245e-01  -8.6920469e-01   5.8933328e-02   2.2577896e-01   2.4133060e-01  -2.9145817e-01   1.5572886e-01   9.5671858e-01  -6.2196712e-01  -7.0877180e-01  -5.9091969e-01   8.2319438e-01  -9.9001026e-01   6.5481577e-01  -5.9666549e-01  -6.3941859e-01  -8.1285653e-01  -3.3088526e-01  -2.0566034e-01   6.2013948e-01  -6.8768044e-01   9.8848215e-01  -6.2852424e-01   1.5877759e-01  -8.4961453e-01  -6.3622638e-01  -1.7399485e-02  -1.0332597e-01  -8.7018402e-01   5.1585667e-01   6.5627275e-01  -5.4634221e-01   2.2692587e-01   5.7573431e-01   7.6540916e-01  -6.5542971e-01   1.5061595e-01  -7.6727862e-01   3.1265425e-01  -9.9091482e-01   3.9743238e-01   5.4521509e-01   4.9116193e-03   2.5216129e-01  -1.8978240e-01   7.7770729e-01  -9.4451974e-01  -4.4455861e-01  -8.9154308e-01  -4.4941908e-02  -6.5304097e-01   7.6682841e-01  -2.4411538e-01  -5.6304202e-01  -6.5090328e-01   1.2455762e-02   8.5717259e-01   9.7448929e-01   2.2575747e-01  -8.4652027e-01   5.9611965e-02  -6.2228381e-01   4.0856686e-01  -1.5634163e-02  -1.4660308e-01  -8.8607093e-01   6.4535129e-01   8.8619850e-01  -8.2518673e-01  -7.1035423e-01  -4.2934796e-01  -2.2439885e-01  -6.8629802e-01   6.3423404e-01   3.3177098e-01   5.2327988e-01   2.3569149e-01   3.3077993e-01  -1.6296105e-02  -2.5678752e-01  -5.2009135e-01  -7.2689145e-03   4.0150272e-02   6.5296617e-01   3.3329849e-01  -9.5839542e-01  -3.0851647e-02   6.4874306e-01  -7.5955658e-01  -6.4072224e-01   7.6789320e-01  -9.1908188e-01   6.1580204e-01   2.4088110e-01  -3.4643783e-01  -6.5080707e-01  -3.1431566e-01  -5.9054034e-01   6.7730796e-01   7.0848241e-01  -3.5819696e-02   5.7446381e-01  -3.7475458e-01   3.7078127e-01   1.3106325e-04   2.5864839e-01   8.7052469e-01  -6.5426834e-01  -3.9543810e-01  -3.5878053e-01   2.4528088e-01   8.7081800e-02   9.6778627e-02  -4.5403372e-01  -2.2383293e-01  -6.3055025e-01  -8.5262663e-01   9.9839740e-01  -7.4777482e-02   8.2615809e-02   3.0636807e-01
   9.7513042e-01   2.4646294e-01   9.1093033e-01  -5.9021069e-01   6.7153938e-01   6.7807582e-01  -5.2765415e-01   3.9762125e-01   9.7869549e-01   5.6135495e-01  -7.5923682e-01   6.9616783e-01   4.2004530e-01  -7.2507112e-02   3.8930625e-01  -2.0381378e-02  -1.9899827e-01  -5.0363891e-01   5.8271926e-01  -1.8196275e-01  -3.5922728e-01  -1.5363013e-01  -6.3533664e-01  -4.8527048e-01  -1.8761698e-01  -1.8723783e-01  -8.9383221e-01  -3.0023819e-02   9.4095424e-01  -7.5691950e-01   2.3000107e-01  -6.6780868e-01   4.0818261e-01  -5.1470714e-01  -1.7421437e-01  -1.2767829e-01  -9.2713819e-01  -9.1562042e-01  -3.2910047e-01   4.3506831e-01  -1.2649768e-01   4.8030499e-01   3.9783231e-02  -9.8972396e-01  -3.3257578e-01   9.6920760e-01   7.2577103e-01   8.6042094e-01  -8.1431249e-01  -9.2235816e-01  -9.1058018e-01   8.9926668e-02   1.2949449e-01   4.2935758e-01   7.9481744e-01  -1.4790012e-01  -9.2121660e-01   5.3551976e-01   8.3956319e-01  -2.3866722e-01   1.2765464e-01   2.7929806e-01   6.3059481e-02   2.2159836e-01   1.2478420e-01   7.8919162e-02   7.3312477e-01   5.1974663e-01   8.7724908e-01  -5.4441632e-01  -6.8839816e-01   8.8726550e-01  -1.4129641e-01   2.9255387e-01  -4.7168082e-01  -8.1355681e-01   7.1364592e-01   8.7511819e-01  -3.2779200e-01   4.9541846e-01   9.6750358e-01  -4.7229412e-01   2.2907079e-01  -1.7962161e-01  -8.4560832e-01  -8.7856538e-02  -9.0825689e-01  -3.4628480e-01   1.4990107e-02  -2.5950944e-01   1.4395961e-01   3.2116309e-01  -9.7101187e-01   4.8595030e-01   1.6682119e-01   9.8249111e-01  -1.8798077e-01  -6.0867906e-01   2.5237551e-01   4.2019952e-02  -2.4262677e-01   6.7448896e-01   2.9209921e-01   5.8614010e-01  -4.9584163e-01   8.0193627e-01   9.5033735e-02   6.1706579e-01   4.1723303e-01  -4.8451370e-01  -5.3735763e-02  -5.6626935e-01  -8.5656764e-01  -5.5886788e-01   7.4665587e-01   2.3391972e-01   2.0610308e-01  -3.5997224e-01   9.7029465e-01  -3.1583359e-01  -8.0758718e-01   9.0865756e-01  -3.9077299e-01   3.3687974e-02   6.7205756e-01  -5.7998034e-01  -9.4695445e-01   5.1902270e-01  -2.5881648e-02  -8.3682790e-01  -1.3401366e-01   7.9030880e-01   1.2166612e-01   1.9698788e-01   5.3808364e-01   9.1026983e-01  -5.9221163e-01   6.5921809e-01  -8.7872898e-02  -2.2576536e-01  -6.2434545e-01   3.0686576e-01   7.0122226e-01  -8.5502034e-01  -4.2719268e-01   3.8437286e-01  -7.3623658e-01   2.8992677e-01   9.5921815e-01  -8.2637565e-01  -1.3982237e-01  -3.5727822e-01  -4.6840729e-01   8.7285745e-01  -8.0826751e-01  -8.3328282e-01  -4.0638156e-01  -3.8044870e-01   9.1635393e-01  -1.7567128e-02  -8.6168531e-01  -3.7482628e-01   3.1223251e-01  -9.8699301e-01  -9.6860376e-02  -7.2591624e-01  -2.6961498e-01   8.2471167e-01  -2.8352402e-01  -7.6774072e-01   8.7806819e-01   6.1079859e-01  -4.7164757e-02  -1.2140162e-01  -1.4843386e-01  -3.9868519e-01   7.0037162e-01  -1.7768066e-01  -1.2514505e-01   1.6626254e-01  -6.2425076e-02   1.2180344e-03   8.1951651e-01   3.8778382e-01   8.0093332e-01   8.1142741e-01  -5.4128803e-01  -5.0570731e-02  -8.2500744e-01  -7.9200985e-01   2.4329068e-01  -5.6415284e-01  -2.2946471e-01   1.5086184e-01   5.1255481e-01  -3.0567272e-01   2.8607244e-01  -3.8236881e-01   1.1566314e-01   9.5697236e-01  -7.3216772e-01   1.6454312e-01   5.3703980e-01   6.9216354e-01  -2.1627441e-01   9.6901396e-01   2.6512902e-01   2.0105289e-01  -9.1402948e-01   9.4382764e-01  -4.3216807e-02   1.1427559e-01  -1.4962158e-01   4.8818595e-01  -6.6012098e-01   7.6449171e-02   8.9263252e-01   6.4322758e-01   5.4514572e-02   8.2362598e-01   9.4907540e-01  -4.6573640e-02   3.3215250e-02  -9.3188435e-01  -7.9675411e-01  -2.4189402e-01  -5.7107890e-01   4.2460169e-01   3.6541232e-01   4.4637583e-01   9.0652122e-01  -6.0896934e-01  -1.1337726e-01  -4.5097753e-01   1.9394327e-02  -5.3934373e-01   6.8453045e-02  -1.8044259e-02  -7.0838520e-01   4.4417788e-01   8.1278043e-01   1.2813330e-01  -3.4067413e-01  -5.4207798e-01  -1.0025494e-01  -6.2962129e-02   4.8936869e-01   5.2804779e-01  -8.2769215e-02  -6.9680253e-01  -1.2067443e-01   5.6162677e-02  -1.5085195e-01  -2.3269207e-01   1.1562805e-01  -1.5896845e-01   9.0244227e-01   4.2553277e-01  -8.3667842e-01   4.5406795e-01  -3.7069856e-01  -2.2453963e-01   8.6318402e-01  -6.4977724e-01   1.9001440e-01   8.8482008e-01   8.0360141e-01   2.0068213e-01   6.0544729e-01  -4.4860934e-01  -3.0329107e-02  -6.5715782e-01  -3.5427654e-01   9.8911384e-01  -8.0618231e-01   8.9484708e-01   4.2218477e-01   3.9424805e-01  -7.5156099e-01  -9.1899773e-01   2.5330015e-01  -4.1481919e-01  -3.9976153e-01   9.1082454e-01  -6.3073992e-01   1.7722741e-01  -9.5214823e-01   9.4719427e-01   6.1829863e-01  -4.0554975e-01   6.1058824e-01  -8.9853495e-01   2.5705085e-01  -5.3760345e-01  -5.9012791e-01   9.2319080e-01  -1.9059720e-01  -4.7638332e-01   3.8388831e-01   1.3866069e-01  -2.5524032e-01  -6.6348617e-01   5.4518425e-03   2.4738138e-01  -7.4536744e-02   3.1535400e-01  -6.3233277e-02   6.8374270e-01   8.2362520e-01  -8.9740265e-01   3.7122155e-01   8.4418548e-01   3.1240445e-01  -9.0909083e-01   2.8962744e-01   2.9108641e-01  -1.2458687e-01  -1.7399281e-02  -4.0492869e-01   7.1258628e-01  -4.8653390e-01  -8.5350005e-01  -6.9128902e-01   6.6605725e-01  -8.9465889e-01   6.8090905e-02  -4.3863237e-01  -8.0603466e-01   7.2148959e-01  -4.6026149e-01   9.0260907e-01   4.3353961e-01   2.8605468e-02   4.8068783e-01  -9.2744053e-01  -3.0869849e-01   7.2182939e-01   8.1620500e-01  -8.3771122e-01   3.2939500e-01  -7.0550899e-01   8.8493255e-01   3.0994208e-01   3.5274532e-01   4.4998513e-01   4.0308854e-02   2.3319166e-01   9.4385799e-01  -6.3002114e-01   5.9304007e-01  -4.4222827e-01  -9.6766013e-01  -1.1740932e-01  -4.3336712e-01   1.9449210e-02   3.2859576e-01  -7.4652196e-01   8.6616849e-01  -7.0930058e-01  -8.8723138e-01  -6.9181990e-01   7.4269263e-02  -3.8514614e-01   3.1989797e-01   9.1334806e-01  -9.5189079e-01   2.3606469e-03   5.7153410e-01   4.6816923e-01  -1.6973451e-01   2.8497727e-02  -9.7158243e-01   3.4046139e-01   4.4574903e-01  -6.9170381e-01  -2.5046056e-01  -3.5555347e-01  -7.3064883e-01   1.1944378e-01   2.2092133e-01  -8.8906525e-01  -9.3652208e-01  -7.1413348e-01   9.1313107e-01  -1.5267337e-01  -9.3508575e-01   6.6495940e-01  -5.9868015e-01  -1.9273450e-01   5.9030715e-01  -6.1388041e-01   3.1158530e-01   4.8311727e-01   3.1292614e-01   4.5127048e-01  -8.7098936e-01  -2.7547655e-01   4.4508417e-01   9.5682394e-01   4.9799948e-01  -2.1952475e-01  -9.7511118e-02   6.6709753e-02   2.3795814e-01   2.3417143e-01  -7.5530479e-01  -1.6246768e-01   5.3479292e-02   4.5470132e-01  -4.6162025e-01   7.8803198e-01   6.4378784e-01   3.2247201e-01  -7.3929542e-01   2.9496033e-01   3.3709536e-01   8.1689401e-01   5.7113079e-01  -4.3588581e-01   7.5972634e-02   8.0416141e-01  -1.0321683e-01  -2.6904293e-01   3.6242765e-01  -9.0545192e-01   6.6873982e-01  -1.8565984e-01  -1.6806151e-01   5.4380866e-01  -2.2380677e-01  -3.3970142e-01  -2.6062623e-01   5.9665397e-01  -2.5961251e-01  -9.6491528e-01   7.0015418e-01   3.6871738e-02   2.4066470e-01   2.4194645e-01   7.4049666e-02  -5.3076840e-01   6.6313686e-02  -7.9078052e-01  -7.3992839e-01  -6.1578056e-01  -5.1874582e-01   9.3462676e-01  -4.5559783e-01   2.3709456e-01  -5.8520285e-01  -8.1380855e-01  -5.4072669e-01  -5.5695461e-02  -1.5833759e-01  -3.1956025e-01  -9.5988581e-01   7.8990217e-01  -1.2064620e-01   5.4078084e-01  -2.0842757e-01   4.0360379e-01   9.3120613e-01   3.4830491e-01   4.6463370e-01   9.7330727e-03   4.1891701e-01  -6.7244099e-01   4.5488452e-01  -6.1452100e-01   4.7403495e-01   5.4185470e-01  -8.6277557e-01  -2.3212890e-02  -8.0543714e-01  -8.2225493e-01   7.7638706e-01   6.2463083e-01   5.1538514e-02   4.4100368e-01  -7.2642221e-01   9.5958211e-01  -2.7092008e-01  -2.2253601e-01   7.4105168e-01   6.1509981e-01  -2.4964780e-01   2.5875606e-01  -4.9994006e-01   3.9088785e-01  -9.3033135e-01   1.0170599e-01  -1.6433397e-01   2.9934044e-01  -5.7912707e-01  -4.3569179e-01  -9.0854708e-01   3.0174645e-01   2.4044743e-01  -2.6577168e-01  -1.8221746e-01  -1.4910758e-01   8.2840681e-01   4.3230614e-01   8.4095019e-01  -8.8285540e-01  -9.4821872e-01  -9.3542316e-01   6.0530751e-01  -6.9633759e-02  -9.1365702e-01  -3.8323028e-01   9.3569998e-01   7.8700636e-01  -1.1768243e-01   2.5364825e-01  -1.5604567e-01   7.0152170e-01  -6.2222459e-01  -9.3988022e-01  -6.3526069e-03   9.6590514e-01  -7.4708286e-01  -7.8498046e-01  -9.3399844e-01   1.0258038e-01   7.8964052e-01  -8.1613629e-01  -6.5671927e-01  -7.1497482e-02  -5.6670402e-01  -1.4595740e-01   3.8148115e-01  -9.9421641e-01  -5.9103976e-01   5.3384081e-01  -6.7780581e-01   5.0115887e-01  -7.6715319e-01  -5.6319309e-01  -4.2164850e-01  -7.5476502e-01   5.0732989e-01   7.6297161e-01   3.2061124e-01  -5.6404325e-01   8.6945592e-02  -7.6451531e-01   8.8708988e-01  -4.6851380e-01   2.7834247e-01  -9.2424613e-01  -5.9518028e-01  -9.9817787e-01   9.7718462e-02   9.7258426e-01  -9.7968502e-02  -9.1430312e-01   3.6554183e-01  -3.6317849e-01   7.1946008e-01   1.4921180e-01   5.9563183e-01  -6.1929809e-01  -1.8206440e-01  -4.4597554e-01  -2.1802777e-01  -7.7072565e-01  -9.5748394e-01  -3.4556348e-01   5.1342520e-01  -5.1501927e-02  -6.9396289e-01   2.7179142e-01   6.7063371e-01   5.0890814e-01  -9.5547793e-01  -4.1873103e-01   1.4128615e-01   4.0799834e-01  -8.1863692e-01   5.3172858e-01  -9.0629774e-01  -1.7193994e-01  -7.6280543e-01  -9.4267484e-02  -6.9359600e-01   6.6114791e-01  -1.7452262e-02   4.9132399e-02   5.1035293e-01   6.9002686e-01   3.7102975e-01   4.1469362e-01   7.4232710e-03  -7.0940164e-02   4.3369974e-01  -2.7734161e-01  -2.0437957e-01  -3.9088711e-01  -8.2789431e-01  -1.9048488e-01  -5.1575953e-01  -8.1145135e-01   5.9326194e-01   9.2409280e-01   9.1575637e-01  -7.0733734e-01   5.2866738e-01   1.7878805e-01  -8.0504595e-01  -3.9028801e-01  -8.3195776e-02  -4.4541573e-01   8.0456594e-02  -2.3598137e-02   9.9815141e-01  -2.9738774e-01   8.0827577e-01  -5.5912819e-01  -8.9639392e-01  -2.0844018e-02  -1.5342262e-01   2.2977949e-01   3.9569415e-01  -4.1627251e-01  -8.2488672e-01   7.9378488e-01   2.1018993e-01  -2.0128594e-02  -9.6394664e-01  -3.9368130e-01   4.8352780e-01   2.4419177e-01   4.1464129e-01   6.8179302e-01   8.6336643e-01  -9.4019615e-01  -4.3345882e-01   2.1192690e-01  -9.5642071e-01  -4.1887110e-01  -2.8003922e-01  -7.3243766e-02  -2.5168707e-01   8.1692702e-01  -7.3697355e-01   9.2149973e-01   1.9604075e-01  -9.6600999e-01  -2.9914237e-01  -9.5024859e-01   3.8237381e-01  -6.3330701e-01   1.2695660e-01   4.6891078e-01   8.3694573e-01   3.5400494e-01   9.5850515e-01   9.2509524e-01   8.6992732e-01   3.0305799e-01   6.2709496e-01   4.5635901e-01  -4.3372852e-01  -1.7542527e-01  -2.3000631e-01  -8.6529284e-01  -9.5741198e-01   5.5139766e-01   6.6584909e-01   3.7155677e-01   4.7739055e-01  -1.7391939e-01  -2.1714153e-01   6.9489730e-03  -3.5809456e-01   9.0431963e-01   9.9987160e-01  -6.9263988e-01  -4.6476598e-01   2.8774300e-02   9.5548948e-01  -7.5353500e-01   4.0212076e-01  -4.2610605e-02   6.5105729e-01  -1.3315837e-01   5.9508405e-01   2.7578089e-01   9.1381570e-01  -3.9900871e-01  -8.5871160e-01  -3.5706032e-01   3.0445788e-01   8.5720553e-01   1.5292525e-01   1.3831177e-01  -9.7389809e-01   9.8397666e-01   5.3098519e-01   2.5441255e-01  -2.5372647e-01  -3.8297372e-01  -7.3714671e-01  -1.8933230e-01   1.0393049e-01  -7.7778330e-01   2.3936049e-01  -4.9296744e-01   7.3458712e-01  -5.8161813e-01  -4.2764441e-01  -4.8980941e-01  -4.9911222e-01   3.5000094e-01  -6.9889809e-01  -2.9031897e-01  -9.7528547e-01  -9.9677737e-01   3.8906872e-01  -7.5566562e-01  -3.6445125e-01  -5.4047558e-01  -4.9832720e-01   1.3928356e-01   1.8811228e-02  -4.5073533e-01  -8.9320219e-03   2.2154476e-01   6.1463227e-01   8.5044085e-01  -1.0731715e-01  -4.0859129e-01   8.7634238e-01   4.1492275e-02   5.6817284e-02  -9.5083872e-01   5.3300131e-01  -9.8113989e-02  -5.2730330e-01   9.7593323e-01   1.7852257e-01   6.4173168e-03  -3.2601696e-01   5.7593204e-01  -9.5535345e-01  -9.3857687e-01   5.4069876e-01  -3.2809592e-01   8.4049871e-01   9.0585223e-02  -7.6542039e-01   8.9195310e-01  -7.2296288e-01  -1.5645814e-02   5.4989204e-01  -9.5229879e-01  -3.5595397e-01  -7.7263250e-02  -2.7051655e-01   9.0144573e-02  -5.0247439e-02   2.2277873e-01   6.5287088e-01  -3.8716792e-01   2.2202529e-01   1.2788586e-02   7.7440093e-01  -7.4215822e-02   9.3260798e-01   9.9138197e-01  -6.7769043e-01   7.7852359e-01   1.3023320e-01   4.6348700e-01   8.9004439e-01  -1.9146640e-01  -1.1123249e-01   2.4182072e-01  -1.5100661e-01  -8.1513740e-01  -2.3763547e-01   7.6975580e-01   7.2409742e-01   3.5010186e-01   3.1112235e-02   8.0423226e-01  -8.7178890e-01   3.3893671e-01   7.8682635e-02   4.2098799e-01  -7.7017123e-01  -5.9912945e-01  -5.0708001e-01  -7.4793165e-01  -8.8517573e-01   5.9672915e-02  -2.7384643e-01   8.3144321e-01   8.1444870e-01  -1.1545158e-01   7.3050641e-01  -5.2637391e-01   3.1622728e-01   5.5728323e-01   6.4261095e-01   6.1616470e-01   2.6513908e-01   6.8398543e-02  -8.8843532e-01   7.1140908e-01   9.6150291e-01  -9.2747062e-01   6.6584296e-01   5.3810992e-01   3.7352591e-01  -8.0018914e-01  -5.7405317e-01   7.0264049e-01  -3.9767435e-01  -8.8018929e-01  -5.4428299e-01   9.9050455e-01   9.3822734e-01  -3.8662142e-01   7.7789382e-02   4.2963192e-01   6.2916450e-01  -3.1766439e-01  -8.0152916e-02   5.8033570e-01  -3.2876113e-01  -6.2022073e-01   8.6134483e-01   2.1572306e-01   1.7497646e-02  -9.1366602e-01  -6.8193360e-02  -4.6429711e-01  -1.7830483e-01   7.9881346e-01  -5.6294670e-02   9.4271240e-01   9.2588080e-01  -8.5448420e-01   1.1910862e-01  -6.3563279e-01   8.5451917e-01   9.5175448e-01  -5.6255326e-01  -6.3601841e-01  -4.5270775e-01   2.5370372e-01  -4.2666273e-01   4.2232076e-01   6.5513553e-01  -5.2404820e-01   8.0397171e-01   6.7621179e-01   2.3252635e-01   3.7093958e-01  -2.0477434e-02  -7.1170203e-01   3.8394713e-01   4.0784516e-02   5.0117353e-01   8.6837305e-01   6.9646175e-01  -7.1723631e-01  -8.3798430e-01  -9.6604587e-01   5.5211777e-01  -2.0865659e-01  -1.7788617e-01  -9.1039198e-01  -5.8054630e-01   6.1588863e-02   1.5063116e-01  -7.1723372e-01   8.8943918e-01  -2.8162192e-01   7.9223542e-02   3.5372322e-02   9.3606859e-01   3.8289929e-01  -9.8156845e-01  -4.4157865e-01  -3.8234292e-01  -3.3621615e-02   8.4570299e-01   1.6400725e-01   8.2839894e-02   7.7023069e-01  -7.8043250e-01   4.1262987e-01   1.4557749e-01  -7.3728021e-01  -9.7452571e-01  -5.1766201e-01   3.7465197e-01   7.7987990e-01  -7.7046934e-01   6.4832202e-01   2.6502844e-01   1.9912177e-02  -2.8686089e-02   3.7634875e-01  -9.2921668e-01   8.8501454e-01   9.8774691e-01   6.2726551e-01   9.7306367e-01  -3.4708997e-01  -8.2142096e-01   8.4217797e-01   4.1468930e-01   6.0892173e-01  -2.6123471e-01   5.0548785e-01   1.7234812e-01  -4.7018601e-01   5.0930417e-01  -6.6785922e-01   1.3852374e-01   5.3655052e-01  -7.7883040e-01   7.3781363e-01  -7.1154164e-01   8.6803421e-01  -8.5534602e-02   4.6888166e-01  -8.6897172e-01   1.1164634e-02  -8.8711672e-01  -4.4259821e-01   8.8616074e-01   6.1786909e-01  -4.4785787e-01  -8.4928082e-01   3.9191983e-01  -5.7910450e-01  -1.1626711e-01  -7.0316194e-01  -6.0213533e-01   8.7996941e-02   1.4350715e-01   3.8422688e-01  -9.5364312e-01   6.5914684e-01  -8.5303894e-01  -5.9382242e-01   8.7156448e-01   7.8366147e-01   2.4452012e-02  -6.7197328e-01   2.6687465e-01  -8.3025585e-01  -7.2019091e-01   2.6708020e-01   9.7453516e-01  -6.6678324e-01   9.2678568e-01   7.3329935e-01  -5.0076585e-01  -9.2363634e-01   7.2666422e-01   1.3804913e-01   3.5919224e-01  -5.6317195e-01  -5.9912075e-01  -7.3269563e-01  -5.2316011e-01  -3.2653987e-01  -8.0777799e-02   3.4470876e-02   8.4775548e-01  -9.8637219e-01  -6.4283830e-01  -3.1350778e-01  -2.2658530e-01   1.4898491e-01   9.3146499e-01  -7.1701744e-01   3.2219866e-01  -6.0576999e-01  -7.2287798e-01  -1.2217819e-01  -3.8379224e-01   3.1529656e-01  -4.5168774e-01  -6.6352029e-01   6.7738478e-01   8.1910187e-03  -7.8617111e-01  -4.8260095e-01  -6.1376450e-01   4.7748773e-01   7.0457055e-01  -1.8907117e-01   7.4325203e-02
   1.7872308e-01  -9.3819961e-01  -6.8534946e-01   6.6108226e-01  -8.9948010e-01  -1.4976113e-01  -2.7974147e-01   8.2730760e-01   6.7832710e-01   3.1175099e-01  -1.0725603e-01   1.7474826e-01   7.7076232e-01  -8.2545838e-02   2.4731680e-01  -8.2122763e-01   2.6219426e-01  -1.9173631e-01  -9.3107520e-01   2.8945836e-01  -9.3245722e-01   1.1122887e-01   4.4493304e-01  -8.3115886e-02  -5.3559416e-01   5.3181647e-01  -9.0466108e-01   4.1073767e-01  -2.3766018e-01   7.8408626e-01   2.3495076e-01  -1.0127257e-01   4.9432540e-01  -4.3930561e-02   5.8269064e-01   3.1769295e-01  -8.1616280e-01   3.2331165e-01   6.3344774e-01   6.7339195e-01  -5.1838798e-01   1.7364810e-01   1.3891806e-01   7.4717493e-01  -5.1896076e-01  -3.0622953e-02  -4.6796744e-01   4.0701246e-01  -9.8631220e-01  -6.7058862e-02  -1.1572433e-01   5.3367778e-01  -7.4684120e-02  -9.6166515e-01  -8.3650268e-01   6.4628436e-01   3.8943526e-01  -2.5639024e-01  -2.4372766e-01   3.2778226e-01   5.7291833e-01  -4.7404729e-01   3.0424873e-01  -5.8622885e-01  -4.3953588e-01   5.9503741e-01  -1.4222837e-02   9.2526658e-01   3.7801402e-01  -1.7700743e-01   5.2838704e-01  -9.2262742e-01   4.1688180e-02  -9.3987592e-01   4.1549012e-01  -3.9651023e-01   7.2522138e-02  -5.1128951e-01   9.2479072e-02   1.0570351e-01  -5.5215594e-01  -5.0068415e-01   6.4895884e-01  -4.2505150e-01   8.3631339e-01   3.3967697e-01   9.4450373e-01   9.9300121e-01  -1.1525300e-01   2.2396640e-01  -8.6876147e-01   3.3036621e-01   2.5849077e-01  -8.1521413e-01  -5.5785337e-01  -2.8202819e-01   3.8700298e-01   9.2740665e-01   3.3139339e-01  -1.7227455e-01   2.4049133e-01   6.1613195e-02   8.3458932e-01   4.9599153e-01  -9.2718384e-01   3.5747433e-01   6.6448733e-01   3.4587545e-01  -6.3712301e-01   2.1796222e-01  -6.0572180e-01  -5.2515988e-01   8.0392994e-01  -8.4432853e-01   7.6352071e-02  -2.9545209e-01   5.6508198e-01  -3.0443662e-01   8.7200798e-01   4.5164000e-01   8.8675047e-01  -6.9484431e-01   1.1172825e-01  -9.3279788e-01  -2.1857886e-01   3.1089153e-01   8.1704330e-01  -7.5338793e-01   1.5435785e-01  -2.7395277e-01   9.7237972e-01   7.3312604e-01  -3.7190371e-01  -4.8882042e-01   4.1600382e-01   2.8960228e-02  -2.8495862e-01   8.5202413e-01  -6.4390921e-01   3.3431624e-01  -2.7062133e-01  -2.1049878e-01   1.4878633e-01   1.8965907e-01   4.9644599e-01   1.0049151e-01   5.9794312e-01  -3.9303504e-02   2.7182852e-01   3.2315847e-01  -4.1852728e-01  -6.5862154e-01  -4.9590339e-01   4.3334826e-01   9.3695704e-01  -1.0063722e-01   3.3297897e-01  -3.9867035e-02   9.6755899e-01  -9.6958654e-01   2.1592026e-01  -1.2216115e-01  -8.9222605e-01  -8.9053166e-01  -2.7621958e-02  -3.7839129e-01  -5.1829526e-01  -5.3298764e-01  -5.4586898e-01   1.6419776e-01  -7.3322166e-02   3.0676961e-01  -5.3064235e-01  -5.9412796e-01   7.1995918e-01  -4.1282905e-02   3.8240763e-01  -5.7304153e-01   2.5214864e-01   8.8720232e-01   2.2663582e-01   1.9970905e-01  -6.9791897e-02  -9.2704747e-01  -3.1674243e-01  -2.3077916e-02   6.1799125e-01  -1.9988536e-01  -8.9738303e-01  -1.5751576e-01  -9.7047743e-01   3.8109602e-01  -3.6000041e-01   3.1023905e-01  -9.4030118e-01  -7.0958902e-01  -6.2305431e-01   8.2079868e-01   9.1138804e-01   6.5851815e-02  -1.8169359e-02   4.6168764e-01  -6.2698413e-01  -2.0389312e-01   6.8347868e-01   1.3507252e-02   3.8802251e-01   3.2066616e-01   5.5172394e-01   3.3895180e-01  -7.0591077e-01   5.0695119e-01  -7.5344938e-01   1.1044245e-01  -4.2029866e-01   4.4147370e-01   1.9260008e-01  -9.7678166e-01   2.6498211e-01   3.5728569e-01  -9.3026449e-01   8.8050867e-01  -6.2783508e-01  -4.0986874e-01   3.3493162e-01  -8.9216115e-01  -4.7953112e-01   9.8426445e-01   2.2751190e-01  -1.8624074e-01  -9.5506706e-01  -7.4489799e-01  -6.8986828e-01  -4.9584493e-01  -3.2838366e-01  -3.2860277e-01  -1.1043313e-01  -7.4609757e-01   2.5957839e-02  -6.3177923e-01  -7.5755956e-01   4.7965169e-01   6.5075454e-01  -8.2564731e-01   4.3444405e-01   3.4301861e-02  -8.1652914e-01  -8.0670407e-01  -8.9749417e-01  -9.7370558e-01  -8.3897392e-01   1.5816904e-01   9.6933337e-01  -9.4550815e-01  -6.7769157e-01  -3.9318303e-02   6.6987911e-01   1.2379517e-01  -4.1120364e-01   3.6621017e-01  -2.3715413e-01   8.6128905e-01  -1.3324530e-01  -6.5603101e-01  -5.4419860e-01   8.6668509e-01  -5.3889870e-01   1.1840195e-01  -5.0155680e-01  -9.3931127e-01  -6.5513141e-01  -1.8226251e-01   1.8101751e-01  -2.1048566e-01   3.4264848e-01  -8.6181517e-01  -6.1729236e-01  -2.4623062e-02   9.6676154e-01   8.3437496e-01   4.0204688e-01  -5.0873788e-01  -4.4705264e-01  -8.0031575e-01   2.4546830e-01   1.2895497e-01  -4.5835542e-01  -8.3867861e-02  -2.4112088e-01  -8.1383091e-02  -4.7544270e-01   1.6748941e-01   6.7416639e-01   4.4974709e-01  -5.4942699e-01  -6.5763251e-01   8.2685244e-01  -5.3614047e-01   7.8502411e-01   3.9595661e-01   1.9070290e-01  -1.7063869e-02   4.8338088e-01   3.6335825e-01  -9.0697514e-01  -5.4994168e-01   7.6259684e-01   4.2744873e-01   2.9752410e-01  -3.7793075e-01   9.8436299e-01  -7.8730969e-01   8.8709588e-01   7.2584990e-01   4.2513302e-01   8.3833696e-02  -9.2717941e-01   3.3604400e-01   3.8065430e-02  -2.8485974e-02  -2.2888170e-01  -5.2090888e-01   5.8714395e-01  -6.2912186e-01  -9.8608277e-01  -3.7440134e-01   6.4968170e-01  -6.4727730e-01   7.3476183e-01   6.2511232e-01   5.7981245e-01  -6.5893525e-01   5.4821768e-01   4.1895530e-01  -3.4312459e-01  -8.4160296e-01   6.9738557e-01  -4.7376892e-01   2.6422178e-01   2.8513279e-01   7.6302688e-01   2.1028653e-01  -8.6843734e-02  -5.3496088e-01  -6.0127007e-01  -6.2173260e-01  -4.3745051e-01   8.4800530e-01   3.7456556e-01  -3.9399135e-01  -4.7275353e-02   6.3186294e-01  -3.7121248e-01  -9.9023560e-01  -9.7662747e-01  -2.7443900e-01  -4.4178655e-01  -2.9571782e-01   6.1770559e-01   8.3810715e-01   9.5654267e-02  -7.4898490e-01  -4.1458739e-01   3.7242690e-01  -2.6187590e-01   5.5656387e-01   5.6833794e-01   7.8695114e-03  -1.0983772e-01   7.5352254e-01   5.4718042e-01   4.2973527e-01   1.2823280e-01  -8.4653649e-01   7.0655768e-01  -8.6907694e-01  -4.8136489e-01  -8.4822056e-01  -2.8425414e-01  -9.5000651e-01   2.4298461e-01   5.9170805e-01   2.9066399e-01  -4.0342928e-01  -8.9329473e-01  -8.4575972e-01   8.3357661e-01  -8.1565951e-02   9.8777537e-01   9.6593775e-01   5.0352017e-01   3.3859534e-01   4.8755830e-01  -7.1553399e-01  -6.6782362e-02  -6.3920596e-02   5.6919234e-01  -6.4845700e-01  -6.4009890e-01   6.8104992e-02  -6.8613630e-01  -8.5229895e-02   2.7699774e-01   1.0248533e-01   3.5628336e-01  -3.4687457e-01   3.9212070e-01  -2.9813298e-01  -9.8745346e-01   6.7186957e-01   4.6406653e-01  -6.7026948e-01  -8.8958252e-01   5.6635679e-01  -1.5253540e-01   9.0867526e-02   3.3772722e-01   7.2864025e-02   3.0871378e-01   9.8979177e-01   3.7555449e-01  -6.1069713e-01  -1.3406093e-01  -5.2979487e-02   2.3040185e-01  -5.9481044e-02  -2.6864840e-01  -2.4273605e-01   6.7316435e-01  -1.8711537e-01   2.0221509e-01   9.8744194e-01  -4.5695229e-01   7.9278541e-01  -6.5274664e-01  -9.9208899e-01   4.0560543e-02   1.3609591e-01  -5.4714934e-01  -4.5645383e-01  -9.8628069e-01  -1.7215511e-01   7.3458856e-02   2.7542319e-01  -8.0602856e-01  -7.7093942e-01   6.5035007e-01   4.4112160e-01  -2.5397150e-01  -9.3587477e-01   2.1246950e-01  -5.0843068e-01  -5.5630865e-01  -2.1627826e-01   3.8663664e-01   5.8214550e-01  -5.5470432e-01  -9.5675844e-01   8.2008103e-01  -3.0203059e-01  -8.4482049e-01  -6.5055042e-01  -1.8640882e-01  -3.1801413e-01  -2.9513802e-01   1.5749951e-01   3.1962441e-01  -4.8414899e-02  -2.2203645e-01   4.0797353e-01  -3.1377741e-01   4.7104400e-01  -8.7895256e-01  -1.7999686e-02   1.0475583e-01  -7.2621979e-01  -6.7520902e-01   4.6108471e-01  -9.3553606e-01  -5.0124125e-01   3.2807546e-01  -8.1940793e-01   7.3415141e-01   2.6604484e-01  -9.6024637e-01  -5.6280874e-01   6.7671081e-01   4.7048909e-01   7.6399394e-02  -6.3584143e-01   2.7040711e-01   6.3119225e-01  -1.2318038e-01  -1.7515717e-01   5.9846554e-01   3.7535335e-01   2.8821847e-01  -1.9727444e-01   4.3260920e-01  -1.7514272e-01   4.9644825e-01  -2.9411067e-01  -9.6238999e-01  -2.0479051e-01   2.8388184e-01  -1.9157865e-01  -9.0126336e-02  -7.9953333e-01   8.9609156e-02   2.7783094e-01   9.7826075e-01   6.3911096e-01   9.6973394e-01   5.2682320e-01  -4.8821356e-01  -6.6440505e-01   4.1986358e-01   9.6922253e-01   2.7696673e-01   8.9279163e-01   8.2958869e-01  -6.7521753e-01   6.6942975e-01  -2.0588927e-01  -3.6644296e-01   4.4364389e-01  -1.8443393e-02   5.9049975e-01  -9.8723486e-01  -6.8086875e-01  -6.1581288e-01   6.4359687e-01   1.4878837e-01  -7.4265283e-01   7.0410959e-01   5.8230707e-01  -5.5051057e-01  -7.5217353e-01  -8.2660763e-01   8.2598251e-01   5.2936052e-01  -5.0445289e-01  -3.3950885e-01   4.9011353e-01  -8.2950302e-01   7.6984539e-01   2.2147128e-01  -6.2421057e-01  -4.1216163e-02  -2.5823113e-01  -6.8125484e-01  -5.5540979e-01  -2.0901476e-01   5.0256527e-01   7.3347574e-01   7.8938811e-01   2.3098446e-01   6.1097804e-01   9.9260249e-01  -4.7718473e-01   2.6886839e-01  -3.9194680e-01   4.1194963e-01  -6.7981273e-01   2.3230136e-01  -6.5379248e-01   8.3963176e-01   8.8097857e-01   5.4265928e-01  -5.7881355e-01   6.1478998e-01  -6.9895001e-01  -6.8468565e-03   6.8203861e-01   1.3922294e-01  -8.0909886e-01   5.5501039e-02  -7.9458143e-01   1.2212743e-01  -3.0097024e-01   6.0579416e-01  -5.9890080e-01  -3.2751909e-01  -5.5337261e-01   4.2545734e-02  -2.5221000e-01  -4.9008342e-01   9.4082286e-01   2.1874464e-01  -9.0294751e-01   7.5215256e-01  -2.1992198e-01  -5.6699373e-02   7.3750892e-01  -2.1866596e-01  -7.9059262e-01   1.0563923e-01   8.3728893e-01   9.0016174e-01  -5.5332168e-01   7.9275723e-01  -6.7029158e-01  -7.2622606e-01  -2.8218914e-01   1.1065528e-01  -9.9448740e-01  -9.0237453e-01   9.0156066e-01   3.5827286e-01  -3.1813413e-01  -6.7459641e-01  -8.1744236e-01  -2.9504088e-01  -6.7310993e-01   3.3900860e-01   5.7684055e-02  -4.4010201e-01  -2.7802884e-01   1.9981932e-01   1.3501923e-01  -8.7676953e-02  -7.5279068e-01   4.0074020e-02  -2.9352205e-01   7.4242558e-01   4.6704548e-01  -6.3035368e-01  -5.1341646e-01   1.0267927e-02  -6.7157649e-01  -5.7811958e-01   3.8371639e-01  -5.5465606e-01  -9.6323202e-01  -2.0070131e-01   2.2837698e-01  -9.4358442e-01  -8.3277918e-01  -6.5049989e-01  -9.1780147e-01  -2.9623554e-02  -9.8888066e-01   5.1920931e-01   5.4843138e-01   3.6382195e-01   9.2101424e-01   6.5491842e-02  -8.1909801e-01   7.1336886e-01   6.6103578e-02   4.0750487e-01  -8.2737286e-01   2.9900506e-01  -3.3391438e-01   3.6392546e-01  -8.4968041e-01  -9.7849888e-01   6.3238001e-01   4.4078379e-01  -6.5060330e-01   7.3085235e-01   6.6403526e-01   3.7854821e-01   4.2236171e-01   5.7699571e-01  -8.4306683e-01  -7.0815802e-01  -1.8951168e-01  -4.2880905e-01  -4.3496948e-01   3.3569179e-01  -9.4953133e-01  -4.7217209e-01   2.2436010e-01  -6.1056724e-03   4.4147361e-01  -9.4346264e-01  -5.3759308e-02  -7.1067441e-01   1.5544872e-02   9.8983488e-01  -9.6106831e-01  -6.9945536e-01  -5.8406888e-01   4.4345051e-01   2.4371436e-01   2.3033601e-01   6.9100362e-01   8.8837151e-01   6.3453712e-01   9.0284102e-01  -6.8340154e-01   2.1168428e-01  -6.6517457e-01  -3.0673377e-01   8.3475001e-01   7.7583664e-01   1.7459498e-02  -9.4320616e-01  -7.0893834e-02  -8.9400286e-01  -7.1855467e-01   1.9179184e-01   9.4332819e-01   8.6067969e-01   6.4650647e-01   9.0479930e-01  -3.9439652e-01  -5.5187772e-01   8.2165422e-01   3.2397707e-01  -9.3613490e-01  -8.9920914e-01  -6.1132945e-02  -9.2302539e-01   6.1274696e-01   7.1679725e-01   9.5782106e-01   9.7084167e-01   7.2835572e-02  -5.5653152e-01   7.1516026e-01  -9.3634246e-01  -3.1291636e-01  -7.2360155e-01   8.2848264e-01   1.7746625e-01   7.8007261e-01   2.2125918e-01   9.9833540e-03  -7.0293320e-01   5.9734341e-01   1.8196565e-01   9.4979802e-01  -1.5579726e-01   4.0479492e-01   7.9457365e-01   7.6647520e-01   6.3250516e-01   3.6111487e-01   1.7462339e-01  -6.5647457e-01   3.3701122e-01  -9.5581206e-03  -2.0626834e-01   5.3201695e-01  -1.6238729e-01  -2.9623845e-01  -5.7650080e-01  -7.2230245e-01   6.3337015e-01  -3.2296646e-01  -1.3780944e-01   9.4770357e-01  -1.8606934e-01   7.3900611e-03   1.7537921e-01  -1.2803661e-01  -9.0920075e-01  -1.7691044e-01   3.4837339e-01   4.0118704e-01  -6.6744056e-01  -2.5899506e-01  -1.3372627e-01  -5.4002373e-01  -5.0466283e-01   4.9715145e-01  -5.5531871e-01  -4.1847069e-03   4.5916623e-01   4.8721966e-01  -1.3033874e-01   4.2415337e-01   8.2415597e-01  -2.4624999e-03  -1.5778357e-01   4.6911010e-01   9.1068847e-01   7.3260298e-01  -9.5522714e-01  -3.9968910e-01   7.9428174e-01   4.2257671e-01   5.4471480e-01   4.9985161e-01   5.5535724e-01   1.5979692e-01   9.9945343e-01   1.9360770e-01   2.1824640e-01   4.5600266e-01  -1.4810619e-03   9.4232793e-01   4.5986714e-01  -6.1082776e-01  -6.1456594e-01   9.2775096e-01   8.1289604e-01   7.1584743e-01  -6.4387071e-01   6.7048702e-01  -9.0704012e-02   2.0858016e-01   7.5090125e-02  -6.1793631e-01   8.5772308e-01   9.6329470e-01  -5.0955535e-01  -3.4326448e-01   2.6613278e-01  -5.8905931e-01   7.0716954e-02  -9.1925330e-01   8.9016203e-01   1.8106095e-01   1.8542542e-01   4.6351705e-02   5.8581180e-01   8.4669186e-02   7.9748909e-01  -1.1622615e-01  -7.3007344e-01  -1.4905311e-01  -6.6968000e-01   4.9143548e-01  -6.9408948e-01   9.2062924e-01   6.9223242e-01  -6.8750054e-01   8.9603693e-01   2.9552146e-01  -2.2748000e-01  -3.6860960e-01  -1.1146836e-01   9.0086208e-01   2.7137696e-01   6.4051534e-02  -1.3592924e-01  -4.5185863e-01   2.5437986e-01  -6.2715998e-01   8.6743465e-01  -3.6614426e-01  -8.5197303e-01  -3.5453063e-01  -8.1149044e-01  -2.7686128e-01   7.4790340e-02   5.1520775e-01  -3.7223827e-01  -2.4708140e-01  -9.2586249e-02  -8.8568626e-01   3.2470772e-01  -6.8117426e-02   9.3246565e-01   6.6229028e-01  -2.8393559e-01   3.2435365e-02  -8.8748874e-01   2.3961521e-01  -2.8487776e-01   8.5474137e-01   8.0359936e-01   7.4146455e-01   4.5028293e-01  -7.9432432e-01   2.8912099e-01   2.9788010e-01  -4.5804157e-01   8.6307073e-01  -1.7262036e-01   2.9099347e-01   5.5418802e-01   5.9172956e-01   5.4969205e-01  -9.5848536e-01   9.4130129e-01   9.4849212e-01  -4.2258550e-01   9.4692486e-02   5.8583892e-01  -3.8370240e-01  -6.0852404e-01  -3.2462227e-01  -7.8297317e-02  -8.9111016e-01   7.3089188e-01  -2.1921504e-01   7.9353501e-01  -6.2907560e-01   8.5978447e-01  -1.5451965e-01  -7.4997609e-02   5.9741536e-01   7.7782366e-01  -1.7594215e-01   1.0671465e-01  -3.8842725e-01  -9.5202897e-01  -1.4881711e-01  -5.8748025e-01  -8.0084212e-01   6.6690364e-01   4.6175288e-01  -7.5616725e-01  -2.1959593e-01   8.0902096e-01   5.1454571e-01  -8.9885077e-02   7.1369760e-01   7.5357567e-01  -5.5369355e-01  -7.2221229e-01  -9.2698555e-01  -4.7358725e-01   1.4806810e-01   5.0171746e-01  -1.2498614e-01  -7.0568904e-01   2.8166333e-01  -5.1588273e-01  -3.5659843e-01  -5.0600359e-02  -3.3253202e-01   8.0145733e-02  -6.3494992e-01  -4.3938680e-01  -2.3007561e-01  -5.6488427e-01   3.6003545e-01  -4.0871603e-01  -8.7765296e-01  -3.8037994e-01  -5.3013460e-01   7.5041913e-02   2.9168902e-01  -7.5230295e-01   3.6860376e-01  -9.9349082e-01  -6.7722955e-01   5.5182626e-01   8.1492350e-01  -6.8609867e-01   7.2104455e-01   2.1246459e-01   8.2990080e-01   9.2594007e-01  -5.5236400e-01  -6.8159423e-01   7.3093050e-01  -4.5211220e-01   9.8393956e-01  -1.0099746e-01   4.4478649e-01   5.8864693e-01  -2.9519523e-01  -5.5183615e-01  -8.0050616e-01   7.6146622e-02   5.4387456e-01   7.2734869e-01  -8.3217587e-01   6.1303532e-02   9.9314568e-01  -8.9986835e-01  -5.3072045e-01   2.5653537e-01  -7.3596211e-01  -3.0275376e-01  -3.7554516e-01   6.1590182e-01   6.0098854e-01   2.7143504e-01   3.6814046e-01  -1.9544149e-01  -4.0046552e-03  -2.8554433e-01  -3.9148893e-01   4.0737543e-01  -9.5152846e-01   6.4666239e-01  -7.1079236e-01  -5.1979144e-01   2.9372983e-01   2.4647082e-01   8.7309192e-02  -5.1723172e-01  -5.2180124e-01  -8.5505618e-01   3.7038647e-02  -1.6770342e-01   7.2657592e-01   8.8535534e-01   5.5493206e-01  -2.9008807e-01  -2.4036582e-02  -5.2736629e-02   6.1866666e-01
  -7.0636523e-01   7.0694082e-01  -2.4852808e-01   9.3596558e-01  -4.4947192e-01  -4.0875192e-01   6.6401649e-01   8.4810461e-01   2.2809029e-01  -4.4056997e-01  -1.7658301e-01  -1.5931905e-01  -1.1492943e-01  -9.1358097e-01  -4.1707229e-01  -8.4947605e-01   4.6398837e-01  -3.7357874e-01   3.5442768e-01   3.9158956e-01   1.0709291e-01   5.8197011e-01  -5.1747723e-01   1.8113548e-01  -4.0198388e-01   5.6372870e-01  -8.0056567e-02   5.4677941e-01   7.8481542e-01  -9.2130366e-01   7.3420576e-01   6.4348139e-01  -5.3925678e-01  -2.2411434e-01   6.5445906e-01  -3.7138652e-01   5.2882112e-01   9.9402675e-01   2.0259590e-01  -7.2235918e-01  -9.7316755e-01  -4.5659287e-01   3.9304962e-01  -8.3773194e-01  -1.2223739e-01  -8.6488417e-01  -3.6425092e-01  -5.8451544e-01  -4.7544092e-01   6.1821355e-01   6.7713615e-01  -1.5274564e-01  -1.1918563e-01  -3.1448272e-01  -8.6766566e-01   8.1884473e-01   1.1170751e-01  -4.3023149e-01  -6.7168021e-01  -9.1188033e-01   1.9985123e-01   6.2596818e-01   1.6809907e-01  -3.1954331e-01   2.9458610e-01   9.6576130e-01  -5.7390020e-01  -4.8162328e-01  -2.1808276e-01  -2.3855256e-01  -3.9941636e-01  -2.5194484e-01  -8.3392115e-01   8.8243348e-01  -4.5099308e-01   6.8823278e-01   3.0494584e-01  -4.4100183e-01   2.3921161e-01   3.9362745e-01  -2.3539106e-02   6.7362097e-01   4.7288319e-01   6.9039578e-01   8.0932922e-01   6.9081324e-01  -4.8771609e-01   6.2283773e-01  -8.4730291e-01   3.5100386e-01   7.0155502e-01  -8.1148487e-01  -5.9512934e-01  -7.9117423e-03  -3.5374164e-01   3.4299696e-01  -8.7028861e-02  -1.5161400e-01  -1.2884813e-01   2.6211466e-01  -2.9350346e-03   2.3966814e-03  -6.1588616e-02  -9.4924290e-01   5.8870089e-01   4.7944668e-01   5.6404294e-01   8.1413523e-01   6.0013471e-01   7.2389866e-01   5.4826314e-01  -4.6316440e-01   7.7076328e-01   2.1375043e-02   7.7871724e-01   4.2002337e-01  -5.4639971e-01   2.6789714e-01  -8.6577566e-01  -5.8636213e-01  -7.9130707e-01   7.2725945e-01   7.0579294e-01  -9.6165757e-01   8.0627607e-01  -8.7166468e-01   2.7543570e-01  -1.2131618e-01   5.8219943e-01  -5.3913522e-01   7.1484430e-02   7.6413380e-04   9.3524625e-01   9.6385170e-01   8.9123066e-01   2.2760984e-01   3.2348972e-01  -3.9530931e-01   5.8399889e-01   5.2047915e-02  -9.0267644e-01   5.9344916e-01   4.9071856e-01  -1.0805505e-02   3.7158848e-01   3.8793015e-01  -9.7300321e-02   2.5702969e-01   1.0766447e-01  -9.2498498e-01  -4.1704503e-01  -8.5836398e-01   8.5494305e-01   2.5566967e-01   5.3065638e-01   1.2467036e-02  -4.9228676e-01  -3.7797335e-01  -3.9271222e-02   8.8514585e-01  -6.7719994e-01  -1.6134946e-01   6.9376184e-01   4.9556120e-01  -6.9964618e-01   2.9594655e-01   2.5968966e-01  -8.5142771e-01  -9.4387477e-01  -1.9645637e-01   8.2312968e-02   9.8377363e-01   8.0024002e-01   1.8354850e-01   1.4055812e-01  -1.4859378e-01  -7.9617555e-02  -1.8043020e-01   6.3772716e-01   8.9402476e-01   9.3090055e-01  -3.4031181e-01   7.0420738e-01   2.8528454e-01  -7.3326256e-01  -8.6699717e-01  -8.0847131e-01   1.1388268e-01  -5.5899802e-01  -1.3183353e-02  -5.4708110e-01   6.9929422e-01  -1.9112533e-01   5.6411566e-01   7.6098618e-01   5.6017491e-01  -7.4769875e-02   1.5174771e-01   9.6930452e-01   6.0504611e-01  -4.0482122e-01  -6.6271731e-01   6.5073733e-01   3.9535742e-01   6.2118990e-01  -4.4139668e-01  -2.3815867e-01   7.8943140e-01   1.6978704e-01  -9.4138208e-01   4.7443472e-01  -8.7948767e-01  -6.1135992e-01   4.3206313e-01   6.1839744e-01  -4.3168732e-01   1.6348813e-01  -8.9649033e-01  -6.9308207e-01   7.8392637e-02   8.8471119e-01  -5.8570763e-01  -9.2763046e-01   8.0853926e-01   7.0818486e-01  -4.4694500e-01  -7.0327145e-01   9.6280169e-01   3.4002992e-01  -5.2513028e-01   2.0140812e-01   8.1462556e-01   5.2185462e-02  -8.4881066e-02   5.2282846e-01  -4.2051064e-01   7.0311134e-01   8.6253196e-01   3.9513684e-01   7.2977553e-01   1.6548695e-01  -9.6127863e-02  -6.8829870e-01  -9.8309169e-01   3.0793711e-01  -5.2113840e-02   2.7073220e-01   1.0168069e-02   8.2481086e-01   6.2027861e-01  -1.6711748e-01   5.8855264e-01  -9.4682431e-02  -1.2133435e-01   4.0288823e-01   7.8720707e-02   3.3444731e-01  -2.5971634e-01  -6.3931226e-01  -5.0764822e-01  -7.2649675e-01   9.7335076e-01  -9.6778230e-01   4.9463455e-02   2.1474694e-01   3.9256325e-01   7.5055150e-01   7.2048073e-01  -2.9911725e-01  -6.9655104e-01   6.2391985e-01   4.5332832e-01  -4.4005106e-01  -6.2261395e-01  -4.7831261e-01  -3.1850416e-01   4.4507140e-03   2.2662705e-01   9.7020447e-02   9.7639706e-01   5.3045373e-01   9.0521803e-01   7.4988766e-01  -1.4430909e-01  -1.2509324e-01   8.7956484e-01  -6.9942124e-01   3.4599920e-01   6.7866233e-01   8.6623048e-02   7.5964737e-01  -1.7280331e-01  -5.2078546e-02  -9.9200466e-01  -5.1174244e-01   1.9511344e-01   3.1284446e-01   4.4009554e-01   2.4283576e-01   5.2361876e-01  -5.7096633e-01   2.8172506e-01  -6.4860474e-01  -2.1950079e-01  -8.9488674e-01  -3.7359277e-01   8.3564810e-01  -1.7927162e-01   6.5166717e-02   1.3182666e-01  -3.4348419e-01  -6.4203101e-01   8.9693554e-01  -6.3129628e-01   4.6278124e-01  -9.5394107e-01   2.6010410e-01   7.9585550e-01  -9.1706335e-01   7.2891051e-01   8.0488062e-01   6.0271134e-01   8.5948582e-01  -6.9076999e-02  -7.4853670e-01  -8.1000911e-01  -2.9565472e-01  -3.6040364e-01  -8.9710193e-01  -7.6026655e-01   4.6195483e-01  -7.4807037e-01  -7.3211776e-01   9.3476610e-01  -4.9558505e-01  -4.9181773e-01  -5.4603841e-01   5.0581983e-01  -8.7711456e-01  -6.5843165e-01  -6.4596527e-01  -3.1819639e-01   7.6477052e-01   4.7061058e-01  -5.3136135e-01  -9.7126096e-01   6.9540124e-01  -8.9966072e-01   9.4762704e-01   5.2755695e-01  -4.5017128e-01   9.7448344e-01   8.6821248e-01   7.3676536e-01  -7.5814751e-01   8.6497401e-01  -8.3789435e-02  -7.6887658e-01   5.2071455e-01   6.7144234e-01  -7.0704455e-01   2.0662204e-01  -2.9131307e-01  -6.7937017e-01   4.3007805e-01   3.1704762e-01  -8.7555142e-01   5.0179869e-01  -5.3627619e-02   4.9505886e-01   4.3927193e-01   7.0922273e-01   4.5659229e-01   5.1871319e-01   5.5199962e-01  -2.5696352e-01  -7.8725342e-01   7.9375392e-02  -9.7455758e-01   8.4805670e-01  -8.8321323e-01   9.1621383e-01  -9.6776344e-02  -4.6634144e-01  -6.1978201e-01  -4.5226250e-01   8.1225840e-01  -2.2170110e-01  -3.9494717e-01  -1.5699260e-01  -7.6892168e-01  -4.0328938e-01   2.3664621e-01   8.3654677e-01  -1.2169438e-01   5.1052523e-01   7.3943850e-01  -4.6417623e-01   7.0145170e-01  -9.0692119e-01   8.0099817e-02  -3.0215436e-01   6.5285390e-01  -7.2579582e-01   4.8650493e-01   2.6496257e-02  -6.2303216e-01   6.3068891e-01   9.0785203e-01  -8.0371087e-01  -3.0342437e-01  -8.3929501e-01  -7.6612977e-01   9.2547420e-01   7.2323355e-01   7.6061148e-01   4.3282160e-01  -8.1106769e-01  -7.4413483e-01   2.7256110e-01   4.3010036e-01   4.7513494e-01   7.9735197e-01  -8.9278949e-01   2.4023492e-01   2.0306234e-01  -8.3354458e-01   2.6127011e-01   2.9873341e-01  -8.0347491e-02   1.7937443e-01  -1.1221276e-01   2.3440284e-01   8.9130203e-01   7.7766185e-01   5.9921953e-01   9.2430405e-03  -1.4119610e-01  -9.0435357e-01   4.9886738e-01   6.2357241e-01   7.9184062e-01  -6.4153061e-01  -5.9817825e-02   6.3840012e-01   3.4588401e-01   8.3796527e-01   8.6927590e-01  -8.3283942e-01   3.9014329e-01   3.9525409e-01   9.7189843e-01   3.0402364e-01  -1.1956070e-01  -3.2819822e-01  -2.5411735e-01  -1.9734517e-01   4.6377642e-01  -5.5432997e-01   5.4346106e-01   1.3535541e-01   5.0072437e-01  -2.3306617e-01  -6.7736340e-01  -5.4471379e-01   6.5987785e-01   8.9610084e-02   8.8331930e-01   8.3572800e-01  -2.5120703e-01  -9.4491973e-01  -4.8537998e-02   2.9976052e-01  -4.1638406e-01  -8.6198945e-01  -9.1971935e-01  -8.9763282e-01  -7.8129265e-01   9.9916320e-01   6.6404576e-01   4.3023942e-01  -9.7883866e-01   6.3585424e-02   5.4879985e-01  -2.8981101e-02   4.8304537e-01  -4.5026555e-01  -3.8327467e-01  -9.6649326e-01  -6.8995854e-01  -9.6229057e-01   2.0180578e-01  -6.1394482e-01  -5.2404000e-01  -2.7073585e-01  -4.8254725e-01  -4.9555131e-01   1.6762568e-02  -4.9631430e-01  -4.6186624e-01   9.6331277e-01   3.4120577e-01   7.1720650e-02   1.0960765e-01  -3.4526311e-01  -2.4941822e-01   7.6779515e-01   8.3837320e-01  -9.8044670e-01   2.6827423e-02   4.7173251e-01  -8.9264591e-01   1.3385820e-01   4.1200225e-01   2.0796369e-01  -6.7710538e-02   1.8433432e-02  -1.0128315e-01   6.4160710e-01  -1.3088739e-01   7.4697308e-01   2.8777576e-01  -8.1821308e-01   5.5591527e-01  -9.9554188e-01   5.1820953e-01   5.4585300e-01   3.8638488e-01   7.9739921e-01   5.4572237e-01   5.6189120e-01  -4.6007024e-01  -4.8980862e-01  -3.4585549e-01   7.7713794e-01   7.2275612e-01   7.2367293e-01  -9.7150517e-02   4.5711301e-01   1.5420647e-01   4.4721176e-01   5.0004598e-01  -3.3402146e-01  -4.6158755e-01  -6.3875504e-01  -4.8513882e-01  -3.3074372e-01   2.7276886e-01   3.6719638e-01  -1.0436203e-01   4.1067606e-01  -1.1672228e-01  -7.1805073e-01  -9.5526726e-01   8.5294611e-01  -9.2026266e-01   9.8717788e-01  -5.4650278e-01   3.3204632e-02  -5.4576419e-01   1.5488613e-01   1.8112888e-01  -9.3928545e-01   9.5661729e-01   7.4114983e-01   5.1176129e-01   1.3803690e-01   3.6246364e-01  -8.2255735e-01  -8.6764572e-01  -4.9146366e-01  -9.9737283e-01  -6.8161989e-01   2.9708384e-01  -5.1406272e-01  -4.1935111e-01  -2.9664360e-01  -8.1246656e-01   2.7474022e-01  -3.9763008e-02   8.2145061e-01  -5.5210737e-01  -1.0127460e-01  -3.7941648e-01  -9.9960209e-01   5.5305250e-02  -6.6089597e-01   1.5610326e-01  -4.7704578e-02   1.6017798e-01  -2.7764254e-02   6.3686470e-01  -1.3228996e-01   9.6552451e-01   9.3455435e-01   9.6502688e-01  -5.7229012e-01  -2.9205544e-01  -3.7169041e-01   6.5011161e-01  -1.7632869e-01  -9.2962476e-01  -7.4025174e-01   8.1824126e-01   3.9789905e-01   6.2435213e-01   9.9765874e-01   1.5763733e-01   3.6806989e-01   4.7423541e-01   5.2782605e-01   8.9413180e-01   5.5750347e-01  -2.2243993e-01  -3.1629654e-02   6.0865486e-01  -7.5896388e-01   1.2066055e-01  -8.9314102e-01   6.3231135e-01   3.4657774e-01   4.5038838e-01  -7.0639761e-01  -4.8346911e-01   5.2277223e-01  -8.5842506e-01  -7.0631330e-01  -3.1967956e-02   1.7595614e-01  -5.6212622e-01   6.2237657e-01   6.9850742e-01  -7.8684285e-01  -8.2308084e-01   3.8640945e-01  -2.8459874e-01  -9.8070504e-01  -3.2368067e-01  -9.9974742e-01   1.3156139e-01   1.6470742e-01  -8.3710753e-01   4.3231264e-01   1.9779159e-01  -3.6076574e-02   4.2332484e-01  -1.9737283e-01   4.2185047e-01  -2.4533953e-01  -7.4049746e-01  -6.1878246e-01   2.2435772e-01   2.1129180e-01   1.0225643e-03  -5.4694856e-01  -3.1344589e-01  -1.2990257e-01  -7.9526386e-01   8.1448273e-01  -2.0890337e-01   3.4158340e-01   5.7830448e-01   8.9956672e-01  -9.3004824e-01  -9.8576278e-01  -9.9824309e-01   9.4793243e-01  -8.8256827e-01  -7.2310042e-01   4.7475891e-01  -6.0488133e-01   4.6131070e-01   1.6497598e-01  -1.3051742e-01  -7.8796371e-02  -2.7609182e-01  -1.4911308e-01   9.2888465e-01   3.3889746e-01  -9.1575808e-01   6.4481710e-01   9.7543704e-01  -1.1820874e-02   2.7650196e-01   5.3561538e-01   4.3300685e-01   4.8442719e-01  -8.9310382e-01  -1.4394708e-01   4.4228865e-01   2.8537158e-01  -1.0737530e-01  -5.6632797e-01  -3.2952906e-01   8.6086505e-01  -1.6004016e-01   3.6397061e-01   3.3278534e-01   7.9361201e-01   6.8001093e-02   7.5926131e-01   2.8835214e-01  -2.3916791e-01  -1.5004644e-01  -6.6378738e-01   6.5198220e-01   1.5691837e-01  -9.6734927e-01   3.7738862e-01   9.8446093e-01  -2.8687097e-01  -9.3881813e-01   2.8622810e-01  -2.8538973e-01   1.0987364e-01  -7.9886589e-01  -7.8080594e-02  -5.8268928e-02   3.3387776e-01   4.3035137e-01   7.0765049e-01   8.0883656e-01  -9.9632166e-01  -8.0273047e-01  -1.1150390e-01  -2.7409546e-01   8.7222348e-01   9.4547250e-01   2.1202723e-01   1.5650430e-01   6.0866890e-01  -9.8402982e-01   9.7851190e-01   1.6528138e-01  -5.2973755e-01  -7.1098099e-01   8.3311024e-01   7.7001106e-01  -4.9836215e-01  -4.1242501e-01   1.6669192e-01   2.7606914e-01  -5.7801390e-01   2.5758734e-01   2.9292774e-01   7.9313477e-01  -4.0157185e-01  -9.7941672e-01   8.1602331e-01   1.6955276e-01   6.0421541e-01   9.4458461e-01   6.3082348e-01  -3.4260758e-01   9.6924345e-01   6.2809182e-01  -2.9551085e-01  -1.6470344e-01   1.9915377e-01  -8.3927412e-01   2.8895988e-01  -2.4995189e-01   6.8910975e-01  -9.8998462e-01  -7.3648844e-01  -4.9339230e-01   8.0990191e-01  -5.1281362e-01  -8.7959392e-01  -2.2871608e-02  -2.9257360e-02   9.3345371e-01   5.7572281e-01  -6.9384658e-01   1.8671182e-01  -1.3702139e-01   4.4740641e-01   5.8718047e-01  -5.5391959e-01   5.9608121e-01   8.4762290e-04   6.5851326e-01  -8.5747322e-01  -2.6889109e-01  -1.7071672e-01   1.8939550e-01   3.3047873e-01  -2.0310981e-01   9.5556632e-01  -7.4632766e-01   8.2865178e-01  -3.3059918e-01   2.1151361e-01  -2.2694250e-01  -3.1823109e-01   8.9794396e-01   1.9954671e-01   6.3991194e-01   4.9099064e-01   9.3306073e-01  -4.0032332e-01  -6.7247703e-01  -8.7402588e-01  -5.4600659e-01  -4.2564237e-01   6.1487759e-01  -7.6244676e-01  -4.2003351e-02   2.1746555e-01  -5.5368706e-01  -8.1579125e-01  -3.0253695e-01  -5.9373881e-01   9.1564978e-01  -6.4745830e-01  -7.9975763e-01  -3.6622886e-01   6.0455231e-01   6.0333418e-01   2.3047813e-01   2.1435484e-01   1.5344220e-01   5.1291611e-01   6.2712468e-01   3.4308880e-01  -9.7662389e-01  -9.6998908e-01   8.6465389e-01   6.5955603e-01   2.7131792e-01  -9.2292995e-01  -2.5723693e-01   5.1295545e-01   6.3622271e-01   9.2399833e-01   4.3168596e-01  -1.5276968e-01  -2.5258989e-01  -3.4065870e-01   4.8289797e-01  -7.5925636e-01  -6.8295940e-01   7.3072056e-01  -5.6702420e-01   1.0501122e-01   8.3460753e-01  -1.9427332e-01  -8.8848496e-01   8.4170148e-01  -2.2927277e-01   3.8029152e-01   7.5615433e-01   6.2861925e-01  -2.1620875e-01   1.1781656e-01  -8.3536052e-01  -3.7340242e-01   2.5041686e-02  -9.2895915e-01   8.2867850e-01   8.8694451e-01  -5.5098125e-01  -9.1897004e-01   9.2513409e-01   1.0107938e-01   3.2195148e-01   3.2391049e-01  -2.3110925e-01  -1.0527146e-01   3.8590728e-01  -5.6251295e-01   7.7716498e-01  -3.0346952e-01   1.5554186e-01  -7.5526829e-01  -5.1017185e-01  -1.9791093e-01   3.5558481e-02   4.0130080e-01  -4.7062216e-01  -6.5598509e-01   9.4098983e-01   4.5637815e-01   1.5333984e-01  -9.3787122e-01   7.2486808e-02  -3.6458969e-01  -4.3718792e-01  -3.0847889e-01   3.6010230e-01  -4.1797209e-01   7.7555754e-01   4.2036005e-01  -6.4432775e-01   9.6273298e-01  -1.9422988e-01  -1.9426971e-01   6.9512594e-01  -8.8479563e-01   6.0787022e-01   2.8206975e-01  -7.4219782e-02   1.7148068e-01   8.5567376e-01  -7.1078594e-01   3.1467828e-01  -5.5626896e-01   7.6019106e-01   8.8864005e-01  -2.1611717e-01   5.1034530e-01   6.4658962e-01  -8.1234763e-01  -9.5301786e-01   6.4675294e-01   8.7498563e-01  -1.4454758e-01   2.1334676e-01  -6.8754940e-03   4.6436494e-02   4.7457419e-01  -5.8100541e-01  -9.8421606e-01   9.8949861e-01   9.5618720e-01  -1.5347324e-01  -9.9103290e-01   4.6002608e-01   1.2819712e-01   2.3802841e-01   5.5316902e-01   2.3004832e-01  -7.1673822e-01   8.4405579e-01  -8.4145086e-01   5.9298130e-02   8.2697600e-01   4.2790194e-01   7.0867658e-01   5.3833274e-01   5.8892088e-01   2.2904481e-01   2.3552377e-01   7.0916200e-01   3.8003081e-01  -6.0392881e-01   6.1605019e-01  -2.1749776e-01   9.1738395e-01  -2.1496141e-01   7.9929936e-01   4.9161659e-01  -8.9518110e-01  -6.9416314e-01  -7.1146821e-01  -2.7349674e-01   6.6302599e-01   5.1566923e-01   5.2519725e-01   8.9041599e-01  -7.5635437e-01  -2.5321157e-01   5.6720079e-01   5.4360375e-01  -2.7888975e-01   2.7264322e-01   1.3899378e-01  -3.1820872e-01  -3.0776736e-01  -8.8370089e-01   9.9423975e-02  -4.4331354e-01   9.3716426e-01  -9.0227713e-01   5.8678782e-01   6.1307051e-01   8.5450808e-01  -9.4095473e-01   2.4390445e-04   1.0272387e-01  -9.9218257e-01   9.4877767e-01  -6.9996337e-01   3.3996506e-01   6.0290120e-01   4.6866992e-01  -2.3003561e-01  -7.9272973e-01   9.3286647e-01  -7.5258084e-01   5.4658444e-02   4.1927818e-01  -3.5372042e-01   8.4191495e-01  -1.7467131e-01   1.2566912e-01  -1.7741121e-01  -1.2251204e-01   6.7951955e-01  -4.9732248e-01
   3.5913593e-02   1.0931837e-01  -6.4607728e-02  -4.6257912e-01   6.3500452e-01  -3.3350479e-01  -1.2921908e-01  -7.6269751e-01   3.1189327e-01  -2.3398126e-01  -3.1697647e-01  -6.1835043e-01   5.7848012e-01   6.9236300e-01   5.4843441e-01  -7.3328451e-01  -9.9785941e-02  -1.9056773e-01  -9.9070838e-01   4.6951960e-01  -8.1580842e-01   9.5757463e-01  -6.0132079e-02   4.2586571e-01   7.4506387e-01   3.6485069e-01  -7.7958990e-01  -9.0965523e-01   1.3696181e-01   4.9463301e-01   9.6886529e-01  -4.6183165e-01  -7.9180184e-01   5.3728986e-01  -7.1317895e-01  -1.6621750e-01  -5.7071209e-01  -5.1285845e-01   3.0935478e-01   6.8323018e-01   3.7388496e-01   7.0947844e-01   4.4678128e-01   6.4475207e-02  -2.9305657e-01   4.4967534e-01   6.6015533e-01   9.3163303e-01   5.3248124e-01   2.2754941e-01   3.4556597e-01   4.8434894e-01  -2.2940777e-01  -3.8870353e-01   1.2335729e-01   7.6781246e-01  -8.8761745e-01   3.7865226e-01  -5.1191585e-01  -3.2750600e-01   8.5956186e-01   3.2703092e-01   9.0850617e-01   5.5470147e-01   3.8142212e-02  -3.9169158e-02  -5.0948009e-01   2.4408466e-01   8.1148473e-01   9.5370185e-01   7.0698246e-01   7.9446103e-01  -4.4066036e-01  -6.2966701e-01   2.1852353e-01  -1.7073156e-01  -6.7231942e-01   7.3362282e-01   5.4431547e-01   7.6131041e-01   1.4532771e-01  -2.0706077e-01  -6.9865284e-01   8.9694008e-01   3.6269924e-01   6.8474563e-01  -3.6204752e-01  -6.1519509e-01   1.2044917e-01  -6.4456264e-01  -2.5851510e-01   5.1089169e-01   1.3528328e-01   3.1915330e-01   2.3113926e-01   6.9158933e-01   5.6294186e-01   3.5280059e-01  -8.8415136e-01   3.8468328e-01  -7.5933764e-01   7.3500442e-01   1.0744837e-01  -7.1516962e-01   3.1786791e-01   1.6029745e-01   5.7311734e-01  -2.6229765e-01   4.3841517e-01  -7.5992910e-01   5.4403452e-01   2.6425223e-01   3.0082045e-01  -2.7071484e-01  -7.9995783e-01  -9.9082212e-01   3.1907717e-01  -4.1022729e-01   4.8082626e-01   7.7356700e-01  -9.5066155e-01  -1.1949538e-01   7.4665495e-01  -5.5841765e-01  -9.9230477e-01  -9.6884836e-01  -8.4697293e-01   9.1876189e-01   1.1136124e-01  -4.9775268e-01   8.2153109e-01   9.0889701e-01   8.3621264e-01   2.3338181e-01   4.3484421e-01  -4.6918797e-01  -7.1489031e-01  -5.1323413e-01   6.7943493e-02  -6.1062762e-01   6.7778909e-01  -5.7653700e-01  -1.6837230e-01  -3.8429100e-01  -8.4230091e-01  -2.4668200e-01   7.3942421e-01   5.6250948e-01  -5.2019298e-01  -9.1433339e-01  -8.3613461e-01  -3.6256134e-01   7.3936683e-01  -1.6769069e-01  -7.2214243e-01  -9.5783715e-01  -9.1414906e-01   4.1780924e-01   2.1088465e-01   2.6067912e-01   1.7127544e-01   2.8485551e-01   4.3290757e-01   6.0908577e-01  -9.9917052e-01   8.8692722e-01   2.8817420e-01   8.1743889e-01   9.5036993e-01  -7.0054464e-02  -3.0482267e-01  -7.2161823e-01   2.7582802e-01  -1.4306815e-01   4.2872199e-01  -4.4515053e-01  -2.6472778e-01  -8.6027527e-01  -6.4222517e-01  -6.8164510e-01   9.2744965e-01   9.3601672e-02   6.6084086e-01  -6.5747290e-01   9.3919309e-01  -3.8859636e-02   4.4509112e-01   6.4711083e-01  -2.6199954e-01  -6.9608427e-01  -1.9410779e-01   5.2816728e-02   8.1582468e-01  -4.4938010e-01  -4.2112160e-01  -5.4496161e-01  -1.6525836e-01  -3.1882791e-01  -3.4124551e-01   5.8433740e-01  -4.5060627e-02   7.8093553e-01   6.8674623e-01   8.3542868e-01  -4.0304492e-01   4.7998633e-01   2.9907247e-01   2.1765819e-01   9.2032086e-01  -7.0996443e-01   1.4499669e-01  -7.0819908e-01   6.2590292e-01  -4.2377347e-01  -7.1677906e-02   9.8493677e-01   5.3763619e-01   9.4078131e-02   9.5358568e-01   1.5179481e-01  -1.8987315e-02  -1.2271311e-01  -8.9649879e-01   3.1824631e-03   6.8450794e-01  -3.2006066e-02   6.1889272e-01   3.3336379e-01   4.1937917e-01  -5.6854502e-01   9.1466501e-01   3.2434845e-01  -7.6362316e-02   3.8032938e-01   9.2004507e-02  -6.8673902e-01   2.9639438e-01   1.8404823e-01   3.1171315e-01   4.5289099e-01  -7.7539347e-01  -4.2222464e-01  -1.0894806e-01   3.2187237e-01  -7.9561145e-01  -5.0518993e-01  -8.4511611e-01  -6.5389939e-01  -3.9469588e-02   3.3604875e-01  -2.1209775e-02  -2.5088859e-01   9.5157960e-01  -1.7694615e-01   8.2886039e-02   9.1327369e-01  -2.9176869e-01  -2.3341298e-01  -6.6914585e-01  -2.0378671e-01   4.1456339e-01   9.1016665e-01   6.9671056e-02  -3.0470967e-01   8.6682215e-01  -4.5607222e-01  -8.6489220e-01  -7.9433849e-01   4.6837466e-01   8.9674195e-01   3.5117411e-01  -3.1978637e-01   6.1148239e-01  -7.5656112e-01  -5.0726369e-01  -9.3470520e-01  -4.0201588e-01   2.0053955e-02  -4.0479640e-02  -8.7520656e-01   9.6569046e-01  -3.6803484e-01  -2.7865945e-02  -9.7455618e-01   3.5272613e-01  -2.7075245e-01   1.0407371e-01   3.2893980e-01   1.9728307e-01   3.5592801e-01  -9.5708113e-01  -7.5328058e-02   5.7256077e-01   2.2913388e-02  -8.8615303e-01  -9.0576904e-01   7.4448641e-01  -4.5213962e-01   1.5964404e-01  -2.2554922e-01  -9.6493706e-02  -5.3404580e-01  -6.0402936e-01  -5.7443539e-01  -9.3176315e-01   6.1834051e-01   1.7834904e-01  -4.2926576e-01  -3.1845809e-01  -7.8854862e-01   5.0315166e-01  -6.0856223e-02   8.4207324e-02   7.6939891e-01  -3.9049975e-01  -2.8564146e-01   4.6999066e-01   2.1001022e-01  -3.1340492e-01   2.7676455e-01   2.4987727e-01   1.4184719e-01   9.1044202e-01  -5.9452891e-01   3.2454257e-01  -2.6768924e-02  -9.7383431e-01   1.0431932e-01   5.2958748e-01  -8.5436135e-01   5.7464889e-01  -6.6767288e-01   6.0532227e-01  -6.8502025e-01  -6.0048306e-01   9.6694769e-01  -9.1209217e-01  -4.3451571e-01   5.9643441e-02  -6.5789658e-02   3.6267845e-01   3.6686010e-01   5.6484188e-02  -6.6936359e-01  -4.9263876e-01  -7.0582066e-01   1.2789473e-01  -5.3029745e-01  -2.9242815e-01   3.9846764e-01   5.4480343e-01   5.8184590e-01  -7.5682860e-01  -8.7122905e-01   1.6624086e-01  -4.8901077e-01  -1.6648731e-01   5.6357432e-01  -3.8307599e-01  -2.9462072e-02   7.6019367e-01   1.1385054e-01  -1.4852674e-01   7.4275854e-01   6.8583916e-01  -3.0176050e-01   9.3089581e-01  -8.3620088e-01  -3.6857856e-01   5.5548031e-01  -9.7612078e-01  -4.3280471e-01  -4.1750351e-02   3.1096493e-01   2.9259464e-01   4.8230529e-01  -5.6146779e-01  -2.0216633e-01  -6.8914480e-01   3.2393195e-01   6.7884003e-01  -1.4268962e-01  -2.5061278e-01  -2.7815679e-01   1.0384663e-01  -1.7417593e-01  -3.5549475e-01  -1.3835677e-01  -3.4200383e-01  -3.7871590e-02  -4.0552635e-02  -8.9587577e-01   7.5860620e-01   8.2913523e-02  -3.6784845e-01  -9.2481766e-01  -1.0457297e-01  -5.0035391e-01   6.5337290e-01   2.7989898e-01   3.5513439e-01  -5.4269560e-01  -8.6396917e-01  -4.4413878e-02  -9.4759038e-02   1.9161069e-01  -1.3909930e-01  -7.3452573e-01  -2.5137344e-01  -7.8152733e-01   9.8536130e-01  -5.0357381e-02  -5.9467622e-01   5.6324684e-01   9.6801069e-01   6.1101563e-01   4.9888989e-01  -8.5125090e-03   7.6207034e-01  -3.9267856e-01  -2.0795988e-01  -5.3304238e-01  -4.7781868e-01   4.0823713e-01  -9.1223137e-01  -5.6421283e-01  -3.3539955e-01   7.7992521e-01   1.3671313e-01   3.1121659e-01  -9.8053519e-01   8.8881107e-02  -1.9760657e-01   4.1102670e-01   6.5032017e-01  -3.6647682e-01  -9.7257075e-01   8.0335456e-01   9.5465006e-02   1.4691253e-01   3.0666389e-01  -7.4949193e-01   5.2859705e-02   4.9894554e-01  -9.6899856e-01  -8.4666473e-01   6.4298644e-01   9.5180131e-01  -1.6299011e-01  -4.2004878e-01   7.7699219e-01   6.8869070e-02   2.6452633e-01   3.0388288e-01   4.1518247e-01   1.6854705e-01   8.4487318e-01   9.0773523e-01   4.5019824e-01  -5.5629031e-01  -5.0953039e-01   8.8698768e-01  -9.8142162e-01  -9.9169706e-01  -8.1416035e-01  -1.2938890e-02   6.3798548e-01   3.3654188e-01  -2.3436991e-01   3.5079043e-01  -7.3039160e-01  -2.1917382e-02  -7.6776783e-01  -2.7282049e-01   3.0821355e-01   7.9528464e-01   1.9824467e-01  -7.1645241e-01   8.1881808e-01   2.1935659e-01  -2.6641026e-01  -9.0994766e-01  -2.0593506e-01  -9.7216855e-01  -4.0143938e-01  -1.8472667e-02   6.3454984e-01  -6.5455136e-01   6.3507922e-01   7.3455798e-01   4.3310098e-01  -9.8170808e-01  -4.8846522e-01  -1.9065365e-01  -2.4326680e-01  -4.6875481e-01  -3.5038318e-02  -7.7710498e-01  -2.8688261e-01   2.5280071e-01  -3.6529716e-01  -9.0963619e-01   5.7389145e-01   6.3304586e-01   5.7241160e-01   2.6147084e-01   2.7301553e-01   7.5638136e-01   4.9338879e-01   1.6709369e-02  -6.6479027e-01   2.5115651e-01  -8.7206719e-01  -9.8178611e-01  -1.8809982e-01   8.3069403e-01   2.1136894e-01   2.4714287e-01  -3.2181074e-01   5.2366251e-01   8.1096491e-02  -6.6136220e-01   3.6784628e-02   9.9200324e-01  -1.8614367e-02  -3.1394764e-01   7.5450840e-02  -8.0496712e-01   3.8951773e-01   9.5483843e-01   9.1707914e-01   6.1449535e-01  -2.3377837e-01  -2.6852665e-01  -5.0393845e-01  -4.1790815e-01   1.6777799e-01  -8.3604141e-01  -7.2732752e-01  -6.7738363e-01  -4.5295578e-01   1.4070307e-01  -4.9146039e-02  -4.4295863e-01   7.7387683e-02   6.4104605e-02  -7.0533155e-01   1.3121726e-01  -3.2197879e-01   8.7888539e-01   9.9137593e-02  -4.1761688e-02   2.1793649e-01   1.0861259e-01  -1.1035395e-02   4.6190158e-01  -4.6540406e-01  -1.1937460e-01   9.6406636e-01   7.3231513e-01  -2.4745262e-01   2.8908745e-01  -8.1052501e-01   5.8531147e-01  -9.0577136e-01  -8.8970816e-01   3.2513358e-01   6.5942779e-01   8.8475741e-01   5.2372577e-01  -9.7267959e-01   1.5368208e-01  -4.5327672e-01   5.9396057e-01   5.3094941e-01  -6.0860365e-01   9.2063430e-01  -5.1511780e-01  -3.9723475e-01   2.9912782e-01   2.3929506e-01  -5.1255359e-01  -8.3287503e-01  -3.4753480e-01  -5.1601274e-01  -7.1147515e-01   9.9078910e-01  -9.7931002e-01   2.9815746e-01  -4.9034567e-01  -3.6560170e-01  -4.0106835e-01   3.1433513e-01   7.7967088e-01   5.3635680e-01   7.3943986e-01  -7.7449033e-01  -2.9381007e-01   5.4534368e-01  -5.4519922e-01   6.6625683e-01   1.8807578e-01   2.2896649e-01  -9.1802483e-01   7.2227711e-01   9.2833904e-01   3.0185110e-01   7.0522682e-02  -7.1218318e-01  -3.8449720e-01  -9.0288513e-01  -4.9232979e-01  -3.1042525e-01  -3.9193792e-01  -3.0771429e-01  -5.5639070e-01   4.9731143e-01   7.3049162e-01   5.5059883e-01  -8.4736834e-01  -9.8283422e-01  -2.3917204e-01  -4.0246324e-01  -7.3401434e-02  -8.6684278e-01   3.7995632e-01  -2.8978453e-01  -7.3741261e-01  -9.6106723e-01  -2.3932600e-01  -8.0982529e-01   2.2538813e-03   7.1161413e-01   7.5780467e-01   6.4307365e-01   7.3567386e-01   1.4989941e-01   4.1063187e-01   2.6932352e-01   6.2184867e-01   9.9881726e-01  -8.9853664e-01  -4.8919954e-01   9.2386282e-01   7.3433295e-02   7.4219038e-01  -2.1933052e-01  -4.7007920e-01  -6.1213994e-01  -7.7596276e-01   1.2164147e-03   7.5992956e-01  -3.2660496e-01  -6.7431492e-01  -8.5989907e-01  -6.2782998e-01   1.5118470e-01  -5.1843852e-01  -1.5719737e-01   1.7526959e-01   8.0543914e-01  -7.5725336e-01   5.7673828e-02  -1.2874886e-01   8.4825692e-01  -2.7995594e-01  -1.2397980e-01   2.2875174e-01  -8.4585722e-01   1.6308309e-01  -5.6027867e-01   1.5521910e-01   9.1627341e-01   7.9469951e-01   6.9271765e-01   3.4722062e-01  -9.3042497e-01  -9.7693345e-01  -4.1450382e-01  -5.9551404e-01   8.8177398e-01   5.3073179e-01  -1.4214509e-01  -4.0308471e-01  -4.6782114e-01  -8.9296593e-01  -5.3618923e-01   8.6311730e-02   7.8498293e-03   1.9199746e-01   2.3816567e-01   8.4121902e-01   2.1732788e-01   1.9330444e-01   6.7708335e-01   2.6361508e-01   7.2532318e-01   9.3656372e-01  -1.5118630e-01   2.1312607e-01   7.3697529e-01   8.5147493e-01   2.0154223e-01  -7.8716046e-01   8.5139326e-01   8.4717779e-01  -3.1850292e-01  -3.6090946e-01   4.2494683e-01  -5.5775227e-01   3.3837207e-01  -5.9042782e-02   6.1331469e-01  -4.5605983e-01  -7.0516803e-01   2.1399067e-01   4.7114597e-01   1.9300574e-01  -1.4389154e-01   5.0668793e-01   7.0237290e-01  -4.2848804e-01   2.4263870e-01  -5.8657900e-01   4.5209504e-01  -5.7556365e-01  -8.3849330e-01  -3.0536380e-01   6.6379160e-01   2.5054248e-01   7.2920097e-01   2.6759197e-01   7.4968746e-01  -4.4960844e-01  -3.9488426e-01   3.4285810e-01  -6.8628105e-01  -8.0112173e-01  -8.7476067e-01   2.7265696e-01   7.4740034e-01   1.6008951e-01   2.0874118e-01  -2.9676657e-01  -9.9037353e-01   9.6634051e-01   4.2319437e-01   3.8264087e-01  -4.2447863e-01  -1.3952009e-01   6.8749242e-01  -2.3398525e-01  -8.2087070e-01   2.9087594e-01   4.4402123e-01  -8.7878508e-01  -2.2050574e-01   1.5176824e-01  -9.8305558e-01   2.7832450e-01  -6.1922015e-01   9.2050715e-01   9.8879686e-01  -1.3786641e-01   5.7718261e-01  -5.5399440e-01  -7.6010554e-01  -9.1103717e-01   1.5726569e-01   7.6885011e-01  -6.5283446e-01  -1.2863649e-01  -6.2364940e-02  -9.2348767e-01   5.5916132e-01   5.5963783e-01  -2.7347795e-02  -2.5057348e-01  -1.9686877e-02  -4.4515033e-01  -7.7468137e-01   5.3886235e-01  -2.6986675e-01  -2.2091994e-01   3.8577578e-01   2.6477243e-01   5.7241982e-01   6.9950840e-01   3.4553533e-01   2.5424602e-02   6.5644324e-01  -5.7684564e-01  -5.0134902e-01   9.6955733e-01   5.6553888e-01   1.2861490e-01  -7.6249127e-01  -5.1826378e-01   3.0368419e-01  -3.6567608e-01   8.0003592e-01  -1.9914423e-01  -5.7257405e-01   8.7636748e-01  -1.0237821e-02  -8.5192135e-01   7.0600570e-03  -3.4191450e-01  -5.9249543e-01   9.2910633e-01   7.4006489e-01  -7.3715433e-01   9.3008170e-01   8.7056864e-01  -9.1116366e-01   7.5467157e-01  -4.1928569e-01  -6.7349116e-01  -1.7377909e-01   6.8847317e-01   7.7844105e-03  -3.1013505e-01   7.6431190e-01  -4.9779389e-01  -1.6578404e-01  -7.9500882e-01  -6.5555604e-01   2.4238454e-01   6.2637914e-01   6.8193432e-01   4.6364383e-01  -2.2321313e-01   7.1240472e-01   7.6030476e-01   6.6215678e-01  -4.0402449e-01   7.9429637e-01  -9.2175792e-01  -5.8017321e-01  -4.9191671e-01  -7.7331791e-01  -7.9039335e-01  -8.1718874e-01  -4.6581192e-02   4.2098350e-01  -9.0449700e-01   4.7327322e-01   3.1123636e-01  -6.8903964e-01  -3.8922887e-01  -4.8438165e-01  -4.1819227e-01   8.4962288e-01  -6.4474293e-01   4.2834621e-01   3.9360077e-01   4.3593717e-01  -4.2551893e-01   2.3571022e-01  -5.5759774e-01   4.9810176e-01  -5.8424253e-01   2.9906637e-01   6.5928768e-01  -8.8505884e-01   4.3456026e-02  -7.4228335e-01   8.1721682e-01   3.5208208e-01  -4.0653555e-01  -7.6501984e-01  -5.3850801e-01  -7.6586467e-01   3.4505065e-01  -7.9182055e-01  -5.4834538e-01   4.8883227e-01   1.1305484e-01  -7.4155525e-01   4.4481138e-01   1.9734267e-01   2.2114656e-01  -5.2162640e-01   8.1304571e-01  -5.3985374e-01   6.6208729e-01  -8.0730007e-01   4.1890462e-01   1.2230040e-01   5.5435339e-01   8.6235465e-01  -9.5293553e-01   5.2461679e-01  -5.7784387e-01   5.9898585e-01  -5.7751786e-01   8.1660972e-01   6.6736881e-01  -1.9897926e-01  -6.3100410e-01  -7.9235358e-02  -3.1615732e-01   9.0084381e-01  -7.3976996e-01   7.8438953e-03  -1.9493406e-01  -5.6154657e-01  -1.0369175e-01   5.2879412e-01  -5.0011127e-01   7.4476958e-01  -5.4434640e-01   6.2850800e-01  -3.8006652e-01  -2.9046723e-01   4.7433177e-01   4.6514623e-02  -6.2157491e-01  -1.8512991e-01   8.4990602e-01   9.9739739e-01   3.7184474e-01  -8.4082567e-02  -1.0549896e-01  -2.1670381e-01   8.6575813e-01  -8.5402988e-01  -1.0887426e-01   7.2259327e-01   2.7515827e-02   9.1047679e-01   4.6854737e-01  -6.2400854e-01  -1.5138415e-01   9.0089070e-01  -6.4052749e-01   1.3853709e-02  -1.2288222e-04   3.1590224e-01  -9.6579460e-01  -4.4720561e-01   5.9359029e-01  -3.7565006e-01   4.3156196e-01  -3.2092973e-01  -4.9727249e-01   4.6755468e-01   3.4286842e-01  -3.3849526e-01  -9.1492782e-01  -3.6598477e-01  -5.2268536e-01  -9.1123144e-01  -3.4390658e-01   4.2401125e-01   3.4581216e-01   3.3396842e-01   3.9153895e-01  -4.7853066e-01  -9.7201472e-01   3.3833357e-01  -7.8146466e-01   9.1653285e-01  -5.1627485e-02  -6.8397941e-01  -9.7036371e-01  -2.8230626e-01   7.9600848e-01   5.2737101e-01  -3.0465842e-01   5.0346939e-01   1.2872338e-01   2.6171617e-01   4.4469660e-01  -8.4554137e-03   4.6332750e-01  -5.8206079e-01   7.8069485e-01   6.4684392e-01  -9.7044871e-01   3.2267139e-01  -7.8229222e-01   4.5048924e-01  -8.9537829e-01  -3.3264296e-01   3.1784765e-01   8.2474546e-01   8.7492646e-01   5.8010500e-01  -4.3442109e-01  -9.6486201e-01  -6.6389335e-01  -5.3455143e-01  -6.7683272e-01   4.6238303e-02  -2.2796507e-01   6.4669555e-01   2.6300035e-01  -5.7824079e-01   9.2218499e-01
   3.4024096e-01   4.0427596e-01  -3.3963932e-01  -6.4912948e-01  -5.0531060e-01   1.6402120e-01  -8.1721260e-01  -9.3449271e-01  -3.2583400e-01  -9.3887775e-02   7.2309835e-01   5.3518156e-01   8.9204436e-01   3.1053906e-01  -3.4705978e-01  -9.1424300e-01   5.7712219e-02   3.0552478e-01  -4.2070375e-01  -8.4733387e-01  -6.6145173e-01  -1.4779686e-01  -3.6782430e-01  -1.7744568e-01  -5.8884366e-01  -1.4223846e-01   7.2258527e-01  -6.8030341e-01  -5.0033359e-02   8.9612792e-01   2.6418913e-01   3.7542123e-02  -9.0496149e-01  -7.8371859e-01   5.8476623e-01  -1.2249975e-01   1.5328694e-02  -5.0998542e-01   3.9045365e-01  -6.2316076e-01   8.6740785e-01   3.0115718e-01  -8.4291278e-02  -5.6597033e-01  -3.2562991e-02   6.9273125e-01   1.7865687e-01  -7.5497254e-01  -8.3835681e-01   8.4882011e-01   6.2882522e-01   4.8500615e-01  -8.8511768e-01   7.6766820e-01   5.4377729e-01   1.2185333e-01   4.1697984e-01  -4.5101464e-01  -4.8320736e-01   4.8786719e-01   8.8685978e-01   7.4274019e-01  -6.5658829e-01   5.7611106e-01   6.4096519e-02  -2.1675293e-01   5.4023903e-01  -5.2169845e-01  -2.9351520e-01   2.2824463e-02   3.0453862e-01   9.0311998e-01  -2.8654148e-01   6.0797379e-01   4.2783537e-01   4.5746634e-01  -5.0080673e-01   8.9468597e-01  -4.3488931e-01  -7.0026223e-01   5.5273964e-01  -7.2077968e-02  -7.1050008e-01   4.9965509e-01   3.3314800e-01   7.5518330e-02   5.4816191e-01   9.4332480e-01  -2.7209809e-01   5.3151642e-01   5.3179630e-01  -2.3365222e-02  -2.4767628e-01  -2.1236309e-01  -4.9025425e-01  -9.4986568e-02   7.9677614e-02   4.1687099e-01   9.4479753e-01   9.7221338e-01  -1.5523792e-02   7.6744480e-01  -9.6221518e-01  -5.2164036e-01  -9.3676909e-01   1.5657494e-01   1.4883335e-01   9.6282509e-01  -9.3767027e-01  -1.6376634e-01   2.2691458e-01   4.8833159e-01   3.2561351e-01  -5.3607356e-01   4.2128089e-01  -9.4175672e-01   5.0713692e-01   6.9043421e-01   9.5024245e-02  -2.6178419e-01  -1.8950915e-01   9.8493381e-01  -1.6899255e-01  -4.2250804e-01  -3.1751560e-01   4.9681039e-01  -3.1759745e-01  -8.5521270e-02  -8.8085695e-01  -5.6204857e-01   6.4169924e-01  -3.6422633e-01  -1.4149620e-01   1.0116611e-01   8.6721395e-01   4.3602843e-01  -1.1796090e-02   7.2490154e-01   5.2909634e-01  -3.2934213e-01  -9.2297164e-01   6.9161044e-01   7.1753981e-01  -9.9425207e-02   9.6416416e-01   8.0278305e-01  -8.4619848e-01  -5.7328189e-01   4.3585307e-01  -5.6396864e-01   9.5353555e-01   4.9479690e-01   1.5719429e-01   2.0687440e-01   7.9210837e-01  -3.6335403e-01  -7.0649505e-01   2.1066629e-01  -4.4645679e-01  -1.3470821e-01   3.0692840e-01   3.8985352e-01   4.7708064e-01  -1.8280121e-01   6.1155782e-01  -9.2894359e-01  -4.9070744e-01  -4.1117676e-01   1.8324282e-01   2.9857923e-01   1.5662825e-01   9.0790533e-01  -6.7492105e-01   5.6799330e-01  -1.1706051e-01   9.9484587e-01   7.0746725e-01   2.3497906e-02  -8.3611101e-01  -3.5152521e-01   9.2406994e-01   8.0892865e-01   8.5158444e-01  -1.5670768e-01   3.8763243e-01   2.8700304e-01  -5.7310625e-01   8.6476321e-01   3.6936179e-01  -5.2497500e-02   5.3316443e-01   1.4637336e-02  -5.9905108e-01   1.3204708e-01   8.8678935e-01   1.0709908e-01   1.1796601e-01   3.5752444e-01   8.8732069e-01   1.9623932e-01   7.6074662e-01   2.8060151e-01  -8.0705041e-01   6.7973998e-01   8.5503226e-02  -4.9837566e-01   1.2085797e-01   1.7256728e-01   9.6520401e-01   8.2066813e-01   8.7411152e-01  -8.0557541e-01  -6.4919071e-01  -7.8279481e-01   4.6852749e-01  -9.6121769e-01   4.2975447e-02  -8.3272072e-01  -2.4734056e-01  -4.4308137e-01   6.4313624e-02  -2.8251291e-01   1.7908716e-01   7.4346697e-01  -4.5950344e-01  -7.1247752e-01  -9.8230295e-01   7.0897425e-02   7.6801331e-04  -9.8018402e-02  -8.1458375e-01  -3.2482400e-01   5.9082685e-01  -1.2450824e-01   7.8063706e-01   6.7722813e-01   3.9951144e-01  -9.8101140e-01  -2.1427010e-01  -5.5427638e-01   2.3979558e-01  -6.2207603e-01   3.1146770e-01  -2.3093427e-02  -8.6537070e-01   1.5932057e-01   4.2830165e-01  -6.2801700e-01   3.3438011e-01   4.8677277e-01  -7.6259540e-01   6.8855696e-01  -8.9211353e-01  -3.6068699e-01  -2.7533956e-01  -9.5830461e-01   5.2899569e-02  -5.3248020e-01  -1.7751848e-01  -4.5564298e-01   9.0087501e-01   5.0505806e-01   6.8425660e-01  -7.5350251e-01  -1.3614106e-01  -2.4316621e-01  -3.3951380e-01  -7.3942119e-01  -4.6533938e-01   7.2646014e-01   1.8737031e-01   1.8147474e-02  -2.9288241e-03   9.8732824e-01  -2.1074565e-01   3.6036619e-02  -6.3871381e-01   8.4635694e-01   3.9457261e-01   8.4725581e-01   9.7934641e-01   6.2382835e-01   6.5111176e-01  -7.7939821e-01   5.6166301e-02   2.0458396e-01   6.5983380e-02  -2.4189494e-01   6.5260967e-01  -5.9991260e-01  -5.2947557e-01   9.1690828e-01   4.1689231e-01   2.6409913e-01   1.2762534e-02  -9.5943512e-01   8.2476093e-01  -9.6112355e-01  -6.0921369e-02  -4.4651391e-01   1.6261614e-01   6.4217013e-01  -1.5175129e-01   6.7619717e-01   9.9475272e-01  -4.8452995e-01  -4.5589338e-01   6.7928106e-01  -1.7480670e-01   2.6240402e-01  -7.6618021e-01   7.9477169e-01  -3.6683562e-01  -5.1781276e-01   9.3603553e-01  -1.2225290e-01   9.2867414e-01  -4.8689244e-01   5.0725747e-01  -1.6431444e-01   1.1400825e-01  -2.1901728e-01  -2.0272009e-01  -8.9199844e-01   2.1508025e-01   2.7645051e-01  -2.1152930e-01   6.7711968e-01   3.5037563e-02  -2.1679532e-01  -6.5496292e-01   8.7745215e-01   5.8861735e-01   1.5777772e-01  -1.1532628e-01  -3.5499405e-01   4.6042997e-01   6.2975296e-01   9.6849698e-01  -5.7528056e-01   6.1523781e-02  -2.1066329e-01  -4.8262002e-02  -2.9765303e-01  -7.5664930e-01   4.0029348e-01   3.1150466e-01  -8.1935929e-01   2.4869921e-01  -4.4116497e-01  -7.2210135e-01   1.8836243e-01  -4.9864371e-01   5.5151658e-01  -6.1748283e-01   9.7123207e-01   3.9917465e-01  -6.8827652e-02   2.5251797e-01  -1.1316495e-01  -1.1680768e-01  -6.0174979e-01   6.4886932e-01  -3.4547438e-01   3.3149600e-01   4.4391449e-01  -4.0637939e-01   8.9987477e-01  -2.8815959e-01  -4.9834815e-01   3.1871209e-01   4.0971377e-01  -1.0223893e-01   9.3634636e-01  -6.7523772e-01  -7.8248745e-01  -1.7087017e-02   4.7927005e-01   2.7882205e-01   7.5688374e-01  -1.1008168e-01   2.0829097e-02   5.2897549e-01   8.8123976e-01   4.4141867e-01   5.6168624e-01  -7.9966729e-01  -1.0736266e-01  -5.5765236e-01   1.2915875e-01  -1.2333988e-01  -7.1386821e-01   1.6950496e-01  -1.1001294e-01  -2.0431585e-01  -4.4176260e-01  -4.9684920e-01  -2.7095265e-01   7.5140391e-01  -4.1929442e-01   5.6114340e-01  -1.6452999e-01  -5.5343783e-01  -4.4134049e-01  -8.7178685e-01  -5.1874796e-01  -2.3915033e-02   6.6128712e-01  -6.9802631e-01  -6.2307282e-01  -3.5481204e-01   5.1346199e-01  -9.6346234e-01   5.1151059e-01  -9.5926634e-01  -8.4571245e-02   3.8473207e-01   1.1976901e-01   3.6031775e-01   2.5993268e-01   5.5307186e-01   1.9372330e-01  -8.6076337e-01   9.1379686e-01   7.0082210e-01  -9.2797759e-02  -6.4439788e-01  -2.6283615e-01   4.8315907e-01  -5.6829518e-01  -6.6945996e-01   7.8607849e-01  -7.3313947e-01  -8.9248276e-01  -1.8875001e-01  -3.8849838e-01  -4.6220082e-01   8.6900394e-01  -9.2025254e-01   7.5042109e-01  -9.9377284e-01   9.1703462e-01  -4.8767750e-01  -9.2374636e-01  -2.0745441e-01  -7.1325667e-01   7.9043946e-01   6.5058224e-02  -4.1568140e-01  -2.2594146e-01  -9.1913022e-01  -5.2383069e-01  -6.3005610e-01   9.0480767e-01   8.8306287e-01   5.1498040e-02  -7.7826805e-01   1.6604956e-01  -2.1542544e-01  -1.3337045e-01   4.4803496e-01  -5.8696650e-01  -9.6391553e-01  -8.9239478e-01   3.2126656e-01   7.0272603e-01  -4.1639870e-01  -7.1201613e-01  -4.0602771e-01   1.4044291e-01  -2.7045140e-01   6.4902055e-02  -4.4078519e-01   2.5150627e-01  -4.2140482e-01   6.5329815e-01   2.1897890e-01   1.1128221e-01   7.8667873e-01  -6.0501468e-01   8.1171451e-01  -8.0840672e-01   8.6153384e-01   9.3557414e-01   8.2598718e-01   1.1671458e-01  -1.7796483e-01   9.3689217e-01   2.5437212e-01   4.0874371e-01   1.8549571e-01  -6.6115849e-01   7.7551559e-01   6.4917113e-01   2.6450907e-01  -8.3287382e-01  -2.2180298e-01  -5.4577746e-01  -9.0783983e-01  -9.7748369e-01   7.8141938e-01  -8.9631211e-01  -5.2336977e-01  -5.6692335e-01   6.8448827e-01   9.4259661e-01  -4.7983153e-01  -6.7410949e-01  -6.7326846e-01   5.0434776e-01  -9.2032351e-01  -4.8100088e-02  -4.8165875e-01   3.6992025e-01  -2.9007939e-01  -5.4320615e-01  -1.3264023e-01  -1.5791192e-01  -5.2153212e-01   5.4935476e-01  -2.3628485e-01   2.7937456e-01  -7.3208585e-01  -8.7319608e-01   6.5431816e-01  -2.3499449e-01  -8.9533946e-01  -9.9385922e-01  -2.6208443e-01   7.2139036e-01   4.7936002e-01  -5.0030654e-01  -4.1119863e-01   5.8954553e-01  -8.0711240e-01  -2.9033602e-01  -5.1001349e-01  -8.8670222e-01  -2.8127515e-01   8.9969788e-01   9.0747533e-01   4.6997187e-01   6.7121925e-01   5.3483627e-01  -8.8619077e-01  -7.0675749e-01   1.3666514e-01   6.2301982e-01  -2.3921065e-01   1.6583776e-01  -3.1858333e-02  -5.2632846e-01   9.8326193e-01  -8.4455089e-01  -8.1096881e-01   2.4263732e-01  -2.9306291e-01  -2.5512654e-02  -5.0421994e-01  -8.6186055e-01  -8.3988260e-01  -7.7483093e-01   9.2570170e-01  -8.9392587e-01   7.2455709e-01   2.1774731e-01   4.4480770e-01   7.3413544e-01  -8.1321209e-01  -8.6723784e-01   9.2352782e-01   4.0022517e-01   8.6841903e-01   4.6624775e-03   3.6056363e-01  -1.0482663e-01  -8.0078453e-01   7.2109298e-02   4.4522196e-02  -3.3401575e-01  -8.7832407e-01  -3.5801971e-01   3.0012116e-01  -6.0473239e-01   8.8702699e-01  -5.3407781e-01   6.2875257e-01  -4.6626725e-01  -9.2310435e-01   1.9532350e-01   6.7326258e-01  -2.3934541e-01  -1.4833552e-01  -5.4189063e-01  -1.4654205e-01   4.1257930e-01   9.9980682e-01  -6.1090312e-01  -2.2170902e-01  -1.3339505e-01  -1.8105078e-01  -6.9063273e-01  -4.5345612e-02  -9.6748139e-02  -7.4592503e-01   1.9409659e-01   2.0730947e-02   8.3126519e-01   2.0685108e-01  -3.9956213e-01   5.0461120e-01   9.0575024e-01   6.6084682e-01  -1.5201568e-01  -8.3967128e-01   5.2479550e-01   4.2558861e-01  -2.3885907e-01   1.8442636e-01  -5.1942618e-01  -1.0977149e-01   1.8708896e-01   3.9096381e-01  -2.6862820e-01  -9.3520066e-01   3.5762304e-01  -4.2387364e-01   4.3676514e-01  -4.0772329e-01  -9.2635758e-01  -9.5388245e-01  -5.5784631e-01  -9.0858921e-01  -7.2092252e-01  -4.4469404e-02   8.8801122e-01   5.6528322e-01   2.8345186e-01   5.5383338e-01  -2.3829205e-01   9.6846085e-01  -3.2765827e-01   1.3609362e-01   6.8657599e-01   6.4745986e-01  -3.3208541e-01  -6.7968630e-01   1.4472160e-01   2.4148018e-01  -3.8329436e-01   5.1986911e-01   8.7393771e-01   9.3772607e-01   7.7003527e-01  -8.9816321e-01  -8.5569181e-02   8.8288882e-02  -2.5232496e-01  -7.6717826e-01  -6.9401814e-01   2.2433289e-01  -1.0446013e-02  -3.9218162e-01  -2.9115082e-01  -6.3805380e-03  -1.9395137e-01  -5.8055694e-01  -5.5972933e-03  -8.5551882e-01  -5.0505921e-01  -7.2538311e-01   6.5168398e-01   3.7678491e-01  -3.7426293e-01  -4.7863882e-01   9.5010389e-01  -2.7564794e-01   5.4613114e-01  -3.8334168e-01  -3.3556767e-01   5.6026309e-01  -7.0996653e-01   1.1374102e-01  -1.0427019e-01  -9.9403412e-01  -9.0707859e-01  -6.3256687e-01   5.4224673e-01   3.8857005e-01  -7.4041342e-01  -9.4389112e-01   7.1631254e-01  -7.8605270e-01  -6.6163088e-01   1.4906631e-01  -2.6971114e-01  -2.7957285e-01  -4.9799867e-01   3.5548803e-01   4.1093075e-01   6.4540857e-01  -7.7132638e-01  -9.6982502e-01   3.9027168e-01  -3.1985442e-01   8.4798733e-01  -5.4077780e-01   8.5636899e-01  -3.4706508e-02   2.5370357e-01   5.1254064e-01   2.1861352e-01   8.1783177e-05  -3.1580369e-01   9.9471203e-01  -1.5274176e-01  -5.6570852e-03   8.9415948e-01  -1.1084539e-01   1.8610109e-02  -9.8073451e-01  -3.0831148e-01  -2.2404522e-01   8.6198045e-01  -2.0317817e-01   1.8541419e-01  -5.4005783e-01   6.7165783e-01  -8.7271854e-01   6.2884166e-01   8.6788503e-01  -5.1698575e-01  -1.1147206e-01  -1.5347854e-01   2.0596535e-01   1.5940355e-01  -3.8008108e-01  -9.3255603e-01   1.4268412e-01  -5.3281018e-01  -7.4028650e-01   6.0376525e-01   3.7894170e-01  -6.9292765e-01   6.0802397e-01  -6.3800437e-01  -9.9483807e-01   7.9434053e-01   2.7893746e-01   3.5631819e-01  -8.4743524e-01  -5.6998416e-01  -4.8162934e-01  -2.9480402e-01   6.3279703e-01  -3.8772058e-01   4.0612454e-01   1.8717366e-01  -3.7556147e-02  -8.3481094e-01  -7.4508389e-01  -5.3567348e-03   8.5734716e-02  -8.6463067e-01  -2.6860590e-01   4.6376223e-01  -5.3436642e-01  -6.9655961e-01  -1.0167930e-01   4.9015936e-01   4.6335139e-01  -7.0757710e-01   1.2660273e-01   7.6218555e-01  -5.6103769e-01  -4.1072117e-01   7.0295517e-01  -6.7969328e-01  -6.8921266e-01   2.4881419e-01  -4.3399852e-01  -1.7490500e-01   3.1427107e-01   8.8606888e-01   5.8347751e-01   9.8942121e-01  -7.8332374e-01   6.4650716e-01  -2.7247959e-01  -6.5253542e-01   9.5351344e-01  -6.0799401e-01   1.7344194e-01   7.9722924e-01  -5.8631956e-01  -2.2017644e-03   4.1863643e-03   3.3433324e-01   1.7407103e-01  -7.4246038e-01   7.2741807e-01   4.8938731e-01   8.3618886e-01  -4.8071326e-02   1.6303916e-01  -1.5183088e-01  -8.2209892e-01   2.2498733e-02   5.0305097e-02   9.5439576e-01  -7.3290723e-01   4.6738130e-01  -2.7163867e-01   6.7943522e-01   5.7704725e-01   4.5271555e-01   7.5668633e-03   7.7443277e-01  -6.0869854e-01   8.0289561e-01   4.5560174e-01   8.1106999e-01   5.9364884e-01   4.7794015e-01  -7.9878242e-01  -9.4732977e-01   1.9461306e-01  -4.4014597e-01  -4.4365150e-01  -7.5644736e-01   7.6584758e-01  -2.1593582e-01  -6.3619312e-01  -2.8655734e-01  -4.7108896e-01   8.2959220e-01   2.2142852e-01   3.8980098e-01   1.7009483e-01   9.5126863e-01   7.6637552e-01   7.2551347e-01   2.7304069e-01   6.2995249e-01  -5.1413528e-01   9.0905859e-01  -3.7703046e-01   7.4843197e-01  -2.6148256e-01   4.7389888e-01  -5.1429742e-01  -8.8739325e-01  -6.9789752e-01  -3.1256629e-01  -3.2051884e-01   9.7269570e-01   4.5092829e-01   2.4497343e-01   1.9520855e-01  -2.8775023e-01   3.5752063e-01  -3.2737944e-01   2.6462643e-01  -3.4146582e-01  -5.9858294e-01  -2.2361541e-01  -5.6841357e-01  -9.0864943e-01  -9.6658208e-01  -1.6239341e-02  -6.2099962e-01   3.7294800e-01   3.8035880e-01   1.2123863e-01   6.4984721e-01  -9.7830645e-01   9.4072337e-01  -4.7226696e-01   1.2413283e-01  -8.6630600e-02   1.7423096e-02   5.7193913e-02   9.2464183e-01  -5.2503862e-01  -3.1063989e-01  -8.5195081e-02  -3.8188473e-01  -8.5302915e-01  -4.3662037e-01   7.7176411e-01  -4.1100073e-01  -1.8871620e-02  -7.0622926e-01   8.5160810e-01  -4.3279886e-01   2.3776493e-01   1.3718731e-01  -3.6388346e-01  -9.1677701e-01  -2.6012852e-01   1.0934374e-01   9.3589127e-01   9.1392429e-01   8.3172263e-01   7.5735504e-01  -9.6924997e-01   9.0965694e-01  -2.9055478e-01   5.4744341e-01   4.0525541e-01   7.0046103e-01  -2.4335189e-01  -7.8305916e-01  -4.5887332e-01  -4.6195232e-01   1.1842024e-01   3.6781958e-01  -2.4537968e-01  -1.1728764e-01  -5.4023251e-01  -3.3134741e-01   3.5186177e-01   6.0387428e-01   4.8165069e-01   8.8705942e-01  -5.8782010e-02  -3.6753186e-01   1.0297288e-01   7.5299044e-01   3.3735968e-01  -8.4548354e-02  -7.9180428e-01   2.1273238e-01  -4.4243089e-01   2.5735583e-01  -2.0706950e-01  -6.4457093e-01  -3.6683091e-01   5.1092797e-01   1.9226464e-01   7.4099393e-01  -3.1650630e-01  -1.4936454e-01  -8.4108534e-01   6.9985091e-01  -3.0341684e-01   7.3329238e-01  -6.9825294e-01  -1.9749874e-01  -1.7382113e-01   7.7147593e-02   4.8284707e-01  -6.6998604e-01   7.0308084e-01   7.0606837e-01   2.1726374e-01   9.0890559e-01   5.1476013e-01  -7.5227489e-01   3.7182164e-01   4.4370160e-01   6.2366343e-01  -4.1618123e-01   5.3357920e-01   1.3890668e-01   8.9384385e-01  -7.0757003e-01  -1.5271084e-01   8.8608156e-01  -7.8464502e-01  -7.4434838e-01   3.6117078e-01   7.5335995e-01  -5.7795588e-01   1.7919223e-01  -9.4361044e-01  -2.1084513e-01  -1.7109770e-01  -2.1728766e-01   7.1750663e-01  -2.0521147e-01   5.6170301e-01  -7.8558953e-01   7.5901860e-01   9.8447244e-01  -2.0400034e-01   2.3408709e-01  -9.1563681e-01   6.2242981e-01   8.9394679e-01   7.5287788e-01   5.3249856e-01  -6.1297572e-02  -3.7068535e-01   4.3327589e-01   6.3915380e-02  -6.6735821e-02  -4.2418698e-01  -4.0688144e-01  -2.0789025e-01
