  -4.9670555e-01  -6.1321703e-01  -8.2070450e-01  -6.5422497e-01   2.7948203e-01  -4.4559910e-01   8.4065394e-01  -9.2993849e-01   2.3231166e-01   9.5650469e-01   6.7077013e-01   5.8328396e-01  -7.5815987e-01   1.4931565e-01   7.6932492e-02  -9.5916182e-01  -9.0421087e-01  -5.7517361e-01  -1.0694479e-01  -7.4852419e-01   9.3686260e-01  -2.3825666e-01   5.1365317e-01  -5.3387741e-01   5.7856889e-01   7.1735729e-01   9.9458316e-01  -8.9846554e-01   6.0166429e-01  -5.7476786e-01   8.3085887e-01   4.8804724e-02   9.2054332e-01   7.7071660e-02   7.8005794e-02  -2.6384032e-01  -6.2521106e-01   6.6278384e-01  -5.0449934e-02  -5.7035865e-01   3.7080192e-01   8.7722200e-01   5.3269440e-01  -7.0259444e-01   2.1384313e-01   5.4567503e-01  -9.3265444e-01   2.6498716e-02   2.2196766e-01  -9.3201851e-01   7.6774940e-01  -1.2411536e-01   4.8600753e-01  -1.7483907e-01  -1.9778917e-01   5.0496055e-01   6.7432280e-01   7.1998532e-01  -3.4274622e-02  -1.2988037e-01   4.6466060e-01  -2.3152465e-01  -4.1666540e-01  -5.0902930e-01   5.7191737e-01  -9.2416758e-01  -9.1345648e-01  -9.5544683e-01   9.0758317e-01  -5.2782267e-01   3.2754856e-01  -6.3521592e-01  -4.2689393e-01   1.4795650e-01  -7.5934265e-01  -5.8517816e-01   2.4739527e-01   2.5302464e-01  -9.2457376e-01   6.1054779e-01   5.0089635e-01  -8.6272265e-01  -8.1275101e-01   6.2862249e-01   3.2964409e-01   8.9209377e-01   6.1375200e-01  -9.8249422e-01  -8.3396029e-02   9.5588829e-01   1.8219352e-01   8.9124803e-02   8.1757245e-01  -9.1378466e-01   9.0884451e-01   9.9970139e-01   7.8584272e-01   8.3546102e-01  -8.4989611e-01   1.8115494e-02   6.9817305e-01  -7.0184086e-01  -9.9856392e-01   9.7530281e-01   2.6889919e-01   1.0722833e-01   5.2361334e-01  -4.0852039e-01  -6.4466493e-01   5.5361434e-02   3.9343915e-01   1.4386994e-01  -4.6485255e-02   2.2783309e-01  -2.7518006e-01   9.0938142e-01  -8.2394658e-01  -2.8460199e-01  -2.6865221e-02  -7.2261143e-01   5.8038237e-01  -4.0277432e-01  -4.4599638e-01   7.1927873e-01   6.9263380e-01  -8.4465957e-01   2.4661529e-01   4.6907069e-01  -4.8984897e-01   8.1455179e-01   1.6817697e-01   1.9615849e-01  -4.8690636e-01   6.8719641e-02  -1.2379651e-01  -9.7892016e-01   8.9518096e-01  -2.1098239e-01  -1.6589757e-01  -6.7210928e-01   8.1820198e-01   7.6403849e-01   8.9570586e-01   5.6730946e-01  -1.0839009e-01  -4.9017992e-01  -5.3218176e-01  -4.8107618e-01   5.2163101e-02   5.4228337e-01  -7.8461513e-01   7.0533370e-01  -2.7247682e-01   2.2701942e-01   6.1051788e-01  -5.1020964e-01  -2.1975197e-01  -5.3435086e-01  -3.7495538e-01  -8.3855323e-01  -8.0491256e-01   2.0819162e-01   7.7994821e-01  -1.9830092e-01  -3.8169438e-01   5.3860634e-01   5.7794920e-01   8.0311350e-01   7.2859346e-01  -6.3543910e-01  -3.3363219e-01  -6.4816400e-01   9.7073650e-01  -2.1461768e-01   6.2263580e-01  -7.4940992e-01  -2.6024238e-01   8.7575482e-01   7.7821490e-01  -6.7926607e-01  -5.2966560e-01  -8.6177891e-01   7.0971723e-01  -9.3044185e-01  -7.9752203e-01   1.9625246e-01   6.9314985e-01  -2.0578690e-01   3.2664232e-01  -3.9593508e-02   4.8978340e-01   2.7339264e-01  -8.9908141e-01   7.6652483e-01  -4.0915062e-01   6.4260053e-01   5.6478077e-01   9.7681956e-01   4.7953241e-01   3.0153472e-02   9.6149798e-01   2.6047560e-01   1.6462650e-01   8.0249911e-01  -5.6630666e-01   6.8210419e-01  -9.0288114e-01  -6.2679823e-01   3.8893792e-01   2.7302926e-01  -1.8129195e-01  -5.4446616e-01   5.0573054e-01  -7.0161348e-01  -5.7190572e-01  -7.5036528e-01  -3.4022935e-01   5.1601922e-01  -6.2221597e-01  -2.8928799e-01  -4.6250046e-01   5.3027956e-01   4.4055090e-01   1.9940283e-01  -5.8336432e-01   5.0603489e-02   6.3849411e-01   1.9241399e-01   5.6965368e-01  -2.8730967e-01   3.3493097e-01   9.2682267e-02   9.1283052e-01   2.7260507e-01  -6.9507321e-01  -3.3471663e-01   7.2066618e-01   5.3492475e-01  -8.1819948e-01   3.8810008e-02  -2.4717205e-01  -1.4250291e-01  -4.7602916e-01   5.1573745e-02   1.9691364e-01   8.9844951e-01  -7.3265835e-01   2.8995858e-01  -9.5548714e-01  -2.5640819e-01   8.6535473e-01  -9.0904366e-01   2.8441242e-01  -4.7115705e-01   7.5989404e-01  -2.4487606e-01  -2.8514275e-01   2.1209824e-01   9.4033585e-01   9.6946728e-01   4.9119342e-01  -7.0264051e-01   3.3886937e-01  -9.8550662e-01  -9.9738646e-01   6.1977174e-01  -6.6216946e-01   2.7985574e-01   8.2353986e-01   3.3020608e-01  -7.0460814e-01  -2.7295118e-01   4.5651770e-01  -2.2324988e-01   7.4394370e-02   5.2336796e-01   8.8665024e-01  -2.9505517e-01   7.9318717e-01  -4.0754973e-01  -4.3501421e-01  -5.5549587e-01  -3.1881796e-01   4.3274362e-02  -8.8159124e-01   6.8123569e-01   2.0899735e-01   1.4937709e-03   6.7787598e-01   7.4243012e-01  -4.4310462e-01  -7.4434579e-01   7.1476403e-01   6.1814335e-01   9.5939047e-01   9.2911834e-01   9.5470684e-01   4.9204526e-01  -3.5143853e-01  -1.7249309e-01   4.6788142e-01   8.4167402e-01   6.6287475e-03   7.2511662e-01  -5.2217047e-02   7.0631965e-01  -7.8214474e-01   4.0522332e-01  -2.7706818e-02   1.0534987e-01  -2.4503368e-01  -9.5910575e-01  -9.8359404e-01   9.4773988e-01   3.3990333e-01  -7.1409782e-01   8.9390926e-01   4.1377689e-01  -1.2808132e-01   2.6136159e-01   9.8356754e-01  -2.3056075e-01  -6.5653267e-01  -3.4569372e-01   2.7858980e-01  -4.5399360e-01  -6.9717567e-01   2.0426006e-01   1.7144974e-01   7.4564379e-01  -6.2314137e-01   1.6362218e-01  -7.3892958e-01   4.1915634e-01  -6.9819907e-01  -8.5338071e-01   2.4062242e-01   3.0751361e-02  -5.5886418e-01   9.6720866e-01  -8.5104395e-01  -8.9316537e-01   7.4996142e-01   1.1911334e-01   4.8751913e-01  -1.1854462e-01  -7.9810578e-01   4.2277623e-01   7.6963770e-01  -4.6125415e-01   1.8292843e-01  -3.6617732e-01  -1.4635037e-01  -5.5924323e-01   4.1157745e-01  -6.2145516e-03   1.5320145e-01   1.6550275e-01   8.2461089e-02   9.3479255e-01   9.6175460e-01   1.9410980e-01  -9.9171805e-01   1.2892491e-01   4.2336578e-01   3.8997735e-01   6.5140412e-01   1.6719111e-01  -6.8220920e-01  -9.7890955e-01  -8.7413330e-01   8.3363508e-01   5.3881378e-02   9.5123098e-01  -8.9162087e-01  -5.6763587e-01   3.2762459e-01  -4.1288218e-01  -4.7449195e-01  -9.3905337e-02  -2.5263945e-01  -5.0178483e-01   8.9233099e-01  -2.1736885e-01  -5.5708167e-01   2.3616466e-01   1.5236486e-01   6.6713432e-01   4.0782892e-01  -1.5276235e-01   4.2618173e-01   8.6209396e-01   4.0468381e-01   8.6703124e-01  -3.5338008e-01   6.6306827e-02   2.4749744e-01  -8.9015385e-01   5.6969257e-01   2.7000188e-02  -2.7811051e-01  -8.6372136e-01  -6.4020757e-01  -6.5430993e-02  -6.2806320e-01  -7.7268014e-02  -6.1639252e-01   1.9613912e-02   8.9727919e-01  -1.3836069e-01   9.6224811e-01  -8.5147220e-01   5.3317373e-01  -5.8872344e-01   6.0698486e-01   5.7758466e-01  -7.6184920e-02  -3.0766903e-02   8.3850068e-01  -4.8530698e-01  -6.2515995e-01   7.9625345e-01  -8.2426303e-02   4.0727120e-01  -1.7911171e-01   9.8672046e-01   5.4169885e-01   2.6519337e-01  -9.9679391e-02  -2.0114084e-01   3.2169102e-01   1.8803173e-01  -1.2765879e-01  -3.9162625e-01  -5.4917917e-02  -9.0447491e-02   6.2642229e-02  -3.8954522e-02  -4.5683804e-01   1.0856190e-01   4.2014764e-02   1.7634166e-01  -5.3643445e-01   1.5337922e-01  -1.7033359e-01  -6.2030969e-01   8.2580924e-01   5.8529584e-01  -5.6717493e-01   5.9364174e-01   4.7216445e-01   9.3786074e-01  -7.7606328e-01   2.2407559e-01   9.8261245e-01   9.0847053e-01   9.1450748e-01   8.7881934e-01  -9.4972448e-01  -2.8672655e-01  -5.9107554e-03  -8.8913486e-01   4.0515981e-01   2.0145548e-01   1.5428433e-01   9.2466308e-01   5.0059745e-01  -6.5125329e-01   7.4027911e-01   1.4701591e-02   9.1071883e-01  -8.5050396e-01  -9.6962921e-01   6.7590000e-02   7.5762078e-02   5.1285960e-01   5.3260083e-03  -7.3235611e-01   1.9406914e-01  -6.7055657e-01  -6.4645031e-01   8.3219156e-01  -1.6685198e-01   9.9176914e-01   4.3049850e-01  -9.5702055e-01  -2.6154223e-01  -5.2521451e-01   8.4632440e-01   3.2131217e-01  -2.1339003e-01  -7.9435188e-01   3.2286975e-01   4.5406139e-01  -2.6183606e-02   9.4190616e-01   7.2850034e-01  -8.5537065e-01  -3.8686032e-01  -9.7921025e-01   3.8287570e-02  -5.1710817e-01  -9.5141561e-01  -9.3078334e-01  -5.9349582e-01   7.0315721e-01  -5.7747401e-01  -2.5818554e-01  -5.5428219e-01   1.2821087e-01   7.7476313e-01  -4.4821609e-01   5.3098514e-01  -6.1609319e-01   1.1628845e-01  -2.9462591e-01  -2.1458803e-01  -8.3262326e-01  -5.0322565e-01   7.0951872e-01  -2.3970359e-01   2.7389688e-01   3.8860008e-01   3.6121184e-01  -1.1684739e-01  -2.9184293e-01   1.4602036e-01  -2.3703491e-01  -7.9441357e-01   9.6536234e-01  -2.9797955e-01   4.6383820e-01  -6.5397165e-01  -3.9326439e-01   1.4096122e-01   4.4062490e-01  -8.1781310e-01  -7.1494418e-01  -5.9877183e-01  -9.4907990e-01  -6.4707442e-01  -2.1293748e-01   1.4424104e-01  -8.7686409e-01   7.6660759e-01   5.2768210e-01  -5.9003435e-01  -7.3016143e-01  -5.3593327e-01   7.0927588e-01   4.1962950e-01   5.7039493e-01   3.3701175e-01  -2.7088890e-01   7.4467788e-01   3.0327550e-01   4.7683787e-01  -7.3136615e-01  -3.9829996e-02   4.6327110e-01   4.5723959e-01   1.3176024e-01   2.2965538e-01  -4.2653127e-01  -9.7937511e-01  -7.3399085e-01   6.9937852e-01   6.3485000e-01  -7.6964164e-01   2.1677272e-01  -9.8872427e-01  -6.9798211e-01  -2.2272912e-01  -8.4218675e-01   7.4383133e-01   4.3264391e-01   7.2472316e-01   8.7409674e-01   9.4196868e-01  -8.7303552e-02   8.6008267e-01  -2.3400833e-02  -2.9360569e-01  -7.5845214e-01   9.7997073e-01  -4.6839139e-01   9.9371730e-02   7.4259563e-01  -2.3157967e-01  -2.0534466e-01  -4.0027085e-01   4.8880207e-01  -7.1732302e-01   8.5824958e-01   9.7055888e-01  -6.1829290e-01   6.6065809e-01   3.5247826e-01   7.2248873e-01   4.6352870e-01  -8.1527450e-01   6.5184481e-01  -5.4015997e-01  -1.2601917e-01  -4.4054077e-01  -9.5759141e-01   5.2409391e-01   2.3070988e-01   5.0719441e-01  -4.0578772e-01  -8.8331459e-01   7.5649353e-01  -5.0550521e-01   2.1205590e-03  -8.1667689e-01  -4.0058377e-01  -3.5332832e-01  -4.3666775e-01  -4.8922543e-01  -9.3689049e-01   6.8191327e-01  -3.3454926e-01   3.9205961e-01  -6.8228117e-01   7.4971279e-01   2.8932293e-01   1.5826376e-01   2.5929626e-01  -6.2517774e-01   2.0199432e-01  -1.9364328e-01  -8.9522021e-01  -2.8329937e-01  -9.8895253e-01   1.4360072e-01   4.4869176e-01  -9.2853998e-01   7.7085798e-01  -8.7740493e-01  -3.7310941e-01   5.8660014e-01   9.6685987e-01   9.8153922e-01   6.6398152e-02   4.5004048e-01   6.1930702e-02  -3.1491634e-01  -2.6024062e-01   3.8337642e-01   4.1981390e-01   5.1277171e-01   7.0147579e-01  -9.7821491e-01  -5.1723893e-02   7.8187948e-01  -4.4078244e-01  -9.0737904e-01   5.5515133e-01  -4.3456183e-01  -8.7804511e-01   2.8013395e-01   7.6641893e-01  -4.8703067e-01  -5.4890587e-01   6.9354951e-01   9.3528086e-01  -5.3426635e-01  -7.1645719e-01   3.5781894e-01   4.3582814e-02   9.1990322e-01  -2.6600241e-01   7.7406385e-01   7.7400592e-02  -2.6414273e-01  -1.1611909e-01   4.7253345e-01   9.9094911e-01   9.8561028e-01  -7.9328125e-01   7.3358940e-01  -1.0919701e-01   3.5947912e-01  -9.4774489e-01   4.7111307e-01  -6.7835252e-01  -5.2034490e-01   8.1980120e-01   3.9811617e-01   9.2759883e-01   9.9763191e-02  -8.4544437e-01  -6.6029401e-01   9.8443754e-02   1.8945907e-01   3.1553201e-01   6.8270715e-02  -5.4997561e-01  -8.2852431e-01  -3.7951018e-01   4.1844527e-01  -9.5010986e-01  -7.9401566e-01  -4.1353963e-02  -9.7615811e-01   7.3053555e-01  -7.3748444e-01   9.2190719e-01  -8.3318576e-01   9.2166842e-01  -3.8329759e-01  -7.2024314e-01   6.0216626e-03  -9.5401919e-01   5.0624988e-01   6.0900748e-01  -3.6594520e-01  -8.8850355e-01  -2.1141600e-01   7.8541533e-01  -3.1397110e-01  -2.2549248e-01   3.7999049e-01   9.6992284e-01   4.6708266e-01   9.1553157e-01  -6.9592283e-01   2.2152674e-01  -3.2156666e-02  -2.7248474e-01   2.2274033e-01  -1.5313293e-01  -1.7443300e-02  -8.7549358e-01  -6.1081008e-01   2.0243661e-01  -2.5914760e-01  -8.2115738e-01  -5.8453532e-01  -6.0594635e-01  -2.9140475e-01  -9.5279107e-01   6.9440147e-01   6.7595794e-02   9.3170437e-01  -6.5281001e-01   2.8884572e-03   7.8574517e-01   8.6428444e-01  -2.9877987e-01   6.5195242e-01   5.4535599e-01   6.8690891e-01   1.3432840e-01  -8.1041876e-01  -2.5976073e-02  -9.6041462e-01   7.4366284e-02  -3.6339686e-01  -7.9087720e-01   2.1246470e-01   5.5765809e-01   2.7668877e-02  -1.6797711e-01   7.2963472e-01   8.1677625e-01  -2.0923252e-02  -5.5008717e-01   6.6441688e-01   8.1859221e-01  -6.9202858e-01   9.2799620e-01  -5.5717799e-01   7.6508465e-01   9.7545067e-01   3.9795348e-01   2.2329920e-01  -7.5655668e-01  -4.0001496e-01   5.4401575e-01   4.9481452e-01  -8.9813169e-01  -7.1289301e-01  -5.4518962e-01  -8.1910809e-01  -1.1514580e-02   6.1101452e-01  -9.8600949e-02  -4.3624440e-01  -4.0838964e-01  -5.0069782e-01  -2.8246025e-01  -1.7273794e-01   9.4131338e-01   4.5783520e-01  -9.5035699e-02   7.7301487e-01   1.8142008e-01  -5.6972722e-01  -2.7920808e-03   4.2337869e-01  -3.9515659e-01  -2.7977144e-01   1.3295727e-01   2.3286172e-01  -2.2505724e-01   4.4143112e-01   9.2788592e-01   6.1408926e-01  -5.6556033e-01   3.5705349e-02  -9.3714598e-01  -1.5056899e-01  -2.3750997e-01   9.8897671e-01  -4.1294467e-01   1.7276479e-01  -1.8505236e-01  -1.6907750e-01  -4.9928648e-01   2.2673124e-01  -1.2542253e-01  -1.2187409e-01  -4.7472481e-01  -6.4400708e-02  -3.6008753e-02   4.6267944e-01   8.9096227e-01  -1.3138372e-01   8.1057768e-01   5.3227411e-01   7.0785127e-01   8.0757375e-01  -9.2485295e-01   2.4321982e-01  -9.9945806e-01   6.2813198e-01   4.8031438e-01  -9.6972541e-01   9.5953271e-01  -4.4821465e-01   7.9663275e-01   2.4274943e-01  -8.8564353e-01   7.8004482e-02   9.7433387e-02  -3.4331408e-01   9.9137178e-01   3.9875203e-01  -9.4064096e-01   3.3043403e-01  -3.2167831e-02   2.8482737e-01  -9.4714051e-01   2.6044151e-01  -8.2204008e-01   3.5057901e-01   6.3529203e-01   8.4570716e-01  -5.7872209e-01   9.9173768e-01   4.8488896e-01   5.1597549e-01   6.4416581e-01   5.5823236e-01   2.9310466e-01   9.0358917e-01  -6.3037264e-01  -7.2022924e-01  -9.4494789e-01   1.3578100e-01  -4.3899138e-01  -4.9022732e-01   3.5573186e-02   4.0230606e-01  -5.9203191e-01  -8.5412292e-01  -1.6686806e-01   3.5167750e-01  -2.4922862e-01  -8.2522910e-01  -6.4235695e-01  -9.1444053e-01   5.4782389e-02   9.9226015e-01  -2.5303940e-01   3.5136060e-01   6.6437666e-01  -4.7650984e-01  -1.5091658e-02  -5.7216730e-01  -2.9067811e-01  -8.8942861e-01   8.2805280e-01   9.0557690e-02   5.1924017e-01  -3.6239169e-01   7.8934147e-01  -8.3312444e-01   9.6811190e-01  -7.9852831e-01   8.4770375e-01  -5.8185332e-01  -4.5641741e-01  -9.2656305e-01   6.7930978e-01  -9.2834760e-01   8.7943173e-01  -3.4966359e-01   6.9981494e-01  -6.8064869e-01   6.9777764e-01  -4.8193796e-01  -4.3843890e-01  -6.6156945e-01  -7.8642970e-02  -5.7929826e-01  -6.0872746e-01  -2.9531792e-01  -9.6112800e-02  -2.0413369e-01  -3.7326813e-01  -9.9750257e-01  -7.0951632e-01   9.1792540e-01  -1.0840563e-01  -2.7885765e-01  -1.9905830e-01  -7.5766516e-02   4.7684834e-01   3.8595184e-01   9.0499496e-01   5.9408219e-01  -5.1005936e-01   6.5640746e-01   5.8995117e-01  -3.7035886e-01  -8.8600592e-02   3.0676214e-02   2.1932839e-01  -9.6225601e-01  -7.4567222e-01   8.6492422e-01   3.1465924e-01  -8.8232101e-01  -1.5084219e-01   4.9969696e-01   9.5998840e-01   1.9742471e-01  -6.3840235e-02  -5.9093818e-02  -4.1185149e-01  -2.7853853e-01   3.5176885e-01  -6.6539087e-01   7.1092656e-01  -7.1541012e-01   7.6685377e-01   9.7712556e-01   1.4771836e-01   9.9760859e-01  -4.0083714e-01  -5.5311905e-01  -4.0544004e-01  -4.0999615e-02   6.4841460e-01  -7.8231539e-01  -4.4119641e-01   2.8247489e-01  -3.1430122e-01  -1.0089672e-01   8.1262359e-01  -4.1162409e-01  -9.0372263e-01   6.8730828e-02  -8.7256086e-01  -3.3735470e-01  -3.0878345e-02  -4.4932005e-01  -6.5654943e-01   4.0542143e-01   3.2589769e-01   6.6126932e-01  -1.7742777e-01   9.7157528e-01   5.1348477e-01  -1.7224463e-01  -7.6233933e-01   7.4860207e-01  -7.2763228e-01   9.2481332e-01  -7.0047255e-01  -2.5005422e-01  -6.1738583e-01   1.4652425e-01   4.9974593e-01   7.1632912e-01   4.9628554e-01  -6.6553754e-01   2.5933796e-01
  -8.9128191e-01  -2.2197835e-01  -2.8377830e-02  -2.5083345e-02  -3.8014810e-01  -4.8667012e-01   6.7989775e-01  -8.1782892e-01   7.7090086e-01   6.2232215e-01  -3.5589208e-01  -4.4449613e-01   9.4165930e-01  -6.1852994e-01   5.8113073e-01  -8.8886341e-02  -8.5301340e-02   5.2573868e-01  -8.4581806e-01  -3.9336727e-01   1.5783106e-01  -4.5973959e-01   3.5245511e-01  -6.5453521e-01   6.0361325e-01   6.0639614e-01  -1.6064960e-01  -2.7568241e-02  -6.4412899e-01   9.2799169e-01   5.2985200e-02  -7.6414083e-01   6.0940912e-01   9.0939005e-01  -4.7134314e-01   2.1058866e-01  -2.2663416e-01  -1.9539396e-01   6.9655357e-01  -3.3602857e-01  -2.6994899e-01  -6.3829797e-01  -7.0074872e-01  -5.6588045e-01  -5.9407982e-01  -7.4447063e-01  -8.8321763e-01   3.5988895e-01   2.1609340e-01   1.4810315e-02  -5.5477098e-01   5.6328123e-01  -1.4574143e-01   6.7464156e-01  -8.2312091e-01  -6.9466424e-01   7.3914582e-01   5.1041086e-01   7.4805167e-01   1.7200344e-01   3.9114492e-01  -8.9895309e-01   4.9944845e-01   4.2776465e-01   2.2545583e-01   4.5714021e-01   3.8957806e-01  -4.2117049e-01  -1.6524372e-01  -5.2391414e-01  -8.4745020e-01   3.9345781e-01  -5.1776130e-01  -5.2340344e-01   8.3256932e-01  -5.3040618e-01  -9.5979585e-01   1.1061418e-01   3.2394156e-01  -9.0290413e-01  -1.3110446e-01  -3.0944168e-01  -6.3314243e-01   4.5486058e-02   1.0908343e-01   1.1423599e-02   9.6882317e-01   4.7072917e-02   8.1541758e-02   3.7683674e-01  -7.9573875e-01   9.1252989e-01   6.4571887e-01  -4.4269411e-02   1.2062856e-01  -3.8631855e-01   7.7969688e-01  -9.8073077e-01  -8.8397084e-01  -1.1071068e-01   8.6442216e-01   7.2850680e-01   5.9622225e-01   8.6650785e-02  -1.8980082e-01  -4.0389660e-01   7.5237370e-01   2.2358476e-01   3.6317209e-01  -8.9994471e-01   4.7309846e-03   3.2070510e-01  -1.1041274e-01  -2.4400415e-01  -1.7729874e-01  -5.7065731e-01   2.3250466e-02   9.0912137e-01   5.0045052e-01   6.8360140e-01   3.2233942e-01  -9.6959184e-01   7.2380291e-01   5.1221873e-01  -1.8839681e-01  -8.4166530e-01   5.2609080e-01   4.4294962e-01  -2.4301368e-01   9.8621356e-01   1.2476328e-01   1.2315217e-01  -9.2616699e-02  -4.6792966e-01  -4.2535604e-02  -7.3565945e-01  -9.7326376e-01  -1.4772331e-01   2.2257991e-01  -2.2276051e-02  -2.1593435e-01  -1.3847284e-03   3.1829912e-01  -4.2238950e-01  -3.8972933e-01   3.7314980e-01  -4.4694595e-01   6.6830869e-01  -6.5673364e-01  -8.0107946e-01  -6.6326533e-02  -9.0207899e-01   9.0665845e-02  -2.4036371e-01  -3.4770212e-01   1.9314432e-01  -9.8984212e-01   3.8159065e-01  -7.7880009e-01   1.5267978e-01   6.4622311e-02  -2.5032489e-01  -9.3007949e-01  -8.5207192e-02   7.9838409e-01  -6.5581872e-01   7.5999150e-01   8.7396667e-01  -3.5198510e-01  -8.1066607e-01  -2.2698463e-01  -2.3397387e-01   6.5120647e-01  -3.9997844e-01   5.9506363e-02   9.7824859e-02   4.7347700e-02  -7.2954713e-01   4.1147877e-01   5.1079715e-02   5.6056873e-01  -4.6490231e-02  -3.7796709e-01  -5.5774028e-01   1.4645641e-01   5.4327305e-02   8.9975925e-02  -4.7926434e-01  -5.2357212e-01  -6.2763548e-01   1.3864167e-02   8.6578497e-01  -4.9674610e-01   6.9837760e-01   2.6288692e-01   6.5797977e-01   2.5572824e-01  -6.4795092e-01  -1.2979910e-01  -8.8750373e-01   8.6106716e-01   6.9623508e-01  -5.4873839e-01   2.8867041e-02  -8.6269859e-01   3.9472617e-01  -6.7388153e-01   5.7418738e-01  -2.4808760e-02   5.5983027e-01  -6.1259483e-01  -1.9604025e-01   2.9906453e-01  -9.2607410e-01   1.0331552e-02   8.2293026e-01  -1.0228089e-02   3.1206687e-01   7.3058247e-01  -2.8457137e-01  -3.2673828e-01   7.4550826e-01   6.0884985e-01  -5.0198382e-01  -7.8727366e-01   8.7682102e-01   3.1123635e-02   9.0052431e-01  -1.0174816e-01   2.7368980e-01   4.3786021e-01  -7.2341474e-01  -8.3833073e-01  -1.2705196e-01   2.8023461e-01  -8.7670425e-02  -8.0394324e-01   2.9367227e-01  -2.2726992e-01   8.2160260e-01  -7.8118658e-02  -1.5600556e-01  -3.8322624e-02  -8.9503201e-01  -8.8252358e-01   6.4582922e-01   7.9688192e-01  -3.7237253e-01  -4.1445395e-02  -4.8760514e-01  -4.0531064e-01  -2.0620652e-01   7.5551485e-01  -3.0323782e-01   7.0211995e-01   5.1719483e-01   7.7922610e-01  -8.4626258e-01  -5.4438821e-01  -1.4229577e-02   1.4388041e-01   4.3674672e-01  -3.7248744e-01  -4.1921816e-01  -1.3472299e-01  -2.0059843e-01   3.0935318e-01   5.4175523e-01   3.8981502e-01  -4.4997952e-01  -8.3380741e-01  -1.2977859e-01  -3.9473784e-01   9.4267881e-01  -6.1410481e-01   7.8146252e-01  -7.2421115e-01  -1.3526312e-01  -1.2449523e-01  -4.6496155e-01  -5.2816336e-01   1.8797035e-01   1.8605405e-02   7.9478466e-01  -9.6642818e-01   4.1243008e-01   7.0079990e-01  -1.6878645e-01  -8.7607305e-01   6.6983651e-01   4.5415485e-01   4.3580208e-01  -9.6434612e-01   8.9568326e-01   9.8520494e-01   8.5405999e-01   5.6541614e-01   2.0230928e-02  -7.2155879e-02  -2.2444860e-01   9.0358056e-02   3.4026291e-01   2.6420212e-01  -9.5833788e-01   4.6007635e-01  -2.9573526e-02   1.0268490e-01  -4.3531217e-02  -6.5156958e-01  -5.2015133e-01  -1.2523558e-02   6.6030844e-01  -1.6957023e-01  -1.3477887e-01  -4.6214035e-01   3.9852398e-01   5.2817458e-01  -7.7520965e-01  -1.0922229e-01   5.7947980e-01  -7.3335676e-01   9.5807163e-01   4.2039355e-01   5.9956002e-01   3.1464195e-01  -7.0877128e-01   9.6133878e-01   1.6919241e-01   1.7514166e-01   7.8794220e-01   9.9150642e-01   9.8886727e-01  -4.5156100e-01  -8.2052914e-02   2.8097567e-01   5.7607645e-01  -4.1371076e-01   6.3042517e-01  -7.8570756e-01  -9.9197873e-01  -3.8507343e-01   3.9770489e-01   5.2898682e-03   3.4421941e-01   1.0251825e-01   4.3913301e-01   2.2444960e-01  -3.8792368e-01  -2.7900757e-01   3.2822501e-01   2.3603662e-01   2.2899222e-01   6.7222164e-01   7.4658503e-01   6.2232922e-02   4.3312025e-02   8.2655725e-01  -9.7936054e-01  -2.1181522e-01   6.8680910e-01  -5.0987668e-01   3.4219342e-01  -5.5218588e-01   1.1367147e-01   2.2091152e-01   9.9627822e-01   6.1229829e-01  -7.0123197e-01   7.6954528e-01  -2.7472467e-01   9.7144518e-01   9.2551617e-01  -9.8920814e-01   9.7638153e-01  -4.7311697e-01  -3.3116410e-01  -7.1317424e-01  -1.9501086e-01  -5.9468963e-02   4.8733786e-01  -5.4977727e-01   2.3893333e-01   9.7192131e-01  -6.0223301e-01  -5.1383892e-01   3.4002864e-01   6.8435812e-01  -6.4285228e-01   4.0813728e-01   3.2620891e-01  -3.5483452e-01  -6.9040658e-01  -5.2474143e-01  -2.6585253e-01  -8.9414763e-01   3.3585298e-01  -8.0847751e-02  -9.0660597e-01  -2.7514252e-01   6.8380730e-01   1.6035346e-01  -5.5828374e-01   9.4074870e-01   6.0951261e-01  -1.0818872e-01   9.8059597e-01   4.5580093e-01  -6.1374922e-01  -8.3240405e-01  -6.3949129e-01  -1.2102058e-01   6.2507653e-01  -2.1517760e-01  -7.6040058e-01   9.5032501e-01  -4.4209176e-02  -5.8297362e-01   1.0657241e-01  -3.8843771e-01   4.0623119e-01  -9.6392772e-01  -4.9854261e-02   5.4994874e-01   3.1603085e-01  -6.0033707e-01   6.7371144e-01   8.9622539e-01   3.2041265e-01   9.5194734e-01  -3.2496535e-01   6.0131732e-01  -9.3604299e-01   2.1037886e-01  -2.8752734e-01  -4.4569207e-02   8.1150735e-01  -2.4679282e-01  -7.2675380e-02  -7.6942985e-01  -8.9331920e-01   1.2567310e-02  -4.2221842e-01   3.9249546e-01  -3.7700934e-01   6.7299238e-01  -7.8660629e-01   2.6899672e-01  -8.1935727e-01   4.2985475e-01   2.3422157e-01   7.2068289e-01  -7.5680093e-01   7.1525272e-01  -6.8268332e-01  -9.0013207e-01  -9.6797102e-01   9.6559219e-02  -5.3505673e-01   7.9764062e-01   6.0214936e-01  -8.6208613e-01   9.3260659e-01  -8.8197608e-01   6.4182900e-01  -5.6584061e-01   6.0402049e-01   4.1071117e-01   8.6119483e-01  -5.0587581e-01  -6.1756983e-01   8.4798760e-01   7.2104229e-02  -2.9496629e-01   3.4454290e-01   8.4262707e-01   5.2029678e-01   5.7572732e-01  -7.2669297e-01   2.1516112e-01   3.8327685e-01  -7.6672499e-01  -8.3731754e-01  -1.6694904e-01   4.5197662e-01  -6.6999292e-02  -5.6001606e-01  -6.7082670e-01   7.1130460e-02   1.4625953e-02  -7.2183025e-01   6.6512211e-01  -7.6786721e-01  -4.0655695e-01  -5.3306251e-01   7.4514741e-01   2.5318610e-01   1.5585551e-01  -4.0832428e-02  -1.2306574e-01  -7.7240604e-01   1.4303271e-02  -4.6713928e-01   1.6757569e-01   4.0290435e-01   1.6419425e-01   5.3431205e-02   5.4414740e-01   7.5316204e-01   6.4590643e-01  -9.7326929e-01   2.4852830e-01  -8.4557697e-01  -1.3484053e-01   4.6609104e-01   3.6907880e-01   2.6040070e-01   7.8813524e-01  -4.9535340e-01  -1.8392041e-01   5.7127884e-01  -1.0669195e-01   6.0578326e-01   2.3216697e-01  -7.6656931e-01  -3.8048020e-01   2.7925855e-01   5.6821836e-01   5.2689294e-01  -9.9217903e-01  -9.1719226e-01   9.0949268e-01   6.5905304e-01  -1.7935340e-01  -6.2531019e-02   9.1022875e-01   2.3917144e-01   8.8813627e-01  -4.6073020e-01   5.4301278e-01   9.9530025e-01  -1.4287712e-01   7.5522225e-01   2.3272079e-01  -4.1352537e-01   4.6211206e-01  -7.9217483e-01  -9.6118503e-01   7.0536575e-01   1.8094196e-01   1.0114094e-02  -8.9694795e-01  -9.6368573e-01   2.3071644e-01   3.8678004e-01   7.4614174e-01   1.1520726e-01  -3.7244030e-01   9.9801293e-01   8.3568457e-01   7.5143440e-01   3.5079465e-01   4.5117898e-01  -8.8240881e-01  -6.1235281e-01   6.6649239e-02  -7.1805380e-01   1.6991945e-01   4.6811445e-01   7.6378846e-02   1.2851876e-01  -3.2318985e-01   3.1142491e-01  -3.7498489e-01   7.8844198e-01  -2.3993779e-01   4.6496699e-02   8.8721077e-01  -8.6053970e-01  -5.1570084e-01   4.1033512e-01  -4.5425163e-01   7.3221654e-01  -2.7812234e-01  -6.9069059e-01   1.0995870e-01   9.7034411e-01   5.5955619e-01   7.7783307e-01   1.9984685e-01  -9.8799437e-01  -4.6733967e-01  -5.7542000e-01  -9.6131721e-01   9.6530138e-01  -7.3186089e-01  -5.3081018e-01   7.1351309e-01  -6.8675220e-01  -3.8437702e-01  -2.6932566e-01  -1.7761068e-01  -6.5037573e-01  -6.3483748e-01   7.8163312e-01   4.6417117e-01  -8.7676200e-01  -5.5954381e-01  -3.8679365e-01   2.9933545e-01   7.6143827e-01   5.2000823e-01   8.4883478e-01  -6.1787898e-03  -1.9317754e-02  -6.4201779e-01   2.9144346e-01  -6.6948674e-01   7.5341878e-01   5.0475632e-01   2.9818399e-01   2.5650149e-01   9.0787087e-01   4.2731112e-01  -8.1995001e-01   7.8621132e-01  -8.4922058e-01  -8.4900642e-01  -1.8765514e-01  -7.5786129e-01  -4.9726150e-01  -2.2485352e-01  -8.2728565e-01  -7.3533877e-01  -3.5193007e-01  -1.1724226e-01  -7.1396567e-01  -3.7439942e-01   1.9851550e-01   5.1407846e-01   1.6916812e-01   7.1636926e-01   4.5678505e-01  -2.0065159e-01  -3.8301004e-01   9.9891320e-01  -9.0235509e-01   2.6660173e-01   1.6227826e-03  -6.6113862e-02  -9.2886382e-01   2.8593116e-01   4.2345783e-01  -9.4261710e-01   7.1273597e-01  -4.2580278e-01   5.7214698e-01  -1.7613973e-01  -3.9356246e-01   9.8520121e-01  -7.2491349e-01   1.5218570e-01   6.9259769e-01  -5.9221969e-01  -5.0651066e-01   7.6655448e-01  -4.3257690e-02   9.8309984e-01   1.7920732e-01   1.0325008e-02   9.2113679e-01  -5.7578390e-01  -9.6217609e-01   4.8922755e-01   1.2996006e-01   2.1649340e-01  -2.7457292e-01   9.0047294e-01  -7.1854807e-01  -1.7403545e-01  -2.4108380e-01  -2.2825397e-01  -9.2639912e-01  -2.6464749e-01   4.4678601e-01  -7.4284433e-01   9.2569790e-01   9.6987610e-01   2.3610841e-01  -2.7193151e-01   4.3067642e-01   9.3896191e-01   2.7750286e-01   3.4535535e-01  -8.3058674e-01   8.3297736e-01   1.2079408e-01  -7.3989159e-01   1.5206719e-01  -7.4315693e-01   9.8834317e-01   5.7228020e-01  -2.3425695e-01  -7.6863399e-01   1.9260995e-01   1.1883769e-01   9.4575075e-01  -6.1714906e-01  -1.2940328e-02  -9.9086798e-01  -2.7691329e-01   4.5731279e-01   9.5670131e-01   8.4148334e-01   1.8814702e-01  -4.8224682e-01   1.6628326e-01   5.0042030e-01   9.6544579e-02  -1.4634954e-01  -2.6315582e-01   6.2760362e-01   5.0642089e-01  -5.3025079e-01  -5.9478015e-01  -1.3477151e-01   7.6457374e-01  -3.0502636e-01   2.1079975e-01  -4.8406810e-01  -1.6892669e-03  -2.8368595e-01   2.8282958e-01   9.7228849e-01   1.3583401e-01   7.0192286e-01  -4.6922955e-01  -5.4517053e-01   9.7350430e-01  -2.7750271e-01  -8.7441486e-01  -1.9018933e-01  -6.5139999e-01  -4.3349504e-01   6.0271887e-01  -9.7077566e-01  -8.8726390e-01   6.1974400e-01   3.7714795e-01   7.4822383e-01  -1.8450618e-01   6.0373392e-01  -1.5938960e-01   2.6760263e-01   7.3303795e-01   5.6769529e-01   1.9160995e-01  -5.6519817e-02  -7.0779483e-01   5.2886883e-03  -6.3706065e-01  -7.2380724e-01   6.3517048e-01  -5.6248459e-01  -7.8338822e-01   8.2288679e-01  -4.3950014e-01   7.9924300e-01  -3.9389710e-01   6.1060410e-01  -4.1446704e-01   4.1453458e-01   9.4680793e-01  -4.2663738e-01  -5.6935484e-01  -4.6920688e-01  -5.6810814e-01   6.0883365e-01   8.3325564e-02  -3.8714382e-01  -9.5099214e-01  -9.5577877e-01  -6.0923173e-01  -3.8746634e-01  -5.4687603e-01  -5.3343154e-01  -2.3220843e-01   8.1438901e-01  -2.1677675e-01  -6.7777478e-01  -8.8278328e-01  -7.5143134e-01  -1.0613886e-01  -6.3865063e-01  -4.5627580e-01  -2.3259291e-01  -7.0247615e-01  -8.0019341e-01   3.6489652e-01   9.9263229e-01   6.5291575e-01   8.7071226e-01   5.2476942e-01  -9.8819711e-01   3.1036195e-01  -4.8340554e-03   9.8732951e-01  -6.5596033e-01   6.2603091e-01  -8.6235825e-01  -4.9951762e-01   9.4139073e-02  -3.1826285e-01   8.7514173e-01  -1.2029048e-01  -4.0277886e-01   6.1447350e-01   8.7741846e-01   5.2139205e-01  -5.9033841e-01  -9.8570197e-01  -3.0735415e-01  -7.0936128e-01   8.6819501e-01  -6.8438860e-01  -2.0289351e-02   3.4611428e-01   3.1497484e-01  -3.2267433e-01   3.7844872e-01   6.6853714e-01  -9.9801095e-01   7.4554338e-01   9.0550130e-01   3.8975345e-01   5.3112454e-01   4.9800814e-01   4.7151766e-01   5.6655848e-01  -5.1717957e-01  -6.8837134e-01  -9.5101245e-01   6.1715572e-01  -1.2618818e-01   1.7452000e-01  -6.8972031e-01  -1.7111964e-02  -6.7369415e-01   5.3237825e-01   2.4181600e-01   5.5089510e-01  -5.6349574e-01   5.1150461e-01   4.5516038e-01  -9.3271377e-01  -7.9642238e-01   2.8701620e-01   3.3531327e-01   3.3888856e-01  -1.8150112e-01  -9.8883353e-01  -7.0762521e-01   4.9312303e-01   6.0662718e-01  -2.6762589e-01  -5.1737041e-01   3.9342277e-01   4.7470416e-01   1.1734327e-01  -1.0121741e-01   5.5775927e-01   7.8206589e-01  -9.1190362e-01   4.6449619e-01   4.0986671e-01  -3.8533182e-02   5.9842831e-01  -6.1925117e-01  -7.1200028e-01   2.7944342e-01   5.7521510e-01   6.2726266e-02  -9.3512212e-01   7.1807635e-01  -6.9811620e-02   5.5161190e-01  -7.3231904e-01   2.5126219e-01   3.1386151e-01  -6.2788722e-01  -8.5916974e-01  -5.8500335e-01   2.1130301e-04   2.4502118e-01   9.9516857e-02   7.4835777e-01   3.5085644e-01  -8.8946190e-01   1.9468412e-01   1.0647463e-01  -2.0618954e-01   6.0805177e-01   9.6249670e-01  -5.9001461e-01  -2.3933698e-02  -7.3220527e-01  -8.1474890e-01  -3.1762592e-02  -2.3172437e-01  -2.0073286e-01  -9.3774483e-01  -9.7993800e-01   5.9769350e-01   2.3228251e-01   1.3226682e-01   7.5827209e-01  -5.1140539e-01  -9.5324886e-01  -2.1035819e-01  -4.6190057e-01  -2.8545191e-01   9.8273151e-01   6.3672213e-01  -5.2368660e-02  -7.4232124e-01  -2.0220277e-02   9.6454033e-02  -5.7013742e-01   8.4297410e-01  -7.0136839e-01  -4.5520830e-01   2.5687683e-01   9.3420240e-01   5.5278962e-01   7.3300989e-01  -7.4415048e-02  -5.9263065e-01   5.7079937e-01  -7.5715587e-01  -4.5665978e-01  -2.0744079e-02   3.6615264e-02   9.1358959e-02   4.7975036e-01   4.3548698e-01  -1.6642334e-01   8.8426103e-01   2.7804643e-01   3.1143358e-01   1.2436252e-01  -5.8290714e-01   6.0779794e-01   8.3193246e-01   2.9770164e-01  -8.2974565e-02   9.9694714e-01   4.2446721e-01   5.1486443e-01   9.1599973e-01  -9.0889862e-01  -5.1782793e-01  -9.3585660e-01  -8.5038385e-01   2.0844710e-01  -5.3717780e-01   6.5169297e-01  -3.1731361e-01  -5.4065956e-01   6.7237601e-01  -3.2895867e-02  -7.1017334e-01  -4.5413693e-01   3.2379257e-01   6.9061136e-01  -8.4053326e-01  -7.0735568e-01  -3.8210361e-01   5.5748946e-01  -3.5521872e-01   6.3331667e-01   6.8278413e-01  -2.7689501e-01  -8.9220637e-01  -3.3858440e-01  -7.0217631e-03   7.5746774e-01   5.1385739e-01   9.4008044e-01  -4.0949209e-01   3.2380729e-01  -4.1325240e-01   3.7113447e-01  -1.4243768e-01  -4.4160876e-01   8.2762411e-01  -6.2631876e-01  -1.5516378e-01   4.0723070e-01  -1.2818419e-01   3.8977449e-01   3.4023348e-01
   2.6573189e-01   5.1512313e-01   3.2050194e-01   6.8170632e-01  -9.2376353e-02   8.3652034e-01   6.3732570e-01  -1.2457136e-01  -2.6548870e-01   8.5530724e-01  -9.5764266e-01  -4.3152638e-01   1.5419987e-01  -2.3415354e-02  -6.6340157e-01   4.6236795e-01   4.0316683e-01  -4.1913801e-01   9.4716157e-02  -8.7935791e-01  -3.1075705e-01  -1.9831388e-01  -8.6564002e-01  -7.6243517e-01   7.2681247e-01   5.8739841e-01   6.9604003e-02   4.0982551e-01  -2.3562805e-02  -5.4676061e-01  -7.0342950e-01  -8.5466016e-01  -2.4384628e-01  -3.7285412e-01   9.1005454e-01   6.1552086e-01   5.9452364e-01  -5.2324024e-01  -4.2000973e-01   3.9227425e-01   8.8000550e-01   3.8545186e-01   2.9539148e-01  -9.9369150e-01   6.6876635e-01  -7.0430713e-01  -3.8796460e-01   5.0763070e-01   1.9770181e-01  -6.8585898e-01  -3.2435984e-01  -2.2917513e-01  -8.5550207e-01  -7.4525135e-02  -7.1037616e-01   4.5107066e-01   5.1153005e-01  -1.8828188e-02  -2.4698443e-02  -8.9977654e-01  -8.1911421e-01   7.0657793e-02  -8.6547665e-01   6.3949307e-01   8.2670180e-01   6.2605360e-01  -7.8862379e-01   9.2615264e-02  -3.9481170e-01   1.7738302e-01   6.5478791e-01   7.7449923e-01  -4.5788854e-01   2.5232947e-01   1.2683957e-01   7.2441784e-01  -2.9407777e-01  -9.1236389e-01  -7.7335296e-01  -5.3064704e-01  -6.5013170e-01   6.1611650e-01  -4.3917805e-01   6.7602078e-01  -6.7806396e-01  -4.8063680e-01  -4.8381217e-01  -7.1661342e-01  -5.5582027e-01   4.1433677e-02  -7.1136611e-01   5.5967511e-01  -9.7328515e-01   9.2725134e-01   7.0406214e-01  -2.7344961e-01  -5.3196494e-01   5.9395847e-01   1.3876011e-01   3.7532144e-01   8.6547844e-01   6.9614253e-02  -2.1870351e-01   3.7509411e-01  -4.0229960e-01  -8.0030001e-01  -6.8678333e-01  -9.0811669e-01   9.6197232e-01   1.2865710e-01  -9.9856362e-01   9.1317446e-02  -6.8522554e-01   2.1208321e-01  -4.9428791e-01   5.2204732e-01   4.9131507e-01  -8.5581015e-01   7.0052613e-01   3.6442913e-01   8.7349659e-01  -6.3706545e-01   5.3826196e-01  -2.3015849e-01  -8.6753318e-01  -6.1913047e-01   6.6217594e-01  -5.8085586e-01   4.4790487e-01   8.4725062e-01  -7.4195365e-01   4.4206142e-01  -5.8280634e-01  -2.2010299e-01   7.8525839e-01   9.7271427e-01   8.9433781e-01  -3.0706287e-02   3.0345021e-02  -6.5346083e-01  -8.2604197e-02   7.7570784e-01  -4.2078675e-02  -1.9171184e-01   2.5711805e-01   5.8110603e-01   3.8351164e-01   5.6202695e-01   1.6679874e-01   7.1222040e-01  -3.7922952e-01  -2.7021249e-01  -6.8558117e-01  -3.8871242e-01  -1.4030789e-01  -4.2897889e-01   2.5290631e-01   9.9351885e-01   6.7676613e-01   4.2022095e-02   3.3163393e-01  -3.1483157e-01   7.2998186e-01  -7.0999046e-01  -9.4031771e-01  -8.3870682e-01  -2.1965982e-01   9.5736975e-01  -5.0164596e-01   6.7352126e-01   7.3972950e-01  -2.2541406e-01   7.1957998e-01  -3.2023006e-01   2.3568370e-01  -2.2028464e-01   5.3273813e-01   4.3270902e-01  -5.1102622e-01  -9.7275729e-01  -4.4269275e-01   4.8316858e-01   8.4662827e-01   4.2414807e-01   8.7922974e-01   8.1261092e-01   7.1806769e-01  -8.9504695e-01   7.9081322e-01  -5.4790225e-01   9.5726564e-01   3.0463095e-01  -7.2712336e-01   5.4982907e-01   4.3766272e-01   8.8375759e-01  -6.4976213e-01  -3.2867899e-01  -5.6115177e-01  -6.4243246e-01   3.2197366e-01   1.0601239e-01  -6.1589222e-01  -6.0379297e-01   9.1138824e-01   7.4985186e-01   9.6462302e-01  -8.2825578e-01  -3.9230144e-01   4.1551431e-01   7.9414032e-02  -2.9139141e-01   9.6027459e-01  -5.9651366e-01   2.4668751e-01  -8.9467720e-01  -2.3056495e-01   4.4312367e-01   9.8722107e-01   5.9700638e-01  -4.2234920e-01   1.3244400e-01  -2.7074933e-01   2.3197412e-01  -4.5679658e-01  -1.9813528e-01  -7.3608740e-01  -7.7804449e-01   2.6910102e-01  -4.4799847e-01   8.0825303e-01  -3.9479335e-01   7.0978612e-01   6.8978159e-02   3.0104498e-02   8.2802183e-01   7.0281390e-01  -8.2107787e-01   6.0615245e-01  -8.6602259e-01  -5.7090452e-01  -3.9832908e-01  -9.8533496e-01   7.0354647e-01  -6.3888735e-02   2.5367487e-01   3.6346385e-02   6.7569779e-01   7.2881226e-01  -9.5109048e-01  -5.4686868e-01  -3.6777206e-01   2.6335594e-01  -9.8922795e-01  -8.5159015e-01   2.9649884e-01   7.1423467e-01  -5.3565582e-01   2.1251601e-01  -6.4812133e-01  -6.9871557e-01  -9.5765584e-01   3.3379636e-01  -6.0972300e-01   7.9521567e-01   9.5484278e-01   3.7014488e-01   9.4586456e-01   2.5928338e-01   6.7567333e-02  -4.6343106e-01  -8.4398443e-01   6.9235998e-01  -3.7807701e-01  -5.2277775e-01  -4.2389582e-01   9.5516325e-01  -4.2690662e-01   5.6310858e-01  -3.9950838e-01  -5.0587944e-01   9.2976811e-01   8.8656515e-01  -6.3350389e-01   9.4863068e-01   5.1709377e-01  -4.2695869e-01   3.3106429e-01  -6.8532171e-01   8.9468664e-02   5.3654364e-01  -6.5487642e-01   8.8681284e-01  -7.8532243e-02   4.6376074e-01  -4.0832699e-01  -6.1826619e-01  -3.3844405e-01  -9.4836949e-01  -8.7475541e-01   4.0434297e-01  -9.1802221e-01  -4.8509640e-01  -1.3131196e-01  -5.5428868e-01   5.4418102e-01  -1.4925926e-01   7.6230833e-01   9.3355743e-01   7.4679051e-01   2.3509823e-01   5.3106696e-01   1.7379339e-01   9.9411710e-01   7.9714624e-01  -6.9864904e-01   4.9773855e-01  -1.0196104e-01  -7.7726750e-01  -7.1032610e-01  -3.8398088e-02  -8.3863556e-01  -2.6508068e-01   3.8121325e-01   7.0059111e-01  -5.2057899e-03   5.3500775e-01  -8.5487840e-01   1.3572287e-01   5.4025296e-01  -7.9791785e-01   3.2103082e-01  -9.0766888e-01  -4.7265837e-01  -5.6149410e-01  -6.1921273e-01  -6.8448864e-01   3.4173197e-01  -4.8803020e-01   3.9416090e-01   9.8295692e-01   7.0413063e-01   8.2411220e-01  -4.9643125e-01  -7.4024236e-01  -5.9153037e-01  -9.7684679e-01   5.1907343e-02  -3.7162515e-02   3.0911073e-01   1.9941587e-01   2.3426597e-01  -8.3990339e-01   8.1369905e-01  -1.3445335e-01  -7.4820236e-01   5.8350993e-01  -3.5615074e-01  -5.9054768e-01  -2.6651086e-01  -7.6309656e-01   1.1207948e-01  -3.2017434e-01   6.1371216e-01  -7.8063378e-01  -4.6241175e-01   3.0007253e-01  -6.7659867e-02   6.0438245e-01   7.9199028e-01   1.3039195e-01  -2.2337837e-01  -6.3946700e-01  -2.3766911e-01  -2.9821519e-01  -4.0353610e-01  -4.4898154e-01  -7.1388122e-01  -2.0350347e-01   5.6899353e-01   8.7115981e-01  -1.8034510e-01   6.4954527e-01   9.0996662e-01  -1.3871044e-01  -9.0086944e-01  -9.2015275e-01   1.3860920e-02   2.9200745e-01  -9.6334934e-01  -4.9807540e-01   6.6464900e-01  -2.3507223e-01  -1.7407056e-01  -5.1532952e-01   9.4455023e-01  -1.4280428e-01   8.4764684e-01   5.8000141e-01   6.4515847e-03  -1.4767068e-01  -8.7981755e-01   2.1038905e-01   6.2716915e-01  -9.4262676e-01  -7.6501324e-01   4.8975892e-02   6.2279735e-01   6.5806773e-01  -5.4546339e-01  -4.9374630e-01  -2.5094686e-01   8.1386442e-01  -7.4471355e-01  -2.2743360e-01  -7.8033315e-01  -5.0048070e-01   8.4721110e-01  -9.2574222e-01  -6.1430127e-01  -7.5483967e-01   6.4989879e-01  -5.4671285e-01   7.7838617e-01   1.1336640e-01  -6.1644177e-02   8.3370163e-01  -3.9450653e-01   3.6398846e-01   8.6790022e-01   6.7691244e-01   9.0886677e-01  -2.8616261e-01  -1.6898195e-01  -1.7111484e-01   3.5523247e-01   2.0012674e-01   3.1826963e-01  -6.8950321e-01  -1.0132959e-02  -2.1828997e-01  -7.6617852e-02   8.6599729e-01  -9.5966795e-01  -5.9168983e-01  -8.1578375e-01  -1.6831583e-01  -3.2655223e-02  -9.5039549e-01   6.7329895e-01   2.4022337e-01   7.0532942e-01  -3.5667374e-01   3.0729986e-01   7.4684463e-01  -9.1009532e-01   6.8547845e-01   5.3949065e-02   5.1265093e-01   6.3575660e-01  -6.0375565e-01  -4.2715459e-01  -4.5518592e-01  -6.2881783e-01  -2.3254639e-01   9.4755032e-01  -5.2956177e-01   8.4956555e-01  -5.9216333e-01   1.8330459e-01  -6.7367317e-01   3.2860939e-01  -9.3632112e-01   9.0031107e-01  -4.6076426e-01   8.9954906e-01  -1.3686648e-01   8.3398559e-01  -7.9297205e-01   5.1594450e-01  -4.8265120e-01  -5.5333425e-01   3.5745161e-02  -5.7107783e-01   4.0533844e-01   7.6911400e-02  -1.3508531e-01   2.2010847e-01   6.3223883e-01  -2.9058167e-01   5.7241567e-01  -5.3856926e-01  -9.1111135e-01   5.6194347e-01   4.0523359e-01   1.7602469e-01  -9.7552447e-01  -7.8001156e-01   2.4723975e-01  -5.3165758e-01   1.9716999e-01   4.0038549e-01  -4.2349180e-01  -5.6048738e-01  -5.4684175e-01  -7.3703027e-01  -9.5809110e-01  -2.8706646e-01   7.9416123e-01  -6.2694518e-01   5.4005702e-01   1.3955248e-01  -2.1397892e-01  -4.7155864e-01  -2.5221385e-01  -3.4651661e-01   7.7935806e-01   4.4510905e-01   8.0801130e-01  -9.1751902e-01   2.0115644e-01   6.2590224e-01   5.7689708e-01   9.4283107e-01   1.4446202e-01  -9.2268219e-01   8.2708196e-01  -3.6057685e-01   1.5245078e-01  -9.6405655e-01  -4.9215725e-01  -1.8058029e-01  -7.8140773e-01  -2.0441453e-01  -1.5692759e-01   7.1618462e-01   9.8373080e-01  -6.2923566e-01  -2.2874437e-01  -4.9050523e-01   9.9924524e-01  -4.1751807e-01   7.4072640e-01  -3.0539753e-01  -9.1482092e-02   6.5909607e-01   5.8853744e-01   1.5011097e-01   9.4019866e-01   6.9376715e-02  -9.6399575e-02   9.1714293e-01  -6.0149441e-01  -9.4997494e-01  -3.6065366e-01   1.9042078e-01  -3.7099960e-02  -2.5023839e-01  -3.0610686e-01  -2.1200355e-01   9.8821861e-02  -7.8116849e-01  -7.6259242e-01  -5.1388628e-01   6.1202850e-01  -8.8662830e-01   5.7539440e-01   6.2518706e-01  -1.6623195e-01  -9.0937423e-01  -3.6505937e-01  -4.5641551e-01  -9.1107538e-01  -3.0819525e-01  -4.9748908e-01  -6.6710765e-01  -8.2596213e-01  -6.5016927e-01   6.2983423e-01   5.3756562e-01  -1.0011282e-01   4.1873233e-01  -4.3907069e-01   3.2700724e-01  -5.9264052e-01   4.3955181e-01   6.1498747e-01   9.4028349e-01   6.1893850e-01  -2.3093670e-01   9.7783069e-01  -6.9467908e-01  -4.9510239e-01  -9.8700458e-01   6.7566395e-01  -8.1091687e-01   5.9136229e-01  -9.7449791e-01  -2.1412719e-01   7.4472120e-01   1.2514646e-01  -1.4972872e-01  -8.7992520e-01  -5.0059597e-01  -9.2373165e-01   1.0866924e-01   3.8812923e-01   1.2277128e-01  -5.1314711e-01  -5.3758149e-01   2.5816459e-01   8.0370176e-01   8.5614685e-01   8.8336898e-01   9.9920143e-01   8.3430093e-01   3.5618679e-02  -1.2886213e-01   9.2703966e-01   8.5140924e-01   6.5217204e-01  -7.7684315e-01  -9.1380649e-01   4.0443179e-01  -4.2176365e-01   6.4125044e-02  -3.5693954e-01  -9.8552156e-01  -3.5156681e-02  -6.1838083e-01  -6.1526050e-01   9.4577577e-01   3.8364931e-01   5.2811111e-01   5.5771386e-01  -9.5631761e-01  -2.6363555e-01   7.9162080e-01  -7.8022035e-01   6.3061758e-01  -4.5403887e-01  -4.4995841e-01   9.7854587e-01   4.0499304e-01   1.6445780e-01   9.2871648e-01  -9.1796996e-01   4.7483772e-01  -8.8966754e-01   6.9874343e-01  -4.4896502e-02   6.7260573e-02  -5.3019746e-01   2.7645572e-01   2.4437457e-01  -4.9663225e-02  -8.7666108e-01   8.9189636e-01  -5.2501988e-01  -5.7491100e-01  -4.5438211e-01   4.5005087e-01   5.9113911e-01  -8.8513133e-01  -1.2608848e-01   3.1569557e-01  -4.2487853e-01   2.9536312e-02  -1.4077940e-01  -9.8489949e-01   9.6418581e-01  -4.5584700e-01  -2.3936894e-01   8.1874149e-01  -2.6541004e-01   4.6840980e-01  -3.7388652e-01  -5.2479054e-01  -2.8207988e-01   3.8224523e-01   6.7121940e-01  -6.3952134e-01  -2.2177637e-01   7.2419467e-02  -3.9004161e-01   8.3003839e-01  -2.0973701e-01   1.2483904e-01   8.8808250e-01  -5.8678450e-01   4.5855451e-01  -1.1192876e-01   2.0600046e-01  -8.8345963e-01   7.9236096e-01  -5.9833261e-01   3.3871206e-01  -4.7785264e-01   6.6543101e-01  -6.2644998e-01   5.8127960e-01   8.4994956e-02   5.1076796e-01  -8.2899187e-01   9.4447055e-01   3.8279032e-01  -9.4910313e-02   7.6356164e-01   5.5448138e-01   4.2812652e-01  -1.8374769e-01   3.5567537e-01  -9.6413457e-01   3.2417643e-01  -8.2478170e-01   3.2348830e-01   4.7551165e-01   4.5528892e-01   5.1208118e-01   7.7287771e-01   2.8025897e-01   2.1186271e-01   2.3400691e-01   9.7531454e-01   5.3756532e-02  -2.5024739e-01   4.9501430e-02   6.9495916e-01   2.3379986e-01  -5.3324105e-02   9.3047296e-01  -3.9942523e-01   3.3008065e-01  -9.9288742e-01  -6.2119126e-01   3.3710173e-01  -2.1012709e-01  -6.4362793e-01  -3.8879091e-01  -9.4543341e-01  -1.8319787e-01  -6.5707770e-01   1.8393057e-01  -2.6995334e-01   5.3516732e-01   5.6164866e-01   9.7422206e-01   1.6460110e-02   6.3823513e-01   8.6720551e-01  -5.4590095e-01  -4.8677664e-02  -8.4119419e-01  -8.9853162e-01   7.7911939e-02  -9.9151195e-01   5.4250321e-01   5.6483909e-01   3.2283918e-01  -6.3812426e-01  -4.2620434e-01  -8.4441811e-03  -7.5350187e-01  -3.6832776e-01  -7.0660207e-01   2.7278604e-01  -4.4015696e-01  -5.5560363e-01   1.9403120e-01   1.7068575e-01  -7.8840239e-01  -2.3677769e-01  -5.3778845e-01  -9.3834660e-02   1.7874332e-01   9.6341738e-01   3.9434417e-01   9.5499918e-01   1.6176437e-01   6.1383214e-01  -5.0812475e-01  -1.4041862e-01  -5.0651295e-01  -4.0089769e-01   8.9760238e-01   4.5522158e-01   9.5367219e-01  -3.2017524e-01   5.1751475e-01   1.8116472e-01   6.0268697e-01  -3.1479293e-02   4.1073190e-01   2.8129835e-01   7.5612069e-01   3.6218722e-01  -4.5460347e-01   8.1579835e-01   1.5753440e-01   7.3404981e-01   8.9270159e-01   5.1326024e-01  -5.4601647e-01  -3.3580591e-01   9.0469203e-01   1.5783020e-01  -5.3773394e-01   4.9731786e-01  -9.4666489e-01   5.6309546e-01  -2.1572622e-01  -4.1793130e-01   2.3242916e-01  -7.6299669e-01  -5.2800840e-01  -8.2796928e-01   2.3474035e-01   4.1989576e-01  -4.2216391e-01  -1.6291091e-01  -4.6202770e-01   9.9155420e-01   8.1802326e-01   1.8898403e-01  -2.6573875e-01  -8.8660396e-01  -9.4482841e-01  -3.5570632e-01  -1.1690488e-02   6.5779685e-01  -6.0004963e-01   1.1550055e-01   7.7829713e-01   7.7293429e-01   9.5004762e-01  -3.9755554e-01   1.7700717e-01  -6.2100040e-01   2.2326414e-01  -2.9226839e-01   9.7096617e-01  -6.8408859e-01   5.9229285e-01   8.1005044e-01  -5.1856476e-01  -4.7947292e-01   7.3806533e-01  -2.1287838e-01   2.1482258e-01  -2.9502160e-01   9.8522965e-01   5.7521370e-02   1.6729818e-01  -5.1809316e-01   7.3942386e-02  -3.1178088e-01  -5.1109376e-01   7.4676197e-01  -9.7866131e-01  -4.3324031e-01  -6.9877892e-02   5.6157489e-01  -9.6661806e-01   8.5691237e-01  -6.5417515e-01  -1.1073359e-01  -3.2556974e-01  -7.5136582e-01   2.0302264e-01   4.9635522e-01  -6.2495653e-01   8.2987942e-01  -3.7361442e-01   3.7596752e-01  -8.2407816e-01  -4.6281136e-01   1.5038057e-01  -7.2068648e-01   8.9166473e-02  -9.4897379e-01   8.0506544e-01  -9.1652484e-01   5.2511428e-01   5.1399644e-02   9.0820054e-01  -1.2947793e-01   3.5719600e-01  -1.6502235e-01  -7.5842846e-01  -9.0424537e-01  -3.3679628e-01   2.9083894e-01   5.5588765e-01   6.9986671e-01   1.7240670e-01   4.8430423e-01  -9.0536292e-01  -3.1702595e-01   1.5194619e-01  -2.9886908e-01  -5.8122251e-01  -9.8079571e-01  -6.5700943e-01  -5.8243766e-01   4.8331431e-01  -5.9072283e-02   7.4703770e-02  -3.2494455e-01  -6.2903927e-01  -1.1187614e-01  -4.6028435e-01   9.0412219e-01  -6.5684032e-01  -2.1824713e-01  -3.3678629e-01   8.9660675e-01  -3.9572189e-01   7.3808695e-02   4.7044527e-01   2.6797950e-01  -6.3888798e-01  -8.4881253e-01  -9.6467176e-01  -3.7280862e-01   6.0506387e-01   7.2908452e-01   1.5789124e-01   7.3813320e-01  -3.3343874e-01   3.1724261e-01  -8.1028236e-01   4.4384650e-01  -1.3481388e-01   1.2340491e-01  -2.8871036e-01   7.3157248e-01  -5.9044855e-01   7.2163043e-01  -8.1786284e-01   4.8983055e-01  -1.8818674e-01   2.6054667e-01   4.0949083e-01   1.5164280e-01   8.3909096e-01   1.7224830e-01  -1.6296345e-01   6.3543314e-01  -2.0991622e-01   2.8491156e-01   4.6728500e-01   2.8364239e-01  -7.4024273e-01   5.0113930e-01   3.1634885e-01   2.8612667e-01   4.0723589e-01  -6.5256786e-01   6.7107643e-01   6.8417824e-01  -4.8192816e-01  -9.5433106e-01   5.4222050e-01  -8.7284963e-01   5.6655361e-01  -6.6200409e-01  -6.5345214e-01   8.8851077e-01  -6.8573083e-01   4.6795652e-01  -5.2400773e-01  -9.3108695e-01   4.7016080e-01   2.4561170e-01  -3.6490333e-03   2.1400902e-01  -7.3750104e-01   9.9246753e-01  -8.0894653e-01  -6.5981208e-01   5.2671171e-01  -2.4111304e-01  -2.1907294e-01  -8.0650341e-01  -3.5118404e-01   4.9464408e-01   5.8256011e-01  -7.7133630e-01   2.9605322e-01  -5.6104437e-01   1.6230593e-01  -6.9028609e-01  -2.1714974e-01  -8.0370075e-01   5.6530129e-01   3.8831928e-01   6.2397915e-01  -9.6452714e-01  -2.5894535e-01  -5.9702359e-01
  -3.7704046e-01   8.4221238e-02   6.1675520e-01  -4.9047042e-01  -8.3359242e-01   1.6504682e-01   9.4309295e-01   4.8598355e-01   8.0115286e-01  -9.5014424e-01  -7.2410470e-01   9.0422444e-01   7.2466148e-01   4.5271184e-01   9.2253223e-01   2.0259839e-01  -4.4804677e-01   4.1158182e-01   8.2615694e-01   8.1985278e-01  -6.1548491e-01  -2.5091158e-01  -6.6602728e-01  -9.9047478e-01  -6.6312524e-01   5.7697902e-01   1.0907118e-01  -9.0061924e-01   1.0240463e-02   6.0102875e-01   7.7895216e-01   7.9236084e-01   6.9581346e-01   7.5842140e-01  -4.8189982e-01  -1.5831364e-01   3.3939903e-01   8.8697329e-01   7.2143077e-01   2.4184688e-01  -2.7998225e-01  -8.4599103e-01   9.1677978e-01   5.4878802e-01   6.9586238e-01  -6.6308781e-01  -6.6789423e-01  -3.0622167e-01  -6.0447012e-01  -5.9057680e-01   9.8654310e-01   2.2101633e-01  -3.7551664e-01   9.3546776e-01   5.1561456e-01   5.3482654e-01   6.5949389e-01  -9.4049060e-01   9.2070292e-01   2.1403541e-01   5.4893604e-01   4.2316177e-01   6.8880204e-01  -5.0831178e-01   3.0840697e-01  -3.5172552e-02   1.2204007e-01   9.2550205e-01  -3.5410469e-01   1.7346152e-01  -7.9911608e-01  -9.9572536e-01   7.9295805e-02  -7.4750095e-01  -4.9533429e-01   2.2445719e-01   7.6409347e-01  -1.0468850e-01  -1.8299699e-01  -5.3262654e-01  -8.6022048e-01   8.3948827e-01  -8.4518371e-01   2.8515113e-01  -5.9282334e-01   7.8856979e-02  -8.6418890e-01   7.0034189e-01  -8.7912320e-01  -2.1171765e-01   2.7952891e-01   2.0219046e-01   9.9233258e-01  -5.6479382e-01   4.6391063e-01   5.9615995e-01   5.0490845e-01   6.6454499e-01  -6.2325924e-01  -8.6378817e-01  -1.4574352e-01   1.0279022e-01   5.8244073e-02  -3.3006768e-01   9.1990222e-01  -4.7587742e-01   1.2494292e-01   4.1318106e-01   3.8720176e-01   9.0333347e-01   5.3640090e-01   3.2861945e-01   3.0304134e-01   6.0472163e-01   6.5210475e-01   3.9464941e-01  -7.3494544e-01   6.7568159e-01  -3.6521943e-01  -4.3911990e-01   3.5080254e-01   9.1278181e-01  -6.3258942e-01   7.6885084e-01  -3.6159175e-01   9.3091786e-01   4.4653190e-02  -6.7119400e-01   5.7083903e-02   7.7923383e-01  -1.7526785e-01  -3.8120847e-01  -9.9955868e-01   8.0904562e-01   6.6106039e-01   8.2428062e-01  -4.2624359e-01  -3.8596034e-01   3.0178690e-01   5.6822855e-01   8.0986701e-01  -3.5062345e-01  -7.3252965e-01   1.9358226e-01   1.5564334e-01   2.2268599e-01   5.9096072e-01  -1.8044481e-01  -9.5272430e-01  -6.6407112e-01  -2.4876397e-02  -3.0031058e-01  -3.5188361e-01   2.8639031e-01   2.1200623e-01  -5.1443712e-01   4.3405635e-01   6.5783088e-01   5.1486868e-01  -4.0051008e-01   4.9130913e-01  -6.8126008e-01  -7.0968534e-01   8.3546753e-01   2.7728969e-01  -2.3708872e-01   7.3747602e-01  -2.8355726e-01  -1.4696689e-02   5.6399919e-01  -3.1257177e-01   5.8620219e-01   1.1631825e-01   1.5239683e-01  -8.2096378e-01  -5.9603425e-01  -6.4492789e-01   3.8910215e-01  -4.6571822e-01   1.9287921e-01  -6.0263269e-01  -3.2059225e-01  -6.5993024e-01   6.1420116e-02   1.7033898e-01  -3.9304313e-01  -7.4995473e-01  -4.3375557e-02   1.6678030e-01  -8.6921278e-01   2.3677297e-01  -6.0210562e-01   6.1574487e-01   9.2828190e-02  -3.7646023e-01   6.7734666e-01   4.0802397e-01  -1.9832982e-01  -4.6528865e-01  -8.0501656e-01  -4.2734961e-01   5.3447404e-01   2.3921411e-01  -3.5041485e-01  -1.5953319e-01   2.6614026e-01   7.5164508e-01  -5.7540313e-01  -8.5256402e-01  -7.8801269e-01   8.8007840e-01  -5.0344767e-01   4.4288267e-01   7.1616531e-01  -7.1008327e-01  -2.5786357e-01   4.4734272e-01   7.7920038e-01   7.6402183e-01  -5.7513109e-01  -8.0287432e-01  -3.7283815e-01  -6.2995627e-01   2.0336359e-01   1.3757303e-01   6.5350310e-01   8.7838156e-01   8.6970689e-01  -1.3719327e-01  -2.6781091e-01   9.5307142e-01   7.6138161e-01  -6.9910499e-01   5.1698177e-01  -8.5687183e-01   5.5604515e-01  -5.0634783e-01  -3.1195429e-01   6.4088191e-01   6.6190165e-01  -9.3121481e-01  -3.5764793e-02   2.9522009e-01   8.2267497e-01  -7.2493164e-01   7.7671499e-01   8.5129597e-01   2.9332874e-01   2.5471227e-02   3.9206038e-01  -7.9062155e-01  -1.2589871e-01   1.5310532e-01  -5.8539276e-01   5.4482371e-01   6.3969891e-01  -6.8920985e-01  -7.4737100e-01   3.9612574e-01  -9.0619253e-01  -3.4212256e-01  -3.2965003e-01   6.2339980e-01   3.3488075e-01  -2.6042200e-01   3.1652693e-02  -7.0713421e-01  -6.3525055e-01  -3.5231206e-01  -9.2521210e-01   2.0467286e-01  -9.7655320e-01   2.4153939e-02  -6.8427656e-01  -7.5156402e-01  -2.0035950e-01   5.8230250e-01   9.4365862e-01  -2.4182025e-02  -1.8420569e-01   3.7514529e-01  -2.6370464e-01  -2.5651001e-01   3.8448774e-01   2.6226125e-02   4.9081162e-02   3.4247169e-01  -4.5984421e-01   1.9293888e-01   5.1785473e-01  -9.5544440e-01   1.6524670e-01   4.3768145e-01  -2.2463548e-01  -4.1265129e-01  -6.9834426e-01  -5.4541517e-01  -8.7850750e-02  -8.9374022e-01   1.2625259e-01  -4.8412092e-01   8.7201858e-01   5.4243941e-01  -6.4453789e-01   5.3812784e-01   2.0901675e-01  -2.0658248e-01   3.0765442e-01   5.4064134e-01  -4.8525507e-01   3.4724272e-01  -2.4789812e-01  -7.2420055e-01   4.2033129e-02   5.8501804e-02  -5.6156979e-01   5.2772614e-01   4.7012547e-01  -2.3997151e-02   9.9851349e-01   1.3535365e-01   2.5754502e-01   6.8792310e-01  -4.5708125e-01   1.8353477e-01   8.0311414e-01  -1.9768646e-01   8.0421705e-01  -9.8005314e-01  -3.4427170e-02   6.1462504e-01   2.9843641e-01   4.5926906e-01  -6.3664235e-01  -9.7979490e-01   1.0817721e-01  -1.2952427e-01  -5.4826810e-01   7.2395257e-01   3.8383855e-02   3.3612292e-01   5.8542533e-01  -4.4136612e-01   5.8782898e-01   9.8218713e-01   7.2657388e-01  -6.6864319e-01   4.5720421e-01  -7.3765416e-01   9.7797330e-02   4.4544758e-01  -3.9997907e-02  -1.1123423e-01  -8.7243007e-01   4.4427574e-02  -6.2029828e-01   5.2769170e-01   4.4417517e-01   4.8588413e-01  -1.6815973e-02  -5.7895856e-01   5.8650736e-01  -6.6736685e-01   7.5660396e-01   7.3415405e-02  -4.8536282e-01  -9.7935654e-01   3.7099133e-01  -5.4727080e-01  -6.3925009e-01  -6.6091129e-01   5.7773686e-01  -3.0676277e-01   2.1190573e-01   3.5391116e-01  -8.9670932e-01  -1.9267119e-01   7.1153829e-01  -3.0793529e-01  -9.9649663e-01   5.3214000e-01  -3.1087846e-01  -4.3850815e-01   8.3048359e-01  -2.6838951e-01   3.3140438e-03  -7.0905493e-01   9.3651362e-01   2.3247662e-01   2.0476261e-03   6.2549824e-01   1.4122506e-01   4.1740180e-01  -8.7147583e-03  -1.3548933e-01  -8.4335247e-01  -2.1375968e-02   5.1601553e-01  -2.2237153e-01   8.5776729e-01  -9.7966659e-01   6.7809786e-01   7.9389144e-01  -6.0763087e-02   2.8710883e-01  -6.2000398e-01  -5.9741011e-01   6.3323914e-01  -6.4843605e-01  -2.6006795e-01   3.1931463e-01   5.3198705e-01  -1.6292680e-01   3.8177332e-01   5.9122138e-01  -3.2942312e-02  -6.2040611e-01   3.7344305e-01   4.6922536e-03  -3.7439638e-01   9.5530725e-01   8.0119244e-01  -4.1862377e-02   5.0427159e-01   7.5894995e-01  -3.7995256e-01  -2.7452184e-01   4.7448765e-02   7.6537404e-01  -9.9151677e-01  -6.5596033e-01   5.5865848e-01  -5.3927080e-01   5.0859936e-01   5.5246146e-01  -8.7799094e-01   9.0572652e-01  -9.1020106e-01  -7.8736590e-01   4.5393753e-02  -5.8458862e-01  -5.2248899e-01  -6.6384447e-01   7.6272850e-01  -9.2806275e-01  -8.0495675e-01   7.3784808e-01   3.9750219e-01  -2.9321542e-01  -5.8603386e-01   5.1205208e-01  -7.4415443e-01   3.1828847e-01   6.7920555e-01  -7.1630221e-01   2.5748079e-01   2.5633511e-01  -5.2956267e-01  -6.8638615e-01  -4.3677534e-02  -9.6725339e-01  -6.1796689e-01   8.5046582e-01  -3.0012093e-01  -2.8598780e-02  -3.5287185e-02   6.6138810e-01   6.7199059e-01  -7.1607323e-02   6.6456162e-02  -5.7292909e-01  -1.5566045e-01  -5.5032837e-01   2.6169473e-01  -4.4066444e-01   1.6608921e-01   1.7157511e-01  -8.7932452e-01  -7.7685289e-02   6.6015166e-01  -6.6080504e-01   8.9508429e-01   7.9967282e-01   4.7201191e-01  -8.1813237e-01  -5.7015235e-01  -6.9375417e-01  -1.6307615e-01  -4.8840867e-01  -9.3560567e-02  -4.6723486e-01   8.6525357e-01  -6.1144893e-02  -9.2804223e-01   4.7258878e-01  -5.3086942e-01   4.0205688e-01  -3.8407567e-01  -4.0898115e-01  -9.6878696e-01  -5.1350011e-01  -2.7752153e-01   3.4378712e-01  -4.6768297e-01   8.2819193e-01   2.2725886e-01   9.0466279e-01   8.3385359e-01   8.3171460e-02  -1.5989580e-01   6.8299738e-01   4.9450089e-02  -3.0704425e-01   6.5158875e-01   4.6248130e-02   4.2079434e-01  -9.6567304e-01  -6.2464288e-01   8.9297110e-01  -7.6262435e-03  -1.0448695e-01   4.2043813e-01   7.8169827e-01  -2.3901055e-01  -9.2553405e-01  -4.4830389e-01   1.8965971e-01   2.2714082e-01   1.9486336e-01  -1.5370573e-01   1.4664325e-01  -8.8434411e-01   7.3142100e-01  -3.6097499e-02   9.7391649e-01  -6.0181461e-01  -5.5894291e-01  -7.6964362e-01  -1.3686202e-01  -4.0659113e-01   6.4655078e-01  -6.1362032e-01  -9.5365380e-01   1.9255793e-01  -3.3214108e-01   1.6772664e-01  -1.2449015e-01  -9.1745623e-01   8.1670544e-01   2.0510517e-01   2.6733164e-01   9.5383795e-01  -5.7333717e-01   6.6857712e-01   2.9590364e-02  -4.8296951e-01   3.8578973e-01   9.1059335e-01  -1.4023443e-01   6.9973337e-02   7.0793736e-01   7.7665714e-01  -8.7050473e-02   4.0902784e-01  -2.6414562e-01   2.3347560e-01   7.7229012e-01   2.9395357e-01   1.7268752e-01  -8.4672301e-01  -1.1778768e-01   4.1638129e-01  -2.1266484e-01   4.3987612e-01   5.4773342e-01  -8.2718025e-01   1.9795068e-01   1.5329154e-01   6.3241639e-01   7.8722197e-01  -5.4771874e-02   1.3794484e-01  -7.5357308e-01  -8.7383901e-01  -8.7106322e-02   1.2743853e-01   2.4956807e-01  -8.0526264e-01  -5.6909647e-01  -4.7551615e-01   6.4666595e-02   5.6420846e-02  -1.3430388e-02   5.8036364e-01   3.0007642e-02   2.1998967e-01  -9.6801535e-01   8.0817883e-01   4.9514979e-02   5.3349484e-01  -4.3322486e-01   5.6672352e-01   5.4621542e-02  -2.4286129e-01  -6.6541284e-01   5.2700360e-01   3.7759758e-01  -9.5846176e-01  -5.0914828e-02   4.5660971e-01  -8.6958210e-01   4.0681931e-01  -1.3769267e-01  -1.5600012e-02   2.7935256e-01  -1.7897160e-01  -4.8330772e-01  -3.3008635e-01   2.3099653e-01   6.1614793e-01   3.1949169e-02   2.0246836e-02  -6.8589734e-01   4.4374232e-02   9.6397658e-01  -9.7363949e-01  -9.9195478e-01   6.0264011e-01   7.6480096e-01  -7.3061903e-01   5.0019436e-01   3.9923329e-01  -3.3193997e-01  -9.6049086e-01  -6.7586637e-04  -1.4777087e-01  -7.5616876e-01  -3.3902390e-01   8.9857983e-01   8.9699104e-01  -8.1049400e-01   7.9887606e-01  -4.1047948e-02  -1.8153988e-01   2.3857206e-01  -3.8071723e-01   2.4007443e-01   4.6221637e-01  -6.5672824e-01   2.2579308e-01   7.5681128e-01   8.4524324e-01  -1.6152188e-01   4.5620167e-01  -5.4408377e-01   5.7971827e-01  -3.6036862e-01  -6.3536886e-01  -1.3613404e-01  -3.8682809e-01   8.5728511e-02  -9.2972017e-01  -6.1239081e-01   3.4581655e-01   3.4032979e-02   3.8141797e-02  -6.2717585e-01   9.1540372e-02  -7.9192113e-02   2.6938456e-01  -4.5043467e-01  -1.8527742e-01  -4.6614010e-01   6.5667524e-01   5.4802803e-01  -3.8235570e-01   4.3036908e-01   1.1171839e-01   5.1993865e-01   8.4318669e-01   4.3651322e-01   1.8920335e-01  -8.0124905e-01  -7.4123679e-01  -2.4618175e-01   4.0088084e-01   5.4582273e-03   3.0945002e-01   5.7906481e-01  -8.8353077e-01  -8.7885666e-02   5.4601138e-01  -5.3964005e-01   2.4128148e-01  -5.3945171e-01  -2.4729254e-01  -5.8390969e-01  -2.8931243e-01   1.8506813e-01   7.5113370e-01  -9.2820071e-01   8.7156835e-01  -2.6021945e-01   8.4744801e-01  -1.9919207e-01   6.4518790e-01   2.7962298e-01  -4.6558269e-01  -8.2989330e-01   3.8139433e-01  -5.6316951e-01   6.6533016e-02  -2.9269891e-01  -5.0827829e-01   5.2738342e-01  -7.3227893e-01   4.0631876e-01  -9.2907627e-01   9.3015068e-01   8.9963613e-01  -7.5852795e-01   9.3604170e-01   2.1692955e-01   9.4333318e-01   2.0756371e-01   2.8595990e-01  -4.9347177e-01   8.6576792e-01  -8.3405226e-01   8.3567367e-01   6.9694592e-01   9.1230107e-01  -8.2777146e-01  -9.3189322e-01  -5.0973455e-01   9.2933334e-01   2.0631836e-01  -2.7512080e-01  -4.7788039e-01   7.3347667e-01   6.4815497e-01   7.4445830e-02  -6.1090112e-01  -2.8288397e-01   6.1627964e-02  -8.7554575e-01  -9.2118414e-01  -6.0840744e-01   1.5162562e-01  -7.2731753e-02   6.1807508e-01   3.3230201e-01  -2.9235065e-01  -5.1724049e-01   3.6263709e-02   6.0557010e-01  -6.9084792e-01  -7.9014092e-01  -7.9832299e-01   6.6451510e-01  -4.0403369e-01   5.4177014e-01  -5.3335735e-01   3.2650881e-01   9.7045779e-01  -7.8249922e-01   1.6314979e-01   5.1364436e-01   4.4338637e-01   9.3157453e-01  -3.7320208e-01   4.7916177e-01  -9.1446497e-01   5.5162619e-01   5.0921865e-01   1.1598625e-01  -6.1718115e-01   7.2655455e-01   2.0252961e-01   1.1286851e-01   4.2018650e-01  -3.6557581e-01   8.4759272e-01  -6.7738626e-01   1.6707833e-01   8.0311307e-01   6.9972131e-01  -2.1543526e-01   9.9291506e-01  -1.5205034e-01   8.6138245e-01   9.1672844e-02   5.5713513e-01  -5.6887295e-01  -5.4130896e-01  -5.8512460e-01   9.9891066e-01  -2.7822678e-02  -4.3009769e-01   1.0937367e-02   7.2583305e-01  -9.5977619e-01   2.4029050e-01   1.1627744e-01   4.3286571e-02   6.0476520e-01  -8.8185777e-01  -6.1939877e-01  -2.8914437e-02   3.5356802e-01  -5.3979948e-01  -1.1979392e-01   9.9820668e-01   5.7603210e-01   4.6152951e-01  -5.6916159e-02   7.1993031e-01   4.5536325e-01  -3.7114758e-01   8.2794508e-01  -6.9475989e-01  -1.2694852e-01  -5.7628367e-01  -6.3519748e-01  -5.9215421e-01  -3.7504634e-01  -8.0167372e-01  -4.1938562e-01   3.2343810e-01   1.3439943e-01  -3.8462537e-01   2.2933310e-01  -8.8444797e-01  -2.1632499e-01   4.3682454e-01   1.4968400e-01  -1.1086546e-01  -5.4475438e-01   6.2003615e-01   4.0018313e-01   2.5360470e-01  -1.5365968e-01   3.8136007e-01  -2.9968537e-03   4.0270762e-01   5.9931345e-01   3.8206481e-01   3.5707238e-01   5.9594008e-01   6.8472784e-01   9.9537336e-01   1.3724908e-01   6.0344279e-01  -8.0849757e-01   4.2362069e-01  -3.0981956e-01  -7.7681269e-01   4.1179461e-01   7.4978890e-01  -7.2768540e-01  -3.6974769e-01   8.2006712e-01   3.9970687e-01  -6.5381603e-01   1.1060351e-01  -7.8637108e-01   9.3300393e-01  -7.0587777e-01   6.9280488e-01  -9.1576605e-01   2.6883990e-01  -3.8995170e-01   2.5499743e-01   2.9476028e-01   6.1667170e-01  -6.2791671e-01   2.3643721e-01  -2.5218725e-01   2.9468675e-01   3.3945964e-01  -9.8969470e-01  -5.7405448e-01  -7.4345165e-02  -5.6766502e-01   8.6044876e-01   3.2231149e-01   9.2760636e-01  -7.4369220e-02  -6.4606515e-01   7.6365808e-01  -7.4696634e-01  -6.5365456e-01  -5.6371791e-01  -8.5606971e-01   8.5495489e-01   2.7972060e-01  -4.4450117e-01   7.9107548e-01   1.8198069e-01  -3.0014620e-01  -1.8759413e-01  -9.6261081e-01  -3.8597267e-01   6.5238836e-01   9.4133734e-01  -7.7156291e-01   6.3677850e-01   2.5913327e-01  -5.9064402e-01   9.6660257e-01  -5.2275247e-01  -7.1801649e-01   6.0553488e-01  -5.6772901e-01  -9.2986667e-02  -1.3835947e-01   1.1564009e-01   9.9715969e-01   3.4617991e-01  -8.4449434e-01   4.8564165e-01  -8.1857172e-01   7.2964563e-01  -9.1693023e-01  -6.3378412e-01   2.0387292e-01  -7.3278132e-01  -7.7818225e-02   4.3123886e-01  -5.6222004e-01   5.2934960e-01   7.7992681e-01   7.5889455e-01   7.2399502e-01   6.2967212e-01  -9.1879507e-01  -5.0174333e-01  -7.4278742e-01   9.1925462e-02   3.9237098e-02   2.3392005e-01   6.7324612e-01   6.2395213e-01  -8.1231072e-01   1.4073437e-02   7.1625288e-01   8.9499885e-01  -1.1832200e-01  -3.6837222e-01   1.6595326e-01  -3.1425038e-01  -3.4479679e-01   9.1787725e-01   1.5942807e-01   4.9022829e-01   8.1388667e-01  -7.9809683e-01  -3.2993839e-01   1.1911816e-01  -9.3724968e-01  -9.5591985e-01  -2.8433170e-01  -3.7283673e-01   5.9524911e-01   2.5753845e-01   5.2268116e-01   8.7688057e-01   4.4593178e-01   7.9422220e-01   1.8657824e-01  -5.1396272e-01  -2.6119413e-01  -5.7358735e-01  -6.3850010e-01  -4.5875400e-01  -1.5826721e-01   9.4880088e-01  -2.0709698e-01   6.8743511e-02  -7.4865039e-01   1.4620126e-02  -6.3553719e-01  -5.9402134e-01   1.2045056e-01  -9.7860544e-01   7.5189439e-01  -7.4031118e-01  -9.0817391e-01   8.0198118e-01   3.4121404e-02  -8.6279112e-01   6.3688957e-01   6.1811389e-01  -1.8115654e-01   7.5233126e-01   9.1991436e-01  -5.6832748e-01   5.3840196e-01  -2.7204796e-01  -7.0256305e-02
  -1.5925355e-01   9.4766237e-01  -5.8042130e-01   3.1279152e-01  -2.9058035e-01   2.3858392e-01  -7.2534901e-01  -2.1983921e-01   6.5713529e-01  -9.9037359e-01   1.9923461e-01   8.3253273e-01   4.5546231e-01   9.8067864e-01   4.4532499e-01   9.8714631e-01  -4.1207449e-01   1.4858505e-01  -6.0884132e-01  -5.6015987e-01   6.5751745e-01  -9.5623509e-01  -7.8253738e-01  -2.7384847e-02  -4.9846500e-01   2.1566652e-01  -1.5617051e-01  -6.2264998e-02  -1.5231560e-01  -8.2108493e-01   1.2343861e-01  -2.9839837e-01  -6.4332270e-01  -4.5623210e-01  -5.0788996e-01  -4.4929907e-03   2.9819163e-01  -4.7882120e-01   8.4227574e-01  -2.6195713e-02   6.8415543e-01   5.0251923e-01  -5.1393826e-01   6.0573475e-01  -6.3353615e-01  -7.6990821e-02   7.9478751e-01   7.3294547e-01   9.2050618e-01   6.7766133e-01  -6.0199188e-01   5.5505910e-01  -2.2657733e-01   4.2661112e-01   3.5843810e-02   2.1048725e-01   3.6409385e-01   1.6931740e-01  -5.9159170e-02   8.2324984e-01  -6.9979508e-01  -9.4470292e-01  -6.9089640e-01  -7.1029937e-01   6.9030377e-02  -3.9569914e-01  -4.0673362e-01  -8.5821874e-01  -2.2338678e-01  -3.1988676e-01  -3.3592964e-01  -7.5243471e-01   5.9920722e-02  -1.3496273e-01  -2.4082198e-01  -7.9287813e-01   5.4423977e-01   7.5403531e-01   9.6024447e-01   2.4064296e-01  -6.9723218e-01   5.4559070e-01  -3.3635998e-02   9.5142882e-01  -5.7974521e-01  -4.9738326e-01  -8.9648343e-01   3.8248837e-01   3.6593838e-01   9.9951484e-01   8.0694458e-01  -3.5235917e-01   9.0307099e-01   6.6414636e-02  -1.1154232e-01  -3.9928053e-01  -7.8577082e-01  -3.8099433e-01   1.5864478e-01   2.9922975e-01  -4.6442749e-02  -2.8840286e-01  -6.4225685e-01   6.6319148e-01   6.4323824e-03   1.4554528e-01   3.9074906e-01  -4.1846691e-01  -7.4086356e-02  -4.6437063e-01   5.0644336e-01  -3.3518011e-01  -9.2681793e-01  -9.0273866e-02   2.8353315e-01  -3.5601972e-01  -3.2461242e-01  -1.0046613e-01   9.6506609e-01  -1.0282795e-01   9.4861191e-01   4.2751787e-01  -3.6300493e-01   3.0525833e-01  -7.2504565e-01  -5.0101868e-02   9.2105920e-01   1.8337568e-01  -5.8023112e-01  -9.3427691e-01  -6.9449670e-01  -5.7866178e-01  -9.7248979e-01   4.6060417e-01   3.9425688e-01   6.3455585e-02   5.0741310e-01  -8.5662889e-01   1.7999695e-01   6.4348998e-01  -5.7393686e-01   4.4295144e-01  -5.4955192e-01  -3.8517958e-01   9.7651677e-01   4.7774508e-01   6.9773306e-01  -2.0748687e-01  -3.3301668e-01   7.6599768e-01  -6.8934162e-01   5.2714354e-01  -5.0157356e-01  -4.6232463e-01  -4.3381432e-01   4.1763192e-01   8.1145762e-01   4.2139989e-01   6.4058259e-01   9.2779674e-01   3.5502251e-01  -4.4943585e-01  -3.9330521e-01  -5.7358030e-01   8.0392080e-01   1.8697229e-01  -8.0037871e-01  -4.9540283e-02  -8.0846349e-01  -3.0867576e-01  -2.2967036e-01   9.2276940e-01   9.9129257e-01  -9.0885672e-01  -6.9450825e-02   9.1601440e-01   4.5102237e-01   8.1820991e-01   6.7945757e-01  -7.0148046e-01   9.6016151e-01   3.6383861e-01   6.8799282e-01  -7.2487693e-01  -1.1423355e-01   3.8065208e-01   7.8747321e-01   3.9147551e-01  -2.0533644e-01  -6.4732153e-02  -4.6091791e-01   8.1807672e-02  -6.2851139e-01  -5.4140080e-02  -1.2804676e-01  -7.2034267e-01   4.8787079e-01   6.1023271e-01  -6.2669736e-01   2.5038575e-01  -4.3814360e-01   3.2513631e-01  -7.8643022e-01   1.3795626e-01   4.0488288e-01  -4.1448172e-01  -2.1160688e-01  -6.7454632e-01   1.0733723e-01   4.8580023e-01  -4.9577970e-01  -1.2324575e-03  -8.9289160e-01  -8.6877464e-01  -4.0304275e-01  -9.7369260e-01   6.3103480e-01   9.6853079e-01  -4.3026786e-01   9.0551746e-01  -5.3454832e-01  -3.1649561e-01  -2.5690622e-01   5.0867326e-01  -9.5898360e-01  -6.4405570e-01  -8.4550502e-01  -8.3611893e-01  -7.5704461e-01  -2.2984581e-01  -1.3786430e-01   5.0568036e-01  -7.0874965e-01  -2.5252555e-01   8.5228892e-01   4.3693244e-01   8.5428695e-01   7.0697859e-02  -7.7960446e-01  -4.6641868e-03  -6.3989962e-01  -7.0912492e-01  -8.3734662e-01   5.9619948e-01   7.7394462e-02  -7.1250331e-01  -7.3670639e-01  -7.9657359e-01  -3.2127015e-01   5.8821372e-01   4.7865951e-02  -6.2880066e-01   8.0933491e-01  -5.0195532e-01   2.4189686e-01  -6.1058846e-01  -8.9141223e-01  -1.1228158e-01  -5.2026855e-01  -9.5417489e-01   2.2171618e-01  -2.0372937e-01   4.2429321e-02  -2.6861384e-01   3.7134382e-01   3.7080273e-01  -9.5890806e-01   4.2427838e-01   1.3991492e-02   4.8464461e-02  -1.0294791e-01   7.6454531e-01  -1.4234611e-01   6.3058445e-01  -1.7176873e-01  -5.9152721e-01  -3.7436916e-01  -1.5063637e-02   9.3553705e-01  -8.2637779e-01  -8.8628037e-01   5.1928473e-01  -9.0534872e-01  -3.4637995e-02   7.6181776e-01   2.1899038e-01  -8.9426236e-01  -6.3846647e-01   2.2788193e-01   5.9808296e-01   7.6912791e-01   3.6665637e-01   8.8483508e-01  -7.2064967e-01  -2.0152249e-01  -8.5486742e-01   1.7436478e-01   8.9984865e-01  -4.0088636e-01   5.6856417e-02  -2.2821430e-01   8.5915542e-01  -5.7948831e-01  -7.9153251e-01  -3.7331123e-01  -5.1077329e-01   2.6901609e-01   7.4631025e-01  -1.9638886e-01  -6.2141426e-01  -7.9266210e-01   9.6458861e-01  -8.0538361e-01   6.6959795e-01   4.9045008e-01   4.4260785e-01   5.4468842e-01   6.8594959e-01   4.0730305e-01   7.3689005e-01  -1.3715237e-01   5.0841862e-01   1.1655609e-01   2.4020734e-01   8.0568070e-01  -9.0249688e-01   5.2556771e-01   7.0601568e-02   4.1230188e-01   7.1850061e-02   3.5612031e-01   6.6681202e-01  -9.0660951e-01   7.6298487e-01   6.0935344e-01  -2.8531796e-01  -5.8283566e-01   7.8415668e-01  -4.4973917e-01  -8.0404207e-01   1.8046048e-01  -2.3138743e-01   5.4665737e-01   6.8070831e-01   9.9060920e-01   7.6371876e-01  -9.6285563e-01   9.8151041e-01  -2.9551425e-01  -7.2851387e-01  -5.0942722e-01  -4.3471972e-01   2.8670053e-01   7.1032573e-02   1.2935941e-01   6.9263558e-01   2.7371567e-01   1.2431019e-01   8.6528942e-01  -6.0621373e-01   8.6250213e-01  -8.8095975e-02   3.4534490e-01  -1.9009568e-01  -2.8382918e-01  -8.3444985e-01   6.4244415e-01  -6.2072827e-01  -7.4045176e-01   2.7801822e-01  -1.0916164e-02   5.7946423e-01  -7.0037918e-01   3.9354446e-01  -5.8825460e-01   9.8299893e-01   9.3800268e-01   5.8705592e-02  -6.1642394e-02   7.7126012e-01  -9.2750133e-01   2.1229383e-01  -5.1364090e-01  -9.0020065e-03  -7.9601429e-01  -2.7113255e-01  -5.6834378e-01  -4.5097520e-01   9.6356350e-02   3.0094854e-02   5.8424794e-01  -9.9310887e-01   7.5430396e-01   2.7055054e-01  -4.9787229e-03  -2.1160951e-01   1.6584922e-01   3.5656456e-01   9.6999572e-01   1.5296629e-01   1.6899506e-01  -7.8292637e-01   5.2748923e-01  -4.8782054e-01  -4.9752777e-01   4.9360405e-01  -4.2871306e-01  -3.6823363e-01   7.7355760e-01   1.3892945e-01   5.2060755e-01  -5.9258767e-01   8.4444774e-01  -3.2880967e-01   5.4012285e-01  -1.9148987e-02   6.0066292e-01   1.1343128e-01   9.7611023e-01   1.2935802e-01  -1.2791861e-01   8.5638919e-01  -9.3927979e-01   6.7418567e-01   2.8034707e-01  -8.0322289e-01   9.2275708e-01  -4.1925017e-01   4.8030749e-01  -5.5107526e-01  -6.7212888e-02  -8.2148821e-03  -5.8472636e-01   3.8845812e-01   8.0876929e-01   4.2079482e-02   3.8465576e-01  -9.2314192e-01  -2.0616751e-02   8.0240514e-01  -7.4499172e-02   8.0596210e-01   2.9680653e-01  -5.3634664e-01   2.3773336e-01   3.8761478e-01   8.4451413e-02  -5.4761120e-01   5.6532370e-01  -9.2236087e-01  -9.3314067e-01   1.9034804e-01  -2.3811261e-01   7.1617167e-01   9.9965083e-01   6.1876534e-02  -3.1728702e-01   4.4415520e-01   1.3454708e-01  -1.7685331e-01  -5.0616764e-01  -1.4196709e-01   3.3878813e-02   6.9464000e-01  -9.8960938e-01   9.4818830e-01   8.6961531e-01   4.2109756e-01   7.1903385e-01   1.1502031e-01  -2.9548989e-01   5.3265458e-01  -7.6961295e-01  -9.0951340e-01   9.6512217e-01  -6.5896604e-01   4.8886346e-01   4.3070678e-01  -3.2491642e-01   2.5499964e-01   5.6386589e-01   4.3568210e-01   6.5604356e-01  -6.5916838e-01  -2.3740020e-01  -9.3372974e-01  -6.1982118e-01  -5.8695712e-01   1.5511612e-01   8.4628841e-01  -7.8245374e-01   3.5000079e-01  -7.2950747e-01   7.5718855e-01   3.5171310e-01  -2.1335829e-01   5.2036876e-01  -3.8391023e-01   6.7049757e-01   4.8008669e-01  -4.4909074e-01  -6.9780080e-01   4.2667121e-01   6.0943343e-01  -4.6707107e-01  -2.4537160e-01  -1.3980344e-01   8.0315897e-02   3.3060389e-01   5.1444061e-01   8.5442370e-01  -8.8539772e-01  -6.2099002e-01  -9.3212614e-01   7.4359354e-01   5.6773119e-01   6.9895026e-01  -8.5287303e-01  -2.5688235e-01  -8.0004338e-01  -5.6855464e-01   4.5869464e-01  -9.1348877e-01   5.4932521e-01  -1.8598541e-01   1.5894671e-01   8.3239766e-02  -3.9735649e-02  -6.4525554e-01   4.2784305e-01  -8.9150799e-02  -7.2272922e-01   5.5169684e-01   6.3650491e-01  -7.3942752e-01   7.5711191e-01   7.2576424e-01   1.9371277e-01   5.3711965e-01  -5.5902957e-01  -8.5596110e-01  -6.1459579e-01   1.5178308e-01   8.8021199e-02  -1.4980439e-01  -1.2743490e-01   6.1427168e-01  -7.9201883e-01  -7.8234362e-01  -7.5396479e-02  -8.4543365e-01  -1.8026167e-01  -4.9809923e-01  -1.4375396e-02  -2.2795516e-01  -6.3593370e-01   3.0312269e-01   4.0099383e-01   8.8174161e-01  -4.3597505e-01  -3.9508784e-01   7.9012060e-01   8.2779553e-01  -2.3575807e-01   4.6669364e-01   4.5712331e-01   1.8093968e-01  -4.2342459e-01  -8.9310721e-01  -2.8882706e-01   9.4370515e-02  -3.5112221e-01  -8.9189050e-01   1.3295292e-01   5.7317690e-01  -6.3271280e-01  -6.1413101e-01   4.1382709e-01  -4.5352608e-01   6.0649759e-01  -9.5916495e-01  -4.0927732e-01   5.4492218e-01  -7.9082730e-01  -9.4436331e-01   2.4805011e-01  -8.2155056e-01   4.5771295e-01  -5.3010614e-01   9.1902649e-01  -1.1760567e-02   6.1799325e-03   9.2320934e-01  -1.8810591e-01   4.7204532e-01   1.6038291e-01  -2.5028175e-01   2.3410210e-01   2.1131668e-01  -1.4171510e-01  -5.4877163e-01  -2.8439740e-01  -1.6893577e-01  -3.8947348e-01  -2.8251997e-01   9.5009334e-01   5.8382299e-01  -1.9109232e-01   1.9423309e-01  -9.5996868e-01   2.3848904e-02  -9.8449774e-01  -5.5737804e-02   8.3482392e-01  -7.8328646e-02  -3.8581438e-02   1.9659174e-01   6.7184804e-01  -8.9476929e-01  -6.7323787e-01   2.2532309e-01  -5.4137799e-01  -3.8105114e-01  -5.6121235e-01   6.7464230e-01   8.4723236e-01   8.6982192e-01   1.2585510e-01  -6.2134218e-02   6.6110525e-01  -2.1537074e-02   6.1653983e-01   4.6383405e-01   7.3295610e-01  -3.3302040e-02   3.2741311e-01   5.9827224e-01  -3.4499725e-01   8.6181977e-02   9.8132127e-01   5.6056886e-01   9.1470916e-02  -2.0236567e-01   7.7687424e-01   4.7369280e-01  -1.5459548e-01  -6.6607137e-01   9.1895910e-01  -9.3083290e-01  -4.5350085e-01  -6.7381094e-01   2.8076004e-01   5.1015196e-01  -9.8430442e-01  -1.1444552e-01   7.7319270e-01  -2.3960726e-01   2.9920998e-01  -2.9245799e-01  -2.6894409e-01  -8.7640533e-01   4.1721316e-01   2.1907752e-01  -6.8211468e-01  -4.4846545e-01   9.3241618e-02   3.6145848e-01   4.6209682e-01  -1.2548382e-02   8.5146117e-01   8.3878224e-01  -5.2666362e-01  -9.4787400e-02   1.6418654e-01  -6.5417055e-02  -6.6971887e-01  -1.8220507e-01   2.3791368e-01   5.7395984e-01   8.2031564e-02   3.8419486e-01   5.0088679e-01   9.6387714e-01  -9.2642586e-01  -7.5227417e-01   1.7720380e-01   5.5711541e-01   6.7278301e-01   5.6857628e-01   8.6955152e-01   4.9855550e-01  -7.5633498e-01  -8.8430033e-01   2.8507977e-01  -2.4591345e-02  -5.7234593e-01   8.1966635e-01   6.8795676e-01  -5.6407607e-01  -5.3504420e-02   9.9531240e-01   5.1249476e-01   9.3245748e-01   2.1547094e-01  -4.9648191e-01   3.0412440e-01   9.9163162e-02  -7.3993432e-02  -4.8380066e-02  -3.4462710e-01   6.1362788e-01   5.9057425e-01  -8.0815887e-01  -3.9111471e-01  -6.8376448e-01   7.0737150e-01   7.6360201e-02   9.5076808e-01   3.6396877e-01   5.1114385e-01  -5.4691301e-01  -4.0025065e-01  -8.2842752e-01   6.5575060e-01  -4.9191306e-01   5.0336848e-01  -2.4554386e-01  -9.8686485e-01  -2.0706327e-01  -5.4885300e-01  -7.2782299e-02   6.7804958e-01  -6.9887182e-01   4.0514614e-02  -9.7067315e-01   7.5577695e-01  -4.1809208e-01  -6.0753534e-01   4.7249121e-01  -4.2967546e-01   3.5952763e-01  -9.7373921e-01   6.1236897e-01   8.7750643e-01  -5.0421697e-01  -5.1225244e-01  -4.7798734e-01  -6.1586007e-01   5.2245261e-01  -8.4801352e-01  -8.3120452e-01  -3.6718621e-01   8.0267694e-01  -2.3829548e-01   9.4317417e-01  -4.9561250e-01   8.6857878e-01  -3.5204985e-01   6.8065467e-01   6.1665112e-01  -6.0361407e-01  -4.8227125e-01   4.9229588e-01  -9.9003269e-01   2.5741184e-02  -9.2286416e-01  -6.5842976e-01   1.9926621e-01   2.6055024e-01   7.5360544e-01  -1.2796408e-01   4.8536275e-01   4.1637395e-01   6.7862739e-01   2.2717400e-01   7.6556913e-01  -5.4269810e-01   7.1055612e-02  -4.9170246e-01   2.6018432e-02   8.5034978e-01  -5.8238667e-01   8.8249070e-01   3.5225709e-01  -8.8088632e-01  -5.0641447e-02   9.9816331e-01   8.0770022e-01   9.6838306e-01  -2.4568847e-01  -7.6541036e-01  -6.1888913e-02   7.4746631e-01  -8.4548701e-01   9.9623585e-01  -3.3628549e-01  -9.6765335e-01   8.3072425e-01   2.7335612e-01   7.9386187e-01  -8.8572294e-01  -8.8946131e-02  -2.2428682e-01  -9.1884986e-01   1.6876800e-01   5.1884129e-01  -4.0611722e-02  -9.9335200e-01  -3.6179064e-01  -4.3469232e-01  -2.1356678e-01   6.2855242e-01  -2.1243163e-02  -7.0244379e-01   2.0127790e-01  -1.8882859e-01   6.1335369e-01  -9.1749941e-01   2.4187593e-01   7.8619183e-01  -8.0879378e-01   1.8356836e-01  -2.2851760e-01  -2.0456166e-01   8.8776541e-01   8.0776969e-01   4.1658175e-01   1.5116261e-01  -2.7849016e-01   5.7060408e-01   1.4505832e-01   8.0705302e-01   5.6920400e-02   3.1140251e-01  -8.0518640e-01  -6.4635925e-01  -7.8781745e-02  -5.9272161e-01   7.4211776e-01   5.3903409e-01  -6.9759457e-01  -9.5467950e-01   8.0075866e-01  -1.1509180e-02   3.3571674e-01   4.3196587e-01   7.9819228e-01   3.4297313e-01   6.0238630e-01  -8.3405323e-01   2.0522044e-01  -9.9218524e-01  -9.5533549e-01   7.5590142e-01   7.3848121e-01  -4.6127618e-01   1.6760849e-01   5.3699194e-01  -6.2961503e-01   9.5999653e-01   9.9530375e-01   7.9235668e-01   9.0620799e-01  -6.7593652e-01   5.9613347e-01  -8.5476470e-01   1.2448955e-01  -6.8832942e-01  -4.3551894e-01  -4.5680876e-01  -5.7754911e-01   7.8454432e-01  -3.0779299e-01  -4.5845972e-01  -6.4629821e-01  -9.4641976e-01  -4.3687383e-01   1.1527880e-01  -7.4629124e-01  -5.0657978e-01  -3.1236498e-01  -2.1759505e-01  -5.8912866e-01   5.3806433e-01   1.4383175e-01   2.4908288e-01   1.5309002e-01   7.5202002e-01  -2.8885045e-01  -6.7987530e-01   3.2391688e-01   8.0670767e-01  -6.5866896e-01  -5.1846892e-01   8.4223624e-01  -5.8227722e-01  -9.6233653e-01  -9.2537398e-01   6.1002305e-01  -7.7098199e-01   2.9918616e-01  -8.6242630e-01  -9.8819694e-01  -6.0853371e-01  -8.6943240e-01   4.1808738e-01  -9.2280318e-01   5.7668384e-01   9.9438821e-01   3.6613924e-01   1.1759962e-01  -5.3576779e-01  -9.3603973e-01  -8.6329255e-01  -5.5084315e-01  -9.4010078e-01   8.0287749e-01  -6.3107371e-01  -8.6779491e-01   6.1390411e-01   7.6291046e-01  -4.2967598e-01   4.6108813e-02   3.5657039e-01  -5.1967025e-01  -5.6359467e-01  -5.8655908e-01  -5.4691476e-01   7.9416491e-01  -7.1090572e-01   5.7816545e-01   5.1044396e-01  -9.1625859e-02   4.3821326e-02   5.3208027e-01  -5.2458800e-01   4.4351010e-01   7.4480875e-01  -9.9917679e-01   7.1398673e-01  -2.4064372e-01   5.1300474e-01   9.9699929e-01   5.3360802e-01   5.7008830e-04  -4.1295231e-01  -7.7437689e-01  -5.6302990e-01  -7.2223405e-01   5.6924584e-01   4.2735804e-01   8.9919949e-01   4.5955484e-01   7.4226349e-01   6.8801691e-01  -5.2281098e-01  -7.4286360e-01   7.4457007e-01  -5.4674702e-01   4.8183880e-01   5.7214314e-01  -4.1394989e-01   4.6006753e-01   5.4430347e-01  -7.7707839e-01  -3.2423961e-01   9.8964922e-01   8.4282733e-01   4.3111881e-01  -1.8223547e-01  -1.9907053e-01  -1.0562542e-01   9.1525898e-01  -5.4089999e-01  -1.8278012e-01  -1.0214381e-01   8.5827174e-01  -9.7419349e-01   9.9692097e-01   2.9317444e-01  -4.9652784e-01   4.7996183e-01  -9.1979780e-01   1.2493577e-01   1.3074947e-01  -9.7394774e-01  -4.3056221e-01   4.0151524e-01   8.9854984e-01  -4.4726131e-01  -3.8791715e-01   3.3730885e-01   4.2714740e-01  -1.7948929e-01  -5.0243214e-01  -9.4846513e-01  -1.3137075e-01  -6.1634290e-01   2.1382139e-01   4.5816727e-01
  -9.8677234e-01   5.5343637e-01  -2.0464417e-01  -9.6673181e-01   7.0452914e-01   3.3812635e-01  -9.9845266e-01   5.4741078e-01   8.1719282e-01  -7.8603385e-02   5.5415257e-01  -8.7157977e-01  -7.1936488e-01   2.3444638e-01  -2.1084648e-01  -3.5965738e-01   2.0633916e-01   5.6091056e-02   4.9123828e-01   5.8310930e-01  -1.0008173e-01  -1.9952560e-02  -2.7562645e-01   8.1183338e-01  -5.1263280e-01  -5.1275226e-01   2.1857574e-01   3.5188239e-01  -4.2255477e-02  -6.2255521e-01   2.4951289e-01   3.2584558e-01   5.5585218e-01  -5.2367145e-01  -1.5620815e-01   5.7855405e-01  -3.4742980e-01   1.2437456e-01   7.2570623e-01  -2.2156726e-01   7.5524082e-01   3.3901686e-02  -6.0234973e-01   2.9357143e-03   6.4896201e-01   3.7685579e-01   9.0727514e-01   5.3640306e-01  -5.8658496e-01  -1.5631117e-01  -9.9656997e-01   3.6390109e-01  -7.7502347e-01   6.5363559e-01  -1.1688572e-01  -3.9096086e-01   8.1464178e-01  -8.1867448e-01  -6.7958346e-01  -6.5763644e-01  -3.5903307e-01   6.1533969e-01  -3.4765125e-02  -8.9295635e-01  -2.7752811e-01   2.4477409e-01  -2.7669824e-02  -8.2136192e-01  -8.2085009e-01   8.2000176e-01   5.8133661e-01   6.9300478e-01   3.8240241e-01  -6.3412826e-01  -1.6550556e-01   7.3708628e-02  -2.4814032e-02   7.2150664e-02  -6.4800355e-02   7.1520967e-01  -3.0806610e-01  -5.4722090e-03  -2.3324736e-01   9.6717946e-01  -7.0447649e-01   6.3265097e-01   1.9153752e-01  -2.9144086e-02   2.4238723e-01   5.2246643e-02  -5.1460211e-01  -8.5720831e-01  -8.3752936e-01   7.4026807e-01   2.0471093e-01   2.4828950e-01   5.7508844e-01  -6.7156626e-01  -9.1099351e-01  -8.0652915e-01  -1.1690127e-01  -9.4522910e-01  -2.3935752e-01   1.4872003e-02   7.7432054e-01   8.8164084e-01  -5.6878512e-01   3.4479622e-01   1.2192616e-01  -3.9429555e-01  -8.1142623e-01  -8.4453349e-01  -5.0411215e-01  -7.5622597e-01   1.4639462e-01  -3.6538644e-01   3.0869308e-01   5.9923075e-01   9.8353247e-02  -2.6169018e-01  -5.6187811e-01  -3.5184693e-01   5.4983029e-01  -3.7967058e-01  -1.6512348e-01  -3.8486316e-01   6.9993179e-02  -9.8669120e-01  -2.6162250e-01   6.1619485e-01   8.8094456e-02   2.5902450e-03   1.2118972e-03  -3.0680755e-01  -6.8163266e-01  -2.6220110e-01  -3.4860174e-01  -4.6602822e-02  -7.4461071e-01  -3.1426300e-01   8.2579920e-01  -7.0119318e-01   7.0981604e-02  -7.1405090e-01  -6.3627437e-01  -3.3901724e-01  -4.9086920e-01   3.5839520e-01   6.2704365e-01   9.5797088e-01   9.0159291e-01   9.8828412e-01   9.2942168e-01   9.4033884e-01   8.8444655e-01  -4.2964685e-01   5.7573103e-01   4.6804440e-01   4.5031995e-02   2.8843567e-01   8.1327663e-01  -1.0628691e-01  -7.2840816e-01   1.5375138e-01   6.8193311e-01   4.9276094e-01   6.3931826e-01   1.5718810e-01   6.2608352e-02   4.0435048e-01  -3.2453372e-01  -3.1267970e-01  -3.5204579e-01  -1.4188949e-01   6.6021468e-01  -7.6474389e-01   7.8391902e-01   5.9866959e-01  -6.6474157e-01  -7.1651289e-01  -9.1720683e-01   9.2516402e-01   1.4636953e-01   5.9543277e-01  -5.1294299e-01  -3.3723856e-01   3.9927718e-02  -4.0361039e-01   5.5244522e-02  -5.4722001e-01  -1.9229690e-02   3.3014312e-01   4.3851329e-02   8.0415133e-01   2.8539590e-02   8.7970912e-01   1.4888278e-01   4.8492478e-01  -6.5222176e-01   4.1197014e-01  -7.2079194e-01  -5.8674688e-01   8.9318163e-02   2.1202941e-01  -6.1058189e-01  -7.2009199e-01  -4.4108885e-01  -3.0124703e-01   1.4591599e-01  -9.9446960e-01   4.9910898e-01   9.0406675e-01  -5.4666848e-01   1.6470478e-01   5.8100421e-02  -8.8963281e-01  -4.4212105e-01  -5.2953553e-01  -7.1605556e-01   9.0245041e-02  -7.4079711e-01   5.3166650e-01  -5.2068606e-01   6.8613395e-01  -7.3696034e-01  -8.6622288e-01   1.7773877e-01  -8.6552588e-01   4.6342809e-01   2.6212656e-01  -9.8258276e-01   4.3358333e-02   6.9364217e-01  -7.3382023e-01   7.8218562e-01  -2.6753591e-01   6.1256172e-01  -4.2133910e-01  -4.9407848e-01   3.8623026e-01  -7.3552640e-02  -4.1616717e-01  -8.0957686e-01  -5.0220159e-01  -6.0391944e-01   4.9497706e-01  -3.1849807e-02  -9.2876470e-01   6.5113076e-01   3.3918527e-01  -9.0707461e-01   3.5891774e-01  -5.6254786e-02   8.0994668e-01  -9.6985818e-01  -7.0778736e-01   8.0495047e-01  -8.5118582e-01  -5.6170397e-01  -2.8698321e-01  -1.8063727e-01  -7.1698393e-01  -8.8077981e-01   5.7165675e-01  -2.6506486e-01   1.2432518e-02  -7.0411861e-01   4.3436870e-01  -1.6861607e-01   9.8529685e-01   4.5526545e-01  -3.3974891e-01  -9.4667624e-02  -6.8107578e-01   9.9488402e-01   9.0875069e-01   5.4287981e-01  -6.5781235e-01  -9.1442616e-02  -1.4258845e-01  -9.9344975e-01  -5.5838041e-01  -7.1776587e-01   4.6585180e-01  -9.4832572e-01   1.4174697e-01   1.5788966e-01  -9.3041271e-02   1.8991036e-02  -5.7500941e-01   2.6584905e-01  -3.0361376e-01  -2.9240580e-01  -9.0005339e-01  -1.7758613e-01   9.7822720e-01   5.1897732e-01  -1.0013668e-02  -8.0214214e-02  -4.8581669e-01  -6.2500781e-01  -1.2816359e-01  -4.3997329e-01  -8.0228953e-01  -6.4313244e-01   6.9036432e-01   2.2340476e-01   2.3742033e-01  -9.8411574e-01   8.4298167e-03   5.5341960e-01  -6.1479135e-01   9.8296400e-01   3.2393668e-01  -5.7015124e-01   6.6396814e-01  -5.4629646e-01   7.4191506e-02   6.4647447e-01  -1.2878785e-01  -8.2287912e-01  -7.5412010e-01  -4.2891785e-02  -3.2550764e-01   9.9565244e-01  -1.6532036e-01   6.2890846e-02  -7.0175398e-01  -3.0107669e-01   4.6941174e-01  -8.6415486e-01   9.9410999e-01   1.2956588e-02  -2.3615670e-01  -2.0979010e-01   3.3972845e-01   5.0036052e-01  -2.0081058e-01  -7.2290896e-01  -2.3731953e-01   3.8777489e-01  -9.5281246e-01  -7.6503710e-01   4.3206778e-01  -7.8939546e-01  -9.8943569e-01   9.6368256e-01  -2.9845441e-01  -1.8689618e-01   1.0033730e-01   6.5304478e-01  -3.6190245e-01  -3.7008574e-01   3.0692148e-01  -2.9061894e-01   1.1856904e-01  -7.6699891e-01  -4.6729418e-01   5.9858819e-01   9.0656760e-01   8.1877485e-01  -1.7972838e-01   9.9515671e-01   8.4367224e-01   2.0270195e-01  -5.2104093e-02   1.4742735e-03  -6.4354276e-01   2.2453676e-01  -6.7623602e-01   7.6874520e-01   2.2623748e-01  -2.3976426e-01   2.0408259e-01   4.9512838e-01   4.6084645e-01   5.3721827e-01   4.5815812e-02  -1.1105137e-01  -9.9016269e-01  -7.7990174e-01   6.6419339e-01  -6.1876167e-01  -9.7335305e-01   1.9487308e-03  -1.4532636e-01  -5.3802601e-02   6.4989741e-02   4.2042925e-01   2.9252336e-01  -4.0320339e-01   1.2431948e-01   3.5783956e-01   6.7426680e-02   3.4038205e-01   1.3899648e-01   5.1871902e-01  -3.1851179e-01  -1.8110146e-01  -1.4027749e-01   5.6293396e-01  -7.0643199e-02   5.0383863e-01   1.2861764e-01  -2.2816907e-01  -5.9923631e-01   8.2849682e-01   7.0120804e-01  -7.4903806e-01  -3.5095594e-01   7.6520514e-01  -9.8422254e-01   6.9808076e-01   9.1652728e-01  -6.8008735e-01  -5.3933131e-01   3.0690359e-01  -1.3264627e-01  -7.0612935e-01   7.9483216e-01   4.4145402e-01   4.3525374e-01  -7.8619008e-01   1.7470213e-02  -2.1752508e-01   1.2519135e-01   8.0895768e-01   4.4795732e-01  -5.4679158e-01  -9.7021305e-01   5.6419025e-01  -1.7898753e-01  -3.9369099e-01  -9.8516447e-01  -3.5559915e-01  -9.7435093e-01  -9.8007330e-01   9.0432745e-01   9.3410974e-01   5.8141284e-01  -1.8718283e-01   7.8465849e-01   9.2683573e-01   8.5501037e-01   1.0483543e-02   5.4633004e-01   7.9702876e-01   9.1578883e-01   4.8912824e-01  -8.1282353e-01   3.6196523e-01  -9.2507742e-01  -2.7249748e-01   8.6011215e-01   5.4831692e-01  -5.1712390e-01   1.5636662e-01  -3.9141137e-01  -2.5964645e-01  -6.9732700e-01  -6.1482958e-01  -8.0926195e-02   3.1086778e-01   4.5004355e-01   8.7246088e-01   9.8690924e-01   7.7998641e-02  -2.5866730e-01  -3.2803131e-01   7.5413060e-01  -5.8986614e-01   5.2615197e-01   3.3161353e-01  -2.6629030e-01  -9.5845798e-01  -7.5393773e-01  -5.1623811e-01   2.0643269e-01   1.7327120e-01  -7.1520424e-01   1.1159260e-01   7.3310175e-01   9.9787526e-01   6.8639007e-01   4.8844022e-01   6.7175548e-01   3.7871440e-01  -4.8417644e-01  -2.0229148e-01   4.8018113e-01   8.4057092e-02   2.8809629e-01  -3.1120600e-01   9.6276473e-01   4.8535649e-01  -2.1746530e-01   7.3611294e-01   3.1277188e-02  -5.4787395e-01   7.8749790e-01  -7.5087301e-01   5.1314159e-01  -7.9396487e-01   8.6711467e-01  -9.3602394e-01   4.5494780e-01   6.9617283e-01  -8.5566353e-01  -7.5692574e-01   1.9546119e-01   2.4924189e-01   3.8871372e-01   7.5378933e-01   1.7263166e-01  -4.8247263e-01  -1.7915056e-01  -8.5576673e-01  -4.9432693e-01  -9.9785676e-01  -9.4404160e-01   2.5505033e-01   1.1616266e-01   9.3973552e-02   8.2156228e-03   2.6112577e-01   1.8273619e-01  -8.0046711e-01   4.2461407e-01   9.1494463e-01  -8.4765067e-01  -4.8912137e-01   2.1069193e-01   3.6424668e-01  -4.1964048e-01   7.3412655e-01   9.7768365e-01   2.0467924e-01  -8.4804639e-01   8.3903042e-01  -3.2068724e-01  -6.2960602e-01  -2.8049283e-01   6.6726710e-01  -5.5647146e-01  -4.7090124e-01   4.8114916e-02   7.8267022e-01  -9.0901840e-01   3.2068615e-01   4.5605432e-01   3.8391514e-01   2.1330870e-01  -3.1542354e-01  -7.7113508e-01   3.0944834e-02  -9.7627683e-01  -1.6591572e-01  -4.7103968e-01  -9.5279637e-01   3.3026096e-01  -7.4919443e-01  -7.7082425e-01   1.5124764e-01   6.6965464e-01   3.8441407e-01   4.5066913e-01   6.2762653e-01   9.5472877e-01   9.7650551e-01   7.9997738e-01  -1.0648408e-01  -9.5388096e-01  -2.4888166e-01  -1.0978085e-01  -4.9026958e-01  -9.0469782e-01  -6.4768510e-01   3.2173736e-02  -7.8542347e-01   4.6802102e-01  -4.7374345e-01   1.3016268e-02   2.4429919e-01   4.0270614e-01  -5.0384832e-01  -5.2613825e-01  -6.3125227e-01   2.1090499e-01  -7.3135068e-01  -9.4880163e-01  -9.3334411e-01  -3.9961994e-01  -7.8448796e-02  -8.1179047e-01   4.5794039e-01  -4.2391289e-01   2.8200361e-01   8.4714969e-01   5.9201889e-01   2.2376792e-01  -9.3149708e-01   9.9420935e-01   1.4283030e-01   3.2232064e-02  -2.5519990e-01   1.6061387e-01  -2.2913875e-01  -8.7444257e-01  -2.7150222e-01   2.8578222e-01   2.6221110e-01  -4.4678987e-01   4.1172961e-01   7.1211748e-01  -3.4379487e-02  -5.2543147e-01  -2.8469298e-01  -7.3598672e-01  -3.1579595e-01  -6.5283522e-01   4.0567817e-01   9.2691707e-01  -8.3879036e-01  -5.4802907e-01   2.9506139e-01  -6.2113778e-01   4.4781416e-01   9.5128127e-01  -7.2358615e-01  -6.7351603e-01  -8.1976612e-01   8.1204336e-01   8.6047091e-01   4.1928833e-01   6.4040898e-01  -2.8341135e-01  -6.3990990e-01  -6.6391317e-01  -3.7728781e-01   7.7002910e-01  -5.4071228e-01   2.4916638e-01  -4.8950096e-01   8.3198147e-01  -3.8955921e-01  -3.4697520e-01   7.3296524e-01   9.7465435e-01   6.1765074e-01   5.3164402e-01  -8.9099095e-01   1.8296425e-01  -9.2433356e-01  -7.4317381e-01   7.9478811e-01  -6.3323345e-01  -1.0952663e-02   5.6711528e-01   4.3203787e-01   5.1548532e-01   5.7464180e-01   2.2054060e-01   4.2346848e-01  -2.3423043e-01  -7.5396156e-01  -7.3934743e-01  -7.8388121e-01   2.3580471e-01   6.7835821e-01  -4.7779798e-01   3.9520039e-01   7.6798617e-01  -3.1361723e-01   6.4639801e-01   9.4229259e-01   8.6662627e-01  -4.0946082e-01  -4.0248071e-01   8.7412757e-01  -1.0370966e-01   2.7742606e-01   3.9052285e-01  -5.2880525e-01  -4.4788017e-01  -9.8558926e-01  -2.8567174e-01  -9.4506229e-01   4.6137220e-01   8.9011783e-01   9.7622126e-01  -1.7635183e-01  -2.6297141e-01  -7.1595392e-01   6.7322728e-01  -4.2438832e-02   8.5146669e-01  -2.6395678e-02   9.4500967e-01  -8.2021963e-01   9.6912108e-01  -7.3366686e-01   6.7414186e-01   5.7959502e-01   7.4928388e-01  -7.5100999e-01   6.2430823e-01  -3.1750688e-01   4.0279756e-01  -1.1788281e-01  -7.6213598e-01  -9.2044886e-01   1.3695372e-01   3.1405861e-01   7.0685446e-01  -9.5917269e-01  -4.0449407e-01  -5.9622102e-01  -3.9925440e-01   8.7782533e-02   8.2185754e-01  -3.4324972e-01   3.7766637e-01  -8.1822441e-01  -9.2842172e-01  -2.9656475e-01  -4.5490697e-01  -4.0438041e-01  -3.3678618e-01  -1.1120743e-01  -2.3129183e-02   3.8933728e-01   4.8883869e-01  -1.4332532e-01  -6.2997413e-01   8.5665569e-01  -4.7963662e-01   5.1258784e-01  -1.5015737e-01   2.6834614e-02   1.1031081e-01  -1.4274832e-01  -9.1423311e-01   9.0904217e-01  -3.5587314e-01   2.7521889e-02  -8.1766863e-01  -2.2415643e-01   2.4326478e-03   4.9552338e-01   9.2512452e-01  -5.9572731e-01   5.1398443e-01  -2.3335845e-01   8.3348893e-01   7.9680302e-01  -4.7830521e-01  -6.1667397e-01  -2.4287519e-01   4.9691904e-01   8.5586368e-01   4.0592425e-01   5.4638021e-01  -3.6117124e-01  -8.7972875e-01   3.8905748e-01   7.6165160e-01  -6.4269884e-01  -4.7986898e-01  -4.2427428e-01   6.3128636e-01   3.0182526e-01  -2.2006621e-01   2.9635957e-01   4.4085654e-01   6.4546519e-01   2.2140271e-01   7.2427015e-01   6.0897720e-01  -7.7219315e-01  -9.7391902e-01   6.8660331e-01   4.1084329e-01  -4.8718767e-01  -1.7204538e-02  -2.6538232e-01   8.8029036e-01   5.3704674e-01  -5.2726145e-01   3.6629655e-01  -3.3481459e-01   8.0952750e-01   2.9818423e-01  -1.7679346e-01  -5.5348974e-01  -8.1063265e-01   8.0038137e-01  -2.8150759e-01   8.6503628e-01  -7.0171567e-01  -3.7912176e-01  -6.6586563e-01   5.2055186e-01   9.2645315e-01   8.7770872e-01   8.2334451e-01   2.7679023e-01   5.4048954e-01  -9.9737155e-01   6.0157990e-01   7.7835234e-01  -5.8488962e-01  -9.9725463e-02   7.7589194e-03  -1.6425748e-01   6.5675277e-03  -3.5234117e-01  -1.4548336e-01   6.4352855e-02   4.5471802e-01   8.4933137e-01   4.1831244e-01   3.8054426e-01  -8.9153745e-01  -4.2973217e-01  -3.4247145e-01  -8.4193198e-01   2.5371313e-01  -3.3695947e-01  -7.0280228e-01   5.6655093e-01  -4.3341034e-01  -8.1194111e-01   5.0460895e-01  -4.4015061e-01  -7.4302795e-01   7.7490136e-02   9.8902827e-01  -2.9244732e-01  -6.8386082e-01   7.8475215e-01   3.0816005e-01   8.9413672e-01  -8.1999083e-01   1.0666557e-01   5.2948784e-01  -1.7368267e-02  -1.7833482e-01   1.5220744e-01   4.5173723e-01   2.2804076e-01   9.1486386e-01  -9.4529134e-01   8.6711674e-01   3.5694039e-01  -9.4810650e-02  -3.1080574e-01  -5.6953209e-01  -6.0325599e-01   5.0595165e-01  -3.9705344e-01  -9.5377860e-01  -6.8352367e-01   2.9292276e-01   7.8379851e-01  -5.4737247e-01  -7.1758989e-01  -3.2831124e-01  -6.4222237e-01  -8.9926657e-01   6.6918642e-01  -5.3952931e-01  -4.0969261e-01   6.3774028e-01   2.9802696e-01   8.3330238e-01  -2.2759159e-01   8.7081408e-02  -6.7324910e-01   5.1996152e-01  -7.2923622e-01  -3.7284823e-01   8.2775784e-02   9.8043958e-01   7.5573218e-01   2.0600812e-01   7.1438808e-01   9.2077235e-02   5.3386597e-01  -2.9996921e-02   9.5625361e-01   9.3331683e-01  -8.2809916e-01  -3.2290200e-01   6.3978929e-01  -2.9785948e-02   6.3761928e-01  -8.6603413e-01   4.4719525e-01  -6.3738483e-01   9.3353568e-01   2.2112645e-01   7.5801137e-01  -9.9165624e-01   5.1530233e-01  -5.4165681e-01   5.8025717e-01  -2.3635967e-01  -6.2689701e-01   4.9944671e-01   5.5240661e-01   3.5958605e-01  -3.3367499e-01  -9.2598656e-02  -6.9176599e-01  -6.2033209e-01   5.7998619e-01   5.5901232e-03   6.8102623e-01   2.8945010e-01  -6.0525916e-01  -7.9161700e-01  -7.5175573e-01   4.7119716e-01  -5.3115881e-01  -5.3856886e-01  -8.7884692e-01  -7.9816603e-01  -3.4954164e-01   4.8973350e-02  -8.2558298e-01  -1.6841886e-01  -8.7283189e-02  -5.1134674e-01  -8.1795289e-01   9.3553591e-01  -8.5095332e-01  -1.8419877e-01   9.5998179e-01   8.5269920e-01   3.3441469e-01   6.8345287e-01   5.6981569e-01  -2.1237058e-02  -2.3816286e-01  -9.7089727e-01   4.7913857e-01   5.8711213e-01   4.6875622e-01   5.0657767e-01  -4.1114082e-01  -9.9164369e-02   2.6805864e-01  -6.5468784e-01  -4.5706344e-01  -4.8260865e-01   5.7092703e-02  -9.5032515e-01   8.9812404e-01   2.0260776e-01   8.9015757e-01   3.6385671e-01  -3.5870164e-01  -8.5929914e-01  -1.1494124e-01   4.6794695e-01  -1.0823703e-01  -1.1840803e-01  -7.9780171e-01   8.5027049e-01  -2.1689932e-01   9.8873994e-01  -7.2306547e-01  -7.7545373e-01   6.5463879e-01  -6.1762143e-01  -1.2545816e-01   5.5414109e-01  -5.8034506e-01  -4.0270373e-01   7.2122426e-01   4.3243602e-01  -7.8911082e-01   2.6695481e-01   8.1095860e-02   2.8435223e-01  -5.1179980e-01   1.8991452e-01  -3.6221241e-01   6.8491900e-01  -8.7268313e-01  -9.3896352e-01  -9.4938431e-01   5.3253041e-01  -7.4094244e-01   9.3229830e-01  -2.8411547e-01   8.8323981e-01   2.2147406e-01   6.8088584e-01  -5.6398606e-01
  -1.0265066e-01   6.9704162e-01   6.8059849e-01  -7.0637964e-01  -9.5890655e-01   1.3912690e-01  -5.2313451e-01  -2.8182361e-01  -3.1169926e-01   8.7748308e-01  -1.1731660e-01   2.2965417e-01  -2.2379222e-01  -5.1608902e-01  -5.6365914e-01   5.6818946e-02   8.9274835e-01   7.5007986e-01  -5.3965625e-01  -6.3065876e-01  -2.1391662e-01   8.3260782e-01  -8.1949337e-01   3.9657163e-02   1.7998439e-01   2.2120762e-01   4.8196371e-01   2.0032229e-01   8.2438708e-02  -3.3067729e-01  -9.0491125e-02   3.7786516e-01   8.5915329e-01  -4.1304536e-02   7.1827955e-01   8.4795923e-01  -1.8851199e-01  -2.6935780e-02   5.7792903e-01   6.9145098e-01  -9.2150479e-01  -1.5266497e-01  -6.4007338e-01  -2.6731013e-01  -4.0141555e-02  -6.8756286e-01   2.9567908e-02   4.9373004e-01   1.2744315e-01  -7.4807556e-01   7.7515555e-01  -8.3732406e-01   2.8648133e-01   4.2471909e-01  -1.3350865e-01  -2.7435880e-01   1.5671670e-01   8.7984180e-01   9.2711125e-02   9.3022081e-01   4.9430347e-01   1.0730510e-01  -6.5158271e-01  -5.5799619e-01   4.3809434e-02   6.3327858e-01   4.2252666e-01   2.8202052e-01  -1.2712162e-01  -6.3568692e-02  -8.0935361e-01   5.3551590e-01   9.4027011e-01  -6.2654927e-01   9.3255369e-01   9.2832730e-01   8.9307991e-01   8.1351934e-01   4.7178106e-01  -8.6124630e-01   2.0106880e-01  -6.2697296e-01   5.0676173e-01   3.5187839e-01   2.9630919e-01   9.3226945e-01   9.4501614e-01  -6.0272281e-02   3.4981751e-01  -9.2412540e-01  -7.6820611e-01  -3.8917320e-01   5.9437979e-01  -7.3293632e-01   3.6488456e-01  -2.9081496e-01  -3.0663690e-01   9.7294142e-01  -4.4255700e-01   1.2679473e-02   9.5709100e-01  -9.2855302e-01   7.4795780e-01   2.8981384e-01   3.1318653e-01   8.8264351e-01   6.7282113e-01  -4.4711992e-01  -4.4579542e-02  -3.5517759e-01  -5.7774368e-01   4.6562324e-01  -8.2396893e-01   4.7015463e-01   4.0713393e-01  -5.5679063e-01  -4.6021201e-01   9.6231033e-01  -6.1172603e-01   5.5595564e-01  -4.3642411e-01  -1.7614376e-01  -4.6964695e-01  -5.3099736e-01  -9.3206169e-01   3.0735404e-01   1.4840857e-01   5.4584926e-01   7.0795802e-01  -4.3569404e-01   5.7347566e-01   3.1563598e-01   3.0046293e-01  -6.9783985e-01  -7.4500751e-01  -8.3699969e-02  -8.7705952e-01   7.9128312e-01  -6.6970070e-01  -8.1841041e-01   1.3269172e-01  -5.5903808e-01  -2.0632020e-01   7.2686484e-01   3.6221238e-01   8.4460194e-01   9.5577681e-01  -2.8539304e-01   7.9049634e-01   1.1617574e-01  -6.1569966e-01   7.4695606e-01   4.1486853e-02  -2.0214605e-01  -9.3716132e-01  -4.0857099e-01   4.8911745e-01  -3.7188397e-01   1.4467499e-01   3.1999402e-01  -4.4105570e-01  -2.1748737e-01  -3.0483939e-01   9.0548266e-01   5.9112652e-01  -1.7723993e-01  -2.4312719e-01   8.4242028e-01  -3.0645790e-01  -4.3754698e-01  -4.9965375e-01   6.4742309e-02  -1.2507014e-01  -2.1064327e-02   4.3999192e-01   9.2308166e-01   8.3542848e-02  -4.5260079e-01   3.9717535e-01  -9.6839023e-01   7.3965654e-01  -2.5171578e-01   4.7527943e-01  -9.5946133e-01  -7.2180109e-01   6.3404616e-01  -7.1814387e-01  -6.3335421e-01   8.5753996e-01  -4.9768438e-01   2.5594968e-01  -8.2731937e-01  -5.6149495e-01   6.4723120e-01   3.4666328e-01   6.2852759e-01  -5.6688457e-01   6.9173040e-01   9.8526906e-01  -2.2966568e-02   7.2244574e-01  -9.0895286e-01  -7.5066750e-01   7.2550588e-01   1.0809943e-01  -8.0256446e-01   3.0547750e-01  -4.3254821e-01   3.2645118e-01  -5.9093565e-01   9.2246852e-01   9.5933229e-01  -9.9462097e-01   2.1921697e-01  -6.7199132e-01   1.6047813e-01  -1.5979565e-01  -7.9657062e-01   5.4611438e-01   6.8171885e-01   7.7255718e-01  -2.1555499e-02   1.1751642e-01   2.2052547e-01  -7.5695657e-01  -6.6250598e-02   4.9210534e-01  -6.0451756e-01  -6.1859127e-01  -7.3105221e-02   1.0771549e-01  -4.7180845e-02  -2.8063120e-01   5.3320212e-01  -4.4032100e-01   5.4497329e-01   1.8494400e-01  -5.9615243e-01  -1.4846450e-01  -9.0754439e-01  -5.9182709e-01  -6.0728489e-01  -3.2913843e-01  -4.4810381e-01   1.6718356e-01  -4.1637832e-01   5.5322478e-01   3.5650340e-01  -3.6840610e-01  -7.3631114e-01   6.5190340e-01  -8.6751972e-01  -4.1744436e-01   7.5234955e-01   9.4478570e-01   9.2453599e-01   9.3184709e-01  -6.5525073e-01  -3.2100586e-01   6.9620153e-01  -5.0723625e-01  -2.2850078e-01   1.5184309e-01   9.2850120e-01   3.5220993e-01   5.4041464e-01   2.9882143e-01  -2.4450133e-01   8.8785685e-01   3.2843524e-01  -1.7534327e-02   5.1452472e-01   6.5897591e-02   9.3947504e-01  -6.5725400e-01   3.0257046e-01  -9.8104458e-01   3.8545263e-01  -8.1867573e-01  -3.0619387e-01  -6.0175359e-01   3.3831962e-02   6.6683574e-01   2.3007320e-01  -6.5135830e-01   1.9816937e-01  -4.9180723e-01  -5.7855374e-01   4.9342789e-01   5.7020633e-01   6.4585047e-01   2.2483454e-01  -2.9609244e-02   1.4836215e-01  -8.3184418e-01  -4.1127829e-01   9.5739842e-01   3.0032175e-01   4.2336800e-01   4.5973929e-01   4.1233375e-01  -8.1318052e-02   7.0149115e-01  -8.4937642e-01  -5.1183469e-01  -9.9810548e-01  -9.1590332e-01  -1.7832328e-01   3.2671107e-01   3.9953697e-01   7.3041589e-01  -9.4345942e-01   6.8813165e-01  -8.9702684e-01   3.1032325e-01  -8.5337983e-01  -3.8297889e-01  -5.4040951e-02   9.5070775e-01   6.7299422e-01  -1.0458630e-01  -3.9386575e-01  -9.4529220e-01  -2.4788481e-01   6.9040763e-01   6.5530820e-02  -9.0981316e-01   2.1435578e-01  -1.9072797e-01   5.5475954e-01  -1.2057316e-01   9.1470954e-01  -1.7062801e-01  -5.5155367e-01  -6.9855742e-01  -1.8270491e-01   8.1073719e-01   4.3434459e-01  -5.0164967e-01   7.0570631e-01  -8.1315148e-01  -7.4265358e-01  -1.7851037e-01   6.3347213e-01  -7.5848693e-01   2.3895041e-01  -8.2661995e-01  -8.5211749e-01   1.0525110e-01   9.8521866e-01  -3.1414305e-01  -2.9933083e-01   1.2349914e-01   1.4105660e-01  -2.8561876e-01   2.6502538e-02   5.6627662e-01   1.7666259e-01   8.7858553e-01   1.6042138e-02   6.6746484e-01  -6.8110113e-01  -8.2019197e-02   5.7705540e-01  -2.8034800e-01   6.5227102e-01   4.6322639e-01  -1.6935591e-02  -4.2729314e-01   9.2406283e-01  -3.3978938e-01  -9.2271060e-01   3.2652616e-01   9.0575755e-01   3.5980248e-01  -1.3651085e-01   9.1423002e-02   8.1000795e-01  -9.8183447e-01   9.0934559e-01   2.6800771e-01   8.5865053e-01  -9.3702029e-01  -9.6405674e-01  -4.2576234e-01   5.8059880e-02  -2.1181608e-01  -8.9558385e-01  -8.7207094e-02   7.3133353e-01  -6.4326010e-01  -1.4981416e-02   8.3947248e-01   9.4105910e-01   6.0028020e-01  -3.6666661e-01   8.6997865e-01  -9.9719349e-01  -9.0618231e-02  -2.8307512e-01  -1.9935103e-01   3.4997920e-01   3.1971814e-01  -8.9067704e-02  -2.3074309e-01   2.2081167e-01  -2.8730529e-01  -2.8483202e-01  -5.9810085e-01   6.9413014e-01   9.2690173e-01   2.2110492e-01  -5.3501159e-01   7.5329902e-01  -9.0849581e-01  -8.9419129e-01  -5.1038802e-01   6.2907939e-01   5.4169569e-01   5.8500714e-01   9.0848137e-02   8.3219769e-01   2.1959689e-01   3.6576933e-01  -3.4581162e-01  -3.5683786e-01   6.0544866e-01  -1.7832006e-01  -4.4893281e-01  -3.1576904e-01  -3.7930736e-01  -5.3004950e-01  -9.5027372e-01  -8.8928037e-01  -5.6390484e-01   9.0163588e-01  -5.2188550e-01   6.8288543e-01  -8.6737358e-01   7.2538819e-01   4.6881037e-01   6.7644693e-01  -7.3603450e-01   6.8261905e-01   4.5887099e-01  -5.2971357e-01   7.9118858e-01   4.2392503e-01  -1.3817898e-01  -5.9190645e-01  -9.0569270e-01   1.7978499e-01  -5.8775918e-01  -8.9450591e-01  -7.5201551e-01   8.2941363e-01   7.8817004e-01   9.3831683e-01   5.5348965e-03  -1.0887063e-01  -3.7046492e-01   8.9157781e-01  -2.7020032e-01  -8.4764154e-01  -5.5953678e-01   6.3126034e-01  -6.7747929e-01   5.7883049e-01  -9.4306687e-01  -5.1687912e-01   8.6049631e-01  -4.6927270e-01   7.7930988e-01  -8.5747231e-01  -7.7262961e-01   8.2455699e-01   9.9182250e-01   8.8134438e-01  -6.1118161e-01   6.0368312e-01  -4.0334242e-01   5.8476155e-01  -4.7263217e-01  -8.8144850e-01   1.9256030e-02  -9.9772963e-01  -3.3509014e-01  -3.3668171e-01   4.7846340e-01  -2.9235945e-01  -3.3049202e-01   2.7900617e-01  -9.4567944e-01  -5.5718290e-02   7.8938951e-01  -9.8169113e-01   8.5267280e-01  -1.5616518e-01  -8.3143168e-02   1.1343164e-01   4.6001636e-01   9.2601416e-01   4.6941014e-01  -5.0725215e-02  -2.5136323e-01   5.2556246e-01   4.4109281e-01  -3.3540914e-01   3.7364633e-01  -2.5750810e-01   3.3178902e-01   7.3504107e-01   5.3032241e-01   5.0138303e-01  -7.8352142e-01   1.7866009e-01   4.0643542e-01  -6.5420218e-01  -8.4991855e-03   6.7296956e-01   6.7855628e-01  -3.1387842e-01   2.6306718e-02  -9.7762777e-01   2.7136014e-01   7.2979931e-02   8.6138564e-01   1.0160956e-01  -9.3559572e-01   8.9937714e-01  -7.3254860e-01   9.2744654e-01  -8.9341536e-01  -2.8417553e-01  -8.3150562e-01  -3.4970207e-01  -3.7806481e-01   2.4836704e-02  -6.1686867e-01   2.4270164e-01  -6.7873526e-01   6.9412094e-01  -3.9457838e-01   8.1876053e-01  -7.6881249e-01   8.5687845e-01   8.9502978e-01   3.6626140e-01   2.8114508e-01  -8.1792653e-01   1.8811051e-01   1.6577068e-01   4.4225760e-01   6.9328479e-01  -2.4868567e-01   6.2461605e-01  -4.1988071e-01   6.3790857e-02   5.1698813e-02  -3.0531928e-01   5.2084915e-01   4.4488486e-01   4.1132077e-01   6.0644181e-01   5.0803631e-01   5.1350608e-01  -2.3450461e-01   9.3712590e-01   4.1021104e-01  -1.3637267e-01   7.6851874e-01   4.5082302e-01   2.9064508e-01   5.6562114e-01  -4.1278668e-01  -2.4843312e-01  -3.7582566e-02   9.5104171e-01  -7.2353903e-01  -3.5344730e-02   3.8437503e-01  -3.8378718e-01  -2.7161233e-02   8.2616394e-01  -5.6017556e-01   3.8238638e-02   2.7481070e-01   3.7156174e-02   7.4940714e-01   3.4329203e-01  -1.8725314e-01  -3.8695354e-01   2.9452811e-01  -8.2654641e-01  -5.6724100e-01  -1.1148443e-01  -5.5938450e-01   5.1107498e-01  -8.4259160e-01   5.7509351e-01  -3.8942641e-01   7.1087786e-01   5.4862066e-01   6.1394125e-01   8.0214402e-01  -8.5872642e-01  -8.6565019e-01   1.0502978e-01  -7.6174601e-01  -2.9955553e-01  -3.8505685e-01   1.2503542e-01   4.8493159e-01   9.0481446e-01   7.5950165e-01  -6.8288484e-01   2.4326614e-01  -5.1150062e-01   1.6468425e-02  -2.5579338e-01  -6.4276451e-01   4.7597997e-01  -1.7162377e-01   7.4905257e-01  -1.1959185e-01   9.2648978e-01   4.5041054e-01  -6.4066496e-01  -8.9295363e-02   2.0313858e-01  -1.4416829e-01   2.8050876e-01   7.0589843e-01   3.2459458e-01  -2.2364654e-01  -8.8911059e-01   2.8895306e-01   7.9719018e-01   6.1489469e-01   3.7438721e-01   1.0125168e-02   3.6821483e-01   1.3021663e-01  -9.8283138e-01   6.5825842e-01   4.1969647e-01   3.8674725e-01   3.6686980e-01  -9.6903645e-01   1.4124193e-01   5.4450048e-01  -8.1755094e-01   6.0743613e-01  -1.7711508e-01  -9.4215606e-01   4.5609832e-01   7.1473285e-01   4.1316571e-02  -1.1189911e-01   3.5065278e-01  -3.7536475e-01  -6.7321086e-01  -7.0938089e-01   7.0081917e-01  -9.4927677e-01  -5.1422162e-01  -5.7813581e-01   8.3955933e-01   3.9333688e-01   3.1988275e-01  -5.0949204e-01  -1.0816390e-01  -8.3391238e-01   5.0058657e-01  -4.1609317e-02  -9.2523600e-01   8.7742356e-01   7.6390457e-01  -3.0558066e-01   4.3982339e-02  -1.0639661e-02   1.5411739e-01  -7.2435613e-01  -2.2638055e-01   6.6458410e-01  -1.0383973e-01   5.1952610e-01  -8.2840256e-01   1.6904537e-01  -2.9632673e-01   5.1585685e-01  -4.5048643e-01  -5.9033333e-01  -2.6943302e-01  -8.8625270e-01  -9.2090450e-01   5.5123599e-01   4.4099565e-01   6.4451426e-01   4.9212769e-01  -4.2925560e-01   7.9130561e-01  -8.2413152e-01  -8.3420473e-01  -8.3827080e-01  -9.4437093e-01  -7.2215200e-01  -4.3842024e-01   1.2758495e-01   1.2961296e-02   8.8467773e-01  -4.3462492e-01  -1.6984020e-01  -8.7008258e-01  -2.0705809e-02  -8.1649265e-01  -9.2195672e-01   3.8055868e-01   2.6319096e-01  -7.5165103e-01   6.3708025e-01   1.2239639e-01   7.6606013e-01   1.2349449e-01  -3.7543111e-01  -3.7479060e-01  -2.4196225e-01  -9.2059372e-01  -1.4142958e-02  -1.9906897e-01  -3.8771598e-01   7.3074559e-02  -2.6050114e-01  -9.9068677e-01  -3.9813939e-01  -8.1111024e-01  -7.2171787e-01  -7.2222568e-01   8.5044753e-01   8.3716898e-01  -6.0943985e-01  -5.5909593e-02   5.4026186e-01  -7.0416791e-02  -6.1754556e-01   7.2503829e-01   9.9827417e-01  -9.1073635e-01   7.4157364e-01   3.8155472e-01  -8.9548937e-01  -1.8678769e-01   7.5660448e-01  -6.8835807e-01  -2.9968966e-03   1.8799096e-01  -6.5718598e-01   8.0716226e-01  -3.1402931e-01   2.7392293e-01  -2.7648072e-01   4.4557302e-01  -5.2366806e-01  -7.1336382e-01  -4.5047741e-01   8.1103397e-01   4.9595549e-01  -1.4482051e-01   5.9320169e-01   9.0337832e-01   3.3045518e-01  -7.3316861e-01  -5.2620302e-01   8.1922368e-01  -4.4661757e-02  -4.2811246e-01  -3.6207878e-01   4.8554684e-01  -1.6037557e-01  -7.2175482e-01  -4.6318606e-01  -7.4162448e-01  -2.7275401e-02   8.1927211e-01   3.4283935e-01   7.8068527e-01  -9.4666562e-01  -2.2114238e-01  -5.8215752e-01   4.5010432e-01  -1.9145334e-01  -4.8020670e-01   6.7157076e-01  -2.5254641e-01   8.4350055e-01  -2.2307904e-02  -3.1118071e-01  -1.2191692e-01   3.5994743e-01  -7.3912373e-01  -4.0391257e-01  -4.6678915e-01   2.4791182e-01   1.4616276e-01  -1.2843616e-02   7.6712785e-01  -4.6365148e-01  -4.1746431e-01  -3.0331758e-01   3.5141903e-01   3.2869809e-01   9.7766490e-01   2.1098115e-01   8.3480309e-01  -5.9367506e-01   1.7259149e-01   8.6776251e-01  -2.5966398e-01   2.9394927e-01  -3.6486563e-01   5.7444221e-01  -4.6861150e-01   9.7962038e-01  -1.0994541e-01   9.6337606e-01   4.1428675e-01   1.3799578e-01  -3.0237282e-01   9.5224590e-01   7.3692890e-01   8.4964960e-01  -4.0988994e-01   6.2252506e-01  -2.5154737e-01  -1.8778385e-01  -9.6788915e-01   7.5416570e-01   2.6544213e-01   7.6862861e-01  -5.6936272e-01   4.9187314e-01  -6.0840089e-01  -9.2828798e-02   6.4076257e-01   2.1899458e-01  -3.8408741e-01   9.8834118e-03   6.1682491e-01  -9.5311127e-01  -2.1106402e-01   5.5787740e-01  -4.5367266e-01  -7.1868150e-01   7.3339969e-01   9.0186798e-01  -6.6004411e-01   7.0701604e-01   7.8752902e-01   8.3982387e-01  -2.3184817e-01   4.2551918e-01  -2.7621198e-01  -6.0585648e-02  -7.2671650e-01   8.1584943e-01  -5.5709650e-01  -2.7108340e-01  -1.2540684e-01  -8.3869473e-01  -8.1013415e-01  -5.5380567e-02  -4.6329807e-01   2.2534803e-01   5.2227732e-01   6.8788523e-01  -7.8953083e-01   8.9079013e-01   6.1451348e-01  -3.1824137e-01   3.7181562e-01  -4.3940604e-01   3.6256472e-02   8.1738596e-01   3.8262050e-03   2.7107536e-01  -4.8441827e-01  -2.9724892e-01  -2.8445575e-02  -4.3653056e-01  -8.6447345e-01   3.6542987e-01   2.2008076e-01  -4.3568073e-02  -7.4876974e-01  -6.7604701e-01  -4.1936089e-01   4.7819471e-01   1.3572877e-01  -3.4204967e-01   7.1489191e-02  -2.9100214e-01  -9.3025680e-01  -7.9896514e-01  -9.1962665e-01   4.5671079e-01   1.4579079e-02  -6.1152192e-01   8.7358910e-01  -7.0945515e-01  -9.1294336e-01  -3.1750464e-01  -4.9872319e-01  -8.9127532e-01  -9.0768271e-01   1.8991208e-01  -4.1523857e-01   2.2034987e-01   1.6539382e-01   9.6534942e-01   9.6881091e-01  -6.6481933e-01   1.3851768e-01   8.2586657e-01  -8.5147034e-02  -9.4185719e-01   3.4478711e-01   8.0496482e-01  -4.6010466e-01   5.9285058e-01   9.0149278e-01   7.9780338e-01   6.1050487e-01  -8.3819521e-01   4.5006721e-01  -9.5071798e-01   2.5618839e-01   1.6085292e-01   2.0898985e-01   6.2636781e-01   6.3307855e-01  -9.6464566e-01   6.6054831e-01  -2.7707136e-02  -5.7291040e-01   5.8120890e-01  -7.1887803e-01   2.6795166e-01   2.4648944e-01  -1.6012085e-01  -7.4462940e-01   4.1400205e-01  -2.3178655e-01   1.5342192e-01  -3.8415734e-02   5.0072026e-01  -2.4818766e-01  -2.9863475e-01   4.7077932e-01  -9.2246370e-01  -1.9671148e-02   9.9936870e-01   6.4505058e-01   7.3674346e-01  -5.5673282e-01   4.7469530e-01  -8.1851489e-01   4.6161620e-01  -1.9603222e-02   2.2338854e-01  -5.8658081e-01   1.3885330e-01   3.5454553e-01   8.4002237e-01  -6.3266363e-01  -4.3899924e-01  -3.9085767e-01  -4.6386397e-01  -3.3439966e-01   4.4395884e-01  -8.5012372e-01  -6.2290616e-01  -7.8619566e-01  -6.5863218e-01   6.1916967e-01  -6.6040440e-01  -6.5312903e-01  -8.5749599e-01  -5.3713056e-02   3.1939017e-01   6.0737663e-01  -9.4351804e-01  -9.6910495e-01  -5.4291910e-01  -6.4721085e-01   7.3797634e-01  -6.0698289e-01   1.3154864e-02  -8.4981723e-02   8.8902374e-01  -6.0884158e-01
