   2.1527216e-01   3.2919025e-01   3.9454483e-01   9.9575084e-01   8.5308141e-01  -2.4792158e-01   7.3879679e-01  -4.2673365e-01  -8.2344782e-01   1.8315745e-01   6.5083246e-01   1.0978151e-01   2.8990677e-01   3.6268086e-01  -8.9866760e-01  -1.3310605e-02   9.4425149e-01  -5.6889611e-01   3.6574558e-01  -4.0651832e-01   2.2342426e-01   7.6597057e-01  -9.1250917e-01  -1.4646574e-02  -4.1298308e-02   9.9177742e-01  -1.3900988e-01  -4.6672425e-01  -3.5587957e-01  -8.9080935e-02   4.3808020e-01  -3.3754055e-01  -2.6630151e-01   3.8781672e-01  -5.2057891e-01   2.3230446e-01   2.3438194e-01   3.4242196e-02   4.1338658e-01  -5.6518286e-01   3.6466726e-01   7.0549647e-02   7.1531439e-01  -9.2435982e-01  -2.3499156e-01   6.8965209e-01  -8.9222784e-01   8.7624672e-01   2.7378045e-01  -5.7285098e-01  -3.1417133e-01   7.3559664e-01  -9.6989987e-01  -8.4751596e-01  -4.6926907e-01   6.9243069e-01   4.3316082e-01   5.4981313e-01  -6.3894655e-01  -5.0327718e-01  -5.9047412e-01   8.1665034e-01   3.8484269e-01   2.8985470e-01   5.8147065e-01   3.4212607e-01  -1.0567375e-01  -6.4265637e-01   2.5528488e-01  -5.8109838e-02   3.6218400e-01   3.8138945e-01  -3.5075348e-01   2.6526658e-01  -9.3104762e-01   7.1309852e-01  -5.1697446e-01  -3.4099031e-01  -9.6944703e-01   7.0165137e-01  -2.7839600e-01  -8.8454041e-02  -8.1790276e-01  -3.8732449e-01   3.3739668e-02   7.2351884e-01   8.1949936e-01  -4.2923469e-01   6.2962453e-01   5.2506170e-01   6.4908716e-01   8.0826190e-01   1.6913101e-01   2.2173180e-01   3.6197427e-01  -8.8742038e-01  -4.7410580e-02  -6.4727739e-01   3.2282287e-01  -8.1239367e-01   2.8528229e-01   2.5985355e-01  -1.5733971e-01  -1.3535724e-01  -9.1418062e-01  -1.8051741e-01   2.3586204e-01   9.2086908e-01   7.3853119e-01   2.5188373e-01   4.7360691e-01   3.4953500e-01   5.7000574e-01  -5.4795106e-02  -8.5172510e-01  -3.4469405e-01  -2.0084816e-01   2.1026633e-03  -5.7175413e-04   8.2880377e-01   8.2876671e-01  -8.9955575e-01   5.0883557e-01   2.9552777e-01   3.9383674e-01  -7.6632153e-01  -3.8178040e-01  -6.7704700e-02  -3.2098374e-01   6.0776846e-01  -7.0332793e-01  -1.8627896e-01   7.7339200e-01   9.3061923e-01   4.8724076e-01  -2.3414979e-01   7.2108558e-01  -2.2885708e-01   8.1672524e-01  -3.4822185e-01  -7.4053771e-01   3.8654439e-01  -1.9000278e-01  -7.0541465e-01   5.9401086e-01  -3.7451715e-02   3.0027936e-01   4.1635685e-01  -6.9688030e-01   7.6790228e-02  -9.4475438e-01  -7.9998149e-01  -2.0977656e-02  -1.5779693e-01   3.2911612e-01  -3.4127420e-01  -6.6678939e-02  -9.2054053e-01   1.0210659e-01   8.0245931e-01   7.4067309e-02  -5.1246758e-01   1.9741322e-01  -5.8004213e-02   4.1691097e-01   6.9000275e-02   7.8323734e-01   5.9082788e-01  -9.0037069e-01   1.6596468e-01  -9.7464520e-01   1.1587902e-01  -4.4131086e-01  -8.9061400e-01   2.1616384e-01  -7.0901493e-01  -5.8640571e-01   7.6170980e-01  -9.9399164e-03   1.1974362e-01   8.5263285e-01   3.7339236e-01   4.0537981e-01   4.0594509e-01  -7.4178072e-02  -5.4946222e-01  -8.2742246e-01   7.5018394e-01  -6.5322130e-01   9.4491246e-01   4.3385007e-01   2.8427451e-01  -3.2377172e-01   8.2938851e-01  -7.5450721e-01  -7.7459644e-01   2.1947406e-01   1.1537173e-01  -1.1686516e-01   6.4015377e-01  -2.7356755e-01  -3.9786646e-01  -3.6736697e-01   5.7399333e-01   6.8833558e-02  -3.3110374e-02  -8.0620888e-01  -7.8035877e-01   6.5007328e-01  -6.4230310e-01   3.5514895e-02  -5.8756016e-02   5.8325337e-01  -3.2759462e-01  -4.6286629e-01   2.5944173e-01  -7.1861938e-01  -5.4760663e-01   6.4149003e-02   6.0420922e-01   8.5479593e-01  -9.9471563e-01  -8.0974024e-01   5.8243348e-01   5.2938880e-01   3.8867308e-01   3.1238000e-01  -1.9412676e-01  -7.8323200e-01  -5.0874324e-01   6.5252366e-01   7.3345224e-01  -9.2556912e-01  -9.9488515e-01   9.1797726e-01  -8.9802688e-01  -7.5805294e-01  -1.3235747e-01   5.2231012e-01   9.5557663e-01  -9.1307970e-03   2.6922230e-01   6.9308011e-01   9.1610412e-01  -7.6905133e-01  -4.4938675e-01  -1.9745658e-01   4.6494047e-01  -4.1586966e-01  -6.6703392e-01   4.9766550e-01  -7.6035419e-01   9.5855145e-01  -8.8108729e-01   2.4437684e-01   5.4910930e-01   3.4748227e-01   2.2878867e-01   4.5835756e-01  -4.8794831e-01   7.0140691e-01  -8.5053518e-01   5.5874774e-01   8.4452050e-01  -7.1131046e-01   1.3464142e-01   6.0236804e-01   9.0554830e-01   8.1358732e-01   3.3458443e-02  -8.3902796e-02   7.1853691e-01  -4.5644734e-01  -4.5674019e-01   2.4291705e-01  -7.3381892e-01   9.2566408e-01   2.0718307e-01  -7.6055006e-01  -3.2796215e-01   1.6055583e-01   3.2147715e-01   5.7858916e-03   3.0370274e-01  -7.8934053e-01  -3.2668786e-02   5.4309562e-01  -3.0366263e-01   7.1734979e-01   9.4218316e-01  -8.3745723e-01  -8.8532141e-01  -7.2474414e-01  -9.3159554e-01   7.7636406e-01  -2.9374757e-01  -3.0773244e-01   4.8447088e-01  -1.7482635e-01  -8.2864051e-01  -6.2664004e-01  -8.7081686e-01  -4.0643311e-01   1.1199472e-01  -6.8355321e-01   4.4603750e-01   5.6966699e-01   2.3118502e-02  -2.8448764e-01   2.6537970e-01   4.4137043e-01   7.4602827e-01   3.6092747e-01   9.4702975e-01   8.6909139e-01  -6.0791160e-01   3.8850447e-01   4.9783569e-01   1.7892961e-01  -2.4334259e-01   8.0701418e-01   2.1592108e-01   2.2275463e-01   7.6810861e-01   2.3221614e-02  -8.3786443e-01  -3.7401149e-01   4.9826602e-01   3.6425172e-01   9.8903270e-01  -3.2236681e-02   5.1060315e-01  -6.5512561e-01  -1.9831100e-01   9.7361407e-01  -1.3932925e-01  -1.5974662e-01  -2.6616925e-01  -8.3886341e-01   3.9636844e-01   5.6981114e-01  -6.0089891e-02  -7.2477207e-01   5.3773449e-01   6.5056961e-01   7.9665677e-01   5.9931628e-01   6.2751619e-02  -6.0101990e-02   6.9249366e-01  -6.5597194e-01   7.4073814e-01  -4.0345696e-01   8.7547824e-01  -1.0235651e-01  -7.0515397e-02  -2.0281464e-01  -9.1442526e-01  -2.0083048e-01  -9.8522311e-01  -3.9659251e-01  -4.7543241e-01  -4.2126801e-01  -2.6573235e-01   5.9743192e-01  -3.9737495e-02   6.5066410e-01   8.1007390e-01   3.3424186e-01   7.9479163e-02  -6.5822866e-01  -5.0371357e-01   6.1826850e-01   2.8823692e-01   8.0535277e-01  -4.9886189e-01   6.9099777e-01   5.3757362e-01   2.0449809e-01   4.0051370e-01  -5.8076430e-01   2.7803776e-01   5.0919789e-01  -7.8377289e-01  -9.3787578e-01   5.2816648e-02   7.0074672e-01  -4.4618638e-02   4.2673806e-01  -7.1255967e-01   2.6231929e-01  -3.3871363e-01   6.7906667e-01  -4.8860070e-01  -9.5431349e-03  -3.1357421e-01   6.7224259e-01   5.8958022e-01   4.4938642e-02   9.8704966e-01   1.2016909e-01  -5.3579195e-01   3.2801278e-01   3.6166353e-01   2.3027377e-01  -1.9704492e-01  -1.2429740e-01   5.9161611e-01   3.9083813e-01  -1.2798244e-01  -7.9871088e-02  -4.3609432e-01  -1.1799566e-02  -4.0079125e-01   9.6193515e-01  -4.3208845e-01   5.6812254e-01   4.2379734e-01  -8.8780430e-02   3.4321512e-01   7.3174873e-01   1.7837315e-01   1.7684154e-01  -9.7849710e-01  -5.7355383e-02   6.0541130e-01  -2.7343243e-02  -1.8312337e-01  -4.1653978e-01   4.3953217e-01   1.6553858e-03   8.0859019e-01  -5.2921902e-02   4.1310660e-01  -4.7877798e-01   2.0337448e-01  -6.7477092e-01  -3.4845631e-01  -6.1258308e-01  -8.1619422e-01   9.4800256e-01  -5.6323091e-01  -4.1941101e-01  -1.5452335e-01   9.7576910e-01   5.4030855e-02   5.6179604e-01   3.1703016e-01  -8.3197929e-01  -4.2575843e-01   3.5364737e-01   9.2522650e-01   9.0697099e-01   6.4539895e-01   6.6426593e-03   5.3117221e-01   2.3129829e-02  -7.9182589e-01   3.1301934e-01  -1.0007517e-01   7.4505100e-02  -3.3900934e-01   7.6240493e-01   9.1449255e-01  -9.8302078e-01  -1.6339766e-01   7.0215525e-01   1.6259211e-01   2.6385537e-01   6.4821294e-01   9.4523766e-01  -8.3852511e-04   3.4857799e-01   5.6423173e-01  -9.0065491e-01   2.2536390e-01  -2.0745638e-01  -8.9119000e-01   5.8099089e-01  -7.3970331e-01  -4.5937374e-01  -5.1760648e-01  -3.6531196e-01   2.1782346e-01  -5.4068090e-01  -6.5216819e-01   3.9803837e-01  -6.3407439e-01   3.9653490e-01   1.0254614e-02   5.6221013e-01  -5.5317046e-01   8.7447164e-01  -2.7608661e-01   4.0302509e-01   1.0593614e-01  -5.0838384e-01  -5.3401886e-01  -7.0440838e-01  -4.9760211e-01  -9.5684098e-02   5.6452001e-01  -1.5164509e-01  -3.2299434e-01   7.2609888e-01   4.6808805e-01   7.1701902e-02   5.8000644e-02   4.7605247e-01   2.1865323e-01   4.7925831e-01   7.2362447e-02   4.0480620e-01   9.2853858e-01   8.8543799e-01  -4.7125041e-01   1.0992998e-01  -3.7624571e-02   4.8600614e-01   8.8935757e-01  -4.4057953e-01  -8.0573185e-01   7.8815447e-02  -9.2777874e-01  -5.0262443e-01  -7.7267105e-02  -9.2740283e-01  -3.3717827e-01   8.9921421e-01   9.0068288e-02  -1.4105667e-01   5.9966276e-01  -7.4830748e-01  -2.9770958e-01  -7.9154169e-01  -5.4873639e-01   1.5786501e-01  -9.7538205e-01   3.4865192e-01   3.3288636e-01   4.5232937e-01  -4.8977005e-02  -6.2810912e-01   2.6426425e-01   7.0577769e-01   7.6518235e-01  -8.7178224e-01  -1.9288867e-01   7.0091679e-01   2.7325262e-01   5.9281342e-01  -3.4878380e-01  -2.2276018e-01   9.7920636e-03   6.1468326e-01  -7.3274375e-01   6.2651338e-01  -3.7539357e-01  -4.6795492e-01  -8.7109111e-02  -6.0037546e-01   4.2201309e-02  -8.8722235e-02  -8.3023588e-01   7.4644461e-01  -1.8594594e-01  -2.6652481e-01   8.8241966e-01  -5.5592520e-02  -5.0029116e-01  -3.0335014e-01   3.4567740e-01   3.5572612e-02  -4.2948904e-01   1.4586403e-01  -8.2513058e-01  -8.1208905e-01  -3.2619247e-01  -3.5140838e-01   7.6453629e-01  -8.8982572e-01   3.1972252e-01   4.6312703e-01  -6.8686774e-01  -4.5318102e-01   9.3857058e-01   8.6374328e-01  -4.1895088e-01  -6.7802677e-01  -5.2269102e-01  -1.0680977e-01  -7.0884694e-01  -2.7611285e-01   3.4805779e-01  -5.6236845e-01   3.1376456e-01  -4.1205355e-01  -8.8944544e-01   9.5714839e-01   4.2915075e-01  -1.0396689e-02  -9.3893612e-01  -4.1597657e-02   7.8552064e-01  -8.8328939e-01   7.4280878e-01   3.7738943e-01  -7.9587918e-01   5.6396756e-01  -4.3907656e-01  -2.5052871e-01   1.7789428e-01  -9.4991471e-01  -3.3554043e-02   6.2525801e-01   9.0246522e-01   7.0250873e-01  -6.8956787e-01  -4.2519578e-01  -8.9110221e-01  -1.8674689e-01   5.9848897e-01  -8.4448900e-01   3.2156333e-01  -8.4566011e-01   5.0306935e-01  -4.1721618e-02  -5.0699170e-01   9.8084669e-01  -4.3403075e-01   4.1392218e-01  -9.6139616e-01  -3.4131686e-01   4.2192765e-01  -4.7214064e-01  -3.3147144e-01   7.2248719e-01   6.1010880e-01  -6.3472206e-01   7.7829625e-01   3.9288409e-01   9.9064003e-01  -4.3273383e-01   6.2075568e-01  -2.7289858e-01  -7.7698300e-01  -7.8364223e-01  -9.0619937e-01   9.8894276e-01   9.3530445e-01   8.1521831e-01  -9.1274061e-01  -4.4352218e-01   5.2521441e-01  -9.9442110e-01   2.6249418e-01   5.9839879e-01   9.4619053e-01  -6.9227523e-01  -3.3039756e-01   2.7188485e-01  -2.8854867e-01  -5.4254338e-01  -2.8199413e-01   4.9119922e-01   4.0698080e-01   7.3178167e-01   9.1617130e-01  -1.4629163e-01   1.0082793e-01   6.5074864e-01   4.7324355e-02   5.0724426e-01   2.4840354e-01   7.6169875e-01  -3.7266205e-02   7.3376493e-01   3.9512794e-01   2.9974389e-03   8.0036609e-02   6.1361420e-01  -2.0554559e-01  -4.6547558e-01   9.8723607e-02  -8.9508282e-01  -5.3507897e-01   9.6635182e-01   1.4589912e-01  -8.8819961e-01   2.0995971e-01   3.0045901e-01  -1.7239411e-01  -8.0267610e-01   5.5771023e-01  -8.6033534e-01  -3.1397839e-01  -2.0924682e-01  -1.2596832e-02   2.8372369e-01  -6.2778869e-01  -5.0175402e-01  -7.7140764e-01   1.8081857e-01  -6.2161620e-01   7.5590448e-01  -6.2446408e-01  -9.8450053e-01  -9.8171079e-01   7.9212602e-01   9.2641826e-01  -2.6116713e-02   2.1611300e-01  -1.6338445e-01  -5.7888638e-01  -5.2003020e-01  -3.8150972e-01  -5.7212535e-01  -1.2932393e-01   5.8271651e-01  -3.9975062e-01  -9.6858705e-01  -3.6502845e-01  -9.5182608e-01  -5.4165170e-01   7.7344211e-01   8.8581941e-01   3.6044777e-01  -2.3494347e-01  -1.7840567e-01  -6.6334783e-01  -9.3819618e-01   6.7929913e-01  -7.2271980e-01  -4.0216226e-01  -8.2483271e-01   8.3607533e-01  -3.2583768e-01   9.1738233e-01   3.8316249e-01  -3.0798637e-02   6.3172815e-01  -2.2323346e-01  -2.0543172e-01   4.1668327e-01   6.4066116e-01  -2.4455285e-01  -8.2051681e-01   6.6823542e-01   6.4452450e-01   9.2694764e-01  -7.4928144e-01  -2.8601824e-01   1.1996614e-01   2.2622383e-01   2.2519930e-01   5.9494216e-01  -6.3357731e-01  -7.2055561e-01   2.2123464e-01   3.9303583e-01  -3.6704755e-01   6.3745280e-01  -1.9658073e-01  -2.5999607e-01   3.7002638e-01   4.2192552e-01  -7.7184046e-01  -3.2646539e-01   4.3082749e-01  -7.4985998e-01   4.0818613e-01  -3.1039038e-01  -9.3375777e-01   2.5866244e-01  -2.1766626e-01   4.7595627e-01  -6.7540417e-01   7.7013692e-01   3.2578730e-01  -3.5433394e-01  -3.0339995e-01  -7.8912629e-01   2.0985081e-01  -9.8361928e-01  -7.7466013e-01  -4.9014472e-03  -4.5480226e-01  -3.9154339e-01   8.0307027e-01   3.7299241e-01  -9.7499496e-01   1.9100015e-01  -1.0955609e-01  -8.4519128e-01  -3.2249370e-01  -4.5052088e-01  -4.3448125e-01  -2.1751549e-01  -4.5270614e-02  -8.5024906e-01  -2.2065692e-01   1.5843028e-01  -8.4147766e-01  -8.6906776e-01  -7.4509557e-01  -2.5249556e-01  -4.1524802e-01  -7.4552624e-01  -3.2659500e-01   9.9482094e-01   8.9017661e-01   3.5820273e-01   3.1040053e-01   1.7750750e-01   1.2249647e-01   4.8391779e-01   7.0570623e-01   4.7446812e-01  -1.4930363e-01  -8.9710070e-01   5.2796137e-01  -8.3727550e-01   8.4241484e-01  -5.4760500e-01  -9.9545473e-01  -5.2294511e-01   7.1586237e-01  -7.1958571e-01  -9.2306434e-01  -7.7546458e-01   1.9964017e-01   8.3521332e-01   5.4097856e-01   7.9270462e-01   4.9214361e-01  -3.0860198e-01   7.0909090e-01   2.3911793e-01   1.1152859e-01   6.2292234e-01   2.2726832e-01  -3.6073056e-01   6.4246475e-01   2.9344569e-01  -3.3231868e-01  -1.1480742e-01  -9.0987868e-01   6.2118645e-01  -5.7346276e-01   5.6529805e-01  -1.4526456e-01  -8.6876268e-01  -3.2947942e-01  -9.8972497e-02  -2.6043979e-01  -8.5219449e-01  -8.1149443e-01   8.7642995e-01   2.6436873e-01  -9.6415319e-01  -4.0489226e-01  -6.0984294e-01   3.6447343e-01  -6.8864418e-01  -9.0860244e-02   5.5586158e-01   3.2574056e-02   9.0969189e-01  -7.6360901e-01  -9.8289959e-01   5.6842231e-01  -3.2624606e-01   6.2092174e-01  -5.2290698e-01  -4.6917028e-01   6.4300233e-01   6.3381042e-01   9.3077948e-01   5.0507221e-02  -2.1816561e-01   9.5277946e-01   3.1584586e-01  -8.4386067e-01  -5.6043299e-01   5.1515475e-01   5.7350073e-01  -2.8663448e-01   8.4923766e-01   9.9333658e-02  -9.5709449e-01  -7.9225719e-01  -4.6247349e-01  -1.3300098e-01  -4.1661542e-01   2.8036308e-03   6.2617407e-01   3.8768172e-01  -7.6974626e-01   3.5844142e-01   8.3895749e-01  -5.8581112e-01   5.0105163e-01  -1.3558408e-01  -7.5801916e-02  -5.2230327e-01  -5.8258398e-01   6.2041813e-01  -8.0256823e-01  -8.9239069e-01  -7.4714661e-02   6.1445761e-01   3.7290274e-01   8.5550576e-01  -4.5717801e-01  -3.5060888e-01   1.1397486e-02  -9.6924064e-01  -6.1869412e-01   9.0317300e-01  -6.0995268e-01  -3.7054573e-01   5.8428451e-02   9.9406214e-01   3.5281506e-01  -5.5459515e-01   1.4974134e-01  -5.1375641e-01  -6.0289243e-01   4.2752253e-01  -5.2677069e-01  -1.2396209e-01  -7.9042944e-01  -8.7491151e-01   7.5072716e-01  -4.4789252e-02   2.1774729e-01  -4.4861032e-01   9.7881520e-01  -7.1318247e-01   8.1572384e-01  -8.2289148e-01   6.3060767e-01  -7.2166182e-01   6.5474533e-01   6.8295165e-01  -4.0686654e-01  -3.5589883e-01   7.3165054e-01  -6.1645261e-01   2.8147762e-01  -8.5127294e-02  -2.5669630e-01   5.9130811e-01  -2.2298056e-01  -1.1454910e-01  -5.2487059e-01   3.0028785e-01  -5.5923781e-01   5.4469727e-01   1.4023296e-01  -2.1510701e-01  -8.4858525e-01   4.7114742e-01  -5.4358500e-01   4.9553332e-01  -5.8167990e-01   3.5501262e-01   9.5036778e-01   9.9955377e-01  -3.8324156e-01   5.4395509e-01   4.1942813e-01  -4.6531543e-01  -9.4803820e-01   6.3441505e-01  -6.9703948e-01   2.3755767e-01  -2.1435558e-01   1.0503421e-01   9.4189995e-01   7.0367307e-01   7.8155112e-01   9.6153699e-01   5.7701109e-01  -8.8198079e-01   2.0445023e-01  -4.2781986e-01   1.4644913e-01  -8.4712345e-02  -5.7438535e-01  -2.2159603e-01   4.5622282e-01  -8.3850259e-01  -7.8799464e-01   4.5159240e-01  -2.6266663e-01  -7.3474110e-01   3.6685591e-01  -9.4145521e-01   9.0963716e-01
  -6.9291860e-01   9.3254217e-01   3.6268608e-02   6.4594704e-01  -1.6605225e-01  -4.8256760e-01   1.1547910e-01   3.1836052e-01  -8.3404294e-01  -9.8971222e-01   7.3414718e-03  -4.0377669e-01  -1.7232672e-01  -2.2065898e-02  -9.4829876e-01  -2.6161616e-01  -4.9511609e-01   7.2146653e-01  -5.0030162e-01   4.7543510e-01   3.6984601e-01   4.7378079e-01  -8.2386624e-01   2.0525107e-01  -1.1999268e-01  -3.8352659e-01   8.2886098e-01   5.6608901e-01   7.4554144e-01   3.5523739e-01  -6.6703475e-01   3.5907123e-01   1.8556107e-01  -4.8731267e-01   6.3808379e-01  -8.5586678e-01  -1.7336574e-01  -5.4091634e-01  -3.8813517e-01  -5.3347865e-01   5.3618488e-01   4.5567526e-02  -9.6249447e-01   5.5853793e-01  -5.9112601e-01  -5.7740033e-01  -7.4397397e-01  -4.5243962e-01   5.6099238e-01  -5.4659111e-01  -3.1938378e-01  -8.1708890e-01  -9.2947422e-01   3.0223864e-01  -9.2221992e-01  -3.7413331e-01  -5.4188982e-01   2.9625069e-01   4.0016425e-01   4.0594066e-01  -8.6177860e-02  -1.9547093e-01   1.2902253e-01  -7.2909241e-01  -7.8695202e-01  -2.3577815e-01  -9.4959501e-01   2.1523790e-01   6.9237479e-01   7.1889768e-01  -4.0784100e-01   2.5503398e-01   3.3333539e-02   7.3618574e-01  -7.2467327e-01  -7.4879539e-01   8.0733420e-01  -4.0079601e-01  -5.6266363e-01   8.0085200e-03  -4.2223363e-01  -1.3629460e-01   1.2905589e-01  -8.1170740e-01  -8.6263903e-01  -2.4202367e-01   3.3517201e-01  -4.7079299e-01   6.1077968e-01  -1.9635331e-01   5.5137825e-01  -5.3620267e-01   7.3650355e-01   7.5834252e-01   1.3446622e-01   7.7620881e-01   2.0693982e-01   6.8159493e-01   8.8185126e-01   3.2600683e-01   1.6043661e-01   8.9012261e-01  -6.9178666e-01  -2.2923718e-01  -5.6529088e-01  -5.7529290e-01   9.1257963e-02   6.9997323e-01   9.2652332e-01  -6.4250933e-01  -7.0465008e-01   6.6598443e-01  -4.7018509e-01  -5.1569030e-01   3.7335511e-01  -9.6309981e-01   9.5712357e-01   7.3429220e-02  -9.9508291e-03  -9.6705792e-01   6.5736468e-01  -3.7062797e-01   8.6544192e-01   9.4834341e-01  -6.6914805e-01  -6.5781371e-01   7.8952724e-01   3.4449533e-01  -8.6693521e-01  -6.4340589e-01  -3.6444310e-01   2.7848434e-01  -5.5086354e-02  -6.2004274e-01  -4.1177177e-01   5.0298750e-01  -3.5282863e-01  -2.9141084e-01  -6.4198189e-01  -6.7500075e-01  -6.3236407e-01   7.8120148e-01  -4.2903231e-01   1.7094478e-01   3.3825286e-01   4.2777986e-01  -1.0537548e-01  -7.8156494e-01  -5.3569192e-02  -2.2863740e-01  -9.2949588e-02  -5.8269771e-02  -6.5839386e-01   8.6110033e-01   7.0944575e-01   8.7423405e-01   1.5802660e-01  -6.9478401e-01   3.7838491e-01  -9.1735480e-01   4.0026900e-01  -4.5886676e-01   4.0599829e-01  -3.2843868e-01   8.2982394e-01  -1.4002898e-01  -8.6242130e-01   1.9645065e-01  -8.2973112e-01   8.0907941e-01   6.5906321e-01  -9.5152266e-01   2.1167604e-01  -1.1412900e-01   4.5880848e-01   9.5615370e-01  -6.2947730e-02   7.0151083e-01   8.1426101e-01  -8.1329608e-01  -7.0478012e-01  -4.6897945e-01   2.1014459e-01  -2.2610760e-01   2.6904245e-01  -5.5679342e-01   8.8857170e-01  -7.7042047e-01  -7.7812799e-02   5.0433819e-01  -3.7472929e-01   8.4901895e-01   9.3756163e-01   6.5537960e-01   9.2958126e-01  -4.3515640e-01   5.0017999e-01   1.9194793e-01   7.4071799e-01   5.8776590e-01  -6.6649323e-01   9.4828217e-01  -4.4498343e-01   9.0755773e-01   3.7213199e-01  -2.4864126e-01   4.7146184e-01   1.4637657e-01   7.2996512e-01  -5.2337677e-01   5.9792082e-01  -9.4899501e-01   1.4274900e-01  -2.5306290e-01  -7.7644294e-01  -6.8222783e-01  -5.4710623e-01   1.1851108e-01   2.7376170e-01  -1.7885197e-01   3.0981941e-01   4.6624017e-01  -3.5264434e-01   9.3347800e-01  -6.8994152e-01  -8.4956005e-01  -3.7495862e-01   5.3907537e-01   8.5068916e-01   5.2315483e-01   2.4630600e-01  -2.5839459e-01  -6.7869646e-01   6.5671396e-01   2.2628995e-01  -7.7894207e-01  -2.7074970e-01  -8.2526099e-01   4.1966001e-01   1.3962590e-01   9.9995756e-02   2.0467825e-02  -6.3529519e-01   9.8585441e-01  -9.7636662e-01  -2.2650456e-01  -4.8473837e-01   7.5027108e-01   3.5483556e-01   1.0342290e-02  -4.0152696e-01  -1.5665886e-01  -4.6950282e-01  -9.8280215e-02   4.2274735e-01   1.8581502e-01  -5.9644106e-01  -3.6191911e-01   2.1460348e-01   4.7881649e-01  -8.6209076e-01  -9.8609073e-02   2.3805710e-01   7.2164537e-01  -4.3928536e-01  -2.0321833e-01  -2.9900623e-02  -5.2497822e-01   2.3481026e-01   5.9553815e-01  -4.2050591e-01   1.3731710e-01  -5.4067194e-01  -5.7497864e-02  -8.2899702e-01  -2.1435161e-01   3.4773344e-01  -7.4176753e-01   3.6396715e-01  -6.7299961e-01  -5.6837388e-01   5.9613381e-01  -3.6652972e-01   6.2024462e-01  -2.5376129e-01   8.8026177e-01   3.6172615e-01   8.2814517e-02   2.2879149e-01  -9.5979127e-01  -2.5536945e-01   5.5625662e-01  -9.3742452e-02  -6.9470158e-01   1.7834273e-01   4.7579761e-01  -9.3691257e-01   2.5349638e-01   3.3882836e-01  -9.7904448e-01   9.3107041e-01  -5.8874528e-01   4.7780661e-01   4.3458605e-01  -9.8120961e-01  -6.2062628e-01   3.1229184e-01   5.4163897e-01   9.6906628e-01   9.8302148e-01   2.5609102e-01   2.4705104e-01  -8.1297801e-01   8.5398017e-01   1.0511783e-01   2.7388115e-02   4.6354342e-01  -8.0897350e-01  -1.2034603e-01   1.2839704e-02   9.5570408e-01   8.4632974e-01  -1.9024347e-01   5.6388375e-01   3.5046572e-01  -5.9664536e-01   8.4289085e-01  -8.6384909e-01   6.5052358e-01  -6.1234693e-01  -5.2168688e-01   8.8902615e-01   6.8721555e-01  -5.3324236e-01   2.1412773e-01   3.7855888e-01   5.5048741e-01   7.7085271e-01  -8.6548587e-02   6.5224685e-01   2.6496777e-01  -6.8963307e-01  -5.7101648e-01   9.8441907e-01  -7.9902382e-01  -4.7587597e-01   3.1732996e-01  -2.0574931e-01  -9.8546655e-01  -4.2584694e-01   3.8424977e-02  -2.9906596e-01   5.0107338e-01  -9.0548522e-01   5.8803206e-01   2.7271472e-01   3.7584526e-01  -4.8607192e-01  -8.7430910e-01  -8.6775454e-02   7.2595139e-01  -1.8250940e-01   6.4923784e-01  -3.7304482e-01  -7.2193316e-01   3.3816221e-01   2.4976605e-01   5.9839906e-01   8.5094929e-01   7.9398851e-01  -4.6817379e-01   8.7610493e-01   1.5796412e-01  -8.8459357e-01  -1.6016141e-01   7.8359568e-02  -4.6097792e-01   5.7606751e-01   1.0321746e-01   1.5918433e-01   2.9007451e-02  -2.7048097e-02   8.9834868e-01   6.7560943e-01  -2.6670007e-01   3.1927568e-01   6.6571186e-01  -6.8302127e-01   7.1019414e-01   4.1529554e-01   8.2572797e-01  -2.0070177e-01   7.6972720e-01   1.1847987e-01   2.2390731e-01   1.0301222e-02   7.9511298e-01   7.7792050e-01   9.8734931e-01  -8.3982003e-02  -2.7417642e-01  -8.4755374e-01  -4.5165811e-01   7.7617199e-02  -9.9255375e-01   2.7253855e-01   6.7327278e-01   7.0041381e-01   9.9629935e-01  -5.3630168e-01   5.3770702e-01  -7.6470044e-01  -9.4024152e-02   6.1368503e-01   2.9747368e-01   3.3915090e-01  -9.4859039e-02  -2.6885465e-01   8.3316255e-01  -8.5048690e-01  -8.6287312e-01  -3.6567341e-01  -9.2876691e-01  -5.5140548e-01   3.2625287e-01  -2.6728436e-01   3.1239407e-01   8.4035207e-01  -8.3651721e-01   2.5932509e-01   7.4194844e-01  -6.2932199e-01  -2.8137552e-01   9.6740911e-01  -3.4511417e-01   2.6428921e-01   1.5630665e-01  -1.2058463e-01   8.7181345e-02  -6.7297038e-01  -7.4563707e-01   1.1262543e-01   7.2818032e-02  -1.1306994e-01  -4.8853201e-01  -6.6420685e-02   2.0097361e-01   8.9467261e-01   9.3863537e-01  -2.7652447e-01   8.7429667e-01  -2.1989246e-01  -9.5982564e-02   4.2812930e-01   6.2622239e-01  -8.5207370e-01   4.7307283e-01  -9.5286085e-01  -3.4039436e-01   7.0392729e-01   1.3490663e-01   5.3029193e-01  -4.4962136e-01   6.2848472e-01   1.0832906e-01   9.6392114e-01  -1.9510581e-01   2.2520622e-01  -2.3766600e-01  -3.3959593e-01   7.7027330e-01   5.2799004e-01   7.0640918e-01  -9.9136476e-01  -6.8599877e-01   9.7209466e-01   1.2073703e-01   8.0251650e-01   8.4516649e-01  -5.0224434e-01   1.7088993e-01  -3.9202679e-01  -9.8416941e-02   5.7754335e-01  -9.1833241e-01  -3.0500686e-01  -6.3234743e-01  -6.5763607e-01  -9.0336026e-01  -4.7855996e-01   6.1064516e-02  -9.7573653e-01  -3.1386386e-02   9.4212900e-01   4.5283339e-01   1.6720314e-01  -4.0469937e-02  -5.5003095e-01  -9.8433934e-01   9.0961594e-01   9.1103220e-02   9.2999136e-01   3.5210815e-01   3.6441940e-01  -6.6030052e-01  -7.8222551e-01  -7.6152970e-01   6.1994535e-01   6.0972150e-01  -5.5329947e-01  -5.7122886e-02   6.4231120e-01   2.6411115e-01  -1.4875744e-02  -5.8254625e-01   6.6069600e-01  -5.4141152e-01  -1.2158235e-01  -7.0639356e-01   4.4421622e-02   3.5485225e-02   3.3696372e-01  -1.8615226e-02  -4.0744259e-01   1.2945201e-02  -3.9964856e-01   9.2162234e-01   9.0584048e-01  -1.1219771e-01  -1.5146097e-01  -4.7435940e-01  -5.1381657e-01   2.2603157e-01  -5.8215548e-01   2.9952715e-02   5.7772835e-02  -9.1106070e-01   2.4969408e-01  -9.2496500e-01  -2.7606091e-01  -8.9333673e-01  -9.4308773e-01   6.8434080e-01  -7.9782803e-01   5.5552262e-01  -6.3316630e-01  -9.5340411e-01   7.7105551e-01   3.9931853e-01  -2.6092690e-02  -8.5944484e-01   8.9390749e-01  -2.0928373e-01   9.3578689e-01   7.2424122e-02  -5.1817548e-01  -3.5106781e-02   9.2964165e-01   1.9471456e-01  -8.0003284e-01  -1.9491030e-01   2.5321205e-01  -9.0160019e-01  -5.8932833e-01  -3.0438695e-01   8.0151895e-01   2.8057936e-01   1.7496635e-02   3.4970576e-01   5.5794005e-01   2.3916082e-01  -7.9357399e-01  -8.4007406e-01   6.2623484e-01   7.9718298e-01   1.8689576e-01  -5.4416054e-01  -6.3049886e-01   6.4104839e-01  -6.8634339e-01  -1.6350487e-01  -3.5791735e-01   5.8793751e-01  -1.1023054e-01  -1.2001857e-01  -6.0282561e-01   9.0991693e-01   8.1337420e-01   1.3449620e-01  -1.6360746e-03  -7.8726297e-01  -5.9586116e-01   1.9217478e-01   9.6599520e-01   9.3357922e-01   1.5538394e-01  -3.6264777e-01  -7.1749220e-01  -1.8212334e-01   6.3022181e-01   9.9319751e-01   6.7788530e-01  -8.9001655e-01   5.9970080e-01   1.7186843e-01  -6.7279004e-01   2.7684012e-01  -3.3188300e-01   6.4420722e-01  -7.2272395e-02   5.3783311e-01  -3.9940024e-01   7.9640891e-01  -9.5945461e-01   7.3289101e-01   1.3373261e-01  -1.6788352e-01  -2.6314595e-02  -2.7313697e-01  -3.9072461e-01  -7.4179096e-02  -8.8632868e-01  -4.3210906e-01   8.2009585e-01   4.1545755e-01  -3.1702951e-01   4.1685341e-01  -5.2618929e-01  -4.5985234e-01   9.9184188e-02  -4.6246101e-01   1.9888541e-01   8.1467185e-01   2.9594235e-01   9.3876529e-01   6.6400514e-01   6.5752655e-01   3.1026773e-01  -1.7445886e-01   8.4417377e-01   8.9406117e-01   9.0564265e-01  -5.5348882e-01  -3.8121025e-01  -3.0080257e-01  -1.3804236e-01   5.7689435e-01   6.2440247e-01   7.7382591e-01  -8.5871521e-01   1.6908986e-01  -9.9328179e-02  -4.8072100e-01   6.0384758e-01   9.3450791e-01   6.3190985e-02  -2.7726405e-01   9.1063942e-01  -6.3277589e-01  -4.4086552e-01  -5.7381487e-01   5.3235000e-01  -4.7069564e-02   2.4465957e-01   2.4050041e-02   7.0451141e-01   1.8866065e-01   6.5203703e-01   8.3726653e-01   9.6350388e-01  -3.5875803e-01   3.2727603e-01  -9.2897985e-01  -3.0716734e-01  -6.6749574e-01   5.4234940e-01   9.4995950e-01  -3.7127543e-01  -6.9762832e-01   8.1717216e-02   6.4929608e-01  -3.4343233e-02  -8.7260626e-01   1.1282011e-01  -2.7184679e-01  -6.1716030e-01  -5.6465105e-02   5.7006175e-02  -1.8481323e-01   5.2568445e-01  -5.2133717e-01   1.0549958e-01   4.2233910e-01  -9.7331386e-01  -8.9669267e-01   7.8087989e-01   9.6994712e-01   8.6699640e-01  -2.8468256e-01  -9.7639954e-01  -3.4197882e-01   6.6162130e-01   1.0110783e-01   1.2087900e-01  -1.5823346e-01   2.0976714e-02  -1.1728010e-01   3.8557071e-01  -6.9498864e-01  -1.3958594e-01   2.7337510e-01  -5.9317553e-01  -9.9103146e-01   3.8503125e-01   5.3851032e-01  -5.8103095e-01   3.2478854e-01   7.0060806e-01   1.5828203e-01   1.0323505e-01  -8.2529878e-01  -1.6343711e-01   1.9698465e-01  -1.2888508e-02  -7.9455537e-01   2.6304946e-01  -1.4877934e-01  -7.8394385e-01   5.5101023e-01   6.3578513e-01  -3.9410756e-01   5.8594126e-01  -6.3465651e-02  -4.8271124e-01   7.2675988e-01  -6.2729260e-01   6.8940622e-01   6.0530061e-02  -1.7305606e-01   3.5143746e-01   2.4669412e-01  -9.4634289e-01   8.9099003e-01  -2.0283038e-01  -2.7516037e-01  -5.0729919e-03  -8.6279368e-01  -3.3115864e-01   4.4069963e-01   9.4804417e-01  -2.5132313e-01  -4.9647790e-01  -7.0837396e-01   7.9829288e-01   7.1072772e-02   4.7932936e-01   9.6253986e-01  -2.5561719e-01  -7.6285644e-01   1.4477084e-01  -7.0096986e-01  -6.9318658e-01   5.5918495e-01   3.0004328e-02  -5.2932378e-02   9.3637395e-01   6.2672081e-01  -8.4402776e-01  -2.4406947e-01   1.4542420e-01  -1.6283784e-01  -3.2742232e-01   2.1138804e-02   8.0699176e-01   9.5047318e-03   1.1811274e-02  -5.9324070e-01  -8.8460875e-01  -6.9296280e-01   5.0156867e-01   6.6936454e-01   2.8999719e-01  -4.3203348e-01  -3.6006234e-01   9.7603419e-01  -6.9244594e-01  -7.9852100e-01   8.9814023e-01   3.8354587e-01   7.8759995e-01  -4.4487443e-03   3.9107810e-01   3.8857380e-01  -1.4125016e-01   6.9033723e-01   8.3396954e-01  -6.1462620e-01  -8.1435553e-01   5.0074167e-01  -6.4769983e-01  -5.1731427e-01   5.3811537e-01   4.3725448e-01   1.6292314e-01   1.3851214e-01  -3.7722397e-01   7.1893619e-01  -6.8458048e-01   3.2815230e-01  -1.2019890e-01   7.6250104e-01  -6.0767571e-01  -4.3653130e-01   8.6880939e-01   7.4025466e-01   6.4982237e-01   1.7639431e-01  -4.8388330e-01  -9.9208610e-01   8.2264869e-01  -3.9922486e-01  -1.6281746e-01   2.5918132e-01   5.8714870e-01   1.3009743e-01  -6.3655059e-01  -7.6515156e-01   8.4355863e-01   7.7289367e-01  -5.2014944e-01  -5.4337938e-01  -9.9621783e-01  -9.0762262e-01   5.6691815e-01   9.9288827e-01   8.6962682e-01   5.0530152e-01   1.9958727e-01   2.6252450e-01   2.6066144e-01   1.2483914e-01   3.9696921e-01  -6.4884400e-01  -6.4173625e-01  -4.8269511e-01  -7.8040245e-01   2.7802531e-01  -5.5072507e-01  -5.8879502e-02   5.0628139e-01   3.8817197e-01   3.8070339e-01  -6.3849477e-01  -3.5953787e-01  -9.2978329e-01  -6.0149559e-02   7.4772759e-01  -7.8533871e-01   5.9025213e-01   4.5178082e-01  -3.6098241e-01   5.3857480e-01   4.9597255e-01   5.8179845e-01   2.2999579e-01   3.4578775e-01   7.3922938e-01   3.6387015e-01  -3.6097749e-01  -7.3047474e-01   4.0399061e-01  -2.5970671e-01  -1.6871479e-01  -8.5492826e-01  -5.4621513e-01  -4.4881704e-01   8.5382957e-02  -1.6195643e-01   6.8544275e-01   9.9871498e-01   2.7490024e-01  -3.6297743e-01   5.8539682e-01  -1.4702821e-01   7.5916003e-01   8.6464804e-01   7.1326946e-01  -1.4037596e-01  -9.9201807e-01  -6.0223523e-01  -9.6493183e-01  -6.3266091e-01  -8.9373241e-01   1.5998239e-01   3.1834228e-01  -3.9762179e-01   9.6146507e-01  -1.3393227e-01  -4.5401170e-01   2.0122361e-01  -9.2612231e-01  -3.0450828e-01  -4.4542723e-02  -3.5206538e-01   1.8936814e-01  -1.2975628e-02  -3.9607048e-01   4.0277315e-01  -6.0058577e-01   3.1400582e-01  -2.8218964e-02   1.9583683e-01  -7.2627386e-01   4.9749495e-01   4.8622851e-01  -5.9750911e-01   7.9260883e-01  -7.9059676e-01  -2.0026980e-01  -6.8177893e-01   4.7549020e-01   5.7531190e-03   3.8777844e-01  -7.2611090e-01   9.9172272e-01  -4.1009413e-01   9.7530220e-01  -6.9761716e-01  -6.4805495e-01   8.9462222e-01  -5.2542175e-02   5.5847496e-01  -8.5786622e-01  -2.2655260e-01  -1.7749469e-01  -6.0423818e-01  -7.8308162e-01   1.5020664e-01   8.8736345e-01   5.3827283e-01  -2.4935428e-01   5.7184915e-01   2.5072352e-01   9.3800997e-01   5.5902262e-01   7.1806333e-01   2.7218819e-01   1.6707128e-01  -8.7751705e-01  -9.3409922e-01  -3.6376020e-01   1.5288603e-01  -8.5104796e-01   3.0944548e-01   4.3943629e-01  -2.8216987e-01  -6.8248630e-01   6.8064027e-01   4.1331452e-01  -1.1654876e-01  -2.4786700e-01   7.6341047e-01   6.8239215e-01  -8.4321779e-01   1.5556766e-01  -6.6981161e-02   2.3448189e-01  -8.4857761e-01   7.3012631e-01  -1.1945286e-01   4.5757084e-01  -2.9295494e-01   2.8414954e-01  -3.9148055e-01  -6.0096640e-01   5.6462754e-01  -5.5110883e-01   6.3280497e-01  -8.7965816e-01  -8.4062072e-01   8.7789062e-01   9.1367694e-01   9.0335479e-01   4.2155088e-01   4.3560199e-02   5.8279754e-01  -3.2582471e-01  -4.8788110e-01  -3.3542112e-01   1.7637019e-01  -2.8280304e-01  -6.2688878e-01  -4.9910856e-01  -1.0894296e-01  -2.1761819e-01   9.5952034e-01   3.7823054e-01  -9.1098048e-01   2.7072689e-02   6.7075780e-01
  -4.5121237e-01   8.9936091e-01  -1.5657791e-02   6.8409588e-01   6.2305370e-01   6.4058762e-01   3.1472638e-01   6.6972649e-01   5.9805808e-01   5.9011221e-01   1.0761932e-01  -1.5999771e-02  -3.8273687e-01  -1.6904997e-01  -6.2071506e-01   2.6685161e-01  -4.9472565e-01  -9.4090335e-01  -7.2662848e-01  -5.1643803e-01  -3.1879647e-01   2.7233727e-01   5.7276725e-03   4.4132924e-01   5.6820453e-02   8.8350684e-01   1.6090732e-01  -2.9383492e-01  -6.7682692e-01   6.6297661e-01  -3.9692078e-01   4.9116523e-01  -5.2789186e-01   5.8476776e-01  -7.1608190e-02   9.2399677e-01   3.9278305e-01  -7.1014193e-01   7.7802032e-02   5.3296978e-01  -3.5344755e-01   3.6640879e-01   3.4176387e-01   6.2099084e-01   2.9358579e-01   9.5676803e-01   6.3740603e-01   2.7357648e-01   1.8739641e-01  -1.9067094e-01  -6.9393731e-01   4.1639105e-02   1.5705730e-01   8.0470246e-01  -1.1513269e-01  -4.1805318e-01  -7.6493984e-01   1.4437979e-01   1.4309947e-01  -5.7732653e-01   9.1702512e-01  -8.2176457e-01  -9.8675410e-01   9.6973947e-01   9.2747468e-01  -8.7563744e-01  -6.9502192e-01   2.4821988e-01  -4.1988428e-01   2.9564644e-02   8.7028899e-01  -8.4803793e-01   7.4779065e-01   8.1374697e-01  -5.1471314e-01   7.0615095e-02   5.3059503e-02  -5.9325330e-03  -5.2785883e-01  -1.2738773e-01  -8.0208742e-01  -5.7969113e-01   7.7078207e-01  -7.6959187e-01   6.2637878e-02   5.3528877e-02  -4.0479135e-02  -1.1208399e-01  -4.8349306e-01   2.7020453e-01  -7.4917325e-02  -1.0246604e-01   3.6599146e-01  -3.6853597e-01  -6.9140560e-01  -3.2365541e-01  -9.6737146e-01  -3.8775787e-01  -8.7708461e-01   6.4125408e-03  -1.1117043e-01   5.1779333e-01  -3.3028123e-04  -9.0620252e-01  -5.2639201e-01  -3.0620544e-01   6.9860810e-01  -9.2594324e-01   8.4641953e-02   8.3658776e-01   5.2910827e-01   4.4923592e-01   5.0058518e-01  -9.5422416e-01   3.3208509e-01   5.8670435e-01   9.2347957e-01   4.3977394e-01   4.9619635e-01  -5.2157655e-01   2.0653904e-01  -4.2621432e-01   9.0923386e-01   6.8950404e-01   7.3901208e-01  -4.1626306e-01   1.2054166e-01   3.7975376e-01   9.5292463e-01  -8.8549977e-01  -8.8983472e-01  -7.7858070e-01  -7.3883867e-01  -9.2962664e-01  -8.1948708e-01  -6.0206645e-01  -6.7846876e-01  -5.9950747e-01  -2.0296577e-01  -3.2240920e-01   8.2701112e-01   1.5353893e-01   3.5151804e-02   1.1578331e-01  -7.1105052e-02   9.8884650e-01   5.7727131e-01  -7.7806083e-01   4.3828098e-01   5.5525103e-02  -2.4925862e-01  -5.5167531e-03   8.3577014e-01   7.4964982e-03   7.7396158e-01   9.0219874e-01   7.2678420e-01  -4.6224524e-01  -7.7404088e-01   1.0934660e-01   7.2686706e-01  -7.4889820e-01  -9.2059048e-01   5.8943234e-01   5.0774408e-01   7.3049526e-01   7.8983616e-01  -3.7534643e-01   3.8685156e-01   7.1139243e-01  -7.9538869e-01   3.3049556e-01  -8.3782581e-02   7.1153761e-01   7.8921171e-01  -1.4042896e-01   7.7884893e-01  -8.4439427e-01  -9.6050248e-01   2.8847936e-01  -4.8567632e-01  -5.5827164e-02  -2.6118539e-01  -4.6785783e-01   3.8004888e-01   8.1609374e-01   3.2448997e-01   8.0761237e-01   9.6491496e-01  -2.1655719e-01  -5.9305492e-01  -4.9398636e-01   4.0783803e-01   4.3108232e-01  -4.2809373e-01  -7.4142409e-01   2.0400915e-01  -4.7227091e-01  -3.3346862e-01   3.4825900e-03  -7.8232446e-01  -3.1998772e-01   5.2067235e-01  -5.0212556e-01   3.3813445e-01   5.2019237e-01  -7.2163811e-01  -6.5330092e-01   3.5982421e-01   6.6960606e-03   4.0312292e-01  -2.4067723e-01   4.9898016e-01   7.2753076e-01  -7.2467384e-01  -5.7307772e-01   7.4985181e-01  -4.1835139e-01   9.2844638e-01   2.1134800e-01   9.4499823e-01  -5.8920887e-02   5.0071300e-01   8.7040146e-01  -8.4243213e-01  -6.5795348e-01   9.2645312e-01  -1.4710147e-01  -8.9641852e-01   1.8969079e-01   3.8098106e-01  -9.2149935e-01   3.1321437e-01   4.0105601e-02   8.3886923e-01   7.3296226e-01   7.3832580e-01  -6.9172910e-01   3.6944848e-01  -7.4636999e-01  -2.1467009e-01   2.7239020e-01   4.4727873e-01   6.3457368e-01  -2.1272364e-01  -1.9723912e-02   7.0821249e-01   3.5340134e-01  -2.9582696e-01   2.3496654e-01  -1.0703504e-01  -4.2697888e-02  -5.9036006e-01   7.8501589e-01  -5.3796263e-01   1.7927911e-01  -2.6417035e-01  -9.7912722e-01  -1.7745997e-01   7.5739951e-01  -6.5180558e-01   3.0719510e-01  -6.5031681e-01  -2.8964436e-01   5.9060109e-01   5.2995646e-01   9.4598087e-01  -2.6034115e-01   5.3815274e-01   4.0974599e-01   9.0249147e-02  -7.4343638e-01  -7.0415207e-01  -6.7618908e-01  -6.5083450e-01   5.4787290e-01   7.1517413e-02   7.8498083e-01  -5.2912889e-01   7.5652334e-02  -9.9280249e-01   2.8595817e-01  -5.0383354e-01   5.6828968e-01   8.7947672e-02  -1.2306638e-01   8.9299361e-01  -6.6310050e-01   8.1099999e-01  -7.5455800e-02   5.5340661e-01  -7.3710959e-01   7.0117526e-01   6.6804878e-01  -7.9214727e-01  -9.4951723e-01   9.9660558e-01  -2.7907090e-01  -1.3395171e-02   3.7045464e-01  -3.8067297e-01   8.7169160e-01   2.3992868e-01  -7.3194457e-01  -4.9507110e-02   9.8178461e-01  -7.7683317e-01   5.8731571e-01   6.6283294e-02   5.6604099e-01  -8.4466457e-02   6.3796133e-03  -3.0418049e-01  -9.2283391e-01   9.4138250e-01  -9.8028734e-01  -7.2176367e-01   9.7760852e-01  -5.7271942e-01   2.7010860e-01  -5.1341311e-01  -1.3297252e-01   8.4361013e-01   9.2922599e-02   2.3697049e-01  -3.2942810e-01  -1.9020611e-01  -1.8964158e-01   3.8164965e-01  -4.0708754e-01   7.4591720e-01  -5.6659552e-01  -5.8846280e-01   6.2754551e-02  -6.1667321e-01  -8.3598101e-01   3.7364089e-01   8.0116837e-01   5.8355882e-01   2.7016767e-01   8.2453799e-01   5.5080053e-01  -2.9996189e-02  -1.1910049e-02  -3.6294595e-01  -1.8635325e-01   1.0292842e-02   3.4336656e-01  -5.1034540e-01   3.8332424e-01   5.2157358e-01   5.8903652e-01  -9.4439678e-01   2.4659908e-01   7.8169277e-01   2.8149306e-01  -2.1081704e-01   9.4106781e-01   1.9110534e-01  -8.8605851e-01  -7.2255123e-01  -1.1326651e-01   8.4710695e-01  -9.7134904e-01   7.3549093e-01  -8.8539363e-01   1.2149318e-01  -6.3681989e-01  -6.0456219e-01   6.4374624e-02  -8.8414595e-01  -5.0304420e-01  -8.5991518e-01   2.8898302e-01  -1.0714067e-01  -6.1807897e-01   2.6485598e-01   7.8183934e-01   3.8119300e-01  -7.8512036e-01   1.7157476e-01  -6.2169017e-01   2.2648865e-01  -6.7900419e-01   6.8230787e-01  -2.0933453e-01   8.0647679e-03  -1.6331082e-02  -4.6239457e-01   4.9814104e-02  -8.0784093e-01  -4.2841105e-01   3.1408628e-01  -2.7822925e-02  -7.9493233e-01   8.6625763e-01   1.1712154e-02  -7.5406123e-01   6.3542557e-01   2.0456954e-01   4.1799409e-01  -1.2904805e-01   9.9065442e-01   4.0382485e-01  -7.6746934e-01   9.4240052e-02   4.5529949e-01   6.5264339e-01  -5.3852184e-01   6.4240571e-01   2.5525636e-01   9.0030192e-01   6.3645477e-01  -4.5768297e-01  -7.8533297e-01  -6.9864403e-01  -3.8383013e-01  -9.8775504e-01  -4.5182876e-01  -7.7189576e-01  -5.3243516e-01   6.6455805e-01   9.4425410e-01   5.0153320e-01   7.6467692e-01  -3.6298092e-01   2.0173224e-01   6.0619159e-02  -1.2748327e-01   7.8469765e-01   2.0163129e-01   7.4112842e-01   4.4504101e-01   8.6798731e-01  -9.6715982e-01   9.9074968e-01  -4.5202518e-01  -4.6966332e-02  -3.8535973e-01   1.5734137e-02   2.2021937e-01  -4.4017872e-01  -4.3144229e-01  -8.3674427e-01   2.1445019e-01  -5.3032084e-01   6.2162851e-01   7.7259629e-01  -7.9858857e-01   9.5504499e-01  -9.0118518e-01  -2.8128694e-01   1.1206435e-01   6.5698423e-01   5.5411002e-01   2.2677988e-01  -4.9271411e-01  -5.1410483e-01  -3.3134457e-02  -5.0357633e-01   4.9642536e-01   1.7511065e-01  -4.1474165e-01   9.1098556e-01  -5.1113341e-01   2.3476652e-01  -7.3186396e-01   5.0325846e-01   7.4148586e-01  -1.7737812e-01   2.8436908e-01  -7.5189885e-01   5.8025691e-01  -5.4827145e-01   5.0089159e-01  -7.2043875e-01   6.2918592e-02  -9.5202940e-01  -3.0193392e-01  -9.3955453e-01   7.2425563e-01   5.3375865e-01   4.6944174e-01   5.4957567e-01  -7.4548451e-01  -4.6364530e-01   4.9651949e-01  -6.7125304e-01   3.1186886e-01   4.2298043e-01   6.0727479e-01  -8.8620706e-02   8.7590433e-01   2.2774222e-01  -2.9902630e-01   8.4987331e-01  -1.1185710e-01  -6.5958521e-01  -7.7966230e-01  -4.8439728e-01  -4.7479243e-01  -7.1092559e-01   1.5462428e-01  -7.5860736e-01   8.3964511e-01   6.3125640e-01   2.3882945e-02   2.5968952e-01   4.0419415e-01  -5.7831364e-01  -6.9589376e-01  -1.5931312e-01  -5.6754180e-01  -8.8668251e-01  -6.3505784e-01  -4.5882802e-01   9.0519375e-01   8.1812500e-02  -8.9731886e-01  -2.3022798e-01   2.1020676e-01  -6.6131045e-01  -3.8280766e-01  -4.9356202e-01  -9.8300646e-01   8.3261630e-01  -9.8404559e-01  -9.2765123e-02   3.4237593e-01  -7.2969319e-01  -8.6953067e-02   1.6745731e-01  -9.9917958e-01  -6.3515528e-01   4.4366224e-02  -8.5776334e-01  -7.3860031e-01   8.5936246e-01   7.3220516e-01   4.4064524e-01   3.1094193e-01   3.2245387e-01   5.5996278e-01   3.9764539e-01   4.0259645e-01   3.6357861e-01  -6.9839204e-01  -8.8690311e-01   4.1041367e-01   4.9929102e-01  -7.0160156e-01   9.8667594e-01  -9.6553224e-01  -8.8347862e-01   3.8122511e-01  -8.6118442e-01   6.2276224e-01  -1.0912237e-01  -8.5809232e-01  -9.1619909e-02  -4.8666442e-01  -4.8734283e-01   3.3569685e-01  -6.2545588e-01   6.3656082e-01  -7.5738272e-01  -3.7790198e-01  -9.9752488e-01   3.8484773e-02  -2.3344236e-01   8.8726328e-01  -8.7202924e-01  -9.4980392e-01   1.0738997e-01  -2.8740110e-01  -7.1551798e-01   3.5353243e-01   7.9915440e-01   3.9403693e-01   7.5750656e-01   9.5953386e-01   5.6665224e-01  -3.7107835e-01   4.1354445e-01  -7.5034587e-01  -6.6206924e-01  -8.7582434e-01  -5.1865246e-01  -7.8954996e-01  -1.6960620e-01   6.3077502e-01   2.8193692e-01  -8.7174838e-01   4.4566586e-01  -6.6409356e-01  -6.4313146e-01  -2.9140807e-01  -4.6891021e-01   6.7660114e-01   4.5074229e-01   9.9928404e-01   2.0753142e-01   9.9436024e-01   7.6586255e-01  -5.6978007e-01  -7.2260007e-01   7.7524990e-01   8.8144141e-01  -6.3043098e-01   7.5581807e-02   4.6488844e-01   9.8711609e-01  -3.3710796e-01   5.5544715e-02   4.9369385e-01   4.5184964e-01  -3.3471866e-01   8.9063530e-01  -1.7188378e-01  -6.7290445e-01   3.1759333e-01   8.8591634e-01   2.5756299e-01  -7.4866034e-01  -9.5738360e-03  -5.8819300e-01   1.4259509e-02  -5.7300635e-02  -3.6012440e-01  -2.5258071e-01   3.5002238e-01  -6.1519077e-01  -5.7428612e-02   2.5351077e-01   8.1270897e-01   7.7026185e-01  -8.8456411e-01  -7.3239445e-01  -5.9810609e-01   7.2157893e-01  -9.3995912e-01   2.5326408e-01  -5.7497329e-01  -7.6694613e-01  -8.7873484e-01  -7.4040562e-01   6.0854424e-01   9.2764945e-01  -8.4839470e-01  -4.1744583e-01  -2.5169244e-01  -3.5904140e-01   4.2717481e-01   2.4789486e-01   1.2805599e-01   1.0265513e-01   1.6326023e-01  -6.1705781e-01   9.5647679e-01  -4.0426368e-01   8.8566279e-01  -9.8525789e-01   2.7003722e-01  -4.4716985e-02  -9.0594293e-01  -6.2534966e-01  -4.3193673e-01   8.6834355e-01  -9.8797903e-01  -8.6585697e-01  -2.1232219e-02  -8.5225374e-01  -9.3124364e-01  -2.0519917e-01  -1.8348202e-01  -9.8338218e-01   9.3485361e-02   2.7577646e-01  -3.7666099e-01   2.8822636e-01  -8.6677423e-01   7.9891983e-01  -7.9183236e-01  -2.4137874e-01  -3.5258476e-01  -9.3097885e-04   1.9727896e-01  -9.7688419e-01  -6.9338769e-01   5.2796717e-01   3.6561760e-01   3.8386690e-01  -2.6860629e-01  -2.6698316e-02   9.2980122e-01   6.2454969e-01   9.1039890e-01  -5.1962418e-02   7.6856632e-01  -7.3609517e-01   2.4022532e-01  -6.1429485e-02   9.5829737e-01  -1.3570612e-01   1.7694258e-01  -6.6227764e-01   4.4945461e-01   8.0847987e-01  -6.4071604e-01  -1.6681705e-01  -2.0229589e-01  -6.7684980e-01   7.6708396e-01  -7.9649581e-01   6.8230022e-01  -3.1624158e-02  -5.6531584e-01  -4.0159374e-01   2.9351426e-01  -6.2625334e-01  -7.0882072e-01   5.7987340e-01   9.9537692e-01   5.4384566e-02   2.8229296e-01   4.9586302e-02  -6.0145969e-01  -1.8109676e-01   7.0014694e-01   5.6840183e-01  -6.8103294e-01  -9.7953243e-01  -9.9739032e-01   9.4593772e-01   9.2610606e-01   9.8046668e-01  -3.4387738e-01   2.2630708e-01  -5.3522476e-02   2.8604239e-01  -2.0092648e-01  -7.3199580e-01   9.2013342e-01   8.7917637e-01   7.1869841e-01  -2.8364327e-01   4.3720745e-01   2.9564296e-01  -9.1231002e-01   5.9498603e-01  -2.8231027e-01  -9.3947058e-01   7.1438105e-01   1.0146361e-01  -6.1498279e-01   4.1911842e-01   1.5619533e-01   1.8277017e-02   4.6161766e-01   1.0107010e-01  -2.9677006e-01  -1.8234241e-01  -4.6620290e-01   8.3441332e-01  -4.1500252e-01  -1.1091314e-01   2.6888122e-01  -2.4461601e-01   4.4063958e-01   2.5513270e-01  -3.2492221e-01   5.7803934e-01  -5.7628984e-01   3.7205510e-01   4.2116495e-01  -6.2281888e-02   4.6099799e-01  -6.3075769e-01   5.7207945e-01  -7.6941923e-01   8.2849042e-01   9.4260875e-01   5.8714393e-01   5.5122683e-01   3.4158662e-01   6.4379615e-01  -5.0109316e-01   8.6690313e-01  -4.0250201e-01   4.6525684e-01  -4.4154740e-01  -8.4314724e-01   9.2772838e-01  -7.2784102e-02  -9.9624563e-01  -2.5294146e-01   2.6465124e-01   4.6174838e-01   1.6509671e-01  -1.1465415e-01  -3.1841788e-01  -3.1075459e-01  -6.4361956e-01  -1.4808688e-01   8.3832255e-01   3.7654363e-01  -9.3764868e-01   5.6972751e-01  -8.8123818e-01  -8.6706703e-01   5.4554468e-01  -2.8199970e-01   2.7113141e-01   5.0031498e-01   2.2704142e-01   5.6235490e-01   2.7862723e-01   2.0525470e-01   9.9493173e-01  -8.9508435e-01   1.2620906e-01   9.1101026e-01  -6.6844079e-01  -2.3682728e-01  -9.6508475e-01   9.3679993e-01  -5.6133654e-01   2.8693738e-01  -9.8153506e-01   9.6888181e-01   1.3274564e-01   4.9790070e-01  -7.1823916e-01  -9.3955404e-01  -2.2550896e-02  -8.7385666e-01   4.2499215e-01  -7.1325399e-01   9.2627474e-01  -7.3491722e-01   8.9777508e-01  -7.0438311e-01  -7.7528301e-01   7.0941862e-01  -8.0732626e-01  -4.0752463e-01   7.1874551e-01  -8.8421358e-02  -4.1511532e-01   9.9794773e-01   2.5795591e-01  -5.2412514e-01   8.1680425e-01  -5.8209435e-01   9.1373694e-01   5.3914290e-01   2.0221697e-01   9.1919723e-01   3.9085688e-01   4.7527370e-01  -4.4734891e-03   9.7942501e-01   2.3444295e-01   2.5451074e-01  -1.8876219e-01  -3.4526923e-01   5.7108267e-01   3.2828863e-01  -6.0543770e-01   8.8688304e-01  -5.2956772e-01  -7.7536042e-02  -6.2889148e-01  -2.2442852e-01  -2.5870048e-01   7.3825588e-02  -1.2469790e-01  -3.3063314e-02  -5.1346715e-01  -8.9707147e-01   7.3035387e-01  -3.7999485e-01   1.0431537e-02   8.4558855e-01   2.7679652e-01  -2.4502862e-01  -9.5582098e-01   8.0290497e-01   3.4393037e-01  -7.9583632e-01  -3.2409024e-01  -8.9767242e-01   3.4268958e-01   7.1414873e-01   9.6236909e-01  -3.1729512e-01   6.6243403e-01   7.6974367e-01   9.1738245e-01  -5.9272458e-01  -6.9171457e-01   8.2569490e-01   7.8711942e-01  -9.4983817e-01   1.7231482e-02   9.9428704e-01  -9.6909412e-01  -9.8628466e-01   7.1112783e-01  -6.7542688e-01  -6.8171824e-01   5.9150303e-01  -6.6622102e-01  -1.6486074e-01   7.3826531e-01  -3.7886326e-01   1.1477873e-01   7.5335789e-01  -4.8460956e-01  -6.3299235e-01  -1.5242604e-01   3.1756275e-01   3.9826572e-01  -9.7247378e-01   1.0488404e-01   8.1126572e-01  -8.2651049e-01   4.0090680e-02  -4.6920638e-01   7.1946551e-01   2.1163299e-01  -8.1385937e-01   4.4200238e-01  -1.8926157e-01   5.4499869e-01   4.0348989e-01   3.0040909e-01   9.8339096e-01   6.9708021e-02   3.7492812e-01   8.2071247e-01   8.1525617e-01   8.1197446e-01  -5.1187611e-01   1.5354017e-01   2.7816778e-01   8.2451641e-01  -8.0827332e-01  -4.6466915e-01  -4.0008550e-01   5.9078829e-01  -9.8914628e-01  -9.2175724e-01  -1.5951103e-01   3.7235375e-02  -2.0108168e-01  -6.6038822e-01  -9.8451491e-01   4.7566772e-01   6.2829614e-01   9.0197740e-01   2.6066303e-01  -9.8542739e-01  -9.0213455e-01  -1.7871248e-02   7.5071510e-01  -4.4383986e-01   5.1840236e-01   2.7467678e-01  -5.1633241e-01   1.5887057e-01  -6.2713895e-01   8.3522304e-01  -5.3599161e-02  -8.1630843e-01  -3.4858332e-01  -7.9528924e-01   3.6305297e-01  -4.3589178e-01  -2.1914026e-01   8.8351690e-01  -7.8200178e-01  -8.5127092e-01   1.8043362e-01  -9.3084449e-01   8.5642818e-02   2.6482967e-01  -3.8085960e-01  -7.4612971e-01   5.4077805e-01  -2.2176650e-01  -7.3804157e-01   9.1860989e-01  -1.6891168e-01  -3.5354170e-01   1.1693005e-01   7.2699169e-01   9.9021562e-01   1.2423428e-01   2.9843240e-01
  -2.9471825e-01   1.8452086e-01  -1.6037634e-01  -1.7515218e-01   4.6700425e-01   3.5599144e-01   9.9419645e-01  -9.7413556e-01   6.6363836e-01  -5.7768252e-01  -3.7410049e-01  -5.2357383e-02   4.3858232e-01   1.4394317e-01   6.9884777e-01  -2.1851829e-01   2.4117522e-01  -1.6496144e-01  -4.4948982e-01  -4.1592355e-01   5.3171843e-01   9.9106195e-02   6.8481782e-01  -6.4053800e-01  -9.0286660e-01   1.1572479e-01  -2.6212523e-01   6.5134225e-01   8.5314459e-01   6.0907721e-01  -4.9316333e-01   3.1921743e-02   6.0584916e-01   6.3470271e-01   2.1917093e-01   9.5045704e-01   1.2913224e-01   1.4930561e-01   7.9706933e-01   5.5725048e-01  -2.4252187e-01   6.5940122e-01  -5.1692506e-01  -7.0051782e-01   6.7450741e-01  -7.1881806e-01   8.2330687e-01  -2.3942999e-01   9.5396597e-01  -9.4301830e-01   4.3655442e-01   5.0021871e-02  -9.7030988e-01  -6.7889751e-01  -7.9041052e-01  -4.1478271e-01  -2.5246443e-01  -2.0023127e-01  -9.8669497e-01   8.0201288e-01  -7.4774777e-01   9.4994439e-01   8.5135400e-01   7.0561794e-01  -9.4658976e-01   6.3950051e-01  -7.4061964e-01  -5.7798248e-01   2.6161374e-01  -1.2793541e-01   5.0150068e-03   3.0034029e-01  -4.7013685e-01   4.3787716e-01   7.3255658e-01   2.8487906e-01   3.1122019e-01  -4.0263616e-01   7.1058021e-01   2.8981976e-01   3.9847395e-03  -6.7437132e-02  -4.0035713e-01   3.7219354e-01  -8.8844151e-01   4.8773104e-02   8.8786844e-01  -9.7363551e-02  -6.9382058e-01  -5.3774235e-01  -1.9758294e-01   5.5722440e-02  -7.3516404e-01   1.4483692e-01  -1.9031557e-02   5.1554467e-01   2.4169704e-01  -3.6811032e-01  -2.4717279e-01   4.2832107e-01   5.7200732e-01   1.3416279e-01   2.8442495e-01   8.3416462e-01  -8.8690373e-02   9.2819649e-01   8.0952359e-01  -7.7718345e-01   4.3044085e-01   6.6912604e-01   1.3190713e-01   6.9422811e-01   2.4071875e-01  -3.4546103e-01  -3.6889094e-01   4.8956439e-01  -8.0994240e-01   6.9472702e-01   9.4363251e-01   7.6790868e-01   1.9435438e-01   6.6779362e-01   3.4168042e-02  -9.6770711e-01  -8.9429601e-01   1.8407720e-01  -3.2233562e-02  -1.9175824e-01  -9.2861146e-01   4.6392023e-01  -5.4320272e-01   5.8589540e-01  -3.7937835e-01  -2.3556308e-01  -7.5610388e-01   1.9333286e-01   6.7410088e-01   8.0455336e-01   3.7011826e-01  -3.0974279e-01   1.4999203e-01  -1.3540317e-01   3.5255391e-01   2.0544351e-01   5.5940695e-01   7.1659231e-01   3.3331150e-01   6.8196461e-01  -5.3578779e-01  -6.9027138e-01  -7.1656225e-01   2.5558773e-01   8.2792025e-01   3.8435498e-01   9.7161092e-01  -9.0042788e-01  -9.9501028e-01   4.5754885e-01  -3.6236894e-01   8.0088364e-02  -3.8674425e-02  -5.6331479e-01   6.0994127e-01  -3.4844104e-01  -8.7380757e-02  -5.9121568e-01  -8.7748194e-01  -3.6078317e-01  -1.6903061e-01  -1.0359806e-02  -7.7877419e-01   3.2251616e-01   6.9194009e-01   1.3452413e-01  -7.4512683e-01   8.4239187e-01   7.9192101e-02  -1.1890309e-01   3.5229014e-01   2.5449723e-01  -9.2175994e-01  -2.8690112e-01   6.9530661e-01   4.0970074e-01  -4.7702781e-01   1.9339033e-01   7.2439452e-02  -3.7488331e-01  -5.6867124e-01   3.9280048e-01  -9.3013628e-01  -3.1134075e-02  -1.5705093e-02   4.6916198e-01  -7.2264025e-01   2.6916537e-01  -2.3815858e-01  -6.5152171e-01   6.5228072e-01   1.5958779e-02   2.3928366e-01  -3.7239533e-01   2.7170337e-01   5.4588938e-01   1.6799424e-01   9.6961690e-01  -4.9749101e-01   1.3948419e-01  -9.6125714e-01   6.9514699e-01   3.2727771e-01   9.8438610e-02   4.7838779e-01  -3.0050167e-01   5.4934871e-01  -7.7622740e-01  -6.7430742e-01   7.5148595e-01  -4.9849822e-01  -1.3970980e-01   9.7585738e-01   7.4768608e-01  -9.7561966e-01  -7.4403016e-01  -8.6462319e-01   2.7971749e-01   2.0824039e-01  -7.7396800e-01   1.3838335e-01   2.9878238e-01  -5.8712828e-01   7.3252359e-01   7.6435643e-01   5.3440704e-01  -3.9592698e-01   7.1665426e-01   7.5635379e-01   7.1808711e-01  -8.0902939e-01   1.8707091e-01  -2.5357906e-01   9.2064668e-01  -7.6922505e-01   2.5648147e-01  -6.1975874e-01   5.8921179e-01  -4.5908861e-01   1.9962771e-01  -2.5533323e-01  -9.9109357e-01   1.8259907e-01   9.3672857e-01   3.6683113e-02  -1.8387450e-01   6.2707699e-01  -6.3257121e-01   9.5362101e-01   5.7282309e-02  -8.8144043e-01   2.1055357e-01   4.7503208e-01   6.4546929e-03  -5.9875195e-01  -3.2236492e-01  -4.5510065e-01   2.0062508e-01  -6.9142702e-01  -6.1682955e-01  -7.4696867e-02  -9.5648708e-01   9.9621787e-01   8.7919505e-01  -6.3651632e-01   9.0305991e-01  -7.3470695e-01  -9.7244954e-01  -3.2089274e-01   2.8920595e-01   5.2494099e-01   5.1217794e-01   9.7890187e-01  -1.5877822e-01   4.1109120e-01  -1.1948574e-01  -7.2141365e-01   8.6885260e-01   1.0110529e-01  -2.0918981e-01   3.1205826e-01  -2.1138328e-01  -5.8002968e-01   1.5309731e-01   4.4747503e-01  -2.8237601e-01  -5.5287005e-01  -7.0844347e-01   2.5817712e-01  -8.5936277e-02   7.2596622e-01   2.8569307e-01   2.2836492e-01   1.1220375e-01   6.4924773e-01   3.6759758e-01   6.2090317e-01  -8.8092547e-01   6.9432898e-01  -1.3709995e-01   7.0823719e-01  -4.5570673e-01  -8.0327654e-01   4.1882056e-01   3.6781052e-01   3.6362549e-01   8.5601153e-01  -8.6414666e-01  -7.5839153e-01   1.9859079e-01   8.1057848e-01  -3.3844020e-01  -7.1337491e-01  -9.7070219e-01  -4.1719852e-01  -1.7504094e-01   4.2161949e-01  -3.3196775e-01  -5.6135129e-01   6.2632293e-02  -3.6080597e-02   5.4105866e-01   4.3186679e-01   9.6152707e-01  -3.7766355e-01  -1.1238539e-01  -2.6158320e-01   7.2439917e-01   4.1071111e-01  -3.0431053e-01  -5.1191744e-01  -1.3329562e-01   4.7974935e-01   3.9200732e-01   2.4405783e-01  -1.0856306e-02  -2.0211880e-01  -6.6521444e-01  -6.1165607e-01   7.3950948e-01   7.5270719e-01  -8.1534744e-01  -9.1409806e-01   1.4044850e-01   3.1493936e-01   9.8603417e-01  -2.2488024e-01   2.8150754e-01  -3.6575994e-01   6.4131752e-01  -1.5587906e-01   2.1007910e-01   5.5551022e-01   3.4950835e-01   4.5575993e-01  -9.4398755e-01   2.7350592e-01   3.1005973e-01   8.0224715e-01   3.0402985e-01   5.4577051e-01  -7.9059394e-01   2.9852357e-01  -3.7686813e-02   1.2771914e-01  -9.2011503e-01  -5.7549020e-01  -6.3838690e-02  -8.9354562e-01   4.2766743e-01  -6.6085750e-02  -5.1850558e-02  -9.1529523e-01  -5.5383382e-01  -7.9878594e-01   2.3104499e-01  -9.9876288e-02  -3.1711039e-01  -4.6554364e-01  -2.3956859e-01   4.9309535e-01   4.8598222e-01  -6.4182132e-01   4.2492259e-01  -4.9118816e-01   8.3835920e-01  -8.3813145e-01  -1.6843002e-01   7.2852929e-01   7.6252225e-01  -7.3655927e-01  -6.0610242e-01  -8.4766382e-01   2.9917236e-01  -4.7586320e-02   2.8992714e-01   8.8101757e-01   5.1402453e-01  -3.1799156e-01  -3.4988059e-01   2.7861434e-02  -1.1418100e-01  -2.4610897e-01  -8.0204340e-01   7.5778059e-01  -5.7496725e-01  -7.9339301e-01  -7.8476799e-01  -5.9245528e-01   8.0046373e-01   8.0554172e-01  -6.8622383e-01  -7.6064687e-01   9.3835201e-01  -8.2555560e-01  -8.8879909e-01   4.1778235e-02   6.0681220e-01  -9.5706121e-01  -5.2832198e-01  -7.3620394e-01   9.7919218e-01   2.7199874e-01   2.4434444e-01   2.4548974e-01  -7.0562569e-01   1.7886765e-02  -9.9444068e-01  -4.0885171e-01   2.1926767e-01   5.8738159e-01   2.9902794e-02   3.1468565e-01   1.0414040e-01  -1.4134465e-01  -7.9713057e-01  -7.5636766e-01   9.2310796e-01  -1.3008726e-01  -6.7016567e-01   3.7909671e-01  -7.5430992e-02   7.7415469e-01  -4.6311871e-01  -9.1539184e-01   8.1162838e-01   1.9805587e-01  -5.2048201e-01  -1.0472644e-01  -2.8239965e-01   7.1324575e-04   4.6277648e-01  -6.8924458e-01  -7.3938633e-02  -3.9404932e-01   1.9772537e-01   6.8250950e-01  -6.3470530e-01  -9.5144011e-01  -8.8121148e-01  -5.3244555e-01   5.0516393e-01   3.9988083e-01  -3.1521522e-01   5.2415900e-01  -6.5128296e-01  -9.4376924e-01  -8.3105870e-01   8.9158403e-01  -8.1540175e-01   8.0942498e-01  -5.8542544e-01  -2.5125488e-01   9.5633371e-01   5.8618158e-01  -9.5708253e-01  -2.9783641e-01  -1.8322041e-01   6.6593645e-01   2.6292682e-01  -7.1785916e-01   7.5980297e-01  -8.3958260e-01  -9.5919131e-02  -7.7524416e-01   3.6233452e-01   4.0524358e-01   6.1027534e-01  -7.5361321e-01   6.0578266e-02   2.1396978e-01  -8.9337305e-01   2.6244992e-01   2.8320841e-01   9.3576667e-01  -8.5988106e-01   6.7424275e-01   8.0792366e-01   4.3409229e-01   2.3194091e-01  -8.2498848e-01   7.6244398e-02   1.6875849e-01  -7.3514544e-01  -3.1101426e-01  -9.0158948e-01  -9.3325894e-01  -7.3670572e-01  -7.0957589e-01  -7.7046130e-01  -4.8105738e-01   6.0904750e-01  -2.1280514e-01   4.8450580e-01  -7.7955470e-02  -6.6168370e-01  -5.4303595e-01  -3.9452941e-01  -4.6052247e-01   9.0267180e-01   3.1524483e-01  -7.2177383e-01  -6.3030065e-02  -3.6546547e-01   6.3380610e-01   5.2908435e-02   4.4519202e-01  -3.6698319e-01   4.7383258e-02   6.1543694e-01   4.0928349e-01  -5.0703464e-01  -3.7403364e-01  -7.7487159e-01   7.3109492e-01   5.4529888e-01   9.5532634e-01   6.0498071e-01   3.8220923e-01  -6.3207408e-01  -3.9890713e-01   8.4593085e-01   7.4662454e-03   1.3817444e-01   3.3135345e-01  -6.5615792e-01   3.6170199e-01  -7.6281781e-01   6.4425985e-01  -7.2544514e-01   7.0128856e-01  -3.2553524e-01  -8.9801040e-01  -2.1003859e-01  -8.5601775e-01   2.7335797e-01   5.5198488e-02  -2.1881872e-01  -8.6080965e-01   4.0561111e-01   7.2360459e-01  -5.7575342e-01  -2.2258586e-01   8.2721540e-01   8.5900230e-02  -5.4162329e-01   8.0979329e-01  -6.7228174e-01  -9.8521816e-01  -2.2212626e-01  -4.6366013e-01   5.4937426e-01   1.9730648e-01   6.3958878e-01   7.9015718e-01  -2.1018906e-01   3.6324699e-01  -9.1100489e-01   4.0113740e-01   8.4105606e-01   3.8374709e-01   8.0981989e-01   5.2650929e-01   1.2130218e-01   8.3766882e-01  -9.3670242e-01  -3.6873475e-01   2.4463446e-01  -8.2365705e-01   6.4408735e-01   8.7732929e-01   9.0056452e-01   2.3682007e-02   4.8335068e-01  -1.5590818e-01  -2.9084046e-01   8.9792155e-01  -8.6873808e-01  -2.0164919e-01  -5.2044201e-02  -9.3903630e-01  -1.3446906e-01   6.3485994e-02   2.3446607e-01   8.9299860e-01  -6.9259880e-01  -4.0409541e-01   4.7678645e-02  -4.4948301e-02   6.2564031e-01   9.6199609e-01  -6.2786147e-01  -1.4285403e-01   6.4310955e-01   3.2891531e-01   8.0651012e-01  -4.5838910e-01  -3.5419500e-01   8.1092926e-01   2.3971879e-01  -2.6030045e-01   5.5055034e-01   7.4774019e-02   1.8864385e-01   7.4832402e-01   5.8574840e-01  -7.8349601e-02   6.3151514e-01  -3.8817540e-01   8.8252043e-01   8.3406954e-01  -6.9457057e-01   2.2771770e-01   1.7388166e-02   6.0178985e-01   2.0146320e-01   7.9575358e-01  -3.7430813e-01  -4.7633572e-01   8.6867233e-01  -5.9576460e-01   5.7787514e-01  -2.0437490e-01   8.9300781e-01  -2.0590407e-01   3.4353258e-02   4.5594841e-01  -4.1717184e-01   1.6119080e-01  -5.3372106e-01   7.2107074e-01  -2.4940745e-01   7.0076589e-01  -7.0394719e-01   6.5878748e-01   7.4221132e-01   7.5264042e-01  -6.8568581e-01   3.3812276e-01  -1.7419183e-01   3.9883792e-01  -7.6417093e-01  -4.3168307e-01  -4.4999882e-01   8.4550038e-01  -5.6926035e-01  -9.9654223e-01   8.7159427e-01   8.6951028e-01  -1.2150987e-01   9.6585674e-01  -1.9771336e-01   7.7766067e-01  -5.0350654e-01  -3.2620629e-01  -4.6766966e-01   3.6702266e-01  -4.5517242e-01   1.9051125e-01  -2.4824488e-01   8.3306062e-01  -8.1592244e-01   9.6018647e-01   2.7620968e-01  -9.1846551e-01  -2.6642256e-01  -6.8633776e-01  -6.7468881e-01  -6.7101325e-01   4.3584429e-01  -6.0404714e-01   8.4847762e-01  -8.5696120e-01  -4.0749663e-01   3.2319099e-02   6.3141499e-01  -7.9398894e-01   6.6046537e-02  -6.7444673e-01   3.9529000e-01  -3.6175054e-02   4.5788923e-01  -8.9828361e-02   8.7893623e-01  -1.7789768e-01   1.0432470e-02  -7.1702336e-01  -1.2035459e-01  -1.4579974e-01   7.4306158e-01   4.7198804e-01  -7.1335073e-01   2.7886894e-01   4.9276730e-01  -2.9818992e-01  -8.5489966e-01   2.9238651e-01   1.2474848e-01   8.3156522e-01   5.3892566e-01  -9.6734620e-01  -6.1201464e-01  -5.8300242e-01  -6.3179151e-01  -6.4716768e-02  -7.3374641e-01   2.5586388e-02  -3.4097802e-02   2.8262780e-01   1.8475728e-01   9.4769557e-01   1.8251690e-01  -6.0750623e-01  -6.7582318e-01  -3.0308075e-01   9.9428731e-01  -2.8986411e-01   2.6756371e-01   6.8136866e-02   3.8074846e-01   3.8641511e-01   6.9988411e-01  -5.8852428e-01   5.5705351e-01  -2.1501935e-01   7.5904622e-01   1.4184244e-01   4.9288713e-02  -2.8147911e-01  -3.6874399e-01  -1.3352137e-01   3.1633874e-01   3.3610891e-01   2.3995888e-01   1.3688345e-01  -7.1409703e-01  -3.6621155e-01  -5.9603484e-01   6.5429068e-01  -8.3046647e-01   4.6594064e-01  -4.9341896e-01  -6.8756654e-01   3.5577924e-01   3.7781573e-01  -5.0904862e-01   6.4025820e-01   3.2342958e-01  -1.9133061e-01  -9.2827597e-01   9.6043384e-01  -7.4131563e-01  -4.9633111e-01  -1.9883493e-01  -9.6473559e-01   1.8928170e-01  -1.6121099e-01  -7.1366665e-01   5.6800999e-01   5.4814906e-01   7.9141095e-01  -7.7453425e-02   7.4247723e-01  -8.7851834e-01   5.9077141e-01  -9.0527301e-01   2.2417948e-01  -9.3982509e-01   9.4318008e-01  -2.8221645e-01  -3.2994241e-01   1.1472716e-01   8.2022701e-01   6.5883097e-01  -2.1597913e-01   6.9051382e-01   8.9500114e-01  -7.2522583e-01   7.0489674e-01   7.3941071e-01  -5.5506671e-01  -8.3152276e-01  -7.5802150e-01  -9.2573368e-01  -8.0527671e-02   4.3807323e-01  -5.9798675e-01   5.4692137e-01  -6.4519881e-01  -5.4219033e-01   4.1836794e-01  -7.4793385e-02  -3.0522871e-01  -4.5333877e-01   8.6416927e-01  -5.5145432e-01  -4.8427219e-01  -3.0266203e-01  -9.0530817e-01  -6.6590103e-01  -2.3870937e-02   9.1275885e-01   6.4821648e-01  -1.0217867e-03  -1.1432394e-01  -4.9780703e-01  -2.4777658e-01  -5.4671673e-01  -4.0926457e-01  -8.4355035e-01   5.3382067e-01  -1.0327650e-01   7.2117862e-01  -7.3828094e-01  -4.9948972e-01  -4.3885485e-01   1.7415788e-01   8.2781313e-02   8.2538175e-01  -4.1356251e-01  -2.5756491e-01  -1.7296540e-01  -3.9106750e-01   8.0292054e-01   5.4794100e-01   9.7674393e-01   7.8920339e-01   2.3503691e-01  -9.2076927e-01  -3.2640886e-01   7.4332194e-01  -5.4382462e-01  -1.1547475e-01  -9.5560397e-01  -8.7433261e-01  -9.0484410e-01   1.4959559e-01  -4.4189004e-01  -6.3612049e-01   4.7588840e-01   5.2930474e-01   5.6126622e-01  -7.3130601e-01   9.6920031e-01  -1.6344273e-01   6.7276619e-01   7.4808668e-01   6.3568777e-01   3.3575384e-01   9.5347645e-01  -7.5737306e-02  -5.9768653e-01   3.0924738e-01   9.2530770e-01  -2.2459589e-01  -3.5168455e-01  -7.1125144e-01  -8.7048322e-01   8.4730329e-01   3.6163633e-01   4.3098827e-01  -5.6497026e-01  -2.9972235e-01  -7.4333797e-02  -5.8842469e-01  -2.0209681e-01  -5.1054064e-01   5.2721715e-01  -2.3101834e-01  -8.4158915e-01   1.5093322e-01   9.2795683e-01   5.6859852e-01  -4.2435735e-01   7.3494638e-01  -1.6796697e-01   2.4288432e-01   4.5100271e-01   6.2092522e-01  -3.7847988e-01  -6.5322945e-02   3.6262852e-01   9.2725817e-01  -8.9167324e-01   1.1139828e-01   3.1742194e-01   7.1564682e-02  -4.1699753e-01  -9.4812979e-01  -5.5936269e-01  -5.5766902e-01   1.6431317e-01  -3.7408084e-01  -7.7999653e-01  -7.8137968e-01   1.7491420e-01   2.0096022e-02  -3.9602350e-01  -3.6019186e-02   9.6878884e-02  -1.8203914e-02  -9.6085805e-01  -3.8263246e-01  -6.9680183e-01  -8.2496592e-01   2.2831911e-01   2.3264345e-01  -2.0585128e-01  -5.2187526e-01   3.6449939e-01   5.9201399e-01  -7.4436549e-02  -8.7930853e-02  -2.2268614e-01  -9.7719455e-01  -4.9374430e-01   6.0004960e-01   9.0730200e-01   4.1960628e-01  -4.3678621e-01  -9.8908689e-02  -9.5372555e-01  -9.4293797e-01   6.5480923e-01  -7.7539439e-01  -2.2385791e-01   8.3502330e-01  -7.1802289e-02   2.5955129e-01   1.2715486e-01   2.4287467e-01   4.7128864e-01   8.3993348e-02  -6.5698437e-02   6.1666164e-01  -4.1653181e-01  -3.7953766e-01   2.5459671e-03   3.8951095e-01   8.2985278e-01   3.4851807e-01   7.9806682e-01  -2.0861132e-01   9.3248333e-01   1.8578298e-01  -4.9901563e-01  -4.0994241e-01   9.5632958e-02  -2.5752181e-01   9.8359282e-01  -1.3446810e-01   5.5255803e-03  -9.1021403e-01   3.2525898e-01  -9.8977200e-01  -8.6027083e-01   8.5677085e-01   6.3914248e-01   4.1114426e-01   5.6349586e-01   8.6905278e-01  -5.3014066e-01  -5.1158425e-01  -6.9375049e-01  -6.3812541e-02   1.6286080e-01   5.0764491e-01   4.4828199e-01  -2.9792182e-01   4.3749868e-01   2.0099382e-01  -1.8832168e-02
  -9.6571528e-01   7.7009746e-01   9.6637309e-01  -7.1652421e-01  -7.6976398e-01   4.4938774e-02  -9.6037869e-01  -5.4161613e-01   5.5417535e-01   3.3247559e-01  -9.4944746e-02   6.3454921e-01   4.0213930e-01   8.5195348e-01   8.0840936e-01  -3.0229697e-01   8.3729267e-01  -6.4733285e-01   2.8390909e-01  -4.4172704e-01   7.1934975e-01  -2.4794046e-01   2.6439875e-01  -3.2825561e-02  -3.7460059e-01  -3.3297355e-01   9.5481556e-01  -1.5970960e-01  -4.9686311e-01   3.5968902e-01   2.6446222e-02  -3.5373777e-01  -6.1832721e-01  -8.6851638e-01  -4.1753499e-01   9.9514170e-01  -9.6405978e-01   6.0582637e-01   7.5199064e-01   5.5939814e-01   1.5748964e-01   5.5168764e-01   7.1842885e-01   8.4030762e-01   9.6109244e-01  -2.2364105e-01   4.6938701e-01  -8.1416535e-01  -8.6760054e-01   5.0090851e-01  -8.9116457e-01  -3.0055264e-01   3.4132534e-01   7.5953183e-01   8.2501564e-01  -8.5762542e-01   9.6422434e-01   7.6766906e-01   5.2592271e-01  -6.0929552e-02  -1.9028216e-01  -8.9162216e-01   4.1771394e-01  -1.4963722e-01  -3.9907674e-01   6.4787007e-01  -6.3800719e-01   5.3946602e-01   4.1735256e-01  -1.7530806e-01   9.1465881e-01   3.2985405e-01  -2.8313322e-01   4.1721148e-01   1.7986620e-01  -7.1844933e-01   8.4923304e-01   6.8948220e-01  -1.5042022e-01  -9.7421144e-01   4.7980468e-01   5.1098678e-01   4.9827303e-01   1.0682510e-01  -6.5217868e-02  -2.1154060e-01   9.8024970e-02  -5.2365543e-01   8.2047048e-01   1.3301430e-01  -4.3936619e-01   8.8923467e-01   4.3074229e-01  -7.3048114e-01   5.1215133e-02  -3.6881156e-01   8.7101451e-01  -2.6522023e-01  -7.1847372e-01   1.4543236e-01  -4.9068110e-01   7.6300111e-01   4.4121189e-01   7.9053246e-02   6.8783490e-01   5.1972898e-01   4.4183346e-01   7.5313142e-01  -8.6329371e-01  -8.2122774e-01  -7.0635204e-01  -4.6275374e-01   8.3012172e-01   9.2616435e-01   4.8001893e-01   6.0795822e-01  -6.4856072e-01   7.9126776e-01   7.8859493e-02  -4.7107563e-02   8.2726575e-01   6.5122536e-01   7.1783107e-01   4.9678878e-01  -2.9358953e-01  -1.8470945e-01  -8.6789312e-01   8.2575023e-01   2.2895662e-01   7.4886115e-01   7.8226278e-02  -4.4599288e-01  -5.5191892e-01   5.5762531e-01   5.8073593e-01   7.5534767e-01   7.2644521e-01   4.8433202e-01   4.5346488e-01  -6.7931652e-01   4.0389449e-01  -6.4565620e-01   3.9623014e-01   4.3316103e-01   1.8201033e-01  -3.1495739e-01  -7.9220911e-01   1.5846114e-01   1.5167879e-01   1.5074984e-01  -8.3150940e-01   8.1166943e-01   2.1590833e-01   2.3830802e-01   3.0930943e-01  -8.2713545e-01   3.9596787e-02  -3.3007434e-01   2.2979524e-01  -3.6892373e-01  -6.2888382e-01   4.3539848e-01   7.0194557e-01  -5.4232109e-01  -3.0734972e-01   3.3951606e-01   5.9948838e-01   9.1405739e-01   3.6466586e-01  -4.7060486e-01   4.0817175e-01  -4.0821479e-01  -6.4467357e-01  -2.4544618e-01   4.6604493e-03   4.9753732e-03  -6.5121785e-01  -1.2575480e-02  -3.1289774e-01   3.0296544e-01  -6.7755177e-01   2.0538410e-01   5.5993114e-01   2.5887405e-01  -3.2921585e-01  -8.3100621e-01  -6.6105335e-01   6.1135641e-01   9.8497239e-01   7.0136980e-01  -6.8564241e-01   2.9158098e-01  -5.1219577e-02  -2.1403237e-01   7.2980088e-02  -3.9319471e-01  -6.9936767e-01   2.9148857e-01  -9.0738004e-01   5.3306856e-02  -9.4456447e-01  -2.0929883e-01  -9.8210905e-01   5.0777260e-01   1.0614138e-01   3.3270715e-01   8.4999738e-01   2.8305740e-01   3.2245215e-01   9.7080092e-01   7.3336113e-01  -6.3222871e-01   7.0400713e-01   9.5041467e-01  -9.7117445e-01  -1.0453876e-01  -5.2870423e-01   1.5980809e-01   2.1125909e-01   9.7828381e-02  -4.8272222e-01  -4.0681252e-01  -4.5957710e-01  -5.9717906e-01  -8.4488654e-01  -4.0740825e-02   3.4290339e-01  -3.6773413e-01  -4.3806948e-01  -6.6928084e-01   6.4856372e-01   8.0734279e-01  -7.3677817e-01  -2.5229191e-02   1.3631223e-01  -6.0920922e-01  -9.5345662e-01  -8.3957951e-01   3.7107850e-01   1.1918908e-01   8.0561733e-01   2.4566671e-01  -1.1106861e-01  -4.2056711e-01   9.8854059e-01  -9.5587609e-01  -9.5177160e-02  -9.7683115e-01   4.9652821e-01   7.7324413e-01   3.2692245e-02  -3.7454542e-01  -3.7011409e-01   2.7547896e-02  -4.1352443e-01   8.7283935e-01  -6.1615161e-02   3.6884084e-01  -4.1604368e-02  -4.6382969e-01   1.2176463e-01  -4.5482698e-01  -3.3605912e-01  -4.3443130e-01  -3.2706174e-01  -8.5176916e-01  -3.0942405e-01   9.7391977e-02  -1.9693205e-01  -3.6288877e-01  -6.6981588e-01   4.6615096e-01  -8.6547162e-01  -6.7474417e-01   1.9840616e-01   2.3045928e-01   6.6598108e-01   6.6495230e-01   9.5524604e-01  -2.6708783e-01  -8.6456443e-01  -4.5123432e-01   5.9618288e-01   1.8469980e-01   5.9607896e-01  -6.0681812e-01  -3.8856094e-01  -8.8487379e-01   2.2772570e-01  -6.5528944e-01  -4.5128405e-01  -6.2090301e-01   5.9088069e-01   5.5668389e-01   6.2775921e-01  -8.2289238e-01   8.8929406e-01   8.6589893e-01  -3.5046936e-01   1.5828564e-01  -3.6135903e-01  -6.3623094e-01   3.4700127e-01  -9.9540497e-01  -8.9366728e-02   2.8091962e-01  -3.6554014e-01   7.8232628e-01   7.9921563e-01  -4.6916874e-01  -1.5388479e-01  -6.4973791e-01  -6.8993888e-01  -3.1371822e-01  -3.8290003e-01   3.4747655e-01   7.7525397e-01  -9.1193680e-02  -5.7389757e-01   8.9157241e-01  -2.2032985e-01   2.7688225e-01   4.5112373e-01   1.7882005e-01  -3.0829000e-01  -1.4368990e-01   6.7030601e-01   1.9036068e-01   7.6724324e-02  -6.7884570e-01  -9.3956559e-04   7.6231225e-01  -2.4866440e-01  -6.4114062e-01   6.0967603e-02   9.9818503e-01  -6.5165242e-01   9.3940025e-01   4.5549342e-01   5.0691105e-01   6.8195916e-02   7.0995004e-01   1.8719762e-01   1.6474670e-01  -4.4071880e-01   4.7676465e-01   6.8383226e-01  -2.6730583e-01   1.0479185e-01   5.2773124e-01   9.0009542e-01  -4.1498524e-01  -4.9506986e-01  -6.0315368e-01  -9.2969680e-01  -6.1794040e-01  -9.6974358e-01   7.8429755e-03   5.4647137e-01   1.9320615e-01   2.2209751e-01   6.7247111e-02  -4.8608452e-01   4.9563661e-01   6.9659388e-01   6.7685893e-01   4.6443547e-01   2.6654817e-01   3.3585141e-01  -4.8729523e-02  -7.8294693e-01   6.7657586e-01   4.3368304e-01   8.9032483e-01  -5.3799937e-01  -7.1002764e-01   1.2095005e-01   6.8700723e-01  -3.7127846e-01  -4.1791443e-01  -1.9520250e-01   3.1072965e-01   9.9059383e-01   5.7525114e-01   8.1885592e-01  -1.2102319e-01  -9.2839220e-01   7.5989711e-01   4.4177221e-02   1.0289587e-01   4.2325361e-01  -5.4570856e-01  -1.5173452e-01   5.0429681e-01   4.4662093e-01   3.6718872e-01  -3.6214793e-01  -8.5332819e-01   7.9796259e-01  -1.1262499e-01  -6.5984368e-01  -4.8797931e-01  -3.4575828e-01   3.3312262e-01   9.8494822e-01  -4.6058017e-01   5.2617128e-01   6.1646989e-01  -1.5941614e-01   8.0751101e-01   7.3256614e-01   5.3494058e-01   3.9910828e-01   9.7006646e-01   5.7944909e-01   3.9327574e-01  -2.6183163e-01   9.4934207e-01  -3.0889341e-01   6.1380207e-01   3.9099749e-01   5.9868887e-01  -5.2872651e-01  -9.1748181e-01  -6.7111842e-01  -3.8857972e-02   7.7512963e-01   1.8668793e-01   8.6236775e-01   2.4183136e-02  -8.7883371e-01   6.2513586e-01  -7.7711246e-02  -1.0246665e-01   2.7031570e-01   1.9354077e-01  -4.8184420e-01   7.1201502e-01   8.2397386e-01   9.9789151e-01   9.0661665e-01  -8.6583069e-01   2.0434525e-01  -3.9506636e-01  -2.0948479e-01   2.3586313e-03  -3.1085703e-01   2.3430753e-01  -6.3399049e-01   5.8582686e-01  -7.6497827e-01   7.3772597e-01  -3.6196841e-01   8.6157529e-02   8.3162116e-01  -9.4429088e-01   4.1891969e-01   2.8078363e-01  -1.8372968e-01   2.3385851e-01   1.3829432e-01   4.6496954e-01  -6.5221890e-01  -4.6790278e-01   9.9721763e-01   7.3455047e-01  -8.4203556e-01  -6.3913814e-01  -7.9493224e-01  -6.2039701e-01   2.8239449e-01  -5.7026684e-01   8.2621630e-01  -8.1700239e-01   4.6124279e-01  -4.4898744e-02   3.3240261e-01   3.0274859e-02  -8.2948220e-01   1.3518962e-01   4.6003866e-01   5.3713491e-01  -6.1544297e-01   4.3885522e-01  -6.0604845e-01   6.2043631e-01   6.0284251e-01  -4.3177335e-01   3.3988769e-01   2.4994609e-01  -6.2243962e-01  -8.7986850e-02   1.2294600e-01  -7.1374952e-01  -5.7268002e-01   5.6723032e-01  -4.4873662e-01   2.3160141e-01   8.2862531e-01   4.8638841e-02   6.2754595e-01   3.8304267e-01   3.3151338e-01  -8.3286563e-01   7.5885642e-01   2.2152998e-01  -3.4683022e-01   3.7743113e-01   8.7798404e-01  -7.3170962e-01   3.3105539e-01  -4.8846543e-01   5.7864860e-02   4.6086352e-02   3.0963798e-01   4.9518957e-01   1.4673213e-01   8.6332161e-01   6.5661405e-01   3.9909702e-01  -4.0023680e-01  -7.1698941e-01  -3.6525131e-01   1.2161026e-01   8.6010237e-01   5.4738128e-01  -6.6210499e-01  -3.0592958e-01  -7.5917592e-01   5.6320061e-01  -3.8844019e-01   4.2354139e-01  -1.8476467e-01  -7.4860375e-01  -7.5166986e-01  -8.7655930e-01  -2.7033671e-01  -9.8603883e-01   1.4936277e-02   5.8248449e-01   8.5638378e-01  -4.9956204e-02   8.0489161e-01   3.6043956e-01  -5.6766031e-01  -8.1185007e-01  -9.4931489e-01  -9.8678417e-02  -1.2492428e-02  -1.4474930e-01   1.3038906e-01   3.7230944e-01   9.5077622e-01   2.3430561e-01   5.5964791e-01   5.9195980e-01  -6.8568504e-01   1.4023689e-01  -8.3861716e-01   3.1701071e-01  -7.4629097e-02  -1.5424590e-01  -2.2029510e-01  -4.4306105e-01  -5.8637223e-01   4.4235146e-02  -3.1980684e-01   9.7969513e-01   1.2307024e-01   8.2300543e-01  -1.7531488e-01  -9.9701106e-01   1.4662336e-01   4.9884190e-01  -3.3810337e-01   1.1985076e-01   8.5512874e-01  -3.1553502e-01   5.1385946e-01   5.8297256e-01  -1.2953777e-01   6.9753558e-01  -7.9578794e-01   2.1417457e-01  -5.4096466e-02   5.7397354e-01   3.1610921e-01  -1.0828576e-01   7.0666291e-01  -9.6629291e-01  -5.1624089e-01   9.1341554e-01  -6.2465709e-01  -6.1951958e-02   4.5420083e-01  -7.5508785e-01   5.4022842e-01   5.6815999e-01  -5.0913523e-01  -6.9329512e-01  -7.7951841e-01   7.0378476e-01  -3.6731914e-01  -5.2947066e-01  -3.8142757e-02   4.0103550e-01  -8.5496892e-01   6.1354851e-01  -7.0329537e-01   1.5096027e-01  -5.0978726e-01   9.6382758e-01  -5.4124613e-01  -8.2733772e-01  -9.9392990e-02  -9.6198760e-01  -1.2467292e-01   1.5607897e-01  -4.2673240e-02  -9.7510454e-01  -3.0790334e-01  -3.2230566e-01   2.1330368e-01  -7.3630284e-01  -3.1976596e-01  -6.6832988e-01   8.9025161e-01   1.7571147e-01  -8.8109364e-01   8.2165740e-01   5.5311381e-01   9.1949088e-02   1.3117547e-01   2.4518361e-01   7.5279642e-01   8.7072122e-01   9.2378420e-01  -8.5924215e-01  -1.5478646e-01  -9.7595572e-02   2.0403111e-01  -7.1898558e-01   8.6467312e-01   9.7781463e-02  -5.7304866e-01   2.1713741e-01  -2.7514054e-02  -9.0590598e-01   1.0257727e-01  -2.2581685e-01  -6.8780163e-01  -9.5744663e-01  -5.6023737e-01  -4.8689947e-01  -8.7114672e-01   2.9981894e-01  -1.2624608e-01  -2.4111972e-01   6.2689515e-01   6.6179729e-01   5.4786346e-02  -4.0337179e-01  -1.8782466e-02   3.6594322e-01  -8.5595873e-01   7.1465985e-01   7.8926539e-01  -6.1021420e-01   4.9265168e-01  -9.2928879e-01  -8.2465257e-01  -8.4108053e-01   5.1659005e-01   1.6275984e-01  -4.8565273e-01   6.1974133e-01  -7.5290137e-02  -8.0607101e-02   4.3284328e-01   3.7836524e-01  -3.9910993e-02  -4.6644859e-01   9.7994125e-01  -1.0663383e-01   5.9594971e-01  -1.8186437e-01  -1.8597928e-02   3.9762813e-01  -4.4563938e-01   3.7663766e-01   3.7377821e-01  -2.7383143e-01  -3.3095892e-01   6.5000314e-01  -9.4739238e-01  -7.7591082e-01  -2.5814998e-01  -6.1697172e-01  -2.4584174e-01  -2.5565166e-01  -6.7274900e-01  -5.4243851e-01  -3.3656320e-02   5.6977271e-01   2.0279417e-01   4.0258972e-01  -3.3832105e-01   7.7021139e-01   5.8167350e-01  -6.7475872e-01  -8.7016053e-02   7.3788239e-01   7.8953725e-01   8.7832381e-01   2.0499812e-01   4.6237334e-01  -5.5294606e-02   4.1949372e-01  -2.6018887e-01  -3.2296749e-01  -6.2120754e-01   5.1429398e-01  -7.0360172e-03  -5.5065883e-01   7.1363426e-01   4.9188066e-01  -9.1946078e-01   5.5171443e-01  -7.4883743e-01  -9.0412262e-01   1.1070121e-01   2.2092287e-01   7.2829731e-01   8.4048138e-01  -8.5524799e-01  -3.0464613e-01  -6.2590076e-02  -9.6482782e-01   5.0500384e-01  -3.5324876e-01  -4.2222220e-02   1.9286848e-01  -1.2311863e-01   7.5283331e-01   7.4342201e-01  -1.6199271e-01  -3.9531903e-01   9.8341108e-02  -3.2293983e-01  -1.3812448e-01   6.8019259e-01   9.3258234e-01   9.3485561e-01   9.5169636e-01   9.6583107e-01   2.7740630e-01  -2.1018699e-01  -5.1152192e-01   3.6440794e-01   2.5358812e-01   8.8407245e-01  -2.5165888e-01  -5.4765576e-02  -3.9599582e-01   1.3944149e-01   1.0798427e-01   3.8966952e-01   1.5396452e-01  -6.5159956e-01  -6.8380326e-01   2.7188885e-01   7.9452085e-01   2.0306354e-01  -2.3896197e-01   9.0074995e-01  -8.9217587e-01   1.8664558e-02  -1.4621256e-01   2.4661726e-01  -3.9393716e-01   6.9967492e-01  -3.4327599e-01  -8.3394889e-01  -4.5797337e-02  -4.4864623e-01   5.3134257e-01   5.6120215e-01   5.0718676e-01   5.7228613e-01  -9.8732887e-02  -1.9361034e-01   7.6664582e-01   5.7117317e-01   9.9794710e-01  -3.2850433e-01  -9.0392169e-01  -6.5693147e-02   9.2800462e-01   5.6376193e-01  -3.6498010e-01  -1.3652411e-01   4.3459812e-01  -8.6278514e-01  -5.8769471e-01  -9.9814095e-01   8.3384835e-01   1.2529452e-01   6.7213646e-01   5.1662059e-01   6.4028584e-01  -6.4582116e-01   9.5876520e-01   8.1801835e-02   8.0528310e-01  -1.2568385e-01   2.2560872e-01  -5.0152575e-01  -2.1122960e-01   1.4427228e-01   5.7224827e-01   7.8600649e-02   8.6364308e-01  -1.5813814e-01  -6.5073884e-01  -1.0703113e-01   9.8469187e-01  -2.5303033e-01   2.2059389e-01  -8.8038074e-01   2.8855222e-01   2.8283105e-01   8.2027052e-01   1.2925265e-01   4.0959289e-01  -4.4122535e-01  -4.0465274e-01   8.6131349e-01   5.7058295e-01   8.6348162e-01  -6.8405298e-01  -3.4129836e-01  -7.1351377e-01   3.2417294e-01   3.4456925e-01  -2.8478916e-01   8.3022148e-01  -6.8240693e-01  -1.4391481e-01  -3.1844967e-01  -6.9989350e-01  -5.5693094e-01   6.3727765e-01   5.4007360e-01   2.3002979e-01   8.8926896e-01  -6.6953393e-01  -6.6135268e-01   6.9998661e-01   1.8967210e-01  -5.8169440e-01  -9.1374476e-01   1.5594458e-01   5.1164288e-01   9.0655941e-01  -5.8832830e-01  -6.6205495e-01   7.3130874e-01  -4.7247215e-01   8.5183053e-01   2.3309001e-01   5.0086081e-01  -7.1566864e-01   7.7805715e-01   3.5973417e-01  -1.3471304e-01  -5.2497273e-01   3.0264557e-01  -5.0803014e-01   4.7444691e-01   4.4079830e-01   1.5282501e-01   4.2797023e-01   8.6223500e-01  -5.2688213e-01  -6.3474118e-01   1.6860935e-01   6.3277968e-01  -2.8459122e-01  -7.3153799e-01   1.6939121e-01  -5.8887689e-01  -5.3342341e-01   2.3125317e-01   7.3287022e-01  -1.1690839e-01  -5.1129578e-01   1.9681428e-01  -8.7737322e-01   1.0416007e-01  -1.5282712e-01   2.1344432e-01   1.5311566e-01   3.8108851e-01   3.0942283e-01   1.5466238e-02   5.8933728e-01   6.7566480e-01   4.1669809e-01   6.6017598e-01  -9.7208513e-01   9.9061432e-01   8.4384104e-01   9.0665828e-01   1.7004476e-01   1.8867409e-01  -8.3229345e-01   1.5318578e-01  -2.8715743e-01   1.9127666e-01   3.7818417e-01   2.6972146e-02  -1.0192240e-01  -5.9614876e-01  -9.7903574e-01  -8.9572173e-01  -3.1178292e-01   3.7987221e-01  -4.5191486e-02  -2.7832035e-01   5.4757925e-01   8.7498780e-01   5.8535238e-01   3.7053093e-01  -4.4233872e-01  -9.0876992e-01   7.3093488e-02  -7.2090555e-01   7.0393498e-02  -5.3962648e-01   9.9825116e-01   4.1431568e-01   9.4525605e-01   7.6222426e-01  -1.7805690e-01   7.6240502e-01   9.7949860e-01  -1.6495576e-01  -7.2159354e-01   6.5136823e-01   8.1219506e-01  -9.4717781e-01   3.4806751e-01  -6.7956712e-01   1.6755157e-01   9.0644049e-01  -3.8188443e-01   4.8988280e-01   9.1856318e-01  -9.7694682e-03   4.6030768e-02  -1.6592902e-01   4.1291674e-01   3.8147071e-01   9.5451555e-01   4.5755647e-01   2.4347721e-02  -3.7546991e-01  -2.2101866e-01   8.1184692e-01   2.6470481e-01  -6.0085244e-01   8.8408330e-01  -2.9718011e-01  -8.3293901e-02  -1.4803387e-01  -4.2318326e-01  -4.1004564e-01   7.1923062e-01  -5.4134062e-01   3.6170744e-01  -9.3402111e-01  -9.0977383e-01   7.6492945e-02  -3.9325885e-01  -6.9786743e-01   1.4081345e-01  -6.8917891e-01   2.2148901e-01   1.8829837e-01   3.9091907e-01   2.2060095e-01   3.3430495e-01   6.9073093e-01   3.6974537e-02   5.4568133e-01   9.5684836e-01  -7.0273908e-01  -7.8921051e-01  -3.2045273e-01  -2.5457962e-01
  -1.1945028e-01  -8.7945564e-01   7.3585304e-01  -4.9804459e-02  -8.3378499e-01   1.5837170e-01  -5.1543775e-01  -1.0976234e-01  -9.7830765e-02   6.1130265e-01   6.9892312e-02  -9.4339691e-01   5.1047506e-01  -4.2069463e-02  -7.5967560e-01  -8.8107696e-01   3.4336263e-01   2.1186221e-01  -2.2577009e-01   6.2948652e-01   7.2446777e-02   5.4637135e-01  -7.1225166e-01   3.2247306e-01   3.0147817e-01   9.1006541e-01  -5.5487929e-01  -4.6791407e-02  -6.1801929e-01   7.3955610e-01   6.4082003e-01   4.2958351e-01   2.0429770e-01   5.1743627e-01  -2.0380273e-01   1.0136768e-01   5.0909191e-01   7.9360808e-01  -3.9047459e-01  -2.1401800e-01   3.4382387e-01   7.1127451e-01   3.1152545e-01   5.6672335e-01  -2.3485135e-01   8.7230921e-02  -2.8097510e-01   2.8663936e-01  -7.0472272e-01   9.3675576e-02   8.9912562e-01   4.7194581e-01  -4.4571768e-01  -5.6799598e-01  -3.4106236e-01  -6.4913576e-01  -6.6857966e-01  -8.5425792e-01   4.2874085e-01   7.4698547e-01  -8.0659542e-01   8.9190867e-01  -2.5779801e-01  -9.5129178e-01   3.8910159e-01   4.0870117e-01   5.7663902e-01   3.0728788e-01  -1.2076968e-01  -1.9660613e-01   4.3150553e-01   4.7381819e-01   2.9760786e-01   2.1697202e-01   3.7664981e-01  -9.6395679e-01   7.1622571e-01   7.1556613e-02  -6.9621752e-02  -4.6577223e-01   1.0996498e-01   7.1405471e-03   1.8018235e-01  -5.0486051e-01   1.4398229e-01   8.6106889e-01  -6.2748853e-01   1.9832047e-01  -7.1296429e-01   7.8787851e-01  -8.8820535e-01   9.0464993e-01  -5.9298476e-01   1.6015949e-01  -4.5204761e-01  -9.2968308e-01  -8.0604033e-02   5.7553664e-04  -3.7093779e-01  -7.9899857e-01  -5.4866452e-01  -1.9810153e-01  -3.7514665e-02   1.4220097e-01  -9.0379945e-03   3.0286809e-01   4.9114305e-01   5.5408779e-01   9.2312146e-01   6.0951987e-02  -3.3737071e-01  -6.7068018e-01  -3.0774963e-01  -7.5411162e-01  -9.0175958e-01   2.6042561e-01   9.0101576e-02   1.1483801e-01  -2.9806715e-01  -3.5036670e-01  -9.7071277e-01   6.2657558e-01  -9.5010165e-01  -6.4047275e-01   5.7629218e-01   9.8760756e-01  -5.5070509e-02  -4.2753608e-01   4.2705569e-02  -5.8395910e-01   8.0375717e-01   5.0769237e-01   3.5075732e-01   5.9276389e-01  -6.0129812e-01  -6.2091028e-02   8.8393058e-01  -8.9915366e-01   2.0914752e-01  -2.2960929e-01  -3.6110202e-01  -1.6888108e-01  -9.1595986e-01   3.4666291e-01  -6.5345377e-01  -9.8383849e-01   9.8457793e-01  -7.8739085e-01   9.0957536e-01  -9.0337707e-01  -2.7421177e-03  -6.2136182e-01   3.6427903e-01   5.4414323e-01   3.8259841e-01  -8.1020134e-01   6.1015663e-01   5.4103190e-01   1.6758262e-01   6.9864755e-01  -5.9162891e-01   8.8536562e-01   3.9170840e-01  -1.1477705e-01  -7.3889261e-01  -8.1948878e-01  -2.2404387e-01  -3.2012556e-01  -2.0074596e-01   9.7783898e-01  -4.9582179e-01  -8.8994552e-01   5.2893438e-01   9.9663382e-01  -9.5604215e-01  -5.5299531e-02   3.0069793e-01  -8.2451861e-01   5.7126662e-01   1.5022900e-01  -3.8448235e-01  -6.4856338e-01   9.8254789e-01   8.7646213e-01  -9.9403420e-01   6.1343121e-01  -9.2187341e-02  -8.0526226e-01  -5.1749540e-01   2.1750936e-01   2.9832178e-01  -6.4629979e-01  -3.2212778e-01   7.4328800e-01   2.7410168e-02   6.2564653e-01   5.2910519e-01   8.3402252e-01   6.2891082e-01   8.5891140e-01  -4.8759153e-01   2.5966905e-01   2.9526524e-01   4.1369058e-06   8.0706037e-02  -2.3184349e-01   4.7274723e-01   4.4021051e-01   1.5165609e-01  -7.2456005e-01   1.6919235e-01   3.5702372e-01   8.7974651e-01   1.1630433e-01   3.9480606e-02   9.8740854e-01   2.7183153e-01  -8.9974601e-02  -3.3332817e-01  -5.3791796e-01   7.9128498e-01   9.7711227e-01  -2.1309310e-01   1.2649056e-01   4.3604453e-01  -1.3473969e-01  -8.6316217e-01   8.0742964e-01  -3.2639392e-02  -2.2604950e-01  -3.1331760e-01  -4.2380510e-01   8.9729469e-01   5.0706696e-01   9.9056845e-01  -2.2331247e-01  -9.0561844e-01   1.1898628e-01  -5.2004241e-01  -2.9376552e-01  -3.7893167e-01   5.2876002e-02   4.8978986e-01  -6.7922544e-01   1.2251516e-01  -9.9028226e-01  -2.4638759e-01  -5.7835348e-01  -8.2164190e-01  -3.5360936e-01   5.3670840e-01   5.3399796e-01   5.5997460e-01  -6.8142529e-01  -3.1484162e-01   3.8920884e-01   7.3855672e-01  -3.4528043e-01  -3.2640401e-01  -4.8935242e-01   3.8692547e-01  -5.3833437e-01  -5.6465127e-01   9.0890985e-01   3.8890866e-01  -1.5286114e-01   3.2146904e-01  -3.6548976e-01   7.7498780e-01  -2.4180129e-01   8.6039653e-02  -3.2067995e-01   3.9768566e-01   6.8167131e-01   3.3284780e-01  -5.9132339e-02   9.3486906e-01  -3.9249370e-01   7.2071618e-01   7.9610825e-01   7.4019100e-01  -4.1712554e-01  -2.1086875e-01   3.0562386e-01  -8.4041714e-01   7.2262399e-01  -1.5787090e-01  -3.8152621e-01   2.9362732e-01  -3.0111069e-01  -6.7464989e-01   1.1875442e-01  -5.8495290e-01   4.3329156e-01   1.2551610e-01   7.6776403e-01   3.4331848e-01  -2.1046256e-01  -3.0608313e-01  -8.2104744e-01   3.9372095e-01   1.0533606e-01  -2.7597691e-01   3.6269942e-01  -5.8510528e-01  -7.6853485e-01  -4.2612329e-01   1.7497683e-01   6.2164814e-01  -8.9251693e-01   4.3181952e-01  -5.5127295e-01   4.5891331e-01   1.3051667e-01   8.4985311e-01  -8.0673553e-01   6.0218118e-01   7.2968454e-01   5.0323089e-02  -3.9079030e-01   2.6434192e-01  -2.0914947e-01  -4.1055701e-01  -4.8468434e-01  -3.6603819e-01  -3.2618854e-01   7.1533884e-01   6.5703417e-01   2.9764499e-01   8.9097833e-01   4.0906347e-01   7.7681556e-01  -7.1368325e-01  -2.0542149e-01  -6.1318995e-01  -8.0343495e-01  -3.5856114e-01   5.3710468e-01   7.7858332e-01  -8.5474919e-01   9.6648808e-01  -1.0999047e-01  -3.3888611e-01  -7.5708757e-02   3.8020286e-01   2.4149983e-01   8.6488126e-01   9.2919423e-01  -9.1449254e-01  -8.4385216e-01  -4.6718340e-01  -2.0424456e-01   3.6722533e-01   7.4539678e-01   4.7794996e-01   3.8144992e-01   3.7971763e-01  -1.6935378e-01   3.7281030e-01  -8.0070482e-01  -1.9930478e-02  -5.8419986e-01   7.3615297e-01  -3.9556573e-01  -2.6937313e-01   1.7707850e-01  -3.1580180e-01  -3.1282552e-01   3.4090971e-01  -7.2662979e-01   6.0773271e-01  -1.2461638e-01  -3.4997122e-01   1.8778034e-01   1.9972623e-01   8.0882880e-01   9.8566784e-01   4.6460787e-01   3.9874882e-01  -7.9196094e-01  -5.8875202e-01   8.5188601e-01   3.7398518e-01  -5.5303195e-01   6.4479875e-01   7.4553296e-01   1.2190839e-01   8.1035400e-01  -8.5587405e-01   8.4150847e-01   7.8489512e-01   6.4113648e-01  -5.4527897e-01  -8.9961329e-01   8.0473298e-01   3.3365340e-01   3.1677891e-01   2.1353487e-01   1.0856217e-01  -9.5371480e-01   5.2468214e-01   8.9879282e-01   9.2477982e-01   2.9172800e-01   1.9947346e-01  -1.3425348e-01   1.8563365e-01   6.2983965e-01   1.2532555e-01   9.4759765e-01  -8.8326894e-01   5.1899503e-01   5.7853287e-01  -2.6668843e-01  -2.1920501e-01  -9.9699685e-02  -9.7316569e-01   9.9173241e-01  -2.1720593e-01  -1.2766325e-01  -5.9163893e-02  -7.7177266e-01  -8.8263198e-01   3.0930109e-01   5.7955403e-01  -2.0789526e-01   1.0140011e-01  -3.5716054e-01  -4.7997819e-01  -9.5827115e-01  -9.5362028e-01  -9.0600775e-01   4.7743888e-01  -4.5064824e-01   6.2829938e-01   3.2456375e-01   8.8886115e-01   1.6377824e-01   1.6743582e-01   6.9348747e-01  -9.2205650e-01  -6.7541913e-01   8.1786447e-01  -6.0078098e-01   8.2758832e-01   8.6616444e-01   8.0753173e-01  -1.2669549e-01  -4.9900506e-01   2.4387826e-01   2.8991038e-01  -1.9491433e-01  -2.7378467e-01  -7.8572162e-01  -4.3076899e-01  -1.4246233e-03   8.6374755e-01  -5.0151977e-01  -6.6022065e-01  -7.4398200e-01   3.6138878e-03   3.9165130e-01  -1.4055931e-01  -3.0865470e-01   4.3598071e-01  -3.4000213e-01   2.9057124e-01   4.5183440e-01   6.3904997e-01  -7.4125769e-02  -6.4806137e-02   3.6176144e-01  -1.4622664e-01  -7.7113848e-01  -4.8040603e-01   1.0328282e-02  -4.4755239e-02   6.8725860e-01   8.0046010e-01  -7.7037277e-01   5.9551515e-01  -7.3189439e-01  -6.7164254e-01  -3.1231660e-01  -5.7402614e-01   5.3696436e-01   5.1512722e-04  -8.1461645e-01  -9.5173878e-01  -8.1298068e-01  -9.0629275e-01  -2.2438979e-01  -2.9579750e-01  -9.7878657e-01   5.6546447e-01   4.2098719e-01  -3.7262015e-01   4.1290786e-01   9.8358811e-02   3.7723919e-01  -1.8991976e-01  -6.0294837e-01  -7.6661654e-01  -3.9859459e-01  -6.5181748e-01   3.2874178e-01   3.3589691e-01  -8.7464551e-01   9.4863191e-01  -1.6805318e-01  -6.3801534e-01  -1.8161743e-01   1.1271188e-03   9.4076731e-01   3.5644896e-01   2.1084971e-01  -7.1680964e-01   3.9982489e-01  -2.9010980e-01   2.1243740e-01   8.0021188e-01   6.5076358e-01  -7.5108017e-01  -4.2682120e-01   8.3076613e-01  -1.6664406e-01   4.3283349e-01  -4.8977249e-01   8.9259483e-01   1.9670615e-03   6.3667273e-01  -2.9107845e-01  -6.9118129e-01   2.3772139e-02   2.5249198e-01  -6.9190000e-01  -2.0433981e-01  -7.0117975e-01  -4.8663732e-01   4.1611053e-01  -1.0370355e-01   5.6814893e-01   3.4908106e-02  -5.7063280e-01   5.7594544e-01  -8.8150761e-02  -9.1183520e-01  -2.5961403e-01   7.7881215e-01  -8.0396684e-01  -6.1279082e-02   2.5304285e-01  -6.3099260e-01   1.6567990e-02   1.3963014e-01   3.8413271e-01  -3.8450887e-01   2.1217979e-01  -7.4565078e-01   4.1012459e-01  -4.3750898e-01  -4.5227011e-01  -1.7482786e-01   7.9534001e-01   7.1613885e-01   7.3045559e-01   6.3914798e-02   3.1042736e-02  -9.6106999e-02   8.6977041e-01   4.7467844e-01  -9.0850544e-01   9.6849849e-01   3.3870797e-01  -8.1613442e-01   4.7023622e-01   2.9624192e-01   8.9864799e-01  -7.6349541e-01  -1.3921163e-01   2.8931558e-01   2.3639601e-01   2.1012499e-02  -4.3343613e-01  -1.6867099e-01  -7.2834340e-01  -4.3472457e-01   1.5742742e-01   8.9290133e-01  -4.0376504e-01   8.1963178e-01  -1.1188641e-01  -8.5058057e-02  -9.1188981e-03   5.2275220e-01   2.4028174e-01  -8.9725512e-01  -5.9592739e-02   4.2324442e-02  -5.8950688e-01  -3.8405796e-01   9.7170730e-01  -8.0700202e-01   4.0674869e-01  -3.6941206e-01   7.3750108e-02   1.8831641e-01  -7.4826735e-01  -1.3489898e-01   2.7085848e-01   7.1531394e-01   5.4918329e-01  -2.7222040e-01   5.7654663e-01  -7.3657650e-01   7.8598188e-01  -4.6400398e-02  -3.7188348e-02  -9.9797854e-01  -7.6683912e-03  -6.7540075e-01  -8.1452784e-01  -7.7176238e-01   2.9181791e-01   4.5941071e-01  -8.1208846e-01  -5.6352194e-01  -6.9851893e-01   9.0223038e-01  -6.4384997e-01   1.4741423e-01   6.6572685e-01   9.8633992e-01  -7.1135708e-01   8.6851416e-01   7.7836447e-01  -4.9445540e-02   2.8159931e-01   7.6467552e-01  -2.0484625e-01  -7.4075123e-01  -4.9606437e-01   8.0010592e-02   4.1164888e-01  -6.5805664e-01   7.5083667e-01   6.6945455e-01  -8.4303751e-01  -7.9439524e-03   2.1459913e-01   6.8016741e-01  -8.9936115e-01   8.7061432e-01   4.1663351e-01  -6.0410781e-02   2.2244892e-02   3.8034066e-02   1.9326275e-01  -8.7318472e-02   9.9787329e-01  -2.3587079e-01  -3.8896053e-01  -9.8573708e-01  -7.3753404e-01  -7.4409226e-01   1.7870128e-01  -6.1059244e-01   9.4407958e-01  -4.7333692e-01   8.2145010e-02  -9.8493593e-01  -7.3590808e-02   2.1833556e-01  -9.5950228e-01  -8.6006265e-01  -2.3593026e-01   1.6179281e-01  -1.7300698e-01   5.2526213e-01   4.2512171e-01   1.3134344e-02   7.0322626e-02  -7.2143869e-01  -9.8265769e-03  -7.8837991e-01  -5.9251641e-01   3.8012732e-01   9.3695372e-01  -8.2324025e-01  -9.9801850e-01   6.4241200e-01  -9.1273926e-01  -6.4693121e-01   7.9794758e-01  -7.9858489e-01  -8.5505747e-01  -2.3101253e-01   7.3178095e-02  -2.1146822e-01  -5.5310012e-02  -5.9903651e-01   1.1792607e-01   2.8818032e-01   4.0555022e-01  -2.0651384e-01   2.7112053e-01   2.8121433e-01  -8.0250519e-01  -9.6597859e-01  -7.0483663e-01  -7.8920589e-01   7.4813567e-01   2.3540033e-01  -4.8524455e-01  -9.5198453e-01   2.4749230e-01  -1.2956322e-01   3.6305955e-01   1.6936491e-01  -7.2978680e-01   4.2036076e-01   5.8662209e-01   4.2781418e-02  -2.4995169e-01  -8.9180919e-01  -1.2175865e-01   4.8465229e-01   2.2247612e-02   5.7670914e-02   2.7833560e-01  -4.4773878e-01  -7.4023890e-02  -7.7712802e-01   6.5232389e-01   4.9485397e-01   8.3612557e-02   3.6389822e-01  -9.8506825e-01  -7.8303219e-01   6.2928022e-01  -4.3130346e-01   6.5497860e-01  -4.2185046e-01  -4.6389131e-01  -9.6091052e-01  -9.6906907e-01  -5.5742033e-01   4.2416501e-01  -8.7438845e-01   7.4821776e-01  -2.9821866e-01  -7.8939423e-01  -5.5867614e-01  -1.8243727e-01   5.9854967e-01   8.1414411e-01  -6.0848392e-01   9.4488701e-01  -6.7977501e-01  -2.8760142e-01  -1.8496648e-01  -8.9341669e-01   5.5901368e-01  -4.1137780e-02  -3.8250997e-01   1.6791756e-01  -3.3541837e-01  -1.3046531e-01  -4.0303473e-01   1.5266796e-01  -5.1072684e-01   3.0330863e-01   9.8935708e-01  -4.8023427e-01  -3.6414311e-01   3.7509456e-02  -2.1287460e-01   3.1849777e-01   2.8574530e-01  -4.2177432e-01  -6.4963838e-01   8.0630763e-01   4.6734355e-01  -9.6501157e-02   7.1339379e-01  -5.9303121e-01  -2.5894770e-02   5.0254350e-01  -6.3142579e-01   1.1873829e-01   6.0031654e-01   5.0692976e-01  -2.6560940e-01   3.7366585e-01   8.7782165e-01   8.3880574e-01   8.9554947e-01   2.0368521e-01  -6.9527128e-01   5.9914179e-01  -4.3745108e-03   8.8909857e-01   9.9694895e-01  -5.1018457e-01  -3.1165174e-01   6.9390098e-01   6.7924534e-01  -3.1900014e-01  -8.1669930e-01   7.1998281e-02   2.7186424e-01   6.8065214e-01   3.2092029e-01  -5.6791509e-01  -5.0429627e-01  -1.6395111e-01   5.7194468e-01   8.0113777e-01  -9.5880644e-01  -2.5021135e-02  -2.6300690e-01  -9.8188820e-02  -8.8189267e-01  -6.9949208e-01  -6.5973232e-02   2.8395026e-01   3.8639328e-01   6.1199076e-01  -7.2189465e-01  -6.7987655e-01  -2.4204750e-01  -7.2207146e-01   4.8094057e-01  -8.5058283e-01   6.1531442e-02  -3.6115100e-01   2.8508870e-01  -8.5137168e-01   6.8071253e-01   3.4117863e-01  -7.8440542e-01   1.3377743e-01  -4.7278884e-01   1.3200642e-01   1.3385681e-01  -7.9289186e-01   5.2422920e-01   9.7968849e-01  -6.3201638e-01   5.3332082e-01   9.0912832e-01  -8.4559822e-01   6.3971237e-02  -8.3265171e-01   1.4893035e-01   8.9570849e-01  -9.6750015e-01  -6.4272091e-01  -4.9682200e-01   6.1620424e-01  -1.2891084e-01  -5.6592653e-01   7.5296221e-01   1.0101181e-01  -4.6453706e-01  -7.5404182e-01   7.2650052e-01  -6.7275817e-01   9.2558391e-01   5.9098533e-02   6.5744900e-01  -2.1304662e-01   5.8757682e-02  -3.0688679e-01   3.7079450e-01   3.4831706e-01  -6.2416738e-02  -1.6080064e-02   5.7712534e-01  -5.1052003e-01  -7.3327233e-02   7.8367427e-02  -5.9033197e-01   3.8929571e-01  -9.6535371e-02   9.9073924e-01  -3.2338929e-01   4.0308904e-01  -7.7419220e-01  -2.0606179e-01  -9.6888523e-01  -8.0348722e-01   6.5420542e-01   5.9268512e-01  -4.0312165e-01   1.5271957e-01  -7.2133592e-01  -4.1403264e-01  -3.7818962e-01   3.8191861e-03  -8.0593949e-01   7.3198442e-01   8.0224905e-01  -3.1353249e-01  -3.4156684e-02   2.7058212e-01   5.0006402e-01  -6.2684707e-01  -6.4395304e-01  -9.2175213e-01  -8.2308239e-01  -9.5757218e-01  -2.4225406e-01   2.4886832e-01   6.5678591e-01  -2.5815249e-01   9.6002674e-01  -2.8987021e-01  -9.6985595e-01   9.3208133e-01  -6.5115475e-01  -4.3051348e-01  -8.4997519e-01  -6.0853204e-01  -1.3421630e-01   4.9552027e-01  -7.5670331e-01   9.7595126e-01   2.1996581e-01  -7.1540567e-01   9.4590692e-01  -7.2669682e-01   3.8594466e-01   3.0556253e-01  -1.0057734e-01  -8.9572139e-01  -4.9434545e-01  -6.0287003e-01   7.6443327e-01   7.0012122e-01   1.6983244e-01  -1.5572816e-01  -3.9504998e-01  -2.0333386e-02  -8.4063737e-01   9.5585458e-01  -7.2073669e-01   8.8018090e-01  -5.3856490e-03   9.0867349e-01  -4.7303073e-01  -9.1315112e-01  -8.1947363e-01  -4.0975720e-01  -9.6776369e-01   8.8898915e-01   3.3848016e-01   8.2126871e-01  -3.5949031e-01   6.8954135e-01   7.5327886e-02  -3.6994820e-01  -5.9048054e-01  -5.3215776e-01   4.6074575e-01   9.9897274e-01   5.4263603e-01  -2.5907490e-01   2.6322756e-01  -3.8959313e-01  -5.4098668e-01  -6.2596372e-01   3.6268711e-01  -8.9819223e-01   7.3432902e-01   7.9696630e-01   4.0783742e-01  -1.7889686e-01   4.6851284e-01  -3.8079102e-01  -8.2734142e-01  -9.5063698e-01  -2.9775082e-01   6.4622144e-01   3.6865815e-01   8.3262757e-01   2.8158263e-01  -8.7839209e-01   7.9293722e-01  -4.3251072e-01  -4.2052906e-01  -1.7056058e-01   9.8981299e-01   1.2825627e-01  -7.1836915e-01   9.1234392e-01   9.8786856e-01   9.9107716e-01  -5.7471864e-01  -5.4393504e-01
  -3.9648967e-01  -8.8335746e-01   4.1492125e-01   4.2588153e-01   6.8757943e-01  -3.6438527e-01   6.8967488e-01  -7.9094151e-02  -8.3432437e-01  -2.3342594e-01  -5.9111028e-02  -1.8004020e-01  -5.9685117e-01  -8.1852770e-01   9.7892131e-01   4.8820359e-01   7.8798844e-01   3.0929854e-01   1.0374875e-01  -5.0645126e-01   7.1420157e-02  -6.7089458e-01  -6.9976000e-01  -2.6920201e-01  -1.3721223e-01   3.7718911e-01   7.0951353e-01   5.3374367e-01  -8.9821700e-01  -7.5349471e-01   7.5456992e-01  -2.3268618e-02  -1.0316986e-01   1.6439732e-01   8.7487187e-01   6.4180191e-01  -1.9263995e-01   2.3176735e-01   3.5736681e-01  -5.9744683e-01   3.6645704e-02   4.3037348e-01  -3.0617346e-01  -8.3904571e-01   6.5768527e-01   2.9270795e-01  -1.5007601e-01   2.6261336e-02  -9.4011865e-01   1.1828846e-01   2.4781094e-01   8.0162880e-01  -9.6726728e-01  -1.8989742e-01   2.7248386e-01  -3.9790318e-01   8.6028728e-01  -2.6102756e-01  -9.7270959e-01   5.6154646e-01   7.4747010e-02   5.5463458e-01   3.7960211e-01  -7.2790205e-01   3.5969091e-01  -6.7751934e-03   8.1685975e-02   1.1759163e-01   9.3858409e-01  -9.4316711e-02   7.9103188e-01   2.6078256e-01   3.6507652e-01   6.2030022e-01  -2.0173242e-01   1.3955793e-01   1.2400562e-02   3.0597512e-01   7.7503302e-01  -1.1450296e-01   6.1241415e-01  -8.7128960e-01  -1.8096674e-01  -5.5537465e-01  -6.9091496e-01   8.4671594e-01  -3.0998834e-01   3.4029344e-01   9.1731676e-01   7.5675347e-01   1.7848146e-01   8.5147652e-02   9.8932416e-01   6.8665958e-01   6.5408023e-01   9.9813595e-01  -5.7047913e-01  -6.8259189e-01  -5.9773102e-01   8.7568932e-01  -7.8350716e-01  -5.5556229e-01  -9.0543613e-01   5.8717268e-01  -7.3746639e-01   2.1479609e-01   8.5512694e-01  -9.8904891e-01  -5.1385530e-01  -6.1918285e-01   5.1719664e-01  -6.5445896e-01   4.9116459e-01  -4.4850177e-01   2.0514712e-01   3.5958038e-02  -1.5894149e-01   2.4533212e-01  -4.7955954e-01  -5.5752452e-01  -9.7281349e-01   7.2200973e-01   5.2412537e-01  -5.8849935e-01   8.0448335e-01   9.2933786e-01   2.2025606e-03   5.0586645e-01   7.3359176e-01  -9.2743188e-01  -2.0087023e-01  -5.2006685e-01   6.0178381e-01   6.5803080e-01   7.6006924e-01   1.2707796e-02   3.5080024e-01  -9.9198394e-01  -2.6934313e-01  -4.4861975e-01  -7.3402215e-01   2.1390930e-01  -5.1111261e-01   3.2810448e-01  -8.7551008e-01   8.7839255e-01   4.4490426e-01   2.6230198e-01  -3.3428785e-01  -3.8491613e-01  -1.0131944e-01   8.9145389e-01   7.9950619e-01   3.5293041e-01   9.8443908e-01   8.3200226e-02  -6.7336700e-01  -5.6649384e-01  -6.5609795e-01   1.4337966e-01  -9.9555477e-01  -8.1417824e-01   7.2820829e-01  -9.7497819e-01   3.1188242e-01   3.4952260e-01  -6.4333909e-01  -1.0486842e-01   1.0988560e-01   5.3236122e-01   7.7862471e-01   2.9244376e-01   5.1105147e-01   5.0483937e-01   1.8338581e-01  -8.2602135e-01  -6.9286699e-01  -8.3763599e-01  -8.6283349e-01  -5.6469536e-02   2.4010046e-01  -3.8873651e-02   3.8675733e-01   8.8085894e-01   5.2736670e-01  -6.0023174e-01   2.8784351e-01  -9.7013814e-01   7.2754158e-01   1.0934399e-01  -2.4291817e-01   9.6676998e-01   9.6344042e-01   7.2431844e-01  -2.2674752e-01   6.7951336e-01  -9.6941529e-01   2.8279905e-01   2.9712767e-02  -6.4363098e-01  -5.5128046e-01   8.4687816e-02  -7.8543957e-01   2.3998983e-02  -1.4888307e-02   1.4213642e-01  -1.0070581e-01  -1.6321742e-01   3.8606059e-01  -6.2275555e-01   4.4007885e-01   7.5704397e-01  -9.9492012e-01   8.7382929e-01  -8.8517312e-01  -3.1049903e-01   9.2454735e-01   4.2020103e-02  -6.5325054e-01   5.0940802e-01  -5.7131806e-01  -5.3536665e-01  -6.0312729e-01  -9.6601583e-01  -6.2729671e-01  -1.0227526e-01  -4.4345387e-01   2.6957616e-01   2.6639603e-02  -6.9187772e-01   6.7477965e-01   4.4650853e-01  -6.6336504e-01   7.0161322e-01  -3.4257662e-02   9.2591394e-01   4.3550397e-02   2.9094258e-01  -1.3433601e-01  -8.4480934e-01  -3.7956636e-02   2.0110668e-01   9.8033842e-01   8.5190575e-02   5.6162672e-01  -2.7630944e-01   5.7667778e-01  -3.4028258e-01   1.8411069e-01   6.7878248e-01   4.2171618e-01  -3.1984227e-01   5.7750550e-01   6.1739826e-01  -1.2691145e-01   2.9931325e-01   5.1750365e-01   5.4337973e-01  -1.7887841e-01  -2.9636541e-01  -6.0477109e-01   2.5929910e-01  -4.6039901e-01   5.3573789e-01   6.5292186e-02  -8.7681083e-01   1.3339614e-01   6.1250598e-01  -8.1964791e-01  -2.5851492e-01  -6.2529882e-02   9.2762488e-01   7.0030483e-01  -2.4262123e-01   6.8396121e-01  -4.6374859e-01  -9.5034425e-01  -6.0286956e-01  -4.4087171e-01   7.5581756e-01  -2.4270757e-01   1.6664379e-01  -7.0450128e-01  -5.0556608e-01   2.2838484e-01   1.0057037e-02  -3.6386821e-01  -8.4684774e-01  -8.4291458e-01   1.2714810e-01   7.4836791e-01   3.5568098e-01   1.4492180e-01   7.2581649e-01  -4.8835081e-01   8.2683534e-01   5.2886036e-01  -8.7737374e-01   5.4549888e-01  -9.0566697e-01   8.7357887e-01   5.5822913e-01   2.2587304e-01  -2.4798887e-01  -3.0504206e-02  -2.4922837e-01   2.0045458e-01   1.1384016e-01   9.5019018e-01  -2.2912182e-01  -4.2397096e-01   7.9978441e-01  -7.8965747e-01  -9.7857961e-01  -1.1426484e-01   8.5738754e-01   7.0065875e-01   6.8588471e-01  -2.4744646e-01  -8.9429499e-01  -3.0091537e-01   6.7383211e-01   6.9101071e-01  -3.4553325e-01  -9.4245796e-01   6.3972148e-01  -6.6771845e-01   1.1065162e-01   7.6796022e-02   9.1986239e-01   6.4229520e-01   9.6013492e-03   8.8723977e-01   3.7108651e-01  -2.2590021e-01  -9.3446448e-01  -7.6140657e-01  -1.1041273e-01   7.8793590e-01   3.5690897e-01  -3.8454923e-01  -1.4288479e-01   5.8372861e-01  -5.1569548e-03  -1.2270369e-01   3.9823559e-01  -3.1004501e-01   4.9110565e-01  -7.9081120e-01   6.9623947e-01  -6.3595685e-01  -4.7039804e-01  -4.5892176e-01   5.2225029e-01   3.8365566e-02  -8.6147737e-01  -6.4741228e-01   4.2936229e-01  -5.0270712e-01   5.0466560e-02  -9.1476704e-01   5.8053373e-01  -5.7249102e-01  -9.1370445e-01  -3.6509792e-01   4.0582152e-01  -7.8134257e-01   2.9629596e-01   1.0730252e-01  -3.3321302e-01   8.6754249e-01  -3.5632073e-02  -3.4437913e-01   9.0814045e-01   1.4468190e-02   3.8050340e-01  -3.1922287e-01   7.1228424e-01   7.0915768e-02   9.6216806e-02   8.6103807e-01  -3.6965428e-01  -9.5873684e-01  -6.3670656e-01  -1.7296143e-01   8.6502502e-01  -3.9843593e-02  -9.2152754e-01  -6.9752304e-01   8.4695634e-01   5.0851082e-02  -7.9143015e-01  -4.7023224e-01   4.4046842e-01  -3.2484621e-01  -3.1170841e-01  -4.1507205e-01   6.6013876e-01   6.0185497e-01  -9.8163763e-01   9.8052033e-02   9.5031457e-01   1.0685499e-02   2.8528554e-01   6.5351894e-02   8.6805559e-02   1.5723090e-01  -5.4975535e-01  -8.2439035e-01  -9.9718395e-01  -2.1894056e-02   3.9861394e-01  -9.2511393e-02   9.1512027e-01   6.9211553e-01   4.2773734e-01   3.9067806e-01  -2.0298345e-01  -7.0067168e-01   9.1717243e-01  -7.5340582e-02  -5.2058088e-01   4.9997733e-01  -2.3571509e-01  -8.0981784e-01  -1.5431664e-01  -7.9530759e-01   6.8282534e-01  -1.5983649e-01  -3.3051279e-01   2.7022197e-01   4.2930463e-01   7.6784680e-01  -4.4133180e-01   4.0308787e-01   4.8683088e-01  -2.2407443e-01  -3.5110363e-01   3.8820285e-01   2.9592688e-01   9.4506050e-01  -5.6656934e-01   6.6007677e-01   2.7793000e-01   8.6224759e-01   6.1993969e-01   8.3768627e-01  -1.3959817e-01   3.1332101e-01  -4.6562702e-01  -4.0649637e-01   1.7941577e-01   3.4304202e-01   5.6518232e-01  -2.7939021e-01  -8.4610188e-01   1.3170145e-01  -8.8805418e-02   2.7301024e-01   5.0400169e-01  -2.6973503e-01   5.0553032e-01   3.8634707e-01   8.4107955e-01  -8.4646186e-01  -5.5662614e-01  -2.2872806e-01  -4.5969675e-01  -2.0250177e-01   8.0689991e-01   8.9603837e-01   7.9875015e-01   9.6338998e-01  -4.2244924e-02  -9.4018801e-01  -4.9291593e-01   5.4995202e-01  -6.2750541e-01  -5.1609410e-01  -9.4393861e-01   6.1304692e-02   7.8085079e-01   9.1741014e-01   3.3548504e-01   5.6832771e-01   3.1621292e-01  -7.4636875e-01   4.7664347e-01   4.6238875e-01  -1.7571413e-01   1.9572569e-01   1.9204770e-02   7.5132446e-01   7.4205075e-01   4.0736467e-01  -3.5831868e-01  -2.8488263e-01   9.8382463e-01  -8.6256229e-01  -1.5174322e-01  -2.7924106e-01   8.4353754e-02  -5.7331078e-01  -7.7351117e-01   2.5952288e-01  -7.8875987e-01   1.2414583e-01   3.8431230e-01  -2.1079741e-01   7.5619951e-01  -9.0530918e-01  -7.0679337e-01  -8.2618072e-01  -1.1208951e-01   4.5459202e-01   1.8070281e-01  -1.7071675e-01  -3.6739705e-01  -2.4951959e-01   3.7483898e-01  -4.1441135e-01   7.2421911e-01  -3.8044641e-01   2.4678467e-01   6.2701260e-01  -8.9716167e-01  -8.0547933e-01   2.4921861e-02   4.4712174e-01  -5.5059003e-01   1.0415320e-01  -7.9825028e-02   3.2099772e-01   9.4416292e-01   6.4287417e-01   4.3479841e-01   8.0937254e-01   2.7291633e-01   7.3025238e-01  -5.3156963e-01  -4.8602812e-01  -7.8584189e-01  -1.5156162e-01  -9.4440356e-01   6.4962211e-01  -7.2261350e-01   5.0167875e-02  -9.0661847e-02   8.5484807e-01   5.6684842e-01  -9.9258954e-01   6.5720058e-01   5.2614177e-02   2.6071225e-01   7.0145121e-01  -7.0116825e-01   6.4385796e-01  -1.9262742e-01  -2.7148967e-01  -6.5965226e-01  -2.7266572e-01  -3.9890225e-01   5.5874904e-01   8.7686106e-02  -1.7712708e-01  -4.9448113e-01  -4.3301990e-01   5.4934671e-01  -4.0532441e-01   5.4940585e-01   3.0985086e-01   1.9241847e-01   6.5299265e-01  -5.8252488e-01   9.1629043e-01   5.0139223e-01   6.3671515e-01  -4.0466053e-01   5.7500863e-01  -1.0006008e-01   9.2979002e-01  -6.1857861e-01  -5.1705630e-01   1.0668362e-01  -5.8605931e-03  -4.2014765e-01  -1.8612855e-01   7.0714968e-01  -7.3489901e-01   8.5548952e-01   4.3257253e-01  -5.6911410e-01   2.7837984e-01   7.4669295e-01   7.3683410e-01  -2.2745778e-01  -4.7800795e-01   5.8667712e-01  -4.6679696e-01   7.1812796e-01   6.0876239e-01   8.4452781e-01  -5.5413286e-01  -7.2775409e-01  -9.8012841e-02  -5.9672884e-01   7.9143787e-01   3.2041877e-01  -9.7060675e-01  -1.0794365e-01  -3.5852071e-01   1.6138452e-01   8.4825349e-01  -6.2891094e-01  -7.6386159e-01   3.1202471e-01   4.7718407e-01   6.5818446e-01   7.7875619e-02  -8.3864845e-01   2.0855326e-01   3.1677216e-01  -9.4929150e-01  -7.1993401e-01   4.8533938e-01  -5.3182045e-01  -9.3031013e-01  -3.2397351e-01   3.2873738e-01  -5.5826853e-01  -2.6794528e-01  -3.1052147e-01   9.8531658e-01   1.0427539e-01  -5.1872535e-01  -5.4350606e-02   4.4261005e-01   3.1569289e-01  -4.5523290e-01  -6.7155853e-03   7.9577544e-01   8.2486181e-01  -9.6988767e-01  -5.3297592e-01   7.1488927e-01   4.4131750e-01  -1.2417489e-01   2.0927377e-01   3.8752990e-01  -6.2786064e-01  -4.8733474e-01  -1.4737028e-01  -5.9501886e-01  -1.4793489e-01   2.2838255e-01   5.0380429e-01   3.0926384e-01  -9.5017884e-01   1.6575466e-01  -2.9484097e-01   9.3863067e-01  -5.0553699e-01   6.7308499e-01   1.3048439e-02   5.5651071e-01  -5.6626133e-01  -5.1986627e-01   1.6707399e-01   8.0027548e-03   2.6329208e-01  -9.6231524e-01   5.3178204e-01  -2.2703654e-01   8.9839603e-01  -7.0655961e-01   9.3426570e-01   5.1926720e-01   5.6571310e-01  -2.3595125e-02   8.3586587e-01   2.5301402e-01   6.8995110e-01  -3.0390345e-01  -4.1170678e-01   6.9262824e-01  -8.5917991e-01   6.1273679e-01   7.6311924e-01   1.5483838e-01  -3.1810000e-01   3.6502193e-01  -5.6664204e-01  -2.3042962e-01  -3.1618085e-01  -3.0692825e-01   9.8079834e-01   3.3225790e-01  -8.1903573e-01   8.1688576e-01  -2.8786763e-01  -9.5338249e-01   9.2993596e-01   3.4232921e-01   5.3906801e-01  -5.1379285e-01  -2.7215777e-01   5.5647534e-01   5.5811397e-01  -5.5931349e-01  -6.5296036e-01   3.5291481e-01   4.7586775e-01  -2.8355714e-01  -7.8709570e-01  -4.0409626e-01   5.1133524e-01  -1.1540749e-01  -1.7994860e-01  -7.7406810e-01  -8.5456572e-01  -9.0715971e-01  -1.5958722e-01   1.6859043e-01   6.1118525e-01   7.0141037e-01   3.2259155e-01   4.9359785e-01  -7.6711928e-01  -8.8061786e-01  -5.8699468e-01  -3.6192498e-01   1.5095483e-02   9.3916271e-01  -7.0824424e-01  -8.4225226e-01  -5.1876533e-02   7.1446303e-01  -4.7596411e-01   2.1404729e-01  -3.8271291e-01   9.1982070e-01   8.8966142e-01   5.5982585e-01  -1.8923589e-01   3.9883145e-01   9.3346037e-01  -9.9902202e-01   2.6984666e-01   9.3212831e-01   6.5361054e-01  -4.5265076e-01   5.3179055e-01  -2.0968668e-01   8.5110494e-01  -8.3836249e-01  -7.3187197e-01  -9.8184001e-01   8.1970855e-01  -2.7320381e-01   5.0703622e-01  -4.1944623e-01  -5.6546248e-02  -3.2175450e-01   6.5780741e-01  -2.0152991e-01  -2.9705870e-01  -3.7438795e-01  -3.0089800e-01  -6.8503186e-01   4.5190081e-01  -1.4886209e-01  -7.5291456e-01  -2.6480757e-01   7.6237447e-02   2.5125317e-02   1.0833448e-01   2.7860990e-01  -3.0806250e-01   3.6167220e-01  -4.7370733e-01   4.9809703e-01  -4.7448962e-01   7.0645623e-01   4.1641959e-01  -4.3611148e-01  -3.9356656e-01   6.6388609e-01  -2.8326734e-01  -2.2927446e-01   5.1335368e-01  -8.9107667e-01  -7.9843966e-01   1.1888715e-01   9.4736974e-01  -9.4196543e-01   5.2234013e-01  -5.3079558e-01  -8.6332800e-01   1.6084731e-02   8.0278334e-01   5.4606049e-01  -2.0835918e-02   5.9441724e-01   6.8166095e-01  -7.4736502e-01   5.9691269e-01   4.9183255e-01  -6.2272542e-01   4.7008772e-01   6.9613517e-01  -4.9237560e-01   3.8465882e-01   2.7987575e-01   3.8582131e-01  -7.0024389e-01  -1.6990759e-01   8.6410256e-01   2.1039623e-01  -2.1816811e-01   8.0793161e-01  -7.0671541e-01   5.1514785e-01   2.3280343e-01  -8.9683243e-01   9.0485884e-01   9.9884960e-01  -5.4450886e-02   6.9000040e-02   1.5061651e-01   1.8712390e-01   4.2862369e-01   8.9421377e-01   4.8481971e-01   2.1535197e-01  -6.0415342e-01  -8.9507785e-01   1.3250360e-01  -8.9664076e-01  -6.8889434e-01   5.4250395e-01  -6.3340704e-02  -3.9856936e-01  -9.0993873e-01  -8.6505182e-01   5.7448111e-01  -5.3896781e-01  -5.0388770e-01  -7.5575875e-01   6.6975203e-01  -8.2702220e-01   4.8140622e-01   6.2330117e-01  -6.0490203e-01  -3.6365633e-01   5.0199802e-01  -2.0476642e-01  -5.5840956e-02  -9.8958703e-01   5.0123121e-01   3.6296977e-01   2.6708978e-01   7.2740156e-01   2.4797398e-01  -7.5705970e-02   9.0723808e-01   6.3271447e-01  -4.9995966e-01   2.4810500e-01  -1.2207634e-01  -1.8929344e-01   6.2126666e-01  -3.6850457e-02  -6.2182311e-01   6.6185604e-01   3.7644749e-01   8.8436063e-02  -8.4765651e-01   2.4234474e-02   4.6159760e-01   5.7602868e-01   3.8606355e-01   2.8061606e-01   3.7626778e-01  -2.3279153e-01  -3.4688242e-01   5.9082294e-01   7.2435905e-01  -1.5943996e-01   5.6432971e-01  -7.3524813e-01   2.9044103e-01   8.7357907e-01  -9.9664868e-01   2.7674729e-01  -7.4890934e-01   8.5978443e-02   3.8347612e-01   8.5314266e-01  -5.6220789e-01   2.5979929e-01  -8.5394666e-01   6.8765633e-01   2.6150602e-01  -6.8594133e-01   5.6179915e-01   5.1043585e-01  -4.9770154e-01  -2.3774586e-01  -3.8972267e-01   9.3439619e-01  -6.7760033e-01   2.2446653e-02  -3.6899774e-01   5.6650627e-01   1.6206726e-01   3.9909427e-01  -8.6124975e-01   9.1151301e-01  -4.4022868e-01  -3.1656059e-01   1.4739759e-01   1.0365350e-01  -6.2260911e-01   3.0009198e-01  -2.8996387e-01   3.2449127e-01  -7.9539884e-01  -2.4753220e-01  -7.6735119e-02  -7.5549218e-02   9.0495419e-01   1.2647473e-01   2.5221073e-02  -7.5841384e-01  -7.7387851e-02   7.7246755e-01   1.0471418e-01   1.7232291e-01   5.5915661e-01  -2.6914164e-01   5.2586646e-01   4.0387152e-01  -7.1123230e-01  -5.8468058e-01  -3.8069297e-01   3.5445968e-01   1.9983340e-01   4.7698902e-01   1.9127835e-01   7.6476794e-01  -3.5200516e-01  -6.8939609e-01  -2.4855756e-01  -6.9839666e-01   9.2371415e-01  -1.8427982e-01   1.1416366e-02   3.2202215e-01  -2.7193236e-01   9.9333978e-01  -6.4511981e-01   9.9041750e-01  -5.1009294e-01  -2.6026578e-01  -4.4998795e-01  -2.7033897e-01  -8.1591405e-01   9.7967175e-02  -2.9712900e-01  -5.8890950e-01  -2.4177074e-02   8.2089882e-01   6.0435456e-01  -1.0024242e-01  -1.0138998e-01   5.2046759e-01   3.4738405e-01  -5.4535685e-01  -8.3425989e-01   2.2260997e-01   2.3947895e-01  -7.3540787e-01  -7.0860948e-01   5.7923033e-01  -1.3495567e-01   9.9787205e-01  -9.7523192e-01  -3.4494700e-01   5.8487795e-03   1.5590159e-01  -8.9903621e-01  -5.3621118e-01   9.9980526e-01   4.0573640e-01  -6.7979130e-01   7.7917064e-01   2.6229883e-01  -2.4245992e-01   1.6934011e-01  -6.3619705e-01
