  -2.5441858e-01  -3.8959978e-01   1.0159961e-01  -3.8152371e-01   5.7075686e-01  -9.6445211e-01   4.3976325e-01  -9.1857384e-01   9.2004582e-01  -4.5170433e-02   4.5610816e-01  -6.1454088e-01  -6.5809707e-01  -9.7669795e-01   9.6186473e-01   8.7958396e-01  -6.2972977e-02  -4.0616458e-01   5.5802427e-01   6.4780662e-01  -8.3237518e-01   2.4157082e-01  -1.4066898e-01  -9.2892761e-01  -5.9508581e-01  -3.7991728e-01  -3.3588097e-01  -8.7837789e-01   8.7450135e-01   4.3439765e-02   6.4494156e-01   2.5795547e-02  -2.5251369e-01  -1.7208097e-01   3.7168011e-01   3.0963583e-01  -3.2232955e-01  -8.7759939e-01   4.4391703e-01  -1.6815641e-01   8.2739694e-02   4.5997691e-01  -7.6901346e-01  -6.2589396e-01  -5.1608266e-01   3.4397089e-01   5.6249310e-01  -8.6132574e-01   5.9825551e-01  -7.3420422e-01   2.0841896e-01  -2.6899570e-01  -7.9816826e-01   7.5261649e-01   3.9445206e-01   8.5581441e-01  -7.5129374e-01  -3.6331074e-01  -9.3200488e-01  -5.9631197e-01   6.6708207e-01   5.8901887e-01   4.4533043e-01  -7.8518622e-01   8.4041565e-01   4.8249929e-01  -9.3087840e-01  -1.0707366e-01   9.1881660e-02   1.2445036e-01   9.2901511e-01   9.2389915e-01   9.6802871e-01   6.9788935e-01   3.1380657e-01   4.4129994e-01   4.3905330e-01  -8.9513738e-01  -5.0216143e-02   5.9235818e-01   1.3688005e-01   7.1322906e-01   7.5150641e-01   5.7625362e-01  -4.3245453e-01  -9.2051975e-01   7.2195708e-01   6.2779364e-01  -2.4822249e-01   4.1763176e-01  -1.0492077e-01  -1.6844333e-01   6.3659114e-01   7.7140402e-01   7.7997675e-01   4.4831354e-01  -2.5441550e-01   3.6593801e-01   5.5359729e-01  -9.8015549e-01  -9.4995501e-01  -6.7525085e-01  -3.1972708e-02   7.5383177e-01   1.3438902e-01  -4.6728707e-01   9.4748946e-01   3.2561826e-01  -1.9371790e-01  -3.7328219e-01   5.9579961e-01  -5.0628284e-01   2.9117664e-01  -5.2511194e-01   1.0487789e-01  -5.7035496e-01   7.2417273e-01  -2.0143742e-01   3.4000070e-01  -4.1995210e-01  -4.0768149e-01  -2.8548459e-01   3.7070413e-01   9.6210139e-02  -4.0624090e-01   8.6829740e-01   5.6132816e-01   4.3381645e-01  -2.5239575e-01   9.3938788e-01  -7.0945031e-01  -9.5903785e-01   8.1822383e-01  -6.6397523e-01  -2.6985145e-01  -5.5678309e-02  -1.3995698e-01  -4.5185920e-01   3.5872227e-01   1.5484665e-01   4.6350495e-01  -1.0463807e-01  -7.7671138e-01   4.5112482e-01   7.1751071e-01  -1.0071402e-01   6.9208224e-01  -5.9179867e-01   7.3834151e-01  -9.6949545e-01   4.2790931e-01   9.0766059e-01   4.0907154e-01  -1.8872672e-01   3.9126653e-01   5.2986840e-01   7.3884363e-01  -8.1622441e-01   9.1628512e-01  -2.3543308e-01   6.3938990e-01  -2.7154642e-01   3.4443273e-01   3.6454102e-01   1.8854869e-01   8.8228408e-01   2.4705774e-01   5.1001546e-01  -3.1754794e-02  -9.9458651e-01  -9.8409830e-01   8.4890171e-06  -9.0193270e-01  -3.7643044e-01  -2.0577011e-01   1.1106937e-01  -7.4491644e-01   6.9408596e-01   1.8291194e-01   9.3438725e-01   6.0504757e-01   2.8199860e-01   4.2880721e-01   6.2325641e-01  -4.6203621e-01   7.6286852e-01  -7.2969820e-01  -9.9605858e-01   3.7907458e-01  -5.5612129e-02   3.2533664e-01   1.4104075e-01   5.6379937e-01   1.3390225e-01  -5.7653224e-01  -5.3670487e-01   2.5121938e-01  -9.8193345e-01   1.0825706e-01  -7.7017051e-01   7.0622303e-01   6.6805864e-01  -7.2066223e-01  -9.2016447e-02  -2.9576347e-01   8.3122235e-02   4.4335068e-01  -2.9293276e-01  -9.8560969e-01   2.7398374e-01   9.7834439e-01   5.3142882e-01   4.9162062e-01   8.1737404e-01   9.3455340e-01  -3.6276473e-01   3.8208218e-01   8.3436429e-01   7.3454809e-01  -8.0986511e-01  -4.9190588e-01  -9.4640064e-02   6.2380953e-01   4.2222032e-02   8.2421478e-01   1.5222194e-01   7.3374838e-01   2.8030662e-02   5.8635139e-01  -6.2531160e-01   2.1672634e-02   6.8691224e-01  -6.1574385e-01   3.4287299e-01  -8.1899587e-01   9.0464024e-01  -1.7566984e-01  -2.2286803e-01  -6.4321755e-01   4.9718614e-01   8.8847216e-01   8.7985790e-01  -9.0869664e-01  -8.8380613e-01  -8.4151662e-01  -2.3863807e-01   4.9025729e-01  -7.8820442e-01  -4.7515844e-01  -8.6470504e-01  -6.3067941e-01  -1.3532065e-01  -9.0773457e-01   5.7466465e-01  -8.6921681e-01   8.3137493e-01   3.5331652e-01   5.5483999e-01   4.7109324e-01  -1.9614709e-01  -6.7356309e-01  -6.0819226e-01   8.6009539e-01   5.8079619e-01   3.3973182e-01   5.3072511e-01   2.9363447e-01   3.4851186e-01  -7.0064930e-01   8.3876351e-01  -7.7932212e-01  -7.0598427e-02  -9.9272444e-01   7.8677078e-01  -8.9448065e-01   9.9373607e-01  -4.3232399e-01   7.1617477e-01   8.1775161e-01  -7.9627913e-01   9.2051971e-01   8.5885992e-01   9.5261710e-01   1.9022654e-01  -2.4827957e-02  -4.1299349e-01  -6.4451790e-01   9.8981589e-01   5.6282013e-01   8.9276007e-01  -2.5778022e-02  -5.5674061e-01  -1.7741367e-01   9.7925610e-01   7.1637388e-01  -6.4344355e-01   3.0363891e-01  -1.1029274e-01   8.3714588e-01   1.9318821e-02   2.1758250e-01   6.5077035e-01   1.6823976e-01  -1.6606919e-01  -8.6053878e-01  -8.8725656e-01   6.2389575e-01  -9.8092063e-01   5.7120121e-02  -4.8138493e-01  -5.8020968e-01   5.2728976e-01  -3.3956710e-01   4.9455814e-01  -5.2683993e-01   3.0756591e-01  -3.8331234e-01   2.3680165e-01   8.7866465e-01  -3.2023826e-01   4.8115721e-01   6.2009005e-01   4.8219956e-02  -6.6098557e-02   9.6745794e-01   6.0403082e-01  -8.8089418e-01  -8.3815351e-01   2.7808856e-01   3.7241080e-01  -2.2844625e-01   5.5443389e-01  -6.4920678e-01   8.9869859e-01   3.0758091e-01   9.2058644e-01  -6.9145944e-02   1.9973623e-01  -1.7128560e-01   7.9194026e-02   4.7143360e-01  -2.2245173e-01   6.3542943e-01  -5.3897822e-01   9.0324809e-01  -2.0913171e-01  -4.3422433e-01  -1.7110960e-01   6.0947967e-02  -3.1987278e-01  -9.8085542e-01   7.1810403e-01  -6.9702034e-01   4.8421746e-01  -3.4117307e-01  -7.5210047e-01  -9.9445371e-02   7.4591357e-01  -1.0585181e-01  -2.1966642e-01  -5.1850736e-01   6.1924030e-01   8.0929473e-02  -8.9252829e-01   3.1847095e-01  -4.9649478e-02   7.7747099e-01  -5.1443662e-01   9.1923820e-01   9.7816913e-01   7.6107229e-02   4.6933523e-01  -5.6299987e-01   2.1748480e-01   2.6485323e-01   9.3574181e-01  -8.0571586e-01  -6.7041859e-01   7.7288375e-01  -4.4637418e-01   1.3512230e-01   4.2042104e-01   2.9879773e-01   7.7878445e-01  -4.4868783e-01   3.1619254e-02  -1.5362950e-01   3.0823223e-01  -1.3583290e-01   2.8504047e-01   8.3866495e-01  -5.6337553e-01  -6.8002370e-01  -6.8423403e-01  -7.0855692e-01  -6.8297677e-02  -2.9251403e-01  -7.4595408e-01   1.4099390e-01  -4.7117422e-01  -4.4883816e-01  -5.2474511e-01   3.2890015e-01   8.9495171e-01  -1.8916136e-01   7.1705808e-01  -5.1016907e-01  -1.6223146e-01  -9.0431707e-01  -3.4176152e-01   1.8256263e-01  -1.2997470e-01  -4.7593937e-02   6.8361250e-01   8.0618175e-01   2.4283205e-01   9.3052005e-01  -2.0889767e-01   4.3714531e-01   1.8396591e-01  -7.2833900e-01  -1.0553792e-01   1.2771418e-01   7.5884849e-01   9.1658505e-01   4.1214855e-01   7.8843250e-01  -1.1703597e-01   3.2046096e-01  -7.2410920e-02  -2.4873969e-01  -4.6812722e-01  -6.4128194e-02   6.6460846e-01   6.1758450e-01   9.2922225e-01   9.3938388e-01   6.9656137e-01  -9.1262838e-01  -1.1050315e-01   7.3064379e-01   1.9709101e-01  -9.1952181e-01   9.5491317e-01   6.8614108e-01  -4.2904938e-01  -5.3130415e-01  -6.9615336e-01  -9.6711208e-01   4.9132429e-01   5.4450976e-01   5.8947828e-01   7.9773224e-01  -2.7479429e-01   4.9379615e-01   1.4502571e-01   6.3757222e-02  -9.8414560e-01   6.8981484e-01   1.6001505e-01   3.3942054e-01   7.3948867e-01   2.7451246e-01   7.7253841e-01   6.4198225e-01   6.3157623e-01  -9.5956015e-01   7.8771064e-01   7.3243990e-01  -3.7057643e-01   6.0284377e-01   7.4487875e-01  -4.4632259e-01   5.6125609e-01   6.2950258e-01  -7.1356168e-01   1.1058740e-01  -7.6215187e-01   9.7644096e-01  -5.0233250e-01   8.0246204e-01  -3.4371762e-01  -9.6873894e-01  -9.0410896e-01  -7.4609653e-02  -9.3126424e-01   6.0518041e-01  -9.5465693e-01   5.5006554e-01   4.4434170e-01   2.5701037e-01   5.1353199e-01  -1.9484994e-02  -2.4519057e-01  -3.4139902e-01   4.5489858e-01   8.4466456e-01  -2.3759945e-01  -6.3521163e-01   3.2463167e-02  -7.0491368e-01  -9.3649559e-01   9.1400416e-01  -9.1676995e-01  -6.7210926e-01  -3.4722510e-01  -8.3130255e-01   1.5133721e-01   9.6141041e-01   7.5503610e-02   2.4174935e-01   4.4647146e-01  -4.1953874e-01  -6.2489593e-02   7.8893144e-01   4.5496151e-01  -9.0059946e-01  -7.4335914e-01   3.5240482e-01  -2.1336687e-01   4.1730990e-01   8.6090881e-01   7.7100940e-01  -5.2209860e-01  -1.1716131e-01   1.2122242e-01  -1.7432465e-01   9.1567431e-01  -8.6987418e-01   6.8446324e-01   8.4428979e-01   1.5082867e-01  -6.6579202e-01  -5.0955244e-01   2.0945209e-01   9.3144144e-01  -8.6943155e-01   3.0337698e-01  -3.9023774e-01  -7.2646299e-01  -5.4495843e-01  -7.0076808e-01   9.3785105e-01   8.9306374e-01  -9.9510726e-01  -3.7544510e-01  -4.6901050e-02  -7.3088766e-01  -9.7130041e-01  -4.5036235e-01   1.4964957e-01  -1.5888051e-01  -8.4676797e-01   4.8240190e-01   3.5849634e-01   8.0416341e-01   2.1359048e-01  -8.4127804e-01   2.1093654e-01  -7.8988686e-01  -8.4256311e-01  -7.8818518e-02   7.9021755e-01  -1.7733081e-01  -8.3112273e-03  -7.3200192e-01  -6.4906151e-01  -5.4872651e-01  -2.0776640e-01   4.4027755e-01   6.9114215e-01   2.6783492e-02   2.5735363e-01   3.0801996e-01  -7.6959368e-02   7.4883927e-01   3.6737803e-01  -5.3536362e-01   1.2707928e-01  -8.2564261e-02  -5.1311038e-01  -9.4782277e-01  -1.5246197e-01   8.0341336e-01   2.9211185e-01   2.3896816e-01   6.6008183e-01   9.6101757e-02   9.5514404e-01  -4.1423447e-01  -9.6429012e-01   7.4134015e-01   7.1349755e-01   5.9900792e-01  -7.9773671e-01  -6.4228834e-01   3.8727536e-01   8.4797962e-01   3.4399557e-01   4.7196764e-01   1.4137906e-01   5.1655422e-01  -5.1115096e-01  -7.8451196e-01  -8.2911576e-01  -1.2735750e-01   8.6476895e-01  -2.4722352e-03   3.5945335e-01   4.8080766e-01  -3.0964736e-01   2.5467760e-01  -4.8097573e-01  -1.5744571e-01   9.4020122e-01   1.4964265e-01   5.6224344e-01  -2.6000906e-03   1.5855398e-01  -4.2252602e-01   9.3972772e-02  -1.3777157e-01  -9.6773879e-01   5.7222035e-02  -7.0770291e-01  -6.1787508e-01  -3.0071184e-01  -2.7271891e-01  -7.7864825e-01   6.3832026e-01  -8.2994195e-01  -8.8341983e-01  -4.2514537e-01  -4.2853617e-01   3.4683140e-01  -6.3950798e-01  -6.1009164e-01  -3.1001973e-01   9.1868126e-01   6.0738135e-01  -1.0739717e-01   8.3052693e-01   8.1084453e-01  -1.3819838e-01   3.2310609e-02  -6.9100529e-01   7.3433208e-01  -7.3364144e-01   8.8141416e-02   7.4516649e-01   6.7115329e-02   8.7601818e-02   9.8724732e-01  -8.6194825e-01   4.5305205e-01  -4.6102069e-01  -6.8014808e-01  -8.5381794e-01   5.5001410e-01  -7.1471251e-01  -4.7206304e-01  -1.9887711e-01   5.5308975e-01   6.4945647e-01  -1.4202890e-01  -7.7692192e-01   7.0267525e-01  -4.0660712e-01   8.3916812e-01  -5.6952216e-01   5.0426097e-01  -7.5663210e-01  -6.6069017e-01   1.7525711e-01   6.2199198e-01  -7.1984635e-01  -4.1158319e-01  -8.2701554e-01  -6.0766721e-01  -2.2122109e-02   1.1400989e-01   6.1221845e-01   9.1416618e-01   5.6571405e-01   4.8628489e-01   4.4009307e-01  -6.9184905e-01  -8.3333168e-01  -6.9013084e-01   6.2359205e-01   5.8900795e-01   5.3845282e-01   4.2646222e-01  -9.1364699e-01   6.2479187e-01   5.5495565e-01   6.4776085e-02  -8.2374018e-01  -8.3046488e-02  -9.5497674e-01   6.0066777e-01  -3.1408662e-01   8.5638122e-01   3.6926024e-01   2.8051757e-01  -8.2852451e-01   6.0854656e-02   9.9241769e-01  -4.0349502e-01   3.0493884e-01  -3.6450588e-01   5.3228256e-01   7.4172366e-01  -9.6763439e-02   6.6780792e-01  -8.6582917e-01  -6.9682890e-01   5.0950321e-01   3.8328221e-01  -7.5080589e-01  -2.1454491e-01   6.3586346e-01  -7.4994955e-01  -8.7066978e-01   8.5130082e-01  -3.6926461e-01  -8.4570934e-01   8.9030467e-03   7.3653292e-01  -4.4373606e-02  -9.5014242e-01   6.6075690e-01   5.4010130e-01  -9.1564270e-01  -3.4378919e-02   9.4233530e-01   5.6592041e-01  -7.2053773e-02   7.3727506e-01   2.6129475e-01   5.3346185e-01  -2.6096326e-01  -3.0737236e-02  -6.6625449e-01  -6.7865646e-01  -7.7303933e-02   7.7818765e-01  -4.0068671e-01   4.6481239e-02  -7.2794400e-01   2.7618273e-02   1.9714752e-01   6.6620897e-01  -6.7235599e-02   6.7560822e-02   2.1333980e-01   2.4674404e-01   8.2411444e-01   2.0057500e-01  -7.3001989e-01  -4.3634932e-01  -9.2975603e-01   6.9649439e-01  -8.4657358e-01  -4.8884896e-01  -6.5557479e-02  -8.9284074e-02   2.0773794e-01   2.6620428e-01  -8.7954655e-02   9.1882588e-01  -4.2913825e-01  -4.8240397e-01   6.6791272e-01  -1.9791993e-01   2.7616174e-01  -3.6122249e-01  -9.3256079e-01   2.2860176e-01  -6.8032571e-01  -5.8258005e-01   1.5745087e-01  -3.5715043e-02   1.1974462e-01   4.6899528e-01  -5.9987622e-01   4.5881947e-01   3.0517059e-01  -6.1161187e-01  -4.1745631e-01  -3.4601909e-01  -9.5777992e-01   5.6640251e-01   1.3055888e-01  -6.4635273e-01  -9.7640462e-01  -4.6148848e-01   9.0890060e-01  -5.0131600e-01   1.0324099e-01   4.2520272e-01  -2.8920455e-01  -6.7462551e-01   3.6945033e-01  -4.0192092e-01   5.0736037e-01   6.5849475e-01  -7.4315633e-01   1.7164426e-01   7.2302507e-01  -9.4555497e-01   1.7459139e-01   9.3138979e-02   7.6805032e-01   8.5189751e-01  -7.5368604e-01   6.1770660e-01   5.2442208e-01  -7.1437663e-01  -9.2049762e-01  -4.8930359e-01   3.2642116e-01   1.9948184e-01  -4.2672015e-01   5.7655717e-01  -4.3121933e-02  -9.4404069e-01   3.5496507e-01   6.2314146e-01   4.7978344e-01   1.4870428e-01  -9.3521187e-01  -2.7420491e-01   2.5936679e-01  -7.8168539e-02  -8.9107022e-01  -3.7154562e-02   5.9202855e-01   4.6329171e-01  -4.1597859e-01  -6.5415840e-01   5.5037886e-02   9.0943906e-01   1.8440359e-01   7.3520055e-01  -5.9829137e-01   5.4057702e-01   7.6299070e-01  -5.6709084e-01  -7.9727546e-01  -5.6395673e-01  -9.3288920e-01  -1.8449334e-01  -5.2596962e-01  -8.5141123e-01   8.5959890e-02  -5.4427041e-01   7.5097974e-01  -7.7683849e-01   2.5668358e-03  -7.3400117e-01  -2.0085788e-01  -2.5326696e-01   6.5417276e-01  -2.5961281e-01   9.6193589e-01   9.6632242e-01   5.1781982e-01   6.6734188e-01  -5.5167111e-01  -4.7482821e-01   7.2827349e-01  -6.7934495e-02  -6.5791857e-01  -2.5235172e-01  -5.9125362e-01   2.6417262e-01  -4.7645798e-01  -6.6292892e-01   7.5644724e-01  -2.2940542e-01   6.7540440e-01   2.4467690e-01   7.9573795e-01   3.2249848e-02   8.0155164e-01  -5.2833084e-01   7.5918807e-01  -7.4486420e-01   9.4668074e-01  -8.7339515e-01   1.2863370e-01  -6.6844242e-01  -8.4742869e-01   3.7690788e-01   9.2184728e-01  -9.5591381e-01  -5.7385025e-01  -1.7006586e-01  -5.3584542e-01   9.7907640e-01  -4.8343453e-01   9.9251149e-01  -5.5936212e-01  -3.3727722e-01  -7.3977928e-01   3.4703641e-01   9.4254968e-01   6.7323724e-01   7.4736538e-01  -8.9567605e-01  -1.8838521e-01   8.8560512e-01   2.8947067e-01  -9.3698744e-01   9.9230460e-01  -3.1582948e-01   4.2659682e-02   2.1801380e-01   6.6621900e-01   8.6309369e-01   5.3407365e-01  -7.8131478e-01  -4.3256821e-01  -3.9463815e-01   1.1362374e-01   6.5402934e-01  -8.5013644e-03   9.0074882e-01  -4.9774408e-01  -5.8248406e-02   1.6802129e-02  -5.4350720e-02  -6.9044146e-01  -7.1993415e-01  -8.7369320e-01   8.2567841e-01   9.9283670e-02  -2.7722520e-01   1.4283594e-01   8.3227093e-01  -1.0806244e-01  -3.3778225e-01  -8.6818248e-01   2.1014212e-01  -1.0133088e-01  -2.5996052e-01  -4.3122138e-01   1.5764197e-01  -9.0077664e-01   7.5237465e-01   9.5121632e-01   1.0907232e-01   3.0775281e-01   6.1876930e-01  -5.2726781e-03  -9.6716205e-01   1.3336171e-01   4.9378344e-01  -9.4365254e-01  -5.5227485e-01   1.2751382e-01   5.9362581e-01  -4.2178125e-01  -2.0350438e-01   3.7912668e-01   3.1522724e-02  -8.9709841e-01  -3.6469092e-01  -3.0487822e-01  -1.7671388e-01  -7.8294903e-01  -6.5619267e-01   2.3939444e-01  -8.6801586e-02  -8.6579440e-01  -8.9475989e-01  -9.5394847e-01  -3.9464994e-01   3.6831177e-01   9.5563453e-01  -7.4998657e-01  -1.2096745e-01   4.1174275e-01  -3.7698714e-01  -5.7855475e-01   3.0674562e-01   8.2499421e-01  -2.1488709e-01   8.2295733e-01   2.6634954e-01   4.5935527e-01  -7.9128406e-01  -7.1535678e-02   8.9148430e-01  -6.0525127e-01   1.8536098e-02  -9.0559243e-01   2.1290051e-01   1.6045047e-01
