   1.9025930e-01  -9.5205821e-01   7.6930326e-02   5.3347996e-01  -4.2161873e-01   4.8234414e-01  -7.3053681e-01   6.3849658e-01  -7.6478828e-01  -5.6599665e-01  -9.6035437e-01   9.9483745e-01   3.1612397e-01  -2.1351498e-02   4.4991100e-01   9.9989544e-01  -9.3363633e-01   7.4577364e-02  -4.9566229e-01   7.1736846e-01  -1.1521035e-01   2.6561004e-01   3.5853658e-01   9.0995990e-01  -8.4908895e-01  -7.4881642e-02  -4.6448655e-01   3.4804166e-01   1.1060879e-01   8.9000883e-01  -5.5230832e-01   1.8662706e-01   1.9991961e-01  -5.4683264e-01  -6.9729311e-01  -7.6673067e-01  -3.1240950e-01   7.1883940e-01   5.7090867e-01   1.2548709e-01  -6.2406173e-01  -4.2450810e-01   9.7359320e-01   6.4849054e-01  -3.7630772e-01  -5.5638842e-01   6.2088141e-01  -9.2114837e-01   1.6077490e-01  -7.0151389e-01   9.1251672e-01  -8.1566445e-01   8.2860708e-01   3.6685842e-01   1.5954094e-01  -7.8698679e-01   9.7358525e-01   4.4637230e-01   9.3107827e-01  -1.7978710e-01  -9.3525588e-01  -3.9327711e-01  -2.2228375e-01   7.4971374e-01   6.0797542e-01   6.1350988e-01   9.5852537e-01   6.2068343e-02   9.4657062e-01   8.0093081e-01   9.6236695e-01  -2.4569617e-01   4.5871702e-01   6.4296281e-01  -3.2228873e-01   4.9550127e-02   6.4276921e-01  -9.7971613e-01  -6.0879687e-01  -6.0487823e-01   2.5308875e-02  -9.3711556e-01   8.5650350e-01   2.2468855e-01   8.5056378e-01  -3.7904641e-01  -4.8117942e-01  -1.4470084e-01   2.2471072e-01   6.0854770e-01   9.8348196e-02   4.9947475e-01  -1.6399234e-01  -6.4108587e-02  -7.6357496e-01   1.9473263e-01   6.5452209e-01  -9.3714877e-02   4.6488141e-01  -9.1691625e-01   6.9261510e-01   6.9281263e-01  -9.9482803e-02  -9.1976533e-01  -2.6409906e-01  -4.4255014e-01  -8.7996131e-01   4.5665792e-01  -8.2203004e-03  -5.8986378e-01  -2.2223150e-01  -1.5353396e-01  -3.0926121e-01   4.7641740e-02   7.1815706e-01   3.0552356e-01  -9.2369645e-01   1.0700134e-02   5.7781934e-01   4.4277812e-01  -1.6389701e-01   1.2874928e-01  -9.4190667e-01   8.3109019e-02   3.5645155e-01  -1.8279992e-01   1.1318401e-01   1.0729695e-01   1.1896118e-01   4.9430816e-02  -5.1863639e-02  -6.6035227e-01   2.0292184e-01   6.3413750e-01   7.1905422e-01  -3.7176756e-01   3.6734202e-01   4.9184956e-01  -3.0049782e-01   8.0053906e-01   8.9023823e-01   3.6395229e-02  -3.9144969e-01  -1.8750909e-01  -4.8561084e-01  -4.9228764e-01   6.0559265e-01  -7.8212463e-01  -3.3015080e-02  -4.1146655e-01  -7.6873797e-01   7.1953365e-01   5.4522002e-02   7.0706261e-01  -7.3089299e-01  -4.4074951e-02  -7.3085088e-01  -9.6406522e-01  -1.1315398e-01  -5.5797747e-01  -8.9967707e-01  -2.1262945e-01  -1.4126214e-01  -2.0417465e-01  -6.2652780e-01   8.6258142e-01  -6.7040781e-01  -9.5446264e-01  -7.3628539e-01  -3.8486909e-01  -3.0489552e-01   8.2954240e-01   9.6994075e-01   2.2054868e-01  -5.2769917e-01   5.6997410e-01   6.9547442e-01  -2.7136158e-01  -7.5430137e-01   4.1135490e-01  -3.2228046e-01   8.7664696e-01   8.4830130e-01  -3.3131483e-01  -2.3543685e-01   9.5342363e-01   7.9210915e-01   7.9395528e-01  -8.9044635e-01  -3.2205823e-01   5.0826047e-01  -9.6088082e-01  -7.1179811e-01  -6.2933037e-01  -1.4695609e-01  -2.6526800e-01   3.8461521e-01  -2.7355773e-01   2.5052601e-01  -2.7911887e-02  -8.7082627e-02   6.6946159e-01  -1.6619437e-01   3.5706087e-01   2.1986918e-02   1.6250920e-01   2.8336831e-01   3.0821022e-01  -2.2522462e-01  -1.8088948e-01  -3.9020941e-01  -2.6621287e-02  -9.7222658e-01  -2.9372243e-02   7.0706189e-01  -6.4531639e-01   6.9401928e-01  -1.4389489e-01   3.6681530e-01   2.5958758e-01  -3.7419010e-01   8.2272268e-01   8.8767347e-01   9.9201152e-01  -8.7777596e-01   9.3833210e-01  -9.3459727e-01   9.2049289e-01   4.4088484e-01  -5.7259017e-01  -1.9668092e-01   5.0681100e-01  -9.4214572e-01  -8.9774214e-01   9.5944626e-01  -1.8609933e-02   6.1525799e-01   6.2852218e-01  -1.3456806e-01  -3.5926312e-01   8.4394534e-02  -2.9703249e-01  -4.9184312e-01   4.3704364e-01   2.5606090e-01  -6.5181878e-01  -2.2282655e-01   9.4076097e-01  -9.7637830e-02   8.0419319e-01  -2.8298079e-01  -1.2404792e-01  -4.2112127e-01   1.8188634e-01   2.0034004e-01   4.5811456e-02   3.1560657e-01   2.0647160e-01  -5.3292936e-01   2.8989473e-01  -7.6368175e-01   8.6462299e-01   9.8273498e-01   3.6241666e-01   1.5786353e-01  -2.4826220e-02  -6.6251646e-01   7.8467602e-03   3.9778296e-01   2.6025441e-01  -3.7688381e-01  -8.7282705e-01   4.5167126e-01   6.3252057e-01   5.5328697e-02  -6.8882178e-01  -7.5542943e-01   7.5573407e-01  -1.0134707e-01  -3.7903108e-01  -2.1182964e-01  -3.3269481e-01   1.8596103e-02   5.3013774e-01   1.7122651e-01  -7.2449437e-01  -2.7414735e-01  -2.7721537e-01   7.4415642e-01  -8.2149517e-01   8.0245669e-01  -4.4054994e-01  -3.3357751e-01   6.2269894e-01  -5.3284185e-01   8.9073924e-01  -5.2981904e-01  -6.1441015e-01   5.0663317e-01  -9.4806247e-01   9.1290349e-01  -4.3262826e-01   7.5334847e-01  -1.2692282e-01   8.2833721e-01   8.3950233e-01   5.3244048e-01  -7.8783165e-01   2.6031491e-02   9.0570484e-01   1.5328869e-01  -7.8402145e-01   4.6171788e-01  -8.9490154e-02  -6.7551621e-01  -6.0867973e-01  -8.8889587e-01  -9.4927333e-01   9.2454403e-01  -4.3365944e-01  -1.2906032e-02   6.0403027e-01   2.3082185e-01  -7.6529073e-01  -2.9962882e-01  -7.5731167e-01   8.2542192e-01  -4.4497105e-01  -1.8369580e-02   6.4937585e-01   5.3015339e-01  -5.2836762e-01   3.3917046e-01  -6.3939257e-01   7.3803078e-01   8.7805021e-01   3.4336526e-01   7.9864992e-01   1.2199338e-01   8.9385752e-01  -7.1979525e-01   9.9185423e-01  -9.4449009e-01  -8.1191307e-01  -3.9940573e-02   1.5650296e-02  -3.9241907e-01   5.4025573e-01  -3.7480956e-01  -5.1535813e-01   9.3541729e-01  -4.2433001e-01   7.3696849e-01  -5.0697802e-01  -3.2856853e-01  -9.7557960e-01   7.9585770e-01   1.2191504e-01  -9.0951834e-01  -5.2070414e-01  -6.6060185e-01  -8.6168111e-01  -6.9120868e-01  -7.6075216e-01   7.4012172e-01  -7.5555869e-01   5.2226223e-01  -2.7307001e-01  -4.7876348e-01   5.9959382e-01   8.1065677e-01   4.1771797e-01   6.2830885e-01  -1.9920278e-01  -3.0269364e-01   6.8084633e-01   5.7305752e-01  -1.4225937e-01  -9.3003033e-01  -5.6991065e-01   3.0138222e-01   6.1197340e-01   8.2900816e-01  -3.7787639e-01  -9.9187817e-01  -1.8607695e-01   9.4956745e-01  -6.0272823e-02   5.7501874e-02  -5.8168285e-01  -7.8729123e-01  -5.6226829e-01  -6.9914737e-01   4.7649016e-01   8.5977854e-01   9.4027175e-01  -7.7443864e-01   8.5212520e-02  -6.8035076e-01  -6.2756858e-01   5.7080517e-01  -2.8471303e-01   9.4755065e-01   3.2588649e-01  -2.6601604e-01   3.8807134e-01   4.2368400e-01  -3.5906382e-01  -4.0385783e-01  -6.5356649e-01   2.0808843e-01  -6.6927137e-01   6.1499950e-01  -9.9886123e-01  -6.4778237e-01  -9.1180363e-01  -1.0244392e-02  -4.0608472e-01   1.7199889e-02   4.5215811e-01  -5.2096103e-01   2.8195335e-02   1.1757953e-01   9.1529919e-02   7.4833889e-01   2.5803633e-01   9.5260650e-01   7.9770249e-01   5.1225808e-01  -1.6134096e-01  -4.9793941e-01   3.1219435e-01   3.8737415e-01   6.5651214e-01  -8.3022175e-01  -1.7109439e-01   9.5982760e-02  -2.9919204e-02   6.3551602e-01  -4.0179095e-01   2.0432389e-01   4.1584526e-01   9.4625370e-01  -2.2000507e-01  -4.2001690e-01  -1.6603709e-01  -6.7655468e-01  -2.6552479e-01   5.4084184e-01  -7.1648198e-01   9.4732512e-01   6.0497272e-01   9.7449590e-01  -6.6187774e-01   1.6144187e-01  -7.6250550e-02  -5.4042860e-02  -7.1084537e-01  -2.9380327e-01  -8.2190272e-01   2.6719060e-01  -6.6707809e-01  -4.9804334e-01   8.4105300e-01   8.1812834e-01   3.1828253e-01  -9.0705737e-01   8.8038368e-01  -7.1968021e-02  -1.3681533e-01   3.1658954e-01   1.6257176e-01  -6.2866998e-01  -9.6520980e-01   6.7127702e-01  -3.1371223e-01  -7.2360721e-01  -6.5589520e-01   5.0946167e-01  -3.7785456e-01   4.3407333e-01   6.0141847e-01   8.7104216e-01  -5.6093719e-01  -3.5255559e-01  -7.0322792e-01  -1.4110310e-01   1.1131225e-01  -3.6658704e-01   3.6546242e-01   2.2062886e-01  -1.8298081e-01   4.4641733e-01  -8.4349690e-01  -3.0081005e-01   9.1447289e-01  -1.6675966e-01   3.1946504e-01  -5.8471122e-01   5.0008939e-01  -7.4628282e-01   4.0844507e-01   2.3776467e-01   7.7870764e-01  -2.3069028e-01   9.7055805e-01  -4.7038943e-01   7.9399917e-02   1.7506815e-01   9.7414309e-01  -4.1893880e-01  -1.9285592e-01   3.2889248e-01   6.3445032e-02  -5.1238478e-01   3.9342899e-01  -2.3531484e-01  -3.5052542e-01   4.3933784e-01  -7.3851686e-01  -4.1543760e-02  -1.2746205e-01  -3.5577881e-01  -1.0587092e-01   9.1967732e-01  -2.4775261e-01  -3.2942102e-01   5.5971976e-01  -1.2406688e-01  -5.3784722e-01   7.5620208e-01  -9.2289049e-02   8.5502559e-02  -9.3795846e-01  -9.2332438e-01  -3.0736575e-01   6.3063930e-01   4.8831128e-01  -6.7565196e-01   5.6894637e-01   8.6710316e-01  -3.6931408e-01  -3.5213464e-01   5.0347032e-02   5.1786467e-01   3.7027938e-01   3.2793350e-01  -4.3187609e-01   7.2502204e-01   2.9914718e-01   1.9541329e-01  -6.6096664e-01   4.8676501e-01  -1.5525914e-01   8.8666312e-01   9.0735710e-01   6.8624169e-01  -5.5646933e-01  -4.5526958e-02   3.2435094e-01  -6.7803460e-02  -6.7407480e-01  -7.1527128e-01   9.5218397e-01  -8.7722621e-01  -1.6784008e-01   4.5046279e-01  -4.4286052e-01   4.3081466e-01   8.6017447e-01  -8.1377565e-01  -6.2817125e-01   5.5145680e-01   4.7642689e-01  -3.6223969e-01   8.8224421e-01   6.3757052e-01   9.6366986e-01  -8.1649678e-01  -6.4033603e-01  -7.4594064e-01  -6.1061509e-01  -9.2014868e-01  -3.4390912e-01   2.4485336e-01   2.1403355e-01  -2.0654195e-01   3.4095972e-03  -6.5060412e-01   2.3919912e-01   1.2045712e-01  -6.4403392e-01  -3.2109346e-01   3.2970288e-01   5.8104452e-02   8.2340994e-01   9.3663989e-01  -9.9371847e-01   6.0799336e-01  -4.2778636e-02  -3.2733606e-01  -1.9027806e-01  -3.6827851e-01   7.0658433e-02  -9.8494929e-01   7.1124359e-01   2.8076374e-01   1.0505151e-01  -6.8333753e-02  -7.1886194e-01   3.0294033e-01  -2.9537971e-01   2.6765703e-01  -5.8746070e-01  -3.1484981e-01   8.0537991e-01  -6.4857558e-01   7.0805072e-01  -5.6786605e-01  -7.6392956e-01  -5.1586798e-01   2.0648935e-01  -9.4282953e-01   1.4661317e-01   3.9121478e-01  -6.6539700e-01  -2.3683736e-01  -4.7454330e-01  -9.7967686e-01   4.8156928e-02  -6.9734686e-01   2.1532706e-01   1.9965399e-01  -7.5791723e-01   9.7855483e-01  -8.1640042e-01  -6.3868331e-01  -1.5790116e-01   4.0185697e-01  -3.7405525e-01   7.9310787e-01  -3.9099771e-01  -6.4283624e-01   3.8096710e-01  -3.2657241e-01   1.1258466e-01  -9.2670329e-01   6.4781930e-01  -5.4821830e-01  -5.2714977e-01   4.1815869e-01   8.0512235e-01   1.1287723e-02  -4.3644878e-01  -8.5147571e-01   8.2342177e-01  -4.4571421e-01  -9.8613404e-01   7.1056597e-01   2.0264890e-01  -3.8051216e-01   3.3051599e-01   2.2654596e-01   8.6917513e-01   9.4986300e-01  -5.5852543e-01  -5.0973175e-01  -2.9270109e-01   6.2232723e-01   4.9652428e-01   7.4663642e-01   9.8930823e-01   5.8952875e-01   2.1931273e-01  -5.6829855e-01  -7.8806243e-01  -9.7738130e-01   1.6630433e-01  -8.6073703e-01  -7.8119828e-01  -6.4157036e-01   4.0048054e-01  -9.8356703e-01   3.3639324e-01   6.8860164e-01  -3.0978750e-01  -9.4722227e-01   1.8067420e-01   9.2827789e-02   8.3067474e-01  -2.0890339e-01   2.5947980e-01  -8.8883192e-01  -9.3236147e-01  -1.1447980e-01   9.9550292e-02   3.2521193e-01   9.6006676e-01   6.2135341e-02  -9.0231754e-01  -4.7991160e-01  -4.9262584e-02   8.9775842e-01   8.2357757e-02  -3.2672899e-01   3.8412359e-01  -8.3079393e-01   4.4520746e-01   3.6211101e-01   1.3113870e-01   9.6210615e-01  -2.8895293e-01  -5.4538718e-01  -8.9160813e-01   7.0792294e-01   2.1920094e-01  -8.0348894e-01   5.3307707e-01  -6.3644239e-01  -3.0811425e-02  -8.5155310e-01   3.0772844e-01   7.2431598e-01  -6.7370375e-01  -7.6622699e-01  -4.5146261e-01  -6.1895893e-01  -8.1759784e-01   7.4106487e-01   7.0507686e-01  -8.8489180e-01   5.8782015e-01   3.5605669e-01   7.0451178e-01  -3.6506587e-01  -6.3118490e-01  -8.9299479e-01  -9.4854094e-01   5.3390479e-01   1.4752939e-01  -8.5942933e-01   8.0677516e-01   6.3387873e-01   9.4520275e-01  -6.9999250e-01   1.6307386e-01   1.7274841e-01  -7.2440448e-01   2.5329520e-02   5.1018398e-01   5.1045679e-01  -8.6018825e-01  -7.8309272e-01  -4.3747031e-01   3.3907757e-01   4.0453664e-01   4.6870242e-01  -7.9339022e-01  -9.5017048e-01  -1.3967344e-01  -9.4551053e-01   8.1161959e-01   8.2983325e-01   3.8928210e-01   8.1550646e-01   4.3394749e-01   7.0088545e-01  -5.7077853e-01  -8.1455717e-01   3.2656085e-02   7.1111239e-01  -6.1421484e-02  -3.6151120e-01   1.0459661e-01   6.3829087e-01   2.9683887e-01  -9.8459972e-01   1.8294020e-01   8.3883398e-01   1.6113114e-01   9.5071474e-02   9.3021246e-01  -6.4937622e-01   3.2091315e-01   6.9991872e-01  -1.2152419e-01  -4.3873527e-01  -8.1358183e-01  -2.4033582e-01  -7.7279546e-01  -3.1019812e-01  -2.0818560e-01   2.1740334e-01   2.8880821e-01  -5.5440052e-02   8.5913034e-01   1.4815846e-01  -3.2393637e-01  -5.6588424e-01  -9.1657601e-01   6.9311445e-01   8.9033458e-01   2.2424551e-02  -2.8489674e-01   8.5229874e-01  -5.5366976e-01  -9.0314904e-02  -9.0814131e-01  -4.2198440e-01   8.5613294e-01  -3.3125276e-01   6.2532339e-01  -6.3845339e-01   5.2970364e-01   8.6096035e-01  -3.5687563e-01   4.4252393e-01  -7.9336641e-01   1.5955097e-01  -9.4403317e-01  -8.0308998e-01  -7.1908801e-01  -4.4416116e-01  -9.4685860e-01   4.9896633e-01  -4.6886770e-01  -6.6737562e-01   6.6703384e-01  -5.9262150e-01   8.6972012e-01   4.3721934e-01  -5.0733116e-01   4.1583704e-01   4.0383601e-01  -4.6725532e-01   7.7369745e-02   4.1532793e-01  -2.5402849e-01   3.3651418e-01  -3.6424775e-01  -1.3384767e-01   5.3165597e-01   7.5320843e-01   3.8088283e-01   4.2104778e-01   8.6068709e-01  -9.4943337e-01  -5.1235463e-01  -4.3414640e-01  -8.9391614e-01   9.2388596e-01  -5.9176579e-01  -8.7698491e-01  -6.9362712e-03  -1.9830803e-02   7.6679805e-01   8.5979145e-01  -7.0861541e-01  -1.6211182e-01   1.3645327e-01   2.7791867e-01  -5.6199353e-01  -8.3693071e-01  -8.1594863e-01   7.7961410e-01  -5.2482527e-01   7.3297852e-01   1.2934462e-01   2.2003376e-01  -9.0726943e-01   8.9896249e-01   4.2421330e-01   1.7859694e-01   9.0284937e-01  -7.9180229e-01   2.0824799e-01  -6.3400758e-01  -7.7522840e-01  -4.9146129e-01  -7.6113693e-01   4.8910684e-01  -4.0245338e-01   3.1262126e-01   9.0703033e-01   3.6717077e-01   6.6468125e-01  -8.2058937e-01   9.6311524e-01   3.0214839e-01   2.9034259e-01  -2.6646946e-01  -3.7013458e-01  -3.7256184e-01   9.7025498e-01   4.2249948e-02   6.0721264e-01   6.0850427e-01  -6.9431540e-01  -4.0680262e-01   7.9082624e-01  -2.3680291e-01  -2.7477178e-01  -2.3265390e-03   5.3269591e-01   8.0491549e-01   9.3594801e-02  -7.0698068e-01  -3.5659700e-01   4.0586506e-01  -9.0974090e-01  -5.4839574e-01  -4.7812862e-01   4.2352116e-01  -6.3870057e-01   5.7461476e-01   1.1480287e-01   8.1655947e-01  -5.1359398e-01   6.7441907e-01   1.1506583e-01  -1.7118161e-01  -6.1387506e-01  -3.3993970e-01  -6.4766606e-01  -3.1654178e-01   9.4601296e-01   1.2948417e-01  -3.7967796e-01   8.4457172e-01  -7.8413696e-02  -5.9524177e-01   1.1632292e-01   4.5911857e-01   8.7931273e-02  -7.1584473e-01   7.5418528e-01  -3.7341694e-01   6.3508552e-01   9.2257950e-01  -7.2051977e-01   5.4954808e-01   9.1610552e-03  -9.6383489e-01   2.7455005e-01   8.1331502e-01   5.7368311e-02   4.4010593e-01   9.8466200e-01  -8.4415747e-01   1.7177152e-01   7.9142833e-01  -5.0154115e-01   8.1837764e-01  -2.1781519e-01   7.6499464e-01  -3.3070166e-01  -6.3502762e-01   4.5743701e-01  -2.7459488e-01  -3.3886222e-02  -3.5945806e-01   9.4801949e-01  -7.2157458e-01   7.8473841e-01   8.3985218e-01   4.4899469e-01   8.5181662e-01  -5.4717551e-01   1.2049138e-01   9.9485407e-01   4.4046086e-01   9.0168189e-01  -2.2479530e-01   6.2354721e-01  -6.4501535e-01   5.5849939e-01   7.6523263e-01   5.3438243e-01   4.0451060e-01  -4.0750144e-01  -6.6916202e-01  -9.5489906e-01  -6.1282894e-01  -1.4569039e-01   7.1021943e-01  -3.8825737e-01   4.0198129e-01   9.2187377e-01  -1.9855475e-01  -5.3973468e-01   9.1728590e-01   7.9497660e-01   4.1234889e-02  -5.3881103e-01   4.9855578e-01   2.8378796e-01  -5.7129472e-01   6.3418118e-01  -4.2369457e-01   2.0425935e-01
   1.2110471e-02   5.3500024e-01  -9.8701063e-01  -7.2379391e-01  -7.3549503e-01   5.2427085e-01  -6.8206149e-01   8.1676668e-02   5.2215609e-02  -6.7086746e-01  -5.6042046e-01  -4.1695099e-01  -1.0335828e-02   9.1135556e-01  -1.2213727e-01   5.5462592e-01   2.3392948e-01   1.8724372e-01   7.3064588e-01  -3.6083980e-01   2.6824990e-01  -9.8110362e-01   5.6874242e-01  -8.6015122e-01  -6.2646661e-01   3.8388320e-01  -7.6984727e-01  -4.6459397e-01  -2.4704898e-01  -5.5308325e-02  -3.5651500e-01  -4.9753989e-01  -4.1860539e-01   3.1298521e-01  -5.9443126e-01   7.9510942e-01   4.9323934e-01   3.0019998e-01   6.9166385e-01  -7.4460499e-01   8.4502612e-01  -4.1736781e-01  -8.0862194e-01  -9.0541429e-01  -7.2844291e-01   9.0021959e-01  -5.4369803e-01  -4.3221722e-01   3.8370208e-01   9.6041867e-01  -9.8085490e-01   5.9206423e-01  -1.2770353e-01  -1.3023542e-01   4.6577338e-03  -4.9597954e-01   7.5336449e-01  -4.9419850e-01   7.2332267e-01  -5.9592933e-01  -3.9515878e-01  -2.5006138e-01   9.8105194e-01  -1.5146679e-01   7.2032557e-01  -9.1422878e-01   9.8061663e-02   7.3587336e-01  -5.2672202e-01   7.8231076e-01   7.2343231e-02   7.7230793e-02  -3.7172727e-01  -9.2248773e-01   4.1733371e-02  -9.9172662e-01  -1.8340905e-01  -1.3624060e-02  -3.2185677e-02   6.4313144e-01  -6.0183810e-02   6.6637609e-01   7.5587803e-01   8.1658017e-01   1.1902061e-01  -6.3892996e-02   4.0657781e-01   2.1767732e-01  -8.4602258e-01   7.3308482e-01  -2.3681329e-01   6.2357749e-01   9.6796326e-01  -4.7984520e-01   5.9896386e-01   7.9842712e-01   3.5982102e-01   5.4070143e-01  -8.9475334e-02   1.7949657e-01  -7.3397073e-01  -5.1936710e-01  -9.4253110e-01  -6.9889765e-01   3.4040149e-01   6.3249053e-01   1.2396737e-01  -7.6152934e-02   2.1020833e-01   7.0027774e-01  -1.6877615e-01   6.3460085e-01  -2.0196681e-01  -6.3579532e-01  -5.7039353e-01   2.9577687e-01   4.0431772e-01   2.4656434e-02   1.9174415e-01  -3.1458805e-01   6.3234327e-01  -3.6273043e-01  -6.0904599e-01   3.1517164e-01   3.5639688e-01   3.5072192e-01  -3.2566792e-01  -1.3189683e-01   3.5065121e-01   6.9685049e-02   3.5999547e-01  -5.8475243e-01   3.5172428e-01   9.2833705e-01   3.0954865e-02  -4.6233959e-01   3.4071886e-01   2.4654897e-01   9.5737240e-01   2.9890272e-02  -5.2195406e-01  -1.2010129e-01   4.3498903e-01  -7.8094280e-01   5.8144484e-01   7.1159480e-01  -9.5747774e-01   6.4298243e-01  -4.2063352e-02   9.2871264e-01   2.8277662e-01  -7.1826517e-01   7.4220661e-01  -7.4367192e-01   3.1851344e-01   4.8614166e-02   9.6393624e-01   6.6189340e-01  -6.9028750e-01   2.8332587e-01   2.0366060e-01  -5.4326699e-01  -2.9735556e-01  -4.5904992e-01  -2.7338274e-01  -5.9809025e-01   9.6773430e-01  -4.8633120e-01   8.0324548e-01   4.1978300e-01  -5.3555218e-01  -2.3385656e-01  -2.3490927e-01  -2.8825960e-02  -1.4331829e-01   6.5816727e-02  -6.0612476e-01  -5.7037277e-01   3.8628269e-01   6.6622586e-02   9.5939862e-01  -5.9962313e-01   8.9163081e-01  -6.5494893e-01   4.4326834e-01   9.1286320e-01  -2.7977744e-01   5.3278116e-01  -9.3318576e-01   7.8716113e-01   4.0677316e-01  -1.3627443e-01   2.4701506e-01  -8.8278691e-01  -9.2550302e-01   8.4002150e-01   3.9315515e-01  -8.6076642e-01   8.5692474e-01  -2.5630990e-01   8.9082568e-01   9.3815051e-02   2.3117874e-01   7.4717837e-01  -5.2615160e-01  -3.6771724e-01  -2.8193810e-01  -3.9293787e-01  -9.2199701e-01   8.8768536e-01  -5.4783467e-02   2.9899956e-01  -3.6268122e-01  -9.7893802e-01  -9.9624694e-01  -5.9281381e-01   9.4945247e-01   4.0941883e-01  -6.6702623e-01   6.3611546e-01   6.0888597e-01  -9.8212852e-01   4.9604594e-01  -5.6847329e-01   4.3153174e-02  -3.9927748e-01  -5.3049657e-01  -7.0277342e-01  -7.7126960e-01   6.5009160e-01   7.3971246e-01  -6.4717052e-01  -1.4274581e-01   3.7542992e-01   3.8871762e-02  -8.3501525e-01   4.7522277e-01   8.8683560e-01   1.4945351e-01  -1.6179556e-01  -5.7913035e-01   9.1088583e-01  -3.8099389e-01  -4.4171443e-01   2.3332685e-01   4.1589846e-01   2.8776002e-01   5.2168952e-02  -8.1917672e-01  -6.3314919e-01  -9.7376958e-01   8.9977603e-01   5.5183630e-03   9.2097012e-01   4.7268050e-02  -9.1237822e-02   6.4989725e-01   9.4868044e-02  -3.1383396e-02  -6.7580674e-01   4.0345031e-01  -1.5293057e-02  -7.8182461e-01   9.6482932e-01  -5.1695025e-01  -4.4226094e-01  -5.3915238e-01  -3.3814979e-01  -3.9791052e-01   9.8891268e-01   9.2436061e-01   4.6936590e-02  -6.1363378e-01   3.7453172e-01  -3.4283115e-01  -6.3392011e-01   5.7731597e-01   2.4174581e-01   8.7957650e-01   1.8614479e-01   6.1689271e-02  -3.1728856e-01  -5.2311999e-01  -1.5310403e-01  -9.3191655e-01  -8.3505426e-01   7.2077066e-01  -9.8581870e-01  -3.4190045e-01  -7.2955166e-01   4.6173285e-02   6.9652929e-01  -4.6127670e-01   7.0436692e-01   2.0966386e-01  -1.4910904e-01   3.9148883e-01  -7.3029770e-02  -2.6186800e-01  -3.7899043e-01  -5.0491487e-01  -8.1880300e-02  -7.0382049e-01   3.8000592e-01   7.2748229e-01   8.4456066e-01  -4.3152227e-01   2.7093584e-01  -8.7532227e-01   9.1190713e-01   4.1105268e-01   9.7594998e-01  -6.4322184e-01   1.0069292e-01   4.4611663e-01  -6.7032673e-01  -7.6834270e-01  -5.4767880e-01   9.1698180e-01   5.2121205e-02   5.6235918e-01   7.4747384e-01  -8.6950699e-01  -4.9514678e-03  -7.2981908e-01  -2.5286701e-01   3.7324975e-01   2.9344706e-01  -9.0518318e-02  -1.2567422e-01   1.7432923e-01   5.2627257e-01  -8.3858373e-01   1.8127219e-01   5.6959391e-01  -9.9561625e-01  -8.1290739e-01  -4.0224746e-01   6.5191306e-01   8.7947074e-01   3.6536667e-01   9.2006147e-01  -1.7892991e-02   7.1129316e-01  -3.3222324e-01  -5.9683045e-01  -8.6159471e-01   7.5801836e-01   2.4152831e-01   5.8098718e-01  -9.6187062e-01   7.3704422e-01  -2.9463421e-02  -3.5888465e-01   7.5814546e-01   6.0430559e-01  -1.0443354e-01   9.1318212e-02  -5.3499834e-01   5.8877140e-01  -3.0348358e-01   3.7934173e-01  -8.4850260e-01  -8.4623582e-01  -1.1292739e-02   8.2269473e-01  -9.9776326e-01  -3.8115200e-01   5.5447516e-01  -3.3282990e-02   4.4061504e-01  -6.2198316e-01   7.1303660e-02   6.5082788e-01  -5.4634930e-01  -4.2073725e-01  -5.5258842e-02   9.6958866e-01   2.9925363e-01   7.2729850e-01   6.3695220e-01  -5.0429041e-03  -3.6216644e-01   3.1680777e-01   7.4301402e-01   7.3477716e-01  -4.2562353e-01  -1.3862847e-01   1.9938062e-01   3.5169922e-01  -5.5898510e-01   4.9064613e-01   4.1282004e-01   4.2724126e-01   1.2481320e-01  -4.6623664e-01  -5.8439908e-02  -4.9502050e-01   8.6565959e-01  -4.7490300e-01  -2.2764245e-01  -1.2271737e-01   9.4219223e-01   3.6956890e-01  -5.3626614e-01  -4.0055758e-01  -4.8471482e-01   9.7336011e-01   3.4070131e-01  -1.1725259e-01  -5.0602352e-01   6.6354620e-01  -1.5474520e-01  -7.0923816e-01   9.4839016e-01   6.1348560e-01  -2.7654920e-01   6.7414790e-01   3.1237199e-01  -4.7831250e-01   9.6084691e-01  -8.0212544e-01   6.4630387e-02   7.8613677e-01  -3.9131094e-01   2.4049720e-02   3.3734539e-01  -6.8340502e-01  -3.1096344e-01   9.1378104e-01  -2.7448502e-01  -4.9654641e-01  -7.6629263e-01   5.8871712e-01  -6.0977769e-01  -6.6372350e-01   7.1660655e-01   5.6265777e-01  -2.1943430e-01   9.3662433e-01   3.9806415e-01  -7.6683035e-01   8.4631879e-01  -6.2555037e-01   9.9326505e-01   8.7903352e-01  -9.5613009e-01   6.4889785e-01  -7.7538062e-01   4.7425282e-02   7.3997535e-01  -3.2165470e-01   9.5405447e-01  -9.3672697e-02   5.4977395e-01  -1.1214826e-01  -1.5739351e-01   6.0572325e-01   4.9876481e-01   8.7224358e-01  -4.3131302e-01   7.2893937e-01  -6.5929552e-01  -6.2896676e-01   8.1410559e-01  -4.6645230e-02   2.2211687e-02   9.6374391e-01  -7.8150163e-01  -3.9982117e-01  -3.7505173e-01  -9.3982432e-01  -6.3758449e-01  -3.8630139e-01   7.7058584e-01   3.3098285e-01   7.0737674e-01  -9.2839030e-02  -8.8013074e-01  -3.7900076e-01  -8.2108539e-02   1.7000485e-01  -5.6752841e-02  -1.2255128e-01  -3.2419677e-01  -6.9924342e-01   6.7067551e-01   8.2424393e-01   2.9227772e-01   6.5625719e-01   1.0048392e-01  -7.5167191e-01   5.3728396e-01   6.7251826e-01   2.6883899e-01  -5.8515267e-01   7.9905967e-01  -6.1928758e-01   2.7541432e-01   8.2681775e-01  -2.2222022e-01  -1.4348736e-01  -1.9935566e-01   2.4415853e-01  -4.5097394e-01   7.4609361e-01   7.9297145e-01  -9.6139293e-01   8.1092254e-01   6.0964960e-01   2.0692504e-01   2.2575613e-01   1.1885251e-01   7.9697694e-01   9.5905033e-01  -7.4511523e-01  -2.4547905e-01  -7.0007196e-01   8.3568767e-02  -1.4192657e-01  -1.4361832e-01  -3.5341569e-01  -7.7613028e-01  -6.2098997e-01   8.9335052e-01  -9.8408927e-01  -8.3836120e-01  -6.3181869e-01   3.7663072e-01   4.6857904e-01   1.1405613e-01  -9.6040374e-01  -2.6670571e-01  -7.6769509e-01  -3.7027434e-01   4.3086159e-01   5.3935604e-02   8.7804017e-01  -8.0520677e-01   9.1961747e-01  -1.4739036e-01  -5.0131538e-02   4.2256780e-01   2.3509385e-01  -5.3848807e-01   5.5042524e-02  -4.7755958e-01  -4.0192673e-01  -4.4646022e-01  -1.0317610e-01   9.3627417e-02   3.4035927e-01  -1.6162364e-01  -3.5540184e-01  -2.9056119e-01  -8.0046581e-01   2.8359605e-01   6.9708680e-01  -1.6555022e-01  -2.0364189e-01  -3.4864788e-01   1.6657975e-01   5.0748549e-01  -7.5307226e-01   4.8241085e-01   7.6741094e-02   6.4758601e-01  -9.8812076e-01   2.7796525e-01  -3.8828472e-01   4.9221280e-01  -2.5219190e-02  -9.7531018e-01   5.0053646e-01   2.3177423e-01  -3.1662417e-01  -2.7144988e-01   1.1694629e-01  -5.2966704e-01   5.3710764e-01  -5.3417480e-01   3.2718011e-01  -7.8221483e-01   8.3004194e-01  -7.5874469e-01   6.9850561e-01   2.4213103e-01   3.2406517e-01   5.0378869e-01  -7.9500218e-01  -3.9287389e-01  -6.0223951e-01  -8.8567988e-01   9.3105950e-01   4.5666513e-01  -5.3877452e-01  -9.8805999e-01  -6.4521832e-01  -7.3593697e-01  -5.8454204e-01   1.3973913e-01   8.3718346e-01  -3.4007831e-01  -4.8307500e-01  -8.0642206e-01  -2.8948955e-02  -7.5144034e-01  -6.4304786e-01   1.3427382e-01  -4.3996170e-01  -5.5068283e-01   5.1768610e-01  -6.3923092e-01  -7.4976608e-01   1.9598684e-01   5.7817609e-01   1.6731174e-01   3.7340407e-02  -5.4033950e-01   5.0145030e-01  -4.8838016e-01  -8.2038998e-01  -9.4025399e-01  -1.7798166e-01   6.6913756e-01   3.3126570e-01  -6.6996891e-01  -3.4236926e-01   3.9249664e-01   2.3915312e-01  -7.8176919e-01  -7.0398052e-01  -4.6840432e-01   6.8933476e-01   2.1164966e-01  -4.8834108e-01   3.8349677e-01  -9.5432495e-01  -2.5638708e-01   5.3367600e-01   8.6479408e-01   9.6200472e-01  -2.7506651e-01   7.3958373e-01  -2.0088246e-01   6.5419574e-01   5.9698106e-01   9.7138590e-01   4.6618662e-01   4.7230734e-01  -7.0310554e-02   3.7206836e-01  -6.1931646e-01  -5.8259034e-01   5.8199139e-02   3.3190888e-01  -6.8735142e-01   1.3971764e-01  -7.2541277e-01  -3.2458375e-01   1.3417715e-01   5.1486750e-01   2.1455140e-01   8.7925338e-01  -8.1074429e-01  -4.6148108e-01  -7.3614771e-02   5.6321016e-01  -7.1020240e-01   2.9373389e-01  -6.0922727e-01   8.8332719e-01  -6.7712972e-01   7.8787608e-01   1.3724802e-01  -5.5854655e-01  -3.8869500e-01  -6.8657950e-01  -4.6156816e-01  -2.4372518e-02  -2.0990798e-01  -8.3027380e-01  -8.6494486e-02   4.0858358e-01   1.5647292e-01   5.2769980e-01   8.5928416e-01  -2.9641940e-01   3.6583259e-01  -9.2070070e-01  -5.7177562e-01  -2.8285231e-02   6.2838665e-02   1.5252645e-01   8.8118230e-01   5.0245943e-01   7.4853893e-01  -1.3255754e-01  -8.8390024e-01  -1.9510045e-01  -7.4597207e-01   5.8275700e-01   6.7720439e-01  -7.2145795e-01  -4.8493039e-01   3.2686988e-02  -6.4967787e-02  -2.7354315e-01  -4.4824409e-01   5.2757524e-01  -9.6830825e-01  -8.3585472e-01  -1.3258858e-01  -6.2621742e-01  -2.7430411e-02  -5.3997668e-01   3.5023986e-01   8.1491725e-01   3.0468388e-01   3.9261954e-01   3.4418217e-02  -1.2917375e-01   7.7258137e-01  -3.1474584e-01  -1.2340357e-01  -3.5021389e-01  -9.2300589e-01  -9.0756493e-01   2.7031987e-01   8.7042018e-01  -5.5981184e-01   5.0690029e-01  -9.5957421e-01   7.5169404e-01  -2.1293965e-01  -6.5008557e-01  -3.7420558e-01   8.9604606e-01   1.5015584e-01   9.6560824e-01  -9.4938338e-01   9.0877053e-01  -5.4385944e-02   3.8408319e-01   2.8801444e-01   2.2744039e-01   5.6757575e-01   4.4951004e-01  -5.5285696e-01   1.2454502e-01   5.5908691e-01  -6.1382502e-01   7.0109134e-01   7.7416130e-02   1.4414388e-01  -4.6251226e-02  -3.6156880e-01   9.6025155e-01  -2.6031825e-02   7.2543739e-01   6.1728411e-01  -1.1247046e-01   1.4844739e-01   3.7544164e-01   2.0147237e-01   3.2012666e-01  -1.7923631e-01  -7.3395695e-01   7.5479997e-01   2.9187084e-01   2.6952055e-01   8.0443857e-01  -1.0852642e-01  -3.8571002e-01  -8.7796129e-01  -3.6765505e-01  -1.4734155e-01   6.3554881e-01  -2.4736902e-01  -3.2776786e-01  -8.1628147e-01   4.8269025e-01  -3.2252306e-01  -2.7053147e-01  -4.1060041e-01  -7.3574271e-01   4.8447543e-01   8.6994609e-01  -4.8012766e-01   3.3005478e-01  -7.8268543e-01  -7.4034645e-01   8.0747021e-01   9.3017038e-01   3.2722304e-01  -1.6224613e-02   3.5480734e-01  -4.8811577e-01   2.2205305e-01  -6.8160050e-01   4.2708420e-01   5.4320838e-01  -2.4439810e-01  -4.2280726e-01   7.3465833e-01  -4.5610295e-01  -7.8166196e-01  -3.6846622e-01  -1.4140087e-01   4.9538582e-01   3.6058318e-01  -7.8835395e-01  -7.2496464e-01   4.2167688e-01   3.4784261e-01  -3.3148389e-01   2.8077659e-01   2.6680893e-01  -7.6656117e-01  -7.8356400e-01  -2.6336793e-01   4.0541595e-01  -9.0817801e-01  -9.7529859e-01  -8.3170395e-01  -9.6622463e-01   9.4315129e-01   9.0774879e-02  -8.9837981e-01  -6.3013692e-01   5.6581120e-01  -7.9642941e-01  -9.9464932e-01   8.2492172e-01  -8.5698836e-01   5.6978160e-01   7.6948609e-01  -1.0683900e-01  -1.8958348e-01  -7.0870544e-02  -6.8543020e-02   5.0359019e-02  -5.5165439e-01  -3.2256113e-01  -6.6663907e-01   7.3257407e-01   8.6120658e-01   5.8130266e-01  -3.2768499e-01  -9.3714780e-01   8.6595622e-01   9.2499347e-01  -2.7242739e-01   8.6134508e-01  -1.1207634e-01   9.2181037e-01   7.3593553e-01   7.9559618e-02   2.0055094e-02   2.1507829e-01   7.8443314e-01  -1.7084582e-01   4.1982356e-01  -9.7701613e-01  -4.5022364e-01  -4.1000326e-01  -9.6224895e-01   5.1810652e-01   8.8973083e-03  -9.1213442e-01   3.4867552e-02   1.0878973e-03  -7.0092936e-03   6.9054622e-02   4.1274887e-01  -7.5206084e-01   3.2179223e-01  -5.0488297e-01   8.3401088e-01   9.9754506e-01  -8.6491402e-01   4.1219103e-01   8.2043462e-01   3.1092852e-01   7.9061103e-01  -2.3793971e-01   1.0387162e-01  -7.7512651e-01  -9.6799774e-02  -5.9633982e-02   1.8404915e-01   8.3158874e-02   5.1141704e-01   6.9731090e-01  -6.3077094e-01   5.0928344e-01   2.6158401e-01  -9.4962580e-01   1.5719771e-01  -7.1587987e-01  -4.6209350e-01   7.5094683e-01  -4.2390573e-01   4.9899166e-01   3.4009355e-01   1.0293617e-01   9.7547348e-01  -6.9925063e-01  -5.0263192e-01  -4.1322331e-01  -8.4079533e-01   5.3007493e-01   9.9067832e-01  -4.5337068e-01  -5.6878882e-02   1.8389343e-01   3.2696896e-01  -5.7887381e-01   7.2171299e-01   8.0101309e-01  -5.7131823e-02  -4.7829558e-01  -1.2933547e-01   3.8541978e-01  -9.0201482e-01   2.8833489e-01   6.3172089e-01  -9.8550205e-01  -6.4939299e-01   3.0479962e-01   8.9135005e-02   6.9745007e-03   2.5704071e-01   4.8405593e-01  -3.7309365e-01  -9.2797369e-01  -2.4964726e-01   5.0212597e-01  -8.7717157e-01   5.0726656e-02  -3.7896253e-01   7.9771009e-02  -2.9628385e-01   3.1046194e-01   5.0849259e-01   4.8042234e-01  -8.2585017e-01  -6.6327785e-01   1.8306321e-01   1.0095193e-01   6.4796375e-01   1.4739361e-01  -8.0553086e-01   5.7272931e-01   5.9883233e-01  -8.6934476e-01  -5.4643178e-01   4.9318125e-01   4.8117098e-01  -4.1842276e-01   9.4054321e-01   2.6482481e-01  -1.0038689e-01  -6.2304019e-01   3.2853747e-01  -4.8578317e-01   7.3056354e-01  -6.3390731e-01   4.4124828e-01  -1.8198024e-01   2.6681059e-02   5.0184986e-01  -2.8480668e-01   4.9767607e-01  -3.6021120e-01   9.3578835e-01  -4.8727410e-01  -3.0045172e-01   3.7272081e-01  -9.2300331e-01   6.5689090e-01  -7.6664490e-01   9.0087577e-02  -6.8374886e-01  -4.2225676e-02   1.2342325e-01   6.2262095e-01   1.5540321e-01   8.3682313e-01   1.8067422e-01  -3.3983468e-01  -7.2081874e-01  -1.9500469e-01   8.0079140e-01  -7.0386618e-01  -5.4150765e-01   7.2419043e-02  -1.3936841e-01  -6.5408019e-01  -9.9245188e-02
  -2.4397717e-01  -7.6010128e-01   6.7852658e-01   2.4250931e-01  -2.7047262e-01  -9.6491033e-01   6.1029629e-01  -5.6673212e-01  -6.0194474e-01   8.2490470e-01  -6.9064806e-02  -5.0399744e-02   3.1577376e-01  -8.2342596e-01   7.6685918e-01  -9.8228214e-02   4.9422770e-01   3.9354939e-02  -4.7116268e-01  -5.9071715e-02  -1.2763425e-01  -2.1485846e-01   3.3728235e-01  -2.5168422e-01  -1.7726648e-03  -7.5396706e-02  -6.6846376e-01  -8.3414471e-01  -1.9507161e-01   4.4460575e-01   8.2835849e-01   3.9596445e-01   2.2117604e-01   4.1733435e-01  -6.6619486e-01  -4.8314105e-01   9.0360648e-01  -5.1507941e-01  -6.4111812e-01  -8.7765952e-02   1.3365500e-01   1.4296302e-01  -5.5620563e-01   8.1450327e-01  -3.3638329e-02  -2.0733241e-01   7.9752996e-01   1.1044422e-01  -1.5223023e-01  -5.6917725e-01  -9.2175995e-01  -7.8341580e-01   3.0232126e-01  -6.2429198e-01  -1.8204714e-02   2.5922235e-01   8.4417656e-01   1.9012956e-01  -1.9987329e-01   8.2970463e-01   6.3468410e-01   7.2793600e-01  -3.0789365e-01  -6.1165833e-01  -2.9670451e-01  -7.1521565e-01   2.5089062e-02  -7.6909696e-01   8.5997303e-01  -5.3012385e-01   9.3191784e-03   2.1701940e-01  -7.5003475e-01  -8.7365419e-01  -2.9482720e-01   7.5089603e-01  -6.0009738e-01  -5.4198818e-01  -4.1905221e-01   2.5800142e-01  -6.2386062e-01   6.4886528e-01  -7.7235689e-01  -2.2483786e-01  -9.0149250e-01   4.1489439e-01   1.3499415e-01  -3.5181069e-01  -6.0482219e-01  -6.1720539e-02  -9.7169132e-01   4.7863799e-01   1.5270791e-01   3.9776512e-01   2.0581353e-01  -3.7158816e-02   8.8245615e-01   9.1308469e-01  -3.1028799e-01   2.5865421e-01  -3.8557326e-01   1.3162552e-01   8.8467045e-01  -4.3697297e-01  -4.1958854e-01  -4.2057729e-01   8.8044360e-01  -7.8525644e-01  -3.5889558e-01   1.7684767e-01   7.5805655e-02   7.9064586e-01  -6.1306519e-01  -5.6759240e-01   2.2720210e-01   1.8428508e-01   9.8320631e-01   1.1468282e-01   3.7088084e-01   5.1547035e-01   1.9605026e-01   6.1583869e-01   4.3639789e-01   8.7615251e-01  -3.2313691e-01  -6.6075111e-01  -7.1407677e-01  -6.8929377e-01  -6.1931486e-01   9.2330127e-01  -6.6109011e-01  -8.2079532e-01   8.1494762e-01  -5.5810629e-01   4.5473909e-01  -9.2103684e-01   7.9199959e-01  -7.2773480e-01   1.6012118e-01  -7.0274567e-01  -2.9844404e-01  -4.3011247e-01   1.2332229e-02   4.9804129e-01   3.2330941e-02  -8.4048981e-01  -3.8055585e-01  -8.7961341e-01   9.3395550e-01  -9.6941629e-01   3.0938241e-01  -1.0632773e-01   4.0889959e-01   8.4098056e-01  -3.0358547e-01  -7.5489577e-01  -4.4336123e-01  -2.0611103e-02  -2.2251282e-01  -9.5526503e-01  -2.3566553e-01   7.6420796e-01  -8.8063441e-02  -6.2418973e-01  -4.5626530e-01  -6.8024687e-01  -6.2488030e-02   1.5818729e-01   4.4816532e-01   6.4872428e-01  -2.7581328e-01   4.3432783e-01  -3.2681597e-01   6.4968476e-01   5.6152327e-01  -4.5507958e-01   3.2432995e-01   9.3458514e-01   6.3729427e-01   6.5843645e-01   1.7880760e-01   7.2523344e-01   1.6172903e-02  -6.0337697e-01   8.8842191e-01  -9.5347854e-01   7.5007003e-01  -9.0233472e-01   8.1228331e-01  -6.7695960e-03   3.5975318e-01  -2.2205131e-01  -2.7055071e-04   5.4366273e-01   8.3805309e-01  -2.6909338e-01   9.6823623e-01  -8.9399811e-01  -2.5479183e-01  -2.3651253e-01  -9.4775261e-01  -4.1814314e-01  -6.0725646e-01  -9.5582903e-01   1.4327929e-01   7.5243395e-01   6.5116805e-01   1.5249195e-01   6.4508598e-01   5.7338337e-01   5.4686515e-01   4.6428181e-01  -9.0867346e-03   8.4761915e-02  -6.0296082e-01   7.9082353e-01   8.7543541e-02  -8.6196708e-01  -7.8473848e-01   9.1248514e-01  -2.6980870e-01  -9.1793570e-01   4.2367262e-01   1.5240814e-01   2.5789017e-01   6.2419703e-01  -2.0710220e-01  -1.6740770e-02   6.9992967e-01   4.3892283e-01   8.5051570e-01   8.3427767e-01   5.3529848e-01  -8.6379866e-01   8.1432803e-01   2.3100363e-01   4.5566666e-01  -3.9183039e-01  -6.3988925e-01  -8.7485735e-01   7.6535647e-02   2.2345920e-01   4.1188670e-01   1.9713489e-01  -4.4032951e-01   7.4540929e-01  -7.5428451e-01  -4.1202762e-01  -5.9546496e-01  -4.8486986e-02  -6.5695736e-01  -1.3550008e-01  -7.9375453e-01   1.5014538e-01  -9.0660849e-01  -5.9550153e-01  -8.6984361e-01  -7.8071463e-01   9.9655219e-01   5.8282954e-01  -2.7127771e-01  -5.5216292e-01   5.2132618e-02  -3.9082038e-01   9.6686057e-01   6.9429437e-01  -7.7289297e-01   1.4255661e-01   8.1492266e-01   3.5308568e-01  -5.6864335e-01  -2.2710819e-01  -9.2840202e-02  -8.7390958e-01   9.9189060e-01   4.5042109e-01  -4.9797731e-01  -2.3141786e-01  -3.7267240e-01   3.3036740e-01  -7.5678668e-01   7.9759602e-01   3.6232281e-01  -8.1923120e-02   3.5050361e-01  -1.9776390e-01   2.3656415e-01   8.5653300e-01   7.3007951e-01   8.0446162e-01  -6.0358443e-01   2.8015376e-01   3.8222369e-01  -2.9769388e-01   7.3063788e-01  -9.4382122e-01  -7.9885649e-01   1.2473569e-01   2.5863173e-02  -9.5633543e-01  -9.4200934e-01  -8.4362779e-03   1.0437576e-01   5.0850643e-01   8.2634732e-01   5.7760430e-01  -4.9139481e-01   1.4378627e-01  -1.3790566e-01  -4.3325360e-01  -5.8520659e-01   5.4740473e-01   9.4221000e-01  -5.2225155e-01   3.2005055e-01  -3.9208361e-01  -5.7984156e-01   3.5333147e-01  -3.8434939e-01  -7.9904551e-01  -5.3498328e-01   1.0172330e-02   1.6189130e-01  -2.0600884e-01   1.4197138e-01  -2.6903812e-01  -2.1157241e-01  -9.1069257e-01   1.1073541e-01   5.2271861e-01  -7.2127520e-01   1.1598779e-01   8.1600629e-01  -4.9230820e-01  -7.0607486e-01  -1.2589067e-01   9.7972240e-02  -7.7290588e-01   2.4704490e-01   7.3313696e-01   3.4529173e-01  -9.6886626e-01  -8.3833389e-01  -3.2661286e-01   9.9342752e-01   8.4590531e-01  -9.3484106e-01  -8.9408047e-01  -9.3075789e-01   3.1025445e-01  -7.2029845e-01   4.8031198e-01   4.4576349e-01   3.3523769e-01  -4.4302761e-01   8.9234178e-01   9.9556245e-01  -1.4039190e-01  -8.0423077e-01   7.5717877e-01  -8.3583518e-01   5.7099918e-01  -2.8030048e-01   6.8936631e-01   7.5448662e-01   5.2950332e-01  -2.0301179e-01  -9.4749584e-01   9.0693603e-01   3.4952950e-01  -5.9896476e-01   3.2995181e-01  -9.1069551e-01  -4.5276582e-01   7.2239691e-01   7.1532899e-01   2.2566406e-01  -2.0092804e-01  -7.5936575e-01  -4.9735645e-01   3.1198053e-01   1.5022946e-01  -3.5897567e-02   2.9468063e-02   2.4483813e-01   4.0245109e-01  -5.2520767e-01  -6.2617592e-01   8.1505844e-01  -3.6057487e-01  -4.0206508e-01   3.4095247e-01   8.1086351e-01   9.1685604e-01   7.9938577e-01  -6.1294015e-01  -6.1464466e-01   5.7397106e-01  -8.6173516e-01   7.6486485e-01  -9.7910528e-01  -6.7760181e-01   3.0986000e-01   8.1677618e-01  -8.2746726e-03  -2.8090647e-02  -7.1936196e-01   4.6222387e-01   5.3897387e-01   7.5646776e-01   1.1099591e-01   7.6761393e-01  -1.9619669e-01   4.1704945e-01   8.4499680e-02   9.6338526e-01  -9.4255485e-01   1.4860825e-01  -2.6573440e-01   2.9520620e-01  -7.2558480e-01  -7.9859217e-01  -6.2252832e-02  -1.1079917e-02  -6.8701787e-01  -8.1434913e-01   3.3157678e-01   5.1573472e-01  -6.1329217e-01  -2.4325977e-01   5.5188133e-01  -5.6068373e-01   8.8828241e-01  -1.7502325e-01  -7.9593432e-01   5.7529851e-01   8.9324328e-02   7.7470261e-01   2.4045786e-01  -3.5233749e-01  -4.3465975e-01  -2.1314375e-01  -5.2779917e-02  -6.7149351e-02  -8.1786004e-01   7.6641913e-01   3.8702180e-01   4.3037271e-01   7.1145732e-02   8.6141021e-01   5.3851051e-01  -4.7025986e-01  -4.1584216e-01  -3.1447016e-01   9.5200706e-01   2.9768137e-01  -2.3533076e-01  -2.7344768e-01  -7.4714924e-01   4.2757791e-01   6.8654612e-01  -6.0930347e-01  -7.2544381e-01   2.6744192e-01   2.1077736e-01   6.4217899e-01  -3.7061615e-01  -3.8177622e-01  -8.6563139e-01   2.5181608e-01   1.9182257e-01   7.9697084e-01  -7.2860839e-01   7.4519929e-02  -5.7000848e-01   5.8977865e-01   5.4937533e-01  -3.0659825e-01  -1.7609466e-01  -1.8347909e-01   2.0785132e-01  -8.7684019e-01  -6.1368846e-02   3.0565515e-01   3.6463827e-01  -8.8738793e-01  -9.0699788e-01  -2.6379103e-01   1.6916860e-01  -7.3907358e-01   3.5363553e-01   9.7684615e-01   5.1495194e-02   7.1797905e-01  -9.5232736e-01  -8.9607267e-01   2.0682390e-01  -1.2766534e-01   4.3064536e-01   9.2861201e-01  -8.0142108e-01  -5.5788690e-01   9.1718106e-01   5.5818427e-01  -7.4506238e-01   9.1264639e-01   3.8365407e-01  -1.8992896e-01  -2.6912536e-01  -3.6842738e-01  -7.6547227e-01   4.2855540e-02  -5.8929023e-01  -7.7894032e-01   5.5106215e-01  -5.7130242e-01  -3.2624938e-01  -4.8653889e-01   5.9284852e-02  -2.6476302e-01  -6.8334341e-01   1.5047519e-01   5.8213699e-01   4.2715426e-01   7.7471392e-01   4.2659864e-01   6.6948544e-01   4.3258843e-01  -1.5877481e-01   3.7353720e-01   7.8537108e-01   8.5919222e-01   3.0978860e-01  -1.1061989e-01  -6.1161974e-02  -3.1459520e-01   9.5925075e-01  -1.0009981e-01   4.2207013e-01  -9.6090723e-01   4.1608200e-01  -8.0234883e-01  -5.8673159e-01  -4.2880749e-01  -7.4064046e-01   9.3911355e-01  -6.7307148e-02  -8.5519857e-01   5.0309637e-01  -2.5844206e-01  -8.7025492e-01  -1.8610221e-01  -6.0266786e-01   8.3203564e-01  -7.8374767e-02   9.1055715e-01  -3.3899883e-01   7.8673561e-01  -8.7239134e-01  -1.1508422e-01  -4.1697619e-01  -8.8332921e-01   9.1362228e-01  -5.7385622e-01   5.5654382e-01   9.9351387e-02  -4.3864324e-01   5.3407180e-01  -9.9843010e-01  -8.6040061e-01   5.2035668e-01  -9.1361664e-02   1.1869889e-01   3.4770478e-01   7.5713020e-01  -4.7352434e-01   7.7727311e-01  -9.1848954e-01   5.9079369e-01  -1.3823549e-01  -7.4497519e-01   2.6897431e-01   2.9768882e-02  -8.0492988e-01   2.1911407e-01  -4.5163505e-01  -3.4285878e-01  -9.2891887e-02   1.8110390e-01   5.5564979e-01  -4.1347324e-01  -7.4263198e-01  -9.1395265e-01   9.6208076e-01  -4.5376418e-01   5.9148731e-01  -2.7447149e-02  -4.8135175e-01   6.0294602e-01  -3.2835460e-01  -3.7194301e-01   8.9853948e-01  -2.6232226e-01  -2.7703230e-01  -4.6235013e-01   2.6653414e-01  -1.2125756e-01  -2.9021535e-01   5.1681010e-01   2.9609474e-01   1.1711362e-01   9.5254693e-01   3.9423550e-01   8.3989379e-02  -3.6012164e-01  -1.6594780e-01   9.9582813e-01   1.1240248e-01   3.7234447e-01  -4.5229794e-01   9.1067831e-01   7.7652767e-01   7.0741727e-01   6.0645149e-01  -8.0129861e-01  -2.8833977e-01   3.4260185e-01  -1.8264460e-01  -2.0890292e-01  -5.4249869e-01  -8.3207197e-01  -5.1965007e-01   6.3039320e-02  -4.8208436e-01   4.8846860e-01   3.7058882e-01   3.3702029e-01   1.5074278e-01  -9.4886800e-01  -4.2664775e-01  -1.8516034e-02  -9.1918648e-01  -1.6062629e-01  -2.2808054e-01  -6.1131699e-01   8.7782256e-01   6.4005186e-01   6.0733758e-01   8.2627096e-01  -4.0444459e-01   4.1705518e-01   3.1568837e-01  -2.4503318e-02  -2.5196765e-01  -4.5365016e-01   1.9259430e-01  -8.5464308e-01  -8.6096045e-01  -7.5909864e-01  -3.9358611e-01   8.2929458e-02   7.7620028e-01  -6.5900778e-01   1.8394748e-01  -6.8505160e-01   5.0849709e-01   3.5099708e-01   8.5511742e-01  -8.3720600e-01   5.8935769e-01  -5.4232869e-01  -8.4157673e-01   7.6175359e-01  -1.0242624e-01  -7.2263440e-01   9.7765879e-01  -3.3380974e-01  -1.9317843e-01   1.3781431e-01   8.3147380e-01   1.9052594e-01   1.4835066e-01  -8.9032925e-01  -7.5139230e-01   3.7999122e-01  -1.7345082e-01   8.5133886e-01  -2.2194525e-01   9.4585994e-01  -4.2940679e-01  -3.8227749e-01   1.6933815e-02  -7.7481358e-01   3.8172960e-01  -5.6698068e-01   5.6092430e-01   3.2903276e-01  -6.5988457e-01   5.7862971e-01  -7.8172043e-01  -3.4415963e-01   1.0106620e-01  -3.2637303e-02  -4.9332873e-01  -4.0358603e-03  -4.9446197e-01  -6.2175314e-01  -5.1485307e-02  -6.7123334e-03   6.4704941e-01   7.7258451e-01  -6.7804485e-02  -3.1147488e-01   3.2091335e-01   4.2516905e-01   5.2481147e-01   7.8494014e-01  -7.7272842e-01  -8.4936597e-01   4.1866611e-01  -7.2528187e-01   3.2006857e-01  -4.3568381e-01   7.2988705e-01  -9.8718857e-01   8.2106434e-02  -1.8396599e-01  -9.2833626e-01  -6.0487620e-01  -2.7611224e-01   4.0030284e-01   7.7179564e-01  -7.1371894e-01  -1.8956944e-01   2.4531473e-01  -9.3700812e-01   4.7979731e-01   8.1245476e-01  -3.9600673e-01  -7.3386076e-01   7.4017408e-01  -6.6426968e-01  -5.9011552e-01   6.9933140e-01  -3.9541336e-01   3.3958543e-01   4.2566413e-01  -5.7093457e-01  -1.7552708e-01   6.1686427e-01   3.2580447e-01  -5.7068973e-01  -7.6681420e-01  -1.0606979e-01   6.3929723e-01   4.6108795e-01   1.0923667e-01   9.6300730e-01   9.1103943e-01  -8.2989320e-01   4.8807240e-01  -5.9174503e-01   2.9868527e-01   3.0957620e-01   4.0161152e-01   5.7274876e-01   5.8382501e-02  -8.6624143e-01  -8.8974408e-01   2.7428513e-01  -1.6834671e-01  -4.5755326e-01  -5.7367929e-02  -6.7682168e-01   5.3007013e-01  -1.7313912e-01  -1.8844440e-01   2.2403251e-01  -8.1093371e-01  -7.2425663e-01   1.0099539e-01   4.4221843e-01  -6.5529271e-01   8.8695263e-01   1.9680874e-01   5.6205205e-01  -2.7534465e-01   2.6066916e-02  -1.1511314e-01  -5.3757785e-01  -8.4187587e-01  -8.1199583e-01  -9.5673208e-01   2.9003631e-01  -8.8539022e-01   3.8480367e-01  -3.8480331e-01   8.5397107e-01  -2.2258658e-03  -7.7691634e-01   6.2416935e-01   4.1034393e-01  -1.7152502e-02   5.3411239e-01   6.0756273e-02  -6.9769488e-01   2.7407476e-01   2.4730022e-01  -5.3171107e-01  -2.8398113e-01  -2.5036968e-02   4.3306740e-01  -4.8490664e-01   7.5603285e-01  -8.4017219e-01  -4.6592210e-01   2.9110952e-01  -1.7630410e-01  -1.1141573e-01  -9.3858487e-01  -9.8313668e-01  -3.6598718e-01  -1.2787865e-01  -5.3348609e-01   3.5199466e-01   5.8153713e-01   5.2750933e-01   1.5904306e-01  -3.2706834e-01   1.2202197e-01  -2.6659739e-01  -3.8538354e-02  -4.6479925e-01  -4.2850763e-01   6.8158465e-01  -5.1624511e-01   4.1447469e-01   5.4462506e-01   4.3742221e-02   2.2183853e-01  -4.1125638e-01  -4.5250109e-01   2.1807642e-01   8.3426747e-01   5.9542989e-01  -5.9810049e-01   7.3120391e-01   9.9529858e-01  -3.0859601e-01   1.3000860e-01  -9.3537547e-01  -7.9273983e-01  -6.2094572e-01   4.4936805e-01  -9.1038545e-02   5.1509284e-01  -5.0696241e-01  -9.9993725e-02  -8.0921638e-01   3.0854097e-01   7.7894773e-01  -3.9093657e-01   2.4003081e-01   5.6788376e-01  -3.7000378e-01   7.0783193e-01   6.7110600e-01  -5.8944124e-03  -5.3325368e-01  -5.7190740e-01   8.3140879e-01  -9.7207293e-01   2.5911815e-01  -7.9237438e-01   1.4579520e-01   1.2701682e-01  -8.1564336e-01   9.1981070e-01  -5.2491603e-01   4.2939280e-01  -6.2100563e-01   3.1574462e-01  -4.2352446e-01  -5.6464850e-01   4.5312338e-01  -4.2122145e-01  -2.7072574e-01  -4.1854452e-01  -3.1279924e-01   2.0665360e-01   5.4714933e-01  -9.8057525e-01   9.6560660e-01  -5.9414915e-01   1.0077037e-01  -7.2807942e-01  -4.2148565e-01  -4.3396010e-01   1.4960559e-01  -4.2946636e-01   6.2961415e-02  -8.0934479e-01  -7.7838428e-01   9.2885710e-01   7.8557571e-01   4.2752105e-01   1.5351055e-01  -3.8968852e-01   9.7087301e-01  -9.4233789e-01   7.7729648e-01  -7.4271645e-01   9.7098972e-01  -6.3311697e-01  -3.1751925e-01   1.0950685e-01   7.7655440e-01  -9.8715477e-01   5.3611537e-01   9.8742883e-02  -4.4899492e-01   4.9218466e-01  -9.9099190e-01  -3.9133984e-01  -5.1638742e-01  -8.1379198e-01   5.0972435e-02  -3.4010857e-01  -5.5203530e-01  -8.7105662e-01   3.0271035e-01   3.7289955e-01  -3.0700977e-01   4.2077374e-01   7.8274311e-01  -3.1097784e-01   4.7262271e-01   5.2115275e-01  -4.4533613e-01  -9.2299375e-01   1.9379579e-01   5.6067693e-01  -1.6407455e-01  -2.8076757e-01  -4.7747632e-01  -1.7524290e-01   1.9502341e-01   7.8091051e-01   7.9161581e-01  -3.9102386e-01  -1.1634859e-01  -9.7306527e-01   7.6404626e-01   2.9380782e-01  -6.6141552e-02  -1.2125107e-01  -9.7451253e-01   4.6138784e-01   4.9188853e-01   5.0416029e-01   1.8924146e-01   1.4789301e-01   2.4555777e-01  -3.3257653e-01   8.3388605e-01  -7.6897066e-01  -7.0939447e-01  -1.4088792e-01  -9.6024403e-01  -8.1252850e-01  -2.5752110e-01   4.8974687e-01  -8.1180263e-01   5.5780626e-01   4.8996981e-01   6.5345698e-01  -2.4481762e-01   6.0985157e-01   6.5222780e-01  -1.0982222e-01  -9.6091446e-01  -4.9216476e-01  -7.8918898e-01   5.3314064e-01   8.2402307e-01  -5.0287394e-01   2.5092508e-01   8.7559767e-01  -3.7979616e-01  -5.3050867e-01  -6.4112831e-01  -4.5264368e-01  -4.8902072e-01  -9.9987586e-01   9.1793102e-01  -3.0699859e-01  -2.8433709e-01   8.0801908e-01  -4.4749014e-01  -5.4740160e-01
   2.8866267e-01  -6.9472069e-02   2.5727759e-01   5.1742948e-01   4.4613103e-01  -7.1817649e-03   9.9325955e-01   8.0948129e-01   2.7760489e-01  -3.6822857e-01   5.7232758e-01  -3.7320497e-01  -7.4618313e-01  -1.4486643e-01  -1.9887142e-02  -5.9483972e-01  -6.2591731e-01  -8.0852839e-01  -8.7632572e-01  -5.2852582e-02   9.9378026e-01   1.9945085e-01   9.4902595e-01   1.0937393e-02   3.8353819e-01   3.5195683e-01   5.7616347e-01   7.9098337e-01   4.7498538e-01   9.7962435e-01  -7.2354853e-01  -3.8525871e-01   6.4561470e-01   7.2440358e-01  -2.7356929e-01   5.7738657e-01   6.8655211e-01   9.9198033e-01   1.1426353e-01   4.0070322e-01  -8.4000149e-01   2.8667129e-01   3.1633386e-01   8.9839830e-01  -1.6746052e-01  -6.7893511e-01  -5.4424938e-01   4.8640235e-01  -2.5200894e-01  -4.1224996e-01   6.7713662e-02  -6.1527859e-01   2.2801016e-03   6.9613417e-01   2.5995539e-01  -3.2693820e-01   5.1475854e-01   8.5631727e-01  -4.5655820e-01   9.9710410e-01  -5.1361464e-01  -2.5556296e-02  -2.8733222e-01  -6.3664361e-01   2.9565215e-01   7.1349274e-01   7.4659813e-01  -5.0627814e-01   9.7699783e-02   5.7164440e-01  -3.9558755e-01  -3.9663054e-01   1.7044886e-01   6.2862784e-01  -6.3692503e-01  -9.8238444e-01  -3.6065745e-01   5.9438955e-02  -3.7083949e-01  -7.8013175e-01   2.0245639e-01  -5.2477501e-01   9.8356855e-02  -9.3649567e-01  -1.6758382e-01   2.9081595e-01  -2.5823000e-01   9.3590944e-01  -4.7076469e-01  -4.8353725e-01   3.5357666e-01   5.0282408e-01  -6.9585105e-01  -6.6141944e-01   9.8064016e-01  -8.3295189e-01  -2.9320912e-01   6.4464319e-01  -6.5967847e-01  -1.8630142e-01   1.2219061e-01  -5.4744499e-01  -6.4149205e-01  -8.4991632e-01   2.4911600e-01  -9.9543399e-01   1.7753326e-01   1.1444937e-01  -6.6987901e-02  -3.9601825e-01   5.6838253e-02   4.2198226e-01   9.7468888e-01  -8.4145836e-01  -5.4173904e-01   9.2604888e-02  -8.8363093e-02   7.3726993e-01   8.4235133e-01   5.6164775e-01   8.0673113e-01  -4.3580983e-01   5.2733572e-01   3.9530703e-01  -2.9829008e-02  -8.7705347e-01  -5.7741757e-01  -1.2512716e-01   9.1938741e-01   7.2984604e-01   8.3031571e-01  -7.4869647e-01   3.4662603e-01   5.4384822e-01   3.5389021e-02   5.4109409e-02  -2.1315744e-01  -1.1440355e-01  -5.5787930e-01   6.7161885e-01   2.0584409e-01   4.7004439e-01   4.7886597e-01   6.7720509e-01   6.3162356e-01  -7.2261221e-01  -8.7458205e-01  -3.6677121e-01  -4.8186668e-01  -4.3062388e-01   8.5892605e-01  -1.8494827e-01  -4.4229650e-01  -5.8142538e-01   9.1344106e-01   7.1479939e-01  -6.2206097e-01  -8.1493508e-01   9.1160023e-01   5.7300625e-02   1.6344891e-01  -4.6265089e-01   3.0899959e-01   9.5690270e-01  -2.4528647e-01   7.1444394e-01   1.8820263e-01   7.0822791e-01  -6.7463329e-01  -9.9312601e-01   4.9274463e-01   6.0552192e-01   7.4275353e-01  -6.4631536e-01   9.2992076e-01   4.7535864e-01  -4.7761388e-03   5.7227925e-01  -1.5830443e-01  -7.0452535e-01   4.2943555e-01   5.4549659e-01   1.3730821e-01   4.4408858e-01   1.2126872e-01  -4.1320208e-01   8.2243164e-02  -3.9041847e-01   8.7254963e-01  -6.2361407e-01   6.8019219e-01   3.7772853e-01   1.3471863e-01   2.6500743e-01  -3.6021667e-01   2.2360397e-01   5.9884316e-02   3.5565181e-01   4.8779746e-01   3.0673641e-01   6.8702683e-01  -2.1891019e-02  -4.6271528e-01   8.4662721e-01   9.7271441e-02   6.6854292e-01  -2.1348267e-01   4.7309170e-01   9.8508806e-03  -1.5271785e-01  -2.3528738e-01   9.7855875e-01  -6.7050954e-02  -7.1528873e-01   8.3610772e-02  -8.4333095e-01   1.0774743e-01  -3.7036880e-01  -9.3194558e-01  -3.5942263e-01  -5.8130469e-01  -9.7000648e-01  -1.6354799e-01  -5.6619248e-01   4.0346674e-01  -5.5942942e-01  -2.2996579e-01   9.2314069e-01   6.5925851e-01  -4.9679376e-02  -4.0216748e-01   3.3559167e-01  -1.5230278e-01   6.8688983e-01   8.1454401e-01   9.0018462e-01   4.3569207e-02  -1.0749531e-01  -8.8730578e-01   6.3143049e-01   6.8580181e-01  -3.8302770e-02  -3.2404082e-01   8.1862800e-01   7.1776062e-01  -2.1438881e-01   5.5697423e-02   2.2570045e-01   9.5364318e-01  -1.0853227e-01   5.2116485e-01   9.9327097e-01   1.1671437e-01  -3.3289797e-01  -1.4799858e-01  -7.9073943e-01  -4.9590763e-01  -7.5241913e-01   8.1580158e-01  -1.1847402e-02  -1.3238379e-01   1.7834454e-01   7.4257959e-01  -8.1343162e-01   9.6394837e-01   3.4677985e-01  -7.4560000e-01  -8.9418477e-01   3.2638022e-02   2.1302908e-01   3.8895806e-01  -6.5730108e-01   1.7575296e-01   9.2362871e-01   9.4864109e-01   9.8010924e-01   6.4390443e-01   6.6013192e-01  -1.4435165e-01   6.0555449e-01   7.7314720e-01  -8.3036513e-01  -6.4571706e-01   5.9808554e-01   8.5625558e-01   3.3459516e-02  -1.8610907e-02  -7.3417887e-02   7.4833172e-01  -4.3962609e-01  -9.6124274e-01   4.4313633e-01  -7.3536205e-01  -1.4912849e-02   9.4245707e-01  -8.3052631e-01   1.4329942e-01  -6.7132908e-01   2.4309768e-01  -6.5100366e-01  -8.9853371e-01   8.7932541e-01   9.4716832e-01  -5.0431781e-01  -1.7921726e-01   8.4911143e-01  -9.6953906e-02   8.5030463e-01   5.0632233e-01   6.0202078e-01   2.6410064e-01  -4.3418952e-02   9.1543537e-01  -9.6532622e-01   7.5655152e-01   3.8279666e-01   3.6743776e-01   2.2146947e-01  -2.9587051e-01  -4.1197636e-01  -2.4050045e-01   2.0395558e-01  -6.1408878e-01  -1.5452838e-01   4.7410379e-01  -1.2557402e-01  -8.4532303e-01  -3.2210594e-01   5.3482011e-02   3.6070619e-01   4.5115769e-01   3.9829957e-02  -9.6568733e-01   6.9830738e-01   7.9458181e-01  -6.8739771e-01   1.1724780e-01  -8.8987753e-01   6.3270894e-01   8.0876244e-01  -5.2616831e-01  -3.1492999e-01  -5.3641413e-01  -1.6681831e-01  -5.7966257e-01  -9.5903936e-01  -8.5295802e-02  -4.6980858e-02  -9.9840768e-01  -3.8012492e-01  -4.1534838e-01  -1.5301173e-01  -5.4007589e-01   7.6195769e-01  -1.4465433e-01  -3.4349160e-01   2.7380908e-01   2.4735077e-01   2.4437100e-01  -4.4524244e-01   9.9538925e-01   5.5185503e-01   1.5098498e-01   4.4347944e-01  -8.7219218e-01   3.2379886e-01   9.2367639e-01  -3.1346733e-01   6.0796653e-01  -4.3702264e-01  -7.3890479e-01   5.3092576e-02   4.3317058e-01  -4.0541156e-01  -9.2770670e-01   5.9742096e-01  -2.0949756e-01  -1.0458926e-01   8.1172242e-01   2.0283204e-01  -6.3575984e-01   2.9776317e-01   5.0688044e-01  -5.0505863e-01   6.0086534e-01   7.9233531e-01  -5.3593939e-01   2.4432885e-01  -6.1713748e-01   9.3569656e-01  -7.0068493e-01  -2.9728690e-01   6.6033835e-01  -1.0986960e-01  -5.3071490e-01  -5.9530383e-01  -1.8093147e-01  -5.6265963e-01  -8.8779055e-01  -6.8467330e-01  -1.7872969e-01  -3.3374853e-01   7.1682914e-01   7.0291192e-01  -8.5493890e-01   9.6007927e-01  -6.8770674e-01   4.2995108e-01  -8.3758353e-01   7.1656314e-01  -6.6511040e-01  -6.5621499e-01   6.9110194e-01   6.4386911e-01   7.8572686e-01  -2.4032604e-01  -5.9355301e-01  -4.6560073e-01  -5.8784112e-01  -5.7482414e-01  -3.8157736e-01   4.4626775e-01  -9.0175657e-01  -2.4532462e-01  -5.8262742e-01  -7.9504268e-01  -6.2541580e-01   2.5396262e-02   3.3965872e-01   5.7793803e-01  -2.8913967e-01  -1.1269572e-01  -8.9652474e-01  -3.4580893e-01  -3.3911153e-01   8.0894399e-01  -1.2272296e-01   1.3557822e-02  -2.2971792e-01   4.9337541e-01  -6.7087128e-01   3.9202843e-01  -1.1048932e-02  -1.8039069e-01   8.5486204e-02   8.7561391e-01  -8.7462636e-01  -3.7010114e-01  -4.8740855e-01  -5.7252233e-01   5.8503469e-01   2.3963872e-01  -1.0973343e-02  -3.3558601e-01   8.6871064e-01  -2.1604899e-01   5.1445115e-01  -3.7958975e-01  -7.7763930e-01   6.5311946e-01  -3.2625872e-01  -2.6133464e-01  -1.5870925e-02   4.9521148e-01   1.7418797e-01   1.8032110e-01  -7.4327406e-02  -9.4006086e-01  -8.4423388e-01  -7.9704173e-01  -7.5601623e-01   3.3591056e-01   1.6601900e-01  -2.7888370e-01  -4.7971027e-02  -7.6368598e-01   7.8299819e-01  -9.3771022e-01   7.6747795e-01  -2.9235019e-02  -6.6345945e-01   1.2208533e-01  -4.5618281e-01  -6.5482458e-01   7.4185086e-01  -4.4860877e-01  -2.3368370e-01  -8.3113143e-01  -7.3679103e-01   8.2606795e-01   4.0539375e-01  -5.3664841e-01   3.5372015e-01   2.2782637e-01  -6.3607149e-01  -2.0455092e-01   7.9893738e-01  -2.7694934e-01   2.4314400e-01  -7.9748097e-01   6.4999543e-01  -9.0989172e-01   6.1603363e-03   2.3668709e-01  -6.5570682e-01   4.4924601e-01  -4.3884964e-02   4.9640883e-01  -4.4508902e-01  -8.6743321e-01   5.2813937e-01  -9.5407014e-01  -8.8647503e-01  -1.6875946e-01   2.9848141e-01  -4.1231803e-01   1.8835117e-01   5.2777929e-01  -6.8586381e-01   8.1298273e-02   7.8711905e-01   5.8742035e-01  -3.9288418e-01  -9.1130223e-01   1.3984170e-02   9.2516080e-01  -4.8820533e-01  -2.6553161e-01   4.1761913e-01   9.8838038e-02  -4.4096812e-01   4.5903411e-01  -8.7654127e-01   6.5808046e-01   8.8055457e-01  -2.3063480e-01   1.3310955e-01   2.8464360e-01  -9.0466095e-01  -2.8599624e-01  -4.8700836e-01   4.1206185e-01  -5.4566373e-01  -2.3406254e-01  -9.6546458e-01   2.6569860e-01  -7.7692044e-02  -6.2375216e-01  -5.4623200e-01  -4.7733448e-01  -2.2243379e-01  -1.5615842e-01  -9.4052820e-01  -8.6577631e-01   7.6373954e-01   2.2138889e-01   6.0051772e-01  -9.8926692e-02   1.7973828e-01  -4.0364912e-01   1.3406527e-01   2.2994699e-01  -3.3933281e-01  -6.4452154e-01   5.1794859e-01   3.0193343e-01   6.1943098e-01  -3.9749064e-01   9.6464062e-01   4.3764662e-01   9.3925804e-01   2.5354058e-01   2.6843951e-01   9.8326489e-01  -9.6672291e-01  -8.4015096e-01  -6.1455267e-01   4.2740957e-01   8.0355656e-01   9.4075130e-01   4.8699811e-01   5.7076663e-01   9.8303521e-01   9.0664655e-01   1.1189099e-01  -4.6423823e-01  -2.4235463e-01   6.4232972e-01   8.0372300e-01   4.1545065e-01  -9.5121153e-01   3.2216083e-01  -6.6130551e-01   3.3263752e-01  -6.9156512e-01  -2.1168481e-01   5.4241332e-01   2.5326420e-01  -6.7341129e-01   8.2471043e-01   1.2634468e-01   9.4386375e-01   2.8148437e-01  -2.4398804e-01  -9.4980127e-01  -3.5714802e-01  -8.7401374e-01   2.4454584e-01   1.9635692e-02  -2.5422910e-01  -4.1516679e-01  -1.9319882e-01  -4.3405459e-01  -7.8935511e-01  -9.0864121e-01   9.8582805e-01  -7.5435849e-01  -1.4623938e-01   7.3778498e-01  -9.3480370e-01  -2.8013329e-01  -5.9138033e-01   5.4139056e-01   4.1380495e-01  -1.1240242e-01  -8.6504247e-01   8.8114194e-01   8.5935638e-01  -3.7295624e-01   1.4655226e-01   8.2687118e-01   5.7582333e-03   3.3265993e-01  -8.9702902e-01   3.7085406e-01   5.0538331e-01   3.0741337e-01  -9.1389803e-01  -3.6389003e-01  -6.0626629e-01  -9.2170561e-01  -7.2513858e-01   6.6753538e-01  -8.2074934e-01   6.3051470e-01   1.7074960e-01   4.7536244e-01   4.9902273e-01  -3.4682580e-01  -9.9884375e-01  -8.0335202e-01   7.5047626e-01  -2.5333646e-01   7.6423633e-01  -5.2044347e-01   2.4824255e-01   7.0808371e-01  -6.7985453e-02   7.2974721e-01  -8.0232807e-01   5.7772902e-01  -8.0626846e-01  -7.7950312e-01  -5.9636196e-01   6.4295040e-01   1.5124001e-02   7.0506588e-01  -8.0758942e-01  -6.3708822e-01   5.5490927e-01  -5.2201273e-02  -2.8721758e-01   6.2197744e-01  -3.4020116e-01   5.4945733e-01   6.0264518e-01  -3.3845908e-01   8.0777722e-01   2.7041824e-01   3.6298331e-01   7.9353782e-02   1.6832190e-01  -6.9727549e-02   1.0088288e-01  -2.4381008e-01  -7.2298946e-01  -9.9537909e-02  -3.0048784e-01  -4.7412607e-01   6.0725175e-01  -5.6374246e-03   9.9781624e-01  -5.6951541e-01  -3.5735670e-01   6.2808406e-01  -1.7460053e-01   5.0527614e-02   9.5436212e-01   2.0875802e-01  -7.8251418e-01  -4.3214413e-01  -1.7112282e-01  -9.0358178e-01   2.1423046e-01   1.4854138e-01  -1.6482835e-01   8.9498295e-01  -3.7648755e-01   5.8158120e-01  -6.8705289e-01   7.7402486e-01   2.0940412e-01  -3.9456165e-01   4.7519114e-01   2.9623092e-01   7.1828432e-01   4.2598475e-01  -9.1707129e-01   9.1989646e-01   5.7300263e-02   2.1928915e-01   9.3729614e-01   8.2028074e-02  -7.5510207e-01   2.6146073e-02   7.6213853e-01   1.6289778e-01  -3.7216662e-01  -5.4750953e-01   5.1640910e-01  -6.1852092e-01  -8.7327726e-02  -4.2665705e-01  -7.3366158e-01   8.3967321e-01  -9.2213780e-01  -3.6416166e-01   4.1662339e-01   4.9426346e-01   8.3966035e-01   7.8180044e-01  -8.2840654e-01  -2.2142362e-01   5.6700119e-01   8.8946116e-01   9.7515000e-01  -9.9174775e-01   8.1825003e-01  -6.2253704e-01  -2.7674475e-01  -4.6627193e-01   6.0884626e-01   6.9507202e-01   7.8545956e-03  -5.6690653e-01   9.7098456e-01   4.9414937e-01  -8.0861895e-02   4.7804670e-01   4.3070633e-01   9.1110445e-01  -1.5837466e-01   1.5508941e-01  -5.9718380e-01   2.3008111e-01   4.2471927e-02  -5.1575118e-01   1.3834154e-01  -8.5716650e-02   4.8172910e-01  -5.5673511e-01   7.7682531e-01  -6.4033284e-01  -2.6076167e-01   6.8336393e-01   4.6057801e-01  -8.4664469e-01   8.2125541e-01  -7.2488277e-01   9.7775647e-01  -6.5205851e-03   4.7164371e-01  -3.4237530e-01  -4.2459337e-01  -1.4241692e-01   7.2816873e-01  -4.3683196e-02  -4.9574561e-01  -3.3521982e-01   5.4589998e-01   1.2315725e-01  -2.7841886e-01   9.9949645e-01   3.1517729e-01  -5.9757207e-01   5.9614258e-01  -2.2237183e-01  -4.3834668e-02   4.7466936e-01  -4.5842363e-01   5.9116027e-01  -5.8212078e-01  -5.5725672e-01   3.1812171e-01   2.5766074e-01  -7.6719416e-01   9.0602326e-01  -4.9541512e-01  -5.0498676e-01  -8.2617878e-01  -1.1720198e-01   1.9559811e-01   7.1479744e-01   2.5594660e-01   3.4682994e-01  -6.9145938e-02   8.6703316e-01  -1.5635132e-01   2.0792132e-01  -5.9521905e-01  -3.7077319e-01  -7.7291414e-01  -6.7338918e-01  -4.9489712e-01   5.0346858e-02  -1.9250282e-01   2.1295085e-01   8.9307707e-01   3.9151001e-01   5.1673807e-01   9.4255516e-01   8.1733751e-01  -6.3065161e-01  -8.3292109e-03   8.0296171e-01   5.2050022e-01  -8.7194079e-01  -9.8127078e-01   3.0112411e-01  -4.9978213e-01  -4.5993037e-01   4.2258212e-01  -6.1088249e-01  -4.5158065e-01   6.1540256e-01   4.0874206e-02  -1.8817631e-01   5.1535509e-01   9.8333292e-01  -5.0588538e-01   3.3077311e-01  -8.2062560e-02   2.4340598e-01   3.7620205e-01  -9.6765782e-01   6.1283359e-01  -5.5748736e-01  -1.5861551e-01   7.2941320e-01   8.2867726e-01  -6.5414045e-01  -7.1195160e-01  -4.8246322e-01   6.1233323e-01   9.9830750e-01   2.1524537e-01  -5.2945778e-01  -4.5524041e-01  -4.6107218e-01   6.5641511e-01  -8.3435300e-01   5.7454513e-01  -9.4693598e-01  -4.7958116e-01   4.7674593e-01  -3.2157503e-01   4.1707584e-01  -3.8639011e-02   5.9124034e-01   9.3740215e-01   7.1977796e-01  -4.0756601e-01  -3.6493175e-01  -5.9928743e-01   7.3989120e-01  -3.3906794e-01  -1.2503082e-01  -1.1004020e-01   5.2686319e-01   8.1427548e-02  -3.6905644e-01  -8.1474558e-02   6.1191212e-01   2.0371493e-01  -2.1721298e-01  -8.6104509e-01   2.7595128e-01   6.8119643e-02   9.6776616e-01  -5.8258317e-01  -7.5668527e-01   5.1295764e-01   3.1231402e-01  -7.5327377e-01  -7.3316069e-01   4.2493953e-01  -8.2241830e-01  -1.4593207e-01  -7.1847988e-01  -7.6291460e-01  -1.9420949e-01  -8.7686471e-01  -9.3825444e-01  -9.8886509e-02   9.5767476e-01  -3.6656487e-01   3.9740341e-01   3.0762771e-01   4.0032970e-01  -8.1314477e-01  -4.0488850e-01   5.7272014e-01   3.7127673e-01  -7.8178499e-02  -5.6262820e-01   4.5093732e-01  -4.8758048e-01   4.0969907e-02   3.3073860e-01  -7.2943711e-02   9.3478222e-01  -2.0962564e-01   2.1394138e-01   8.5427052e-01  -7.5967127e-01   3.9238686e-01   4.9555537e-01   6.8336864e-01  -7.8388406e-01   5.4339845e-02   7.7329123e-02  -9.5444395e-01   5.7669889e-01  -4.5461163e-01   5.3056772e-01   6.6186865e-01   7.2076764e-01  -6.9610245e-01  -2.2028265e-01  -9.4221225e-01   7.0989853e-01  -7.0111920e-01   6.3646200e-01  -4.0604407e-01  -8.1350036e-01   6.7829160e-01   5.0906319e-01   2.5597900e-01  -8.6262794e-01  -9.3007461e-02   5.7592832e-01   4.2668471e-01   6.5738160e-01   4.5344061e-01  -4.2915108e-01  -5.5014231e-01   2.2580622e-01  -5.8987559e-01  -8.3617788e-01  -5.5814085e-01   4.3027153e-01  -4.1720790e-02   7.5216526e-01   1.4912145e-01  -6.6823594e-01  -4.5274158e-01   2.1202021e-01  -2.6144377e-02   8.3157586e-01  -9.6371193e-01  -2.7347591e-01   4.6808350e-01   1.9464498e-01   7.7360549e-01  -9.7728437e-01   9.0944167e-01   5.6944999e-01   6.6949916e-02   9.5404299e-01   3.9227833e-03  -7.4009241e-01  -2.6781592e-01  -2.2749875e-01  -2.0504931e-01  -1.2230748e-01   7.1528655e-01  -5.9094192e-01   8.8335126e-01   3.1047610e-01   4.0916310e-01
   6.4395734e-01   9.4641924e-01  -7.2759556e-01  -2.5546121e-01  -8.2766897e-01   7.0640778e-04  -4.6038232e-01   5.6278193e-01   7.2242303e-01   9.0870051e-01  -1.6905616e-02   1.6784479e-01  -5.6698982e-01  -2.3895909e-01   7.1659601e-01   6.1878731e-01  -1.7370308e-01   8.9177965e-01   6.0518666e-03  -9.0773795e-01  -6.5228318e-02  -2.9787152e-01   6.7118624e-01  -4.8601288e-02   6.6873912e-01   6.6865310e-01  -8.8086844e-01  -2.1977413e-01  -4.6499851e-01   6.7470933e-01   4.8576930e-01  -5.9412420e-01   7.1966146e-01  -3.8226143e-01  -9.3259645e-01  -6.7162812e-01  -2.0775435e-02  -2.1409598e-01  -8.9517964e-01  -5.6480504e-01  -9.1695148e-01   3.3777742e-01  -7.1577570e-01   6.5015043e-01  -4.3376345e-01   9.7672077e-01   7.8525297e-01   2.0936711e-01   3.7161359e-01   1.1642063e-01   9.3592530e-02  -1.3810264e-01   6.5897936e-02  -1.3825778e-01   5.8439638e-01  -5.5098685e-01  -5.7519262e-01   5.6044220e-01  -3.0790902e-01   1.5482568e-01   8.9535995e-01  -4.2644983e-01   8.9687937e-01   9.9305562e-01  -6.4681321e-01  -7.4014330e-02  -2.7616163e-01   7.8770075e-01  -6.6149155e-01   4.8164318e-01  -1.4691984e-01  -3.0209836e-01   3.5288965e-01  -5.3345654e-01   4.8934037e-01  -4.0467948e-01  -4.1493781e-01   2.3488227e-01  -1.2421824e-01  -1.9748096e-01  -4.0185574e-01   7.5107499e-01  -5.2513014e-01  -4.5087764e-01   8.7701227e-01   1.4267366e-01  -2.5746730e-01   7.2954154e-01  -6.7953914e-01   8.5590861e-01  -8.8286684e-02  -3.3837865e-01   8.0332195e-01   6.5761211e-01  -6.9793169e-01   3.2347461e-01   9.1826622e-01  -7.9834089e-02  -8.7744058e-01   5.6947036e-01   8.1422679e-01  -3.7906098e-01  -2.1705059e-01  -9.5383771e-01   5.7296603e-02  -8.9203372e-01  -5.9667248e-01   7.3677133e-01  -9.2021859e-01   9.3039093e-01  -9.4061537e-01  -1.9193113e-01  -5.3661624e-01  -2.7468315e-01   1.0220896e-01   9.8632884e-01  -4.2604081e-01   6.7938474e-01  -1.2560779e-01   4.2622318e-01  -1.0849564e-01  -8.6532165e-01   2.3176216e-01   3.1838153e-01   1.4729355e-01  -6.1190580e-01  -2.6257440e-01   9.6594311e-01  -9.8962153e-01  -3.1703230e-01  -6.8295543e-01   8.8888208e-01  -2.0980840e-01  -1.8118730e-01   4.6500661e-01   3.2200856e-02  -7.1584632e-01  -7.9550472e-01   2.3800104e-01  -4.5134162e-01  -4.5256419e-01   9.9044191e-01  -9.6980506e-02  -9.8534694e-01  -9.7593502e-01   8.1006936e-01  -4.4557363e-01   4.3771334e-02   6.7430063e-02  -9.9581334e-01   2.9926314e-01   7.7992296e-01   2.1958635e-01  -8.3881085e-01   8.3824407e-01  -7.7898756e-01   1.3087538e-01  -7.1553723e-01   5.6283088e-01   7.2214799e-01   2.2038898e-01  -2.7789170e-02   6.2291418e-01  -7.1104726e-01   1.5121323e-02   3.5298753e-01   1.1904656e-01  -2.7925972e-01   3.8874006e-01  -3.6905799e-01  -3.6474974e-01  -6.2125206e-02   5.6875679e-01   8.8378289e-01   3.3380887e-01  -8.2482924e-01  -6.5814429e-01   4.7729633e-01  -3.3560894e-01   5.2366544e-01  -6.3628798e-01   8.6883303e-01   7.4932671e-02  -8.7729116e-01  -8.6502432e-01   1.4993997e-01   4.1450932e-02  -2.7609503e-01   9.5499686e-01   1.6555003e-01   3.6426421e-01   4.3266812e-02  -9.3962985e-02   1.1394834e-01  -5.1806306e-01  -7.9627565e-01  -4.5274716e-01  -1.4072813e-01  -9.5022017e-01   8.8807454e-01   4.5797058e-01   5.6114834e-01  -1.8510473e-01   5.2394518e-01   6.3201408e-01  -1.5532400e-01   9.2393356e-01   7.5874471e-01   4.7197883e-02   5.1122907e-01   2.1076114e-01  -8.4729921e-01  -8.7526156e-01   4.4872785e-01   3.7829461e-01  -9.6438023e-01  -6.8863541e-02   8.9782385e-01   9.5637486e-01  -1.4615606e-01   6.5384982e-01   5.5157254e-01   8.4305614e-01  -9.2467000e-01  -8.4859946e-01   8.6982017e-01   9.6230034e-01   7.9453182e-01   4.6899414e-01  -3.2150031e-01   7.1849686e-01   1.5424040e-01  -1.5968641e-01  -4.4913736e-02   9.8126056e-01   5.8571709e-01  -5.9616290e-01  -1.0544322e-01   9.7783369e-01  -2.6427736e-01  -3.5381680e-01   6.9035517e-01  -6.7823654e-01   2.2852346e-01  -7.0636016e-01  -4.6622192e-02  -1.3047709e-01   9.4418990e-01  -4.9314982e-01   7.3146838e-01   3.9768856e-01  -2.2191447e-01  -8.7193998e-02  -3.3408247e-01  -5.7743991e-01   8.7169325e-02   1.2188827e-01   5.6900780e-03  -4.5451516e-01   3.9387446e-02   9.4680731e-01   9.2934712e-01  -3.4396414e-01   5.4658095e-01  -9.6621833e-02   9.4190285e-01   8.1358923e-01  -1.0556052e-02   1.4536597e-01  -8.3974884e-01   2.7279928e-02  -5.2896538e-01   7.8731567e-01  -8.8591871e-01  -5.4142338e-01  -7.2135885e-02   5.9815785e-01  -1.3410340e-01  -2.1394445e-01   6.0862142e-01   9.5854144e-01  -8.7978044e-01   7.7756731e-01  -2.3128814e-01   8.5612733e-01   2.0402695e-01  -1.9754682e-01  -3.9164802e-01  -8.2975017e-01  -6.6805366e-01  -8.6687090e-01   5.4776989e-01   3.6503537e-01   4.0526296e-01   7.1837965e-01   9.7571604e-01   8.4311711e-01  -7.8496347e-01   7.1159823e-01   6.1115927e-01   6.7291592e-01  -4.7693690e-01   9.6876119e-01  -8.6341066e-01   1.5859626e-01  -1.6895377e-01  -2.9956400e-02  -1.6398902e-01  -5.0248554e-01  -1.6850750e-01   9.6776359e-01  -8.4209997e-01   4.3808140e-01  -4.1358040e-01  -4.2860667e-01  -3.1090208e-01   9.6107231e-01   9.6552364e-01  -4.7203281e-01  -8.2733492e-01   3.0645686e-01  -2.9359696e-01   1.6897509e-01  -2.8508555e-01   4.5311052e-01  -6.1420842e-01  -5.2787162e-01   1.5501414e-01   7.2336105e-01   7.2326211e-01   6.1625572e-01  -2.5389755e-01   4.1519360e-01   1.0072800e-02   5.8586592e-01  -3.6915665e-01   4.9847703e-01  -3.3401325e-02  -3.5838385e-01   9.2487766e-01   4.8173625e-02  -3.2272826e-01   6.0998542e-01  -8.6056945e-01  -4.3366240e-01  -6.8191085e-01   8.4185987e-01   5.1877271e-01  -1.4499175e-01  -8.9869335e-01   3.4979887e-01  -4.1574277e-01   7.2267112e-01   1.2338786e-01   6.0377839e-01   1.2857029e-01  -9.6059526e-01  -6.6343389e-01   2.7864574e-01   2.8798946e-01  -4.1834852e-01  -6.1594417e-01   5.6020146e-01  -4.9639311e-01  -1.1637167e-02  -7.2521364e-01   4.5500419e-02   3.3534706e-01  -9.7100621e-01   5.0946662e-01  -1.9837384e-01  -3.2719374e-01  -3.9386978e-01   3.1534214e-01  -8.1644365e-01   6.3633617e-01  -1.8526729e-01   2.9393450e-01   9.9860579e-01   8.0469854e-01  -6.0780474e-02  -4.2524039e-01  -3.0691014e-01  -1.4649243e-01   2.4872222e-01  -5.6974471e-01  -2.0907514e-01   3.6021633e-01   8.1637696e-01  -9.2079842e-01  -4.0484432e-01   3.7230165e-01   1.1449572e-01  -4.5762579e-01  -5.1856923e-01   7.0825091e-01  -5.9220374e-01  -7.3422180e-01   9.1179326e-01  -4.8898066e-01   9.4281797e-01   5.6029391e-01  -2.8008801e-01  -6.3392160e-01   1.4460070e-01   7.4392075e-02   3.0120397e-01   1.3886145e-01  -6.4471595e-01   2.4885934e-01  -7.3597199e-01  -7.2669375e-01  -3.3379113e-01  -6.0639582e-01   9.8057575e-01  -6.6812817e-01   4.8921844e-01   7.5899160e-01   3.8958746e-01  -4.2636110e-01   2.8374567e-01  -9.2299488e-01   3.3369795e-01  -1.4892396e-02  -6.1678376e-01   9.3761252e-01  -7.6109669e-01   7.0756268e-01  -8.9622052e-01  -6.0014245e-01   6.4980803e-01  -4.7853211e-02  -7.8436605e-01   5.7427429e-01  -5.1830807e-01  -7.2934874e-01   3.1500072e-01  -1.4037808e-01   5.2115425e-01  -3.4773602e-01  -7.6595768e-01  -6.0358233e-01   2.6103629e-01   3.5579270e-01  -7.7165310e-01  -6.0411620e-01   6.7237893e-02   9.2377710e-01  -3.4878877e-01   3.0690726e-01  -6.6445630e-02  -7.5787695e-02  -2.9663581e-01  -6.3358701e-01  -4.3331224e-01  -7.6261635e-01  -9.9674270e-01   2.2395470e-01   9.0267120e-01  -6.2653123e-01  -5.2642513e-01  -9.8671887e-02   6.7352505e-01   7.9601079e-01  -3.3230584e-01   3.3113336e-01  -1.2602435e-01  -4.9813876e-01   8.9218080e-01  -4.9593040e-01  -3.9246966e-01   2.0403980e-01  -4.0368494e-01   6.1401295e-02   9.5750478e-01  -4.2068970e-01   6.7270505e-01  -7.2958743e-01  -7.4623426e-01   8.3985478e-02  -6.5101570e-01   1.4024918e-01  -7.0152489e-01   9.0131325e-01  -6.2114091e-01  -8.2962223e-01   5.8590964e-01  -9.3447932e-01   7.5926207e-01  -3.6020355e-01   5.0208194e-01   2.0291340e-01   5.9910340e-01  -7.1250820e-02   3.4633603e-01   5.7509050e-01  -8.6277303e-01   7.6570553e-02  -9.9984771e-01   6.0221356e-01  -4.3005250e-01   6.4134075e-01   4.4202766e-01  -2.2012169e-01  -7.3938732e-01   7.1529207e-03  -2.2001233e-01  -4.7055965e-01  -6.5569613e-01   1.5806425e-01  -2.6934245e-01  -3.2271237e-01   6.8658134e-01   7.5142878e-01  -6.3500997e-01   4.2651452e-02   1.3579923e-01   7.7059842e-01   7.2593132e-01   9.1828730e-01   9.9027227e-01  -5.0221621e-01  -8.5769093e-01  -3.4931166e-01   9.7937916e-01  -5.4155434e-01  -4.4140615e-01  -8.7474774e-02  -2.1230697e-01  -8.6856875e-01  -2.6806864e-01   4.0254291e-01   3.5193927e-01   3.9707550e-01  -5.2890319e-01  -4.4567246e-01   4.0516847e-02   2.1380219e-01   3.6755479e-01  -8.9328789e-01   2.6868904e-01   3.4610452e-01   5.0550428e-01  -3.0294700e-01   1.8254520e-01  -5.0468274e-01  -9.3181995e-01   7.1184570e-02   9.0741771e-01   5.7995978e-01   4.1353249e-01   9.8012352e-01   9.7735879e-01  -8.5631496e-01   7.9468433e-01  -7.4381639e-01  -4.7910334e-01   1.9670086e-01  -1.4480071e-01  -7.5318794e-01  -2.6137440e-01  -3.8802227e-02   3.8353500e-01   6.7042148e-01   7.5209650e-01   8.3331810e-01   7.1485015e-01   6.9660441e-01  -8.4042147e-01  -5.7143669e-01  -7.6590346e-01   6.7889966e-01   1.3679538e-01  -6.3176230e-01  -2.0023636e-03  -6.4699350e-01  -2.6419304e-01  -9.7134049e-01  -4.7897381e-01  -1.8505971e-01  -3.8719179e-01  -2.6248705e-01   6.8423979e-01  -9.2690086e-01   1.7358390e-01   9.4938185e-01   2.5840279e-01  -8.9006826e-01   6.8456512e-01  -8.5950137e-01  -7.4028871e-01  -8.7388973e-02   7.5122411e-01  -1.9671160e-01   5.3702177e-01  -2.0047318e-01   9.8680865e-02   7.6390724e-01  -8.7908581e-01  -3.7369005e-01  -4.1519391e-01   7.9801201e-01  -4.2131548e-01   1.2423058e-01  -3.9070936e-01   4.2250207e-01   2.3672067e-01   4.8994303e-01   8.6051191e-01   1.5077077e-01  -7.4737318e-02  -5.4939394e-01  -7.4045384e-01   1.8499258e-01   2.1687687e-01  -9.9115488e-01   7.3554228e-03   2.6865092e-02  -5.6840473e-01   4.3595276e-01  -6.6025670e-01  -5.9392116e-01   2.9216165e-01  -5.8184020e-01  -7.4149894e-01  -6.3740489e-01  -7.3763407e-01   5.4351655e-01   3.2339473e-01   2.0122609e-01  -2.4002764e-01  -8.7152057e-01   7.9668749e-01  -6.9439503e-01  -9.5619369e-01   4.5046643e-01   8.6255044e-01  -1.2823513e-01   6.3573766e-01  -7.3570395e-01  -9.3494841e-01   8.6577631e-02   3.5460399e-01   2.0444325e-01   9.3041280e-01   6.2717222e-01  -1.4797495e-01   2.7745393e-01   2.3701287e-01  -5.6542347e-01   3.6134247e-01   1.7393406e-01  -4.7462793e-01  -3.2049753e-01  -4.5725393e-02   2.0868109e-01  -2.0831663e-01  -8.6891076e-01   2.8410056e-02   7.1524410e-01  -3.9287869e-01  -1.3107264e-01  -4.0007311e-01   9.3520642e-01   1.8058770e-01   8.7675223e-01   1.2108692e-01   3.2164662e-01  -7.0280639e-01   2.6482219e-01  -5.4144710e-01  -8.9955163e-01  -6.0123803e-01  -8.8183247e-01   1.6150768e-01   7.9884957e-01  -7.4852443e-01  -8.7355203e-01   6.2375182e-01   4.3040017e-01   5.3914556e-01   6.5716259e-01   6.4541216e-02  -6.8223080e-01  -4.7780415e-02   2.2505315e-01  -6.6018678e-01   5.1668641e-01   8.4657509e-01   6.6220427e-01  -5.7990622e-01   7.9871850e-01   8.6628653e-01   4.3507684e-01  -5.1774013e-01   3.9124447e-01   4.1473525e-01   3.7976298e-01  -5.5835724e-01  -6.3037900e-01   2.2545386e-01   7.6607898e-01  -4.0898435e-02  -9.6371758e-01   4.8756320e-01  -9.1200811e-02  -6.5441887e-01   7.1252032e-01  -6.5983440e-01  -1.6032458e-01  -4.1425100e-01  -1.6632263e-01  -2.7499626e-01  -3.4962912e-01  -2.7233661e-01  -7.5710104e-01  -9.7080147e-01   8.5880932e-01  -5.6619064e-01  -6.7534134e-01   2.2824892e-01   5.1571302e-02  -8.6927855e-01  -9.7286773e-01  -5.1871527e-01  -9.4683865e-01  -6.2921675e-01   9.0972852e-01  -7.1256195e-01   2.4894884e-01  -4.5465615e-01   2.9867247e-01  -3.6264255e-01   6.8209242e-01  -3.1903770e-01  -4.0760579e-01   3.3473607e-01  -7.4803041e-01   8.8302210e-01  -3.7095805e-01  -7.9351951e-01  -3.1394743e-01   3.2897081e-01   7.5910286e-01   7.2442950e-01  -5.7093069e-01  -7.6911481e-01   1.9789047e-01  -9.0572425e-01   1.8559154e-02   9.1708149e-01   4.6053184e-01   3.7758089e-01  -3.7798901e-01  -8.1848027e-01   5.7796256e-01   7.1043192e-01  -2.9327893e-02  -1.2460793e-01   2.1892084e-01  -6.3205707e-01  -1.8383502e-01   5.5747477e-01   6.4380293e-01   1.6852119e-01   7.8678738e-01  -5.4866705e-01  -1.9725408e-01  -5.2267501e-01   1.4862651e-01  -5.0034971e-01   1.5880147e-01   2.6320363e-01  -3.3081384e-02  -2.8330331e-01  -3.7914257e-01   1.5594295e-01  -7.9890619e-01   2.2069536e-01  -5.4577375e-01  -9.7790665e-01   2.0893593e-01   4.7547511e-01   6.7131846e-03  -5.9728764e-01   3.5390832e-01   5.4769763e-01   7.7178916e-01   8.1404634e-01   8.8908501e-01  -9.5040324e-02  -9.2178432e-01   9.2583947e-01   3.7232735e-01   9.9510145e-01   1.6711816e-01   5.1822741e-01   1.0621903e-01  -3.4794663e-01  -6.6584534e-02   8.1418612e-01   1.4091583e-01  -3.8044209e-01  -3.7325951e-01  -6.3070603e-01  -9.9426496e-02  -4.9180750e-01   9.3721021e-01   9.0953017e-01  -2.7774768e-01   3.4590047e-01   3.2439696e-03   9.4995926e-01  -6.8455003e-01  -1.2362328e-01   1.1697148e-01  -5.6925550e-01   2.8679187e-01   9.3210316e-01   1.7324620e-01   3.0737251e-01  -9.8881471e-01   3.6899198e-01   1.2869143e-01  -5.8701509e-01  -4.4194392e-01  -4.3565318e-01   7.4413616e-01  -2.7725445e-01  -4.4597124e-01  -2.2129010e-02   8.1871726e-01  -2.7382949e-01  -1.5757621e-01  -6.4835293e-01   3.5392176e-01  -2.5451147e-01   3.4787486e-01   3.5156971e-01   1.6275384e-01  -2.0938228e-01   2.9707653e-01   2.9284405e-01  -5.5932161e-01   3.9871218e-01  -2.0242333e-01  -3.1536837e-01  -7.6144125e-01   1.7121527e-01   2.1696920e-01   2.0197888e-01  -7.1539529e-01   1.3187357e-01  -3.6243184e-01  -2.5891260e-01   6.7436357e-01  -9.5921882e-01   3.2392902e-01  -6.2243185e-02   7.0754183e-01  -5.2509733e-01   2.3255605e-01  -5.4159804e-01  -4.2976588e-01  -1.8321378e-03  -2.9645316e-01   1.8611564e-01  -1.4733357e-01  -6.5105043e-01   2.0588442e-03  -5.4793255e-01   5.5038496e-01   4.6356714e-01  -2.5822597e-01   5.2086574e-01  -4.9049085e-01  -8.4239795e-01   9.7107335e-01   6.6702860e-01  -9.3864629e-01   5.4462027e-01   6.8123078e-01   8.9568038e-02  -9.1393906e-01   9.3026080e-01  -3.1923654e-01  -5.3507948e-01  -6.0860326e-01  -2.0227780e-01  -9.8809829e-02  -5.4752972e-01  -1.6383295e-01   6.4183643e-01   8.8299110e-01   5.9550310e-01  -1.5337475e-01  -8.4252631e-01  -9.2546258e-01  -1.1277180e-02   6.9235101e-01  -3.0502950e-01  -1.7412412e-01  -8.2287407e-01   5.0719946e-01   9.9044435e-01   7.4554829e-01  -3.0518443e-01   7.6614514e-02   7.1634688e-01   3.8974479e-01  -9.0874852e-01   4.4121429e-01  -4.9174837e-01  -9.8575620e-01  -6.1149854e-01   7.7339447e-01   9.0797888e-01   4.6501046e-01  -3.8828661e-01  -9.1929882e-01  -9.6942276e-01  -2.4409693e-01  -8.8111318e-02  -2.6666397e-03  -7.8916701e-01  -4.8462323e-01  -3.3364712e-01   2.5939541e-01   5.9722061e-01   4.0845855e-01  -5.2194430e-01  -2.0013976e-01   3.6632472e-01  -8.5422027e-01   6.9366668e-01   5.1158354e-01   2.5778542e-01  -4.0813982e-01   9.4479082e-01   8.9662798e-01   9.1012443e-02  -8.0005343e-02   7.7243010e-01   9.8791076e-01  -3.1615116e-01  -9.1917552e-01  -9.3921280e-01   2.4919548e-01   8.5407316e-02  -3.1166568e-01  -9.7742633e-01   3.4213878e-01   7.3072978e-01  -5.0232317e-01   6.7266790e-01  -7.8979051e-01  -2.2573318e-02   1.7812560e-01   8.1283827e-01   1.9521702e-01   1.0198420e-01   6.9569962e-01  -9.5401949e-01   9.1302382e-01   9.6896072e-01   8.2136256e-01   3.7529643e-01  -8.5787700e-01  -2.7002696e-01   3.2883791e-01   6.5995995e-01   2.2388022e-01   8.3994883e-01   4.5315006e-01  -1.9568043e-01   5.8466627e-01  -8.1445197e-01  -7.8620149e-01  -8.7657949e-01   8.5583545e-01   1.7384474e-02  -9.7314111e-01  -9.6297552e-01   1.7887794e-01   5.8067331e-01   8.9445836e-01   8.5987431e-01   5.1533702e-01  -9.5777067e-01  -4.9721725e-02  -5.1681139e-03  -5.7857526e-01  -1.1774314e-01   6.5876340e-01   6.7864506e-01   5.2830636e-01  -4.2191726e-01  -2.0405953e-01  -6.0435165e-01  -1.4429494e-02
  -1.5202637e-01   7.5482457e-01  -5.0579712e-01  -3.5796397e-01  -1.5971301e-01  -5.2305416e-01  -5.9354922e-01  -5.4482200e-01   7.5897972e-01   5.9369892e-01  -9.9600312e-01   9.6779160e-01   3.2645327e-01   4.1329547e-01   4.3379096e-01   2.2004183e-01  -3.0469000e-01   7.4887085e-01   4.8746389e-01  -3.5170959e-01  -6.7177111e-01  -4.6741810e-01   7.5971752e-02  -9.1896621e-01  -3.4834725e-01  -6.1585967e-01  -7.8733574e-01   4.9889355e-01   6.0679876e-01  -6.4370642e-01  -8.0250116e-02   9.4702412e-01   4.8910352e-01  -5.4656724e-01   5.1068598e-01  -9.1221546e-01  -6.2496785e-01  -4.5813926e-01  -8.4505862e-02   6.8721003e-02  -7.0838517e-01   4.2438412e-02   3.1765059e-01  -9.1835207e-02   9.2301837e-01   2.1832238e-01  -1.8345088e-01  -9.9157969e-01  -6.2627194e-01   3.9337790e-01  -2.8294024e-01   2.7610353e-01   3.8327125e-01  -4.6413377e-01   5.3088909e-01  -1.4672326e-02   6.2567589e-01   4.9547693e-01   4.9153837e-01  -1.1244068e-01  -6.6089583e-01   8.3845053e-01  -7.4670528e-01   8.8797404e-02   6.5553657e-01   3.3814846e-01   6.5050476e-01  -7.8021674e-01  -4.7540996e-01   6.0091628e-01  -3.9104544e-01   6.3583126e-01   5.1257310e-01  -9.1821781e-01  -2.3441415e-01  -9.5945123e-01  -1.4721878e-01  -2.3659383e-02  -8.6795206e-01  -9.5618444e-01  -1.5141180e-01  -5.5313417e-01  -2.5712088e-01   1.0441903e-01  -6.8799248e-01   9.8471384e-01  -6.5473558e-01   3.1411611e-01  -6.7402184e-01   6.4999649e-01   2.1755996e-01   2.1123569e-01   2.6794938e-01  -4.1672711e-01   4.4378474e-01  -9.0025968e-01  -6.6479188e-03   9.8948529e-01   7.2678367e-01   5.5059117e-01  -9.9824981e-01   2.7155872e-01  -9.2440173e-01  -9.5529117e-01  -6.8859335e-01  -4.5659800e-01  -3.5072539e-01   8.2244044e-01  -2.7455138e-01   9.2502765e-01  -8.6046594e-01  -6.5191466e-01   1.2994973e-01  -9.1924892e-01  -1.1193493e-01  -1.7666513e-01  -3.0997654e-01   9.4262240e-01  -2.1993083e-01  -4.4684627e-01  -9.3382424e-01   3.2498483e-01   5.8727616e-01  -7.4740483e-01   1.7200070e-01  -2.5017388e-01   8.1665141e-01  -9.5907076e-02   7.9346026e-02   5.2428648e-01  -2.8215973e-01   5.0086589e-01  -5.8664371e-01   5.8298671e-01  -3.9120709e-01   4.9835028e-01  -1.3748319e-01   2.1758276e-01   9.7051293e-01   4.2113274e-01  -4.3815940e-01  -1.6689138e-01   5.9381873e-01  -9.2231201e-01  -8.2344421e-01  -1.0586017e-01  -1.6698619e-01  -6.2797894e-01   9.3742630e-01  -7.5511107e-02  -9.2505806e-01  -9.4110014e-01  -3.0765279e-01   2.8132795e-01   8.5998956e-02   7.8417113e-01   8.9078194e-01   5.5275514e-01   1.8065231e-01   1.1577670e-01  -5.9151693e-01  -8.1801010e-01  -1.3942530e-01  -9.5290095e-01   5.2953868e-01  -9.3972112e-02   7.8613529e-01  -7.6893935e-01  -7.1069852e-01   1.7670187e-01  -6.1667552e-01   9.1808245e-01  -1.3574069e-01  -1.4790548e-01   7.7578168e-01   3.2641916e-01  -9.9902019e-02   4.5046027e-01  -1.9798792e-01   2.8184628e-01  -9.9595756e-01  -9.7612659e-01   3.4150346e-01  -2.8130090e-01  -4.8984018e-01  -1.4713254e-01   2.4650732e-01   6.6323132e-01  -5.2311452e-02   8.4000002e-01   9.6500605e-01  -4.3072416e-01   4.7867378e-01   9.1845312e-01   6.8663303e-01  -3.3306966e-01  -6.8182147e-01   9.1663438e-04   1.2940365e-02  -2.6194728e-02  -1.1251988e-01  -7.8063084e-01   2.3629032e-01   1.7760992e-01  -9.8464070e-01  -5.0503396e-01  -3.6254495e-01  -3.2359845e-01  -7.8246524e-01  -3.5577441e-01   6.2367010e-02  -6.0491868e-02   9.8438705e-01   8.9428119e-01   8.5744638e-01   9.6097196e-01   1.8277544e-01  -6.9849361e-01  -2.4321624e-01  -8.7372635e-01   8.6757571e-01  -3.1800968e-01  -1.7083355e-01  -9.2794269e-01   6.6248275e-01   2.3663248e-01  -8.6919091e-01   3.6941594e-01  -3.9230088e-02  -1.5324447e-01   3.1256581e-01   7.3338286e-01  -1.8446091e-01  -6.9533997e-03  -2.6452033e-01  -9.1001564e-01   6.7813489e-01  -3.1426145e-01   4.9783276e-01   7.2027836e-01   4.9403289e-01  -1.2790821e-01   2.4059759e-01   6.2266279e-01   5.0126773e-01  -8.2750711e-01   5.7365717e-01  -2.8822056e-01   7.5192140e-01  -6.9873142e-02  -7.7344108e-01  -1.0412362e-02   7.4607903e-02  -1.2263008e-01   9.2212150e-01  -7.8619989e-01  -9.4265416e-03   6.5315638e-02  -7.9928329e-01   5.1054562e-02  -7.7439012e-01   4.7355453e-01  -3.5385887e-01  -7.1345121e-01   2.6743066e-01  -6.5441480e-01  -1.5457744e-01  -7.9596497e-01  -2.5229254e-01   8.0428869e-01   8.6961096e-01   7.2098151e-01  -2.6484696e-02   2.6851295e-01  -6.7365450e-01  -4.7773598e-01   2.9637109e-01  -4.2035793e-01   9.7461169e-01  -6.8789432e-01   8.8682497e-01   5.3161944e-01  -8.9513944e-01  -4.4878502e-01   2.9809743e-01  -5.9556027e-01   1.8076590e-01   2.1553033e-01  -6.9448993e-01  -7.7293620e-01   6.9564185e-01  -4.2162699e-01   9.3562287e-01  -7.0995250e-01   3.4430883e-01  -5.0023238e-01   5.3585602e-01   5.2176412e-01   1.1734873e-01   9.9649013e-02   2.6018480e-01   4.0969380e-01   5.5755451e-01  -2.2003485e-01   8.3338671e-01   3.3620813e-01  -2.8334823e-01  -7.3409795e-01   5.8933367e-01  -4.5340429e-03  -7.1745324e-01  -1.6433293e-01  -1.0593104e-01   5.7559347e-01  -4.5837808e-01   7.5934241e-01  -4.7350984e-01   5.2690975e-01   8.7731130e-01   9.6251442e-01   1.0551785e-01   5.4809282e-01  -4.3648423e-01   6.0132321e-01   7.3662337e-01  -9.7364955e-02   5.4478607e-01   2.3719878e-01  -4.6788092e-02   6.3551800e-01   2.7136789e-01   6.8057818e-02   1.8638882e-01   8.1383249e-02   3.0859928e-01   7.4671856e-01  -7.4382105e-01   8.9332484e-02   1.0085946e-02   9.3623373e-01   5.5378349e-01   1.3207066e-01  -2.7842509e-01   6.6237690e-01   4.3182065e-01   9.4000900e-01   9.8643474e-01  -8.5039142e-01   4.8027495e-01  -2.5370415e-01  -3.7142214e-01   4.2363597e-01   8.6021946e-01  -5.5882729e-01   1.9114919e-01   8.4205761e-01  -4.2860898e-03   8.1460782e-01   7.6137268e-01  -2.9197865e-01  -4.7088309e-01  -2.6164348e-02  -9.2205798e-01   5.1016058e-01   6.7756901e-01  -3.2679596e-01  -3.2243144e-01  -4.8200172e-01   1.3500940e-01  -8.3278903e-01   8.2458330e-01  -2.1454041e-01  -3.0676312e-01   7.4625123e-01  -8.2604963e-01  -3.3825336e-02   6.4442155e-02  -5.1420794e-01  -5.1223066e-01  -4.0731480e-01   2.3067069e-01   3.5111986e-01  -3.6417890e-01  -1.5303726e-01  -2.1380924e-01   7.4820037e-01   6.7631549e-01  -2.1549529e-01  -7.1329738e-01   1.5804676e-01   1.7319737e-01  -5.7207532e-01   2.9489781e-01   3.1050748e-01   2.8723709e-01  -7.9174806e-01   3.7571523e-01   6.4385747e-01  -1.8709881e-01   5.8403182e-02   9.8842576e-02   2.7012018e-01   5.5972411e-01  -9.5502269e-01   1.9904308e-01   7.6090784e-01  -4.1663343e-01  -1.6811698e-01   2.9178262e-01   5.3579899e-01  -9.4950121e-01   5.0213459e-01  -5.0872995e-01  -3.8745055e-01   1.9789390e-01   8.0296759e-01  -6.3870638e-01  -2.9867657e-01   1.7450480e-02   3.3847690e-01  -1.5647436e-01   7.9557533e-01  -8.2901873e-01   3.8697813e-02  -8.8609523e-01   2.2646649e-01   4.6317613e-01   9.0418031e-01   3.8347834e-01  -5.0653352e-01  -4.2695994e-01  -5.4306805e-01  -8.0626746e-01  -7.2647267e-02  -5.2091872e-01  -1.6266291e-01   2.9692713e-01   5.7631312e-01   3.7661936e-01  -1.0926666e-03   8.7843326e-01  -7.0430610e-01  -9.4814561e-01   7.4699454e-01  -3.4829997e-01   2.3246608e-01   7.7170704e-01   6.9673054e-01   2.9685200e-01  -1.5850511e-01   9.9305892e-01   4.6723512e-01  -6.1646039e-01  -7.4869290e-01   3.7410926e-01  -8.5663310e-01   7.2651170e-01   9.0033871e-01  -1.2202649e-01   8.5882177e-01   3.9382297e-01   8.5052193e-01   3.3911453e-01   2.2854209e-01   7.2452147e-01  -4.9684380e-01  -1.0347656e-01   5.8921107e-01  -8.3502041e-01  -4.8452938e-01   4.2019948e-01   6.2331763e-01  -3.3857585e-01  -7.4488229e-01   7.4730044e-03  -3.1270174e-01  -5.2977072e-01  -4.3867399e-01  -7.5786113e-01   5.5393176e-01  -9.1336305e-01  -8.0461730e-01   5.3959781e-01  -6.3000685e-01   2.3082371e-01   5.9458881e-01  -5.2295721e-01  -7.9419769e-01   2.6283600e-01   2.7486137e-01   8.7308935e-01  -3.2498927e-01  -1.2436388e-01  -8.0778920e-01  -8.2335572e-01   6.4793194e-01  -5.0738822e-01   7.0297206e-01   4.2683715e-01  -1.0169124e-01  -3.7791475e-02   6.4010239e-01   6.7510435e-02  -9.0306521e-01  -3.0505638e-01  -6.8420889e-01   2.4367266e-01  -1.6871530e-01  -8.9149733e-01   4.5147187e-02   6.7614251e-02  -3.0293202e-01  -4.6796974e-01   1.8278448e-01  -5.1596000e-01  -4.0870760e-01  -9.7951869e-01   1.0633068e-01  -4.7457255e-01  -4.0597608e-02   2.6124794e-01  -1.1440197e-02   6.4978252e-01  -4.7320827e-01  -5.0587347e-01  -7.3257438e-01  -3.5302580e-01   8.8034122e-01   1.8273631e-02   8.7361183e-01  -1.0017187e-01   3.3143889e-01  -5.5793075e-01  -6.1238158e-01  -8.3118786e-01   4.0929312e-01   1.0937515e-01   6.0076966e-01  -7.2588420e-01   4.0515724e-01   7.9205106e-02   8.9448575e-01  -6.6441966e-01  -6.3233398e-01  -3.4392318e-01   4.8302990e-01   5.8165737e-01  -7.9356632e-01   6.5630415e-01   7.3857853e-01   2.7838503e-01   3.0688187e-02   3.1020173e-02   2.9852479e-01  -1.7503755e-01  -7.5066136e-01  -8.2149628e-02   7.5294334e-01  -4.8411306e-01   8.9089186e-01  -4.5243672e-01  -5.0421596e-01   8.2090474e-01  -3.7255777e-01  -7.1880330e-01   2.1231068e-01  -5.1287241e-01  -1.8760019e-01   2.6674674e-01   5.2077732e-01  -1.2091573e-01  -9.1182814e-01   9.4568531e-01  -9.7813156e-01  -1.6853665e-01  -6.3978033e-01  -9.5050878e-01   4.7668621e-01   3.4678362e-01   6.3415426e-01  -7.9944887e-01  -2.5109979e-01   8.5618164e-01   1.8192052e-01   8.0734713e-02  -8.4412808e-01  -5.9598053e-01   6.8048957e-01   1.0937090e-01   5.0216908e-01  -1.0896559e-01  -9.2195340e-01   4.4184273e-01   9.5051580e-01   9.6642890e-01   4.1364524e-01  -9.6124461e-01  -4.1338944e-01  -9.7343561e-01  -5.2261963e-01   7.6998725e-01  -5.2105683e-01  -1.1679691e-01  -1.1663347e-01  -9.3173738e-01   9.7885048e-01  -7.2470063e-01  -5.8176929e-03  -9.8601100e-02   3.4418661e-01  -9.2728218e-01   4.6431678e-01  -2.0330094e-01  -5.7709899e-01   9.5331616e-01  -8.6250186e-01   3.1324072e-02  -6.6518353e-01  -3.8629138e-01   3.9419926e-01   8.7650757e-01  -2.4645264e-01  -9.1300885e-01   6.4887186e-01  -5.9810923e-01  -2.6802339e-01   8.2216112e-01  -5.4965877e-01   6.3259579e-01   4.1841994e-01   4.3457822e-01  -2.5369356e-01  -1.0830460e-01  -5.7568153e-01   1.8818059e-02  -5.9018683e-01   5.5660594e-01  -6.3329244e-01  -5.5605553e-01   3.9366817e-01   1.1644066e-01  -3.0818764e-01  -7.3107200e-01   7.8621122e-02  -3.1582103e-01  -1.2832171e-01  -6.8937666e-01   9.9344750e-01  -5.7915236e-01   5.2048340e-01  -6.6043551e-01   4.7101769e-01  -5.0286699e-01  -8.0460526e-01  -8.0057581e-02  -1.3068144e-01  -3.0808505e-01  -1.7534107e-01  -2.0055229e-01   9.7151976e-01  -7.2643658e-01   1.8619377e-01   2.2949607e-01   9.1344911e-01  -2.1737611e-02   8.2533416e-02   8.9920218e-01  -3.3480411e-01  -7.4158687e-01   7.3449002e-01  -8.9355115e-03   7.2847037e-01   6.1259804e-01  -6.9634403e-01  -1.1346103e-01   2.6993334e-01  -8.1892115e-01  -2.8704743e-01  -9.4038275e-02  -6.1767189e-01   8.0784850e-01   4.4296502e-02  -7.8855017e-01   1.4644841e-01   2.8272639e-01  -6.0812131e-01   8.9978832e-01   8.0767255e-01   6.4192991e-01  -8.8621021e-01  -5.5066888e-01   2.6378295e-01   6.2493714e-01  -9.8242832e-01  -8.4171587e-01  -3.2726583e-01  -1.4044991e-01  -6.2995295e-01  -1.3803047e-01   3.6744144e-01   5.7812081e-01  -8.9648319e-01   2.7142810e-01  -1.9130020e-01   6.3808328e-02  -1.2026861e-01  -3.7577699e-01  -7.0699238e-01   9.3940592e-01  -5.8755637e-01   7.2001482e-01   2.3334104e-01  -3.7962155e-01  -3.1218373e-01  -4.2826376e-01   3.5903675e-01   3.2270789e-01   9.3720954e-02  -8.0494994e-01   8.5865926e-01   3.9153021e-01   8.1214708e-02   9.1663805e-01   2.8564482e-01   3.5797307e-02   8.2428103e-01  -3.0978285e-01   7.3744256e-01   4.3631800e-02   5.4436034e-01   8.2025519e-01   4.4233261e-01   5.9736742e-01   7.8067184e-01  -2.2350792e-01  -4.0291140e-01  -9.7261777e-01  -1.6008253e-01  -2.7329556e-01  -2.9731844e-01   1.6801607e-01   5.8000199e-01  -6.3751499e-01   9.8336776e-01  -9.9997840e-02  -4.7068894e-01   8.9978885e-01  -1.7953535e-01  -6.5710580e-01  -7.0596368e-01  -3.1437981e-02   5.4318083e-01  -6.2685750e-02   5.0397899e-01   6.0976273e-01  -5.1905076e-01   4.9943926e-02   8.9591273e-01  -4.8742360e-02   5.7323978e-01  -5.6274566e-02  -5.5080161e-01  -2.3464713e-01  -8.9953952e-01  -6.1175806e-01  -3.1638798e-01  -4.6913774e-01  -3.5340792e-01  -9.0906188e-01   9.1069142e-01  -2.8543622e-01   2.0552327e-01  -7.1562355e-01  -9.7765366e-02   7.3016323e-01  -9.9632886e-01   7.8489980e-01  -7.4488422e-01  -6.6515032e-01  -8.7018039e-01   2.1482876e-01  -9.0041198e-02  -9.1740370e-02   5.0284540e-01   2.8323364e-01  -2.9211957e-02   1.5730935e-01  -2.5551218e-01   7.1820973e-01   6.3484423e-01   7.8337296e-01   4.9788588e-02  -9.5052101e-02   9.5361962e-01  -7.4356669e-01  -5.7000117e-01  -4.9880778e-01   7.7629856e-02   8.0760888e-01   2.4205322e-01  -8.9817916e-01   7.2075834e-01   7.7447598e-01   9.0202057e-01  -4.8223686e-01   6.6954951e-01   9.4449624e-01  -9.8953154e-01  -2.2631553e-01   9.2260842e-01  -8.1574430e-01  -1.8637838e-02  -2.0876263e-01   7.6268764e-01  -7.9147657e-01  -2.1876499e-01   1.8352597e-01  -2.1921922e-01   7.8658196e-01   2.4288061e-01  -9.7948911e-01  -3.8741193e-02   5.2779337e-01  -8.8499784e-01   1.8323491e-01   8.3199580e-01  -4.5672629e-01   9.7645101e-02   5.2291485e-01  -8.5593385e-01   5.4063557e-01  -5.9151750e-01   4.4487576e-01   7.7348824e-01  -4.5185384e-02   5.1679695e-01  -8.6887811e-01   9.2137894e-01  -4.3588321e-02  -5.5623761e-01   4.4959293e-01  -7.3135696e-01  -3.0872475e-01  -8.6454034e-01  -2.4165426e-04  -1.9233188e-01  -5.2425018e-01  -8.7339553e-01  -9.6113684e-01   1.9712793e-01  -5.4304648e-01  -6.8161137e-01  -3.5127924e-01   8.1319154e-01  -2.1328823e-01   8.3211125e-01   4.9878020e-01   9.6807917e-01   9.7794188e-01  -2.4628873e-01  -7.9125012e-01   7.0140356e-02  -8.9295156e-04   1.1914010e-01  -9.8215365e-02   9.7336178e-01  -1.4498140e-01  -5.5846870e-01   2.9847575e-01  -2.2283147e-01   9.2124315e-01  -6.0056746e-01  -9.3137975e-01  -6.8545327e-01  -1.7981015e-01  -9.2571450e-01  -6.5523509e-01  -5.4988857e-01  -8.0889791e-01  -6.0400416e-01   7.7472312e-01   4.5797676e-01  -2.4764668e-01   2.4003649e-01   6.8464059e-01   1.6796068e-01  -4.8976027e-01   9.4874485e-01  -5.5886329e-01  -8.8488551e-02   2.6150923e-01  -5.5121389e-01  -1.5245583e-01   9.8558909e-01   8.0754902e-01  -2.5642757e-01   3.7033451e-01  -5.8705440e-01  -1.9396417e-02  -5.6266283e-01   5.3224530e-01   2.4206209e-03   5.7925581e-01  -9.6824426e-01  -7.8961933e-01  -4.5421877e-01   9.0534372e-01   1.5921751e-01   6.7087967e-01   6.0060536e-01  -5.7495959e-01  -9.9141672e-01   7.0687577e-01   8.7056782e-01   3.6555062e-01   5.3829639e-01  -6.8547040e-01   7.0246750e-01  -1.0776214e-01  -9.9159411e-01  -6.1581593e-01  -4.4842296e-01  -9.4329750e-01   9.8405953e-01  -3.0943063e-01   6.2487703e-01   2.7572434e-01   2.9194629e-01   4.5077795e-02   2.9499197e-01  -5.8186949e-01  -7.3287980e-01  -2.5657498e-01   1.9000465e-01  -8.3180640e-01   7.8605375e-02  -8.4072534e-01  -1.3730903e-01  -7.5620906e-01  -1.8940381e-01  -2.0726778e-01  -2.2363035e-01  -3.0525557e-01  -3.4331461e-01  -8.7716387e-01  -1.9479586e-01  -3.7487108e-01   3.4713817e-01  -1.3517511e-01  -4.1093395e-01   1.1234416e-01   6.4817811e-01  -8.8741691e-01  -4.5995481e-01   6.0996915e-01   3.7024423e-01   3.6227568e-01  -5.5485895e-01  -4.5972265e-01  -4.5645816e-01  -4.6119721e-01  -3.2479056e-01   3.5665634e-01   3.8518020e-01   3.3223417e-01   4.8313706e-01   7.1825926e-02   4.2481394e-01   1.3017476e-02   1.2009521e-01  -6.4205545e-02  -6.2762368e-02  -5.3539113e-01   7.3915639e-01   2.0548967e-01   1.2996729e-01  -7.0700133e-01  -8.9725807e-01   4.6348734e-01   3.3167733e-01  -6.5794348e-01   5.7352175e-01  -8.2427710e-01  -7.3917012e-01  -6.2715432e-01  -4.1917011e-01  -7.1990883e-01   4.2671846e-01   8.5391045e-01   8.0395530e-01   3.6071068e-01   2.2452290e-01   1.2655013e-01   9.0005670e-01  -6.1781913e-01   9.5176490e-01  -6.4291656e-01  -7.4553128e-03  -6.0038727e-01   1.7333448e-01
  -2.2214319e-01   5.5071304e-01   2.3493568e-01  -5.9419497e-01   7.4021306e-01   4.9808470e-01   4.0620431e-01   4.0212787e-01   9.6873918e-01  -1.9377224e-01   5.5940910e-01  -9.6905464e-01   2.4022779e-01  -1.3773416e-01   4.8528962e-01   3.0280805e-02   4.5656164e-01   8.8833549e-01   8.0357016e-01  -9.9536923e-01   5.0876513e-01   1.8279497e-01   6.8720337e-01  -3.5028018e-01   4.3638769e-01   5.2935669e-02   4.6907406e-01   3.6278352e-02  -7.1729104e-01   4.0962755e-02  -2.6729190e-01   3.3647440e-01   8.0135792e-01   1.1861276e-03  -5.4440881e-01  -1.6513261e-01   8.4765871e-01  -8.8953113e-02   6.8485987e-01  -7.7639668e-01   4.8582219e-01   8.7273778e-01   2.8831011e-01   3.3159958e-01   4.9853052e-02   2.9419302e-01  -1.3154646e-01  -5.1401364e-01  -6.9172680e-01   4.9334907e-01  -4.9001687e-01  -6.5853380e-01   9.3293084e-01  -2.9291137e-01  -3.6611492e-01   3.1869532e-01  -4.3348791e-01  -1.3855884e-01   2.5427797e-01  -7.9641610e-01  -5.2142791e-01  -9.3068235e-03   5.2343825e-02  -3.7065331e-01  -2.5102488e-01   7.7381106e-01   9.8214632e-01   2.8624979e-01  -8.6572119e-01  -5.7359536e-01  -7.1877797e-01  -6.6733600e-01  -2.0114003e-02  -4.7352135e-01  -5.8626753e-02  -2.0724537e-01  -7.6430480e-01  -7.3622587e-01   1.2987840e-01  -6.4597012e-01   9.0450060e-01   5.9666447e-01  -9.1218794e-02  -2.0808474e-01  -5.5013493e-01   2.9335549e-01  -3.4660171e-01   5.6888190e-02   1.0440780e-01  -2.2163622e-01  -3.6462880e-01  -2.1703803e-01  -5.6733933e-01   8.6607448e-02  -6.2877709e-01   2.8741690e-01  -5.6654191e-02   5.8616438e-01   8.0400712e-01  -8.6937501e-01   6.6769334e-01   4.4375156e-01   5.2567637e-01   8.2792291e-01  -5.5889936e-01  -1.9482616e-01   4.6700500e-01   7.9413219e-01   9.3738903e-01  -3.2627388e-01   4.8520213e-01  -3.1355233e-01   4.9596628e-01  -4.7147613e-01  -6.0351413e-01  -8.2544735e-01  -1.4160984e-01   2.8267400e-01  -4.7348838e-01   6.1305358e-01   8.7203954e-01  -7.3976481e-01  -3.3532609e-01   7.9765784e-01  -8.1561040e-01  -4.7528006e-01  -5.9299035e-01   5.4014301e-01  -1.6223172e-01   8.8175723e-01   9.5264960e-01   6.1073510e-01  -3.2016359e-01  -4.9246018e-01   1.2709693e-01  -5.0196074e-01   3.2118409e-01   9.9732334e-01  -7.0652954e-01   5.1423580e-01   1.4255725e-01   1.8299321e-01   3.1751668e-01   3.5520780e-01   6.8598811e-01  -7.2740165e-02   3.9995715e-01  -5.1838889e-01  -7.2943866e-01  -5.7081870e-01   7.8046500e-01  -3.2729248e-01  -8.7253063e-01  -8.7547355e-01   3.3781138e-01  -2.5805733e-01   3.0530512e-01   2.7640531e-01  -4.7722532e-01   6.0978222e-02  -8.3613307e-01   1.3827351e-01  -3.4382416e-01   2.6969420e-01   5.0490671e-01  -3.2959096e-01   9.5147087e-01   7.2232072e-01  -6.7498197e-01  -4.9318634e-01   9.7137223e-01  -1.5969336e-01   4.0209087e-01  -6.6793051e-01  -7.7982419e-01   6.5312820e-01  -6.6698980e-01   1.8115141e-01   5.5245488e-01  -3.4296392e-01  -5.4670760e-01  -5.7594585e-02  -8.3237043e-01   2.0253337e-01   3.6332532e-01   7.6883570e-01   5.9899859e-01  -4.6634254e-01  -3.4781643e-01   9.4026057e-01   1.5104384e-01  -8.6379665e-01   2.3454452e-02   7.2006334e-01  -3.0057644e-01   7.9731796e-01   3.5974884e-01   6.9889507e-01   7.5119581e-01  -7.3787228e-01  -9.2808984e-01   8.0325718e-01   2.5393473e-01  -7.1601638e-01  -1.1061133e-01   6.7407135e-01  -8.4026758e-01   2.7199964e-01  -4.4866052e-01   3.5091632e-03  -9.5156180e-01  -2.5612469e-01  -5.6928006e-01   4.4684162e-02   6.0326483e-01   2.2340339e-01   1.8192777e-01  -5.0540446e-01   1.9670740e-01  -9.0637287e-02  -2.5747373e-01   6.6937239e-01   9.0340915e-01   4.1278145e-01   4.3160580e-01  -9.4617738e-01   6.3576275e-01  -1.9735546e-01  -6.9768524e-01  -2.0358416e-01   9.2858007e-01   8.1769647e-01   7.5527247e-01  -3.9185660e-01  -2.8069425e-01  -4.5184566e-01  -6.6863132e-01   1.1412489e-01   2.6145412e-01  -6.6521953e-01   2.7237032e-01  -7.7704055e-02   5.4728906e-03  -3.0663427e-01   2.4152966e-01  -5.2988685e-01   3.0692047e-01   3.6952532e-01  -9.1040791e-01   7.0946665e-01   5.1135644e-01   3.0394442e-02  -2.6922805e-01  -4.5156430e-01   3.9957988e-01  -8.7753020e-02   9.6975157e-01  -5.2925391e-01   1.8690968e-01   5.8824320e-01  -6.1635346e-01   5.3211146e-01   1.3671282e-01   1.7637604e-01   1.4417343e-01   8.2310761e-01  -8.0403604e-01   3.7229158e-01  -8.4244311e-01  -6.9463988e-01   7.0001197e-01   4.3343267e-01  -7.5764429e-01  -4.7358846e-01   3.4940684e-01   4.5220518e-01   6.4958615e-01   5.8574422e-01  -4.7635347e-02   4.0557186e-01  -3.2830709e-01  -8.4053552e-02   6.4937876e-02  -1.4463041e-01  -4.7159139e-02  -6.2093315e-01  -2.6970651e-01   7.7305377e-01  -3.5573299e-01  -1.7205686e-01   6.1912827e-01  -8.0382106e-01  -8.0336571e-01  -4.1400089e-01   1.9688071e-01  -9.1548364e-01   3.0112158e-01  -6.9590359e-01  -4.6302218e-01   3.3845065e-01  -9.3965279e-01   5.3006829e-01  -1.4279548e-01   3.4937089e-01  -1.2072374e-01   3.8006167e-01   2.7763791e-01  -3.4158208e-02   1.1881541e-02  -6.2202328e-01  -3.9243127e-01  -2.7629045e-01   1.9249086e-01  -3.8924618e-01   6.4105924e-01   5.0317593e-01  -1.6593173e-01   4.1732513e-01  -7.5560644e-01   7.1603232e-01   1.0470059e-01  -2.0951617e-01   2.0592707e-01  -8.4340293e-01  -5.9045196e-01   5.0416166e-01  -5.0852662e-01  -4.8339743e-01  -1.8384972e-01  -2.0358493e-01   9.6494284e-01   7.2970544e-01   8.3898219e-01  -7.9664920e-01   5.0919825e-01  -4.1617338e-01   3.3696590e-01  -1.2002241e-02   8.4124774e-01  -5.9373151e-01  -2.5151288e-01  -9.0187104e-01   3.4031322e-02   8.5960661e-01  -5.0386902e-01   3.3078043e-01  -3.4646020e-01   8.6672503e-01  -8.7543130e-01  -6.0484035e-01  -2.5552198e-01   7.6701239e-01   5.3438559e-01   1.6542423e-01  -9.7128574e-01  -4.2282208e-01  -7.6303358e-01  -7.8626767e-01  -8.8100115e-01   2.4099630e-01  -4.4084780e-01   8.8075688e-01   9.0650278e-01   7.7510979e-02   7.7048414e-01   3.2355023e-01   5.8231761e-02   2.7470798e-02  -5.9138514e-02   2.3380893e-01   7.5187204e-01   5.0738421e-01   3.2877288e-01   2.5786271e-01  -4.3866791e-01   4.5376544e-01   3.4405145e-01   4.5247768e-01   5.1108899e-01   4.9291413e-01  -4.5385735e-01  -2.7565830e-02  -8.1032760e-01   3.9389018e-01  -5.4495983e-01   6.9067829e-01  -6.4313760e-01  -5.2538098e-01  -4.3742349e-01  -5.5693117e-02  -5.9783009e-01  -1.1168449e-01  -6.0721414e-01  -4.6683395e-01   6.5301724e-01   8.7150605e-01   6.7949419e-02  -2.2929876e-02  -8.6301890e-01  -6.4829304e-01  -4.3714869e-01   1.4000571e-01   2.9884441e-01  -7.0486773e-01  -3.1435711e-01   2.0637031e-01   9.7238518e-01   9.5841358e-01   7.3268425e-02  -4.1734743e-01   9.4842917e-01  -8.9896793e-01  -7.8967427e-01  -9.9232509e-01  -7.3225538e-01   5.2349298e-01  -7.6311828e-02   1.7107083e-01  -1.3093298e-01   5.0985905e-01  -8.1747903e-01   8.1702408e-01  -9.4261182e-01   4.6570036e-01  -4.1205135e-02   7.9915113e-01  -3.9014022e-01  -2.7957337e-01   7.9288112e-01   8.1551358e-01   1.5363593e-01   9.3822264e-01   9.5556338e-01   9.8627737e-01   2.9347128e-01   9.6586879e-01  -2.5100461e-01   5.3531026e-01   4.7898199e-02  -1.4839229e-02   1.7963656e-01  -4.3690162e-01   9.0704522e-01   2.0160653e-01   2.1730347e-01   2.3338303e-01  -1.6537898e-01   6.6672344e-01   3.9425977e-01   5.8062473e-01  -4.9905104e-01  -8.3330794e-02   8.2441361e-01  -6.7381995e-01  -8.6862655e-01  -7.6163684e-01   5.5320842e-01   7.8985927e-01   5.8639275e-01   4.3596419e-02  -2.1360283e-01  -2.0483634e-01  -6.7460296e-01  -8.2925438e-01  -4.6059057e-01  -6.8079154e-02   4.8869524e-01  -8.2884417e-01  -4.4683311e-01  -9.3067505e-01  -4.8610541e-01   8.9451423e-01   1.3739304e-01  -3.6126716e-01   1.8802539e-01   3.5542945e-01  -3.2162132e-01  -5.1764762e-01   4.8377253e-01  -3.8885872e-01   4.0951117e-01  -3.2501187e-01   6.4470045e-01  -3.5468309e-01   9.5244538e-01   6.1597233e-01  -2.9793018e-01   7.5115350e-01  -3.2621514e-01   6.0820808e-01   1.6568894e-02   7.9132485e-01   4.1153504e-01  -8.7430149e-01  -1.2336470e-01  -6.1213369e-01   1.4003907e-01  -4.2207247e-01  -7.6936257e-01   7.1390704e-01  -3.3326575e-01   4.4066791e-01   7.5601631e-01   6.8015843e-02  -8.8775438e-01   8.0918240e-01   4.0856358e-01   1.4759637e-01   4.6928345e-01  -7.9733700e-01  -3.1582087e-02  -4.0145155e-01  -6.4386942e-01  -4.6632632e-01   6.4124739e-01   6.7731030e-01   5.7784768e-02   6.6390134e-01   8.5485250e-01  -9.2586386e-01  -1.6579340e-01   7.4607359e-01   2.0756315e-01  -1.4806266e-02   2.0567056e-01   8.7393041e-01  -6.1673886e-01   5.7048894e-01  -1.3212493e-01  -1.7049420e-01   1.5217032e-01  -6.9436318e-01   9.2284525e-01  -5.3686028e-01   1.7352419e-01   4.5064745e-01   6.6224583e-01  -8.2052860e-01  -7.7376713e-01  -3.8282637e-01   6.6166723e-01  -3.4966357e-01   2.7039745e-01   6.2447708e-01   5.3781908e-02  -1.4377059e-01  -4.1035457e-01  -6.8919324e-01   3.6441521e-01  -2.8350770e-01   4.6718326e-01   6.8320880e-01  -6.3782902e-01  -2.8637988e-01  -9.0662208e-01  -6.3405635e-01  -5.0386416e-01   8.1601148e-01   3.4488898e-01  -1.3803227e-01   9.6277762e-01  -2.5531813e-01   2.6276379e-01   8.9782596e-01  -5.6820059e-01   1.3808504e-01   1.1201126e-01  -3.5386421e-02   1.3954306e-01  -9.7678839e-01  -9.1019339e-01   4.4317836e-01  -7.7101439e-01  -4.0828588e-01  -1.6130386e-01   4.3484257e-01   5.7352603e-01  -1.7322785e-01   8.7154458e-01  -2.1150433e-01   3.3540788e-01   3.3584439e-01  -8.4117189e-01  -4.1760809e-01   6.4677268e-01   9.2015136e-01   6.3560660e-01  -4.6066031e-01   4.8195985e-01  -8.2080883e-01  -7.1590011e-01  -8.5896373e-01   6.3805551e-02  -8.9698695e-01   8.1059576e-01   6.0968169e-01  -1.5110686e-01   1.5686763e-01  -9.2435383e-01  -8.2673590e-01  -6.6753166e-01   8.2090422e-01  -3.6879617e-01  -6.6510862e-01   9.5811650e-01   3.3986191e-01   2.4843373e-01   4.5261680e-02   4.0586851e-02  -1.8712284e-01  -9.5651572e-01   9.4013327e-01  -2.4275298e-01   2.4853176e-01   3.9981953e-01  -1.6571468e-02   8.9537857e-01  -1.7679498e-01   9.3049486e-01  -3.3304237e-01  -6.1173807e-01  -1.6811785e-01  -2.1437808e-01  -1.6703512e-01   5.9117008e-01   9.0508320e-01   6.1676108e-02   7.0921242e-01   8.4131303e-01   1.5274039e-01  -6.3864675e-01  -9.0023369e-01   1.4468029e-01  -3.0522248e-01  -7.3884069e-02   5.0792415e-01   2.8832189e-01  -1.6898041e-01   3.4843389e-01  -8.3968326e-01  -8.4094926e-01  -8.8541350e-01  -7.7639961e-01  -7.4750604e-01  -8.6775328e-01   4.0351614e-01  -3.7171493e-01  -2.4130957e-01  -5.6248207e-01   2.2179849e-01  -3.2026163e-01   1.4482694e-02  -2.1060696e-01  -2.6103851e-01  -9.0356061e-01   4.1286180e-01   6.0076094e-01   4.4938931e-01   6.2102646e-01   3.3772122e-01  -3.8341946e-01   7.3062475e-01  -1.3059933e-01   8.1179629e-01   9.7053811e-01   2.1640716e-01   1.7734082e-01   7.4951106e-03  -9.4214975e-01   9.2001198e-01   4.0046841e-02   6.9193952e-01  -3.5328581e-01  -3.0337935e-01  -1.7287097e-01   9.6436640e-02  -7.8708237e-01  -2.9725962e-02  -9.2456758e-01   7.5755497e-01   7.6998473e-01  -4.7096297e-01   7.5434655e-01   1.0203718e-01  -7.4025390e-01  -5.5151118e-01   8.4897027e-01   8.2633584e-01  -7.8594882e-01   6.2576085e-02  -4.1935901e-01  -9.2905391e-01   2.9533250e-01  -9.7124850e-01   7.2054536e-01   3.7269326e-01   8.9975628e-01   9.9499716e-01   1.6764912e-01   3.5874184e-01  -1.5225952e-01   8.0669558e-01   6.8928279e-01   2.7703306e-01  -4.4371959e-01  -3.2902203e-01   8.1587785e-01  -4.3549808e-01   7.7295948e-01   1.3282346e-01   6.8474732e-01   3.5013344e-01   7.2862755e-01  -4.7017996e-01   7.9577959e-01  -1.0721209e-01   2.0976876e-01  -2.2205991e-01   8.3465122e-01   7.4408883e-02  -6.5304251e-01  -8.9952256e-01   5.5585089e-01  -8.1715507e-01  -9.4698702e-01   1.0141736e-01   4.4848885e-03  -8.4983726e-01  -5.5636616e-01   4.6337960e-01   1.9080442e-01  -7.0224775e-02  -5.9842770e-01  -2.7759407e-01  -6.3024740e-01  -1.8474639e-01  -2.9003175e-01  -6.9130477e-01   5.4347600e-01   2.2239707e-01   1.3925604e-01  -9.7086959e-01   6.6341677e-01   1.0968082e-01  -4.1032785e-02  -6.1896059e-01  -1.2935579e-01   6.4503446e-01   8.5973801e-01   6.4712541e-01  -7.1454654e-01  -6.3089458e-01   5.3214667e-01   7.0945398e-02  -1.7559598e-01  -4.0324024e-01   8.5053317e-01   3.5078421e-01   3.7809728e-01   6.4621644e-01   8.9193058e-01   4.7198156e-01   4.3922123e-01   5.9002849e-01  -7.7636373e-01   3.8105605e-01  -9.4734336e-01   5.4256887e-01  -5.9635137e-02   6.2743074e-01   6.6675118e-01  -7.6704929e-01   9.4703098e-01  -5.2118133e-01  -6.1960758e-01   6.3222113e-01  -8.0529835e-01  -8.4973774e-01   8.9721895e-01  -3.2222968e-01  -6.4818975e-01  -4.8605273e-01   7.3424319e-01  -5.9166698e-01   7.1580849e-01   8.7528678e-01   7.9279498e-01  -8.7579490e-01   9.4325388e-01   2.9137302e-01  -3.3297814e-01   3.9200439e-01   2.0721485e-01   2.8267419e-01   2.9419635e-01   1.1855955e-01   3.9222612e-02  -2.3719678e-01   8.6902212e-01   9.5963365e-01   4.6381202e-01  -4.3168808e-01   2.6890223e-01  -3.2172684e-01  -3.1470620e-01   5.2799810e-01   2.5872294e-01   2.9336254e-01  -9.4948838e-01  -4.6934238e-01  -4.9057818e-01   5.6330806e-01  -4.5470370e-01   4.9827207e-01  -4.5834614e-01   4.2942635e-02  -2.9737958e-01   5.7124041e-01   6.3895254e-01   1.6690328e-01  -7.3608679e-01   9.4324585e-01   7.2851862e-01  -7.1992189e-01   9.3626784e-01   1.9949295e-01  -9.8196678e-01  -6.3279890e-01   3.0172954e-01  -1.6514293e-01  -1.3815269e-01  -5.1116637e-01  -2.4364164e-01   3.4947252e-01  -1.0687789e-01  -3.3457550e-01   9.1885583e-01  -7.0458145e-01  -1.6668197e-01   8.6385244e-01  -3.5766425e-01   8.8854318e-01  -9.6408411e-01  -7.2809535e-01   5.7619871e-01  -7.1621032e-01  -8.5408937e-01   9.0239158e-01   4.6895337e-01   3.0470812e-01   1.4579625e-01  -2.1902422e-01   2.7321265e-02   2.8272168e-01   2.3723348e-01  -7.2007791e-01  -7.1391295e-01   7.2595195e-01   6.6777640e-01   5.3619226e-01  -9.4508632e-01   4.4586773e-02  -4.2323694e-01   6.8169256e-01  -1.5449575e-01  -8.8224623e-01   6.5482235e-01  -6.8966286e-01  -2.9865973e-02   3.7590307e-01   6.0468740e-02   5.9119685e-01   4.0282574e-01  -4.4858614e-01  -5.5850466e-01   1.7467748e-01  -7.6227829e-01  -2.2326816e-01  -8.6850086e-01   5.8848208e-01  -9.7621825e-01   8.2018473e-01  -5.6669027e-01   1.0681227e-02  -7.8375377e-01  -8.3926549e-01   8.2515562e-01   5.4107753e-01  -8.2947163e-01  -5.5479820e-01  -7.2634803e-01  -8.7044603e-01  -3.1243194e-01  -7.4089160e-01   7.8622649e-01   5.0817248e-01  -8.3388649e-01   6.4769391e-01   5.9475651e-01  -9.1520905e-01  -3.0401766e-01  -9.7214626e-01  -4.9923068e-01  -7.7250510e-01  -9.3577356e-01  -2.8598016e-01   4.7267902e-01   4.2616219e-02  -2.0941155e-01   8.0624898e-01  -1.4403063e-01   8.8715657e-01  -1.3077817e-01   8.0386379e-01   1.9017502e-01  -2.8207793e-01   6.4567917e-02   2.3376375e-01   1.8276110e-02  -2.1708627e-01  -7.2242846e-01   4.0500114e-01   5.3292491e-01  -3.6545967e-01  -1.7940073e-01   2.1207372e-01   3.6297958e-01   2.5717266e-01   1.1369693e-02   9.5150045e-01   7.6792514e-02   6.5919827e-01  -2.2796276e-01   7.9073055e-03  -2.4350453e-01  -9.7737702e-01   2.8009624e-01  -6.0505733e-01   2.4051524e-01  -3.3306189e-01  -1.3220869e-01  -7.4686761e-01  -5.0974878e-01  -1.7936059e-01   6.5974188e-01   1.2822479e-01  -7.7354878e-01   4.3843859e-01  -1.8687243e-01   1.2835773e-01   8.6208442e-01  -8.1126558e-01  -9.6057661e-01   8.1587154e-01  -5.7004387e-01   9.9008890e-01   4.3091847e-01  -7.6549060e-01   4.0536676e-01   7.7366544e-01  -8.0261469e-01  -4.3691389e-01   5.1586186e-01  -6.6341756e-01   2.2236482e-01   9.7104467e-01   2.5517260e-01  -1.5024278e-01  -8.2276076e-01   6.6142725e-01   2.3688211e-01   4.9726933e-01   2.1519362e-01   6.0746476e-01   5.2181141e-02   5.4709905e-01   1.9109060e-01  -4.1971705e-01   4.6628191e-01  -3.2888536e-01  -8.1913376e-01   8.6400201e-02   5.6644590e-01   5.8968845e-02   5.2405989e-01   3.0869857e-02   8.5106944e-01   2.5818419e-01  -7.0345542e-01   4.9608193e-01  -9.0268322e-01  -3.9132326e-03   9.0610283e-01   7.8775366e-01   8.3410865e-01  -5.1483858e-02  -5.2018950e-01  -1.3597303e-02   2.9443583e-01   2.4603824e-01
