  -7.7990862e-01  -8.1408393e-01  -7.5848934e-01   7.5168627e-01  -5.2999050e-01   2.7001716e-01   2.8023138e-01   6.0071792e-01  -5.8885777e-03   5.5552344e-01  -6.9902859e-01  -6.0251225e-01   6.3436516e-01   7.2399625e-01  -5.1696615e-01   4.1090697e-01  -5.2961199e-01  -5.9418698e-02  -3.8121095e-01   7.9351124e-01   7.0970493e-01  -4.6145866e-01   2.8585152e-01  -1.8138108e-01  -8.5635724e-01  -6.6240642e-01  -2.3680354e-01   7.5309219e-01   3.9169813e-01  -9.5494624e-01  -8.1471173e-02  -7.2440502e-01  -6.4641157e-01  -4.3549237e-01  -2.2481907e-01  -3.1250485e-01   7.7770484e-01  -3.3025087e-01  -8.7792648e-01   6.1465879e-01  -8.5335927e-02  -8.8901711e-01  -5.7754424e-01   6.1172625e-01  -1.8273702e-01   2.5622606e-01  -7.4998357e-01   1.1006067e-01   9.4992077e-01   2.1167857e-01   3.7527939e-01   9.4897666e-01   9.0903969e-01   3.7942620e-01   9.2648965e-01   8.6587997e-01  -4.5013654e-01  -1.6087206e-02   9.5784713e-01   6.7917615e-01   1.6227886e-01   2.9464232e-01   5.5619350e-01   8.1577935e-02  -6.2872196e-01  -8.0819791e-01  -1.4495319e-01   3.9007397e-02   9.5426500e-01  -7.8132732e-02  -4.0120388e-01  -9.2076985e-02  -3.0573518e-01  -4.9255504e-01  -9.0238538e-01  -2.1723280e-02   7.7999520e-01   7.5692254e-01   9.5944809e-01  -5.3225766e-01  -8.4054346e-01   7.4175387e-01   2.5974497e-01  -9.3044483e-01  -9.5511641e-01  -9.4509503e-01   6.0826660e-01   6.1183225e-01  -3.4851399e-01   8.2683884e-01  -3.4646163e-01   9.5075998e-01  -4.0128243e-01   5.4660760e-01  -7.7162964e-02  -9.7691759e-01   8.5425421e-01  -8.9535171e-01  -4.2570601e-01  -1.1601519e-01  -2.1822461e-01  -8.1103291e-01  -7.9242279e-01  -3.7029481e-01  -7.2704048e-02   5.1860330e-01   8.3469761e-03  -5.1637684e-02   1.0698484e-01  -2.7821157e-01  -2.7977121e-01  -3.6940946e-01   5.7645725e-01  -6.5255939e-01   5.2331957e-01  -5.1401681e-01   1.1265785e-01   6.6344096e-01   6.1084647e-01   6.7846805e-01   5.9467177e-01   6.6292846e-01  -1.2264886e-01   7.8442566e-01  -3.0551144e-01  -1.2155163e-01   6.4777404e-01  -3.6952328e-01  -4.0016860e-01  -6.0566768e-01   8.4928080e-01  -2.7773235e-01   3.8041793e-01   5.4823509e-01  -1.9124393e-01   7.8980044e-01   2.2108077e-01  -6.8677322e-01  -8.7558871e-01  -2.1302765e-01   4.3938111e-01  -4.0277276e-01  -4.3694209e-01   2.0983616e-01   7.4464509e-01  -8.8471679e-01  -8.0298337e-01  -7.7021799e-03  -1.0874107e-01   8.1834419e-01   7.6591144e-01  -6.7013160e-01  -1.6451482e-01   7.7024865e-02  -7.7333412e-01  -8.4995557e-01  -3.5353249e-03   4.3407647e-01   1.8509959e-01   9.4856124e-01  -6.4671640e-01   5.5724489e-01   9.3287611e-01  -9.1485286e-01   9.4657519e-01  -3.7112970e-01  -5.8219192e-02  -5.1628894e-01   5.6310032e-01  -9.6039555e-01  -3.0366753e-01   6.8326407e-01  -3.1096102e-01  -1.1308134e-01  -8.9809252e-01   1.8810035e-03   9.2739198e-01  -9.4220126e-01  -5.3760839e-01  -5.8244093e-01  -9.8169754e-01  -4.3831117e-01   6.3747097e-01  -6.9365449e-02  -9.2314886e-01  -7.4447389e-01   2.4339286e-01   8.6753708e-01   2.9504761e-01  -9.0176036e-01  -3.4809160e-01   7.9143666e-01  -4.8801129e-01   5.6593688e-01   8.5741025e-03  -1.4222118e-01   3.2532267e-01  -4.7720810e-01   5.6349682e-01  -1.1580519e-01  -8.9085486e-01  -4.5816972e-01   4.6170655e-01  -6.6514443e-02  -3.9494742e-01   9.1869842e-01   3.7794302e-01   9.4555321e-01   3.2026044e-01   1.2193356e-01   2.2490639e-02  -5.4181166e-01   2.3404337e-01  -9.6155949e-01  -2.0658820e-01   9.1886789e-01  -7.5484546e-01   2.7608063e-01   7.7777758e-01  -9.6318809e-01  -5.1855374e-01  -1.8117822e-01   3.0891514e-01  -1.4788321e-01   6.4465807e-01  -6.8879593e-01   1.7145991e-01   2.5086722e-01  -6.8346800e-01   4.3842469e-01   8.4941278e-01  -9.1689780e-01   9.5353787e-01   7.4621247e-01  -9.2827871e-02  -9.4809771e-01   7.8657004e-01  -6.9420029e-02  -2.7986107e-01  -6.4673529e-01   6.6117548e-01   7.3011878e-01   4.4856709e-01   4.7208500e-01  -5.9368242e-01   9.8847983e-02   5.0160342e-01   4.6594534e-01  -8.9303383e-01  -4.9687221e-01   8.6286111e-01  -2.0863431e-01   8.9379991e-01   2.2645384e-01  -2.1483486e-01  -3.3104156e-01   4.4156947e-01   7.9571772e-01   2.4696080e-02  -7.0047333e-01  -2.1517851e-01  -1.6069675e-01   3.1263963e-02  -9.1545910e-02   4.4411694e-01  -2.9987835e-01   8.3021662e-01   7.8305264e-01   7.3931961e-01  -9.5583126e-01  -9.9874241e-01  -9.8363064e-01  -1.5498220e-01  -9.7429281e-01   1.1540965e-01   1.1803774e-01  -7.5458715e-01   4.2601866e-01   9.5990420e-01   9.0423941e-01  -4.8414393e-01  -7.1540573e-01   7.3376966e-01   9.7514317e-01  -4.8518902e-01  -7.5894850e-02  -2.6192995e-01   6.4466691e-01   9.4777512e-01   2.5668784e-01   7.0928581e-01   6.0081780e-02  -8.7630315e-01   7.7229037e-01  -9.1964268e-01   8.1449796e-02  -5.5650178e-01   4.5151034e-01  -6.1041005e-01   1.7563312e-01  -8.1086284e-01  -2.3524640e-01  -4.8368283e-01   2.5538710e-01  -2.4468512e-01  -9.7418054e-01  -6.0974934e-01  -7.6401538e-01   2.7216394e-01   8.9275360e-01   5.1761230e-01  -6.1825431e-01   9.3343987e-01   2.8240706e-01  -4.2436392e-01  -5.8527529e-01  -1.4112193e-01  -9.9747444e-01  -7.0657599e-01  -4.3460789e-01  -2.1242549e-01  -4.1783880e-01   8.0308083e-02   7.4205368e-01   6.6566817e-01   3.3019853e-01   9.8178944e-01   1.4813475e-01  -4.8831133e-01  -1.9655784e-01  -9.2017399e-01  -3.9191535e-01  -9.0705830e-01   2.3269781e-02  -9.1280824e-01   9.8295688e-01   1.1155097e-01   8.1251590e-02  -4.4607349e-01   2.6231622e-01  -1.4728834e-01   4.5063438e-01  -1.0673758e-01   2.5602118e-01  -3.4974346e-01  -3.9533060e-01   7.9350317e-01   9.0818899e-02  -5.3730713e-01  -1.7600455e-01   8.9184218e-01   1.1028060e-01  -4.0292208e-01  -2.2103509e-01   3.2971650e-01   6.7440000e-01  -1.6491792e-01  -9.0557136e-01   3.9716698e-01   7.0931791e-01   3.6640555e-01   9.5714886e-01   5.2842450e-01   6.4969287e-01   1.4093194e-01   5.8965643e-01   1.6855092e-01   4.2739474e-01  -5.4059135e-01  -1.9617876e-01  -4.6651063e-01   1.3432459e-01  -3.0496582e-01  -2.2522487e-01  -8.7675562e-01  -6.4502956e-01  -4.8097417e-01   7.1298007e-01  -2.5703783e-01   3.7599762e-01   3.0677231e-03  -1.1428870e-01  -6.3151232e-01   8.1983321e-01  -6.6549837e-01   3.9408675e-01   6.4327696e-02   9.7537077e-01   3.0947582e-01   1.1734270e-01  -4.5532740e-02  -1.0437645e-01   6.5448699e-01   1.4958335e-02  -6.3550549e-01  -7.7356791e-01  -1.8323743e-01  -3.2882651e-01   2.8986986e-01   6.4845193e-01  -1.4594329e-01  -7.2391373e-01   1.0142303e-01  -1.7720062e-01  -8.7819272e-01   7.9786318e-01   5.6895219e-01  -1.0613635e-01  -4.2794665e-01  -7.6363764e-02  -7.5813095e-03   4.0492854e-01  -1.6843227e-01  -5.4086947e-01   6.0764960e-01  -3.1164296e-02  -3.9052631e-01   7.0123561e-01   1.9715119e-01  -7.4601573e-01   9.8092645e-01   7.6572185e-01  -3.8134687e-01   4.3340639e-01  -5.5711674e-01   8.3410243e-01  -7.6446041e-01  -3.5538316e-01  -4.7028810e-01  -4.1065672e-01   5.3864567e-01   8.4609046e-01  -4.1558975e-01   2.2953370e-01  -3.4370504e-01   9.5827380e-01  -6.0324806e-01  -5.5286627e-01   7.2965351e-01  -8.6930421e-01  -1.3880389e-01  -6.1806314e-01  -2.1857992e-01  -6.6825371e-01   7.9692097e-01   3.3927675e-01   9.9570460e-01  -4.8471595e-01   4.0514272e-01  -3.7090150e-01  -5.7737651e-01  -1.2858350e-01   5.4400129e-01   4.0686787e-01  -9.5121668e-01  -4.4613549e-01   4.8956493e-01  -7.0561988e-01  -2.6904424e-01  -5.3336741e-01  -7.4716774e-01   1.7733604e-01  -1.2690463e-01   4.1703439e-01  -8.1294355e-01  -4.8153982e-01   7.3885831e-01   6.1681262e-01  -9.2476364e-01  -6.7271252e-01  -9.1509369e-01   9.4150057e-01   2.0065629e-01   1.1866573e-01   9.7841983e-01  -9.2133311e-01   5.9158265e-01   8.7765656e-01  -9.9691501e-01   3.7530594e-01   4.4533079e-01  -3.4766201e-01   5.4510313e-01   5.3096704e-01  -3.5534514e-01   4.9900033e-01  -3.8869885e-01   1.8126808e-01  -7.3351908e-01  -8.8808116e-01  -4.8781421e-01   8.1452491e-01   1.4272455e-01   8.5489101e-01  -5.6780880e-01   2.8270016e-01  -6.7634884e-01   2.4467269e-01   1.5869470e-01   7.4562125e-01  -4.1770287e-01  -9.0885960e-01  -5.3571334e-01   5.7974112e-01  -4.5115556e-01  -5.6361445e-01  -5.9614064e-01  -3.0448787e-01   9.2872014e-01   9.7142606e-01   5.2842897e-01   4.6014091e-01   5.6746781e-01  -9.5001252e-01  -9.9640182e-01   3.2937599e-02   2.3543092e-01  -4.1535860e-01   2.4162127e-01   7.6804752e-01  -1.1105037e-01  -8.2602010e-01   4.0502514e-02  -6.8260625e-01   2.8566926e-01  -2.8097527e-01   7.8983432e-01   3.9703280e-01  -4.8972690e-01   3.3725620e-01   4.9445458e-01   6.1321416e-01  -8.2071218e-01   4.5161075e-01   2.7594568e-01  -9.2136996e-01   9.2787253e-01  -6.1089054e-02   7.8100570e-01   9.1418253e-02  -9.7657281e-01  -8.5785757e-02  -5.6599405e-01   1.2684440e-01  -6.7099806e-01  -4.3468030e-01   4.0250576e-01   3.9554990e-01  -8.3515553e-01   1.8635717e-02   9.0554366e-01  -6.4662052e-01  -6.4652368e-01  -9.0708842e-04  -4.9601845e-01   4.6676817e-01  -5.8193987e-01  -2.8044316e-01  -9.7671854e-01   9.1019291e-01  -4.3966156e-02  -5.9028738e-01  -3.1449486e-01   4.8452761e-01   8.4729380e-01   1.3995437e-01  -3.7575238e-01   1.6358873e-01  -8.7373957e-03   4.4288236e-01  -3.4326419e-01   6.5343897e-02  -6.4523843e-01  -5.7311539e-01  -6.4596957e-01  -6.3820791e-02   3.6141294e-01  -9.2179900e-01  -8.4914485e-01  -1.7181446e-01  -8.3551670e-01  -6.4752248e-01  -4.2428670e-01  -6.7342557e-01  -3.0369020e-01   8.0569898e-01   9.1784572e-01   1.2017750e-01   2.5274748e-01  -1.4322439e-02   2.8475791e-02   7.2782515e-01   6.4068757e-01  -1.6843999e-01   7.8300113e-01  -1.3135232e-01   6.1855044e-03   7.2226671e-01   9.3126933e-01   5.7679443e-01  -7.0601667e-01   4.0072395e-02   2.1180440e-01  -4.7998691e-01  -3.9147353e-01  -4.2996423e-01  -6.0560618e-01  -8.0793061e-01   1.3062951e-02  -4.6343604e-01  -9.5043573e-01  -2.5399329e-01   8.8817033e-01   1.9392678e-01  -1.7587623e-01  -9.8616259e-01   4.9024084e-02  -1.9974825e-03  -1.9930848e-01   4.7265916e-01  -5.1720693e-01   4.8886608e-01   9.9911324e-01  -3.5773011e-02  -1.7262488e-01   8.3061216e-01   8.4640093e-01   4.7693096e-01   6.3404049e-02  -7.8631804e-02   7.2207619e-01  -6.7857619e-01  -1.1638431e-03   8.7402807e-02   2.4656589e-01   5.8669017e-01  -8.4847304e-01  -9.8816729e-01   8.5364223e-01   1.7375637e-01  -5.0445969e-01   8.9963504e-01  -5.2862256e-03  -7.3951776e-01  -5.1545376e-01  -7.6703994e-01  -2.6290496e-01  -8.8773036e-02   5.1812741e-01   4.9371628e-01  -4.7509127e-01   7.6263081e-01  -4.2026334e-02   4.0394510e-01  -3.3563177e-01  -2.7537714e-01   1.4518477e-01   5.3630787e-01   7.5725898e-01   2.2640162e-01   4.1623402e-01   4.6079683e-01  -1.1205404e-02   8.4989532e-01   3.4585083e-01   7.4254805e-01   4.0660487e-01  -2.2161847e-02  -4.3734720e-01  -3.8071249e-01   6.0509809e-01   5.6899240e-01   9.8912683e-01  -4.3549650e-02   6.9309266e-01   6.6835703e-01   9.0512293e-01   2.2536784e-01   5.5505985e-02   1.5130139e-01  -1.1651426e-01  -4.6172062e-01   4.9811095e-01  -9.3324623e-01  -2.0041367e-01  -8.8731163e-01  -7.8930414e-01  -5.1178700e-01  -8.7236072e-01  -4.9428422e-01   8.1388764e-01  -9.3787807e-01  -9.7814276e-01  -8.8383673e-01  -3.2205537e-01  -8.6562077e-01  -8.6917900e-01   6.9933465e-01   4.8667466e-01  -1.2754988e-02   7.9530731e-02  -5.2022538e-01  -7.3048706e-01   9.5377174e-01  -9.3637821e-01  -7.8478819e-01  -8.1210808e-01  -6.1691994e-01   7.4771584e-01  -5.8575431e-01  -5.3868095e-01   9.4668243e-01  -9.6862519e-01  -9.9655782e-01   3.4311375e-01  -1.0523143e-01  -7.4852784e-02  -5.4311900e-01  -9.7770661e-01  -3.7670186e-01   2.2554204e-01  -4.3918136e-01  -3.5934474e-01  -3.5171058e-03  -5.9299756e-01  -1.7850428e-01   8.4790651e-01  -9.7831246e-01  -1.4758230e-01   7.6040772e-01   1.1547639e-01   7.9841553e-01  -6.3382411e-01  -5.9420434e-02  -2.4501954e-01   3.2279368e-01   4.9990219e-01   8.9736219e-02   4.5071499e-01  -5.8616359e-02   5.3983246e-01   8.5070083e-02   4.9536152e-01   5.3068029e-02   1.4073286e-01   3.6094804e-01   4.1188449e-01   8.5406673e-01   5.0945804e-01   2.1505104e-01  -7.8400671e-01   9.2893801e-01   7.0604264e-01  -2.6801754e-01  -2.1635331e-01  -9.2191963e-01   9.4210161e-01  -2.0875703e-01   2.3524253e-01  -7.8494811e-01   4.0110292e-02  -1.1405936e-01   9.1195398e-01  -7.1248961e-01   5.2113091e-01  -2.9464030e-01  -3.6771597e-01   3.2086309e-01  -6.6875955e-01   8.8286935e-01   9.5884335e-01  -9.5761147e-01  -2.0475044e-01   3.1533554e-01  -3.7867739e-01  -3.8302881e-01   3.2748410e-01   6.5568275e-01  -5.7408823e-01   6.9679063e-01  -3.5554879e-01  -5.2895753e-01  -3.2924922e-01   7.2994167e-01   6.0535313e-01  -3.5903948e-01   4.9423383e-01  -6.6883279e-01  -4.3759738e-01  -2.3107942e-01   1.4611269e-01   8.7160372e-01   6.9988792e-01  -8.3529076e-01   2.9536911e-01  -6.1086007e-01  -9.7484960e-01  -3.0353110e-01  -6.5207686e-02  -9.4982400e-01   8.1200824e-01   9.3039927e-01  -4.7880348e-02  -1.3534236e-01   3.6320804e-01  -7.4341707e-02   6.0292896e-02  -1.9368113e-02   5.5178677e-01   4.9803659e-01  -8.2182102e-01  -4.9779415e-01   8.4085755e-01  -5.6854362e-02   1.2582075e-01  -4.1941722e-01   2.3947290e-01  -5.2501530e-01  -7.0857918e-01  -2.8704946e-01   8.0732132e-01   8.0596933e-01  -8.0358360e-01   6.6669238e-01  -4.7147775e-01   1.3848689e-01   6.5090976e-01   4.2403075e-01  -9.0664474e-01  -6.8921225e-01  -2.8105314e-01   8.9447841e-01  -6.9367433e-01  -1.5538631e-02   8.4296501e-01  -6.6645453e-01   4.9113440e-02   8.8747417e-01   8.5985887e-01  -1.5811886e-02  -8.8991942e-01  -3.9337396e-01  -1.5460723e-01  -7.4004187e-01  -6.0445821e-01   5.3970987e-02   3.5551850e-01   7.7161135e-01  -3.5819419e-01  -3.3211246e-01   5.5441429e-01   5.7876446e-01  -9.1729806e-01   2.0301898e-01   4.2934762e-01   5.4979237e-01   7.1261635e-01   3.2679287e-01   1.9613739e-01   7.5115195e-03  -7.6574805e-01  -2.6368126e-01  -3.2241321e-01  -3.8707965e-01  -1.8560244e-02   9.7884189e-01  -2.1910740e-01  -7.3936593e-01   7.7318671e-01  -3.9530354e-01   6.2715508e-01  -2.9315363e-01  -9.9042830e-01  -4.6988366e-01   3.4918427e-01   3.7547676e-01  -2.8907022e-01   1.1713739e-01  -9.2004991e-01  -5.0152766e-01  -1.3015488e-01   4.3853655e-01  -8.1567948e-01  -8.1967511e-01  -6.2697051e-01   7.9948487e-01   7.1100662e-01   4.7778056e-01  -4.1812973e-01   6.3307096e-01  -2.6344575e-01   1.9780131e-01   7.7781261e-01   5.5555778e-01  -3.2656214e-01   5.7738610e-01   7.0042386e-01   2.7793236e-01   6.2446553e-01  -9.2634368e-02   6.5964065e-01  -7.8170670e-01  -7.5602098e-01   6.5062905e-01   5.7207029e-01   8.1984167e-01  -1.7551213e-01   6.0490178e-01   2.3288284e-01   9.1553996e-01  -7.9540477e-01   7.2978793e-01   4.0899578e-01   7.9124420e-01  -1.2588548e-01   3.1377128e-01  -4.7339548e-01   2.3194410e-01  -9.1573600e-01   5.4375521e-01   7.2939310e-01  -4.7139995e-01   6.9767017e-02   9.4782881e-01   1.4975960e-01   4.3105498e-01   7.5276974e-01  -2.1218693e-01  -8.2282479e-01   5.5070128e-01   3.0553252e-01  -5.6000844e-01  -2.5172828e-01   6.1226432e-01  -5.9307101e-01   3.6992088e-01  -9.4921577e-01  -3.8911165e-01  -7.8387699e-01  -3.6737454e-01   4.4739694e-02   6.6683683e-01  -7.4853849e-01   6.9053206e-01   6.8640630e-01   6.8905340e-01   6.8592532e-01   2.9566338e-02  -4.7116274e-01   5.1609444e-01   1.2425798e-01   9.7180255e-01   1.7596798e-01   5.2309452e-01   4.1447119e-01   8.2958029e-01   4.3951746e-01   5.1805958e-01  -9.0232987e-01  -9.7251693e-01  -7.1688210e-01  -6.0088403e-01  -1.2112013e-01  -9.2924545e-01   7.7395521e-01  -6.4562662e-01   1.6996945e-01   6.8270980e-01   6.1665468e-01   6.8495844e-01   9.4710856e-01   1.2096510e-01   4.2472710e-02  -5.0264861e-01   3.2731799e-01  -5.8079702e-03   4.3797729e-01  -4.0562488e-01  -6.8871652e-01   8.2986702e-01   4.5205787e-02   8.3281773e-01  -7.5246438e-01  -2.5618214e-01   8.9987718e-01  -5.3270683e-01  -5.1747580e-01  -1.2194411e-01   1.0451204e-01   7.7972464e-01  -2.5095862e-01  -1.2610860e-01  -9.8610564e-01   6.4490413e-02  -7.8528439e-01   2.0659080e-01  -5.3241912e-01   2.6718626e-01  -2.9987039e-01  -2.7681182e-02
  -8.8136269e-01   9.3324064e-01   6.3085617e-01  -5.0660170e-01   2.6568873e-01   1.8179743e-01  -6.3024844e-01  -3.7885373e-01  -7.9346577e-01   9.9921372e-01   6.7078720e-01  -1.0547970e-01   3.4118007e-02  -8.3737234e-01   1.6879380e-02   4.7214733e-01  -5.4555845e-02  -5.2955754e-01   8.6571597e-01  -5.8662629e-01   6.1192681e-01  -1.2980890e-01  -3.6937637e-01   5.3469340e-01   8.4232963e-01  -7.9499049e-01   7.1135697e-01   4.7294764e-01  -9.5298339e-01   4.0466877e-01   1.9294866e-01   4.6716325e-01  -3.1471950e-01  -6.6153748e-01  -5.2335585e-01  -7.5249368e-01  -6.6484438e-01   1.4190290e-01   7.5241696e-01  -3.6146394e-01   1.0705712e-01  -8.8776497e-01   7.8640611e-01   5.8326874e-01   7.0904503e-01  -4.3520090e-02  -8.1074043e-01   9.7277407e-01  -7.2628165e-01  -5.6477957e-01   6.5844585e-01  -4.7024285e-01   4.8366562e-01  -4.4114114e-01   8.8368322e-01   8.4399351e-01  -6.7716855e-01  -2.7193293e-01   5.7961725e-01   8.6565570e-01  -8.9720423e-01   6.8727183e-01   5.4571903e-01   3.8396728e-01   3.2482982e-01  -8.0153128e-01  -7.4252632e-01   6.3004669e-01   3.5287600e-01  -2.3452068e-01   1.3805963e-01   8.0722297e-01  -3.0668606e-01  -2.0801011e-01   6.1200199e-01  -5.5718615e-01  -6.9379249e-01   4.2058613e-01   7.1645305e-01   5.9188787e-02  -6.4217611e-01  -7.8509320e-01   1.9428261e-01  -7.0028392e-02  -1.4355861e-04   1.5459993e-01   4.8700395e-01  -4.4392662e-02  -4.6538282e-01  -9.3673909e-01  -9.3858863e-01   6.7466082e-01   7.9053736e-01   4.3063074e-01   2.0616046e-01   7.6197016e-01  -5.0163400e-02   9.7613759e-01   9.4950493e-01  -6.1335837e-01   8.0802725e-01  -3.0450618e-01   2.6987808e-01  -9.8344994e-01   7.8620075e-01  -2.4390294e-01   8.8371753e-01  -7.3163043e-01   9.1872669e-01  -3.1062252e-01  -4.7375679e-01   8.4384582e-01  -5.8034957e-01   4.9908300e-01   7.2174414e-01  -2.4926089e-01   2.9537302e-01  -8.2766263e-01   9.6421758e-01  -5.9040896e-01  -7.8534328e-01  -8.2714484e-01  -8.9310937e-01  -1.3063083e-01   6.1876587e-03   3.2420780e-01   1.8654767e-01   1.6214613e-01   4.8151881e-01   2.8285078e-01   3.6487983e-01   8.9926716e-01   9.8642875e-01  -2.0191020e-01  -9.2552457e-01  -6.0133959e-01   9.8033605e-01  -4.4065032e-01   2.7540678e-01  -4.9400391e-01  -7.7461104e-01  -5.2728072e-01   1.3230063e-01   3.9571304e-01   9.9432312e-02  -4.2439383e-01   6.7541605e-01   9.1856987e-02   7.1897887e-01  -6.2858963e-01   9.2349184e-01  -6.9642492e-01   9.9993893e-02   5.1662854e-01   6.0680107e-01   9.2053675e-01  -4.7436897e-01  -3.7428672e-01   1.0098180e-01  -5.3291483e-01  -4.7830896e-01  -7.8539857e-01  -1.5163167e-01   5.3462577e-01  -3.3665857e-01  -6.1398180e-01   2.1033269e-02   7.1993873e-01   5.9854534e-01   8.1595686e-01   8.5942536e-01  -7.7075050e-01  -9.2285756e-01   1.3449949e-02  -5.6538278e-02  -3.5358935e-01   2.0647177e-01   1.6643983e-01  -4.7441639e-01   8.8056232e-01  -5.0425713e-01  -9.8387280e-01   3.3836546e-01  -1.1700672e-01  -6.7723779e-01   2.6916916e-01  -1.0191309e-01  -6.7124752e-01   3.8121786e-01  -3.9528921e-01   3.9349528e-01   1.9428268e-01  -8.5673464e-01   1.1214530e-01   3.6492027e-01  -5.8180861e-02  -1.1385573e-01  -3.8987555e-01  -7.6433920e-02  -8.3206796e-01   3.4005954e-01   2.6071061e-01  -2.1993860e-01  -1.1683983e-01  -8.5592204e-01  -3.4085750e-01  -3.7587690e-01  -6.8879358e-01  -4.7962743e-01  -8.9097872e-01   5.1891416e-01   5.8354293e-01  -7.5203553e-01   2.0355830e-01   6.1815273e-01  -5.9411206e-02  -6.2332411e-02   4.5372142e-01  -5.2744304e-01  -4.7171973e-01   5.4897359e-02   1.1588347e-01  -2.5132641e-01  -2.5738150e-01   3.9535650e-01   3.2483130e-01   9.6841172e-01  -7.8096739e-02   2.4397184e-01   8.8979794e-01  -2.2206270e-01  -9.6781567e-01   7.1797523e-01   6.8375370e-01  -9.1552937e-01  -7.3029050e-01   9.7842488e-01  -8.1935699e-01  -6.1447515e-01   4.4636195e-01   6.1716537e-01  -5.9593771e-01   5.9485854e-02   9.4709590e-01  -1.7997884e-01   5.7924009e-01  -4.9333093e-02  -6.2995138e-01   7.0836880e-01   9.3623411e-01   8.7426888e-01   5.5565482e-01  -7.6741977e-01  -9.0245130e-02  -2.4928102e-01  -5.8548719e-01   1.6751959e-01   9.2497872e-02  -1.6156083e-01  -7.7904086e-01  -9.6402562e-01  -7.3360976e-01  -5.3044204e-01  -7.4272126e-01   3.5482117e-01  -2.5752359e-01  -4.1861070e-01  -2.4609799e-01   8.6637532e-02  -4.8886790e-01  -3.3775683e-01   5.5306815e-02  -9.8219818e-01   1.0899513e-01  -8.4007316e-01  -3.4156324e-01  -1.5252964e-01   9.8934164e-01   2.7613511e-01  -5.3217581e-01   3.2098862e-01  -7.0127908e-01   5.2979939e-01  -9.3986054e-01   2.5807030e-01   4.8556151e-01  -8.8145664e-01   2.1074349e-01  -8.5213145e-01   8.5417530e-01   5.0665363e-01  -3.0509247e-01   7.5785837e-01  -4.6623576e-01  -4.4052025e-01   6.4206655e-02  -7.5702867e-01  -6.6395190e-01   2.5840862e-01   1.5426017e-02   6.2380598e-01   2.4185064e-01   2.6745616e-01   8.8369686e-02   3.0183228e-01  -3.2802899e-01  -8.0742388e-01   5.6044433e-02  -8.3404803e-01  -2.5481889e-01   3.2044637e-01   5.7522678e-01  -5.1199447e-03   2.5570638e-02  -9.8989016e-02   9.0550608e-01   9.3776456e-01   4.4566316e-01  -6.5884846e-01   6.8005257e-01  -7.4820662e-01   9.2535727e-01  -8.1933260e-01   7.6661592e-01  -5.2946860e-02  -5.5806546e-01  -9.6589702e-01  -9.2869175e-01   3.2073327e-01   7.5380100e-01   7.2058462e-01  -2.2454375e-01   4.7592019e-01   3.7158619e-02   9.0681443e-01   3.5929011e-01   4.2972129e-01  -9.4105494e-02   9.9604857e-01   7.0633835e-02  -6.4128980e-01  -3.0767084e-01   1.9827069e-01  -1.5897945e-01   8.4350868e-01   2.1227243e-01  -9.3197199e-01  -9.4931513e-02  -5.5335195e-01  -2.6694944e-01   8.8906946e-01   3.5298509e-01  -5.9337366e-01  -1.5540340e-01   5.8458025e-02  -3.7135814e-01  -4.9461822e-01  -2.2896323e-02   2.2347426e-01  -3.3927263e-01  -7.7427371e-01   8.0325403e-01  -5.7124890e-02  -8.7916468e-01   5.9247786e-01  -5.9012657e-01  -1.6803318e-01  -9.8018146e-01  -9.7768665e-01   5.4947846e-01   1.8149709e-01   7.1329232e-01   7.0133191e-01   8.1733925e-01   1.2735622e-01  -5.8557885e-02   4.0693799e-01  -4.8598714e-01  -3.2957652e-01   3.6206204e-01  -3.3732932e-01  -5.4620967e-01  -2.5346380e-01  -2.8556958e-02   1.6613274e-01   4.0869167e-01  -7.7639798e-01   8.8173738e-01  -7.4076227e-01  -2.9471787e-01  -6.9219649e-02  -1.2485577e-01   4.4717929e-02  -8.5324572e-01  -1.5149017e-01  -2.5614673e-01   6.8585443e-01  -5.3764654e-01   3.8984461e-01   3.9567193e-01  -5.4174725e-01   1.5607872e-01   6.5747486e-01  -9.7388342e-01   7.8367772e-01  -8.2919637e-01   1.6090264e-01   2.3533464e-01  -3.0310783e-01   8.0799195e-01  -6.6869257e-01  -5.7014168e-01   9.4232899e-01  -8.9474674e-01   9.5234159e-01  -7.0008064e-02  -5.5017236e-01   3.2442296e-01   6.6113081e-01   8.9555411e-01  -5.9188564e-01  -3.3685528e-01   9.0634031e-01  -8.5499644e-01   3.6375530e-01  -3.3996217e-01  -2.8415098e-01  -5.5676845e-01   9.4417592e-01  -5.9363025e-01  -6.8920246e-01   4.5220466e-01   5.4816166e-01  -5.0015184e-01   5.7116776e-01  -7.6193806e-01  -6.8574764e-02   4.5005536e-01   9.9244597e-01  -4.6524854e-01  -9.0779090e-01   2.9002934e-01   8.2397128e-02   1.2842835e-01   4.3682226e-01  -3.1924702e-01  -3.8271380e-01  -9.7021553e-01   7.7389969e-01   2.1986060e-01   4.1815038e-01  -6.3809731e-01   2.6435937e-01   4.2681422e-01  -6.2212064e-01   7.4075651e-01  -6.8342722e-01  -3.3995587e-01  -9.3194093e-01   5.5097441e-01  -7.5016115e-01  -5.1562307e-01  -5.8761757e-01  -6.4114823e-01  -1.0435144e-01   6.7455551e-01   4.2276728e-01   1.5700425e-01   6.8468453e-01   9.9294436e-01   1.8572744e-01   1.1709648e-01  -9.6823766e-01   5.7374323e-01   1.5096681e-01  -1.2511184e-01  -7.0599921e-01   3.3176036e-01   9.7294297e-01  -6.2401528e-01  -2.4821295e-01   1.4692565e-01   9.4172436e-01   1.8402510e-01   3.2437233e-02   6.0882430e-01  -3.0383991e-01   5.9552405e-01   9.4185888e-01   3.7135779e-01   3.5252558e-01  -7.6452545e-01  -5.5837925e-01  -3.6755734e-01   7.6324846e-01  -2.0894244e-01  -7.4677448e-01   6.0098641e-01   5.0957321e-01  -8.3476230e-01  -5.3975562e-01   9.0270855e-01   8.1009112e-01   1.8249123e-01  -8.8502285e-02  -8.3808898e-01  -5.5252955e-01  -7.5741254e-01  -6.1077161e-01  -9.3191278e-01   3.7689419e-01   4.4343691e-01   7.6747805e-02   7.6625583e-01  -7.0519818e-01   4.2050497e-01   7.9993280e-01  -2.6863230e-01  -9.8277630e-01  -5.5887463e-01  -2.3519488e-01   6.4832657e-01   8.0221954e-01  -3.1000879e-01  -6.6072703e-02   1.1859150e-01  -2.4850236e-01  -6.9938689e-01  -3.1395978e-01  -4.4194676e-01  -3.3384168e-01  -5.7944535e-02   9.1336143e-01   2.2386757e-01   7.5194497e-01   1.9085004e-01   1.9907637e-01   9.5981273e-01   5.7102829e-01  -7.5133798e-01  -8.4885446e-01   7.4030542e-02  -8.1219322e-01   1.2946570e-01  -2.5327445e-01   8.0669944e-01   3.9322388e-01   4.8499454e-01  -3.3662394e-01   3.2506466e-01  -6.7961742e-01  -9.0356941e-01  -6.9168041e-01  -5.6019874e-01  -7.2671349e-01  -2.6219782e-01  -6.4952656e-01   2.3911389e-01   8.2319523e-01   9.9138662e-01  -8.3901493e-01  -7.1976429e-01  -5.6996451e-02  -5.3698700e-03   7.1261485e-01  -7.3796710e-01   9.4355663e-01   4.0522229e-01  -9.5522282e-01   2.0035203e-01   6.5119782e-01   8.8208847e-01   2.9463062e-01   2.0241070e-01   3.2806578e-01  -2.8798069e-02  -4.2746610e-01   2.0236326e-01   6.1234428e-01   4.3621875e-01  -7.2871129e-01   2.8517467e-01  -7.4534820e-01  -4.0380298e-01   4.5036529e-01   9.3342079e-01  -8.3660243e-01  -8.2368588e-01   4.6471061e-01  -3.9486392e-01   8.1743658e-01   3.7726905e-01   1.1557729e-01  -6.5409648e-01   9.0059454e-01   7.3696696e-01   6.0537134e-01   7.4930046e-01   7.1633297e-01   2.5658153e-01  -8.9453041e-01   5.0645921e-01  -9.1464826e-01  -2.9182910e-01   1.1187529e-01   8.8044187e-01   6.0431236e-01  -4.6135409e-01   4.9201821e-01  -4.0588664e-01   7.9280460e-02   9.9938231e-01   7.0987578e-01  -4.2325093e-01  -6.6417227e-02  -1.8902846e-01  -4.6178500e-01   2.8633784e-01   8.3458304e-01   3.7321688e-01  -8.7951109e-01  -2.2269835e-01   4.1643116e-02  -8.7424815e-01   2.0819240e-01  -7.3254261e-01   7.6711944e-01  -1.0878790e-01  -9.0258736e-01  -6.7001540e-01  -2.5527950e-01  -6.0903988e-01  -9.2965961e-01   9.6972079e-01  -6.7229505e-01  -5.4109355e-01  -3.3300526e-01  -1.8969818e-01   4.6125515e-01   5.7125493e-02   3.3196906e-01  -7.6242153e-01  -6.2709480e-01  -4.5960095e-01  -2.8714252e-01  -8.8502271e-01  -5.3142594e-01   8.8920873e-01  -8.8198118e-01  -1.5006331e-01  -6.6266251e-01  -3.0876296e-01   9.3275576e-01   2.0280474e-01   5.7252291e-01   2.9388534e-01  -8.4744999e-01   8.4243132e-01   5.2397978e-01  -6.7221833e-02  -3.5485498e-01   4.2151533e-01  -8.7359002e-01   9.1072005e-01   5.5609955e-01  -5.9920235e-01   3.1850375e-02  -2.5802987e-01   2.5548901e-01  -4.1767613e-02   6.8661740e-01  -9.0419219e-01  -7.5318668e-01  -4.6228669e-01  -3.8984467e-01   9.5536373e-01  -8.6781907e-01   4.1432333e-01  -7.1504596e-01  -4.2160042e-01  -4.9379841e-01   1.2363040e-01   9.1412182e-01  -8.0966874e-02   1.8878452e-01   3.0357360e-01  -6.2544512e-01   3.4904630e-01   1.5401046e-01   2.4574013e-01   1.0211285e-01   7.9274416e-01   8.8092854e-01  -8.7667203e-01   5.1517668e-04   6.1093525e-01  -7.5797098e-01  -5.1986483e-01   2.3595775e-01  -3.2540675e-01  -9.6227634e-01   8.6209362e-01  -9.1579065e-01   4.7153917e-01  -8.6068780e-01   3.8031745e-01   1.8416342e-02   3.6137998e-03   4.8514400e-02  -9.4647220e-02   2.2193603e-01  -2.5624161e-01  -2.5555057e-01   4.8752997e-01  -5.3889563e-01  -4.6614112e-01   7.3017527e-01   1.0186043e-01   4.4505907e-01  -4.9779486e-01   4.1452829e-01  -6.6403147e-01   9.1224534e-01   8.4096529e-01  -2.8702945e-01   3.3937380e-01  -5.2740425e-01  -6.5602940e-01   3.3238801e-01   9.8687960e-01  -5.6882244e-01   8.2210804e-02  -5.9633054e-01   8.3618902e-01  -1.5981147e-01   9.5004464e-01  -3.4257887e-02   5.5907762e-01   1.2249743e-02  -9.5131126e-01  -6.9805592e-01   3.3489332e-01  -6.1553064e-02  -2.6508881e-01   8.4867981e-01  -7.9206054e-01  -9.0099145e-01   2.7073144e-01   7.2650422e-01  -4.6783192e-01  -5.0771233e-01  -7.0176047e-01   8.3701309e-01  -3.9163202e-01  -1.7293432e-01   1.7139215e-01   7.1215552e-02  -6.1111811e-01   4.3618269e-01   2.7398630e-01  -1.6697658e-01  -1.5791404e-01   7.7092510e-01  -5.9438007e-01  -4.7358118e-01   4.0284909e-01  -1.1182016e-01   6.3586812e-01   7.2871010e-01   8.4043800e-01  -2.1795738e-01   9.0298948e-01   5.1425145e-01  -7.3446173e-01  -2.4464926e-01  -9.0395931e-01  -7.8241789e-01  -6.6247426e-01   9.7555522e-01   2.9374345e-01   6.4762691e-01   9.5405303e-01  -6.5910147e-01   8.1453609e-02  -6.3003462e-01   1.2864287e-01   7.6835458e-01  -7.9329658e-01   8.7339285e-01   4.0217251e-01   5.9853398e-02  -5.3276878e-01  -9.8792264e-01  -7.7655046e-01   1.6236322e-01  -6.4497166e-01  -1.8176817e-01   8.5694230e-02  -6.7733598e-01  -5.5892912e-01   4.7336225e-01   8.3796885e-01  -5.1295017e-01   7.2260957e-01   5.9806980e-01  -4.7408532e-01  -2.4963571e-01  -9.5360093e-01  -8.1551480e-02  -5.1966115e-02  -8.5066586e-01  -5.5389788e-01  -7.9037513e-01   5.1368297e-01   2.3398696e-01  -5.3719061e-01   7.6392744e-01  -2.9289029e-01   8.8434115e-01  -6.2248138e-01   2.7623774e-02  -5.6337417e-01   5.3281655e-01   7.3876305e-01   8.6664187e-01  -2.3775497e-01   2.4443901e-01  -8.4534104e-01   5.2020899e-01  -3.1650765e-01   8.6328203e-01  -7.1688679e-01  -4.5764418e-01  -2.2303425e-01  -1.6085285e-02  -9.4412934e-01   9.3014118e-01   1.0316740e-01   5.8169008e-01  -8.9099281e-01   5.6122072e-01  -1.7876103e-01  -8.9563036e-01  -9.8431846e-01  -1.2503580e-03  -2.3406332e-02  -6.6703869e-01  -9.0206886e-01  -3.7149321e-01   1.2885207e-02   1.8372208e-03   3.0672092e-01  -5.2256688e-01   4.7046670e-01  -5.9246108e-01  -8.3040286e-01   5.6028298e-01  -5.7310754e-01  -2.2453414e-02  -3.5476567e-01   5.5221160e-01   7.7190086e-01   2.4358293e-01   7.8834773e-02  -3.3301185e-01  -5.3740742e-02  -6.4476530e-01  -4.6753214e-01   4.8143222e-01   6.3140491e-01  -1.5549930e-01  -3.3349660e-02   6.1958035e-01   4.7778268e-01   3.7362092e-01   8.9205841e-01   2.0558498e-01  -6.8018496e-01   6.3949757e-01  -3.3451669e-01  -1.3924364e-01  -9.3461116e-01  -2.1217877e-01   1.1344248e-02  -5.1649677e-01   2.9421517e-01  -2.2692822e-01  -7.3214860e-02   2.4053004e-01   8.1807423e-02   5.7749537e-01   1.7733428e-01   6.6189264e-01  -6.1982345e-01  -5.7225955e-01  -7.7280756e-01   1.5145621e-01   4.5375216e-01  -2.0353372e-01  -4.1010246e-01  -7.5163038e-01  -3.0114680e-01  -1.2765773e-01  -3.9748265e-01   5.8179074e-01  -1.4790253e-01  -9.9650466e-02   3.8827049e-01   9.9681485e-02  -1.6108860e-01  -2.2369002e-01  -9.3671835e-02   8.6868324e-01   1.8438102e-01   1.3591930e-01  -6.4009875e-01  -7.3148943e-01  -4.7564627e-01  -8.8479059e-01   5.7306620e-02   7.9932617e-01  -8.3595177e-01   5.5230231e-01   3.1003833e-01   3.9127760e-01   1.1562587e-01  -7.3495037e-01   5.2644041e-01  -8.6338791e-01  -1.3069855e-02   8.6701191e-01   4.3654351e-01   4.4495539e-01   1.3672236e-01   3.0047226e-01   5.1155814e-01   7.6722783e-01  -9.8280201e-01  -2.5264073e-01   8.5325332e-01  -5.6224609e-01  -9.6560469e-01   7.8218927e-01   2.3785440e-02   2.3315632e-01   8.8147577e-01   2.2108484e-01  -1.8165076e-01   2.0302576e-01   1.7078889e-01  -1.2729135e-01  -8.4707270e-01  -5.3761621e-01   6.5358385e-01  -8.1127708e-01   6.9411973e-01   9.3859018e-01  -9.0978459e-01   6.6372329e-02   8.9714028e-01  -5.3654905e-02  -6.5338772e-01  -4.6650297e-01   9.9645124e-01  -4.9748196e-01  -1.3499166e-02   7.4168476e-01  -9.1897731e-01  -1.1835897e-01   2.3627102e-01  -2.2895294e-01  -7.6601479e-01   6.0760727e-01   6.2022318e-01  -7.8923046e-01   5.8748986e-01  -1.9191834e-01   1.9947127e-01   7.1871846e-01  -3.6527232e-01  -6.1194203e-01  -5.6876713e-01  -9.0708132e-01   1.7978038e-01  -5.6275773e-01   8.9170641e-01   3.4385942e-02   4.4456388e-01   2.5664142e-01  -8.9547866e-01  -8.3617534e-01  -4.4853968e-01   6.7711125e-01   1.6118583e-01   9.5155706e-01   9.4368066e-01   2.8772554e-01  -6.1115466e-01  -3.2732224e-01   6.0280209e-01
  -5.1211351e-01   8.0061754e-01   2.1867756e-01  -1.9658641e-01   4.8844333e-01  -2.9818548e-01   3.1087197e-01  -1.6037361e-01  -5.3234383e-01  -5.3151081e-01   1.4039411e-01   6.0206364e-01   4.1512966e-01   3.4612406e-01   6.9883520e-02   1.3613128e-01   8.7996377e-01  -6.5389696e-01   9.3351981e-02  -1.9785120e-01   7.4336295e-01   7.3447543e-01   2.3931476e-01   1.0802366e-01   7.8237997e-01  -3.9712589e-02   2.3211486e-01  -4.0738077e-01   6.1319702e-01   2.7669216e-01  -7.5167744e-01   3.0828966e-01   9.1703302e-01   4.4027164e-01  -5.9466393e-01   6.1251420e-01   9.0240420e-01  -9.0540827e-01  -4.1294589e-01  -2.2684792e-01  -4.9531958e-01  -7.1956967e-01   7.1424331e-01  -3.3568720e-01  -8.0553292e-01   1.0392043e-01   6.7413318e-01   6.7864142e-01   9.8143744e-01   6.9603491e-01   3.9159171e-01  -5.9751976e-01   9.4374302e-01  -8.3824169e-01   2.5477831e-01  -8.7497208e-01  -5.0003169e-03   6.9900525e-01   9.9213658e-01  -5.7860142e-01   3.9020342e-01   6.5998755e-03   4.6166513e-01  -6.5955925e-01  -4.2234219e-01   2.0991138e-01   3.6127105e-01  -8.4015393e-02   8.5863558e-01  -9.3480301e-01   3.9234595e-01  -1.9504917e-02   3.5583951e-01  -1.2357899e-01  -8.0015959e-01  -4.0839655e-01  -8.2987282e-01  -7.6655724e-01  -9.1533165e-01   9.6326401e-01   3.6310978e-01   5.0304936e-01  -1.4749397e-01  -5.7832745e-01   4.0705427e-01  -9.7492508e-02  -3.1914860e-01  -8.5106472e-01   1.9541755e-01  -3.8283989e-01   6.6060260e-01   6.6685465e-01   1.9749735e-01  -4.6474503e-01   8.3363908e-01   5.9948828e-01   8.1187458e-01   7.5219158e-01   5.6696276e-01   7.0569186e-01  -7.7661264e-02   9.4995609e-01   7.6189815e-01   8.7782337e-01   3.9944968e-01   8.3861904e-01  -3.6601615e-01  -4.6102709e-01  -4.1395461e-01  -6.7896800e-02  -7.8945321e-01  -2.2101511e-01  -8.6492018e-01   8.0227290e-01   8.9844823e-01   1.8693146e-01   9.2156146e-01   6.5421014e-01  -1.7859225e-01  -7.1876321e-01  -5.9023965e-01  -9.5176815e-01   5.7794724e-01  -2.6378082e-01   9.9511310e-01  -3.5324754e-01  -9.4032832e-02   6.1554678e-01   6.8077327e-02   8.4835260e-01  -9.2445822e-01  -3.0924366e-01  -9.5186184e-01   3.0577979e-02   3.3441499e-01   2.2182885e-01   1.5276452e-01  -1.9241146e-01  -4.8120249e-02  -1.9375159e-01  -1.4606585e-01  -8.7000662e-01  -7.9144679e-01   8.0851560e-01  -9.7473542e-01   5.6030007e-01   7.5325867e-01  -9.4403592e-01   3.2691315e-01  -8.6965853e-01   2.0157546e-01   1.3027429e-01   5.6040621e-01   5.2087228e-02  -4.3137287e-02  -9.8681682e-01   7.9030231e-01   5.7137607e-01   1.7781498e-01   7.6397927e-01  -2.9757048e-01  -6.9050824e-01  -5.1467714e-01   3.4932453e-01   7.7999580e-01   5.8785681e-01   8.9820777e-01  -9.2333606e-01  -7.8411408e-01  -1.3125670e-01   2.4749293e-01   2.9269335e-01  -9.8033439e-01  -7.7731024e-02   4.6151594e-01  -9.8084275e-01  -5.6488212e-01   7.5053602e-01  -6.8195913e-01  -3.1665824e-01   8.0267769e-01  -8.6901932e-01   9.4281899e-01  -2.8831243e-01  -6.2047832e-01   9.7602188e-01   9.8601818e-01  -6.8842538e-01  -3.3369111e-01   9.7739118e-01  -1.5698273e-01  -6.1122925e-01  -1.2052163e-01   5.6659207e-01   8.4517863e-01   6.3450987e-01   3.0091572e-01  -3.7117532e-01  -2.6121459e-01   8.5280692e-01  -5.1338150e-01  -1.3308388e-01  -8.3068823e-01  -2.5545972e-01   2.7964143e-02   5.5436659e-01  -5.2339182e-01  -3.0902202e-01  -4.4163835e-02  -4.4690860e-01  -7.7526315e-01   2.2385180e-01   3.9473948e-01  -8.5767385e-01   4.6753408e-01   3.9397149e-01   2.7408741e-02  -2.7632744e-01   3.5880995e-01   5.0930693e-01   5.8129224e-01   2.0020921e-01   8.4245037e-01   4.7668722e-01   4.9402857e-01   9.9716032e-01   5.2529017e-03   5.0951724e-01   8.1946800e-01   1.4987962e-01  -2.1292694e-01   7.0052263e-01  -5.5144971e-01   9.1779093e-01  -6.0701098e-01  -3.3733581e-02  -5.6392097e-01   1.9190633e-02  -1.8416028e-01  -9.0674541e-01   4.1754591e-01   5.0896023e-01  -4.8876079e-01  -5.7156017e-01   3.9199400e-01   5.7063345e-01   6.9989536e-01   9.5876204e-02  -5.8868114e-01   4.9665337e-01   7.9690333e-01  -5.3484231e-01  -8.0529707e-01  -2.6458092e-01  -4.2871729e-01   7.0338892e-01  -7.6654114e-01   2.1165139e-01   9.2512480e-02   5.0101362e-01   1.5987766e-01  -4.6631847e-01  -9.5905318e-02   8.8783700e-01  -1.8241618e-01  -1.9652557e-01  -3.3120282e-01  -5.0023592e-02  -6.5015208e-01  -7.6696513e-01   9.2772888e-02   2.2707979e-01   2.2492957e-01   7.1387637e-01   1.6961403e-01  -9.2663529e-01  -3.8604563e-01   6.9742040e-01  -5.0786718e-01  -7.7175208e-01   4.3570519e-02   7.7382556e-02   7.2990900e-01   6.1574951e-01  -3.7615974e-01  -5.0027828e-02   9.3090004e-02  -4.2222929e-01   2.3929670e-01  -9.3170044e-01  -3.6057263e-01  -8.5041948e-01   8.9628683e-02  -2.3469633e-01  -5.3497219e-01  -7.4644709e-01   7.4869075e-01   2.0963899e-01   1.7504136e-01  -4.2610834e-01  -9.8924856e-01  -4.3617139e-01   9.3745927e-02   5.4059220e-01  -1.2078732e-01   5.8218287e-01  -2.1321002e-02   8.4740200e-01   3.7511480e-01   2.8815285e-01   5.7639372e-02  -1.9376071e-01  -5.2517149e-01  -2.4574117e-01   9.4453197e-01  -9.6923398e-02   6.1405398e-01  -2.0952534e-01  -5.6294385e-01  -6.9023587e-03   3.7943974e-01   8.3854149e-01   7.1240679e-01   8.8863903e-01   6.8742688e-01  -3.2653464e-01  -9.6932381e-01  -1.3795265e-01   6.9805971e-01   8.4979628e-01  -9.6119695e-01  -1.3766011e-01   6.4809106e-01   8.1491787e-01   5.0093243e-01   1.7267677e-01   2.9224287e-01   7.1442642e-01  -4.7903438e-01   9.3073637e-01   3.7864871e-01   4.1732190e-01  -9.4410006e-01  -3.1691093e-01   6.2221552e-01  -4.6843361e-01  -8.1115548e-01   7.6193625e-02  -3.8120996e-01   2.4984620e-01   6.8149137e-01  -6.0830699e-01   2.7896975e-01  -6.1504316e-01   8.6040313e-01  -8.0651201e-01  -2.5409193e-01  -2.0212571e-01   1.9957083e-02  -7.8339223e-01   8.9717219e-01  -5.0063095e-01   3.4390408e-01   8.9905559e-01  -3.8811891e-01   3.6722631e-02  -9.8758712e-01  -7.7833480e-01   2.5673331e-01  -4.6357053e-01  -5.9958574e-01  -6.7235952e-02   9.1304410e-01   9.7924167e-01  -8.0355887e-01  -2.0940443e-01  -2.3481002e-01   4.6357424e-01   5.2645880e-01  -8.8066197e-01  -8.8599674e-01  -2.6959411e-01   8.1769998e-01  -2.2155936e-01   4.4598505e-01  -1.6567932e-02  -1.5706346e-01  -5.4474977e-01  -8.2379564e-01  -3.9572342e-01   6.4994190e-01  -3.8938679e-02  -9.9938013e-01  -6.0313521e-01  -2.5818892e-01   4.8281327e-01   5.4706016e-01   1.9402099e-01   2.5902696e-01  -5.4037658e-01   8.8342242e-01   4.9388169e-01   4.8772100e-01   6.8040477e-02   2.9903586e-01  -8.2397663e-01   3.0794883e-02   3.5163732e-01  -7.9866419e-01   3.2571572e-02  -5.1817666e-01   6.0682258e-01  -2.3425368e-01  -5.5014269e-01   9.6114403e-01  -1.1954655e-01   8.0145755e-01  -4.0561359e-01  -2.9976221e-02   4.5528971e-01   2.1848055e-01  -8.0039096e-02   5.9594294e-01  -5.4480704e-01  -3.7156080e-01  -9.6701824e-01  -9.6647682e-01   5.1997953e-01  -7.3165334e-02   3.5791928e-01   3.5733753e-01  -3.9845530e-01   2.9444524e-01  -8.1647571e-01   7.7532931e-01  -3.8784187e-01   1.7204473e-01   8.4931255e-01   1.3232204e-01   2.4266402e-01  -1.2861530e-01  -2.6127143e-01  -5.3350032e-01   2.9663444e-01   2.6756240e-01   6.2861388e-01  -8.5476588e-01   7.1007015e-01  -3.8127521e-01  -6.8883404e-01  -7.7200790e-01  -7.3597135e-01   5.1551562e-01   1.6104953e-01  -4.6628304e-01   6.8745957e-01  -8.8510429e-01  -9.6969867e-01   2.9267842e-01  -4.2236431e-01   3.2149225e-01   7.0511542e-01  -9.0843544e-01   6.3224199e-01   9.1461342e-01   9.0076636e-01   4.1237109e-01   3.0605332e-01   1.5802683e-01  -4.2367397e-01   4.9129821e-01   7.5167463e-01   9.9951277e-02   8.6138194e-01  -8.7680687e-01  -4.9199706e-01  -1.9972985e-01  -4.7985270e-01   8.0908806e-01  -2.7159745e-01  -3.1986004e-01   2.4532666e-01  -9.9882078e-01   4.2190837e-01  -9.3397739e-01  -8.8954035e-01   5.7167984e-01   5.3860326e-01   3.4019267e-01  -7.3563877e-01  -7.3605948e-01   5.2566487e-01  -7.6752350e-01  -7.7497962e-01   3.3600831e-01  -6.0982144e-01  -3.6461593e-01  -3.1425835e-01  -3.7846081e-01   1.8771511e-01   1.7712386e-01   3.4054161e-01  -1.8022709e-01  -4.0800404e-01   9.3890003e-02  -9.7281060e-01  -9.6544461e-01  -8.9890352e-01  -4.1217948e-01  -7.5588019e-01   9.9497153e-01  -8.4923029e-01   3.7732932e-02   8.5999239e-01  -9.3938423e-01  -2.9142687e-01   8.6827178e-02   4.9133312e-01  -7.3811943e-01   6.7165443e-01   6.9944119e-02   6.9864250e-01   3.0103883e-01  -5.2803034e-01   6.6448353e-01  -3.9781339e-01  -1.0482041e-01  -4.5804413e-01   4.6284776e-01  -6.7822352e-02   7.3192243e-02  -7.4061380e-01  -6.4551945e-02   3.0096011e-01   2.3523838e-01   8.6156321e-01  -4.8935445e-01  -1.2799171e-01  -8.9593492e-01   2.9405876e-02   6.5574579e-01  -9.8159472e-01  -4.4450666e-01   3.1522599e-01   5.0541107e-01   3.9478128e-01   1.9898066e-01  -2.7006811e-01   9.8888311e-01  -6.7008795e-01  -3.1927605e-01  -9.3796283e-02   7.8430437e-01   7.1549491e-01   9.9897249e-02   3.3270954e-01  -6.6596470e-01  -5.3629780e-01   6.6727839e-01  -3.2008216e-01   1.0736671e-01  -6.3569278e-01  -1.6906222e-01   9.6891587e-01  -5.9904555e-01  -5.3496958e-01  -2.2580104e-02   6.3147113e-02  -6.3509665e-01   7.9416820e-04  -9.5224712e-01  -2.2981292e-01  -1.8370430e-02  -7.3940595e-01  -5.7743803e-01  -5.6910084e-01  -1.8957806e-01  -9.9953151e-01   3.1567029e-01   3.8153088e-01   7.8348203e-01   3.2766365e-01   6.2406630e-01  -2.4340407e-01  -8.5182989e-01  -8.0481244e-01   8.0758759e-01   3.3766866e-01   2.8374414e-01  -6.2566290e-01  -5.6075137e-01  -3.3853507e-01  -4.4471558e-01  -2.9595266e-01   9.2541558e-01  -6.3743246e-01   1.5669051e-01  -6.3125549e-01  -5.4807135e-01  -4.9484711e-01   5.8004595e-01   5.1706189e-01  -3.5858417e-01  -3.7953645e-01  -1.9850195e-01   3.3723425e-01  -7.3301667e-01  -6.0829119e-01  -9.6666165e-01  -2.7172675e-01  -7.6262265e-02   7.9919841e-01  -7.3899440e-02   2.8767853e-01  -4.1704585e-01   7.9682937e-01   3.5517062e-01   1.1226440e-01   6.7959575e-01  -1.1124562e-01   7.0687727e-01   9.3957284e-01  -7.8596259e-01  -9.6046152e-02  -7.2816622e-03   6.6858643e-01   3.1475509e-01  -7.7074154e-01   3.0333550e-01   9.6300315e-01  -3.6116434e-02  -5.9619187e-01   3.7900408e-01   2.2261897e-01   9.6671300e-01  -4.1797867e-01   6.4447331e-01  -8.5669367e-01   8.4869844e-01   9.7180656e-02  -2.4486244e-01   5.3235518e-01   7.7766942e-01   8.0373784e-01   9.1984632e-01   9.6148529e-01  -4.3227136e-01  -1.3083958e-01   9.7906967e-01   6.3382958e-01  -7.9348167e-01   8.6380568e-01   8.0178514e-01   9.6697728e-01  -4.9129752e-01   6.0612317e-01   7.9656497e-01   1.6780706e-01  -3.5644136e-01   5.1811175e-02   6.8778935e-01  -6.0062966e-01  -7.9791111e-01   8.8807632e-01   7.0388212e-01   2.7329623e-01  -7.6803959e-01   5.4478372e-01   4.7461768e-01  -2.5168019e-01  -3.3560558e-01   4.5144074e-01  -3.6118787e-01  -6.8125809e-01   9.0397238e-01  -3.7835702e-01  -6.8103271e-01   5.9338954e-01  -2.8736454e-01   6.0676864e-01  -1.0531823e-01   7.4683859e-02  -9.2944791e-01  -8.0302900e-01  -8.7763684e-01  -7.9584328e-01  -1.7198524e-01  -9.2122748e-01  -2.8904446e-01  -3.7572514e-01   1.4469723e-01  -6.4329429e-01  -9.0239673e-01  -1.4971707e-01  -5.3322856e-01   9.1086847e-01   4.9702283e-01   2.6641075e-02   3.3612421e-01   4.4721414e-01   1.4308284e-01  -8.9574922e-01   1.6205100e-01  -7.8303189e-01  -3.2770097e-01   9.4769236e-01  -8.8918411e-01  -1.1401844e-01   3.8547506e-01   7.3599138e-01  -4.9795014e-01  -7.8910754e-01  -6.2447573e-01   1.3231237e-01   6.0055921e-01  -4.6942757e-01  -2.5540112e-02   8.9441105e-01  -4.7704218e-01  -3.5439008e-01   7.3904887e-02   9.7184605e-02  -7.2383797e-01  -1.8274705e-01  -4.6861217e-01  -8.4115765e-02   4.2733284e-01   1.3123847e-01   5.7077891e-01   6.2366815e-01   6.7421846e-01  -6.7810460e-01  -5.2790996e-01   6.7999489e-02  -6.1523546e-01   4.5541556e-02  -2.6283996e-01   9.0497015e-01  -7.0624021e-01  -1.5489660e-01  -2.4508889e-01   7.9682451e-01   7.0467545e-01   1.9400552e-01   3.4885513e-01  -9.9714099e-01   6.6954019e-01   6.9686799e-01   4.5946835e-02  -2.5522576e-01   9.2996913e-01  -1.0608399e-02  -6.2757820e-01   9.0538427e-01   3.4904451e-01   5.3431726e-01   6.8928472e-01  -1.2288745e-01   7.5075998e-01   6.3964594e-01  -3.6627767e-01  -7.9379627e-01  -5.9938464e-01  -9.4809870e-02   5.9402494e-01   1.4656739e-01   6.0487443e-01  -4.6249584e-01  -4.8004880e-01  -1.4281793e-01   5.3261923e-01  -1.4767439e-01  -8.6760437e-01  -7.9994433e-01   5.0942560e-01   6.8774365e-01   9.9812976e-02  -1.1310033e-01  -4.8144727e-01   7.0422666e-01   5.3994955e-01  -7.1402406e-01   5.5326990e-01   1.3170769e-01   5.4897578e-01  -7.6474033e-01   1.6299525e-02   3.7278082e-01   2.7509931e-02   5.2951712e-01   3.6788978e-01   2.5761055e-01  -6.2624106e-01  -3.4494776e-01   5.6467683e-01  -7.2082265e-01   8.4881415e-01  -2.0338717e-01  -9.7398586e-01  -6.6490978e-01   7.1729231e-01   3.1210964e-01  -5.6577691e-01  -1.2875417e-01   7.7905107e-01   1.6941953e-01  -6.8265643e-01   5.8479128e-01  -1.9750195e-01  -6.4674613e-01  -2.6771759e-02  -6.7503831e-01   1.8678072e-01  -9.0400017e-01   1.8863449e-01  -6.7582214e-01  -5.1891873e-01  -4.9786781e-01  -8.6200256e-03   2.8116248e-01  -1.4568738e-01  -5.1741908e-01  -2.2800048e-01  -5.1204266e-01   6.9686242e-01   2.5703232e-01   6.3142161e-01  -6.4408567e-01  -1.8969765e-01   1.1129622e-01   7.5937892e-01   8.4789365e-01   8.4833440e-01   6.3407896e-02  -7.2904619e-01   4.8613356e-01   5.7667419e-02  -4.9890131e-01  -7.9947842e-01   2.9085091e-01   3.9737953e-01   2.5134441e-01   3.7354310e-01  -2.5718905e-01  -2.3511127e-02  -7.6031855e-01   4.4824339e-01   9.5527128e-01  -2.7512175e-01   4.3942869e-02  -2.2388572e-01   4.3338544e-01   1.8860785e-01  -2.5607373e-01   9.7573651e-01   4.6097728e-01  -9.4201247e-01   9.9680447e-01  -8.2638250e-01  -5.6431592e-01  -5.6127919e-01   5.5637284e-01  -6.3427071e-01  -5.8765808e-02  -8.2180648e-01   4.0033489e-02  -5.5202500e-01   1.5886475e-01   9.7049846e-01   1.1658739e-01  -2.2838022e-01  -6.1174504e-01  -8.4733986e-01  -7.2045628e-01  -5.8748457e-01  -1.2254599e-01  -1.2919510e-01   2.2493976e-01  -2.2267143e-02  -7.3278603e-01   4.5173770e-01  -8.8261394e-01   3.3386699e-01   4.2404574e-01  -3.0931942e-01   1.2063586e-01   5.1301582e-01   9.7559481e-01   3.6390792e-01  -7.7059638e-01  -6.1231929e-01   7.3267869e-01   2.7928013e-01  -7.0387730e-02   2.5140009e-01  -2.3039058e-02  -5.3237600e-01   3.3611944e-01   3.8861603e-01  -9.9622503e-01   4.3910751e-01  -8.6194693e-02  -1.9351327e-01   7.4030575e-01  -4.7153252e-01   3.5005764e-02  -9.2994816e-01   9.5135511e-01  -8.3769796e-01   4.9671216e-01   4.5692218e-02   3.0720008e-02  -1.3858844e-01  -7.7297574e-01  -2.1292737e-01   8.9474097e-03   1.8275385e-01  -4.7910202e-01   7.7079208e-01  -1.1077175e-01   4.2299430e-01  -3.5326938e-01   8.6044937e-01  -6.8202642e-01  -5.4167426e-01  -8.5396744e-01   7.9439817e-01   6.3730300e-02   7.9302197e-01   9.4429675e-01   3.0602517e-01   3.2143200e-02  -4.5830678e-01  -6.1714317e-01   9.6523986e-01  -7.9404810e-01   7.5592744e-01   9.3612689e-01   9.2178018e-01   8.5818619e-01  -5.1221868e-01   1.5685606e-01   9.1440561e-02   1.0656896e-01   1.1724972e-01  -9.6332775e-02  -7.9190875e-01  -2.8462753e-01  -8.7152854e-01  -4.1780202e-01   4.9131094e-01   1.8189960e-01   2.0424594e-01   1.6758632e-01  -8.5659609e-01   8.2250359e-01  -7.9206474e-01   2.0510347e-01   7.2993198e-01  -3.5776628e-01   1.2226652e-01  -2.7217528e-01   8.9227464e-01   8.1882997e-01  -5.3998505e-01  -6.7743745e-01  -3.1557127e-01  -1.2147581e-01  -1.7091763e-01   2.6324235e-01   2.4684294e-01   6.9844842e-01   7.7972314e-01  -1.2791405e-01  -9.9485208e-01   6.6219909e-02   2.7941619e-01  -3.2031955e-01   9.6603638e-02   1.7000510e-01   2.2184506e-01  -6.8398587e-01   4.1163177e-01   6.5083249e-01  -3.4386401e-01   8.7286265e-01  -9.3783469e-01  -1.3991619e-01   1.1893692e-01   8.1724482e-01   5.4379794e-01   9.8242209e-01   8.1890887e-01   8.7500214e-01   1.3673290e-01   6.8766039e-02   1.7950894e-01  -2.5266385e-01  -9.5839946e-01  -6.2624887e-02
  -5.9305327e-01  -7.1931266e-01  -5.5378678e-01  -7.5106455e-01  -6.7305695e-01   4.3336599e-01   9.9216060e-01  -2.7220570e-01   3.9771519e-01  -8.3766457e-01   6.8426110e-01   9.7125257e-01  -2.0189459e-01   2.2347314e-03  -3.3956129e-01   7.5312154e-01   2.0757550e-01   3.3247211e-01  -2.3425490e-01   3.7298610e-01   2.5955794e-01  -8.5352419e-01  -8.0870469e-01  -2.2389548e-01   9.9318247e-01   5.7045367e-01  -3.6274363e-01   5.3005418e-01   9.7877574e-01  -4.9092018e-01   4.2585171e-01  -9.8912425e-01   7.5212099e-01   3.1807950e-01   8.3851290e-02   5.2462734e-01  -3.1349443e-02   5.3595467e-02   8.6172175e-01  -9.5969344e-02  -3.1944791e-01   4.5861373e-01   9.9390957e-01  -6.8083064e-01  -1.4023786e-01  -7.7079319e-01   2.6653209e-01  -9.9980495e-01  -6.8762824e-02  -7.6317002e-01   3.2588228e-01  -2.3551543e-01   6.1117948e-01   4.7498994e-01  -9.8652905e-01   8.2065125e-01   6.6823264e-01  -9.3618963e-02   9.9667973e-01   1.9242280e-01   5.4902254e-01   8.6631307e-01  -7.0975545e-01   2.2819272e-01   9.7787977e-01  -2.9486270e-01   9.4843897e-01   6.9511801e-02   3.4489363e-01   9.3837999e-01   9.8998020e-01   4.3121012e-01  -5.8727011e-01   4.2657711e-01   2.0992963e-01  -8.9376683e-02   2.5788929e-01  -4.8988412e-01   2.8378386e-01  -2.5482533e-01   2.0354108e-01  -1.2862177e-01   3.6089624e-01  -1.5672116e-02   5.1441942e-01   4.7293918e-01   2.6014912e-01  -6.4083231e-02  -1.1275106e-01   3.4567182e-01  -9.1975867e-02   3.8228919e-02   1.6677690e-01   9.0079176e-02   6.1120443e-03   1.5608886e-01  -4.0130267e-01  -1.8429293e-01   5.2160978e-02   4.8963662e-01  -6.0272602e-01  -5.5063985e-03  -2.0663471e-01   2.4945988e-01   2.7162943e-01   3.7451277e-01  -6.1688435e-01   4.8219576e-01   8.9124937e-01  -6.2016392e-01   4.7350358e-01  -4.9244144e-01   5.1705751e-01  -8.6405672e-01  -1.3923854e-01  -7.1454472e-01   1.8717134e-01   7.6683830e-01  -4.2190907e-01  -7.6807052e-02  -8.5535136e-01  -4.0135936e-01  -8.5474466e-03  -2.8396529e-01   6.3574814e-01   3.5471285e-01   7.8893661e-01   2.7801467e-02  -9.7843946e-01  -7.4366853e-01   6.3113452e-01  -1.9670335e-01   1.6102423e-01  -4.3866641e-02  -6.5153773e-01   6.6573453e-02  -3.2418021e-02  -1.8412210e-01  -3.0549834e-01  -8.5479373e-01   2.3680513e-01   6.9090382e-01  -2.7402853e-01  -9.4327449e-01  -1.1881475e-01  -1.4482042e-01   2.3248434e-01  -2.5956278e-01  -6.0048193e-01   1.1591849e-01  -2.1059153e-01  -8.2245992e-01   5.4498271e-01  -8.8432502e-01   6.4835292e-01  -6.0098272e-02   8.2366530e-01   1.5163815e-01  -4.6097599e-02  -4.3149659e-01  -9.1342447e-01  -7.8660495e-01   8.0825037e-01  -1.3331577e-01  -6.5075981e-01   3.4864332e-01  -8.2495747e-01  -7.3703103e-01  -8.3681520e-01  -1.2681652e-01   1.6143364e-01  -3.0746344e-01  -9.3556174e-02   4.6767030e-02  -1.7365470e-01  -9.0944647e-01  -5.4147497e-02  -3.9823282e-01  -3.9370046e-01   1.2591157e-01  -5.0041602e-01   1.6403944e-01   5.1754489e-01   9.8268435e-01   1.2423694e-01   2.2661948e-01   6.3079736e-01  -6.4304580e-02   4.8610513e-01   1.3643000e-01   7.1495504e-01   2.0169726e-01  -4.5303732e-01   2.1469294e-01  -5.0135941e-01  -5.8231806e-02  -9.1712890e-01  -5.0625045e-01  -4.1106063e-01   8.3797943e-01  -7.7929277e-01  -2.9176968e-01  -1.6061387e-01   1.9344598e-01  -3.4334133e-01   5.3608037e-01   4.8696832e-01   7.9715092e-01  -9.7649958e-01   5.3581351e-01  -3.5899916e-01   3.4728015e-01   3.6396926e-01  -6.2135070e-01   2.2385585e-02  -4.3078821e-01   7.8971269e-01  -5.1674949e-01   8.1653790e-02  -7.0072470e-01  -3.0591977e-01   4.5967451e-01   7.3900021e-01  -6.4143498e-01   8.0849297e-02  -7.7098794e-02   4.2135427e-01  -2.0518339e-02   6.8464004e-01  -4.0053205e-01  -9.8945578e-01   8.4176174e-01  -5.3107799e-01   4.9191328e-01  -5.9874287e-01  -4.3196197e-01   6.1580126e-01   1.2083329e-01   9.7054728e-01  -4.4457333e-03   8.6137905e-01   6.6806091e-01   8.9008769e-01  -7.6409066e-01   6.4441269e-01   5.6559217e-02  -4.9518290e-01   9.4035812e-02   7.8463319e-01   6.7404289e-01  -8.4450086e-01  -1.9136674e-01   4.5507450e-01   2.5588001e-01   7.4789628e-02   2.1012322e-01   1.5070448e-01  -5.1193011e-01   6.3739375e-02  -1.0331154e-02   1.8731934e-01  -9.6689665e-01  -5.6459221e-01   9.4013341e-01  -2.9151520e-01   2.6680316e-02  -1.6706598e-01   6.9225782e-01  -7.0941418e-01  -4.7316920e-01  -6.9828444e-01   4.4481732e-01   4.5647357e-01  -8.3438008e-01  -6.9355307e-01   9.3745752e-01   7.7379200e-01   5.7724341e-01   6.7825032e-02  -5.0728658e-01  -5.6031327e-01   2.6368234e-01   6.2304147e-01   7.9939180e-01   6.8766787e-01  -4.8946807e-01  -3.1145236e-01  -9.7668226e-01   8.7134750e-01  -4.6358651e-01   3.9100865e-01  -5.4776028e-01   5.2993040e-01   2.0798094e-01  -6.1367002e-01   4.6304731e-01   1.6813425e-01  -3.7587781e-01  -7.3312564e-01  -4.2531054e-01   4.9722065e-01   2.9336702e-01   7.6445141e-01  -4.0703459e-01   3.2260781e-01   4.7516550e-01   9.1703053e-01  -2.9962217e-01   1.5891031e-01  -1.2026102e-01  -2.8339567e-01   3.0594690e-01   9.0864940e-01  -7.9696577e-01   4.7654829e-01  -4.5028626e-01  -6.9574346e-01   8.6961052e-01   5.7683159e-01  -7.6437019e-01  -7.6121912e-01  -8.0377856e-01  -2.9723122e-01   4.8006977e-01   7.3493926e-01  -3.8760499e-01   7.8261450e-01   6.0394636e-01   4.5506857e-01  -8.5662573e-01  -9.3843184e-01   6.2130019e-01  -7.7350385e-01  -2.9757569e-01  -8.6122335e-01  -9.2052203e-01   2.0814116e-01  -3.6951051e-01  -5.8502516e-01   5.4651916e-01   7.3244487e-01   8.0359096e-01   6.0515077e-01  -7.8641595e-01  -9.8870401e-01  -6.7207590e-01   8.3485957e-01  -3.9861621e-02  -8.6657883e-01   9.3473224e-01   9.9578904e-01   9.1151325e-01  -1.8234630e-01   8.8420513e-01  -8.0257916e-01   1.5085544e-02   1.8559109e-01  -4.6726361e-01  -8.7054743e-01   9.3399441e-02  -4.0908561e-01   8.2683615e-01  -1.3320199e-01   4.4403025e-01  -6.2143843e-01  -1.2884980e-01   6.5973810e-01  -1.0563061e-01   6.5105045e-01   8.9391641e-01   3.3015995e-02  -1.5094618e-01  -9.0658866e-01   6.7843441e-01  -1.8095546e-01  -7.2557064e-01   4.6173886e-01   3.7954554e-01  -8.2369799e-01   3.4743667e-01   9.7223172e-01  -7.6769843e-01  -7.9852285e-01  -9.3550254e-01  -3.4658589e-01  -7.2382437e-01   2.7061284e-01   6.8879164e-01  -5.7439355e-01  -8.1860876e-01   8.2957918e-01   9.5635724e-01   6.4942447e-01   3.6492858e-01   4.5125675e-01  -7.2743797e-01   7.1366290e-01   1.0450174e-01  -7.8290078e-01  -4.1511210e-02  -7.8740373e-01  -6.7206280e-03   5.9723837e-01  -3.9606058e-02  -2.2103384e-01   3.3193014e-01   2.1862028e-01  -5.8453760e-01  -3.5921150e-01   6.2359528e-02   3.9532524e-01   2.9212116e-01  -3.7920572e-01  -1.6661472e-01  -5.5760012e-02  -9.9658588e-01   3.2260357e-01   4.4835439e-01  -7.8607481e-01   8.2582363e-01   2.1828168e-01  -6.6685193e-01  -2.5624044e-01   1.3904903e-01  -7.6988715e-01   6.3807907e-01   2.4210206e-01   8.1056206e-01   5.4693343e-02  -6.6109991e-01   4.4318361e-01   2.8610182e-01   6.8099208e-01   2.6200761e-01   6.0987352e-01  -7.0275380e-01   1.2041151e-01   1.4833523e-01   4.1703049e-02  -6.4886760e-01  -3.4715551e-01  -2.2106102e-01   7.7877789e-01   3.5560940e-01   9.1431694e-01  -7.3924238e-01  -7.4939277e-01   9.5006570e-01   3.9548143e-01   6.1829716e-01  -3.4656258e-01  -6.1169127e-02  -7.9595290e-01  -8.2821200e-01  -1.0525655e-01  -5.0596248e-01   6.8558793e-01   2.0856808e-01  -5.0472208e-01   8.1932722e-01   8.2805016e-02  -1.9595711e-01  -2.3864534e-01  -9.7452735e-01  -2.4652666e-01  -2.8026461e-01  -6.9387148e-01  -7.9817238e-01  -1.5741287e-01   1.9666633e-01   9.5040725e-01   1.9248087e-01  -1.2558126e-01  -9.3233282e-01   2.1617887e-01   5.8242788e-01  -2.3838930e-02   3.6917716e-01   1.4946443e-01   4.0647372e-01   2.4441415e-01   8.4252939e-01  -7.6468293e-01  -3.2591166e-01   1.7269251e-01  -7.7308428e-01  -5.7748953e-01  -7.5596507e-01   6.3855744e-01   1.1436446e-01   8.3116542e-02  -6.3077795e-01  -2.4100351e-01   5.3862380e-01  -2.9390400e-01   9.1683537e-01   9.3964200e-01   3.4527349e-02  -6.2235930e-01  -5.6702185e-01   5.2625784e-01   6.3347714e-01  -1.7346482e-02  -6.6210083e-01   6.8700241e-01  -7.7760663e-02   9.3167368e-01  -3.2425201e-01  -5.2948081e-01   2.0271460e-01   5.3022779e-01   2.4844799e-01  -5.2908523e-01   3.2593000e-01  -7.7461990e-01   1.9819877e-01   4.7120642e-01   8.3678764e-01  -9.4712860e-01  -3.5117420e-01   4.8002291e-01   8.7491015e-01   8.5363110e-01   7.9111884e-01  -6.2061202e-01   3.7419517e-02  -7.8153456e-01  -1.1580332e-01   8.7522097e-01   6.2792228e-01  -1.8653382e-01   3.3103996e-02   9.5415550e-01   3.1327856e-02  -5.8109835e-02  -6.1959396e-01   9.0225230e-01   7.3036857e-01   9.0042866e-01   1.7380088e-02   7.8729462e-01  -3.7101164e-01  -2.9622088e-01  -2.1625346e-01   1.9283295e-01   7.2194941e-01  -7.9082744e-01   5.1498333e-01  -5.7442053e-01  -2.8735766e-01   5.3403427e-01   8.8104362e-01   5.3054181e-01  -1.8925651e-02  -1.7365277e-01   3.2417612e-01   2.1221961e-01   8.4038739e-01   5.1358481e-01   7.1294055e-01   9.1619424e-01  -2.2283252e-01  -9.5790436e-01  -9.9858942e-01  -2.2822906e-01  -4.8061003e-01  -6.1960187e-01  -4.1923482e-01  -9.7520584e-02  -8.5073055e-01  -1.8651385e-01  -6.3486655e-01   9.1585685e-01   6.1023218e-01   5.3130309e-01   7.2736761e-01  -3.0115111e-01   9.3804555e-01  -1.8944037e-01  -7.8916727e-01  -4.9042221e-01  -3.0037089e-04  -9.2565189e-01   7.4038227e-01   2.6555983e-01   4.6685412e-01  -7.1465380e-01   1.7391955e-01  -3.9964458e-01  -7.6766901e-01  -5.7300337e-01   9.2717735e-01  -4.7860335e-01  -4.8483856e-01  -9.2817846e-02  -4.8879894e-01   3.8812087e-01   4.3580342e-01  -1.2057628e-01  -9.0790421e-01  -6.4407463e-01  -8.2208710e-01  -4.1280370e-01   1.5979304e-01   3.3324359e-01   8.8238892e-01  -4.4487709e-01  -5.2113605e-01  -2.8230281e-02  -8.9122932e-01  -5.3695003e-01   1.4136348e-01  -2.1862152e-01   4.3685958e-01  -8.6916937e-01  -6.7012203e-01   1.7329858e-01  -6.6410639e-01   5.1228917e-01   9.7680839e-01   2.2353941e-01  -8.6975262e-01  -3.6208853e-01  -5.6249515e-02   1.3091181e-01   3.4450371e-01   1.1171111e-01   1.2039983e-01  -5.8930097e-01  -4.1839315e-01  -3.5344594e-01  -9.2256472e-01   7.5702528e-01   8.2419781e-01  -5.3567987e-01  -7.1078605e-01   8.3337760e-01   1.6763146e-03   5.6163298e-01   9.2905417e-01  -2.4687528e-01   6.1367842e-01  -8.3512409e-03   6.4849406e-01   5.5393086e-01   9.4133439e-01  -5.3356782e-01   6.0929898e-01  -9.7323857e-01   4.0394061e-02  -9.0006809e-01  -3.2703181e-01  -1.7351649e-01   9.4509871e-01   9.0889226e-02  -2.4786583e-01  -6.8310246e-01   5.1529158e-01  -6.7608775e-01  -1.4015886e-01  -4.0441684e-01   9.9433234e-01  -7.3752850e-01  -5.8023241e-01   6.5525978e-03   3.7556895e-01   1.6548821e-01  -3.5481902e-01   3.0344652e-01  -8.0130332e-01  -2.1278891e-01  -8.3435245e-01  -6.2472852e-01  -2.4730521e-01  -8.2441785e-02  -4.8281411e-01   5.6745416e-01   9.5553351e-01  -9.9478443e-01  -4.6187930e-01  -6.8667227e-01   1.5996517e-01   4.2358999e-01  -2.7258458e-01   5.6960650e-01   9.7493928e-01   4.9673443e-01   5.1204179e-01   6.6514534e-01   9.4773650e-01   3.1257931e-01   2.1031606e-01   4.9569345e-01   5.9682873e-01   3.8891350e-01   7.2129170e-01   2.0569121e-01   8.7663068e-01   8.6368972e-02  -8.2161718e-01  -2.9354000e-01   9.5089959e-01  -3.2335476e-01   3.5120407e-01   8.2665276e-01   2.5621859e-01   6.5253206e-01   5.8834780e-01  -1.5204830e-01  -5.7437429e-01   7.5927210e-01  -3.7284217e-01  -4.7546451e-01   7.6086620e-01   3.7204831e-02  -7.2331618e-02   7.3195794e-01  -5.9194477e-01  -7.8286148e-01   6.4042959e-01  -5.0597809e-01   2.7922280e-01   7.6552454e-01  -1.5264958e-01   4.6118424e-01   9.5627113e-01   3.3847280e-01   5.6157556e-01  -8.6241631e-01   3.8441172e-02   1.8493722e-01  -5.5526797e-01  -1.8444638e-02  -9.0028905e-01  -5.2643621e-01  -7.3951085e-01  -3.4479057e-01   5.8678774e-01   7.5316642e-01   9.3377607e-01   8.4841774e-01  -8.5639431e-01  -1.3267272e-01  -4.3451992e-01  -3.4253086e-01  -4.7497221e-01   9.0621868e-01  -1.4775327e-01  -8.1524076e-02  -2.6684927e-01   5.6779608e-01   2.5892331e-01  -6.0058556e-01   2.0078335e-01   1.6139261e-01   8.6971224e-01  -4.2837868e-01   2.4080626e-01   5.6818045e-01  -5.2056134e-01   6.3245351e-01   8.5458949e-01   6.0193085e-01  -8.9068212e-01  -7.4402490e-01  -4.2279126e-01   5.0859134e-01   9.4817292e-01   8.1184864e-01  -5.5403183e-01  -8.5324616e-01   5.9346589e-01   9.7465546e-01  -2.2146192e-01  -1.5769362e-01  -2.8624140e-01   8.4791583e-01  -7.0081944e-01  -1.6778321e-01   7.6959248e-01  -8.0199602e-02   7.3459865e-01  -7.9690536e-01  -5.9956186e-01   8.0069447e-01   4.5007634e-01   7.4437440e-01   8.0814962e-01   6.9113285e-01   1.8581532e-01  -4.6713129e-01  -4.7312576e-01  -6.1521699e-01  -9.9678033e-01  -7.7974895e-01  -9.6775766e-01  -8.1297710e-01   3.1827275e-01   3.1986689e-01   8.1945446e-01  -4.6796715e-01  -6.2076430e-01  -1.0327362e-01  -6.0318845e-02   7.3852468e-01   9.7684794e-01  -9.7790578e-01   1.2406836e-01  -3.0976815e-01  -8.4864450e-01  -5.5678255e-01   3.0385290e-01   1.3106152e-01   3.2425107e-01   9.8196947e-02   6.1598129e-01   4.2451422e-01  -5.2330793e-02  -3.8296439e-01   5.4844828e-02   2.4729840e-01   3.7915384e-01  -5.0897659e-01  -9.7572427e-01   1.3694681e-02   1.7136353e-01  -1.8049939e-01   9.8647261e-01  -2.4533375e-01   3.3956194e-01   8.9851252e-01   2.1087202e-01   8.8665527e-01  -7.2993160e-01   2.1053238e-01  -7.4952513e-01   3.4835947e-01   8.4935739e-01  -9.1837110e-01  -9.1286168e-01   7.5637879e-01  -5.7993153e-01   9.3355561e-01   7.4557115e-02  -2.1427194e-01  -2.5006108e-01   5.1677549e-02   7.9432602e-01   2.2974862e-01  -9.5322876e-01   1.5145908e-01  -1.9433208e-02  -6.2436065e-01   7.2778842e-01  -5.6981373e-01   5.7709760e-01  -9.4258846e-01   5.7346951e-01  -2.6482074e-01  -6.4051973e-01   4.7057633e-01  -9.8781681e-01   3.1432428e-01   5.4368284e-01  -6.6764933e-01   4.2557365e-01   6.3950962e-01   3.7188744e-01  -4.2527369e-01   8.6090581e-01  -9.3372127e-01  -7.7507472e-02   4.3620586e-01   2.6144204e-01   1.2005426e-01  -8.5849097e-01  -7.3566683e-01  -6.7540633e-01  -6.3717033e-02   9.0611259e-01   4.1109880e-01  -9.4891831e-01   5.8815013e-01  -5.9113386e-01   2.0787664e-01   6.3159770e-01  -2.0611165e-01  -4.2418774e-02  -4.5977811e-01   7.1695093e-01  -5.1035993e-01  -3.2901687e-02   6.2772270e-01   6.5933647e-01  -6.6741420e-01  -8.4226421e-01  -8.8041021e-01   3.8969798e-01  -1.3715459e-01  -6.0888837e-02   6.4956583e-01  -8.2144303e-01  -6.0940326e-01  -9.8901974e-01   8.6962846e-02  -3.4413252e-01   1.1321147e-01   9.0308383e-01   8.7407986e-01  -6.9321235e-02  -5.2789267e-01   4.3755816e-01  -4.7686204e-01  -2.1826542e-02  -1.7874623e-01  -2.8637908e-02  -1.8491046e-01   3.2284400e-01  -2.9558962e-01  -9.1307840e-01  -1.0196559e-01  -9.7684057e-01   4.6195146e-01   5.9751911e-01   6.0163074e-01   8.8121626e-01   5.6252164e-01   8.7534400e-01  -5.9641764e-01  -5.0517582e-01   2.2050705e-02  -8.5477589e-01   3.3770310e-01   7.8008563e-01  -2.2999965e-01   7.3581355e-01   3.7035892e-01  -1.0785680e-01  -6.3933918e-01   2.3293147e-01   5.3760373e-01  -5.9417360e-01  -3.3264118e-01  -8.5404246e-01  -6.6855382e-01   5.9044174e-02  -9.2498610e-02  -9.4777576e-01  -9.1120197e-01  -7.7291154e-01  -9.1324117e-01  -2.0652530e-01  -4.6346226e-01   1.0263457e-02   2.9918574e-01  -9.5237788e-01  -9.0100421e-01  -8.2900708e-02  -3.8471630e-01   2.8252088e-01   2.5571737e-01  -3.2409732e-01   7.5374350e-03  -4.7346358e-01   3.8646613e-01   4.1746320e-01   3.6443109e-01   3.5689502e-01   4.2336913e-01   7.5704005e-01  -7.9823643e-01  -2.9829131e-01   8.8798477e-01   4.9424859e-01  -9.8588497e-01   3.1153361e-02   6.3074749e-01  -1.4637357e-01  -4.6077469e-01  -2.7929391e-01  -7.9594598e-01  -6.8160168e-01  -1.9193519e-01  -2.0826893e-01   5.0118338e-01   2.6767624e-01  -7.0928780e-01   3.5336403e-01   3.7863025e-01  -1.5025449e-01   8.5666191e-01  -9.1717726e-01  -4.1609565e-01  -3.7172147e-03  -6.2766773e-01  -3.9024242e-01  -2.1535990e-01   7.7154830e-01   4.8811166e-01   9.8729757e-01
  -6.7805634e-01  -8.1275458e-01   3.8722358e-01   2.5933875e-01  -6.5983639e-01   7.3422212e-01   5.4689117e-01  -3.0953665e-01  -2.9335126e-01   3.2515713e-01  -2.6118551e-01  -7.1557862e-01  -3.8488007e-02  -4.9592868e-01   3.0601559e-01  -4.1243025e-01   6.6656557e-01  -8.4750339e-01  -4.4285954e-01   9.5645028e-01   8.0946798e-01   6.5591385e-01   6.3083717e-01  -1.5410758e-01   7.3916821e-01   1.1030088e-01  -5.8454242e-01  -2.7178842e-01  -6.2466593e-01   3.9776942e-01  -1.1834496e-01  -8.8752836e-01  -8.3863873e-01   8.1166119e-01  -2.7663862e-01  -1.3890299e-02  -2.3260342e-01  -6.8470483e-01   1.7426545e-01   7.3848451e-01   3.7949736e-01   9.3448943e-01  -4.4122354e-01   3.8560790e-01  -4.8131490e-02   2.7151586e-01  -9.3576905e-01  -6.8061090e-01  -7.7158294e-01   7.5833414e-01  -7.4116659e-01  -6.4008673e-01   3.3344515e-01  -9.7881535e-01  -7.4907355e-02  -2.9460883e-01  -9.6976285e-01  -7.4482819e-01  -3.4890568e-02  -2.0011202e-02   9.2138886e-01   5.2055127e-01  -3.5987949e-01  -4.8035215e-01  -9.4021110e-01   5.4753724e-01   4.3792574e-01   6.2570852e-01  -9.2851730e-01   6.4753897e-01  -6.6744300e-01   5.6880722e-01  -7.8482354e-01   2.9339140e-01   3.6948178e-01  -6.5083013e-01   5.8239362e-01  -8.2475263e-01   9.7382294e-02  -3.8563588e-02   6.1922756e-01  -8.2280950e-02   2.8314461e-02  -2.8428142e-01   6.2898057e-01  -1.4913258e-01  -5.3299413e-01   9.8522982e-01  -5.4908798e-01  -1.4404496e-01  -3.5869374e-01  -7.9585833e-01  -1.4812277e-01   1.2795780e-01  -8.2423457e-01  -1.4751060e-01   6.6808934e-01   7.4356083e-01   6.9417899e-01  -8.3913255e-01   4.9646085e-02   8.5448309e-01  -2.4298693e-01  -9.2284692e-01   1.4817151e-01   9.8715668e-01   8.0331818e-01   8.8434017e-01   3.4700589e-01   2.6287783e-01  -4.3204852e-01   5.6624778e-01   8.4046882e-01   8.5836112e-01  -9.8477088e-01  -5.8168754e-01   4.8758198e-02  -7.0156648e-01   2.3026437e-01   7.5882777e-01   6.7596242e-01  -6.8041493e-01   1.7196051e-01  -5.6944875e-01  -1.3775550e-01   8.2381917e-01   5.9064533e-01   7.5388415e-01   7.4503347e-01   7.0277473e-02   4.5000294e-01  -8.5608868e-01   8.3023606e-02   8.2086715e-01   2.4933423e-02  -2.5382217e-01   6.7600801e-01  -2.2252558e-02   8.2714163e-01   4.3070060e-01  -1.3025517e-01  -9.5480321e-01  -5.1691400e-01   4.3807153e-01  -1.8002813e-01  -8.2080806e-01  -4.4415078e-01   2.2835369e-01   4.2553508e-01  -7.6003646e-01  -7.0369364e-01  -1.1978036e-01  -3.7141770e-01  -6.2178934e-01  -1.6144354e-01  -2.6521519e-01  -6.0417631e-01   5.5844774e-01   9.5431392e-02   2.7950227e-01   1.3212027e-01  -8.3638855e-01  -1.2253870e-01   7.2002958e-03  -2.0728929e-01  -7.9803709e-01   9.0751334e-01  -2.5340362e-01   2.2978134e-01   6.1212905e-01   3.6319737e-01  -2.5619048e-02  -2.1999898e-01  -6.7881119e-02   6.6630118e-01   8.2152082e-01  -8.2281770e-02   9.9681886e-01  -5.0280670e-01  -2.0860867e-01   4.1646943e-01  -3.3089309e-01   2.8169419e-01   2.6016095e-01   8.9760830e-01   6.6782691e-02   4.1432290e-01  -5.6175471e-01  -5.4876597e-02  -7.9633357e-01   1.5678107e-01  -8.8041648e-03  -3.8732171e-01  -4.5647125e-01   3.9186093e-01  -9.5600085e-01   3.6852301e-01   2.7053349e-01  -7.1942671e-01  -5.9309803e-01   4.6431810e-01  -1.8964943e-01  -3.3305020e-01   2.3400565e-01  -8.1914533e-01  -7.5067290e-01   3.9096279e-01  -3.1194321e-01   4.3202140e-01  -3.9945082e-01   2.0510302e-01  -9.5894235e-01  -1.3148023e-01  -4.5114999e-01  -8.9348583e-01  -9.4529357e-01   7.9898431e-01   6.3037554e-02  -7.8669326e-01  -5.1175132e-02  -1.4682532e-01  -8.8847304e-01   1.5935275e-01   4.8046738e-01  -7.9026397e-01   7.4596597e-01   9.5633595e-01  -5.8692453e-01  -1.8118055e-02  -7.9719108e-01   7.5861180e-01  -2.7248669e-01   9.7728630e-01   5.2986185e-02   1.4880226e-01  -5.4470252e-01   8.6854391e-01  -2.5716918e-01  -6.7969375e-01   3.5920259e-01   6.2633223e-01   4.1309466e-01  -5.0141466e-01  -3.3055017e-01  -6.8464861e-01   6.7917105e-01  -4.9985793e-02  -1.9381229e-01  -3.9356733e-01   4.6940136e-01  -2.2132640e-01  -6.2903327e-01   5.1056643e-01  -6.4515620e-01  -7.2092951e-01  -6.4092770e-01  -4.1348845e-01   8.9691571e-01  -4.2855092e-01   9.9526673e-01   7.3155673e-02   5.5626632e-01  -3.4698838e-01  -9.4950719e-02  -7.8895275e-01   3.3998029e-01  -5.5362692e-01  -6.2129476e-01   5.5703039e-01  -2.3536938e-01  -3.9690009e-01   5.0866054e-01   2.6607734e-01  -7.1973909e-01   9.8887530e-01   2.8608638e-01   7.0438784e-01   3.6322154e-01   7.4272179e-02  -6.1134904e-01  -4.6788484e-01   9.1867712e-01   8.5553499e-01   5.6254312e-01  -4.6404798e-01   6.7702267e-02   3.9318636e-02  -4.6587558e-01  -6.5408377e-01   6.4357133e-01   2.2011144e-01   3.8655563e-01  -4.3665106e-01   6.0334770e-01  -5.6051034e-01   8.8418634e-01   2.0716736e-01  -8.0143707e-01  -5.4480544e-01   8.9918226e-01   1.6360668e-01   2.2814882e-01   6.6718868e-01   5.1330225e-01   9.0099169e-01   4.4415256e-01  -1.7369925e-01   2.9030400e-01   9.3959683e-01   3.4315790e-01   7.5961262e-01   7.9043208e-01  -7.0407042e-01  -1.6368095e-03   4.9293350e-01  -6.0560642e-01   5.0510369e-01  -8.0308660e-01   6.4312714e-01  -2.8622603e-01  -9.1823599e-01  -7.9445883e-01  -2.0307291e-01  -5.2881320e-01   8.7220235e-01   1.5714125e-01  -5.1894572e-01  -9.0840937e-01  -9.2760408e-01   3.6040486e-01  -5.8075169e-01   8.8176037e-01   7.7548073e-01  -3.7045913e-01  -7.9018833e-01  -6.4862759e-01   4.1808941e-01   1.4545914e-01   9.3713649e-01  -4.8663295e-01   2.0395779e-01  -4.9743647e-01  -7.3006673e-01  -8.3195422e-01  -3.0063946e-01   3.3512839e-01   2.3646383e-01   7.3442138e-01   9.1656919e-01   9.8297776e-01  -1.4725303e-01  -8.6048644e-01  -4.6555651e-01  -4.9395665e-02  -5.8048419e-01   8.4556028e-01  -5.6680802e-01  -9.2913765e-01   2.4466827e-01  -9.0253162e-01   5.9906792e-01   5.5632742e-03  -5.2462077e-02   3.2805305e-01  -1.7160112e-01  -1.1003587e-02  -3.6349903e-02   9.3034244e-01  -8.1570215e-01   9.7243166e-01   1.2186671e-01  -9.1691431e-01   1.1020699e-01  -6.7346063e-01   2.5646777e-01  -8.9329549e-01  -3.2738324e-01   1.6908399e-02  -4.9554115e-01  -9.5478821e-01  -5.9197112e-01  -1.9782358e-01  -4.4672898e-01   4.8361698e-01  -4.9563746e-01   8.8937680e-01  -6.1105977e-01  -7.7519102e-01  -6.5847263e-01  -1.2872908e-01   4.4309248e-01  -3.0940895e-01   6.5785456e-01   6.1350417e-01   7.2750918e-01  -5.9741655e-01   3.0802545e-01   6.0346315e-01   2.2392248e-01   8.9680507e-02   2.8682704e-01   7.7891683e-02  -9.9414465e-03  -6.5124933e-01   5.7561488e-02  -2.3293790e-01  -2.3833136e-01   6.5265542e-01   9.5580968e-01  -3.2343162e-01  -5.3304868e-02  -5.8804685e-01  -2.7850543e-01  -9.8349606e-03   7.6190847e-01   2.7135075e-01  -4.3260426e-01   3.1667926e-01   2.5044745e-01   4.0404741e-01  -1.6446245e-01   7.6509947e-01   5.3815413e-01  -4.0293192e-01   6.2623439e-01  -5.2530325e-01   7.6952038e-01   3.0900271e-01   9.2876146e-01   3.8922779e-01   4.0698211e-01   6.1180971e-01  -1.3128524e-01   3.2554591e-01   6.3293891e-01  -7.5363713e-01  -3.5304674e-01   3.6945689e-01  -9.5207239e-01  -1.7003507e-01  -6.1813010e-01  -1.5387840e-01   1.8061246e-02  -3.6652156e-01   8.6108837e-01  -9.4889045e-01  -4.4430119e-01  -4.8633495e-01   2.9418778e-01  -8.6640141e-01   2.4994536e-01  -9.3419789e-01   8.4939574e-01  -5.4035239e-01  -7.2618819e-01   9.2811627e-02  -6.1140514e-01  -5.7921701e-01   6.1262827e-01  -4.9583866e-01   5.6361668e-01  -5.2625533e-01   8.9066103e-01  -9.5399118e-01  -5.7857101e-01  -4.3822263e-01  -4.7877096e-01  -1.1480452e-01   9.4955768e-01   7.4326941e-01  -6.6963953e-01   1.2956459e-02   4.5226066e-01   8.3771351e-01  -1.6588807e-01  -4.2800970e-01  -7.1050685e-01  -5.8534023e-01   4.4059328e-01   4.0499709e-02   4.0349196e-01   9.4890692e-01  -9.1508731e-01   7.4542572e-01  -5.9520286e-01   1.0459365e-01  -6.7065219e-01   9.4857012e-01  -3.4532773e-01  -1.4463283e-01  -5.3947783e-01   8.3433891e-01   1.1265275e-01   2.9501165e-01   4.3465373e-01   5.1939023e-01  -8.2176547e-01  -5.9076727e-01  -7.2888829e-02   7.1571774e-01  -2.6208520e-01   1.7184091e-01  -3.4597736e-01   6.5198701e-01  -8.1678200e-01   7.6588738e-01   3.4264135e-01  -1.8750023e-01   7.3596906e-01   4.9433441e-01  -4.2622222e-01   6.7931033e-01  -6.2000637e-01  -4.2698272e-01  -9.5884727e-02  -7.1664815e-01  -3.2772818e-02   1.9914241e-01   9.2135137e-01  -7.3357401e-01  -9.7326483e-01   7.9783997e-01  -2.4062758e-01   4.4321004e-01  -9.0227745e-04   5.4637197e-01   8.2693022e-01   4.8595187e-01   5.4421225e-02  -8.1624047e-01   6.4583882e-01   2.4901360e-01   9.9392320e-01  -4.3682878e-01   9.9966593e-01  -1.3693876e-01   8.9315140e-01   6.4401563e-01   7.5815661e-01   4.4167400e-01  -7.6848504e-01   4.1991796e-01   1.3261869e-01  -6.9803134e-01  -5.6143356e-01   3.8543397e-01  -7.6934584e-01  -2.9296359e-01   1.7605837e-01   2.7133485e-02   2.0296443e-01  -7.7592776e-01   2.2459764e-01   5.2328392e-01  -4.4311146e-01   3.6065764e-01   1.1036814e-01   9.2050156e-01   9.9592561e-01  -9.7274739e-01   6.1880489e-02  -1.4207116e-01   9.9425025e-01  -4.4333564e-01  -5.7597963e-01  -4.7605828e-02   3.4855149e-02  -2.8346401e-01   7.5905478e-01  -8.5096688e-01   4.7700369e-01  -3.5592366e-01  -8.0855638e-01   1.3625250e-01  -5.3893855e-01   5.9623744e-01  -2.7625486e-01  -4.6597195e-01  -2.9999923e-01   2.4537393e-01  -6.5299673e-01   5.5020414e-01   8.4180311e-01   1.6216713e-01  -1.3792495e-01   2.8606516e-01   3.7123394e-01   3.6946730e-01   3.4288997e-01  -2.2442905e-01   4.4422275e-01  -8.1950613e-02  -4.0938803e-01   7.5136436e-01   4.4907197e-01   2.7115198e-01   9.2016670e-01   3.6486824e-01  -9.8946573e-01   9.7258179e-03   9.1601672e-01   1.9767500e-01   2.1352090e-01  -4.2768785e-02   1.9910466e-01   5.8832146e-01  -7.2192090e-01   6.5337078e-01  -1.6545777e-02  -4.8034474e-01  -6.7100590e-01  -7.2266901e-01  -6.1005416e-01   7.5280879e-02   5.4204416e-01   6.8831814e-01  -4.9271715e-01  -4.7636312e-01   2.5358531e-01   9.8090147e-01   8.1891405e-01  -2.8190372e-01   2.7329054e-01   2.8775710e-01   4.8456023e-01   7.6786580e-01  -3.3189273e-01   3.0419353e-01  -4.0658523e-01  -5.7601490e-01  -5.4214522e-01  -3.7210666e-01  -9.4293253e-01   3.8365146e-01   2.4139903e-01   3.8468787e-01   4.9639735e-01   5.9717213e-01   3.3046439e-01  -3.6872632e-01  -9.7365175e-01  -2.5731233e-01  -7.8170677e-01   8.6136508e-02   8.7288361e-01  -1.5873681e-01  -8.6216182e-01   3.6730388e-01  -4.8473665e-01   6.7257813e-01   6.4541569e-01   3.0358152e-01   9.7450757e-01  -3.0597615e-01   7.4771365e-01  -3.1499827e-01  -5.2666024e-01  -8.1259306e-01  -9.6965283e-02   1.1573243e-01   3.6746461e-01   6.2608751e-01   9.3218174e-01  -6.4978860e-01  -5.8072733e-01   8.1988139e-01   1.9423991e-01   7.8925575e-01   3.8347980e-01  -1.5298578e-01  -8.7684805e-01  -3.9849380e-01   5.5497120e-01   5.1910394e-01   6.1192792e-01  -7.5832599e-01  -5.2871924e-01   2.1872024e-01  -1.4162376e-01  -8.0872512e-03   2.7846640e-01  -2.8610635e-01  -6.5900890e-01   3.8840685e-01   5.4131597e-01  -4.4427410e-01   7.8049290e-01   4.5336353e-01  -6.0187312e-01  -7.8438888e-01   5.1205745e-01   1.0654177e-01  -3.3803753e-01  -6.8102176e-01   7.6680428e-01   6.4148549e-01   5.2665959e-01  -5.9029183e-01  -9.1563843e-01  -2.8645931e-01  -7.0827035e-01  -9.3102987e-01  -4.6816128e-01   3.4510892e-01   3.4793535e-01  -8.9938966e-01  -8.4707997e-02  -9.4253153e-02   4.2703075e-01  -2.8379210e-02  -9.6770345e-01  -7.8661914e-01  -6.5906724e-02  -3.9370440e-01  -5.0680003e-01  -8.6245993e-01  -4.1533093e-01   4.9823451e-01  -6.0198494e-01  -9.2129080e-01   8.6985661e-01  -5.9570410e-01   7.5556669e-01  -4.0648733e-02   6.9399209e-01  -1.7227507e-01  -7.4013236e-02   5.3827151e-01   1.5021931e-01   3.8139486e-01  -8.9488860e-01  -2.0790202e-01  -4.7021336e-01   1.6098803e-01   3.8312260e-02   6.6605234e-01   5.4686492e-01   6.4365417e-01   9.4637798e-01   9.7123099e-01   3.6527023e-01   7.3402620e-01  -6.7915669e-01  -2.2195510e-01  -2.7765818e-01   5.1806447e-02   1.1280557e-01   1.3169675e-01  -4.5892225e-02  -3.6033516e-01   1.5133881e-01  -2.9261714e-01  -1.4179220e-01  -6.2735493e-01   1.0702951e-02  -9.1565635e-01   5.3718886e-01  -5.7648124e-01  -2.2649886e-01  -7.7876109e-02   3.4148993e-01  -5.9988471e-01   9.3467355e-01   9.4821035e-01   9.8565390e-01   7.1501609e-01   6.4779438e-01   2.4271435e-01   2.2889927e-01   7.9335977e-01   8.5710772e-01   2.0687644e-04   5.2491144e-01  -9.6398473e-01  -4.9849833e-01  -9.8141393e-01   8.0388265e-01   7.3912076e-01  -9.7681714e-01  -8.2774779e-01  -9.8661433e-01  -7.6390762e-01   7.6491767e-01   5.0096547e-01   3.3338306e-01  -3.3462780e-01  -8.5248428e-01  -8.5181977e-01   9.4736223e-01  -2.3554529e-01  -3.4895375e-01   5.6818228e-01  -9.0194616e-01  -9.7336999e-02  -8.8305345e-01  -1.3866774e-01   5.8156918e-01   5.1635995e-01   8.2029297e-01   4.6379317e-01  -5.5076934e-01   3.5896059e-01   1.9694729e-01   2.4525175e-02   7.8092314e-01   5.7398496e-01   5.3709067e-01  -3.0223993e-01  -4.9065398e-01   3.0993839e-01   8.0590663e-01   5.0959750e-02  -6.2727502e-01  -7.9582945e-01   5.0835723e-01   8.1363613e-01   6.6196681e-04   3.0689818e-01   2.9077704e-01   5.6496454e-01   4.8857140e-01   5.1627706e-01  -5.6038876e-01   1.5107081e-01   7.1023683e-01   3.5219139e-01   3.9395792e-01   3.1583168e-01   8.7268308e-01   3.5891352e-01   8.4090449e-01   4.8554805e-02  -9.1672839e-01   6.2900638e-01   5.7856821e-01   6.1397816e-01  -3.7583305e-01  -8.1717467e-01  -1.5621594e-01   8.4944735e-01   2.5289844e-01   5.9780945e-01  -6.3845182e-01  -7.3265731e-01  -8.6255687e-01   5.8752318e-01   3.4900963e-01   6.5768511e-01  -6.6317419e-01  -2.0071214e-01   3.3004597e-01  -2.3175084e-02   1.1682279e-01   5.7543362e-01   4.0856042e-01  -3.3897043e-01   9.5901394e-01  -8.8871174e-01   9.0172555e-01   1.3787677e-01   5.3937362e-01   5.4353982e-01   5.7035895e-01   5.0190126e-01   2.8138731e-01   3.9238069e-01  -1.6350060e-01   8.9636189e-01  -1.3489082e-01   9.7605641e-01  -3.3740402e-01   7.5038985e-01  -1.8568497e-01   1.3642407e-01  -7.9385532e-01   4.0968166e-01  -3.8006674e-01   1.1280688e-01   6.1892686e-04   6.5153909e-01  -4.0515777e-01   4.7306002e-01   8.5907450e-01   5.6529298e-01  -8.4070733e-01  -3.3698542e-01   1.5544212e-01   8.0642670e-01  -1.1493699e-01  -3.5911331e-01   3.6930152e-02   2.5710510e-01   6.7423785e-01  -8.8570600e-01   7.9754940e-01   8.6622029e-01   9.3812968e-01  -5.8765138e-01   5.8824953e-01  -1.0820716e-01   7.5628046e-01   7.3159418e-01   1.7410380e-01   4.8947521e-01   7.1166925e-01  -4.0524490e-01   3.0290541e-01  -1.8259935e-02  -9.4852696e-01  -4.5886195e-01   8.9300808e-01   7.0191156e-01   1.5679298e-01  -8.0327842e-01   1.5470975e-01   6.7281955e-01  -4.5065735e-01  -6.2326682e-01  -9.2630058e-01  -7.2117008e-01  -4.7292970e-01   2.0405311e-01   7.0524627e-01   1.6465079e-01   6.9341141e-01  -7.7539738e-01   1.4913027e-01   7.4239427e-01   1.8035643e-01   9.4682839e-02  -6.7841573e-01  -8.9423112e-01   6.7105952e-01  -4.2417443e-01   9.6105230e-01   2.6581101e-01   2.0189341e-01  -6.7430197e-01   9.5146574e-01  -7.4430095e-01  -4.1131265e-01   7.2278669e-01   2.7885410e-01  -9.7716688e-01  -6.1692510e-01   5.1823588e-01   9.3749698e-01  -5.1342962e-01   9.6370655e-01  -5.4777156e-01  -6.5124173e-01   6.5963100e-01  -4.4639245e-01  -1.7042907e-01  -4.1685973e-01   7.6645332e-01  -1.6717538e-01  -4.6015464e-01   9.2076991e-01   4.4355347e-01   4.4265037e-01  -6.3629812e-01   1.2499591e-01   7.7723059e-01  -8.1348520e-02   1.6139149e-01  -6.5859342e-01  -6.4586609e-01  -5.2998704e-01  -6.8825361e-01  -3.5161866e-01   4.6630171e-01   4.1444226e-01   5.2490747e-01  -2.8949559e-01  -9.2650828e-01  -8.0153416e-01   9.9468089e-01   5.3679086e-01   1.0907500e-02   7.8732016e-02   7.1338583e-01  -9.2066653e-01  -6.4974663e-01   4.3922840e-01  -3.3928861e-01   1.4337364e-01   7.0424732e-01   9.4499671e-02   1.6569124e-01  -4.2034494e-01  -2.2652396e-02   6.6373376e-01  -4.5270311e-01  -4.4326473e-01   2.3430430e-02  -8.1305090e-01   8.3788485e-01  -6.0243754e-01   6.2529005e-01
   5.6415858e-01   6.3985513e-01   1.9895318e-01  -4.5787027e-03   8.9525904e-01   5.3969564e-01  -1.8376731e-01  -6.3799563e-01  -7.9331398e-01   5.8133718e-02   8.4246303e-02  -5.5906314e-01  -6.4906326e-01  -4.5338549e-01   3.5925631e-01  -7.8684998e-01   7.2330855e-01  -6.9330539e-01   6.9221906e-01  -3.5698853e-01  -3.7712362e-02   9.0267742e-01  -7.7672950e-01  -4.0706174e-01  -2.0170797e-01   3.9021919e-01   2.9471422e-02   6.0749847e-01   5.8506410e-01  -9.0331010e-01   8.9026593e-01  -4.3847267e-01  -9.1847918e-01  -3.3317422e-01   6.8466414e-01   2.6012924e-01  -5.7993763e-01  -2.4332231e-01  -7.9585078e-01   9.0150448e-01  -6.1695371e-01  -4.8615966e-01   1.1861507e-01  -1.7660918e-01  -1.9353511e-01   9.0467048e-01  -9.5418332e-01   7.6387556e-02  -6.0666310e-04  -6.6400596e-01   3.7210642e-01  -9.1596008e-01   2.3049342e-01   5.1484775e-02   6.6203024e-01   1.9468176e-01  -7.2116637e-01  -5.4089591e-01   2.0540058e-01  -8.3771800e-01  -9.0668605e-01  -3.8112090e-01   1.3937121e-01   5.4186986e-01   2.0507648e-01  -4.5929346e-01  -4.2286446e-01   5.0719976e-01  -8.9695693e-01  -1.7742252e-01   7.7534778e-01  -8.2837656e-02   7.2392822e-01  -7.2645354e-01  -7.8054431e-01   4.9100849e-01   6.5583461e-01  -5.6064140e-01  -8.7258777e-01   5.0293626e-01  -1.3575712e-01   3.5137132e-01  -9.5417480e-01   4.3258354e-01   6.1408457e-01  -4.1276712e-01   8.5038626e-01  -5.5080673e-01   7.4669367e-02  -9.2395209e-01   9.8409043e-01  -6.2707511e-01  -5.9415351e-01  -6.3187924e-01  -9.1030017e-01   8.0063919e-01   3.8623492e-01  -7.9445307e-01  -9.4332077e-02  -2.6955612e-03   5.6421512e-02   6.6053697e-01   8.6616840e-01   3.3460570e-01  -3.8538231e-01   8.6837918e-01   7.2478792e-01  -2.1581314e-01  -7.2648862e-01  -3.9860381e-01   1.2228959e-01   2.9632549e-01  -8.2243857e-01  -5.3753447e-01  -7.9249490e-01  -7.0134974e-01  -1.3925160e-02   5.8661006e-01  -2.9402607e-01  -8.3885725e-01  -4.4590804e-01  -9.1391239e-01   2.2946700e-01  -2.2176702e-01   5.6435756e-01  -1.3306281e-01   5.0387154e-01  -7.2274760e-01   3.5037922e-01   1.6406045e-01  -2.7648397e-01  -5.6441856e-01   6.5368222e-01  -9.7940011e-01   6.2914921e-01  -5.4884701e-01  -4.7646135e-01   7.2748256e-01   8.8398196e-01  -6.3130375e-01  -2.1114294e-01  -3.8894020e-01   5.0533527e-01   7.0017092e-01   3.4660575e-01  -5.3727431e-01  -5.9366433e-01  -3.8410752e-01   5.0569725e-01   8.2694431e-01   8.9588664e-01   8.9813525e-01   5.0102777e-01  -3.3883527e-01  -9.8835295e-01   7.9627317e-01  -1.9693589e-01  -1.8581843e-01   6.5640364e-01   5.7171825e-01   8.4449976e-02  -1.0683092e-01  -8.6710298e-01   2.6235152e-01   1.0299372e-01  -9.6424366e-01   7.3012964e-01   3.4217128e-02   5.0214312e-02  -8.4673916e-01   8.7390388e-01   8.0925907e-01   2.1899784e-01   6.8973618e-01   1.6293769e-01   8.0919780e-01   3.8696501e-02   9.6355149e-01  -5.6068103e-01  -5.5982751e-01  -8.0605023e-01   4.6915366e-02  -4.7983268e-01  -5.0610093e-01  -4.2126880e-01  -5.5480268e-02  -1.4380702e-01  -7.2203863e-02  -6.1688967e-02   2.4115823e-01   9.9628660e-01  -9.3823219e-01   5.6393841e-02  -9.6845698e-01   6.6115956e-02   7.5892015e-01  -9.1860830e-02   9.8236497e-01  -1.4243099e-01  -6.3895299e-01   3.5714236e-01   6.7664486e-01   5.5922683e-02   9.0083027e-02  -5.1263299e-01   5.6818519e-01  -8.0756534e-02   5.4046019e-01   3.7559855e-01   7.5560082e-01   9.2694014e-01  -4.2031589e-01  -9.4125892e-01   6.9884792e-02  -5.3981118e-01   9.9386116e-01  -4.4718006e-02  -5.0858376e-01   9.6951220e-01  -4.2230033e-01  -5.5903600e-01  -5.2943066e-01   7.2992475e-01  -1.7186686e-01   4.7824836e-01   4.9462580e-01   5.6310446e-02   6.5756278e-01   9.8569060e-01  -6.0682234e-01   3.0960324e-01   2.2851373e-01   5.0740388e-01   6.3904524e-01  -3.2586582e-01   3.0240239e-01  -1.0689951e-01   6.8083055e-01   8.7198989e-01   9.3547130e-01   4.8055746e-01  -3.3729965e-01  -5.8338302e-01   7.2033729e-01   1.9195875e-01  -9.3396394e-01   9.6134823e-01   4.8006254e-01  -1.7476474e-01   5.6815307e-01   6.0383866e-01   4.4358075e-01   7.6098950e-01  -7.4996229e-01   8.0218092e-01   8.2279772e-02   9.5778659e-01   2.1597084e-01   4.2072978e-01   5.6581741e-01  -4.2582778e-01   3.5169461e-01   3.8400285e-01  -9.3776684e-01  -5.5328744e-01   8.6473277e-01  -2.8391271e-01   8.4953506e-01   2.5162791e-01  -8.7877295e-01   2.1061715e-02   9.4825206e-02   9.8683062e-01   4.3490566e-01  -2.0716620e-01  -8.5602990e-01   1.5373000e-01  -2.6295192e-01  -7.3398268e-01   1.8941125e-01   3.6345364e-01  -3.8656324e-01   5.4410631e-01   5.1219698e-01   7.6676266e-01   8.2828361e-01  -1.8485419e-01   1.5886189e-01  -3.5018695e-01  -3.3685258e-01  -3.5399427e-01  -3.0789062e-01  -9.5053097e-01   8.6914529e-01  -1.3313342e-01   9.8226753e-01   2.5583898e-01   8.6615956e-01   2.5482733e-01  -6.1185190e-01   4.3312229e-01   6.8051353e-01  -1.6793958e-01   7.2470700e-01   8.9138409e-01  -8.1965149e-01   1.9169785e-01   5.0938173e-01  -8.7983857e-01   2.5102379e-01  -2.6962454e-01  -3.9395533e-01  -1.0488627e-01  -9.0895621e-01   6.6461144e-01   2.9715705e-01   8.9855879e-01  -6.3640789e-01  -4.1675408e-01  -9.0560702e-01  -9.7704449e-01  -4.4549664e-01  -3.5509758e-01  -5.8747085e-01   8.5838743e-01   9.7453653e-01  -9.0695004e-01   7.6194210e-01  -5.9232336e-01   6.2754701e-02   7.3012595e-01   8.7557319e-01  -2.0894477e-01   2.3321620e-01  -9.3948168e-01  -1.7919815e-01  -1.9519385e-01  -1.2252999e-01  -9.7298550e-01  -1.3453871e-01   1.5194718e-01   1.2449153e-01   8.9945833e-01   4.1808217e-01  -6.4106103e-01   1.2125939e-01  -3.9550013e-01   7.9297137e-01  -9.4655907e-02  -6.4760828e-01   8.0114517e-01  -6.1195172e-01   6.2695820e-01   3.4555244e-03  -9.6039533e-02   8.7351889e-02   5.4782826e-01  -1.7367186e-01  -1.9074499e-01   8.1108864e-02   6.7710396e-01  -3.1492220e-02   6.6607057e-02  -7.5499374e-01   4.8499122e-01   6.5178876e-01   2.7526630e-01   1.2999625e-01  -3.1770731e-01  -4.3767901e-01  -2.4676800e-01   6.8941531e-01   5.0288799e-02  -7.5582396e-01  -8.2668210e-01   2.2890984e-01  -1.3693361e-01   4.7447843e-01   7.4828254e-01   7.4735714e-01  -1.2512024e-01   2.7600608e-01   3.8911058e-02   5.1521954e-01  -9.5861580e-01  -9.8681535e-01   5.7784934e-01  -9.2489051e-01   2.0723606e-01  -3.7417812e-01   4.0134314e-02  -2.6867633e-01  -2.5923401e-01  -1.9653135e-01  -7.1137649e-01  -3.8253137e-01   9.7045572e-01   3.1814614e-01   7.2864858e-02   3.5379601e-01  -2.5855933e-01  -7.9173129e-01  -8.8245398e-01  -1.0164070e-01   5.2016700e-02   7.8247375e-01   9.0078184e-01   2.2487122e-01  -9.0843026e-01  -4.9964968e-01  -9.6524894e-02   6.6767598e-01  -4.4230199e-01   9.4749472e-01  -1.1875567e-01  -8.0730219e-01  -1.5174675e-01  -3.5338155e-01  -5.8421990e-01   3.4847873e-01   7.3268591e-01  -5.2783872e-01  -9.0418675e-01   1.1695706e-01   2.0898409e-02   2.2290530e-01   4.9382170e-02   1.6807028e-01   1.3934158e-01   5.2068289e-01  -7.3584353e-01   2.8857114e-02  -6.4712394e-01  -9.0315400e-01  -1.3676321e-01   1.0217412e-01  -1.4971584e-01   1.5256829e-02  -2.8887958e-01   9.6397094e-01  -6.8545493e-01  -2.5359535e-01  -2.8853702e-01   6.9389866e-01  -9.4252146e-01  -9.4711234e-02   2.8678939e-01   6.8036516e-01  -4.9728881e-01  -1.6374096e-01   8.5928489e-01  -7.2986073e-01  -2.3024951e-01  -9.5792895e-01   2.6737799e-01  -8.3676866e-01   6.8048991e-01   8.1558731e-01  -7.7757175e-01   6.3519969e-02  -5.6475439e-01   8.9908521e-01  -1.7026691e-01  -3.3395466e-01   2.8491355e-01   3.1329251e-01   9.3378127e-01  -1.5000865e-01   3.7595808e-01   6.5166841e-01  -6.8076663e-01  -7.5212912e-01   3.0537412e-01   7.6932376e-03  -7.3035227e-01   9.9470076e-02  -4.3835092e-01  -9.4339098e-01  -1.6538614e-01  -8.2449943e-01  -9.5553334e-01  -5.7395215e-01   4.2506682e-01  -8.0803916e-01  -5.0351042e-01   6.1503509e-01   6.6193058e-01  -3.6975676e-01   4.0003956e-01  -6.3057209e-01  -2.9401409e-01   3.1634909e-01  -7.4663994e-01   4.3119203e-01  -2.4552083e-01  -9.1910417e-01   7.7209432e-01  -1.1663277e-01   1.5862934e-01   9.6857229e-01  -5.5656697e-01   9.7837463e-01   4.4205231e-02   2.8979276e-01   3.6820651e-01  -4.3123072e-01   2.1766481e-01   6.2528858e-01  -9.7916651e-01  -4.5347493e-02   4.9629282e-01   2.3295097e-01  -4.0117815e-01  -2.1616006e-01  -7.5619787e-01   8.4283676e-01  -1.7078320e-01   9.0248273e-01  -3.6862456e-01  -7.2766793e-01  -8.6169124e-01  -6.9599085e-01   1.1425280e-01  -8.0274406e-02  -1.9755481e-01   4.3266617e-01  -2.3589365e-01   1.6221092e-01   1.9333029e-01   3.4811994e-01   6.7504662e-01  -5.5511017e-01  -9.6045797e-01   4.7290442e-02   7.5081235e-01  -2.0911822e-01  -2.0154048e-01   5.9258742e-01   5.4544049e-01  -2.4824770e-01   4.2809756e-01  -4.6050365e-01   5.4745320e-01   1.4373514e-01   9.0324323e-01  -9.9731791e-02   3.8493318e-01  -8.2831911e-01   6.0112456e-01   2.5868647e-01   6.8284902e-01   5.2803877e-01   6.8989528e-01   7.2756791e-01  -1.5452468e-01   2.8230382e-02  -2.3951589e-01   6.0826854e-01  -4.2362211e-01   8.2882552e-01   4.0592714e-01   2.7822464e-01  -1.7330762e-02   6.3188715e-01  -3.4467148e-01   7.9387085e-01   6.8109559e-01   9.4292888e-01  -8.2895408e-01  -9.1353102e-01   2.6155764e-01  -4.8838430e-01   8.9532623e-01   1.8618264e-01   2.4956382e-01   2.4166236e-01   9.2555020e-01  -6.3140609e-01  -2.7977775e-01  -5.8863113e-01  -7.4660822e-01  -8.6869543e-01   6.9621469e-01   8.7642539e-01   2.8833897e-01   8.2012631e-01   9.9641425e-01  -2.6146888e-02   1.5665897e-01  -5.8590853e-01  -5.2210437e-01   9.4818296e-01  -6.6703288e-02   4.8808754e-01  -1.9248831e-01   1.6932734e-01   5.4729158e-01  -5.8128955e-01  -4.3319861e-01  -8.9062617e-01   8.2684983e-01   9.5536067e-01  -2.9398759e-01  -3.3628063e-01  -8.8341265e-01   6.8778824e-02   7.5449769e-01   2.2615791e-01   5.7066337e-01   1.3587506e-01  -1.8395505e-01   5.8169613e-01  -7.7095793e-01   2.0460804e-01  -6.1536651e-02   1.6483762e-01  -3.0698019e-01  -7.6056561e-01  -3.8972080e-01  -1.1443155e-01  -6.5965428e-01  -6.8324838e-01  -2.4211084e-01  -9.7639179e-01   4.9531908e-01   7.0050577e-02  -4.8654890e-01   8.1997207e-01   9.1823824e-01  -8.6237269e-02   7.5607375e-01  -3.3784220e-01  -9.8867992e-02   6.1382137e-02   9.6989544e-01   6.9981809e-01  -8.4925349e-01   8.3575807e-02   3.3108896e-01   7.4540073e-01  -1.4815632e-01  -6.6155872e-01  -1.0659807e-01  -4.1906748e-01  -5.3869157e-01   3.5960770e-01   5.2541753e-01   4.6056976e-02   4.5127613e-01  -4.1492800e-01  -9.9204057e-01  -6.3450854e-01   8.0088918e-01   4.6941481e-01  -3.2230332e-01  -1.3030493e-01   5.4151134e-01  -8.4242311e-01  -3.8583741e-01  -5.8393807e-01   2.9675285e-01   6.7118084e-01  -2.1733549e-01   3.0153190e-01   3.6986841e-01  -8.4366878e-01  -5.1003663e-01  -1.3817039e-02  -4.1944898e-01  -6.0178898e-01   8.5875394e-01  -7.2907907e-01  -3.9147583e-01   9.3495701e-01  -6.0558907e-01  -5.9879866e-01  -3.3886797e-01  -7.1914555e-01   1.6692257e-01   4.4348051e-02   3.4938454e-01   8.7283209e-02  -8.1651634e-01  -6.0821948e-01   6.5434606e-01   9.4695517e-02  -6.7737397e-01   8.4289817e-02   7.0700994e-01  -1.5025037e-01   1.0448214e-01   9.2941613e-01  -6.1261306e-01  -1.3729287e-01   7.8526993e-02  -7.5924092e-01  -1.8659108e-01  -6.9082603e-02   6.3469912e-01   9.7090712e-01   7.1610839e-01  -7.2589051e-01   3.8313140e-01   3.7642112e-01  -2.6609896e-01  -8.1275569e-01  -9.8516945e-01   1.7703925e-01  -9.1871822e-02  -7.8721138e-01  -7.8815626e-01  -6.3644246e-01   7.8550863e-01   5.7597355e-01   7.2468851e-01  -8.3081761e-01  -9.0629424e-01   3.9780338e-01  -3.0664247e-01   2.4663946e-01   6.0987398e-01  -7.4211239e-02   8.5637251e-01   7.2913655e-01  -4.1707764e-01  -4.5871142e-01  -9.3245080e-01  -4.1503689e-01  -6.4922353e-01   5.1095046e-01   7.1444937e-01  -1.6059518e-01  -4.4086983e-01  -3.8517478e-01  -6.3144611e-01  -2.1135029e-02  -4.7025667e-01  -8.0728956e-01   6.4452482e-01  -1.8976375e-01   2.9012118e-02  -5.2530426e-01  -1.6014959e-01  -3.1758396e-01   8.4456244e-01   5.5194108e-01   8.4006092e-01  -6.7811425e-01   2.0678340e-01  -8.3600494e-03   6.2907881e-01   3.7647368e-01  -6.4240853e-01   7.1522835e-01   1.4375976e-01  -7.6727317e-01   2.7977835e-01   4.6771924e-01   9.1563005e-01  -9.4268918e-01   8.6956759e-01   5.6671117e-01  -4.6857416e-01   3.0613681e-01   5.3762172e-01  -4.4890557e-01   8.5865901e-01  -1.3742132e-01  -2.0063507e-01  -1.8710190e-01   6.6984820e-01   8.9026842e-01   7.8235656e-02   4.3055922e-01   6.3420496e-01   6.7220094e-01  -4.4737499e-01  -7.4691460e-01  -4.0848088e-01   2.8785081e-01   2.5288078e-01   1.2398452e-01  -6.8772621e-01   6.7816381e-01  -3.6767237e-01  -3.2497715e-01   1.4526600e-01  -2.7915063e-01   5.9727744e-01  -5.9742551e-01   1.1427521e-01   1.6636462e-01   2.2046126e-01   8.0472589e-01   5.7868855e-01  -3.1436326e-01  -7.7596058e-01  -8.9815175e-01  -2.7190997e-02  -4.1024596e-01   6.1173970e-01  -5.9872830e-01  -3.3604474e-01  -7.4938990e-01   3.3627975e-02  -6.5049249e-01  -1.1975331e-01  -1.9794278e-01   9.5341165e-01   7.6207714e-01   3.1089200e-01   2.2478809e-01   3.5317496e-02  -7.0815110e-01   8.0950811e-01  -5.5778903e-01  -6.8996904e-01   2.1433551e-01  -7.6635525e-01   5.5895908e-01  -5.4504445e-01   8.5849688e-01   4.3156452e-01  -4.7789367e-01   5.2445243e-01  -2.6185534e-02   3.5215653e-01  -9.0143054e-01   3.6296071e-01  -3.8921124e-01  -8.8105382e-01  -5.8975767e-01  -8.8146636e-01  -6.5548463e-01   1.8986137e-01  -4.7903790e-01  -2.3091233e-02  -4.7392730e-01   8.0731937e-01  -6.7365013e-01  -5.0675286e-01   4.8453335e-01  -5.8906996e-01  -9.9238344e-01  -5.2847928e-01   2.3820952e-01  -7.1488079e-01   1.3518137e-01  -5.6088218e-02  -9.4770287e-01   1.6216757e-01  -7.2025716e-01  -9.0801229e-01   2.7183899e-01  -8.7652360e-01  -8.2758670e-01  -6.2632519e-02  -1.8708985e-01   7.4329800e-01  -8.2847353e-01   3.4311734e-01   7.8114327e-03  -4.0986477e-02   2.0370681e-01  -1.5970066e-01   4.7087571e-01   2.2759385e-01   2.9577838e-01  -3.4648411e-01  -7.5202373e-01  -1.3419310e-01   3.1793093e-01   2.7831810e-01  -5.1688858e-01  -3.7362036e-01   2.1691616e-01   8.1273462e-02  -9.9058508e-01  -4.6087817e-01  -9.8246352e-01   9.9905309e-01   7.9386055e-01   9.7178613e-01   6.1449170e-01  -4.0149882e-01  -1.4040322e-01  -6.2451871e-01   6.6294103e-01   9.9339179e-01  -3.4173903e-01  -9.2400446e-01   6.9736192e-01   1.1936186e-02  -7.7413535e-02  -2.4898605e-01   9.1263807e-02   9.7423913e-01   4.5250519e-01   8.8991026e-01   6.6240945e-02  -1.1681971e-01   7.3327445e-02   7.4336750e-01   7.3279072e-01  -8.1195184e-01   3.9901027e-01  -1.5717037e-01  -7.9149464e-01  -1.3333015e-01   8.5317841e-01  -6.9514861e-01   8.8705658e-01   3.5367968e-01   1.4526848e-01   6.3039805e-01  -2.6385266e-01  -8.4962615e-02   5.9568001e-01   3.3977529e-01  -9.3930427e-01  -4.7131155e-01  -9.0643915e-01   1.4040909e-01  -5.7807522e-01  -9.2897143e-01   9.1512903e-01  -5.5121079e-01   7.1861037e-01  -9.8847244e-01  -3.6785287e-01   9.3427904e-01  -8.3735545e-01  -8.6513338e-01   2.0687106e-01  -6.8547610e-01   4.5477680e-01  -9.3449499e-02   8.6499981e-02   7.4760746e-01   4.6742840e-01  -2.6591853e-01   2.4535485e-01  -1.3896516e-01   4.0836381e-01   6.0190166e-01   3.4140188e-01  -7.8438813e-01  -9.2707022e-02   5.1744408e-01   2.0077895e-01   4.5936371e-01  -3.4611908e-01  -5.4520389e-01   8.4969094e-01   5.7518106e-01   2.5321169e-01  -7.7354579e-01   3.7641997e-01   2.6903103e-01  -7.6754963e-01   2.3375866e-01  -8.3824115e-02   4.8773845e-01  -6.5768547e-01   1.2918185e-01  -1.0343458e-01   9.6016200e-01   1.9745879e-01   2.4380802e-01  -6.4461020e-01   2.5837912e-01   6.3875248e-02   8.8496878e-01   9.4253382e-01  -1.0468954e-02  -1.5796206e-01   7.5036265e-01   6.3392730e-01  -9.8374474e-01   8.7084251e-01  -2.6200425e-01   9.2206526e-01   9.9481954e-01  -4.5322302e-01   1.4621056e-01   8.5448719e-01  -3.4773952e-01  -9.5980008e-01  -5.9971682e-01   6.0951743e-01   3.2097453e-01   6.1931538e-02   1.6582389e-01  -9.4757732e-01  -7.2733065e-01  -7.0868042e-01   5.0442600e-01  -8.4732903e-03  -7.3688402e-01  -6.7740885e-01
   3.5365240e-01   4.7151692e-01  -1.0288813e-01  -1.1189629e-01   5.1606280e-01  -9.6508396e-01   6.5862076e-01   3.9261026e-01  -3.7788951e-01   3.7775417e-03  -5.8696746e-01   1.1352206e-01  -8.2119985e-01  -7.4760779e-01   3.3481345e-01   8.4345571e-01   6.1627441e-01  -3.6566672e-01   5.3313933e-01  -5.6978313e-01  -7.8290060e-01   5.3183719e-01   2.3452437e-01  -6.7502439e-02   7.8409572e-01   9.1705709e-01   1.9693097e-01   1.9699045e-01  -7.8852567e-01  -2.7717706e-01  -8.3215475e-01   6.9654234e-01  -1.6636364e-01   7.5018292e-01  -9.7230081e-01   6.0963506e-02  -4.6240123e-02  -3.6603202e-01  -2.0073170e-01   1.2376049e-01  -2.0884620e-01   3.9470251e-02  -9.3981038e-01  -2.5166372e-01  -4.7970202e-02  -1.1718226e-01   1.4883042e-01   9.1906460e-01   7.5814501e-01  -5.4455936e-01   4.8977474e-01   7.8179953e-01  -3.8349484e-02  -9.6090565e-01   8.7109989e-01  -6.8600367e-01   3.1532236e-01  -2.6318929e-01   2.0046744e-01   4.7699782e-01  -6.9124042e-01   4.2788448e-01  -5.0023300e-01   7.2008718e-01   6.2445430e-01   8.2970561e-01  -3.8854673e-02  -3.8121018e-01   9.0125322e-01  -6.7883791e-01   5.8075436e-01  -6.0982640e-01  -4.6916222e-01   4.3675354e-01  -8.4231414e-01  -5.5346936e-01   3.2087796e-01   5.5436293e-01   9.3659865e-01  -2.7154320e-01   2.2089361e-01   4.9709492e-01  -1.1489388e-01   6.4234162e-01  -2.6240775e-01  -4.0505699e-01  -4.2790368e-01  -3.0979149e-01  -3.9012156e-01   6.0890241e-01   5.0985813e-01   3.5892382e-02   1.0236925e-01  -6.4371615e-01   8.2205278e-01   3.0468021e-01   3.6483268e-02   6.3130665e-01  -8.7149650e-01   4.9885354e-01   9.4062268e-01   6.4638307e-01   9.1616997e-01  -4.4723988e-01   8.4313403e-01  -7.0279441e-01   7.7518922e-01  -7.1270493e-01  -6.9390742e-01   6.3598727e-01   3.3689141e-01   3.1941975e-01   9.0904816e-01   3.8466474e-01  -5.9442484e-01  -4.7049229e-01  -5.5553753e-01  -8.6115756e-01  -2.1218787e-01   1.3776406e-02  -7.4078867e-01   2.0903207e-01  -4.1160864e-01  -7.1786172e-01  -8.1547728e-01  -2.5331237e-02  -8.6779564e-01   9.7021822e-01   9.8691030e-01  -2.1520980e-01  -1.5449090e-01  -1.6267740e-01   7.6966247e-01   4.1283387e-01  -5.9944824e-01  -1.5587910e-01  -1.9252184e-01   6.5164879e-01   3.6365945e-02   3.1053278e-02   1.9968566e-01  -5.4369540e-01   8.1563535e-01   2.6337384e-02   6.0452535e-01  -9.6964941e-01   5.3245416e-01  -1.2648710e-01   7.4347676e-01   4.1381774e-01  -8.5635517e-01   4.4291545e-01  -7.4408822e-01   2.6269739e-01   4.0566695e-01  -7.1036186e-01   9.9407140e-01   7.5401410e-01  -7.2863646e-01   3.1964338e-01  -8.4147732e-01  -5.9893774e-01  -1.3174233e-01  -2.7912487e-01   6.0390251e-01   6.6851666e-01   1.8305345e-01  -6.3491001e-01  -3.1215765e-02  -1.9390773e-02  -1.3478678e-01   6.8898046e-01   3.5810473e-01   1.3124984e-01   4.8325698e-01  -5.6618498e-01  -8.7415787e-01   9.4107425e-01  -9.7262036e-01   1.8391053e-01   4.0294201e-01   9.1727355e-01  -2.0289261e-01  -9.7218947e-01  -1.9860131e-01   1.7503284e-01  -6.4247734e-02  -5.3260303e-01   9.5821128e-01   5.4675275e-01  -2.2179467e-01   3.3870452e-01   6.2044452e-01   9.6308500e-01  -2.6786306e-02   1.0957992e-01   5.1992107e-01   8.6498255e-01  -4.5333993e-01   8.0867539e-01   8.3439794e-01  -7.1926969e-01   7.4508377e-01   9.5140940e-01   4.8015201e-01  -9.3204311e-01  -4.2435705e-01  -1.1145206e-02  -2.7332615e-01   8.0808072e-01   8.6067665e-01   4.2418244e-01   3.6413390e-01  -1.7250324e-01  -9.5339359e-01  -9.6597791e-01  -5.8996018e-01  -9.8375697e-01  -5.0786529e-01  -9.3462381e-01  -6.1085452e-01   8.7298717e-01  -1.9321662e-01  -4.6650584e-01  -1.4561722e-01   6.3238337e-01   8.2425783e-01   9.7998307e-02   1.6500438e-01  -3.8211967e-01  -3.2825760e-01   3.5284103e-01   6.9143639e-01  -8.5116829e-01  -8.1801747e-01   9.1898505e-01   4.4248941e-01   8.7902799e-01   5.3277336e-01   2.9864060e-01   1.6663377e-01   3.4377795e-01  -8.9371725e-01   1.0262220e-01   4.8061012e-01  -9.7323306e-01   7.4257495e-01   8.0574750e-01   5.4365362e-01   8.8734291e-01   6.8608780e-01  -8.8944604e-01   8.1569204e-01  -2.5951898e-01  -6.8507368e-01   6.9687561e-01  -9.0491530e-01   8.1120230e-01   1.6132583e-01   3.6624966e-01  -6.9526204e-01  -4.5572222e-01  -8.3171583e-01   5.5587725e-01  -5.4500383e-01  -2.6611469e-01  -4.0546960e-01   1.3796322e-01  -9.5672297e-01   2.6642323e-01   1.9583466e-01   6.8204498e-01  -2.1480207e-01  -9.5095448e-01   5.3575753e-01   6.1775820e-01  -5.6378886e-03  -3.5158632e-01  -3.1592051e-01   1.6112869e-01  -3.1035474e-01  -3.3153647e-02   5.6848361e-01   4.0165168e-01  -9.5630081e-01  -3.7233494e-01   9.3112124e-01  -8.6386194e-01  -1.7547295e-01  -4.5504055e-01  -3.6494916e-01  -4.3018982e-02  -3.2131524e-01   4.8276837e-01  -4.0387298e-01  -6.2326414e-01  -9.3337343e-01   5.9069477e-01  -6.8039313e-01   9.4406207e-01   9.8995402e-01  -8.3767041e-02   7.8088473e-01  -8.3395269e-02   4.1040009e-01  -8.5062832e-01  -3.9156289e-01  -9.4223428e-01  -1.7804635e-01   8.5784510e-01  -7.3242261e-01  -4.2235463e-01  -5.2007892e-02  -8.8465773e-01   8.5913688e-01  -7.4491476e-01   4.5248878e-01  -2.4793000e-02  -5.5588679e-01  -8.7223513e-01  -1.5318916e-01  -5.8210676e-01  -3.0516880e-01   5.0225753e-01   3.1138343e-01   8.4434153e-01  -5.0651852e-01  -2.2902700e-01  -7.9270015e-01  -6.0321999e-01   8.3122501e-01  -9.1335926e-01  -8.8853656e-01   7.9010109e-01  -8.8895225e-01  -4.7177078e-02  -9.5634067e-01   8.4712435e-01  -1.0129224e-01  -2.0310333e-01   2.5010804e-01   9.8006503e-01  -8.5043303e-01  -9.0501084e-01   7.8615983e-01  -9.1904668e-01   1.4088434e-01   1.2311658e-01   4.4661781e-01  -5.6145143e-01  -2.8699681e-01  -7.0105332e-01   6.1281957e-01  -4.8313711e-02   9.1787746e-01  -6.7928803e-01   5.2152206e-01  -7.0315745e-01   1.5721998e-01  -9.9378173e-01  -2.3848702e-01  -6.3982140e-01   5.9316544e-01   3.8156401e-01   2.1201868e-01  -1.4273315e-01   8.7902791e-01   6.9724922e-01   9.0702797e-01   6.7279028e-01   5.0083621e-01  -9.7330866e-01  -5.1943504e-01  -5.7448560e-01   9.3621334e-01  -5.4414932e-01  -5.9280631e-01  -4.6946330e-01   7.1819249e-02  -5.0061502e-01   4.3139299e-01  -2.9781147e-01   7.4245051e-01  -7.3868977e-01  -8.1139820e-02   5.6159346e-01  -3.6253972e-01   2.8223638e-01   5.5863943e-01  -4.0038983e-01   1.3518470e-01   3.8098282e-01  -3.1614317e-02   1.0184587e-01   6.3550086e-02  -4.3943898e-01  -4.3179908e-01   9.8296269e-01   6.6204681e-01  -2.0226226e-01   3.4557071e-01   6.8312274e-01  -1.6369928e-01  -1.1043234e-01   9.3914602e-01  -5.1576136e-01  -2.2058183e-01  -8.4688323e-01  -4.7301450e-01   2.6727113e-01   6.5173024e-01   2.5197145e-01  -7.6796068e-02  -4.9315960e-01  -6.0488408e-01   1.0984380e-01  -8.1147613e-01  -6.0257528e-01  -4.6517844e-01  -1.8121970e-01  -5.1583859e-01  -6.4997289e-01   2.8307485e-01   6.9820166e-01   8.8715043e-02  -1.3413359e-01  -6.5542099e-01   1.0163198e-01  -5.7124609e-01   3.8235303e-01  -9.9289666e-01   3.2272667e-01   2.8143215e-01  -5.3338675e-01   1.6689468e-01   5.0214937e-01  -8.9561881e-01   8.0007517e-01   9.2899058e-01   9.6757209e-01   8.1735671e-01  -3.6448670e-01  -1.9461948e-01   3.4759415e-01  -1.5376601e-01  -6.9714066e-01  -7.2706300e-01  -3.1272988e-01   9.9348285e-01  -9.0549062e-01  -3.3000733e-02  -1.1167591e-02   3.5289472e-01  -8.6979718e-01  -7.3885646e-02   3.7022798e-01  -4.4294235e-01  -9.2719671e-01   8.2460161e-01   1.8560976e-01  -6.1895905e-02   7.9975403e-01  -6.3883425e-01   8.9398398e-01   8.6535069e-01   2.9189809e-01   5.3537554e-01   9.2151461e-01   1.4079062e-01  -6.0078375e-01  -7.6481384e-01   8.6407639e-02   8.1819506e-01  -7.9912913e-02  -2.6274775e-01  -3.2361355e-01   5.9475297e-02  -8.6222696e-01   9.6125010e-01  -1.6627644e-01  -8.3672065e-01  -3.0458395e-01  -7.9476551e-02  -8.9597239e-01   5.7693862e-01   4.1260363e-01   4.8386425e-01   6.0804392e-01   3.9609876e-01  -2.0618632e-02   5.0748983e-01   5.2695796e-01   6.2110688e-01   3.6735786e-01  -7.7866404e-01  -1.3081867e-01   2.1280135e-01   7.8390916e-01   2.5851196e-01  -1.9790503e-01  -7.4814050e-01   4.4061149e-02   6.8835817e-01  -6.8942355e-01  -9.5243069e-01  -6.9107500e-01  -1.7174166e-01   1.7613522e-01  -1.7624015e-01  -5.0566910e-01   2.7743278e-01  -8.4288396e-01  -1.9713287e-01   7.1947465e-01  -9.2210306e-01  -7.9650681e-01  -3.0848027e-01  -9.5791005e-01  -2.2020686e-01  -5.3132389e-01  -7.5587544e-01   3.3683757e-01   1.4716779e-01   2.2450805e-01  -5.5710831e-01   5.0062747e-01   7.5446829e-01   4.4309077e-01  -4.1357496e-01   8.7521846e-01  -8.2510046e-01   8.3621290e-01   3.8796315e-01   8.3745636e-02  -1.6787960e-01   3.8577264e-01   8.4614637e-01   8.5988070e-01   4.9634124e-01  -8.5828918e-01  -3.7310817e-01   2.8593005e-01   5.1771071e-01   3.1431211e-01   7.3889402e-01  -4.2803043e-01  -5.6226190e-02   4.9713095e-01  -9.1180167e-01  -4.8757150e-01  -7.6089339e-01  -6.6553779e-01   7.9510356e-01   5.4327391e-01  -4.9444325e-01   8.9568458e-01   1.9663886e-01  -3.0136211e-01  -8.2777322e-01   2.1568034e-01   6.6200794e-01  -5.5265564e-01  -7.3967078e-01   2.6593394e-01   5.2485875e-01   1.6995656e-01  -4.1198268e-01   4.6356594e-01   5.5462278e-01   3.8093378e-01   6.4187238e-02   8.6246399e-01   1.3713524e-01  -9.3092327e-01   8.8932267e-01  -7.0469552e-01  -6.9812528e-01  -8.0603747e-01  -8.6440161e-01  -7.4160464e-01   7.2524985e-01   1.1377155e-01   5.7884025e-01  -4.9526741e-01  -8.6758480e-01  -7.1172425e-01   4.4973354e-01  -2.3124883e-01   6.5043987e-03   8.8127067e-02   9.7779575e-01   2.3140100e-01   6.5449044e-01  -4.8214978e-01  -4.9431694e-01   5.8617110e-01   4.0937494e-01  -1.2942458e-01   7.5157068e-01  -4.3129162e-01  -8.0358037e-01  -6.3791789e-02  -1.8634794e-01   4.6911631e-01   6.9769511e-01  -4.7689581e-01  -5.6526207e-01   5.5846182e-01   9.2557977e-01   5.4512439e-01  -4.1798738e-01   1.1966229e-01  -3.5806790e-01  -9.2506234e-01  -3.3543722e-01   9.2074240e-01   3.0150659e-01   7.2772080e-02  -4.3051874e-01   8.0583817e-01   6.1359744e-01  -2.7895919e-01   1.6082697e-01  -8.1588752e-01  -7.8971995e-01  -7.7563221e-01  -1.5345923e-01  -5.6936992e-01   8.2684427e-01   6.5966178e-01  -4.7344965e-01   8.1443805e-01  -8.2595566e-01  -9.3156758e-01  -2.1054110e-01  -5.4610297e-01   7.9325578e-02  -7.0621726e-01   7.0536683e-01   7.0777960e-01   9.8173740e-01  -9.3803699e-01   7.2234413e-01  -7.1706603e-01   5.1990977e-01   3.8600647e-01   8.8028869e-01  -6.5640634e-01  -2.0411738e-01   6.8497741e-01  -7.7223271e-01   9.9523605e-01  -9.2280246e-01   6.1202533e-01   4.5925385e-01  -1.7019927e-01  -5.3105227e-01  -4.5873060e-01  -6.8493930e-01  -6.2715104e-01  -9.4823766e-01  -8.2363875e-01   5.8937459e-01   4.6880345e-01   5.5827914e-01   4.6572166e-01   3.9392612e-01  -2.4484458e-01  -5.5298883e-01   5.1052035e-01   4.5167140e-01  -9.0261441e-02   8.6171229e-01  -1.5282273e-01   6.8985546e-01   5.4500485e-01   3.0130404e-01  -7.8654162e-01   2.3828300e-01  -6.1950448e-01  -6.4108479e-01  -3.4226606e-01   6.4696856e-02   5.0188571e-01  -9.3483684e-02  -5.2129817e-01   5.0604144e-01   1.3644965e-01  -6.6550025e-01  -8.7497384e-01   3.5995313e-01   3.4135010e-02  -3.8158340e-01  -8.7253562e-02   1.4801642e-01  -4.6531559e-01  -6.9113268e-02  -2.3958463e-01  -9.6428014e-01  -1.7426980e-01   3.4092633e-01   1.8115815e-01  -2.7266109e-01  -2.9433004e-01   2.2655460e-01   2.4583903e-01  -3.1446333e-01   5.8834594e-01  -6.2201157e-01   5.9596251e-01   8.3954157e-01   8.3747640e-01   4.1362527e-01  -4.7790916e-01  -4.7101758e-01   3.5830468e-01  -8.4507199e-01   2.8989355e-01  -1.3931963e-01  -3.2429927e-01   5.0452385e-01   4.4199682e-01  -5.3395220e-01  -5.3530859e-03  -3.8756445e-01   2.7947216e-01  -4.5935099e-01   7.4480594e-01  -2.5315055e-01   8.9136822e-02  -6.8680140e-01   8.8165366e-01  -2.7340688e-02   3.7543866e-01   3.1386105e-01   5.9210715e-01  -4.7110579e-01   3.4368904e-01   2.0815970e-01   7.1260375e-01   3.5423143e-01   2.9550150e-01  -7.5149362e-01  -8.3057991e-01  -3.3401628e-01   3.4066024e-01   2.2100943e-02   4.1491562e-02  -1.2899249e-01  -8.6061321e-01  -1.3411698e-01  -3.0607169e-01  -7.0991027e-01   7.8799445e-01   2.8952536e-01   4.6841156e-01  -1.4804058e-01  -1.6224268e-01  -5.8634278e-01   2.9530951e-01  -5.7391598e-01   9.3291368e-01   5.7217493e-01  -4.4318701e-01  -2.3584726e-01  -5.3259488e-01   6.5042136e-01  -3.1634249e-01   9.9600540e-01  -3.2748325e-01   9.4177640e-02  -2.2682711e-01  -5.4311533e-01  -4.7955101e-01   8.5533321e-01  -9.8067723e-01  -4.5637473e-01  -8.7873837e-01  -1.2671456e-01  -6.1259249e-01  -1.8303139e-01  -8.3646591e-01  -8.2510454e-01   8.8730268e-01  -1.6662966e-01  -9.0007271e-01  -1.4413372e-01  -2.9675141e-01   2.0709566e-01   2.0180755e-01  -5.5864936e-01   3.9592304e-01  -6.9860791e-01  -5.1746845e-01  -6.2587225e-01  -8.0356910e-01   9.5328660e-01   8.2750195e-01   7.0812361e-01  -5.0919026e-01  -1.4257391e-01   3.5903631e-01   9.9149719e-01   5.1389544e-01   9.9785288e-01   6.4770492e-01  -1.9468627e-01  -2.1868976e-01   3.5113265e-01  -6.7190883e-01  -2.6356404e-01   1.1649379e-01   4.1893984e-02   5.2606676e-01   2.1607122e-01   2.3868556e-01  -5.4679124e-01  -8.0240601e-01   9.4481898e-02  -9.9438011e-01   5.4030085e-01  -2.3391053e-01  -6.8858119e-01   8.2002395e-01   6.4174757e-01   6.1577147e-01   5.6079600e-01  -1.8800460e-01  -3.2816828e-01  -1.2351140e-01  -5.2406441e-01   1.1306984e-01   5.2088158e-01  -7.9125221e-01  -4.1720619e-01  -8.7347466e-02  -8.7686461e-01  -3.1413842e-01  -9.8556425e-01   2.8866764e-01   8.5040115e-01  -3.2676225e-01   2.2326215e-02   1.9239843e-01   8.9845772e-01   6.9529564e-01  -6.7622811e-01  -9.0085122e-01   3.6121799e-01   7.4447287e-01  -1.8952250e-01   1.1396669e-02   9.6727483e-01  -3.7057495e-01   8.7150026e-01   7.1820753e-01   2.4820134e-01   9.5159328e-02   9.9711522e-01  -4.2254218e-01   5.0096108e-01   7.5165611e-01   1.5326707e-01  -1.2298567e-01   3.0580748e-01  -4.3356918e-01   8.8255171e-01  -8.6223383e-01  -7.0561616e-01   3.6163723e-01  -2.0749036e-01  -5.7857369e-01  -4.1817475e-01  -9.4358127e-01  -4.4583505e-01   1.2682269e-01  -6.8700923e-01   2.5874316e-02   1.0737754e-01  -2.5913880e-01  -6.3705525e-01   6.0084646e-01   9.6451394e-01  -1.0068708e-01   3.5587160e-01   1.5334111e-01  -4.7125293e-01  -6.4169383e-01   4.9953220e-01  -1.6337423e-01  -6.8586353e-02   9.4097093e-01   6.4364189e-02  -5.7418239e-01  -8.8976898e-01  -5.5274581e-01   5.2167790e-01  -5.2344527e-01  -7.4024862e-02  -1.2439314e-01   8.3871842e-01  -9.2410352e-01  -6.9438138e-01  -6.0332476e-01  -4.8144758e-01   8.2170430e-01  -6.5045004e-01   2.7368398e-01  -8.8311763e-01   2.4482399e-01  -9.1314645e-02   7.2456699e-01  -8.1136003e-01   8.4920995e-01   3.7814425e-01   5.2553651e-01   1.3608275e-01  -3.2087286e-01  -2.9010737e-01   9.6759481e-01  -7.4777369e-01  -2.0469337e-01  -7.1843458e-01  -1.2281636e-01  -1.0136583e-01   6.0218642e-01   2.7803096e-01   1.4660079e-01  -4.4435540e-01   4.1215759e-01   9.7137909e-03   3.5463943e-01   7.3594892e-01  -4.5995438e-01   4.6732168e-01   5.2999807e-02  -9.8853559e-01   4.7207191e-01  -7.3271145e-01   4.3804067e-01   4.0683448e-01   4.3519306e-01  -2.8299295e-01   2.1520574e-01   2.4810583e-02   1.6485431e-01   2.4026747e-01  -7.3425391e-01   1.0076195e-01  -7.8076177e-01   7.6708544e-01   2.7064014e-01  -2.9833527e-01  -7.8163714e-01   9.3967832e-01   2.0657424e-01  -8.4345519e-01  -6.0744371e-01  -4.7214009e-01  -4.0621093e-01   6.8539258e-01   1.7081876e-01   8.3131464e-03  -6.9481505e-01  -5.6516232e-01  -4.4196288e-01  -1.1182212e-01  -6.0903003e-02   7.2029906e-01  -4.4717165e-01   2.5642500e-01   3.8028619e-01   6.6665054e-01   3.3315144e-01   1.4472889e-01   2.0426961e-01   6.4470083e-01   2.4518371e-01   5.8777030e-01   5.7207826e-01   9.6021378e-01   5.7207056e-02   3.2081364e-01  -5.3663390e-01  -7.7825054e-01   3.5097575e-01   2.3033856e-01  -8.2676960e-01   4.1488144e-01  -8.8331505e-01  -2.0405381e-01   7.6029946e-01  -3.1887410e-01   7.2228816e-01  -6.4563050e-02  -4.5740548e-01   2.8014220e-04   2.8616561e-01  -8.1236431e-01  -6.4547959e-01
