   7.1690850e-01  -2.8538094e-01  -1.6075511e-01  -5.9641330e-01  -5.2248081e-01  -6.1042649e-01   3.0170264e-01  -9.3318964e-01   7.2087389e-01   7.6011124e-03  -6.1641282e-01  -8.7059609e-01   9.5550488e-01  -1.9363554e-01   4.3273395e-01  -8.9473952e-01   4.4502281e-01  -5.4790176e-01  -4.2197713e-01  -7.4890418e-01  -3.6610401e-01   4.5144089e-01   1.9118994e-01  -6.1114102e-02  -8.2889259e-01  -8.9555541e-01   4.6145383e-01   5.6156332e-01   7.5840389e-01  -6.2185397e-01  -6.8686571e-01   3.1562161e-02   5.9804240e-01   4.5365189e-01   9.0379355e-01  -6.0867431e-01  -8.0865834e-02  -6.6640618e-01   9.3132324e-01   4.7274510e-01   8.2004376e-01   1.5801422e-01   4.6493362e-02   1.7584901e-02  -2.2256727e-01   1.5150532e-01  -5.2354204e-02   1.5428714e-01  -2.6990447e-01   5.8404401e-01   3.5099338e-01   9.0205791e-01  -1.3517407e-01   7.2447579e-02  -2.0334077e-01  -2.9918015e-03  -3.4366617e-01  -6.9338640e-01   2.7103697e-01  -3.5037427e-01  -4.6207675e-01  -1.1147900e-01  -4.3775467e-01  -4.5944586e-01   5.7362556e-01  -4.3743003e-01   7.0672229e-01   5.0473266e-02  -3.0398262e-01  -7.2182414e-02   8.4974337e-01   8.3473107e-01   5.3129455e-01  -3.8617894e-02  -7.0167343e-01  -8.3301675e-01   4.3555413e-01   3.4131088e-01   8.3874691e-01   9.3254306e-01  -6.4370468e-01  -7.7107539e-01  -9.9106715e-01   4.6084301e-02  -6.3085416e-01   9.0326806e-01   8.3411865e-01  -9.7831112e-01  -9.6350238e-01   1.4542310e-01  -2.2411932e-01  -5.2388429e-01   7.3838743e-01  -2.9071139e-01   8.6089504e-01  -2.0972447e-01  -3.6752318e-01   3.8739896e-01  -5.2173643e-01  -5.4573492e-01   9.5468175e-01   5.0540553e-01   9.0618644e-01  -6.7696213e-01   5.7267398e-01   9.2303944e-01   1.2576901e-01   2.5965314e-01   3.5418185e-01  -4.8786812e-03  -8.3155642e-01  -5.8820827e-01   3.9340067e-01   5.5187788e-01  -3.7856331e-01  -5.3579592e-01  -1.9040458e-01   5.2227354e-01   1.4109676e-01  -2.2310629e-01   8.8032410e-01  -4.9850031e-01   6.5333417e-01  -8.8244109e-01   3.3597145e-01  -2.4037364e-01  -6.7831883e-02   1.0967332e-01  -5.0378531e-01   1.2333871e-01   7.8302085e-01   1.9086926e-01   1.5467666e-01   2.4339794e-01   9.0015679e-01   5.4726770e-01   5.7454653e-02  -5.0559401e-01  -6.1735013e-01   9.3917411e-02   4.7189368e-01  -7.7702305e-01  -5.6870654e-01  -2.0638391e-01   1.9842514e-01   9.7977217e-01  -5.1602281e-01  -6.9418117e-01   3.8782206e-01   2.9390833e-02   6.7484510e-01  -4.5511390e-01  -4.2244798e-01  -6.1294711e-01  -3.6077748e-01   1.0139113e-01  -9.4261553e-01  -4.3679909e-01  -9.0933232e-01  -3.3974956e-01   7.9437625e-01  -3.8879180e-01   9.7334441e-01  -5.0534156e-01   9.3426262e-01  -3.9684668e-01   1.2785219e-01   3.1363859e-01   5.2621235e-01  -8.0362891e-01   6.1481115e-01   2.3924631e-01   7.9094737e-01   3.5673725e-01   6.7386260e-01  -4.9762979e-01   5.3418543e-01  -2.5193524e-02   4.8633766e-01  -2.3884007e-01   7.2967475e-01   1.7191102e-01   6.6505026e-01   3.6909170e-01   6.5215269e-01   4.1844140e-01  -9.8229447e-01   8.4778402e-01   6.2825355e-01  -3.2080731e-01  -5.9949197e-01  -7.6368847e-01   2.8230474e-01   7.9497809e-01   4.3965907e-01  -8.7840850e-02   7.3399133e-01   1.4776022e-01  -5.8094054e-01  -2.4586002e-01   1.3373059e-01   5.9573758e-02   4.6857918e-01   4.8931790e-02  -1.6047390e-01   3.3774238e-01  -5.4317538e-01   3.0792593e-01   9.6312254e-01   9.6452842e-01   3.4126593e-02   2.4758330e-01  -2.7582819e-01   2.0414868e-01  -9.3134817e-01   1.2252048e-01  -5.4970007e-01  -3.6953212e-01   4.1761398e-01  -2.5702992e-02  -1.2241219e-01  -9.9447364e-01  -9.6562595e-01   4.9539737e-03   1.4763798e-01  -7.7153111e-01  -7.7167711e-01  -9.1582357e-02  -8.3161001e-01   6.0178848e-01   5.4048754e-01  -4.0955633e-01   4.2980892e-02  -8.5147650e-01   7.7892680e-01   1.0140675e-01   5.8619704e-01  -6.0039541e-01  -3.3252292e-01  -6.2265403e-01  -9.5357786e-01  -9.3970483e-01   5.7216156e-01  -2.8099079e-01   3.7542033e-01   5.9442513e-01   9.9733100e-01   4.8522686e-01  -5.8837770e-01  -8.0565277e-01  -4.9320759e-01   4.8845292e-01  -7.2574943e-01  -4.2214782e-01  -7.5603735e-01   1.0868739e-01  -9.0004947e-01  -1.6201198e-01   1.5668552e-01  -2.3541393e-01   4.2545940e-01  -8.8579658e-01   5.1729428e-01   8.0123735e-01  -7.3758985e-01   6.0552396e-01   7.7789772e-01  -7.2758069e-01  -6.0642357e-02   2.3731626e-01   9.1678557e-01  -8.3132934e-01  -8.8335261e-01   2.8906249e-01   2.5093065e-01   3.8245178e-01  -8.0992650e-02   2.4433752e-01  -5.9298059e-01   5.8785540e-01   2.4896844e-01   9.0062748e-01  -4.0448570e-01  -6.5731549e-01  -3.3829705e-01  -7.2691738e-01   1.1912934e-01  -2.4398957e-01   4.1320377e-01   1.6276361e-01   4.7052062e-01  -4.6719698e-01   6.0868634e-01  -5.6586042e-01   1.8820988e-01  -3.1460271e-01  -5.7161248e-01  -9.9562971e-02   5.4237812e-01   2.7553644e-01  -9.4617308e-01  -5.4976985e-01  -5.9542698e-01  -2.7185256e-01   7.6955219e-01  -1.5593876e-01   4.5391602e-01   8.2988262e-01   1.0519355e-01   8.9633972e-01   1.4143014e-01  -4.3606198e-01  -7.4837942e-01  -4.1782658e-01  -5.7885020e-01  -3.3981378e-01   7.8112197e-01  -7.4586034e-02   3.2824557e-01   8.3353686e-01   2.3569372e-01  -2.1292101e-01   1.7643821e-01  -9.3251769e-01   2.4897394e-01   1.3009140e-01   7.9081836e-01  -7.1672629e-01  -3.1194035e-01   1.0150386e-01  -5.1647392e-01   5.2947053e-01   1.6196185e-01   3.8483261e-01  -3.7276685e-01   3.1602826e-01  -2.2115207e-01  -8.1955693e-01  -7.0728551e-01  -9.5803492e-02  -5.4755155e-01  -8.3150924e-01  -4.2810413e-01   5.9816769e-01  -7.6564180e-01  -2.1065793e-01   7.5078065e-01  -1.9777664e-01  -2.6858560e-01  -6.9216675e-01  -7.6305935e-01  -5.1947133e-01   9.4065605e-01  -6.6046748e-01   7.9217661e-01   4.7671959e-02  -5.9647697e-01  -1.8205730e-01  -4.7204345e-01  -1.4656918e-01  -8.1594725e-01   8.0344204e-02  -7.4616252e-01  -3.7590827e-02  -5.7744637e-01  -6.7973156e-01  -9.0185671e-01   4.5904485e-01  -5.2896117e-01  -6.5449967e-01  -9.1271920e-01   5.7862759e-01   5.4045217e-02   4.7847769e-01   1.1547969e-01  -8.6588241e-01   5.7368546e-01   5.1169662e-01   9.6528507e-01  -3.7113395e-01  -3.9037166e-01  -5.9617888e-01   2.1795211e-02   2.8032490e-01  -3.2178694e-01   4.9531149e-01   8.7081108e-01  -7.3081490e-01   9.1057999e-01  -5.1887680e-01   9.3511755e-01  -2.4325562e-01   2.1374955e-01  -4.1850931e-01   5.6297916e-01   3.3932125e-01  -8.2357554e-01   4.0251066e-01  -7.9370481e-01  -7.8442295e-01   7.4268564e-01  -8.5158646e-01   7.2483039e-01   1.6598235e-01  -7.9077884e-01   6.6253371e-01   3.0394004e-01   4.7773314e-01   9.0023966e-01   3.9736061e-01  -5.2530073e-01   8.7059878e-01   7.4290971e-01  -4.7041442e-01  -7.2735223e-01  -5.3775942e-01  -3.5037573e-01  -7.5429512e-01  -6.9280361e-01  -6.0320079e-01  -7.0964750e-01  -2.1670971e-01  -8.6556530e-01   5.7233004e-01  -4.7491104e-01  -3.9749646e-01  -1.0452470e-01   7.1096531e-01   1.0221307e-01   2.2212986e-01   2.6567949e-01   3.5597136e-01  -1.2834867e-01   2.1783726e-01  -6.6955603e-01  -8.8883689e-01  -9.1155179e-01  -8.5343145e-01  -6.4153655e-01  -1.2927211e-01  -9.9762461e-01   4.4983951e-01  -7.1848547e-01   7.3089199e-01   7.3310519e-01   5.9290421e-01   5.2407921e-01   7.6864031e-01  -9.0142963e-01   7.1745826e-01   4.5260404e-01   8.2307439e-01   4.6229394e-01   2.8179689e-02   8.4444339e-01   4.1918259e-01  -9.8633843e-01   4.8174460e-01   6.8399397e-01   1.8847558e-01   4.1140401e-01  -5.6340191e-01  -4.9963544e-01   2.8306996e-02  -1.2811061e-01  -2.5604736e-02  -5.8156424e-01  -7.0254021e-01   4.6354431e-01   8.8135725e-01  -8.4630201e-02  -6.5418746e-01   3.0814809e-01  -4.9783445e-01   4.1725108e-01   6.5461769e-01  -5.0498123e-01  -8.9469992e-01  -1.9700073e-01  -3.2882469e-01  -2.9922866e-01  -2.6761688e-02  -4.6773937e-01  -7.1207336e-01  -2.4007212e-02  -8.7084388e-01   1.7276392e-01   8.3507422e-01  -5.4699532e-01   3.8689073e-01   9.3674906e-01   5.6749855e-01   4.9962071e-01  -8.3033727e-01   9.7348088e-01   4.6711915e-02   3.4618140e-02   2.2501098e-01  -7.3822483e-01   9.9245893e-01   5.2063658e-02   5.5623634e-02   5.5724837e-01  -3.4340723e-01  -7.9202791e-01  -7.7852149e-01   2.7535282e-02  -3.3296606e-01   8.2945597e-02   7.3796811e-01   4.5784661e-01  -1.6520608e-01  -6.7044872e-01   1.2807066e-01   7.5759356e-01   7.9424522e-01  -3.8881528e-01   5.4101936e-01  -2.4688374e-01  -5.1985630e-01   7.2143979e-01  -3.1941238e-01  -8.7062673e-01  -7.5353485e-01   8.1843064e-01   1.1951274e-01  -6.2903387e-01   5.5568100e-01   8.0321828e-01   6.6435799e-01   5.7865740e-02   1.8732881e-01  -7.2913284e-01   9.8160080e-01  -9.1886829e-01  -1.1182627e-02  -2.0295121e-01   6.2914694e-01   1.4286392e-01  -6.0907391e-01   3.4726592e-01  -5.4353699e-01  -8.9710545e-01  -3.4349468e-02  -3.7088867e-01  -6.2851067e-01   2.1541032e-02  -1.5447290e-01  -3.3318209e-01  -6.9605828e-01   6.6267697e-01   5.7653637e-01  -8.4738496e-01  -7.8086191e-01  -3.5575629e-01  -6.9944521e-01  -4.7630394e-01  -5.4678183e-01   7.1062580e-01   4.3789725e-01   7.8628248e-01  -9.8980087e-01  -5.3582328e-01   8.8918909e-01   7.5378265e-01   1.6948871e-01   5.7148247e-01  -2.1516313e-01  -6.1803784e-01   4.3859256e-01  -2.8237158e-01   6.2875498e-01  -9.7747040e-01  -3.9468435e-01   7.4913220e-02   7.2742947e-01  -1.4346792e-01  -2.3288012e-01  -4.3234603e-01  -1.9352759e-01  -1.3426922e-01   8.3413815e-01   4.9739715e-01   7.1765601e-01  -7.2551216e-01   2.3477696e-01  -6.9807512e-01   1.3081334e-01  -6.4667685e-01  -8.6957978e-01   1.2859736e-01  -2.5790891e-01  -3.3672548e-01  -2.8045092e-01   9.1138387e-01  -4.7879864e-01   1.2068683e-01  -6.1700391e-01   1.9952544e-01   9.4507181e-01  -1.0064481e-01   1.5592324e-02   8.9719791e-01   4.5499778e-01  -3.8060393e-01   1.1758500e-01   8.7378448e-01  -7.1241049e-01   5.8588561e-02  -9.7649875e-01  -4.8281080e-01  -2.4822290e-01  -3.4740012e-01   9.2228722e-01  -5.8939079e-01  -6.4107814e-02   6.7928774e-01  -8.6401750e-01  -2.2315192e-01  -2.8707440e-01  -8.4891030e-01   1.0879941e-01   3.0256350e-01  -1.4494237e-01   7.2702457e-01  -5.4280471e-01  -1.1949692e-01   6.6118990e-02   3.2492818e-01   4.9993415e-01   8.7180213e-02   5.7459822e-01  -3.1620596e-01  -1.1881199e-02   8.1963865e-01   5.4910615e-01   3.8202815e-01  -1.8337718e-01  -6.2172344e-03  -6.5523768e-02  -2.6204384e-01   9.0134229e-01   3.0784104e-02  -9.7716344e-01   1.6249585e-01   7.9813672e-01  -1.1544912e-01  -3.6754370e-01   6.1680044e-01  -5.8461943e-01  -3.9690707e-01  -4.7239429e-03  -5.5492298e-01  -6.2890563e-01  -9.7409817e-01   1.1441352e-01   1.8418983e-01  -8.7716641e-01  -9.9127066e-02   6.1138188e-01   4.9634365e-01   3.6235868e-01   5.6995188e-02  -4.8334423e-01  -6.8436116e-01   2.4932952e-01   2.1832628e-01   7.0489066e-01   9.4048758e-01   4.9564035e-01  -8.7150815e-04   7.0083304e-01  -6.5860541e-01  -5.8472837e-02  -6.4050063e-01   7.3379800e-01  -3.0493715e-01  -4.5901438e-01  -4.0650440e-01  -5.8042986e-02  -5.8973964e-01   4.4629521e-01  -4.3406355e-01   9.2957777e-01   8.1859156e-01  -9.9912772e-01  -1.6884958e-02   4.7895754e-01   5.4523104e-01  -9.5279479e-01   8.6474572e-01  -8.8383018e-01  -4.9265517e-01   5.9006902e-02  -7.2233844e-01  -4.9789252e-02   5.3826632e-01   9.3378766e-01   7.1842300e-01  -1.1020869e-01  -9.8284990e-01   4.8638046e-01  -5.8862745e-01   5.5496989e-01  -3.0817940e-01   4.6374511e-01  -2.8020018e-01  -9.0137444e-01  -3.5366386e-01  -3.3717365e-02  -9.0387663e-01  -3.6774924e-01   1.7856042e-01   8.3821404e-01  -7.0569348e-01   3.5791945e-01  -8.7644371e-01  -5.9514511e-01   2.9703737e-01  -7.2369738e-01   2.3651970e-01  -8.8286149e-01   1.5617847e-02  -7.6902747e-01   7.4340489e-02  -8.7664750e-01  -4.6796431e-01   9.3477503e-01  -7.1446371e-02   7.9145456e-01  -4.4448357e-01   7.6330494e-01  -8.4391586e-01   1.0233401e-01   7.6226703e-01   2.4012993e-01  -7.5938636e-01   6.0248333e-01   9.0466615e-01  -1.9910592e-02   3.4343156e-01  -8.8085498e-01   6.1627891e-01   9.4988842e-01  -6.5770044e-01  -2.8732247e-01   1.3232440e-01  -2.4117111e-01   4.0913701e-01   3.8675722e-01   5.9218205e-01   9.1287389e-01  -9.1311023e-01  -4.1693076e-01  -1.7793893e-01   6.2631010e-03   6.8243057e-02  -1.4815920e-01  -8.0156145e-01  -2.7164981e-01  -3.5501720e-01  -8.2121618e-01   2.1526086e-01  -2.7542243e-01  -1.2777966e-01   6.0037370e-01   4.7038237e-01   2.9626918e-01  -8.1667251e-01   9.0048897e-01  -1.3096000e-02   3.9129868e-01  -6.1310985e-01  -4.7419385e-01   9.2208328e-01  -5.7170374e-01   1.3866039e-01   2.3342115e-01  -7.8857035e-01   5.6663210e-01   7.0516480e-01  -4.1526002e-01  -2.9763233e-01   9.0388234e-01   9.2914608e-01  -2.3852627e-01   9.3869118e-01   8.0732417e-01   3.2154970e-01   2.5380341e-02   7.7380477e-01   6.3473888e-01   6.5512712e-01   1.0059778e-01   4.4872025e-01   3.8046914e-01   1.3738745e-02   3.4782448e-01  -8.9583610e-01   8.2834475e-01   8.7408460e-01   7.1859721e-01  -8.8289306e-01   8.0095842e-01   7.8406666e-01  -2.6657784e-01  -9.2175716e-01   7.0128170e-01   6.7669283e-01   7.2413046e-01   2.4424948e-01  -1.9361977e-01   9.0894108e-01   1.4178450e-01   8.5383589e-01  -1.5079457e-01  -1.3122265e-01  -6.3707731e-01  -6.7831868e-01  -3.6385565e-01   8.5484757e-01  -9.4348288e-02   5.3216075e-01  -3.6815526e-01   8.7251166e-01   7.2281533e-01   9.2390758e-01   7.2106539e-02  -8.1629558e-01   7.4559500e-01  -7.7983973e-01   3.8398765e-01  -7.6931146e-01   2.6831072e-01   9.9819951e-01   5.7616570e-01   3.6434006e-02  -9.1614693e-01  -1.0640419e-01   8.8327525e-01   7.2394994e-02  -5.7921993e-01  -4.9651271e-01   3.5590349e-01   4.7135057e-01   2.2386243e-01   5.8899231e-01   1.6646519e-02  -2.6500053e-01  -5.3888570e-02   6.5225932e-01   6.0263622e-01   3.7579811e-03  -6.1108981e-01   4.7933698e-01   6.2066898e-01  -7.5763254e-01  -8.6116765e-02  -7.0090109e-01   4.9050696e-01  -2.8412812e-01  -3.7498976e-01   9.8195602e-01  -8.1734953e-02   1.6926262e-01   7.5658176e-01  -8.7846141e-01   2.7327741e-01   7.0933590e-01  -6.3388291e-01  -1.6794388e-01   9.5688264e-01   7.7969589e-01   5.3174843e-01  -6.9941120e-01   2.1830928e-01   2.9563058e-01   5.1494082e-01  -6.7937698e-01   2.5614112e-01  -5.4753975e-01   6.0198499e-01   9.4117039e-01   2.1174672e-01   9.9525372e-01  -1.5954183e-01   8.7330865e-01  -1.4169208e-01  -7.8152544e-01  -5.4839305e-01  -5.9048511e-01  -8.0957476e-01  -5.9842792e-01  -3.6173264e-02   9.8360979e-01  -6.1646283e-01   1.9047939e-01  -7.5157384e-01   2.4786965e-02   5.9869540e-01   4.0564018e-02  -7.7950701e-01  -2.1169865e-01  -1.2126075e-01  -7.7395313e-01   1.8590511e-01   1.3968372e-01   2.0538548e-01   1.7354396e-01  -2.0461967e-01  -9.1475280e-01  -7.3718440e-01   6.6819619e-01   3.3910264e-01  -5.0123737e-01   3.6441889e-01   2.5852885e-01  -8.4564268e-01   9.7133680e-01   3.3855144e-01  -6.7204482e-01   2.3475734e-01  -3.0853432e-01   4.3187402e-01  -3.7970537e-01  -3.5180811e-01  -7.1484798e-01  -1.2457319e-02   8.5127754e-01   1.9358592e-01   8.7838591e-01   3.3689708e-02   9.8440887e-01   6.8812281e-01  -9.0512643e-02  -6.6079856e-01  -7.0452318e-01  -4.4903509e-01  -3.5266974e-01  -7.0631189e-01  -6.6643636e-01   9.2668940e-01  -1.4990170e-01  -9.4511672e-01  -7.1113726e-01  -8.0796107e-01   5.1098100e-01  -8.6093698e-01  -5.9125212e-01   8.8047667e-01  -3.3264432e-01   3.3107378e-01   2.8021393e-01   9.8854992e-01   3.9966169e-01  -3.5604722e-01   1.2804462e-01   7.9506681e-01   1.3566699e-01   5.5878971e-01   2.3358304e-01   2.5813509e-01   2.6337114e-01   2.6670755e-01  -2.0218063e-01   5.2493352e-01   4.5559509e-01  -1.3331694e-01  -1.7805985e-01  -9.8877010e-01  -8.3319055e-01   7.5769995e-01   9.5556891e-01   9.2072800e-01   2.6024474e-01  -6.6451823e-01   5.9685255e-02   4.5804907e-01   9.8583265e-01   8.6340699e-01   6.7723888e-01  -6.0322793e-01   1.6915926e-01   9.8416505e-01  -7.8446549e-01   6.5256062e-02  -5.9639662e-01  -2.1569428e-01   8.9544954e-01  -5.9766799e-01  -6.6153698e-01   1.1964465e-01   8.9194654e-01  -6.9172780e-01   7.1584352e-01  -2.7163016e-01  -1.0837533e-01  -1.9610035e-01   3.4756229e-02   2.2854215e-01
  -1.5374052e-01   8.9665711e-01   4.4214582e-01   7.3801987e-01  -6.0106429e-01  -8.7657353e-01   4.8725499e-01   2.6768494e-01  -9.1269023e-01  -6.7455811e-01  -5.6188481e-01   9.3446756e-01   8.3705050e-01  -3.6343344e-01   9.5431115e-01   2.1257317e-01   6.1512435e-01   3.3164414e-01  -4.0084578e-01  -4.7464924e-01   5.5456798e-01  -9.2460550e-01   7.9488621e-01   1.1237045e-01  -1.7946244e-01   8.3991871e-02   3.2981292e-02  -5.1873339e-02   6.9260847e-01   2.2406706e-01   4.2623854e-01   1.3047556e-01  -3.7927241e-01   9.0237294e-01  -5.7601644e-02  -6.0424858e-01  -4.0530085e-01   6.9204946e-01  -1.7357135e-01  -2.4083725e-01  -3.8362013e-01   3.2989191e-01   1.0499936e-01   7.2360718e-01  -6.0499333e-02   9.8048832e-01   9.6958858e-02   8.8412975e-02  -1.8825857e-01  -9.1942332e-01  -2.5634231e-01  -3.7609758e-01  -3.9758061e-02   6.8358662e-01   4.6892326e-01  -9.5282560e-02  -4.9710403e-01  -6.3837557e-01   6.9918186e-01  -7.0123036e-01   7.3953398e-01  -6.5664277e-01   7.9756562e-01   3.0930334e-02   3.6454311e-01   7.0557930e-01  -8.6635083e-02  -4.3450089e-01  -6.3376030e-01   8.6432118e-01   6.9214504e-01   1.5521950e-01  -6.5604523e-01  -3.8190112e-02   8.8946387e-01   3.7241422e-01   7.2260404e-02  -8.8618414e-01  -5.5427340e-01  -9.5141111e-01   4.1850423e-01  -4.4669578e-01   7.9654263e-01   4.6350542e-01  -9.1042312e-01  -5.6860033e-01   8.2153469e-02   9.2942118e-01  -2.4880791e-01   4.6600598e-01   5.8351529e-01  -2.1802931e-01   1.2204923e-01  -4.1552599e-01  -8.1832990e-01   3.7919669e-01  -9.8583160e-01  -4.9516251e-01   8.3961593e-02   6.5937373e-01   1.6026226e-02  -8.8611210e-01  -6.0623937e-01   5.3074197e-01   8.5459817e-01  -7.9604476e-02   2.3024184e-01  -3.1976588e-01   3.4061141e-01   7.6240814e-01  -7.7956149e-01   6.8526126e-01   3.9666883e-01  -3.9080678e-01   1.5191609e-01  -1.8578689e-01   9.0119135e-01  -7.4231622e-01  -2.6322229e-01   7.0485492e-01   4.2643416e-01  -5.6071554e-01   5.4496678e-02  -8.3792871e-01  -1.2584897e-01   9.8905738e-01  -5.7935145e-01   6.2164617e-01  -8.6673684e-01   4.1025274e-01   4.4168159e-02  -6.1526151e-01   5.7966051e-01  -9.6688397e-01   6.2228782e-01   6.8598200e-01  -9.4677441e-01   5.1462312e-01   1.9842618e-01   3.9153816e-01   5.6913563e-02   5.8800642e-01   2.6244581e-02   6.4590882e-01  -1.0212295e-01  -9.0067874e-01  -1.6667355e-01  -6.8776043e-01  -3.7864231e-01  -5.9815389e-01   1.2400977e-01  -4.6512584e-01  -6.6692579e-01  -7.0871077e-01   7.7940577e-02  -1.3591536e-01   5.6054450e-01   6.5914765e-01   1.0479679e-01   3.6503799e-01  -5.5244510e-01   8.3053666e-01  -8.5283822e-01  -2.3030791e-01  -8.1243234e-01  -3.8755270e-01  -6.0609538e-01   3.0120596e-01   6.6476901e-01   4.1677110e-01   4.6024320e-01  -2.0819885e-01   9.1590032e-01   5.3366570e-01   6.0253874e-01   2.5615960e-01  -9.8315846e-01   9.3475116e-01  -2.5097995e-02  -5.7741777e-01   1.4050698e-01  -1.2043695e-01  -1.4660979e-01  -6.0216270e-01   7.6584057e-01  -1.8418992e-02   4.6929663e-01   8.6307613e-01  -6.6893592e-01   4.9807641e-01   4.5153860e-01  -7.8217018e-02   5.7113527e-01  -6.4892992e-01  -8.2609051e-02  -1.0830808e-01   5.4950188e-01  -5.7757762e-01  -1.7940668e-01   1.7876143e-01   7.3027353e-01   2.0410675e-01   1.0136766e-01   6.6251480e-01  -2.4205082e-01   3.3809865e-01   6.5970325e-01  -6.0503316e-01  -9.7989074e-01   4.7644072e-01   7.6925405e-01  -1.8393016e-01   7.5608008e-01   8.8609197e-01   2.5090614e-01   5.0879098e-02  -7.4332263e-01  -4.5938487e-01   7.8645696e-01  -5.6707706e-01   7.2698847e-01  -3.7531872e-01  -5.1190093e-01  -8.3567288e-01  -4.9662560e-02  -5.1899089e-01   8.3960065e-01   9.7893329e-01  -1.2808207e-01   5.3713572e-01   8.6436241e-01  -7.2403114e-01  -2.5776271e-01   8.9866680e-01  -7.7411791e-01   2.3981943e-01   2.6991345e-01   4.4609322e-01  -4.0265112e-01  -9.5799920e-01   1.9367117e-01   8.5885042e-01  -5.2859991e-01  -4.9833962e-01  -7.6482120e-01   6.7165645e-02   1.8207607e-01   5.1275564e-01  -9.7932203e-01  -2.9193290e-01   9.5137333e-01  -3.5290426e-01   8.9130302e-01   8.8329705e-01   2.4012185e-01  -3.0196127e-01   3.9120256e-01  -3.8905843e-01   2.1405496e-01  -5.1148921e-01  -1.1363160e-01  -7.7130888e-01  -5.1831898e-02   2.3764113e-01  -1.4589701e-01  -1.9772279e-01  -2.9724831e-01   3.9761305e-01   9.9022306e-01   6.5096297e-01   5.3971195e-01  -4.1717300e-01   1.9113310e-02   2.8869178e-01  -6.6530308e-01  -5.7066773e-01   9.2222056e-01  -7.0530120e-02  -6.0213478e-01  -1.7202818e-01   3.3252462e-01   7.8026993e-01  -8.5416712e-01  -9.1757974e-01   3.0978350e-01   4.6784639e-02   2.5997075e-01  -4.8590588e-01  -8.5601033e-01  -1.1849506e-01   4.6045836e-01  -8.8816250e-01  -3.7435433e-01  -1.0991916e-01   8.2541728e-01  -3.0787390e-01  -6.2371324e-01   4.5361680e-01   2.9443402e-01   6.8555302e-01   3.6209191e-02  -2.8152130e-01   7.5925903e-01   1.1898808e-01   8.6121645e-01   8.9277069e-01  -6.2585407e-01   3.8520451e-01  -2.1751318e-01  -6.3979839e-02   4.2558631e-01   2.2037600e-01   9.4978639e-01  -3.9980514e-01  -1.3456092e-02   6.9982836e-01  -3.8524312e-01  -6.1758415e-01  -4.0592813e-01   6.8415792e-01   4.5689288e-01   4.1754506e-01   1.4885877e-01  -7.0980094e-01   3.1303779e-01  -2.5071213e-01  -6.0370538e-01   7.2660083e-01   9.4391709e-01   3.8786976e-01  -3.8685425e-01  -8.6937217e-02   7.9685598e-01  -7.1000103e-01  -8.2901547e-01   3.9323069e-01  -3.1545300e-01   4.4027810e-01  -1.5277431e-01   3.6243074e-01  -4.1883584e-01  -8.6060922e-01   6.8193711e-01  -5.0627340e-01   8.7352414e-01   4.8114264e-01  -5.2302773e-01  -3.2803525e-01   8.5829218e-01  -7.0402878e-01   3.0401783e-02  -1.4417859e-01   3.8297275e-01   5.6379451e-01   4.3374979e-01   4.2636163e-01  -9.5369347e-01   7.7590617e-02   9.5435448e-01   4.6217079e-01   5.3442976e-01  -4.5135220e-01   5.7850561e-01  -9.9900535e-01  -4.7020398e-01   1.5999217e-01  -4.3336764e-03   1.3986649e-01  -5.7994117e-01  -3.2881805e-01   3.9027423e-01   1.5492853e-01   5.9052229e-01  -8.1593688e-01   1.4563724e-01   5.5293514e-01   3.0506532e-01  -9.2395677e-01   6.5991335e-01   1.7020853e-01  -2.2543284e-01  -6.4233436e-01   4.1696719e-01   4.8175945e-01   4.3814019e-01  -9.2624550e-01  -1.5570781e-01  -2.8194161e-01  -9.8826706e-01   5.7187336e-01  -9.4742011e-01  -8.5696824e-01  -1.5130573e-01   7.8216613e-01  -4.6583743e-01  -8.7538172e-01  -4.2076454e-01  -1.5720266e-01  -3.3893733e-02   6.4640945e-01   9.8830044e-01  -8.2517205e-01   1.5563476e-01   6.5984722e-01   6.0010867e-01   8.2176092e-01  -4.6967995e-01   1.9714637e-01   2.8906401e-01  -1.7276939e-02   9.7594312e-01   8.2082378e-01   9.3981967e-01  -9.3439110e-01  -5.6875269e-01  -8.0298444e-02   7.4052552e-01  -1.2082710e-01  -8.3586352e-01   6.2841567e-01  -2.1190029e-01  -8.2588578e-01  -8.0910580e-01   1.3730847e-01   8.2418420e-02  -7.6902369e-01  -8.0584806e-01  -9.1453297e-01   3.4761431e-01  -4.0756477e-01  -2.5226225e-01  -4.8153590e-01   2.5678459e-01   5.9801543e-01  -3.7304048e-01   9.9305991e-01  -4.7583650e-01   9.5501989e-01  -3.3834976e-02  -1.1666270e-01   9.6715672e-01  -1.4726096e-01   6.1206877e-02  -5.4197066e-01   2.4552565e-01   5.6870200e-01   4.3588752e-01  -8.2744177e-01   7.1242321e-01   9.2267782e-01  -2.6438313e-02   5.8076863e-02  -5.3952003e-01   9.2038805e-01  -2.2134791e-01   5.9814584e-01   9.7933029e-01   8.8271071e-01  -7.9128534e-01   5.8014004e-01  -8.1695302e-01  -6.9358392e-01   3.6717435e-01   1.4968629e-01  -1.4939528e-01   6.1208515e-01   5.6775928e-01   9.1979457e-01  -8.7626129e-01  -8.7605207e-02  -4.9031323e-01  -1.6529047e-01   3.8781827e-01   1.6861219e-01  -2.5266443e-01  -6.9124539e-01  -8.0426799e-01   6.3078698e-01   7.1503589e-01   3.5606767e-01  -6.1112727e-01   4.8057688e-01   5.7738679e-01   2.1735634e-01  -2.2786378e-01  -4.6787910e-01  -7.5344391e-01  -3.8356110e-01   7.0207967e-01   5.9602876e-01  -5.6764287e-02  -7.8496477e-01  -5.9395485e-01  -5.5948292e-01   9.6166720e-01   6.8598867e-01   6.2091716e-01   4.6752564e-01   4.3022966e-01   9.2261720e-02   2.6738041e-01  -2.5228244e-01   9.7815648e-01  -6.7193650e-01   8.9336773e-01   1.1871941e-01   6.7951521e-02   5.3108385e-01  -4.2326518e-01   9.9297353e-01  -4.9920076e-02   5.4464527e-01   8.2317785e-02   7.4939775e-01  -1.0729151e-01   8.5637910e-01   3.1505630e-01  -7.2045228e-01  -6.3230744e-01   1.1985293e-01  -2.6881467e-01   9.9030054e-01  -1.3407668e-01  -2.5663688e-01  -6.4598438e-01   5.0117382e-01  -8.5628938e-01  -6.1354980e-01  -6.6334900e-01  -4.5773599e-01  -4.3882043e-01  -2.4603280e-01  -2.6143546e-01  -7.8022254e-01   5.4085212e-01  -1.7550929e-01  -1.0316317e-01  -4.5450703e-01  -4.6453479e-01   6.0823560e-01   2.9600364e-01  -1.1606026e-01  -9.7582818e-01  -2.1946858e-01   8.3579204e-01   2.1910745e-01   3.3365366e-01  -6.6816011e-01   7.7481697e-01  -8.6759980e-01  -7.9235554e-01  -3.9747756e-01   4.1187461e-01  -2.1009851e-02   2.6006832e-01   3.0792562e-01  -5.8066487e-01  -9.9595342e-02   3.0833646e-01   7.4086476e-02  -2.5484149e-02  -8.2468538e-01   7.1955029e-02  -9.1491541e-01   8.5705000e-01  -9.7345906e-02   1.3861150e-01  -9.3417110e-02  -4.7133619e-01  -2.1346036e-01  -2.7737969e-01   5.6504168e-01   7.4407178e-01  -3.4545589e-01   8.1612645e-01   2.8609014e-01   3.7811918e-01   3.4222504e-01  -7.7671946e-01   9.7184069e-01  -8.1898201e-01   3.6153608e-01  -4.9256280e-01  -6.9909461e-01   9.1723843e-01  -2.7744644e-01   4.7412217e-01   2.4859398e-01   1.2691707e-01   5.9592730e-01   2.9829786e-02  -7.3419744e-01   4.7771378e-01   7.9994584e-01   3.4256516e-01   9.2394004e-01   9.3076620e-01   7.5560915e-01   6.0624874e-01  -9.3008564e-01   6.6552496e-01  -1.8430404e-01  -7.0995877e-02  -5.6625479e-01   4.6182495e-02   6.8462299e-02   2.6320434e-01  -9.3863734e-01   3.6048317e-02  -4.4188739e-01   5.5346973e-01  -5.6946484e-01  -4.6328685e-01   3.7643793e-01   3.2490485e-01  -1.5469866e-01   9.5714156e-01   1.1367579e-02  -8.0309002e-02  -3.8122561e-01  -4.7904854e-01   1.3603398e-01  -6.7191278e-01  -6.6444179e-01  -1.6619318e-01   3.6882576e-01   9.2043610e-01  -9.6222949e-01  -6.7467618e-01   8.1119420e-01   5.4685017e-01   7.0693548e-01   3.0601958e-02   3.1543440e-01  -1.4111226e-01   1.5663651e-01   5.0136754e-01   2.3048745e-02  -1.9333375e-01   2.0556542e-01   4.7254203e-01  -4.1576741e-01   4.2763067e-01  -9.9479143e-01  -1.0363476e-01  -2.2579961e-01   3.1069860e-01   2.2525741e-02   6.8853583e-03  -3.5416486e-01   5.2010759e-01   9.9971651e-01   9.4628771e-01  -9.0058795e-01   7.5418151e-01  -3.3823782e-01  -5.7953217e-01  -7.6386269e-01   6.9088953e-01  -3.7934486e-01  -5.5448841e-01  -8.0143917e-01  -8.8140820e-01  -3.3907319e-01  -7.0757547e-01   8.3936281e-01  -1.5136242e-01  -8.8040192e-01  -6.2333480e-01  -2.5896883e-01   1.3693307e-01   2.5682794e-01  -9.1286187e-01   6.5111143e-01   3.6496561e-01   7.4373432e-01   6.3762089e-02  -4.8297709e-01   9.1414792e-01  -7.0891715e-01  -2.4427330e-01  -3.4774451e-01   5.4753002e-01   3.1792434e-01  -2.7270705e-01   3.3844115e-01  -7.9379252e-01  -8.0670998e-01   6.2113283e-01   4.3528508e-01   9.9471732e-01   2.1207904e-01  -2.3941168e-01   9.8691511e-01  -2.8756784e-01   3.2756498e-01   1.8493867e-01   7.8688110e-02  -3.0858081e-01  -9.0547281e-03   8.6807129e-01  -5.0595729e-01   8.0527699e-01   1.6154897e-01   9.4398295e-01   2.0032089e-02  -5.3626131e-01  -1.7128644e-01  -8.3315997e-01   5.4503618e-01   2.4807853e-01   9.6816089e-01  -4.3837544e-01   6.5498894e-01  -2.9992358e-01   5.5336811e-01  -3.0438076e-01  -4.8328835e-01  -2.8139704e-01  -7.7404354e-01   5.9578244e-01  -4.3219419e-01   5.1043278e-01  -9.9191549e-01   3.2216835e-01  -6.6586157e-01   9.9040118e-01   8.7197489e-01   4.6260644e-01  -6.6208065e-01   3.2117300e-01   5.3839656e-01   9.7625466e-02  -4.4658794e-01  -8.2878748e-01   3.4279383e-01  -1.9019798e-02   8.8956853e-01   7.6369580e-01   3.5141090e-01  -5.8132861e-01   9.9238140e-01   2.6581670e-01   2.2204916e-01   6.7079778e-01   2.9962526e-01   9.4710371e-01  -6.3565007e-01   8.8619988e-01   9.5261450e-01   7.1696369e-01  -7.4016559e-02   7.9170505e-01   6.5593418e-01   9.4094228e-01   5.5376293e-01   8.8282347e-02   6.6749581e-02  -5.1754464e-01   9.1752325e-01  -4.6338123e-01  -8.4053395e-01  -3.5975448e-01   9.9296531e-01  -7.3416352e-01  -1.1402377e-01  -6.3493592e-01  -1.6123821e-01  -8.0110715e-01   8.8156400e-01  -9.7657280e-01  -8.9034604e-01  -9.2037170e-01   7.0357963e-01  -7.2504458e-01  -2.5987477e-01  -9.2795130e-01  -4.2531845e-01  -7.7202381e-01  -2.0458726e-01   1.2751869e-01   8.6438088e-01  -1.0151586e-01  -7.3616717e-01  -5.9432463e-01  -3.3637518e-01  -5.4964034e-01  -3.7848210e-01   9.1194538e-01   1.3456224e-01   4.2165179e-01  -5.5609009e-01   5.1982145e-01   8.0572040e-01  -5.0949751e-01  -6.3961900e-01  -4.3354451e-01  -6.5007063e-01  -5.1163162e-01  -3.7966294e-01   3.8245691e-01   8.6968076e-01   3.7540616e-01   7.1365296e-01   6.9591184e-01  -7.6555423e-01   3.8413802e-01   9.5011095e-01  -8.1894031e-01  -9.8852693e-01   5.7014952e-01   8.2320635e-01   3.2702166e-01   5.7892956e-01   2.3723376e-01   8.1376012e-01   3.5392194e-01  -4.6052194e-01   1.6231722e-01  -7.4635157e-01  -6.8042789e-01  -9.0420407e-01  -8.7975178e-01   7.7479949e-01   4.5967934e-01   8.9351002e-01  -2.0701811e-01   6.3585242e-01  -5.0697338e-01  -1.9895635e-01  -3.5204265e-01   9.5437532e-02  -4.4183254e-01  -9.5094337e-01  -5.2857664e-01   5.7830241e-01   6.5822928e-02   2.7900692e-02   4.0248510e-01  -1.0169259e-01   5.6984295e-01   8.0456969e-01   3.5672166e-01   6.6191251e-01   2.2666521e-01  -3.4534131e-01   4.9275964e-01  -6.2766830e-01   6.8542150e-01   4.6385564e-01   2.7025976e-01  -7.5980889e-01  -8.9167663e-02  -5.8131189e-01   7.3111118e-01  -9.2245787e-01  -3.5877970e-01  -8.5736090e-02   2.7901722e-01   1.6358902e-01  -8.0491456e-01   9.7831259e-01  -2.6558955e-01  -4.0224706e-01  -1.5076473e-01  -9.9463916e-01   4.6109469e-01   2.5107195e-01  -4.7954387e-01  -8.5972453e-01  -6.4255518e-01  -4.2567877e-01   9.8691317e-01  -9.6680600e-01   5.2641372e-01  -3.4508468e-01  -6.4138726e-01   3.8819805e-01  -8.1285952e-01   6.4542682e-01   2.9506621e-01   5.8664386e-01  -4.3053555e-01   8.0737251e-01  -6.7575484e-01  -4.3813180e-01  -3.7970906e-01  -7.8014874e-01   4.9527727e-01   6.1034636e-01   7.3328591e-01  -3.8455067e-01   4.2961293e-02   8.1998317e-01  -7.3222865e-01   3.2902919e-01   5.6194544e-01  -5.3759117e-01   5.5270432e-01  -9.2731734e-01   3.1936611e-01   2.3398283e-01   4.0045649e-01   5.1681380e-03  -5.9410161e-01  -4.8188792e-01   7.1107127e-01   3.4198314e-02  -4.6277447e-01  -3.4505744e-01   7.4358220e-01   5.1526720e-01   8.3205994e-01  -2.2281801e-01  -6.2946452e-01  -9.1696867e-03  -6.6546236e-01   7.4624900e-01   6.1327478e-01   4.5774260e-01   7.0814629e-01   8.4001552e-01   7.6413742e-01   6.4198591e-01   7.5270322e-01  -7.4324113e-01   6.2512602e-01   8.8333356e-01   2.3605691e-01   9.6175125e-01  -5.1138886e-01  -4.7163304e-01   6.0509616e-01  -2.8115537e-01   4.0763135e-02   4.0997500e-01   4.7715641e-01   4.5565407e-01  -6.1969233e-01  -8.2990743e-01  -9.8701013e-01  -1.5938840e-01   9.7593533e-02  -8.3973318e-01  -3.8957372e-01   4.5202808e-01  -6.0316139e-01  -7.5983594e-01   5.4620350e-01  -1.5333380e-01   6.6858177e-01  -5.2909885e-01  -1.9181846e-01  -8.3031745e-02  -1.9474496e-01   8.1701339e-01   3.4675343e-01   7.9470009e-01  -1.2070223e-01  -1.2979902e-01  -8.3404849e-01   8.6307144e-01  -4.5437273e-04  -4.2011479e-01   2.5616860e-01  -9.4923741e-01   9.6840007e-01  -3.4277071e-01  -7.8753404e-01  -1.1196115e-01  -9.5563297e-01  -7.0252523e-01   9.2863299e-01   1.9825156e-01  -2.0938169e-01  -8.2782834e-01  -4.7800455e-01  -9.0494122e-01   6.8811277e-01  -6.0787469e-01  -6.0740915e-01  -3.4721123e-01  -2.0809501e-01   2.7562145e-01  -2.8265826e-01  -2.2407772e-01   4.0583295e-01  -7.4030499e-01   6.4923118e-01  -6.2854436e-01   5.1426677e-01   8.7510144e-01  -7.5621672e-01   4.6763678e-01  -4.9987970e-02  -6.9799397e-01   7.4071100e-01  -3.3299333e-01   7.3112271e-01  -2.8646546e-01
  -8.8005177e-02   3.1726746e-01  -2.1274450e-01  -3.9212788e-01  -2.4044580e-01  -4.8751138e-01  -2.9262681e-01  -4.7954069e-01  -9.5760450e-01   1.9080840e-01  -8.6289653e-01  -2.2848606e-01  -9.8822300e-01   6.1574509e-01   7.7165014e-01  -8.8201186e-01  -8.8203952e-01   3.2545840e-01   3.9470815e-02   3.9953938e-01   5.3806342e-01   6.1114973e-01  -9.3877961e-01   8.8266891e-01  -8.4741048e-01   6.3986202e-01   6.8170648e-01   5.8206304e-01  -8.8140150e-01  -1.5706475e-01  -5.9473490e-01   3.3514305e-02  -5.4985604e-01  -1.1966175e-01   6.0599285e-02   8.8655057e-02  -9.5088112e-01  -2.0547595e-01   9.4239446e-01  -4.9492839e-01  -7.5710653e-01  -8.3598516e-01  -5.8978796e-02  -4.1304416e-01   5.6167346e-01   4.8994008e-01  -8.2796178e-01   1.0160807e-01  -7.3849655e-01   9.3459750e-01   2.1982141e-01   9.5609654e-01   1.2462676e-01   9.7254227e-01   2.3069368e-01  -5.3317896e-01  -2.0007894e-01  -1.6124556e-01  -1.9048675e-01  -7.6668138e-01  -2.3201119e-01  -9.6112275e-01   4.3366552e-01   6.5800206e-01  -3.2468187e-01   7.0106471e-01  -9.7068182e-01  -8.9494361e-02   4.7828273e-01   9.2623767e-01   1.2779251e-01   2.4668709e-01   3.2459787e-01  -6.3081029e-01   7.4389707e-02   8.7341140e-01   2.8122264e-01  -1.3958604e-01   2.7914879e-01   9.3390728e-01  -9.8578846e-01  -6.1564883e-01   3.9685011e-02   4.6026896e-01  -1.9368881e-01  -5.8314125e-01  -6.2387259e-01  -4.1840749e-01  -5.6328011e-01   4.7368282e-01   8.9369507e-01  -2.9110514e-01   8.1393750e-01  -9.6635590e-01   2.0053209e-01   5.7976229e-03   3.2917991e-01  -8.2746516e-01  -2.1791984e-01  -7.2861037e-01  -9.8528415e-02   3.1736610e-01   3.4665965e-01  -1.1090306e-01   5.1090388e-01   4.8641624e-01  -7.7597795e-01  -5.3539403e-01  -3.0401175e-01  -9.1796512e-01   8.7217075e-01   2.3892105e-02  -4.6364087e-01  -1.2557265e-01  -8.3221066e-01   7.6968308e-01   9.9799087e-01   6.2129996e-01  -5.4118743e-01  -8.4663677e-01   9.0752707e-01  -2.7431005e-01   2.7977465e-01  -1.8370017e-01  -9.3132083e-01   9.6903066e-01   4.3346753e-01  -2.3872758e-01   5.5103672e-01  -3.7818901e-01  -7.0263502e-01   9.0010236e-02   6.2242834e-01   7.7843350e-01   9.5115081e-01   9.7896737e-01   5.1294299e-01   5.6753258e-01  -6.0348359e-01  -7.9351980e-01   3.6792616e-01   9.9210095e-01  -5.6643965e-01   6.0049170e-01  -9.7152434e-01   3.3405998e-02   5.4505744e-01  -9.3297351e-01  -2.3580243e-01  -3.1134217e-01   8.9997154e-01  -6.9538455e-01   7.2289695e-01   9.3214151e-01   4.4462573e-01  -9.9778191e-02  -5.4563280e-01  -5.4847225e-01  -4.7212691e-01  -9.0078704e-01   1.8066056e-01  -7.4171735e-01  -2.3517235e-01   2.0456382e-01   7.8041676e-01  -4.5881656e-01   3.0586847e-01   9.2654512e-01  -3.9315535e-02   3.6112057e-01  -7.3947715e-01   6.4880831e-01   2.6377022e-01   1.4746217e-01  -9.7341944e-01  -4.4522433e-01   6.4403343e-01  -5.4718503e-02  -6.5553140e-01   2.1624098e-01   4.7434027e-01   9.0725384e-01  -5.4985241e-01  -8.1141332e-02  -3.1673271e-01   5.9315966e-02  -6.5134334e-01  -5.8592425e-01  -9.0616201e-02   9.1962169e-01  -5.7078770e-01  -3.5888166e-01  -1.0393398e-01  -3.1744301e-01   8.7636289e-01  -1.2756566e-01  -7.6829220e-01   3.4696529e-01   1.3822511e-01  -6.5253220e-02  -8.3165277e-01  -4.7804599e-01   8.0272885e-01  -2.4347817e-02   3.3801486e-01  -9.8857472e-01   4.3429553e-02  -8.7252478e-01  -8.5037970e-02  -9.1240529e-01   9.0350667e-01   8.1843344e-01  -8.0225304e-01   7.5685559e-01   5.1115142e-01   4.2992860e-01   8.3339637e-01  -9.1861173e-01   5.2823723e-01   9.4099953e-01  -8.7953810e-01  -1.6281365e-02   9.5288774e-01   8.9166684e-01  -6.3953674e-01  -3.2721214e-01  -5.3216514e-01  -3.9513529e-01  -8.4750286e-01  -6.9549694e-01   2.8127110e-01   4.6431463e-01   2.6151436e-01   1.5669417e-01   4.9497699e-03  -6.3032926e-01  -3.2341750e-01  -8.6477877e-01  -9.7517147e-01   6.0713519e-01  -5.0552088e-01   8.2905005e-01   8.6505771e-01  -4.1968720e-01  -2.3371286e-01   1.2258343e-01   2.1453681e-01   8.4658779e-01  -9.4434492e-01   2.0707358e-01  -8.2755450e-01  -4.9482950e-01  -3.5301678e-01  -2.2896483e-02   2.9072585e-01  -5.5564557e-01  -1.6222456e-01  -8.2462424e-01   8.9961571e-01   2.4932966e-02  -8.4552324e-01   5.5008777e-01  -3.9534535e-01  -5.7921190e-01   3.9261983e-01   7.8712410e-01  -5.3455260e-01   7.3714902e-01  -3.9886735e-01   5.6352214e-01   7.3066327e-01  -8.8120360e-01   4.8326844e-01  -2.3306206e-01  -2.5674178e-01   1.0152048e-01   7.2885746e-01  -1.2989484e-01   2.1600187e-01  -2.6239894e-01  -3.7145139e-01   5.0354861e-01   7.3360694e-02   7.5277786e-01   9.6390956e-01  -3.4841968e-02   6.9491962e-01   7.2691662e-01  -9.5292351e-01   5.2862830e-01  -4.0450325e-01   6.1877952e-01   6.0191548e-01  -5.3128975e-01   2.9983439e-01  -1.6661954e-01   5.0892081e-02   1.7212757e-01  -9.3121715e-01   7.0817934e-02  -8.8628808e-01   8.3610870e-01   8.0911259e-01  -2.0383944e-01   2.8105849e-01  -7.5078478e-01   9.2774225e-01   1.1616744e-01   5.2356585e-01  -9.3127330e-01   7.8061702e-01  -6.1016551e-01   3.9817378e-01   8.7412031e-01  -2.4724611e-01   9.7373323e-02   2.5354417e-01   9.1021668e-01  -2.1778753e-02  -9.9300275e-01  -7.3465097e-01   8.8251156e-01  -4.8080352e-02   7.9142944e-01   3.6523840e-01   9.1922633e-01   1.2743069e-01  -2.3945638e-01   1.0569025e-01   4.7783922e-02   4.3197443e-01  -5.5956582e-01   9.7884237e-01  -5.3982296e-01  -6.8745955e-01  -3.0174684e-01   1.3426560e-01  -2.9463007e-01  -1.3510908e-01  -5.9050790e-02   1.1216015e-02  -2.9637619e-01  -7.0004102e-01   5.9658140e-01   3.5753933e-01   9.2820576e-01   2.5520851e-01  -1.5108773e-01   4.5736594e-01   7.0915462e-01  -2.8953308e-01   5.1582204e-01  -7.3921862e-01   5.0964001e-01   5.1126675e-01   3.7717792e-01   2.2803920e-01  -5.0907964e-01  -1.4262181e-01   8.3747369e-01   9.0849408e-02   1.4484604e-03  -6.7198962e-01   2.2759838e-02  -7.7103094e-01   4.5937818e-01   4.3171549e-01   6.5622657e-01   8.9868387e-01  -7.1268197e-01  -2.7633543e-01  -2.7686858e-01  -2.9996611e-01  -1.6515738e-01  -5.5841409e-01   5.9708049e-01  -9.2419391e-01   8.4893277e-01   2.0767749e-01   9.0762553e-02  -5.0615956e-01   8.1457839e-01  -7.0722090e-01  -8.8160186e-01  -6.8627657e-01   4.1177439e-01   8.3556329e-01   8.5592830e-01  -4.2392991e-02   7.0678429e-01  -5.5113199e-01  -3.4648846e-01  -4.6361837e-01  -4.4579607e-01   4.5695876e-01  -9.5577557e-01   6.4512444e-01   8.8378435e-01  -1.3087990e-01   2.0453977e-01  -3.2065611e-01   3.7120073e-01  -3.0267301e-01  -9.2419492e-01   7.9779884e-03  -7.4745130e-01   3.9457906e-01  -6.2695692e-01   3.3150649e-01   7.2671106e-01   2.3962450e-01  -2.8743164e-01  -1.1568979e-01  -9.0760663e-01   1.5157866e-01  -3.4593502e-01   6.7993522e-01   1.6013818e-01  -3.0481359e-01  -6.5469585e-01  -7.5123289e-01   6.8350786e-01   6.3593878e-01   8.8561794e-02  -5.6965541e-01   4.0636451e-01   4.3765260e-01  -2.4780947e-02   7.1012845e-01   8.5309724e-01  -3.9493382e-01  -2.8419379e-01  -6.6013565e-01  -8.7380645e-01   8.9312115e-02  -2.3317978e-01   8.8424692e-01  -7.9524776e-01   7.8560863e-01  -1.8526266e-02   7.1409143e-01   4.0212631e-01  -7.9450018e-01   6.5729102e-01   6.6034542e-01   5.4424462e-01  -3.0999871e-01   4.0655360e-02   5.6870238e-01   1.2538809e-01  -6.5465955e-01  -6.1563986e-01   3.8775967e-01   3.8970481e-01  -4.1479173e-01   6.4535518e-01  -4.5156865e-01   2.3213660e-01  -1.6758528e-01   9.2796230e-02   9.9472426e-01  -3.0389154e-01   9.1876986e-01   7.7361480e-01   5.0498413e-01   7.7728766e-03  -1.8511529e-01   8.6742035e-01   2.5728309e-01   7.2094630e-01  -5.0984619e-01  -1.1394305e-01  -6.3651886e-01  -9.0828561e-02  -4.8102864e-01  -6.2062773e-01  -2.0659782e-01  -6.2666164e-01   9.3014539e-01  -5.0961558e-01   5.1492380e-01  -3.7842691e-01  -3.4521013e-01  -5.0428977e-01  -3.8429253e-01  -8.4925850e-01   5.7441542e-01  -9.9182166e-01  -1.6661626e-01   8.2869156e-01  -3.6684825e-01   3.4046147e-01   6.0412390e-01   9.2143397e-01  -9.8473917e-01   1.0277026e-01   1.3397532e-01   5.5815608e-01  -6.2511496e-01   9.7125544e-01   3.7660665e-01   4.0419756e-01   6.4741648e-01  -4.8846477e-01  -8.8360890e-01   5.4000173e-01  -3.8005174e-01   3.4301715e-01   8.0997772e-01  -7.3619587e-01   3.2060604e-02   8.7217968e-01   2.5062764e-01  -6.7526192e-02  -2.8506213e-02  -5.0507013e-02  -3.5913532e-01  -6.1331152e-01  -6.8672719e-01  -2.4440430e-01   1.1101012e-01   9.9163854e-01   1.1468827e-01   8.6632064e-01   6.4552908e-01  -9.9127414e-01  -8.1720770e-01   3.4109166e-01  -6.0311494e-01  -1.1236183e-02   4.4392161e-01  -4.5916313e-01  -7.9357572e-01   6.2532761e-01  -9.3390242e-01  -2.9006371e-01  -5.5371954e-01   5.3941015e-02   9.1244897e-02  -6.9046370e-01   3.1297647e-01   4.9836801e-01  -5.9357288e-01  -4.5434322e-01  -4.2318255e-01   5.4955888e-01  -3.5355926e-01   8.2450855e-01  -6.6364140e-01   9.3657530e-01   4.8781051e-01  -1.2577238e-01   4.3388549e-01  -6.2255532e-01   1.0869411e-01  -4.7513780e-01  -4.2679461e-01  -3.3841493e-01   8.1248642e-01   2.3677119e-01   7.5608857e-01  -7.6039898e-01   7.2773233e-01   4.9983112e-01  -7.3484548e-01   7.2540180e-02   8.0325421e-01   1.1252231e-01  -8.5206482e-01  -3.7563907e-01   8.5596381e-01  -1.5347277e-01  -9.5321273e-01   7.4066373e-01   5.6758049e-01  -5.0003803e-01   2.3970657e-01   7.6418637e-01   2.9734344e-01   3.6120164e-01  -7.4391421e-01  -6.3341822e-01   1.6153095e-01  -4.1482992e-01   6.4480680e-01   2.5929132e-01   3.4775044e-02  -9.2228890e-01   9.7160733e-02  -6.0275181e-01   1.5631247e-01   2.3562854e-01   6.8314971e-02   7.8614436e-01  -8.9432351e-01   8.7319861e-01  -2.5177172e-01   6.7249182e-01  -1.1612515e-01   1.6375257e-01  -9.4069011e-01  -9.5183879e-01   8.8960021e-01  -1.5521086e-02  -6.1441987e-01  -9.3735824e-01   4.2979813e-01   3.7010303e-01   6.4695757e-01   7.7067978e-01   2.7636041e-01  -7.9111272e-01  -7.5169459e-01   6.8321103e-01   4.7464760e-01  -2.5002225e-01  -4.1171526e-01   5.2146981e-01  -8.7712691e-01  -6.1223175e-01   4.0351636e-01  -3.0379767e-01  -8.2471192e-01  -4.4362219e-01  -5.9996191e-01  -4.6295690e-01   5.6087835e-01  -6.8782260e-01  -8.6105493e-01  -9.0628548e-01   1.9610197e-01   2.7802962e-01  -9.2209364e-01  -8.8173930e-01  -6.4553272e-01   2.0736334e-01   2.3513053e-02  -1.0895281e-01  -1.5017200e-01   3.1141360e-01   7.4447908e-01  -3.4172994e-01   6.4949468e-01   6.2877919e-01  -1.9802361e-01  -5.2726577e-01   3.8343092e-01  -6.5218097e-01   2.4143153e-01  -5.9521305e-01   2.2321561e-01  -2.1581349e-01  -7.9929395e-01   2.6975300e-02  -6.7483635e-01  -9.5981527e-01  -3.4980773e-01   5.5057853e-01   1.9529188e-01   1.4108512e-01   2.6655858e-01  -5.8613846e-01   7.5420689e-01  -7.3251452e-01  -1.9545671e-01  -9.5219027e-01  -7.0808262e-01   9.4023850e-01  -3.1230860e-02   2.3234503e-01  -8.9260258e-01   3.0533102e-01  -3.3586186e-02  -6.8001199e-02   2.2081548e-02  -1.7526034e-01   2.1922471e-01  -3.8514456e-01  -2.0436364e-01   6.8815237e-02   3.6419392e-01  -5.0344226e-02   5.4865217e-01  -9.5677469e-01  -3.2104997e-01   2.6438517e-01   3.1787643e-01   1.8684409e-01   4.7622246e-02   5.1080694e-01  -8.5384233e-01   4.1487127e-02   5.4499835e-01  -4.9893095e-01  -3.5439804e-02  -2.7360005e-01   8.1029711e-01   1.4368888e-01  -2.9034661e-02  -3.2430554e-01   8.9869379e-01   1.2273346e-01  -2.8008479e-01  -7.8050882e-01  -7.3109922e-01  -4.7767148e-01  -8.0203603e-01  -5.6075306e-01   6.4687380e-01  -1.4622385e-01  -5.7505784e-01   2.8269142e-01   9.1600501e-01  -8.3617498e-01   9.4363498e-01   1.3551757e-02  -5.4551372e-01   8.4545349e-01  -4.2548811e-01   5.3710235e-01  -2.8632858e-01  -7.7527782e-01  -9.2410688e-01   4.0305834e-01   4.6324603e-01   1.5621025e-01   6.6547380e-02   1.9688006e-01  -2.9461945e-01   5.4968095e-01   9.5874146e-01   2.4236881e-01   8.8003151e-01  -2.2260671e-01   8.4420834e-01   8.4741793e-02   7.4376127e-01  -4.3951082e-01   7.5450929e-01   8.6094773e-01   6.1959417e-01   1.2169520e-01   8.1577391e-02  -4.4373401e-01   1.5615547e-01  -4.4425411e-01  -1.4140264e-01  -2.7301962e-01  -3.0223424e-01   1.7135471e-01  -7.5881642e-01  -3.4081293e-02  -8.1918300e-01   8.8589322e-01  -9.9906041e-01  -7.4612142e-01   6.0590926e-01  -8.7810716e-01   5.1214053e-01   9.3222649e-02  -3.8000665e-01   1.8972883e-01  -6.9956628e-02  -9.5500540e-01  -6.5214681e-01  -7.0570213e-02  -7.3215696e-01  -5.3978345e-01  -3.4855498e-01  -3.0776210e-01  -1.1371855e-01   8.6204006e-02   2.2181667e-01   4.6832673e-02  -6.1680257e-01  -9.0623545e-02  -9.5574696e-01  -4.9218110e-01  -8.1550902e-01  -6.1004858e-01  -4.2759673e-01  -4.8107682e-01   7.8312710e-01   5.1233420e-01  -4.9431670e-01  -4.8968213e-01   1.7992735e-01   8.2976262e-01  -3.1392829e-01  -2.5372588e-02   4.9771754e-01  -6.2325547e-01  -2.0593958e-01   9.8591083e-01  -5.9781800e-01   3.5010880e-01  -2.6131537e-01  -6.9359264e-02  -4.8032172e-01  -8.0210592e-01  -7.6336011e-02   1.7023875e-01  -4.0343783e-01   3.0682520e-01   1.7931959e-01   8.2569892e-01   3.6357564e-02   6.3416864e-01   4.0651737e-01   4.8773419e-01  -1.2370332e-01  -7.7057752e-01  -3.6236571e-01  -1.7199846e-01   9.9721105e-01   4.9417745e-01   2.8812728e-01   7.4275689e-02   9.8543476e-01  -4.9849733e-01   6.0773776e-01   8.2052440e-01  -5.8488568e-01  -1.6329629e-01   3.1555555e-01  -7.0508982e-01   9.9280045e-02  -4.4444633e-01  -9.2659429e-01   6.3486863e-01  -3.1832829e-01  -8.2963354e-01   3.3948480e-01  -2.4447360e-01   6.3336692e-01   4.2638519e-01   7.5580823e-01   2.5087840e-01   6.2908726e-01   3.8326758e-01  -6.9663613e-01   7.9910089e-01  -2.1101280e-01  -2.9766328e-01  -2.8642460e-01  -4.9896872e-01  -9.7720365e-01   5.0578730e-01   1.3533265e-02   7.3166692e-01  -1.5695093e-01   3.2492354e-01   3.9940351e-01   8.1081147e-01  -7.5480725e-01  -1.0305844e-01  -9.2055668e-01   6.6706191e-01   4.5784779e-01   3.9514235e-01  -9.1014483e-01   3.5268537e-01  -6.3369287e-01  -4.6474680e-01  -5.0861373e-01  -4.2680194e-01  -3.2408812e-01   9.5391117e-01   2.4614697e-01  -7.5417738e-01   9.9673681e-01  -3.8055849e-01   2.1175078e-01  -1.2372588e-01   7.7918209e-01  -4.3922559e-01  -5.4955802e-01  -8.8189431e-01   6.5944328e-01   6.7574717e-01  -2.3845156e-01   1.6177643e-03   4.2145957e-01   1.0223752e-01  -2.5682039e-01   1.3857331e-01   5.1545790e-01  -3.4149735e-01  -6.9426947e-01   2.1519128e-01  -8.1603883e-01  -4.7691882e-01   1.8747452e-01   6.9582349e-01  -9.6797651e-01  -4.7077610e-01   1.8906500e-01  -2.0036257e-02   3.1760382e-01  -2.2489594e-01   5.3090579e-01  -8.6465759e-01   5.4817159e-01   2.4629169e-02  -3.2639870e-01  -1.3574079e-01  -6.9191014e-01   3.3196066e-01  -7.6121175e-02   8.9442544e-01  -5.6593436e-01  -4.5469724e-01   8.4428036e-01  -2.6786205e-01   6.9163881e-02   8.2354353e-02  -2.5587114e-01   2.5524932e-01  -1.6310151e-01  -2.0940405e-01   5.9176465e-01  -6.0574671e-01  -4.5196672e-01   8.3983832e-01  -1.2786400e-02  -1.3043693e-01  -1.2097658e-02  -4.6118967e-01   1.3195367e-01  -6.3532180e-01   8.4599790e-01   6.2666311e-01   4.4515265e-01   6.4524849e-02  -6.6252305e-01   1.1247358e-01  -9.6696029e-01  -3.9779867e-01   2.6159712e-01   6.7290394e-01  -8.5958415e-01   6.9143583e-01   3.5512018e-01   5.9283305e-01   2.9111652e-01   3.0014539e-01  -1.8045029e-02  -1.6687440e-02   5.5559453e-01  -8.0974950e-01   2.4070806e-01   2.9421716e-01   2.3035133e-01  -2.0058514e-01   1.2264086e-01   5.3339189e-01  -6.6399148e-01  -5.6984845e-03  -1.8225016e-01   6.0107807e-01  -9.5905673e-01  -5.9568817e-02  -2.1134219e-01   7.7416498e-01   5.1974673e-01   9.5329194e-01  -4.5076226e-01   8.3425140e-01  -7.9673756e-01  -1.6200807e-01  -8.9928354e-01   4.8251899e-01  -9.8118629e-01  -5.7454891e-02   3.0337179e-01  -9.7633654e-01   6.7218181e-01   6.5206273e-01   7.9629303e-01  -3.3817064e-02  -5.4387449e-01   5.6583364e-02  -6.2797344e-01  -2.4617113e-02   5.2886140e-01   3.9532768e-01   1.0410134e-01  -4.1755981e-01  -4.5971756e-01   2.3532319e-01  -9.2896859e-01  -2.7602774e-01   8.3275264e-01  -1.0083739e-01  -1.9647517e-01  -2.4131268e-01   2.7672270e-02   4.1648049e-01   5.3707255e-01   5.5562200e-01
   7.7933107e-01  -9.4245275e-01  -4.7021043e-01   4.7913521e-01   4.8604981e-01   8.1281734e-02   1.4759139e-01  -3.8144518e-01  -1.1155314e-01   4.0196609e-01   3.0851009e-01  -4.0396287e-02  -4.3621017e-01   1.4088418e-01   8.0596028e-01  -1.1286206e-01  -5.1139964e-01   7.7667534e-01  -2.9649569e-01  -8.8485210e-01   2.9071681e-01   1.7831984e-01   3.5270482e-01   6.5582731e-03  -6.4666760e-01  -3.7225430e-01  -3.0363502e-01   6.0999802e-01  -8.3372504e-01   9.1553463e-01  -9.0726563e-01   2.8077594e-01  -8.5253792e-01   7.4652258e-01   8.7304268e-01  -1.5563404e-01  -7.7279045e-01   1.8868969e-01   1.3471339e-01  -3.9790295e-01   7.3167799e-02   5.7216665e-01  -3.3884997e-01  -6.1916338e-01   3.2241471e-02   1.1654629e-01  -6.2579850e-01  -4.3295892e-01  -7.4790609e-02  -9.7860322e-01   6.9222738e-01  -2.3062944e-01  -4.5039823e-01  -6.1607483e-01   3.8104108e-01   4.3716426e-01  -1.9206917e-01  -5.9302002e-02  -2.2538501e-01   4.8655290e-01  -1.3292087e-01  -8.6539574e-01   3.5015912e-01  -1.1150841e-01  -2.8178418e-01   1.8262255e-01  -2.3209930e-01   6.9328887e-02  -6.7256915e-01   6.2501774e-01  -2.0186051e-01  -2.5839072e-01   2.9292777e-01  -6.2049229e-01  -4.4593215e-01  -7.2699415e-01  -6.9800391e-01   3.0622777e-01   7.5303821e-01  -7.3026537e-02   5.6675228e-02  -3.9170764e-01  -1.0971712e-01   9.1097272e-01  -3.0748237e-01  -2.0878231e-01  -9.1924332e-02   5.7199234e-01   3.4456183e-01   9.2827509e-01  -9.7415211e-01   5.6779765e-01   8.3270720e-01  -8.4727539e-02  -1.5303334e-01  -9.5353785e-01  -7.7434775e-01  -8.8083113e-01   7.6737839e-01  -2.6769122e-02   4.1183927e-01  -2.4847763e-01   4.3996657e-01   1.8529974e-01   7.1083288e-02   8.0523215e-01  -8.1244883e-02  -7.9641383e-01  -3.8730227e-01   1.7594472e-01   3.9517685e-01  -5.3341975e-01   2.9053030e-01   4.1263659e-01   1.2476781e-02   2.5510155e-01  -7.8392138e-02  -6.1525629e-01   1.7035542e-01   4.9117286e-01  -2.2710962e-01  -3.0120042e-01  -5.7993661e-01   3.5438228e-01  -5.7353172e-01  -7.0519381e-03   3.0585137e-01  -4.5282956e-01   5.7857996e-01   5.2994443e-01  -3.1727399e-01   6.0435495e-01   2.3561384e-01   7.2261822e-01   4.2659905e-01  -9.0081388e-02   7.2142299e-01  -1.2508190e-01   8.9524378e-01   7.9574244e-01   7.4246348e-01   1.8127491e-01  -3.7550887e-01   3.8026617e-01  -2.8495339e-01   8.5327293e-01   7.7240381e-01   9.8811710e-01  -5.9844631e-01  -6.5995066e-01   2.9043589e-01  -8.3860355e-01   5.9336814e-01  -2.8556268e-02  -8.5901138e-01  -5.4977013e-01   4.6365009e-01   9.3451299e-01  -8.5284990e-01  -4.6684145e-02   4.9613368e-01   2.4623921e-01  -7.0380697e-01   8.9843435e-02   4.4035454e-01  -3.7965101e-01   8.8760762e-01  -4.0720009e-01   9.5842019e-01   6.4428209e-01   3.0131573e-01  -3.7692404e-01   6.6879251e-01   2.9216792e-01  -8.9348762e-01   2.3626848e-01  -4.9183715e-01  -1.6060060e-01   2.6917808e-01  -8.5285445e-01   5.5695439e-01  -9.3794170e-01   6.8644800e-02  -8.9563410e-01   6.0358791e-01  -1.1951533e-01  -2.2480043e-01   9.7593397e-01  -7.5811618e-01   4.8266386e-01  -9.5984256e-01  -2.2099081e-01  -8.1790280e-01   6.8905257e-01  -7.8452550e-02  -8.0642977e-01  -2.2642755e-01   6.3418412e-01   4.0178571e-01   5.8737767e-01  -9.7312604e-01   3.3675658e-01   4.0184146e-01   1.1173404e-01   8.6717432e-01  -4.9241570e-01   3.8812659e-01  -8.3068425e-01  -5.3794253e-01  -7.2069226e-01   4.7393879e-01  -1.7584268e-01   8.4296351e-01  -3.1393035e-01  -8.6456344e-01  -4.9402802e-01   3.0219038e-01  -1.1646392e-01  -7.6403014e-02  -1.2935042e-04  -9.7328004e-01   8.3545148e-01  -7.6632483e-01   3.4889754e-01   1.7678984e-01  -5.5050964e-02   7.1471988e-02   8.4645258e-01   7.7368781e-01   8.4019487e-01   4.7402229e-01  -7.6198254e-01   4.2103105e-01   9.5951915e-01  -2.1339966e-01   7.2329357e-01   6.9383152e-03  -1.4417180e-01  -8.7103201e-01  -6.1794671e-01  -9.0730003e-01  -8.7008495e-01   3.6921592e-01   5.4841693e-01  -8.7410884e-01   8.6123452e-01   3.1860630e-01  -3.7898363e-01   8.4922217e-01   8.7867387e-01  -8.5142666e-01  -8.1895684e-01   6.4917463e-01   2.4121346e-02  -8.4777944e-01  -7.3274920e-01  -3.4827684e-01  -4.9234923e-01  -3.8558028e-01   9.0079627e-01  -2.5558641e-01   6.9899148e-01  -2.5087361e-01  -2.9354234e-01   2.1141611e-01  -2.5489660e-01   2.9378914e-01  -4.2337603e-01  -5.1636318e-01   8.3838980e-01  -5.1424695e-01   6.6578447e-01   5.3225184e-01  -9.8400962e-01  -5.7758993e-03  -1.8778252e-01  -1.7070666e-01   2.6186977e-01  -9.1506860e-01   1.3956726e-03   3.6285745e-02   7.7778417e-01  -3.8735040e-01  -2.2965802e-01   5.2014752e-01  -5.1760537e-01  -5.4152271e-02  -5.2166929e-01   2.8769273e-01  -2.5408279e-01  -8.5275182e-01   5.6918928e-01  -6.3109866e-02  -3.2964838e-01  -2.4133524e-01   5.5179079e-01   3.6427339e-01   4.0561031e-01  -3.6692767e-01   6.9837727e-01   7.1430908e-01  -3.4860311e-01  -3.5324553e-01   1.2124752e-01  -3.0752300e-01   1.5822985e-01  -5.9271172e-01   4.0610720e-01  -3.2642714e-01  -6.1202438e-02  -5.4500746e-01   6.7862004e-01   5.6648531e-01  -2.2691480e-01  -8.4147624e-01  -3.2699304e-01  -5.6115075e-01   6.2649809e-01   4.9665447e-01   9.6687763e-01   8.0671390e-01  -8.8444049e-01  -3.9787355e-01   3.1467527e-01  -7.8214804e-01  -1.6979199e-01  -1.1537919e-01  -9.9106211e-02   2.3210452e-01  -8.7550689e-01  -6.1734579e-01   1.5469800e-01   4.5667146e-02  -6.3113536e-01   8.8868020e-02  -5.1066718e-01  -9.0700863e-01   4.9539164e-01   9.5058784e-01  -9.5899114e-01   2.1422880e-01   4.1589681e-02  -5.8736920e-01  -9.9706976e-01   1.3174216e-01   4.0075014e-01  -2.2821288e-01   7.3556115e-01   5.7482038e-01   3.2945612e-01  -9.0328576e-01  -2.5478712e-01   9.7587015e-01   1.9025986e-01   2.8343414e-02   5.5187159e-01  -5.1726418e-01   5.5031006e-02  -8.3302389e-01  -6.1227739e-01   5.0471197e-01  -7.0146359e-01   6.7931139e-01  -9.0280364e-01   2.8966689e-01  -8.9802195e-02  -9.9756428e-01   1.5467228e-01  -3.2778931e-01   6.4548053e-01   6.0065486e-01   1.4077742e-01   3.7468464e-01   6.5337094e-01  -9.1796503e-01   3.2512687e-01   3.9373854e-01  -5.5254323e-01   9.4514175e-01   4.9991861e-01   9.1812862e-01  -6.1250641e-01   2.6220443e-01  -3.3011176e-01   7.6865101e-01   5.2883676e-01   5.9344315e-01  -7.0830757e-01   1.3613007e-02  -2.8066866e-01   7.4871320e-01   8.0134372e-01  -8.3860082e-01  -9.2206557e-01   6.1620053e-01  -9.3014853e-02   8.7301414e-01   8.7510894e-01   7.6286900e-01   9.6973100e-01  -6.4612141e-01   2.0326289e-01   1.8811066e-01  -7.8380495e-01  -1.5714372e-01  -7.9206570e-02  -7.2483894e-01  -2.6543386e-01   7.5213895e-01  -1.2416111e-01  -4.1991369e-01  -2.2549611e-01   1.0261501e-01   8.0170952e-01  -7.4795117e-01   1.5532283e-01   1.9143609e-01  -6.2466323e-01   9.8746549e-01   6.4564330e-01  -5.6657876e-01  -1.2617042e-01   8.6984096e-01  -3.1876724e-01  -1.7294402e-02  -8.3453290e-01  -7.6465964e-01  -7.1274028e-01   6.7761019e-01   2.5322131e-01   8.4730092e-01  -7.9365458e-01   6.3829183e-01  -2.1557368e-01  -7.6769804e-01   7.9430582e-01  -1.7275654e-01   9.7273524e-01   2.8330664e-02   7.2494967e-01  -9.5062185e-02  -6.0238437e-01  -8.7103714e-01   2.1375759e-01   3.9618476e-01   2.2089606e-02  -5.2427880e-01   7.5634889e-01  -9.8483550e-02   8.5920891e-01   3.7662758e-01   6.6123090e-01  -1.3783249e-01  -9.3508925e-01  -1.2223569e-01   4.2841983e-01   5.7634367e-01   2.1653596e-01   8.4578989e-01  -2.4319672e-01   9.7816725e-01   7.6867463e-01  -8.8130445e-02   6.9984102e-01   4.7268048e-01   2.7801056e-01   3.8735044e-01   1.3159131e-01   8.6166945e-01   1.3804876e-01  -6.4506685e-01  -6.3574523e-01   6.7176022e-01   2.1570035e-01  -9.3351783e-01  -7.2692067e-01  -4.0792804e-01   7.5426692e-01  -4.6100717e-02   2.3406954e-01   5.3809437e-01   6.9438392e-02  -9.5851836e-01  -5.4421557e-01   8.6986317e-01   5.4036108e-01   1.9844129e-01   6.6614598e-01  -5.4888936e-01  -6.3056443e-02  -2.8903422e-01   3.4467282e-02   9.0424279e-01   9.4127999e-01  -8.6899760e-01   5.5797273e-01   9.5991341e-01   7.8936500e-01   6.9721139e-01   8.2977013e-01  -9.2464221e-01   6.5800260e-01   9.8625880e-01  -4.3401559e-01  -8.4598766e-01   1.6638354e-01  -8.6903960e-02   6.9119483e-01   2.7176016e-01  -8.8336064e-01   5.5116259e-01   7.4682138e-01   4.6786266e-01   9.1075596e-01  -4.8764990e-01  -4.7332462e-01   2.2114915e-01   5.0723178e-01   2.0291597e-01  -6.0216699e-01   7.2021639e-01  -7.0640472e-01   8.3173746e-01   3.2400171e-01   1.2666473e-01   1.1975916e-01  -7.3783240e-01  -4.5349375e-02  -2.0623047e-01   2.3059747e-01  -6.1134153e-01  -8.8423198e-01   6.4034364e-02  -8.2097509e-01  -9.0975790e-01  -1.0003388e-02   6.8615216e-01   3.5201161e-01  -6.0103108e-01   9.5357727e-01   1.3784028e-01   7.7649921e-02   3.2324331e-01  -1.5444198e-01   1.3424453e-01  -2.6726482e-01   6.8780347e-01   4.5174808e-01   5.8503569e-01  -7.0074432e-01  -3.2752883e-01  -3.4797311e-01  -5.9682206e-01   4.8760614e-02   8.5514826e-01  -2.7066822e-03   5.9512118e-01   3.9432447e-01  -9.3846316e-01  -2.4977757e-02   1.2965482e-01   8.3857395e-01   1.2742885e-01  -7.7994490e-01  -7.6243408e-01  -3.4769830e-01   1.4663223e-02  -3.7658097e-01  -2.6524823e-01   2.3763271e-01  -8.1283615e-01   6.0362649e-01   8.6029058e-01   5.0175575e-01   8.4575643e-01  -6.0947716e-01   2.7582933e-01   5.9459791e-01  -1.5113014e-01   3.3966248e-01   2.8482666e-01   2.7801337e-01  -8.6874762e-01   4.1207849e-01  -3.9234072e-01  -7.0268350e-01  -5.7925343e-01   7.1550739e-01  -6.9331919e-01   3.9661689e-02  -9.2801128e-01   3.0841223e-01  -5.4245439e-01  -8.6014410e-01  -9.1410610e-01  -9.4456554e-01   9.4231950e-01  -5.8538748e-01  -9.2298179e-01  -4.7005872e-01  -6.2885172e-02  -9.3086704e-01   6.6840569e-01   5.1764924e-01  -4.5157241e-01  -1.0147012e-01  -4.0611402e-01  -2.6408650e-01  -1.6284368e-01   8.5952213e-01   7.9571045e-01  -7.6424289e-01  -9.3177064e-01   3.8810767e-01  -2.3729642e-01  -2.9040616e-01   6.3299618e-01  -1.4152395e-01  -1.2293220e-02   4.2331045e-01  -3.3761238e-01  -4.7673289e-01   4.6176157e-01   4.4236650e-04   4.1701363e-01   6.7660369e-02  -5.6068865e-01   5.6888216e-01   6.7052477e-01  -7.6901932e-01   7.1973585e-01  -9.5384382e-01   3.2337449e-01  -2.5407364e-01  -2.9791951e-01  -6.6978382e-01  -3.9132803e-01   3.7136167e-01  -7.1563015e-01   9.4795475e-01   5.7246126e-01   7.0762660e-01   1.8654419e-01   7.2532749e-01  -4.9556570e-01  -3.9567131e-01   7.3105867e-01  -1.8858397e-01  -3.7479796e-01  -4.4361100e-01  -1.4479367e-01  -7.0421467e-01  -2.3659614e-02   3.7553921e-01   4.3810439e-01   7.1850665e-01  -9.5031211e-01   6.8624571e-01   3.5381679e-01  -8.2759788e-01   7.4004584e-01   9.5867345e-01  -6.2975969e-01  -3.7285518e-01  -6.9908164e-01   3.8547198e-01   8.2918474e-01   9.6175695e-01   7.3974679e-01   9.2486396e-01  -9.2766699e-01   9.5076706e-01   2.6080583e-01   7.2618478e-01  -6.3679382e-01   4.2762025e-02   4.4543180e-01  -9.9950400e-01   5.7869232e-01  -7.8448062e-01  -3.0243674e-01   2.5631658e-01  -6.7777654e-02   5.3274041e-01   1.6596245e-01   4.6523467e-01   4.3298440e-01  -5.9558942e-01  -2.0689603e-01   9.9758226e-01  -7.9286092e-01   6.2403164e-03   4.0845492e-01   8.8625647e-01  -9.0720386e-01  -2.2667929e-01  -5.7885657e-01   9.7430016e-01   9.2714286e-01   3.1330829e-01  -8.0659760e-01   9.3862929e-01  -7.8447119e-01   4.3589545e-01  -1.4270840e-01   9.6998920e-01   7.1113259e-01   2.7586807e-01  -9.9008850e-01  -3.4179060e-01   7.0626786e-03   8.0343848e-02   6.2043027e-01  -6.1679815e-01  -8.2176768e-01  -8.4505151e-01   1.1812661e-02   2.2883172e-01  -5.4286860e-01  -1.5366188e-01   3.1281196e-01  -9.3814444e-01   8.8746570e-01   8.0465087e-01   4.2630388e-01   2.0081718e-01  -7.3138497e-01   6.6866173e-01  -3.2256165e-02  -1.3176263e-01  -7.2272579e-01   1.7269479e-01   3.1082986e-01   5.3127210e-01   4.7402971e-01   1.0052678e-01  -1.6220539e-01   5.0909866e-01  -6.5825710e-01  -3.3304747e-01  -6.9794593e-01  -8.5216488e-01   6.4537082e-01  -6.6733406e-01  -1.6566624e-01   8.6094426e-01   3.3135003e-02  -8.3579990e-02   7.8602568e-01   1.0025986e-01   6.4037225e-01   1.3395554e-01  -6.3559393e-01   5.6783999e-02  -2.1630221e-01   9.3338476e-01  -2.6443571e-01  -8.6605392e-01   8.9242878e-01   6.9087771e-01   5.0061151e-01   6.2204038e-01  -9.4305763e-01   8.0390519e-01   8.4141728e-01   9.5991419e-01   5.3932559e-01  -9.6830513e-01  -4.6095379e-02   6.4827672e-01   7.5285463e-01   7.4288094e-02   3.8856047e-01   6.9997499e-01   8.0558937e-01   4.9027168e-01  -1.8479139e-01  -2.3464941e-01  -9.4105895e-01  -6.8388718e-01  -9.4340106e-01   3.3020249e-01  -9.2594422e-01   9.3755147e-01  -1.3346622e-01  -1.7921683e-03  -7.6845927e-02  -7.2839307e-01  -1.6606458e-01   8.5303988e-01  -2.9036631e-01   1.9980416e-02   2.1655514e-01   8.8644050e-02   3.0833575e-01  -2.6457934e-01  -9.4782234e-01   3.0939977e-01   9.2422536e-01   4.5727487e-01  -6.6460769e-01   4.9883285e-01   8.3898433e-01  -8.3109231e-01   3.6406298e-01   2.4276396e-01  -5.3938542e-01  -3.3397307e-01   1.3776167e-01  -9.5991908e-01   9.1433047e-01  -8.2889364e-01  -2.0516478e-01  -6.4039290e-01   9.2116491e-01  -3.8897760e-01  -5.8449138e-01  -6.5497335e-01   2.1363519e-01   5.7221921e-01   8.8124727e-01   5.0928811e-01  -6.3731413e-01  -4.0334841e-01  -2.6960254e-01  -2.5499512e-01   1.4805884e-01  -5.7501764e-01   9.9408447e-01   5.8651382e-01  -4.6110799e-01  -6.4689266e-01   3.0518246e-01  -7.6280080e-01   1.8877476e-01   6.0594750e-01   2.0494921e-01  -6.1948586e-01   5.6452413e-01   7.0548320e-01  -9.4433599e-01   7.7443825e-01   9.0771608e-01  -8.7027691e-01   2.6861054e-01   2.3753331e-01  -3.4467433e-01  -6.4198296e-02   5.8868187e-02  -1.8627479e-01  -5.7094975e-01   8.1295158e-01  -2.1799942e-01   8.9497013e-01  -8.1156718e-01  -9.9448346e-01  -1.5260020e-01  -5.1409362e-01  -7.5964405e-01  -2.0276338e-01  -1.9427943e-01  -3.3300083e-01   4.9417715e-01   1.7800408e-02  -5.8209093e-01  -3.3441897e-01  -1.1126375e-01   9.6838658e-01   1.5648768e-01  -6.3473422e-02   5.6856612e-01  -6.4688933e-01  -6.9833571e-01   2.2147329e-01   6.9602689e-01   4.8749713e-01   8.5798692e-01   6.8295321e-01  -2.7022145e-01   5.0205193e-01   1.1644545e-02  -2.7513222e-01   6.2765862e-01   3.7264709e-01   4.1219619e-01  -6.1742327e-01  -4.5207788e-01   6.2123760e-01   2.8349099e-02  -8.1730748e-01  -1.9233007e-01   7.3740440e-01   5.9748720e-01  -9.8263322e-01  -3.8305373e-02  -8.0523924e-01  -1.6104757e-01  -2.4239598e-01  -5.8748856e-01  -7.9807007e-01   9.1613108e-01   8.6329819e-01   9.2889927e-01  -9.3921312e-01  -2.4766366e-01  -2.9692825e-01  -1.1660962e-02  -2.3418997e-01  -8.9303113e-01  -8.5209386e-01   4.1518069e-01  -9.1694125e-01   9.1915422e-01  -8.7493478e-01  -1.6892137e-01   8.7644477e-02   7.3976607e-01  -5.6112188e-01  -6.5008886e-01  -1.5579985e-01  -1.2720718e-01  -7.8336237e-01   6.5959483e-01  -8.6245941e-01  -3.1761986e-01   4.0034846e-01   1.3573814e-01   1.7324635e-01   8.5499814e-01  -6.2072835e-02   7.5277215e-01  -3.9107783e-02  -3.0449526e-01  -2.1444301e-01  -5.2484219e-01   1.0574809e-01   7.6492902e-01   7.6252374e-01   6.1029313e-02  -5.1916806e-01  -2.8500726e-02   4.0316310e-01   2.5356926e-01  -1.8634665e-02   9.5391010e-01  -9.7938171e-03  -4.7892198e-01   3.6515196e-01  -9.0092308e-01   9.1964436e-01  -5.0675762e-01  -9.9667418e-01  -2.2808854e-01   4.2525390e-01   7.8587649e-01   2.0463589e-01   6.3562623e-01  -3.9587539e-01  -1.0325034e-01   9.6998824e-01   9.5979361e-01   8.2294916e-01   1.0668636e-01   1.4630369e-01  -4.4879141e-01   8.5488819e-01   3.1636562e-01  -9.7129919e-01  -5.6841283e-01  -7.6218187e-01  -5.3970220e-01   2.5589416e-01  -9.2681362e-01  -4.4011565e-01  -5.6711245e-01   9.5014616e-01   2.0644302e-01  -5.7845739e-01  -8.7395821e-01  -4.3710944e-01  -9.2026316e-01   3.9632715e-02  -7.5565658e-01  -3.4310834e-01  -6.9328870e-01  -2.5364511e-01  -8.2509053e-01   8.6519792e-01  -8.2629068e-01  -3.9111785e-01   4.8015780e-01  -4.6684139e-01   7.2109529e-01   7.2828670e-01   3.1667416e-01   7.4220424e-01  -1.2188171e-02   3.9577629e-01  -6.6966110e-01  -2.0226426e-01
  -4.2996054e-01   4.8315750e-01   8.4591198e-01   7.4761987e-01  -5.8757369e-01   2.2257577e-01  -2.7063394e-02   1.0728192e-01  -2.2049204e-01  -7.6003493e-01   7.5614919e-01  -4.3836436e-01  -7.7730235e-01  -8.1212927e-01   6.0752448e-01   9.9044426e-01   7.4205188e-01   1.8152975e-01  -8.9080886e-01   4.7526986e-01  -2.2171108e-01   4.4280936e-01  -8.5425161e-02   2.4683988e-01   8.1186786e-01  -7.4856777e-01   1.4923960e-01   7.1335994e-01  -4.1578412e-01  -3.9650402e-01   9.1641278e-01  -5.9459487e-01   5.0402784e-01   4.1331080e-01   7.5422893e-01  -7.7694358e-01  -6.6521511e-01  -7.9169819e-01  -8.9678449e-01  -2.5194438e-01   4.6301903e-01  -4.8557859e-02  -2.9790662e-01  -6.4653759e-01   6.8983152e-01  -8.2952198e-01  -6.1367065e-01   1.1665490e-01   1.8655393e-01  -4.7605848e-02   4.5878356e-01  -3.8020572e-01   6.9995886e-01  -7.2015801e-01  -1.2319736e-01  -1.1907280e-01   6.0606457e-01   8.2296132e-01   5.4117221e-01   9.8452319e-01   3.7687809e-02   5.0548811e-01  -4.8196641e-01   7.3319651e-01  -7.3156283e-01   8.8922914e-01  -8.7235903e-01   3.0269576e-01   8.5283120e-02  -8.6103946e-01   1.0917235e-01  -2.4125765e-01   2.5019305e-01   9.0352678e-01  -1.7735906e-01  -6.3665197e-03  -3.2470755e-01  -6.3681485e-02   2.2227139e-01   8.7258110e-01  -1.2341686e-01  -9.2801861e-01   6.9866761e-01  -5.9032949e-01   4.3477608e-01  -7.1822915e-01   9.9254564e-02  -7.6567022e-02  -6.1069147e-01   8.8316528e-02   4.8186860e-01   4.8429791e-01   1.8880030e-01   9.4358676e-01   3.9569537e-01  -8.4429030e-01  -3.8150884e-01   9.8315979e-02  -2.7264626e-01  -9.3894542e-01  -7.4298043e-01   2.1487818e-01  -5.0883799e-02   5.8089542e-01  -6.4519020e-01   7.0917482e-02   7.7545806e-01  -5.5185428e-01   4.5296053e-02  -3.9916267e-01  -5.2747250e-01   1.0717512e-01   9.8091079e-01  -4.0514106e-01  -4.1644020e-01  -6.2817580e-01  -1.2667064e-01   7.4343426e-01   5.1433170e-01  -1.9260668e-02   7.9266237e-01  -7.8398991e-01   4.8495186e-01  -8.3395891e-01   5.0509148e-01   7.5292397e-01  -9.5229211e-02   3.9958979e-01  -9.4543297e-01  -3.4555195e-01   8.8910252e-01  -5.0686920e-01   8.6493992e-01   4.0327639e-01   2.5612871e-01  -8.6198795e-02   7.5924870e-01   1.5780806e-01  -9.1005761e-01   7.9215286e-01   7.6475870e-01  -9.6027433e-01   4.3271080e-02   8.0116401e-01  -7.1016363e-03   2.5763813e-01   9.4512791e-01  -9.2019701e-01  -7.1070278e-01  -1.4868273e-01   1.0934931e-01  -4.0256480e-02   7.5837455e-01  -1.4585952e-01   4.2207982e-01  -1.7298765e-01   1.3017536e-01   2.5302857e-02   5.0851718e-01   6.3602340e-01  -4.4359263e-01  -3.3852511e-01  -2.9532220e-02  -8.1920295e-01   9.2898633e-01   4.0818071e-01  -3.8133988e-01  -2.0470524e-01   2.2182607e-02  -8.0496687e-02   2.7275775e-01  -7.5679405e-02   2.0990222e-01  -1.9589457e-01   5.0575375e-01   9.2100015e-01  -6.0014733e-01  -6.8583781e-01  -2.6878524e-01  -7.4746613e-01  -6.9769730e-01  -1.9690301e-01   4.8379362e-01  -8.1951645e-01   6.0205524e-01  -7.4430310e-01  -2.8032021e-01  -6.4632716e-02  -3.3292941e-01   2.8309408e-01   3.8640276e-01   7.2952083e-01   8.3089285e-01  -7.2941440e-01   5.7493243e-01   9.1107538e-02  -7.6052673e-03  -4.5164553e-01   7.6039444e-01   9.0702398e-01  -4.1000598e-01   6.6498828e-01   8.0189905e-01  -4.5306025e-01   3.8696587e-01  -6.7725533e-02   8.7240157e-01  -9.4340691e-01  -1.2727420e-01   3.9916965e-01  -4.0767387e-01   9.4190922e-01   3.0021916e-01   9.7470936e-01   8.9198977e-01   6.7106038e-02   9.4721064e-02   8.1119375e-01  -8.2165418e-01   9.7341458e-01  -1.8724564e-01   8.9502891e-01  -7.5029061e-01  -8.8441225e-01   4.2503093e-01   9.9039597e-01   6.4113096e-01   9.3824930e-01  -4.7784708e-01  -9.4536818e-01   4.9850103e-01   5.1768992e-01  -7.1492092e-01   3.6825744e-01  -6.6246917e-02   8.0144472e-01   3.0264995e-01  -7.2640476e-01   2.5513032e-01  -7.2195693e-01   6.4610990e-01  -5.7559077e-01  -6.1482896e-02  -8.6897350e-01  -5.3819704e-01  -8.6169081e-01  -2.9290505e-01   1.9974115e-01  -8.3363004e-01   1.6105807e-01  -9.4348644e-01   3.7543303e-01   3.3905273e-01  -2.0610387e-01  -2.1841802e-01   4.3918034e-02  -6.2683151e-01   9.4649481e-01  -1.2197917e-01   2.6003391e-01   5.2160889e-01   3.1156221e-01  -8.2502478e-01   9.6464461e-01  -1.1074674e-01  -8.9691099e-01   3.5732065e-01   5.3430766e-01   3.9953496e-01   3.0290342e-01   2.7843182e-01   4.9473070e-01  -3.3867724e-01   2.0757421e-01   4.4985210e-01  -6.6320319e-01  -2.9754179e-03   5.8250331e-01  -4.8379821e-01  -9.7545164e-01   6.9354694e-01  -5.3248862e-01   3.4165148e-01   9.7717961e-01   6.6669248e-01   3.4986559e-01   1.4149931e-01  -4.1654901e-01  -8.5566510e-01  -5.6551588e-01  -1.0273618e-01  -6.7436318e-01   7.6691065e-01  -9.4564926e-01   4.9771735e-01  -5.9778201e-01  -6.9181823e-01  -8.1052081e-01   2.3133554e-01  -8.5399280e-01  -3.1852965e-01   4.0361403e-01   8.5256141e-01  -8.0476525e-02  -1.4693707e-01   5.4308566e-01  -4.9914978e-02   9.1512728e-01  -3.0127308e-01   1.7819540e-01   4.1238363e-01   5.2083316e-01   3.9031966e-01   3.0271057e-01   3.3544957e-01   2.3794204e-01  -9.3838288e-01   9.2122503e-01   5.7410301e-01  -8.8078881e-02  -4.3221760e-01   8.9611937e-01   2.2731808e-01  -7.9939714e-01  -8.4330657e-01  -4.1326226e-01  -4.1371208e-01  -9.8367447e-01  -5.1775380e-03  -2.1824617e-01   9.0664244e-01   2.6275293e-01  -7.9431039e-01  -1.7316751e-01  -7.9659878e-01  -3.0792412e-01   3.5008118e-01  -5.7697510e-01  -2.6747888e-01   4.2929690e-02  -3.1786641e-01  -8.6729785e-01  -6.4936088e-01  -7.9536359e-01   3.3723142e-01   9.5402044e-01   2.6035704e-01   6.0537414e-01   2.0467286e-01   6.1135139e-01   7.4765331e-01   4.0369053e-01   3.2915768e-01  -7.8703120e-01  -4.5031363e-01   3.4033640e-01  -3.8803855e-01   1.6206471e-01   6.7827209e-01  -9.9973376e-01   1.2759686e-01   4.5911830e-01   9.0001927e-01   2.0031030e-01   7.5406961e-02   8.3818680e-01  -3.3237262e-01  -2.7531916e-01  -7.1326016e-02   2.5086616e-01  -6.2415593e-01   1.0407710e-01   1.2499647e-01  -4.9879066e-02  -1.4135210e-01   7.0977627e-01  -6.5037573e-01   6.8328150e-01   9.4232296e-01  -8.4074908e-01  -2.7624827e-01  -5.0903169e-01   1.1991205e-01  -2.6308801e-01  -5.3126986e-01   4.8015603e-01   6.3540933e-01  -9.4073343e-01   1.5828447e-01   1.4552758e-01  -4.9906313e-01  -2.2386383e-01   3.8435908e-01   6.4798759e-01   5.8283428e-01   7.7700904e-01  -2.4859407e-03  -8.3151610e-01   8.1040489e-01  -3.3802888e-01   2.1479246e-02  -5.0422865e-01   5.3078943e-01  -7.8701286e-01   5.2506774e-01   4.3769640e-01  -5.9017006e-01   2.0576377e-01   8.3586597e-01   4.0741423e-01   8.9263880e-01   2.4237111e-01  -1.2872405e-01  -4.9474840e-01   6.1186782e-01   1.9625336e-01  -2.1950019e-01   4.0303621e-02  -2.6936921e-03   7.4928053e-01   9.5929797e-01  -1.6657902e-01   3.2262314e-01  -2.9995883e-01   1.0874995e-01  -1.6528841e-01   3.7541651e-01   6.3916208e-01  -3.8290620e-01   1.8523677e-01  -7.4048061e-01   3.1453901e-01  -8.6057502e-01   5.8767827e-01  -4.3541998e-01   7.2797287e-01   1.4479846e-01  -1.4490183e-01   3.8844082e-01  -8.3209737e-01  -6.0209214e-01   7.6922615e-01  -5.6369432e-01   4.9419038e-01   1.9705299e-01   1.3184052e-01   7.9664992e-01  -7.5708527e-01  -2.2830950e-01  -3.1327102e-01  -8.8480049e-01  -6.1870032e-02  -7.7304072e-01   6.7461221e-02   4.8726802e-01   5.5990707e-01  -9.7960441e-01  -3.5028535e-01  -6.5918437e-01   3.3957829e-02   3.6781799e-02  -8.0334040e-01   2.4798675e-03   4.7985867e-01  -9.1238985e-01  -5.5680328e-01   2.3417782e-05  -2.6951196e-01   3.0188316e-01  -9.3362843e-02  -5.9938928e-01  -5.3406070e-01   4.2660550e-01  -8.4392405e-01  -2.0153008e-02   1.9260280e-01   4.9851131e-01  -8.2985637e-01   8.1179350e-02   7.8554683e-01   1.8857474e-01   9.5802386e-01   5.8955272e-01  -2.0615522e-01   3.6280024e-01  -9.7051600e-01  -9.7834000e-01   8.5011576e-01  -2.2944631e-01  -5.3729265e-01  -1.1073064e-01  -4.4379043e-01   3.1791241e-01  -8.9965350e-01   5.6593028e-01  -4.0784062e-01   5.9956363e-01   5.1280520e-01   6.9523757e-01   6.8774557e-01   6.5258452e-01  -3.7012485e-01   1.1110936e-01  -4.3484513e-01   6.4542291e-01   9.0949144e-01   1.4539771e-01  -5.4595567e-01   5.1839491e-02   9.3513032e-01  -3.1440436e-01  -8.3124987e-01   1.2603041e-01  -2.3867802e-01  -8.2252496e-01  -5.1055943e-01   7.4209524e-01  -4.8788250e-01   1.0528419e-01   1.8061855e-01   4.2393037e-01   1.0185198e-01  -1.7219858e-01   7.1058780e-01   6.3934635e-01   6.9708416e-01   6.2099838e-01  -8.5270648e-01  -5.3209684e-01   4.8196855e-01   4.9634873e-01  -7.2814766e-02   1.6812116e-01   8.2656790e-01  -7.0504496e-01  -3.7904666e-01   1.9511100e-01  -5.3839142e-01   9.1943951e-01   4.3125267e-01  -7.8678454e-01   6.3044943e-01  -5.7565817e-01   9.7232446e-01  -2.9461283e-01  -8.1426888e-01   1.8928115e-01  -4.9086342e-01  -4.1304273e-01  -9.6900429e-02  -3.7452453e-01   1.1618823e-02  -4.0945521e-01  -4.7623257e-01  -5.2574825e-01  -4.3663162e-01   4.4614476e-01  -5.2633708e-01  -3.3881200e-01   9.5058429e-01  -9.9007502e-01   8.9441618e-01  -9.3628987e-01   3.9975161e-01  -8.8276101e-01  -8.9418552e-01  -2.3186502e-01   9.9318295e-01   2.7330784e-01  -7.5220431e-02   6.1929403e-01   3.6901248e-01  -3.0115597e-01   5.5291097e-01  -9.9548863e-01   8.0276462e-01   3.6784908e-01  -6.6104777e-01  -2.7901958e-01   4.0303382e-01   1.8354596e-01   2.8787368e-01  -8.2160883e-01   8.6032332e-01  -5.3204468e-01   9.5591288e-01   4.1089798e-01  -7.9626662e-01  -7.1063094e-01  -1.0164114e-01  -6.8432250e-01  -5.8661957e-01   3.5425078e-01  -9.5899925e-01   4.9959960e-01  -6.2469480e-01  -5.0519428e-01   8.9411666e-01  -6.4335653e-01   6.1103756e-01   3.6599275e-01  -8.1573894e-01   6.8357768e-01   9.9424993e-01  -4.8140343e-01  -6.2922217e-01  -5.8269992e-01  -1.7460567e-01  -5.9203020e-01   1.3540525e-02  -1.9543898e-02   2.3872913e-01  -2.1778655e-01   8.0964246e-01   8.0506240e-01  -5.0265240e-01   5.9172008e-01   3.7168366e-01  -6.5368053e-01  -4.1495629e-01   2.6087667e-01   9.7437127e-02   5.9127254e-03  -3.6156091e-01  -3.7791854e-01  -2.5038898e-01  -7.3145634e-01  -3.4550954e-01   8.8003707e-01   7.7181214e-01  -9.3812469e-01  -9.2355378e-01  -4.1354195e-01  -7.6350942e-01   6.5634479e-01   5.0247192e-01   9.8649807e-01   2.5639769e-01  -9.8128968e-02  -9.3909445e-01  -3.4639970e-01   2.8647132e-01  -5.6240628e-01   8.6869972e-01   3.6655136e-01   8.8493419e-01   1.4074746e-01  -2.0602848e-01  -6.9990153e-01   2.2993990e-01   3.7977147e-01   4.3398921e-01  -5.4144658e-01   3.0966480e-01  -5.8423510e-01   8.9149043e-01   1.4950967e-02   9.1499804e-01  -9.5675213e-02  -1.2902474e-01  -7.7560713e-01   6.1191026e-01  -4.7709047e-01  -7.5553100e-01  -9.3928490e-01   6.3880303e-01   1.4751397e-01   8.5311809e-01  -3.8387731e-01  -4.0155822e-01  -8.3172792e-01   5.8003974e-01  -6.6177233e-01   8.4381493e-02   7.9363612e-01   6.0856042e-01  -9.8652924e-01   7.4783595e-01   5.6122969e-01  -1.7929987e-01  -8.0222907e-01   5.6224960e-01  -6.3146152e-01   9.1408208e-01   6.9951107e-01  -3.6586164e-01   7.4890886e-01  -2.2362359e-02   7.0180077e-01   4.6579062e-01  -3.2717585e-01  -3.4938394e-01   9.9608378e-01  -4.5712341e-01   3.7715968e-01  -8.1681607e-01  -7.0706300e-02  -1.4056980e-01   5.8290873e-01  -3.1544929e-01  -2.9902487e-01   4.0375661e-01   9.2641175e-01   6.6859100e-01   8.3047178e-01  -8.9295813e-01   3.4574952e-01  -1.9136417e-01  -9.2984974e-01  -9.2947006e-02   8.9546747e-01   5.6544994e-01   1.2149655e-02   5.7622961e-01  -9.0831739e-01  -6.9960894e-01  -6.6644711e-01  -2.2134759e-01   1.4315225e-01   7.5138440e-01   2.4918548e-01   5.1081209e-02  -3.7100874e-01  -3.1795114e-01   6.9845652e-01   5.6770859e-01  -1.7756955e-01   2.5101073e-01  -7.8829691e-01  -6.0998185e-01   7.9789524e-02   5.2221516e-01  -9.1498167e-01   6.7693037e-03   6.2265917e-02   4.8093465e-01  -4.4546497e-01   1.9719804e-01   7.2897290e-01   9.9849969e-01  -9.2747491e-01   4.3881250e-01   1.3357568e-01   8.2521674e-01   4.6868964e-01   4.6712862e-01  -4.8738525e-01   2.4414283e-02  -8.6458594e-02   8.0463157e-01   2.3240353e-01   8.0893038e-01   5.0498037e-01   9.4488608e-01  -7.3184954e-01  -7.6455342e-01  -8.8991100e-01  -9.6861227e-01  -6.4065757e-01   9.9556445e-02  -7.3299681e-01   9.1599782e-02  -5.9807774e-01   8.7635866e-01  -3.4303150e-01   1.9454778e-01   1.1921854e-01   1.1981130e-01   7.1890656e-01  -4.3291936e-01  -7.8955309e-01   7.5032448e-01  -4.2670041e-01   2.7418938e-01   7.9828327e-01  -1.8426006e-01  -2.2146252e-01   3.4301339e-02  -1.0427514e-01  -1.2541255e-01   9.6097859e-01  -6.0117984e-01   6.3397887e-02  -2.7613820e-01   3.7176941e-01  -9.6255588e-01   4.7162968e-01  -6.1699406e-01  -3.5732655e-01  -3.5836189e-01  -3.5491998e-01  -7.4047290e-01  -2.9072621e-01  -3.0492004e-01  -1.1412860e-01   4.1315361e-01   2.8561435e-01   5.7226820e-01  -4.9981495e-01   7.8086598e-01  -1.1066395e-02  -7.0373772e-01  -1.7665510e-01  -2.3642700e-01  -4.3889300e-01  -3.2422070e-01  -5.2806921e-01  -1.2998005e-01  -9.2086172e-01  -2.9952929e-01   8.4184955e-01   9.1727441e-01  -4.8943763e-01   7.6711969e-01  -7.4964434e-01   7.9026045e-01  -7.0041561e-01  -2.8056691e-01   7.6998458e-01   9.9500681e-01   4.1911686e-01   9.9900373e-01   7.1578365e-01  -6.3160287e-01   1.3137689e-01   5.0042589e-02  -6.2174669e-02  -6.5124522e-02  -9.8943109e-01   2.5621265e-01   1.2439125e-01  -9.9770869e-02   9.4165385e-02  -6.7535212e-01   8.6281569e-01  -3.4561131e-01   2.9059588e-01   2.0553905e-01   2.1556672e-01  -4.0988011e-01   1.3413776e-01  -7.6870230e-01   7.5450086e-01   2.1984292e-02   6.5709955e-01   9.4409892e-01  -8.2841220e-02  -2.4807490e-02  -4.2268876e-02   8.1716043e-01  -4.5165576e-01   2.4817013e-01  -1.0628804e-01   1.7474742e-01  -6.7941858e-01  -4.6635329e-02  -7.1922001e-01   3.0825034e-01   7.3328860e-01   2.1152426e-01   8.5946197e-02  -9.7992235e-01  -7.3715538e-01  -3.4646058e-01   8.7102516e-01  -8.9252675e-01   6.1945759e-01   7.1019351e-01   6.0998039e-01  -5.9528291e-01  -4.3895340e-02   7.1744900e-01  -9.7964489e-01   5.5930079e-01  -2.6287141e-01  -9.8155653e-01  -9.4621155e-01   1.7207150e-01  -1.9333745e-01  -5.7411041e-01  -9.1872560e-01  -8.5245447e-01   1.8963748e-01   5.4857868e-02   8.6049750e-01   6.6844118e-01  -7.4976983e-01   9.4578587e-01   9.1330572e-01   6.9603257e-01  -3.1269594e-01   6.5926750e-01  -1.8203528e-01  -5.8035854e-01  -7.9816403e-01  -6.3949242e-01   4.4963073e-01  -1.7243765e-01  -9.5838732e-01   8.2567006e-01   9.2538490e-01   3.5320747e-01  -6.8343976e-01  -2.2920331e-01   4.8971928e-01  -5.0830786e-01   1.2941301e-01   5.8207412e-01  -2.1499298e-02   9.7427637e-01  -1.4674451e-01   9.2193357e-01  -2.5195988e-01   3.4662366e-01   2.2677288e-01  -5.7413663e-01  -4.1539058e-01   9.1530449e-01  -7.2966761e-01   6.4668422e-01   3.9774121e-01  -7.3027879e-01  -7.6806582e-01  -3.1277054e-01  -5.8076410e-01   1.2073482e-01  -7.5580727e-01   5.7287617e-01   2.4230836e-01  -6.6040940e-01  -6.0549341e-01  -5.9444824e-01  -7.5435524e-01  -6.3843910e-01  -1.4094100e-01   4.4589255e-01  -1.6255357e-01  -7.5567512e-01   9.1089704e-01  -8.6915244e-01   5.7086724e-01   3.2069963e-01  -2.0401313e-01  -5.2405005e-01   6.3448297e-01   1.1801372e-01   5.5049482e-01   4.5682938e-01  -7.4199683e-01   2.8494519e-01  -8.7258989e-01  -9.9816389e-01   6.7736429e-01   8.0426398e-01  -5.1078698e-02  -1.0964379e-01   5.0007657e-02  -7.8650771e-02  -6.0686461e-01   8.5186097e-01   1.4109869e-01  -9.6794806e-01   3.0905711e-01   1.4302069e-01  -9.6062043e-01   9.0388606e-01  -6.6358344e-01  -7.7483109e-01   7.3816881e-01   4.5296427e-01   7.3516228e-01  -6.6346154e-01  -3.0766976e-01  -4.2617528e-02   1.2076043e-01   1.0916304e-01  -9.9067703e-01  -1.7642872e-01   7.7170404e-01  -3.1524238e-01   9.7025116e-01  -4.0385098e-01   6.8313825e-01   3.2310468e-01  -2.5927336e-01   7.9549570e-01   6.0754392e-01   1.7289571e-01  -9.3494601e-01  -1.0647688e-01   4.4823784e-01   2.0872427e-01   9.0272028e-02  -7.5131044e-01  -9.4013943e-01  -4.4293882e-01   6.6085571e-01  -7.4087913e-01   6.1203845e-01   5.3957584e-01
  -4.8154867e-01  -3.0788819e-01   9.4772572e-01   4.3288145e-01   2.0525873e-01  -3.4057133e-02   6.9283717e-01   1.1778546e-01  -1.4958857e-01  -2.2565211e-01  -2.0327093e-02   1.9132953e-01  -9.9318043e-01   4.6933981e-01   3.2325388e-01  -8.1392408e-01   9.4751812e-01  -3.4477798e-01   1.0793391e-01  -5.1903950e-01  -7.8289214e-01  -2.6593010e-01   7.8830866e-01  -4.8665981e-01   7.7125679e-01   4.6672102e-01  -9.2314939e-01  -1.0740785e-01   3.3037659e-01   9.5723104e-01   4.1067309e-01  -8.7580634e-01  -7.0675050e-01   8.3211327e-01   6.7065104e-01   3.6274564e-01   2.8197479e-01   8.8166663e-01  -9.7911032e-01  -5.8686592e-01   2.1003585e-01  -6.1077523e-02  -9.8000335e-01   8.9452428e-01  -3.0760991e-01  -2.3397393e-01  -2.5439709e-02  -6.0429170e-01  -9.8778332e-01   9.6877841e-01  -3.7187473e-01  -5.2761940e-01   8.8308339e-02  -8.9979917e-01   7.9127147e-01   9.0349140e-02   7.4624262e-01  -9.9368726e-01  -1.0886553e-01  -9.7244183e-02  -8.5982215e-01   7.5331182e-01   1.8641299e-01   6.1282599e-02  -4.5518879e-01   1.0097924e-01   2.4866021e-01   1.6267749e-01   6.5232183e-01   2.1735086e-01  -8.6773135e-01  -6.1796653e-01  -4.8499789e-01  -4.5634128e-02   8.2325774e-02   8.6306588e-01  -7.1553930e-01  -6.2620156e-01  -3.8816389e-01   1.8724235e-01  -8.0676103e-01   7.6612033e-01  -7.6284335e-01  -2.2405359e-01   5.8592806e-01  -6.1096773e-01  -1.9959572e-01  -7.1588194e-01   9.3642555e-01   5.7587188e-01   5.0622151e-01   5.9880711e-02  -7.5411450e-01   1.6863011e-01  -6.9375502e-01   6.4236910e-01   4.1773241e-01   7.4507494e-01   3.7544231e-01  -8.6854886e-01  -9.0440711e-01   6.2173127e-01   2.5157807e-01   6.5567166e-01   8.2905324e-01   2.6378576e-01  -2.8269694e-01   8.6520163e-01  -2.5856288e-01   9.3530885e-01  -3.2214381e-01   4.9015957e-01  -2.4789158e-01  -7.9994443e-01  -9.1305678e-01  -4.3116662e-01   3.1227748e-02  -9.4190324e-01   5.0373618e-01  -6.9551094e-01  -2.0492458e-01  -2.4399219e-01   6.3575843e-01  -5.8852075e-02   3.3071069e-02  -9.1255018e-01  -5.4796653e-01  -6.8504654e-02  -8.1578939e-03  -1.6359716e-02  -4.4387329e-02  -7.0289462e-01   2.3876595e-01  -3.0125679e-01  -3.4763819e-01  -5.9716948e-01  -5.6468150e-02   7.0790741e-01  -9.9549723e-01  -3.4115130e-01  -8.1514241e-01  -7.6889871e-01   1.5336958e-01  -2.0516362e-01  -5.7923327e-01  -9.4901975e-01  -3.4962212e-01   9.6084328e-01   6.1189433e-01  -1.4770488e-03   4.6059180e-01   6.1164209e-01  -4.6311440e-01  -6.4767310e-01   3.3081415e-01   6.3671156e-01   9.6048922e-01   9.0352932e-01   3.6250613e-01   4.0337562e-01  -1.4029887e-01   1.5200544e-01   7.0263230e-01   6.2882324e-01  -7.4705406e-01  -1.3757543e-01  -3.0521507e-01  -7.5735028e-01   5.2028023e-01  -5.7866228e-01  -4.1162703e-01   1.5123491e-01  -9.5280457e-01  -1.0586941e-01  -6.0454843e-01  -6.6803010e-01   9.3747499e-02   8.2560856e-01  -7.1124947e-01  -6.8667190e-01  -6.3975345e-01   7.8865787e-02   3.1355881e-01  -9.9768806e-01   2.4799393e-01  -9.5356868e-01   3.9851183e-02  -2.3432164e-01  -8.7022955e-01   6.4685224e-02  -1.8259368e-01   3.8993294e-01   9.9678644e-01   3.9889781e-01   6.8001066e-01  -3.8038573e-01  -9.3723651e-01   8.6035260e-01   1.2543405e-01   3.5161134e-03   2.8468134e-01  -1.9517424e-01   1.7475361e-01   1.4288324e-01  -2.4020297e-01   6.9235487e-01  -7.8855301e-01  -9.2965681e-01  -5.4810271e-01   6.5356492e-01   5.6979672e-01  -2.1023837e-01  -4.2035388e-01  -1.5229314e-01   7.0844495e-01  -8.4460029e-01  -8.9615640e-01  -4.1169902e-01   9.0429812e-01  -6.6101476e-01  -5.3410516e-01   4.4627458e-01  -8.9117707e-01   4.0470141e-01   7.9604466e-01   8.3711119e-01   1.2375448e-01  -1.2146873e-01  -8.5509164e-01   5.9072978e-01  -8.1429656e-01  -1.9491635e-01   2.2919253e-02   1.5624567e-01  -2.2940795e-01   7.4799105e-01   1.2253602e-01  -4.9854846e-01  -1.6273561e-01  -7.5570710e-01  -7.0815235e-01   8.5400597e-02  -3.1316710e-01  -9.5286905e-01  -6.0064465e-01   2.7509760e-01  -3.5136392e-01  -8.8182820e-01  -4.6333057e-01   2.1872580e-01  -7.6359870e-01  -5.2176900e-01  -5.5986712e-01   2.8949298e-01   5.8028909e-01  -9.7128252e-02   6.8686509e-01  -3.7775167e-01  -5.8780203e-02  -4.8260056e-01   4.7523015e-03   3.2503372e-01  -9.1601053e-01  -9.9667316e-01   8.1956196e-01   7.8889393e-01   5.8666740e-01  -8.6484883e-01   2.4098033e-01  -2.8122472e-01   6.5789558e-01  -1.3647005e-03   7.4964435e-01  -8.4823661e-01  -4.4659114e-01   7.8800109e-02   8.1911051e-01  -5.7849460e-01  -1.3290478e-01   5.2810759e-01   2.6861299e-01   9.4796734e-01   6.6612359e-01   5.2694159e-02   8.1335668e-01  -3.1813177e-01   5.6215380e-01  -8.8799296e-02   8.7644223e-01   1.1048978e-01   4.5084355e-01  -8.7724856e-01   6.0721341e-01  -7.6614573e-01   9.2522449e-01  -8.8965957e-01   8.2520319e-01   4.3926542e-01  -6.0110778e-01   8.8357413e-01  -7.5667696e-01   4.7514030e-01   8.0555898e-01  -2.3077070e-01   4.1291765e-01   5.6191125e-01  -8.4166221e-01   2.3702546e-02  -3.6933996e-01   2.8764307e-01   5.4123259e-01  -8.1677654e-01  -9.0296215e-01  -1.1875458e-01  -5.3685558e-01   7.3479781e-01   3.8399796e-01   6.9584035e-01  -1.9242620e-01   3.3256911e-02   5.7028560e-02  -2.8930606e-01   7.8935530e-01   1.4707421e-01  -3.2230383e-01  -8.2888171e-01  -7.4237780e-01  -6.0286364e-01   3.4035261e-01   8.4624230e-01   6.4540999e-01  -9.5114290e-01  -7.6712385e-01  -3.3430412e-01  -2.2041507e-01   7.3789492e-01  -8.8840066e-01  -4.5473099e-01   4.5232262e-01   8.4489767e-01   1.7222925e-01  -4.9281560e-01   2.3777476e-01  -6.7033041e-01   5.9198601e-01   1.3674598e-01  -9.9369175e-01   9.7528146e-01  -8.0371318e-01  -1.2238554e-01  -7.5109115e-01  -4.7760525e-01  -6.5896091e-01   5.0321470e-01   9.7783483e-01  -1.0777222e-01  -3.2968971e-01  -6.0465618e-01  -1.2342037e-01   1.0266966e-01   8.1557557e-01   7.7977417e-01  -4.0561591e-01  -8.2785916e-01   5.4048073e-01  -4.9955213e-01  -2.4244171e-01   7.4074731e-01  -9.4292313e-01   7.1232454e-01   9.4008261e-01  -1.6783022e-01   5.0498924e-01   1.6556356e-01   4.6934588e-01  -8.2666547e-03  -2.3420798e-01  -3.8423121e-01   3.6471408e-02   5.8605574e-01   7.5554141e-01   5.3064884e-01  -1.8123525e-01   2.5243493e-01  -9.2919060e-01   7.9952706e-01   2.3413396e-01  -8.7802672e-01   7.1522782e-01  -3.7507058e-01   3.7929771e-01   4.3844813e-02  -1.7370576e-01  -4.9181087e-01   1.3560810e-01  -2.2322468e-01   7.8755956e-01  -5.4700809e-01  -4.5129967e-01  -5.1443162e-01  -3.9959853e-01   3.8462920e-03   6.0581353e-01   7.8111500e-01   5.4230356e-01   3.4502461e-01  -9.7948536e-01  -8.2035096e-01   9.5445924e-01  -2.2675526e-01   1.3193814e-01  -4.9796120e-01  -9.3042909e-01  -9.3031620e-01   9.5695701e-01   8.2930510e-01   9.8546386e-01   1.7244643e-01  -8.8732999e-01   1.3289489e-01   3.7057412e-01   4.7220959e-01  -2.7171783e-01  -8.5471011e-01   6.6822875e-01  -2.4743678e-02  -2.8407073e-01  -6.5840801e-01   4.6269858e-01   3.7228485e-01   1.0246138e-01   5.7411154e-01  -5.6590218e-01  -3.1170916e-01   9.8612538e-01   7.4310839e-01  -3.3202952e-01   9.1780139e-01   1.9478425e-01  -5.7201515e-01   5.5627266e-01  -5.1703909e-01  -9.4548682e-01   1.6216816e-01  -1.9359497e-01   5.1534055e-01   8.5437429e-02  -8.4095553e-01   9.9437287e-01  -2.4339768e-01  -6.9989976e-01  -1.8241918e-01   5.3372510e-01  -3.5793752e-01  -1.5732010e-01   4.4609382e-01  -2.7395904e-01  -7.9747597e-01   9.3333205e-01  -5.8058084e-01   1.5571180e-01  -8.8787888e-01   5.9184361e-01   5.2633766e-01  -9.1325447e-02   9.7796776e-01  -9.8390703e-01  -5.9423207e-01  -8.5433821e-01   4.9821851e-01   2.6582842e-01  -5.1629743e-01  -6.4794353e-01   1.8583200e-01   9.9316035e-01   9.3852562e-02  -1.0163336e-01  -8.3020777e-01   5.4740860e-01   1.4538405e-01   3.2220846e-01   6.6392670e-01   7.9826271e-01  -9.0204235e-01  -4.9077804e-01  -1.5146438e-01  -4.5300255e-01   2.7709551e-01  -3.5300862e-01  -1.6546332e-01  -4.0186874e-02   6.2430541e-01   5.5189165e-01  -2.2487176e-01  -2.2060370e-01  -6.9104805e-01   8.9578018e-01   6.1857109e-01  -2.0474229e-01   6.2999448e-01  -4.0220486e-01   3.3554157e-01   9.6919612e-01  -6.2602394e-01   1.6625662e-01   4.4863371e-01  -4.9231997e-01   5.1677051e-01   1.5603846e-01  -4.7526224e-02  -3.7146043e-03  -1.8090994e-01  -8.7569746e-01  -8.2787594e-01  -8.8897139e-01  -9.1903701e-01   8.7306721e-01  -5.2124738e-01   1.4880988e-01   9.7957226e-01  -8.6599274e-01   4.7261415e-01  -3.3144921e-01   9.3663534e-01  -1.6627936e-01   1.5868128e-01   1.6408907e-02  -3.9387047e-01   8.7890685e-01   5.1051007e-01   9.6141556e-01  -8.1956130e-01   6.0101890e-01  -9.2502564e-01  -6.9831775e-01  -6.7042683e-01   4.7327684e-01   7.4910581e-01  -6.8858817e-01   6.0655171e-01   9.5362969e-01   7.9489345e-01  -9.0126344e-01   5.8303147e-02  -9.8457691e-01  -3.3349648e-02   1.5101225e-01  -8.7590122e-01   6.7860938e-01  -5.1485616e-01   9.2812921e-01   4.5033950e-01   5.0976466e-01  -6.4501266e-01   4.3472386e-01  -7.7961694e-01  -7.1192077e-01  -8.7623047e-01  -2.6268092e-01   7.5104323e-01  -3.3822194e-01   9.5021411e-01   3.7704799e-01  -4.1676754e-01   8.5010050e-01  -5.7811795e-01   9.7841581e-01  -1.0271375e-01  -8.8816106e-01   4.6571785e-02   9.5659279e-01  -6.7116826e-02   5.2208258e-01  -1.5685740e-02   5.4507312e-01   7.6547295e-01   3.5221971e-01  -1.9253168e-01  -7.5167525e-01  -5.8983722e-01   1.9519292e-01   8.2005942e-01  -7.8862269e-01  -3.8038821e-01   9.6399755e-02   6.6389825e-01   5.0239366e-01   9.6608648e-01   5.5435549e-01   1.9098691e-01   4.8806850e-01  -7.9101971e-01   8.5185900e-01  -2.6465869e-02  -4.0093539e-01  -5.4828991e-01   5.0065209e-01   6.8015294e-01  -7.6656345e-01   7.9193332e-01  -9.9195148e-01  -7.2937773e-01   3.1458747e-01  -3.3065245e-02   5.2771184e-01  -3.2399523e-01  -9.7163337e-01  -4.1836709e-01  -6.9983335e-01   8.9413147e-01   9.1445571e-01  -7.6594034e-01  -3.5028196e-01   5.3910936e-01   5.2869102e-01  -3.2470870e-01  -3.0918805e-01  -5.7781252e-01   4.7664266e-01   5.8534164e-01  -8.6034759e-01   6.4134032e-01   1.3797578e-01  -8.6137992e-01   3.1695609e-02   2.4072575e-02   2.3722137e-01  -8.1014350e-01  -3.2675699e-01   6.2717921e-01   6.2456657e-01  -1.6669797e-01  -2.4461705e-01  -4.7821075e-01  -8.6897366e-01  -7.0690830e-01   3.3336643e-01  -9.5600482e-01   7.0900828e-01   8.9757741e-01  -5.8062381e-02   9.5920810e-01   4.7551977e-01  -6.1847185e-01  -8.5750644e-01  -5.1422434e-01   8.0469121e-01  -3.1932362e-01  -5.3099228e-01  -2.8114043e-01  -8.6455305e-02  -8.1872006e-01  -9.8927007e-01   4.5474040e-01  -2.8928306e-01  -6.2418085e-01   6.6811902e-01  -9.7696882e-01  -5.7527010e-01  -9.8250493e-01   7.3869531e-01   5.5153774e-01  -2.1612456e-01  -8.9299798e-01   9.3227989e-01   6.9134814e-01   7.2545419e-01  -2.1093355e-01  -4.4290494e-02   9.8605713e-01   5.5781611e-01   1.2388278e-01   3.6774370e-01   7.6261352e-01  -6.1848120e-01  -8.2722433e-01  -7.9097208e-01   3.5067715e-01  -8.7200817e-01   8.7322704e-01  -8.3673162e-02   7.9983499e-02   7.6200407e-01  -3.6180748e-01  -2.8361659e-01   2.9877719e-01   1.4832221e-01  -2.5429248e-01   2.9134771e-01  -3.6667495e-03   9.7182376e-02   4.8075111e-01   2.4823225e-01   3.5527044e-01  -8.3076779e-01   4.0077465e-01   4.6553625e-01  -4.6159491e-01   8.1590230e-01  -6.4583411e-01   6.9615309e-01  -6.5271704e-01  -2.8311176e-01   5.5409982e-01  -1.8755733e-01  -3.7566061e-01  -4.0366715e-02   1.2277990e-01   4.1038257e-01  -9.3802664e-01  -4.0283226e-01  -6.8044476e-01  -9.0430465e-01  -2.4049179e-01  -4.3454627e-01  -9.2112931e-01  -3.2207397e-01  -8.8481558e-01  -9.5851726e-01   8.3859218e-01   8.0259033e-01  -2.8933443e-01   3.4681287e-01   2.6196681e-02   1.3754383e-01  -9.8919536e-01  -7.4370195e-01   1.1491453e-01  -3.0422057e-02   4.8989067e-01   5.4040366e-01   6.0324523e-02  -2.6905967e-01   6.4127597e-01   6.9813280e-01  -9.0006520e-01   6.7005218e-01  -6.1768236e-01  -8.8733102e-01  -1.2173923e-01   9.4437252e-02   7.5138515e-01  -3.9128859e-01  -9.4468078e-01  -8.4945374e-01   5.9911914e-01   8.7593066e-02  -6.3456044e-01   6.2567301e-01   8.4753326e-01  -1.7472761e-01  -9.4315157e-02  -6.5816869e-01  -4.0990621e-01   8.5907859e-01   9.3932332e-01   8.8410129e-01  -6.0038623e-01   6.1857379e-01  -5.4875653e-01  -3.1830011e-01   1.8223361e-01   1.6613998e-01   2.4949910e-01  -8.6675963e-01   4.9145829e-01  -4.7845481e-01   5.7166002e-01  -1.8704853e-01   2.2035656e-01   5.8699887e-01  -1.4293533e-01   8.3623209e-02  -7.8415057e-02   2.4522449e-01  -8.9598013e-01   4.6207284e-01   8.7413665e-01   8.2416087e-01   8.1475585e-01  -3.0271617e-01   2.6259744e-01   2.7320479e-01   9.3527776e-01  -8.4134294e-01   1.0895168e-01   7.2374662e-01   9.0959026e-01  -6.8378578e-01   3.4012179e-01   6.4712054e-01   8.8019527e-01  -4.7163780e-01  -9.6271138e-01  -4.8310870e-01   6.6131752e-01   3.9336652e-01   6.7898180e-01   1.2004907e-01  -8.4621667e-01  -3.5661945e-01  -4.7821807e-01   8.4522703e-01  -1.1449634e-01   8.2261638e-01   5.7018482e-01  -7.5376060e-02  -8.3331284e-01   4.0346016e-01   1.1196894e-01  -8.0908933e-01  -7.6507455e-02  -7.0415377e-01   6.6484424e-01   3.1174443e-01   1.5906790e-01   9.0574752e-01   9.4952267e-01   8.2586395e-01   5.6824714e-01   6.2932855e-01   1.0466800e-01   8.4457488e-01  -6.4467486e-01   9.6716809e-01  -7.3454388e-01  -3.5486408e-02   5.2301145e-01   8.3232858e-02  -8.0758626e-01  -6.7366686e-01   5.1530808e-01   2.2748442e-01   8.6997872e-01   4.3258829e-03   3.7512741e-01  -8.1385209e-01  -1.4977516e-01  -5.2022874e-01   1.8330199e-02   1.6145188e-01   5.1440335e-01   6.7355636e-01  -9.0000075e-01   4.4357593e-01  -3.7845295e-01   6.2700436e-01   1.3977429e-01  -5.2991860e-01  -5.9397893e-01   9.4250066e-01   5.8456966e-01   9.9120624e-01  -6.2989553e-01   8.2044504e-02   8.8867881e-01  -5.2786749e-01   1.6277335e-01  -5.9771610e-01   5.5397994e-01  -2.2967911e-01   2.1997037e-01   7.7208563e-01   6.0477874e-01  -3.4693632e-02   1.4921415e-01   8.8591049e-01  -3.4160975e-01   4.1203080e-01   1.6318182e-01  -8.0573078e-01   2.0607444e-03  -8.0413261e-01  -4.8938505e-01   2.5888280e-01   8.3057034e-01  -5.1310259e-01   2.9409638e-01   5.1201959e-01   9.5991446e-01   1.5270980e-01   9.1010342e-01   2.6844559e-01   7.1545348e-02   1.6484992e-01   9.0984413e-01  -8.8073414e-02  -3.4492880e-01   6.6346771e-01  -5.7488955e-01  -8.1977642e-01  -7.4948316e-01   9.2894572e-01  -6.9684704e-01  -4.9249231e-01  -4.6356569e-01   6.4193032e-01   9.3058357e-01  -1.4417032e-01  -1.4949544e-01  -5.3115643e-01   5.2193175e-01  -1.5262916e-01  -5.3847658e-01  -3.0646882e-01  -9.7794225e-01  -2.6820168e-01   9.6533104e-01   9.7267856e-01  -2.5877732e-01  -1.6009028e-01   9.7298392e-01   6.1209766e-01  -5.0107015e-01  -8.9255267e-02   3.4149374e-01  -5.2218428e-01   7.6572146e-01  -2.4443392e-01   1.6678644e-02  -2.5308033e-01  -1.5792002e-01   9.8193169e-01   5.0221775e-01  -9.3281851e-01   6.1593417e-01   7.8039684e-01  -2.5222313e-01   7.0153604e-01  -5.5642183e-01  -2.0306264e-01  -6.9385177e-01  -4.0954979e-01   3.3567806e-01  -2.5713257e-01  -1.3675312e-01   4.1000010e-01  -4.1281635e-01   9.6971348e-01  -8.8251957e-02  -7.8407748e-01   1.2945040e-01   4.3848492e-02  -1.8588514e-01   6.1537195e-01  -9.8247250e-01   3.8998497e-01  -6.9479623e-01   7.7596110e-01   5.4875827e-01  -9.4560374e-01   8.2820425e-01  -7.2803319e-01   8.3664349e-01   6.5723151e-01  -1.4287706e-01  -2.7487697e-01   6.8761167e-01  -1.2372771e-01  -8.0203755e-01  -5.0640523e-01   2.8898036e-01  -8.7960449e-01   2.9601387e-01  -1.1340728e-01  -9.1050867e-01   8.3130053e-01  -4.2041331e-01  -5.9936644e-01  -9.9609729e-01  -6.5897440e-01   5.5876538e-01  -6.3300511e-01   7.6821127e-01   6.7495986e-01   2.1616643e-01  -5.8653556e-01  -4.6315323e-01   9.6037788e-01   9.8268228e-01   7.3777894e-01   2.6193512e-01   2.4634218e-02   1.3636533e-01   3.4913548e-01   3.9624462e-02  -7.1621765e-01   9.3975521e-01  -7.8580757e-01   9.3307840e-01   1.0006573e-01   1.5624136e-01   2.0792082e-01   7.0082926e-01   9.7649064e-01   6.0017670e-01  -8.9480104e-01   2.6959603e-01   8.5200255e-01  -4.7789157e-03
   7.6399023e-01  -6.2792075e-01   3.4892953e-01  -2.0313247e-01  -8.0848536e-02   4.6191073e-01  -3.3602680e-01  -1.8107274e-01  -9.6902419e-01  -2.1484038e-01   2.3606088e-02   1.1646402e-01   3.2579985e-01   9.4809883e-01  -8.5031746e-01   8.5180805e-01   9.3329015e-01  -2.0151190e-01  -8.7951685e-01   2.4509476e-01   2.9735141e-01   9.6753384e-01  -5.8661039e-01  -8.0538660e-01   5.7460966e-01  -8.5486682e-01   2.3674816e-01  -5.5994054e-01   7.8181324e-01  -7.5163783e-01  -7.3009908e-01  -2.7865212e-01   4.9823320e-01  -1.4259319e-01   5.4799920e-01   5.1753480e-01  -7.3646545e-01  -7.9108914e-01  -5.5476964e-01  -6.8340610e-01  -3.2394483e-01  -1.4977322e-01   1.7358836e-01  -8.0449508e-01  -3.0545196e-01  -9.3127362e-02  -9.8130136e-01   2.7870056e-01  -5.3840435e-01  -4.8745835e-01   7.5327606e-01  -6.5547365e-01   8.9292581e-01  -1.4356540e-01  -1.7465873e-01  -1.5639028e-01  -3.4647908e-01  -4.7757576e-01  -6.9562407e-01  -6.5476245e-02   9.5857401e-01   9.1319564e-01   7.2560648e-02   3.8935686e-01   2.9196600e-01  -5.2950634e-01   8.1454250e-02   3.7434368e-01  -6.4927919e-01  -7.9758403e-01  -4.9408185e-01  -7.0802527e-01  -8.4406816e-01  -9.2340488e-02   1.0779237e-01  -9.5452980e-01  -6.4271627e-01  -4.0040412e-01  -6.3776209e-02  -8.1473549e-01   2.2873515e-02  -9.5921462e-01  -5.0260719e-01   1.4794400e-01   3.7585509e-01  -7.3046604e-01  -1.4468303e-01  -4.8162349e-01   9.4079620e-01   7.0586652e-01  -9.3164947e-01   8.2158330e-01   9.4862041e-01   5.9348003e-01  -9.6963861e-02  -2.2872687e-01  -6.3689261e-01   2.4305072e-01   6.8327082e-01  -1.4772610e-01   6.9820574e-01  -7.5685037e-01  -6.5673120e-01  -4.4397896e-01   1.3065626e-01   5.8286766e-01   9.0278872e-01   9.1632454e-01  -8.3504100e-01   2.9473028e-01   8.6853424e-01   3.0815890e-01   7.1048166e-01  -6.1567158e-01  -7.0437243e-03  -8.3187896e-01   9.8956030e-01   7.7925990e-02  -1.8276027e-01  -2.1667411e-02   6.4044373e-01  -9.1814696e-01   3.7722750e-01   5.3064617e-01   1.4033790e-01  -9.0603962e-01   1.1643126e-01  -2.9668926e-01  -6.4806415e-02  -4.8080909e-01  -8.4774770e-01  -2.6677923e-01   8.4766471e-01   3.4335451e-01   7.0417456e-02   8.9890243e-01  -5.4455459e-01  -5.1694453e-01  -3.2816176e-01   7.7586516e-02  -6.8619697e-01  -5.6748321e-01   8.2720492e-01  -6.6858322e-01  -2.5800253e-01  -4.3372701e-01   3.9596823e-01   2.6886606e-01  -2.7937121e-01  -9.9379358e-02  -4.7745469e-01  -6.6742259e-01   9.3450765e-01  -5.1373168e-01  -9.1022195e-01  -1.2743183e-01  -4.5259636e-02   8.1652924e-01  -7.6595925e-01   2.0528036e-01  -3.5924230e-01   2.6180539e-01  -7.5316562e-01  -8.4791240e-01   5.5109913e-01  -5.6338978e-01  -7.8561698e-01  -4.5068172e-02  -7.0643076e-01   3.3871655e-01   2.9757989e-01   4.7376852e-01   9.5256071e-02   9.4769245e-01   2.2640309e-01  -4.1632007e-01  -3.2229809e-01   9.7529065e-01   3.0643139e-02  -3.3288967e-01  -7.2888153e-02  -3.3051122e-01   2.1154297e-01  -3.1112077e-01  -2.9776033e-01  -8.3272740e-01   1.0574050e-01   4.2832019e-01  -3.4686761e-01   8.5618861e-01   7.0822296e-01   8.1835618e-01   4.2985380e-01  -3.5866422e-01   2.1852688e-01  -3.7331956e-02   1.9776373e-01   8.3208564e-02   4.9892337e-01   1.4933574e-01   8.1052757e-01   1.9148062e-01  -8.6798187e-01   9.5719802e-01  -7.5947196e-01   3.9523927e-01  -1.6169118e-01  -8.0041675e-01   3.8131113e-01   9.8514264e-01   8.0024410e-02   9.1966379e-01   3.8872257e-01   2.9651372e-01   6.0032145e-01  -3.4362842e-01   1.7807903e-01   2.5039347e-01   7.4029730e-01   9.0187298e-01  -9.6140033e-01  -3.8658392e-01  -5.8071099e-01   8.4383020e-01   8.0358808e-01   6.4564855e-01   9.5494069e-01  -6.0061472e-01   9.8973929e-01  -9.8343571e-01  -2.7815614e-01   6.3684366e-01  -3.2420645e-01   8.5067637e-01  -8.1687067e-01  -1.6143218e-01   2.7680052e-01   7.7047778e-01  -8.8701708e-01  -9.6984979e-01  -9.3345643e-01  -7.7577945e-01  -3.0757587e-01  -8.1202745e-01  -8.9052913e-01   5.0860378e-01   5.1896983e-01  -3.7787946e-01   1.5317072e-01  -3.3467101e-01   5.6714401e-01   8.3189960e-01   1.4149559e-01  -1.6052125e-01   9.0914760e-01   1.4492822e-01  -2.7882171e-01   7.7675077e-01  -4.9433697e-01  -1.0879740e-01   7.1381438e-01  -1.2260639e-01   5.5817776e-01  -3.7722670e-01   9.8665853e-01  -6.8906997e-01  -1.7908454e-01  -6.5695082e-01   2.6961440e-01  -5.7310151e-01  -2.7791835e-01  -7.6822646e-02   8.4276320e-01  -4.0284177e-01   6.1129353e-01  -7.4616699e-01  -5.5058760e-01  -7.9290351e-01  -2.4225176e-01  -8.5598498e-01  -4.7221946e-01  -7.9049046e-01   1.2252116e-01  -5.9579434e-01   2.0030330e-01  -5.1379727e-01   6.0007310e-01   2.0336148e-01  -8.4290549e-01   5.5439954e-01  -3.4208132e-01  -7.7026600e-01  -8.1767656e-01  -5.9829307e-01   4.8067118e-01  -6.6518738e-01  -4.9373329e-01  -5.5229354e-01  -2.0215370e-01   3.6858535e-01  -4.9452129e-01   7.5194124e-01  -5.8735206e-03   6.2897377e-01  -1.4097933e-01   8.0024756e-01   6.9368809e-01   5.6794753e-01   5.4159723e-01  -5.8858219e-01   2.0914533e-01  -5.9584648e-02  -5.7235993e-01   1.1086650e-01   4.5071160e-01   7.7436324e-02  -4.4291383e-01   4.4773394e-01   8.1197533e-01  -6.3744923e-01  -5.4828039e-01  -8.1412600e-01   8.1836686e-01  -7.2040552e-01  -6.9850402e-01   8.3318445e-02   3.6424496e-01   9.5878266e-01  -4.9991248e-01   6.2476772e-01  -3.7126822e-01  -6.2526548e-01  -4.2588402e-01   2.3760052e-01  -8.2296023e-02   8.0698794e-01  -1.1736242e-01   2.2924761e-01   3.3937117e-01   2.2252613e-01  -1.8910888e-01  -7.7319954e-01   5.6775338e-01   6.6214290e-01  -5.1921740e-01  -5.5068789e-01   3.8478373e-01  -3.1380000e-01  -4.1299796e-01  -2.5569098e-02   2.5624485e-01   1.0007959e-01   6.4363118e-01  -6.3245845e-01  -7.9553684e-01   3.8177875e-01  -6.0163342e-01  -4.0595200e-01   4.1490221e-01  -7.1022304e-01   2.0768624e-02   9.5891214e-02   7.6680228e-01   9.2590948e-01  -5.0146639e-01   2.1253828e-01   8.9597063e-01   5.8309889e-01  -3.2781771e-02   6.0722436e-01  -5.3276287e-01  -2.7442565e-01  -1.9334245e-01  -7.0669592e-01   9.9146283e-02  -8.6999009e-01  -1.3358345e-01   6.2240305e-01   5.6092972e-02   3.9162501e-01  -7.2034048e-01   1.1470019e-01   8.9719360e-01   3.0691271e-01   4.7681908e-01   3.0713222e-01  -3.0222414e-01   3.8735166e-01  -4.7767511e-01  -1.2207177e-01  -9.7687660e-01  -1.1794088e-01   1.2174229e-02   8.3314742e-01  -4.3893121e-01   7.4584482e-01  -3.0536594e-01  -3.3098738e-01  -2.0742473e-01   2.3156139e-01  -9.5419888e-01   5.3523781e-01  -8.5188940e-01  -1.7417524e-01  -4.9409944e-01   8.6357327e-01   7.7701573e-02   3.1085723e-01   5.3136577e-02   9.7066513e-01   8.3671272e-01   2.2244316e-01   2.3805989e-01  -7.1697586e-01  -6.3940876e-01   8.6748237e-01   6.6803922e-01  -7.4328553e-01  -6.1810773e-01   4.0366596e-01   6.5539656e-01   5.3233938e-01   1.7682761e-01  -4.0073279e-01  -5.8841339e-01  -7.8464027e-01  -8.0866422e-01  -5.7449425e-01   3.8281027e-01   8.7425332e-01   5.9197216e-01  -4.8116797e-01  -2.0363757e-01   8.7106026e-01  -2.2126282e-01   7.4100069e-02   7.1097412e-01  -3.8618621e-01  -1.1976844e-01   7.7416090e-01   6.0731242e-01  -6.4497399e-01  -7.9516426e-01   4.5670180e-01  -4.3573818e-01   3.1991178e-01   4.8155387e-01  -7.3222718e-01  -6.1318346e-01   3.3715988e-01  -3.9487763e-01  -6.2647292e-01  -7.5488113e-01  -6.2591972e-01   2.7377084e-02   1.5434099e-01  -1.5962575e-01   6.9803233e-01  -2.8111992e-01   3.8859610e-01   2.2124620e-01  -2.2034629e-01   9.8686538e-01  -9.4688144e-01   2.1500368e-01  -3.4368763e-01  -7.7970950e-02   9.9577565e-01   7.0246107e-01   6.4579538e-01   3.6231443e-01  -4.5113164e-01   9.2910037e-01   8.7281848e-01   2.6750183e-02   8.3483304e-01  -9.1269142e-02  -6.0240131e-01  -6.7926887e-01   9.0590595e-01  -6.1355204e-01  -3.2473347e-01  -7.7319130e-01  -5.9858385e-01   4.3771928e-01   3.6331196e-01   1.0215724e-02  -4.8354192e-01   5.9333453e-01  -2.2780357e-01   5.5710349e-01   2.2932857e-01  -4.7608760e-01  -1.8733383e-01  -7.0625334e-01  -3.6218974e-01   4.2401529e-01   9.9104434e-01  -8.1761249e-01  -9.6133697e-02   2.2339545e-01   1.7486896e-01   3.2330985e-01   3.5771750e-01  -2.6410946e-01   1.3194766e-01  -5.1044774e-01   1.0503974e-01   8.8590359e-01  -5.5571831e-01   7.3612026e-01  -5.8805609e-02  -9.4109547e-01   4.5343059e-01  -6.4874536e-01   7.3476874e-01  -5.4970512e-01   3.1779713e-01   2.6384430e-01  -9.7649080e-01   4.9246496e-01   3.9209147e-01  -8.3452103e-01   3.1820989e-01   9.0822459e-01   5.0916287e-01  -2.9300588e-01   4.9481923e-01   8.0764361e-01  -3.8986470e-02   7.0475013e-01   3.6377944e-02  -1.4650931e-01   1.1436363e-01   5.0724539e-01  -3.2935988e-01  -8.1440100e-02  -5.1909472e-01  -5.3747266e-01   9.0531222e-01   6.0546620e-02  -8.2972950e-01   5.4849244e-01   1.4434457e-01   7.1956744e-01   4.1074637e-02   7.5713485e-01   8.7931231e-01   9.0002825e-01   4.7398971e-01  -7.2247940e-01   4.9159976e-01  -7.0882633e-01  -9.0613008e-01   9.7072439e-01   1.9601763e-01  -9.2521285e-02  -3.2973332e-01   4.3145789e-01   3.1626213e-01  -5.6942650e-01   5.9168319e-01   5.0308969e-01   6.1322022e-01  -6.4430109e-02   9.0638734e-01  -2.6793259e-01   5.2087884e-01   6.7689437e-01   8.3557659e-03   3.0337838e-01  -1.7317028e-01   5.5929448e-01   2.5111843e-01   2.2674850e-01  -7.2204540e-01  -9.6960088e-01   3.3200691e-01  -5.7047832e-01   8.1525088e-01   5.4641909e-01  -9.8938897e-01  -8.2804290e-01   3.1624125e-01  -9.9334263e-01   1.7986981e-01   5.2057934e-01  -8.9526126e-01   1.7104042e-01  -4.7124535e-01  -8.7462688e-01  -6.6159669e-01   5.1947702e-01  -6.2009878e-01   2.0866634e-01  -2.4011167e-01  -9.6130747e-01  -8.9253311e-01   9.0113587e-01  -4.6031123e-01   7.7823436e-01  -9.8937030e-01   7.1717534e-01   9.2689798e-02  -9.5487113e-01  -9.8597709e-01  -9.4079310e-01   1.2055867e-01  -9.5130610e-01  -5.6021968e-01  -3.0534767e-01   4.9398728e-01   4.6007481e-01  -7.5993885e-01  -5.9150015e-01  -9.0622115e-01   7.3930852e-01  -3.0010699e-01  -8.2277783e-01   3.3787051e-01   1.0300129e-02  -8.1627388e-01  -4.4672442e-01   3.6395117e-01   6.7918720e-01   7.3495139e-01   9.0773627e-02   9.1902485e-01   6.0303208e-01   3.7772818e-01   4.3914837e-01  -8.5196518e-02   7.1122477e-02  -1.3147249e-01   3.9134383e-01  -6.1541021e-01  -5.4460739e-01  -8.1389940e-01  -7.9520345e-01   6.6833683e-01   2.6285641e-01   1.5108598e-01  -4.7670041e-01   3.2774582e-01  -8.9101716e-01  -4.1429152e-01  -8.9459924e-01   3.8886257e-01   8.5398072e-01  -2.7836691e-02  -9.8963535e-01  -5.4459429e-01  -8.6995842e-01   6.3273916e-01   9.3912370e-01   2.1788143e-01  -6.3030917e-01  -4.8438405e-01  -7.6048948e-01  -8.2234471e-01  -6.1809565e-01  -6.3733536e-01   3.2269129e-01  -7.2087495e-01  -2.4429010e-01   5.7876508e-01  -5.6099567e-01  -2.6418072e-02  -7.7641991e-01   5.0147012e-01  -4.1852097e-01   1.3023080e-01   9.3494585e-01  -2.4885050e-01  -9.8605951e-02   3.3188584e-01  -5.5380649e-01   5.8045813e-01  -1.9333354e-01   9.4850753e-02   3.8788174e-01  -4.1134407e-01   2.3106946e-01  -8.6962749e-01  -9.6078600e-01  -4.2269940e-01   1.9685561e-01   9.2221091e-01  -4.3008736e-02   1.9382939e-01  -8.6849724e-01   9.8600384e-02   8.3490916e-01   3.4907809e-01   4.4700501e-01  -6.0036531e-01   3.7559283e-01  -1.4140884e-01  -5.7252732e-01   6.8084197e-01   7.6703128e-01   2.9772867e-01  -7.7036624e-01   2.3593634e-01   7.0330616e-01  -6.1829509e-01   9.5686689e-01  -4.1435523e-01  -7.1994790e-01  -7.9379087e-01  -3.8868393e-02  -9.0719822e-01  -7.5256195e-01   8.4118467e-01   4.2463490e-01  -1.4221318e-01   9.5700712e-01   7.1678296e-01  -3.1715653e-01   1.0982958e-01  -6.1338785e-01   7.8789732e-01   8.5441607e-01  -6.1496611e-01  -5.9349142e-01  -3.8113845e-01  -6.3845055e-01   2.9573588e-01   5.3760452e-01   9.4527023e-01   4.7955833e-01  -5.1851992e-01   8.0987470e-01   5.5117728e-02  -5.1645504e-01   5.5701108e-01   6.4576327e-01   8.4100445e-01   2.8774096e-01  -9.3222152e-01   7.4450893e-01   5.5347113e-01  -9.5019705e-02   3.6200527e-01  -5.1040189e-01   4.3690663e-01  -7.3262463e-01  -7.1390122e-02   6.1985066e-01   6.0166321e-01   8.7044957e-01   5.3701024e-01  -2.1538834e-02  -6.0051768e-01  -9.4144341e-01  -3.2445549e-01  -8.9799766e-01  -8.4151463e-01  -9.1649986e-01  -6.6206548e-01  -2.1416286e-01  -6.7660879e-01   4.8666822e-03   8.0173267e-01  -8.3174177e-01  -7.4722726e-01   9.6849528e-01   3.0728793e-01  -5.9475998e-01   5.0477227e-01   2.9414436e-01   9.7832045e-01   9.4480843e-01   7.5434571e-01   9.4932988e-01  -6.9658337e-01  -9.1236124e-01  -7.7353750e-01  -9.6251596e-01   5.1011159e-01   2.6466926e-01   6.6985689e-01   4.3597474e-01  -5.3902720e-01   8.3594896e-01  -3.1732949e-01  -2.9135159e-01  -4.5067860e-02   1.5712579e-01   7.4442157e-02   9.4920428e-01   9.3616134e-01  -5.7090586e-01   3.5837556e-01   6.2933370e-01   5.5068862e-01  -5.3250346e-01   4.0157501e-03   1.7661353e-01  -6.0594080e-01   9.5179241e-01   2.1772105e-01  -7.4140794e-01  -7.4068532e-01  -7.0623349e-01  -5.0188594e-01  -5.0618265e-01   5.2076346e-01   3.0685539e-01   2.3793527e-01   1.1675261e-01  -6.3658071e-01  -5.9019177e-01   2.7580335e-02   9.1077821e-02   6.5096968e-01  -8.9769392e-01   6.8773036e-01   2.1909018e-02  -6.1934251e-01  -5.8654455e-01   6.3052884e-01   3.5890519e-01   5.4546506e-01   2.2967099e-01  -9.2255463e-01  -3.2433546e-01  -2.4965736e-01   1.4740091e-01  -8.6082716e-01  -6.2075502e-01  -2.9424937e-01   1.4866134e-02  -8.3392383e-01  -8.6880985e-01  -3.3764421e-01   9.4901946e-01   6.2384404e-01  -6.7666324e-01   4.4568683e-01   4.7110758e-01   9.4125663e-01   5.6959047e-01  -6.8744200e-01  -4.3901259e-01   3.1469629e-01  -5.9172442e-01  -9.7716104e-01   8.6192933e-03  -5.1899455e-01   2.3844402e-01   5.2024367e-01   9.8321643e-01   7.4263682e-01  -2.4469019e-01   9.6831971e-02  -2.2692502e-01  -1.2807053e-01  -1.5895115e-01  -1.8177480e-01   7.2670134e-02   4.9787641e-01   2.4685384e-01   8.4371640e-01  -2.4555010e-01  -8.2515810e-01  -7.6777613e-01   4.8736188e-01   3.9160475e-01  -4.9632996e-01   7.6233739e-01  -5.2929545e-01   3.3367026e-01  -5.9945220e-01  -3.5262890e-02  -8.7271354e-01  -6.0977670e-01  -4.2264624e-01   3.1863096e-01  -2.6861628e-01  -1.3964198e-01   4.7816179e-01  -2.6546336e-01  -5.3959971e-01  -2.4496718e-01  -5.6918578e-01  -5.0375396e-01   9.2027548e-01  -9.1040582e-01   6.6118419e-01   6.2926346e-01   4.4218002e-01  -5.4445464e-01   6.9729220e-01  -4.6074633e-01  -2.0434220e-01   7.5690259e-01   6.6829212e-01  -2.8303602e-01  -6.3160050e-01  -1.1151334e-01  -6.7163210e-01   9.6794261e-01  -2.9469096e-01  -8.5681004e-01   6.8977558e-01   6.0994636e-01   2.7668284e-02   9.2996323e-01  -5.5642795e-01   7.4151797e-01  -8.2274416e-01   6.2883614e-02  -8.9557846e-02   5.3684709e-01   4.1780442e-01  -4.3430669e-01   5.1398320e-01   4.5572043e-01  -8.6326373e-01   8.2560166e-01  -3.2745800e-02   3.9024179e-01   3.5718639e-02   8.1490017e-01   6.9793832e-01  -1.6440515e-01   2.9188775e-01  -5.5751241e-01   9.4744399e-01  -6.1310022e-02  -4.4206646e-01   6.3396697e-01   1.5379178e-01   7.5331439e-01  -4.0717144e-01  -3.2222093e-02  -3.1497899e-03   1.3359086e-01   5.5181036e-01   8.9967555e-01  -9.7690446e-01   9.1849089e-01  -7.6239555e-01  -3.8093608e-01   7.8354394e-01   4.3571344e-01   4.4693640e-01   1.3655221e-01  -4.6439197e-01   2.2639398e-01  -2.1740666e-01  -3.2411165e-01   8.4141330e-01  -9.5361114e-01   2.2352937e-01   1.1880367e-01  -5.7396688e-01  -8.2669521e-01  -8.0531764e-01   6.5796920e-01  -8.9378390e-01   4.4001831e-01  -1.6169435e-01  -5.7028335e-01   8.7951307e-01   2.7431160e-01  -3.7438167e-01  -9.7325919e-01   8.6676702e-01  -4.4377012e-01  -3.3985757e-01  -8.2705568e-01   6.6412840e-01  -6.9719790e-02  -8.7804710e-01   3.7884750e-01  -1.5194195e-01  -7.7444507e-02  -4.4780669e-01  -7.4930700e-01   7.9490620e-01   6.6002753e-01  -1.3465229e-01   1.8969259e-01   3.6225782e-01  -6.8286523e-01   1.6933864e-01  -7.2000573e-01  -6.4239548e-01   1.8640634e-01  -6.6348842e-01  -3.1871967e-01   1.5084971e-01  -7.9068707e-01  -9.3382587e-01  -5.9991365e-01   8.8062514e-01  -4.3845719e-01   1.5418581e-01
