   9.9360878e-01   5.9697228e-01  -8.4483711e-01   3.0294759e-01  -5.2929428e-01   4.2226707e-02  -8.9203217e-01  -5.1822736e-01  -9.9721526e-01  -8.7915436e-03  -7.4063360e-01   7.2891987e-01  -7.5681614e-01   1.2821508e-01  -5.4864537e-01  -1.5804500e-01   6.7470798e-01  -9.5054006e-01  -1.1778519e-01   1.2178884e-01   3.2488118e-01   3.3027570e-01  -6.7847547e-01  -5.9196895e-01  -1.0384830e-01  -5.1458742e-01  -5.4708336e-01   6.7602109e-01  -1.5059834e-02   8.3429519e-01  -6.8924468e-02   5.4937388e-01  -9.5739948e-01  -5.8823545e-01   7.0551716e-01   9.0640684e-03  -1.3946081e-01  -5.9547323e-01  -5.7909289e-01  -2.1941086e-01   5.2133493e-01  -6.1666197e-01   7.1584870e-01   8.3444377e-01  -6.6818040e-01   5.2019043e-01  -8.8801712e-02   2.1903211e-01  -7.3707951e-01   6.0247564e-01  -1.3038224e-01  -7.7832088e-01   3.5410013e-01   3.7291835e-01  -9.3043972e-01  -2.6347834e-01  -8.2444102e-01  -8.4574434e-01   2.6320785e-01  -9.0209554e-01  -2.0812950e-01  -7.0400412e-01   6.1623594e-01  -2.1740047e-01   7.4390030e-01  -2.9034974e-01   2.0210231e-01  -1.2519341e-01   6.7366084e-01   4.8302346e-01   8.0813618e-01   3.7452062e-01   5.5797046e-01   4.6148028e-01  -7.7986462e-01   6.8633805e-01  -3.9914995e-01  -9.7639142e-01   7.3318566e-01  -3.5436525e-01  -5.2714348e-01  -7.1288894e-01   1.5942003e-03  -8.5173089e-01  -3.3222208e-01   8.5460840e-01   5.1580082e-01  -1.9590398e-01  -3.2680019e-01   3.0565346e-01   7.0057362e-01  -1.2064525e-01  -8.6373971e-01   9.6057611e-01  -3.8455182e-01  -2.4869550e-02  -9.1502991e-01  -9.8061936e-01  -7.7202354e-01   3.5534148e-01  -9.0039158e-01   7.0770914e-02   1.0014409e-01   8.4139917e-01  -4.5738523e-01   2.3889778e-01   6.9151903e-01  -3.2801892e-01  -2.2178585e-01  -9.8840113e-01  -4.4978188e-01   2.3252551e-01   1.3539834e-01  -4.5014287e-01  -9.9264910e-02   1.3953673e-01   5.5275128e-01   1.9418796e-01  -4.8515167e-01  -8.5474383e-01  -8.8865814e-01  -5.6040377e-01   9.7785694e-01   2.2257052e-01  -8.0576819e-01  -6.0939272e-01  -1.4048461e-01   1.4106258e-01  -7.2656839e-01  -5.2901950e-01   3.5261091e-01  -3.5086775e-01   1.0212772e-01  -9.7458490e-01  -6.4800111e-01   1.9728239e-01  -4.8680739e-01  -3.2840108e-02   5.8271013e-01  -3.5154480e-01  -3.1090455e-01  -5.4007571e-01  -4.2481375e-01  -8.8516859e-02   4.4769060e-01  -2.4173414e-01  -3.6487726e-01  -7.6868094e-02   6.6425589e-01  -7.2395516e-03  -5.7144167e-01  -3.0371445e-01   8.1374191e-01   6.8568299e-01  -3.9650465e-01  -7.8504933e-01   8.2261677e-01   2.2278187e-01   9.4904404e-01   4.9805317e-01  -6.3578549e-01   6.1078744e-01  -2.6020651e-01  -7.5862554e-01  -8.7124089e-01  -7.7190459e-01  -4.3034157e-01   2.2341136e-01   8.9302875e-01   2.5051471e-01   6.9381181e-01   3.8433337e-01   8.2081460e-01   2.5276137e-02  -5.0850081e-01   8.0259930e-01   2.9199111e-01  -6.8542059e-01   2.4747329e-01   4.1743097e-01  -4.2572594e-01   8.1736385e-01   9.6399623e-01  -8.1269282e-01  -7.3106890e-01   5.1563935e-01  -8.4067484e-01  -8.1218740e-01  -7.4469667e-01  -7.8001223e-01  -7.1273740e-02   6.6703611e-01   3.1915611e-01   6.9330609e-01   2.7917904e-01  -1.3527367e-01  -4.9682769e-01   4.9822517e-01   4.3998806e-01   8.0797678e-01  -5.6945065e-02   1.2956130e-01  -3.6978163e-02   1.4001837e-01  -9.5304307e-01   4.4072710e-01   5.5305505e-01   3.7140883e-02  -8.0792182e-01   4.6579348e-02   2.2854228e-01  -2.8059223e-01  -2.9502765e-01  -2.7683933e-01   6.5035938e-01  -5.8864237e-01  -3.9024698e-01   3.8889024e-01  -7.7844447e-02  -9.1895419e-01   8.1009312e-01  -2.4022053e-01  -8.0062108e-01   9.5584976e-01   3.9319492e-01  -5.6102596e-01  -1.8205627e-01  -5.3096241e-01  -5.3111976e-01  -8.7030823e-01   6.1119544e-01  -9.6371447e-01   4.0853102e-03  -4.0836157e-01  -6.9178682e-01  -7.5851589e-01   2.3573602e-01  -1.2311418e-01  -5.4850052e-01  -3.1437289e-01   5.6414248e-01   1.0271734e-01  -1.6932163e-01   1.5925452e-01  -1.9329716e-01  -9.9001067e-02  -5.2218006e-01   7.2056632e-01  -7.5055658e-01  -2.0806330e-01   9.1802043e-01  -3.1152212e-01  -2.7194146e-01   5.1856305e-01   6.2113749e-01   6.9038490e-01   2.3421086e-01  -5.0231038e-01  -1.8900343e-01   6.3119290e-01  -8.6953024e-01   6.2138389e-01   2.9678588e-01   2.9151144e-01  -3.4607803e-01  -7.0687499e-01  -4.7212870e-01  -9.5012689e-01   8.7154206e-01   3.6967919e-01   7.3719219e-01   1.2432988e-01  -3.2757345e-01   2.0998589e-01   5.9144248e-01  -8.4749851e-01   9.3427494e-01   3.5077922e-01   7.3488300e-01  -9.0112212e-02  -4.0101334e-01   5.8622830e-01  -3.8397245e-01  -1.6244887e-01  -1.4382803e-02   7.1360411e-01   7.9427304e-01   4.0558962e-01  -9.3080677e-01  -9.3893871e-01   4.8002275e-01   2.0561601e-01   2.9358997e-01  -4.7721871e-01  -3.3460404e-01   4.8172299e-01  -8.0111986e-01   9.6747290e-01  -4.5196975e-01   9.1412090e-01  -5.2002473e-01   6.5688461e-01   5.0920706e-01  -5.4535923e-01   7.6710372e-01   8.4476665e-01  -7.9364211e-01   5.5208125e-01  -1.8540518e-01   1.1110433e-01  -2.3385913e-01  -7.8178611e-01   8.5070670e-01   4.9252574e-01  -3.4620965e-02   8.1761782e-01  -7.6204454e-01   4.6793315e-01  -1.5548999e-01  -9.5055665e-01   7.6958561e-01   4.0273810e-01   9.2017747e-01  -8.1861574e-01   3.0798450e-04  -5.3339068e-01   1.6524910e-01   4.0069772e-01   5.0033125e-01   7.1361232e-01   6.1506298e-01   8.9869299e-01   2.2713165e-01   4.6163699e-01   6.5864381e-02   8.7418240e-02  -9.0065460e-03   5.5485316e-01  -5.7615279e-01   5.7893431e-01   1.9174449e-01   9.9946581e-01   6.1531076e-01  -3.0437418e-02  -4.2808551e-01  -5.7117946e-01  -8.1115212e-01  -5.1631180e-01   6.1739804e-01  -3.2106555e-01  -9.7085798e-02  -9.8031105e-01  -6.2223768e-01   7.2439901e-01   8.9603716e-01  -5.9060821e-01   5.4695375e-02  -8.0816933e-01   6.3139331e-01   8.9548635e-01  -4.5500916e-01  -1.3637363e-02  -2.7198813e-01   6.1887994e-01   5.8671910e-01   8.8162323e-01  -1.2680889e-01  -7.9217690e-01  -1.9333199e-01   9.4108820e-01   2.2536056e-01  -7.9555646e-01  -2.3805254e-02  -3.4030224e-01  -1.7385162e-01  -9.0849411e-01  -9.6354580e-02  -7.4366987e-02  -3.1268938e-02   8.6618869e-01   9.1974238e-01   8.9178245e-01  -1.3344976e-01  -2.8134269e-01  -4.9089153e-01   4.8209505e-02  -2.1265681e-01   8.7995782e-02   6.6640028e-01  -8.9448225e-01   1.3615691e-01  -9.9736077e-01   1.8248177e-01   9.5378922e-01  -9.6266779e-01  -4.2327255e-01   4.7218797e-02  -6.6641157e-01   6.8471805e-01  -4.3178683e-01   2.7565985e-01   8.5409783e-01   7.3980936e-02  -1.5961532e-01  -7.1654700e-01  -9.4064084e-01  -2.6551207e-01  -8.5734482e-01   5.6552653e-01  -9.9120617e-01  -8.5133867e-01   5.8507145e-01   4.6971343e-01  -1.6132772e-01   7.6421795e-01   1.0229672e-01   5.9691233e-01  -2.4410001e-01  -9.1214989e-01   9.0766171e-01  -2.5401523e-01   4.9995546e-01  -7.5731875e-01  -3.0644919e-01  -8.8379051e-01   8.8424156e-01   1.0473274e-01  -9.2118705e-02   1.1238855e-01  -1.1695071e-02   5.5016877e-01   4.5314057e-02  -1.6348567e-01   7.5418505e-01  -6.8034303e-01  -1.7015037e-01  -9.1190812e-01   8.6357409e-01  -3.9028412e-01  -3.9210877e-01   4.8290180e-01  -5.8933636e-01   3.0831466e-01   3.3692043e-01  -9.1034349e-01  -2.3114175e-01  -9.9840637e-01   3.9745423e-01   3.2563961e-01  -2.2741161e-01   4.3257280e-01   3.4619483e-01  -5.7303074e-01   6.1895005e-01  -9.3684842e-01  -3.0607364e-01  -1.0419728e-01   1.4015126e-01   6.3312831e-01   3.2573071e-02  -9.3973480e-02   7.5641496e-01  -4.7522641e-01   4.8715635e-01  -8.3754965e-01  -6.6216171e-01   1.0633879e-01  -5.8281514e-01   5.1656478e-01   5.1682141e-01  -7.1058152e-01   1.8935794e-01  -9.8686504e-01  -1.2629754e-01   4.0738388e-01  -3.9667995e-01   6.4200494e-01  -4.9413325e-01  -7.2932416e-01   1.1614889e-03  -5.9523845e-01  -1.7577051e-01   6.7802078e-02   5.8617558e-01   2.5775488e-01   2.4105350e-01  -3.2725024e-01  -5.5237090e-01  -7.2742451e-01   2.7824996e-01   2.2048445e-01  -6.4803770e-01  -5.4826528e-01  -3.3233366e-02  -6.5482267e-01  -9.3497916e-01   2.6018212e-01  -7.9175655e-02   1.8886485e-01  -8.4946306e-01  -3.3953608e-01  -7.1679536e-01  -9.9893516e-01   4.0944780e-01  -3.1169193e-01  -3.8834494e-01   2.9981829e-01  -1.1534098e-01  -3.8932103e-02  -6.8187893e-01  -2.9871200e-01  -6.0868247e-03   6.0445979e-02   2.6224526e-01   5.1605802e-01   3.9217688e-01  -2.5780111e-01  -7.3779560e-01   3.1422888e-01   4.7418793e-01  -6.0016132e-01   4.9022910e-01  -2.4100332e-01   2.9149183e-01   8.0805579e-02   5.7053598e-01  -2.5031620e-01  -8.0936981e-01   4.0880495e-01   7.7893249e-01  -8.1296205e-01  -7.7416305e-01   7.2143208e-01  -7.7275205e-01   2.5440063e-02  -1.8718886e-01  -9.1141052e-01   5.5256776e-02   7.6567712e-02   7.5551569e-01  -5.5147449e-01   7.9514727e-01   1.2093783e-02  -5.5823294e-02   3.5019107e-01   8.3641130e-01  -7.1002499e-01  -9.2519729e-01   8.1033019e-01  -5.3345664e-01  -4.0518364e-01  -9.9651646e-01   8.4241985e-01   5.5396510e-01   3.5681899e-01   4.7413114e-01  -3.9066610e-01  -3.5377315e-02   4.0328455e-01   6.3662135e-01  -9.1527873e-01   1.3779966e-01  -4.9910635e-01   1.4694218e-01  -8.5768329e-01   7.7319481e-01  -1.7302561e-01  -6.8761817e-01  -2.5040845e-01  -5.1382574e-01   2.2615458e-01   2.6796440e-01   2.7761945e-02  -2.2882889e-01   3.5801781e-01  -2.2332264e-01  -5.9813189e-01   2.2197159e-01   8.3049742e-02  -6.1994520e-01   5.5692727e-01   1.0159189e-01   5.7542323e-01   7.6903045e-01  -3.7822592e-01  -8.2844629e-01  -3.1101239e-01  -9.0680217e-01  -6.4375070e-01  -2.5899705e-01   9.7869343e-01   6.7429756e-01   5.1310503e-01   1.1170386e-01   8.8933272e-01   9.2284162e-01   2.5769372e-01   2.5912470e-01   3.5421634e-01   2.1479451e-01   3.1453760e-02   4.7758645e-02  -6.4581764e-01  -5.9627602e-01   6.0650842e-01  -1.5871742e-01  -5.4338936e-01   9.9070092e-01   1.1657246e-01   6.4717516e-01  -1.9282436e-01   6.3128913e-01   1.5469430e-01  -6.8770199e-02   4.5398253e-01   9.5359870e-03  -9.4497841e-02   2.5864964e-01   1.9181459e-01  -3.4220546e-01   2.6672096e-01  -9.5706526e-01  -3.6089813e-01   4.5257273e-01   2.0113418e-01   9.2740934e-01   9.2648593e-01  -5.7093865e-01  -5.0014258e-01   9.1857644e-01  -7.6581933e-01  -7.4441503e-01   1.0192530e-02   4.5451011e-01   9.4546744e-01  -2.7509359e-01  -7.1232800e-01   1.1694584e-01  -2.9177378e-01  -7.2482671e-01  -7.2813951e-01   5.4310385e-02  -8.1277707e-01  -5.4895451e-01  -7.7067475e-01   8.5173373e-01   4.0944731e-02  -8.8622744e-01   2.6969936e-02  -2.3091447e-02   9.7326136e-01  -4.4763565e-01  -8.2022290e-01  -6.8922058e-01   4.2200200e-01   9.1982990e-01   9.3140397e-02  -1.3842105e-01  -6.4940487e-01  -6.5264538e-01   7.8844162e-01   3.8652966e-01  -4.8871635e-01  -2.4838059e-01  -3.8227512e-01  -6.5648867e-01  -2.4177397e-01  -9.8712902e-01  -6.8636750e-01   6.6936414e-02  -1.2176840e-01   3.6408739e-01  -9.7463008e-01  -4.1113890e-01  -9.2965695e-01  -9.5907984e-01   8.3937768e-01   4.2168169e-02   7.8931999e-01   2.2675929e-01   4.0559874e-01   8.7171439e-01  -6.3188055e-02   2.4985674e-02  -6.8962149e-01  -2.4785407e-02   2.5577456e-01   3.2499228e-01  -8.5098292e-01   2.5917629e-01  -3.1637086e-01   4.7735756e-01  -7.2625114e-01   7.0894472e-01  -7.8459883e-02   2.8039110e-01  -7.8831327e-01   1.4870639e-01  -9.1606474e-01  -7.5594950e-03   4.7635141e-01  -7.0274156e-01  -1.4509559e-01   1.1580973e-01   1.6231300e-01   3.6772285e-01   4.6207444e-01  -3.5846393e-01  -7.8359761e-01   2.3404457e-02  -2.5864482e-01   5.6519185e-01   5.4268361e-01  -3.0607595e-01   2.6049361e-01   5.6093504e-01  -3.5675405e-01  -5.9965624e-01   3.1657199e-01  -5.6072746e-03   6.4347580e-02  -9.7550034e-02  -6.7418095e-01   3.6461663e-01  -5.0925893e-01   4.3582815e-02   3.2648681e-01  -8.0020104e-02  -2.4126302e-01  -8.0923558e-01  -8.2957141e-01  -2.9283640e-01   4.8548759e-01  -7.1523533e-02   9.1487789e-01   8.7115982e-01  -7.4968095e-02  -2.3836111e-01   7.2245794e-01   1.9597056e-01   1.0208198e-01   2.0251791e-01  -1.5824540e-02  -4.5227570e-01  -1.3097537e-01   3.5824756e-01   1.7607495e-01  -1.4023413e-02   4.0187969e-01   6.4745194e-01   8.8756161e-01  -5.1205983e-01   3.9839950e-01   7.5909926e-01   5.6500304e-02   4.9814420e-01   8.3125754e-01   3.1567649e-01   8.6476811e-01  -6.1938936e-01  -8.7540702e-01   2.0495005e-01  -2.4057489e-01  -8.4078609e-01   8.7643779e-02  -7.0742409e-01  -8.0833761e-01  -7.9319130e-01   1.0958538e-01  -4.7256962e-01   7.1927902e-01  -8.7554007e-01  -7.6597453e-01  -4.7419848e-01  -8.9339399e-01   5.5859734e-01   8.0078624e-01   2.0804541e-01   5.1583329e-02  -2.0269478e-01   1.0129902e-01  -1.8034127e-01  -8.5661982e-01   5.5764987e-01   6.6927390e-01   5.2054413e-01   3.9586185e-01   2.6577042e-01   1.5615444e-02  -3.4124530e-02   1.9798727e-01  -2.1024420e-02  -5.2416929e-01   6.5707567e-01  -9.6127252e-01   3.3300594e-01   5.5920484e-01   6.4480051e-01   4.2694672e-01   8.8152821e-01  -6.8275260e-01  -6.7140553e-02   7.9049629e-03  -8.0991661e-01  -9.7349625e-02  -3.9979510e-01   5.5248866e-02   8.6980127e-01   8.2945199e-01  -7.2846904e-01   4.1100912e-02   4.0373926e-01  -8.4086149e-02   6.9080243e-01   8.8484817e-01   9.9138640e-01   9.7758254e-01   6.3253229e-01  -4.3168790e-01  -9.6467258e-01  -9.3235580e-01  -7.5469267e-01  -2.5584210e-01   7.6960537e-01  -3.0203482e-01  -8.0932614e-01   2.3787766e-01   9.3269566e-02  -2.1629064e-01   6.2661401e-02   5.1298848e-01   1.4342475e-01   2.0630098e-01  -8.1316944e-01   5.2509008e-01   8.8224371e-01   9.6261362e-01  -6.7403629e-01   2.7932625e-01   4.4230449e-01  -5.6559324e-03   9.5146299e-01  -3.3080982e-01  -2.9935754e-01  -3.9631511e-01   5.1522178e-01   1.8046545e-01   9.4449410e-01   5.4631237e-01  -4.9155712e-01  -1.7960255e-01   2.8214382e-01   8.3461457e-01   6.7670720e-01  -7.0074357e-01  -8.5102910e-01   7.1848786e-01  -1.7129274e-01  -2.8259598e-01   8.9153830e-01  -1.5690467e-01  -1.8657726e-01   7.9265345e-01  -6.3483779e-01   7.2981945e-01   1.0642393e-01   3.1454091e-01   5.8539760e-01   4.9187082e-01   9.4666384e-01   6.6184260e-02  -9.1074280e-01   9.6647049e-01  -4.9853844e-01   9.8584564e-01  -8.5754513e-01  -8.2131238e-01   6.0739645e-01  -4.1418392e-01   1.5240280e-01  -9.6547603e-01   1.2166439e-02   5.8880016e-01   2.5852270e-01   1.1702373e-01   8.8577771e-02  -9.6918241e-01   5.1010810e-01  -9.5192597e-01  -6.5158256e-01   4.1655817e-02   4.7278832e-01  -9.6706212e-01  -7.7488899e-01   7.8943568e-01  -9.9951858e-01   7.7560238e-02   1.2342595e-01   6.8134063e-01   6.8602509e-02  -6.7398780e-01   9.1591757e-02  -3.1897154e-02   2.8610991e-02  -5.8404898e-02  -3.3894235e-01  -5.2343416e-01   3.9427411e-01  -4.6115770e-02  -8.6752985e-01  -9.6853231e-01   8.6218891e-01   7.4825602e-01  -8.2725908e-01   9.4407806e-01  -2.7855657e-01  -9.5101372e-01   2.3039961e-01   6.1262167e-01   6.7250396e-01   3.6584769e-01   7.3744820e-01  -1.0484361e-01   8.6101729e-02   2.1788685e-01   6.7767809e-01   6.8450344e-01   6.2677961e-01  -3.0048031e-01  -9.3419103e-01   3.8355443e-01  -2.8637664e-01   6.5238483e-01   4.5838767e-01   5.6522336e-01  -5.1961935e-01   6.4650173e-01   9.8824266e-01  -1.4009216e-02   2.2510819e-02   7.9725866e-01  -5.8312460e-02   3.1050273e-01   4.9473134e-02  -7.7049495e-01   2.4370358e-02  -7.6291839e-01   2.5479930e-02   9.3984963e-01   2.9580935e-01  -1.8615634e-01   4.3339688e-02  -1.4554690e-01   9.8475106e-01  -6.3778814e-01  -1.5823887e-02  -3.7173581e-01  -8.5218187e-02  -3.8632887e-01   8.8790359e-01   3.9472557e-01  -9.8392493e-01   6.2646810e-01   1.8936681e-01  -7.7921234e-01   5.8653311e-01   8.2288606e-01  -1.7680201e-01   7.0498059e-01  -1.6482951e-01   9.6518759e-01   4.6916473e-01  -5.7815826e-02  -5.6260965e-01  -6.3469477e-01   3.7003997e-02   4.1807446e-01   2.3529537e-01   3.3311557e-01  -2.2238313e-02  -9.1987112e-01   8.6470153e-01   2.2253920e-01   1.1553858e-02   2.0581350e-01  -1.4558519e-01   9.0072025e-01   5.9799421e-01  -3.5553234e-01   3.6285752e-01   3.1312331e-01   4.4033668e-01   1.0246275e-01  -7.7571601e-01   3.8490566e-01   3.5931217e-01  -5.1520701e-01   3.9901421e-01   3.9018012e-01   7.8071596e-01
   8.5472053e-01  -3.4095497e-01   9.9399612e-01  -6.9518572e-01   3.5178942e-01   9.4711969e-01  -4.7984595e-01   8.6177008e-02  -7.9172353e-01  -5.7556107e-01   1.2305566e-01  -3.3324926e-01  -8.0861405e-01   6.0151714e-01   5.7199364e-01   1.2579335e-01  -5.3339102e-01   6.0071759e-01  -5.8055287e-01   9.8365402e-01   4.8626794e-01  -7.0669304e-01  -3.9123401e-01  -7.6956751e-01  -8.3141488e-01  -6.0404445e-01   2.2578566e-01   7.2147241e-01   6.3867078e-01  -3.7911874e-01  -6.0200690e-01   8.5788499e-01  -1.5243114e-01  -4.6878742e-01  -7.9059228e-01  -1.0010122e-01  -3.7084977e-01  -6.7842407e-01  -7.2978785e-02   3.2480954e-01   5.6136713e-01  -2.5646260e-01  -2.7394928e-01   6.5486849e-01   9.6516947e-01   3.9187016e-01  -9.8579797e-01  -2.8429685e-01  -2.8247513e-01   4.4549666e-01  -1.6170779e-01   6.9817263e-01  -6.7732332e-01  -4.7985142e-01  -4.7465699e-01  -9.8834912e-01  -9.4928676e-01  -8.0600687e-01   9.8505289e-01  -6.3651888e-01  -6.8518724e-01   2.6510956e-01   3.5893983e-01   4.8287184e-01  -2.8071037e-01  -5.3873105e-01  -1.0618415e-01  -9.8303439e-01   6.0434560e-01   2.6724823e-01  -6.6556116e-01   7.6595850e-01  -6.9294080e-01   4.5357609e-01   9.5273650e-01   3.9556324e-01   2.2514758e-01  -1.1317678e-01  -3.3051517e-01  -8.4142742e-01  -1.1941625e-01   6.5818642e-02   1.9986201e-01  -4.5002782e-01  -2.7695678e-01   8.0394766e-01   3.5372709e-01  -8.3439262e-01  -5.6337503e-02   9.1869175e-01   6.7030720e-01  -8.4685033e-01   3.5180039e-01   1.9826112e-01  -4.6190035e-02  -6.0264468e-01   9.7903681e-01   8.3175951e-01   2.3566493e-01   2.4024386e-01  -5.1904237e-01  -4.4675255e-01  -8.8107070e-01   8.0042813e-01   7.3211956e-01   3.2481749e-01  -1.3835477e-01   7.0473548e-01   6.4235573e-01  -8.2558646e-01  -4.7838432e-01   4.6167531e-01   1.8979663e-01  -9.2299223e-02   6.2489785e-01   7.6009073e-01   8.1791587e-02   6.4701091e-01  -6.6787786e-01  -1.1773710e-01   4.2742809e-01  -1.9162093e-01  -8.4753391e-01   5.9256079e-01  -2.9025391e-01  -8.1125301e-01   5.5907241e-01  -2.3196187e-01  -6.7973166e-01   3.0589773e-01   5.0710134e-01  -3.3336411e-01  -5.8825956e-02  -4.2203031e-01  -3.7365303e-01  -3.9502562e-01  -3.7886366e-02  -5.9272371e-01  -3.8559781e-01  -3.3685154e-01   2.6867676e-01   5.1110187e-01  -1.9076660e-01  -9.3088635e-01  -1.3383297e-02  -6.4069689e-02   8.3852772e-01  -1.1831969e-01   5.0053404e-01   3.9665811e-01   2.8311643e-01  -7.6533581e-01  -7.4958071e-01  -3.8618220e-01   8.2113620e-01   9.3098596e-02  -3.2783793e-02  -9.4460181e-01  -4.3285766e-01  -7.0315906e-01  -2.8224455e-01   1.0997221e-01   1.0185010e-01  -7.9035475e-01  -6.6053496e-02  -5.7974058e-02  -8.1185752e-01  -3.2812008e-01   6.5571758e-01  -2.6502263e-01   9.4069050e-01   5.9416248e-01   7.6238049e-01   9.7896972e-01  -4.0797672e-01  -2.9571677e-01  -2.8240804e-01   7.8042554e-01   6.2285028e-01   5.1844830e-01  -3.8373777e-01  -4.5211023e-01  -7.3853965e-01  -5.7292222e-01  -9.0722379e-01  -8.1609267e-01   4.9653700e-01   5.1815859e-01  -5.4496411e-01   4.9222783e-01   1.5401820e-01  -4.6102811e-01  -5.2074089e-01  -5.1629524e-01  -4.6605637e-01   3.4645793e-01   4.5469989e-01   6.1190510e-01   4.6582806e-01  -5.9547071e-01  -7.8342084e-01   1.3408374e-01  -4.3621268e-01   2.3415821e-01  -2.1756874e-01   5.5432630e-01   6.0386989e-01  -3.1484124e-01   3.4244539e-01   3.9548332e-01   9.8669867e-01   4.0358897e-01   1.2005287e-01  -4.8363964e-02  -5.2293384e-01  -4.3777335e-01  -9.2589096e-01   2.9653482e-01   5.2556506e-01   1.9657965e-01  -5.8743665e-01  -4.7999891e-01  -9.9378773e-01  -7.4723010e-01   5.8596790e-01   4.3050735e-01   9.8076931e-01  -2.0361469e-01   9.9704307e-01   2.1819703e-01   8.5454114e-01  -4.7949730e-02  -7.3978537e-01  -4.7723360e-01   6.0557600e-01   7.9284730e-01   3.6087903e-01  -3.8579447e-01  -4.8762884e-02   4.7722500e-01   9.8440429e-01   9.0451942e-01  -9.7144284e-01  -7.7143252e-01   7.0497685e-01   1.1962550e-02  -1.0719708e-01  -8.2963022e-01   3.7734527e-01  -6.1226842e-01  -1.1392277e-01   9.8153311e-01  -9.9300491e-01   8.1237404e-01  -4.0033517e-01  -7.3143582e-01   8.8119889e-02  -2.5819465e-01   4.0280227e-01  -9.2157117e-01   8.8399240e-01   2.5822429e-01   5.5715400e-01  -6.5332425e-01  -9.3191883e-01  -5.1171204e-01   8.1664785e-01  -6.5737037e-01   9.5243965e-01  -8.4133111e-01  -6.2727541e-01   6.4046051e-01  -6.8463605e-01  -3.1431819e-01   2.7893836e-01   3.1160385e-01   5.9598157e-01  -7.9820798e-01   3.1906604e-01   8.1248611e-02   7.5075737e-02   7.4525594e-01  -7.5283154e-01  -8.2733111e-01  -1.9564825e-01  -3.9104826e-01   2.7424124e-01   8.4989147e-01   8.9884709e-01   4.7223554e-01   1.7780561e-01   8.8935713e-01  -4.2925601e-01   2.1813278e-01  -6.4793409e-01  -1.4015578e-01  -3.0209022e-01  -3.8025151e-01  -8.8721971e-01   2.3017421e-01   2.3750631e-01   3.1939966e-01   9.0431742e-01  -8.6289692e-01  -7.9241640e-01  -1.8028793e-01   9.1236166e-01   2.7922359e-01   8.9095928e-01  -7.9786507e-02  -1.9159149e-01   6.8034673e-01  -6.0073580e-01   6.1716134e-01   7.0042361e-01  -5.6438714e-01   8.9711556e-03   7.4268199e-01   7.4249196e-01  -7.0528721e-01  -8.9126475e-01   6.2314253e-01   2.7784243e-01  -3.7308567e-01   7.3433405e-01  -5.8739818e-01  -6.6516258e-01   3.6637865e-01   7.7843490e-01  -2.6103890e-02   7.0336171e-01   7.1589621e-01  -6.7705992e-01  -6.6837010e-02   8.6855176e-01   3.8015800e-01  -9.4495797e-01   7.2441476e-01   5.8877146e-01  -1.6095855e-01   5.6385938e-01   3.4321325e-01  -9.4426655e-01  -6.3843719e-01  -6.5586327e-01   4.8151060e-01  -1.7755023e-01  -2.9050178e-01   8.1428270e-01   8.5534541e-01  -1.5517084e-01  -5.9382526e-01  -1.4978523e-01  -1.8180653e-01  -8.9955459e-01  -9.8927598e-01   8.9067568e-01  -4.1593804e-01   6.4866769e-02   1.8215884e-02  -3.5085865e-02   7.2033327e-01  -1.1512476e-01  -2.8718865e-01  -2.9547449e-01  -4.6367110e-01   1.6963611e-01  -3.4502032e-01   6.4695338e-01  -4.6444454e-01  -1.5030436e-01  -5.4922355e-01  -7.7418269e-01  -6.8846427e-01   1.5569482e-02   8.7331434e-01   1.4061112e-01   9.1693247e-01   3.7193637e-01  -3.9561919e-01  -9.9144730e-01  -6.8329152e-01   3.4340968e-01   3.2515580e-01   9.6592938e-01   8.6406224e-02   6.6827454e-01   6.8875659e-01  -1.0504337e-01   9.2892726e-01  -8.9543069e-01  -2.8573187e-02   8.4719600e-01   1.8981768e-01  -1.9699472e-01  -1.0544344e-01  -1.8961124e-01  -5.0620639e-01   7.6907178e-01  -9.1633377e-02  -7.8591844e-01   3.7192357e-01   3.3655094e-01   4.5205409e-01   6.2707842e-02   8.5864089e-01   4.1924196e-01   4.9176230e-01  -2.4426303e-01   1.6896673e-02  -9.8479945e-01  -4.5893549e-01  -3.8636228e-01   1.5202127e-01   5.2004044e-02   2.6735193e-01   8.6651070e-01   5.7229944e-01  -5.2666947e-01   4.6444867e-01  -1.1387235e-01  -3.2591153e-01  -9.8175791e-01   4.8973314e-01   7.1910038e-02  -7.9499946e-01   5.6282523e-01   1.2999686e-01   8.8646602e-01   5.6495606e-01   1.5587900e-02  -8.0280655e-01   4.4578745e-01  -4.5026333e-01   4.8375856e-02  -7.7014074e-01   7.8115650e-01  -1.9470389e-01   7.4497099e-01  -5.4738079e-01  -8.2824537e-01   5.9123668e-01   3.1240773e-01   8.4715512e-01   5.2704075e-01   3.2514726e-01   5.9504134e-01   3.7200414e-01  -1.0372711e-01   3.9972895e-01   5.5994688e-01   5.4710528e-01   2.5580628e-01   8.3710988e-01   7.4458068e-01  -1.9836207e-01  -3.5716832e-01  -2.2190854e-01  -5.2193693e-01   2.1560028e-01  -5.2024130e-01   8.0545752e-01  -9.3671077e-01   1.3057628e-01   6.0280113e-01   5.5243451e-01  -1.4318594e-01   3.9236559e-01  -4.4580662e-01  -6.5029902e-01   4.8452052e-01   9.1728934e-01  -2.2102284e-01  -5.2694697e-01   3.7106182e-01  -9.5440128e-01  -9.3135519e-01   7.4105643e-01  -6.1242802e-01  -8.3049888e-01   9.0337857e-01  -4.7077881e-02  -9.9050258e-02  -1.5979041e-01   9.7497722e-01  -4.0576167e-01   2.6145154e-01   2.7955191e-01  -9.2444200e-02  -6.7704349e-01   8.5438087e-01   8.9328160e-01   9.7623404e-01  -7.4692996e-02  -2.1901621e-01   9.2358911e-01  -3.6280956e-01   4.4700979e-01  -9.3953155e-01   8.1715050e-01   3.4352087e-01   7.7367720e-01   9.5481049e-01   3.8004202e-01   3.2291252e-02   3.8551351e-02  -8.3217072e-01  -8.7573338e-01  -7.7735898e-02  -8.9993511e-01   7.6939706e-01  -2.1579842e-02  -4.3386480e-01  -7.6521017e-01  -9.2074791e-01   8.1934284e-01  -1.2663743e-01  -7.8535570e-01  -9.8883702e-01   4.4032753e-01   8.8008565e-02   6.7865206e-01  -3.9332856e-01   1.4086631e-02  -3.9441881e-01   2.9322053e-01  -8.2648002e-01   3.8928571e-01   3.1273148e-01   1.3568741e-01   2.0141417e-01   2.3438501e-01   4.8363229e-01   8.3880405e-02  -7.3317127e-01  -3.1107294e-01  -4.2963992e-01  -2.4539493e-01  -4.0202398e-01   5.7386001e-01  -4.6127772e-01  -2.6914305e-02  -1.3678473e-03  -7.4658211e-01   2.2794156e-01   4.5956758e-02  -6.1471110e-01   5.8241236e-02  -6.8643312e-01  -9.1730754e-01  -9.6323809e-01   4.9718685e-01  -5.4003505e-01  -3.8546499e-01  -8.0167098e-02  -4.5692489e-01  -6.1264003e-01  -6.9854980e-01  -7.1515742e-01  -1.3803085e-01   4.6581589e-01  -8.6243616e-01   7.6212226e-01   5.6607233e-01  -9.1808497e-01   2.3748198e-01  -2.2413708e-01   7.4304092e-01   2.1565906e-01   1.3813086e-01   3.3198583e-01  -4.8325377e-01  -8.1885160e-01   8.1933006e-01  -2.3666420e-01  -4.8533559e-01   5.4920898e-01   3.8298690e-01   2.3520840e-01   3.7502397e-02   4.8887141e-01  -8.4057061e-01   9.1691521e-01   1.0362160e-01   8.8135767e-01   8.4323018e-01  -9.0780171e-01   4.6926821e-01   3.5645192e-01  -5.2816155e-01  -6.2879173e-01   5.6673219e-01  -4.4970938e-01  -9.8557356e-01   1.3538583e-01   7.0097315e-01  -4.0970282e-01   3.0849741e-01  -2.4224484e-01  -5.9887855e-01   2.8006554e-01   8.7890316e-01   5.2952995e-01  -7.4058516e-02  -6.8795232e-01   6.0546910e-01  -9.7502440e-01   6.6794721e-01  -7.8413026e-01  -7.5196100e-01  -4.9177395e-01  -1.4557170e-01  -7.5430404e-01   4.0740883e-02  -6.2370527e-01   6.7137403e-01  -5.4371268e-01   4.6366858e-01   2.3206857e-01  -5.2022729e-01   1.9607429e-01  -8.9417393e-01  -8.1501873e-01   6.0212864e-01  -6.9794804e-01  -9.9158739e-01   6.1593689e-01   4.1604809e-01   7.1193694e-01  -5.1244017e-01  -8.3100787e-01   1.4217044e-01  -7.1220986e-01   9.0559752e-01   3.6694604e-01  -5.7156220e-01  -1.0365459e-01  -1.5144484e-01  -2.8391655e-01  -7.3835183e-02   7.2992074e-01   7.3585630e-01  -5.5107352e-01   8.2945347e-01  -6.2604796e-01   8.9207709e-01   7.3944908e-01   3.5691497e-01   8.9952807e-01  -7.5104988e-01  -4.7986096e-01   7.7788964e-01   2.7420844e-01   7.5644314e-01   7.8017710e-01   1.8558059e-02   7.5192153e-01  -2.0201713e-01  -8.5050050e-01  -3.7654948e-01   2.0472912e-01  -8.5417676e-01   1.7996718e-01   4.6519235e-01   3.8254284e-01   6.0677089e-01   2.9859689e-01  -3.5108936e-01   3.8627290e-02  -7.0326526e-01  -1.3491924e-01   7.8461489e-01  -3.8101474e-01   5.6085855e-02   4.3127408e-01   2.4880222e-01   9.2464430e-01  -3.9718044e-02   8.7030920e-01   2.2388397e-01   5.2003039e-01   3.6899576e-01   3.0365605e-01   6.0239852e-01  -5.7747718e-01   4.3008004e-01  -9.7774772e-01  -9.6029954e-01   6.1394589e-01   2.5832807e-01  -8.3976159e-01  -9.4372685e-01  -2.1341905e-01  -8.7201236e-01   4.6805057e-01  -5.1560799e-01  -3.0511563e-01  -4.4489724e-01   7.2887802e-01   5.8445307e-01  -5.1853185e-01  -1.8863454e-02  -5.3595422e-01  -5.4674210e-01  -3.7473030e-03   1.9984977e-01  -9.2417367e-01  -3.9064735e-01  -7.0323569e-01   6.8215222e-01  -2.3363520e-01  -6.4588141e-01  -5.4788066e-02   6.7110559e-02   9.3232425e-01   4.7071076e-01  -1.7010029e-01   5.8539348e-02   1.8133396e-01   5.9460074e-01  -9.4659517e-01   7.0957501e-01  -3.3782431e-01   3.0125188e-01   7.7448501e-01   2.1428594e-01  -8.9666906e-01  -2.5690117e-02   1.1920588e-01   3.1022550e-01  -9.8550715e-01   1.9291223e-01   6.2411787e-02  -3.9640908e-01   8.1493408e-01   6.9298301e-02   9.4860516e-01  -6.1320727e-01  -8.4872501e-01   6.1104511e-01   1.4816092e-01   2.2090265e-02   4.1256777e-01  -2.7217510e-01  -2.1803978e-01   6.1440481e-01   5.5370692e-01   5.4666540e-01   6.1282884e-01   2.7975516e-01   6.0554132e-01   1.8635985e-01   6.4428799e-01  -7.1546724e-01  -7.9055999e-01  -8.0162317e-01  -1.5089282e-01   9.9121189e-01   2.4821868e-01  -7.0945720e-01  -8.2129539e-01  -2.4214819e-02   1.9761897e-01   2.1774114e-01  -1.2023852e-01  -2.0043568e-01   1.0729398e-01  -7.7349119e-01  -9.2378368e-01   5.5355948e-01   2.7924797e-01  -3.7398301e-01   3.0033442e-01   3.1078410e-02   2.8423921e-01  -1.7454259e-01  -7.6872080e-01  -5.7009138e-01   6.1978806e-01   4.3744928e-01  -2.0168614e-01  -6.9392950e-01  -3.0843097e-01   7.9042983e-01   3.8193409e-01   5.8322742e-01   5.6432463e-02   2.3898490e-01  -8.8778173e-01   9.0604819e-01  -3.5881338e-01  -1.3356741e-01   7.3014893e-01  -9.5008329e-02   8.6440199e-01  -6.4300898e-01  -4.8422671e-01  -2.8290289e-01  -3.2460406e-01  -1.6801998e-01   2.2738417e-01  -7.8741943e-01  -9.9426247e-01  -2.6891394e-01   3.4093044e-01  -1.8322978e-01   1.7739703e-01  -6.6906140e-01  -3.9437762e-01   9.7756110e-01   8.6145560e-01  -2.0827387e-01  -4.1270662e-01   9.1454337e-01  -1.7513447e-01   1.8636497e-01  -5.9191537e-02   8.4342625e-02  -3.3209248e-01   8.8315053e-01   3.5253880e-01   8.3091861e-01  -7.7653304e-01   7.5938063e-02   6.2641856e-01  -7.1686881e-01   1.0593455e-01   4.3392232e-01  -1.6910167e-01   3.8711231e-01   3.7600130e-01  -9.9280548e-01   2.3011084e-01  -7.4765644e-02   7.6685120e-01   2.6037132e-01  -5.8722556e-01  -5.3768937e-01   6.5889926e-01  -3.0527523e-01   1.7059450e-01  -7.9911743e-01   3.2486557e-01   2.1074658e-01  -9.5079636e-01  -4.8858803e-01   2.9145195e-01   8.1507313e-01  -9.4689669e-01  -5.7442553e-01  -8.8167246e-01  -6.6654564e-01   2.6311558e-01   9.5292211e-01   4.7498910e-01   7.5907805e-01   5.6958870e-01   5.5868302e-01   5.2446314e-03  -9.0154639e-01  -2.3176803e-01   1.6968394e-01  -2.4778213e-01  -1.8409180e-01   7.5849401e-01   1.3575770e-01  -3.8149894e-01  -1.8989372e-01  -7.7369896e-02   7.3647047e-01   9.7138307e-01  -9.1590410e-01   3.0764887e-01   7.5571945e-01  -7.2325636e-01  -6.4713473e-01   4.5565606e-01  -1.1926496e-01   7.5744111e-01  -7.8784486e-01  -1.8219199e-01  -7.2501903e-01   3.3949932e-01  -6.1849096e-01   3.8032700e-01  -3.1335161e-01   7.0983497e-02   6.6327479e-01   5.3907789e-01   7.7692552e-01  -9.9999621e-01  -4.9117398e-01   6.4336977e-01   6.7663978e-01   3.4745704e-01  -1.4704583e-01   7.2028078e-01  -5.2916160e-01   4.4144580e-01  -6.5031197e-01  -5.0634014e-02  -5.7334638e-01  -2.6644957e-01  -2.3351519e-01  -7.2692359e-01   9.0607858e-01   9.0325937e-01  -9.7000512e-01   5.7047008e-01  -9.6202458e-01   3.9015504e-01   8.8430398e-01   9.3061323e-02   9.8049667e-01   5.4615651e-01   7.2624197e-01  -5.7588311e-01   5.1773815e-01   7.7810512e-01  -3.2237558e-01  -2.7654645e-01   7.5410936e-01  -8.2992165e-01  -3.6973421e-01   3.1569907e-01  -5.8788819e-01  -3.1149690e-01  -3.1158013e-01  -6.8488841e-01  -7.1568938e-01  -2.2265054e-01   6.9165319e-01   8.7022010e-02   9.7662164e-04  -4.0299780e-01   2.0971574e-01   4.8657872e-01   8.4803243e-01   2.6088472e-01  -7.4602528e-01  -7.8524156e-01   4.4613561e-01  -6.2157881e-01  -2.6816674e-01  -4.3118814e-01   2.5640214e-01   7.6621221e-01   6.3511811e-01  -8.9886724e-02   5.5178583e-01  -5.2711776e-01   1.9432586e-01   8.4790871e-01  -3.9369319e-01   6.3422215e-01  -8.9419315e-01  -5.9658182e-01   5.7700849e-01   1.7250290e-01   9.9724230e-01  -7.0248571e-01   4.7805379e-01  -9.1669464e-01  -7.3909380e-01  -4.5190590e-01   3.0685857e-01  -5.1845003e-02  -5.9053733e-01   8.2612083e-01  -4.7362888e-01  -8.4854024e-01   6.9100020e-02   3.5896932e-01  -7.8325717e-01   5.3388645e-01   1.8424543e-01  -9.7082383e-01  -9.1174065e-01   3.5938887e-01  -4.9309062e-02  -2.4220127e-01  -5.5495728e-02   7.0157291e-01  -5.0322055e-01  -9.6568440e-01  -9.5395300e-01  -6.9160840e-01   4.8268486e-01   3.3147490e-01   1.6843084e-01   9.6796347e-01   4.0499747e-01  -7.6033725e-01   7.2189252e-01   2.7585413e-01  -5.0430346e-01  -2.9948649e-01   7.9065323e-01   6.1871407e-01  -6.4714830e-01
   3.5637662e-01   8.6805098e-01  -1.4364633e-01   6.7922035e-01   4.7090871e-01   4.5423534e-02   8.4496672e-01   9.0014198e-01  -4.9848222e-01  -9.1417029e-01  -6.8740638e-01   3.7836882e-02  -6.4132060e-01   1.5262665e-01   2.2392450e-01  -7.0602816e-01  -6.7524949e-03  -7.2005448e-01   8.8415674e-01  -3.0838081e-01   3.5939550e-01  -1.6184337e-01   1.5152672e-01   5.0548436e-01   8.6201654e-01   5.6353255e-01  -4.4604203e-01   7.6268125e-01  -6.9103107e-01  -7.2146759e-02   3.7786320e-01  -3.5719545e-01   4.5257044e-01  -6.9130620e-01  -4.8507989e-01   7.2051680e-01   8.2634294e-01  -6.9409754e-01   6.7499228e-01  -8.2282924e-01   1.4078363e-01  -1.7625268e-01  -7.4781967e-01   2.1526738e-01  -7.6268491e-01  -8.1558851e-01   6.8826323e-01  -9.3874186e-01  -4.2094806e-01  -3.2538784e-01  -7.4976820e-02   2.6748094e-01  -8.4246473e-01  -1.3303779e-01   5.3744550e-01   9.2347073e-02   6.6051680e-01   3.9548447e-01   5.7225627e-01  -7.8769510e-01  -6.6484270e-01  -3.1579552e-01  -8.4473221e-01  -1.0678523e-01  -3.9637708e-01   6.8203837e-01   6.2634742e-01   1.3335230e-01  -4.1824328e-01  -7.5322117e-01  -1.8752204e-01   5.9545248e-01  -8.7651388e-01  -7.6955166e-02   1.2339589e-01  -6.8104903e-01   6.0115438e-01   4.5608147e-01   5.4749058e-01   4.2328444e-01   5.5930734e-01   6.2989617e-01  -2.5351510e-02  -4.6476045e-01  -8.8029257e-01  -7.2900044e-01   6.4156111e-01   4.9668287e-01   3.7237102e-01  -3.6097122e-01   4.9917928e-01   6.8361773e-01   4.6341145e-01  -3.8295636e-01   1.5944123e-01  -2.3245990e-01   3.0108626e-01   5.2021420e-01  -5.8428311e-01  -2.0857372e-01   6.5592982e-01   6.4437449e-01   4.6340896e-01  -3.5303828e-01  -6.5978999e-01  -8.7503125e-01  -7.7794669e-01  -1.3816139e-01  -9.5430785e-01   9.5275652e-01   6.0859470e-01  -8.8995167e-01  -3.4715898e-02  -9.1686882e-01   9.0506751e-01   1.2670447e-01   1.1313768e-01  -8.7832946e-01   5.8112188e-01   9.5097896e-02  -5.8878314e-01   9.6617719e-01   2.4155928e-01   2.9803269e-01   9.3612097e-01  -9.8577239e-01  -5.4196113e-01   3.2899690e-01  -9.2826062e-01  -9.0567428e-01  -9.7003394e-02   1.6631837e-01  -6.8385044e-01   9.7999780e-01  -1.4490701e-01   5.2485572e-01   2.1088829e-01  -3.2473047e-01  -8.6271402e-01   5.0425184e-01   6.5963026e-01   5.6668953e-01  -2.3020153e-01   9.4645344e-01   7.8091103e-01  -7.5285154e-01   9.4919757e-01   6.7266415e-01  -1.4862576e-01  -5.0026685e-01   6.9992433e-01  -9.0377250e-01  -8.4248277e-01   4.5344181e-01  -9.6769937e-01   8.2283345e-02  -4.0292438e-01  -2.7896832e-01  -5.6644485e-01   2.8480980e-01  -6.0789124e-01  -9.0517440e-01  -7.3716242e-01  -1.9065514e-02   5.9074207e-01  -8.2818553e-01   2.1730494e-01   1.4572578e-02   2.1258128e-01  -4.4687783e-01  -6.3033464e-01   5.5753914e-01  -3.5921402e-01  -4.3022504e-01  -6.8728704e-01   3.6276892e-01  -8.2556562e-01   2.7311006e-01  -8.0815896e-01   2.2652047e-01  -7.5321964e-02   1.4407776e-01   2.2043365e-01   7.0996113e-01   6.5966784e-01   3.7458159e-01  -3.2973525e-01   6.1624393e-01   5.9589276e-01   9.0415032e-01  -1.8462942e-01   5.0483984e-01   3.9422739e-01   7.8001296e-01   8.8274136e-01  -4.3247461e-01  -1.4633768e-02  -7.5198464e-01   7.1280727e-01   2.9212999e-02  -9.7635387e-01   9.7901452e-01  -5.4690824e-01  -8.0578398e-01   2.1097426e-01  -5.2072675e-02  -4.9481588e-02   2.3881238e-01   7.4552165e-01   3.3336482e-01   7.0958001e-02   8.9396575e-01  -2.0247005e-01   8.6798494e-01  -9.4532413e-01  -6.5784620e-01   5.3512455e-01   6.7718101e-01  -8.8234701e-01  -4.4925541e-01  -9.6772019e-01   3.3137227e-01  -4.6630195e-01   8.5592080e-02   7.4313289e-01   2.3877078e-02   9.3493082e-02  -1.4631038e-01  -4.1000673e-01  -1.3335424e-01  -7.2047716e-01   5.7641615e-02  -1.9187406e-01   5.2336233e-01   5.4502524e-01  -7.3244159e-01  -1.2234786e-01  -4.6656966e-01  -9.8280036e-01   6.6054362e-01   5.1271725e-01  -9.7262515e-01  -3.6157884e-01   1.6328219e-01  -3.0643211e-01   6.0200662e-01  -9.1742772e-01   3.3414323e-01  -8.5854564e-01  -4.2492576e-01   2.7246830e-01  -1.8529261e-01   4.5595539e-01  -8.7290758e-01  -3.5119225e-01   7.5250844e-01  -8.4302884e-01  -1.7861950e-01  -2.3842541e-01  -1.9146954e-01   1.3293728e-01  -3.3035450e-01   9.0823744e-01  -6.1719280e-01  -4.0309750e-01   4.7719022e-01  -6.1958102e-01   9.9184809e-01   5.6178050e-01  -2.8387613e-01  -1.1721968e-01  -3.9399782e-01  -7.3856438e-01  -9.7462865e-01   5.7170790e-02   1.9291492e-01  -4.0824588e-01   7.3559714e-01  -3.2759636e-01   4.0354338e-01   5.0540470e-01   2.6717253e-01  -4.8548822e-01   3.1180410e-01  -6.4545641e-01   1.3421674e-01   6.6424905e-01   6.6736147e-01  -8.9152597e-01  -7.3866368e-01  -7.6944128e-02  -3.8291197e-01   4.6801110e-01  -8.8261920e-01   3.4019158e-01   9.4266957e-01   9.7085110e-01   3.1226831e-01   7.3963281e-01  -7.3299261e-01   2.1285969e-01  -7.5257253e-01  -9.6492785e-02   3.3526081e-01   8.9752920e-01  -6.1309577e-01  -7.3737669e-01  -6.1408158e-01  -9.9099362e-01  -7.7478981e-02  -5.0722242e-01  -4.7640765e-01   7.1422776e-01   7.6002386e-01  -5.4155652e-01  -1.1791394e-01  -5.1249874e-01   8.2337301e-01   4.1177875e-01  -6.2019263e-01   2.0613986e-01  -4.7713412e-01   3.4816411e-03  -4.8914958e-01  -2.1478776e-01   9.4877694e-01  -9.8909898e-01   5.1814361e-02   4.4160475e-01   3.7047068e-01   3.6961078e-02   7.1842887e-01   8.5557624e-01  -3.9721895e-01   7.0807359e-02   7.8300502e-01   2.7425482e-01   8.5969526e-01  -2.9174062e-01   6.8392696e-01  -7.2512914e-01   5.1634457e-01  -9.7100315e-01   3.3537610e-01   3.9550833e-01   1.8318459e-01  -3.4720105e-01   6.1422171e-01   4.8509249e-01  -3.5734146e-01   6.9623274e-01  -8.7429537e-01  -9.1288804e-01  -9.4316899e-01  -9.9474910e-01  -4.5471366e-01   2.7101223e-01  -3.3970118e-01   4.9322546e-01   5.8395302e-01   2.2094691e-01   7.4774894e-01   9.6275327e-01   4.5334459e-01  -7.8415327e-01  -8.5950316e-01  -4.4231301e-01  -9.2077809e-01  -8.7564194e-01  -5.5883580e-01   8.2004860e-01  -9.8500755e-02   3.5685215e-02   1.5298644e-01  -5.6192278e-01  -8.1502753e-01  -4.0877627e-01  -5.5768731e-02   8.8029572e-01   2.9580065e-01   6.4566374e-01  -1.6252100e-01   4.6337626e-01   2.7035185e-01  -3.7473525e-01  -8.0939945e-01  -7.0427220e-01   8.4369166e-01   3.3764421e-01  -6.7832790e-01   1.5626993e-01   9.8233318e-01   3.5847798e-01   5.8198005e-01  -9.5051102e-01   6.5314043e-01  -3.6519576e-01  -4.1649617e-01   9.4843409e-01  -8.0941523e-01   3.6454193e-01   3.6735891e-02   1.1948880e-01  -2.6960375e-01  -6.9279736e-01   8.1603421e-01  -5.3670174e-01  -9.1279500e-01   8.6552471e-01  -1.0169744e-01  -9.8632981e-01  -4.6616940e-01   4.2521978e-01   9.5505235e-01   2.7113663e-02  -6.8674905e-01   9.9810800e-01   2.5129165e-01   1.9761014e-02   5.3201562e-01   1.5275114e-01  -9.0364710e-01  -2.8971450e-01   2.6068194e-01  -8.6027387e-01  -2.5318355e-01   6.9545490e-01   5.2222709e-01   1.7759848e-01   7.7151130e-01  -5.5929521e-01  -5.9064870e-01   1.8172132e-01   1.9130094e-01   7.8637276e-01  -6.4999654e-01  -2.4693316e-01   9.4519823e-01  -1.4491371e-01  -9.8033529e-01   4.0983265e-01  -7.3501722e-01  -1.1688299e-01  -2.0928386e-01  -9.4336611e-01  -2.9408462e-01   1.7851106e-01   7.9545854e-01  -9.4311423e-01   4.9465606e-01   2.3804738e-01  -4.7832229e-01  -6.8998254e-01   4.8833061e-01   5.0145810e-01  -4.9112897e-01  -9.8038511e-01  -3.8789576e-01  -8.1570165e-01  -3.6444363e-02  -1.2126822e-01   5.1669108e-01   2.4453257e-03   5.4021868e-01  -1.4939255e-02   4.9043265e-01   1.1551558e-01   4.0168678e-01  -1.7326484e-01  -8.4670507e-01   1.4514705e-01  -5.9630216e-01   2.8753787e-02   8.4052384e-01   5.3897750e-01   7.4324295e-01  -8.6832924e-01  -2.1922757e-01  -7.0568192e-01   7.3961253e-02   8.7947647e-01   6.7786777e-01  -8.8815455e-01   8.4303449e-01   3.3905754e-01   7.9046990e-01   6.1804490e-01  -2.4822545e-01   3.9494830e-01   1.6372564e-01   7.7390620e-01  -4.8837700e-01   4.1216685e-01  -3.1511958e-01   5.4416667e-01  -2.8699835e-01  -5.1358793e-01   2.1186294e-01  -2.9041531e-01   7.7134913e-01   1.6795389e-01  -3.7584995e-01   3.8504490e-01   4.6219128e-01   4.1259288e-01   3.0031609e-01  -5.5915664e-02  -4.8143128e-01  -5.1623782e-01   1.2105269e-01   2.3785201e-01  -7.3148766e-01   6.8371932e-01  -4.9495589e-03   9.0801123e-01  -6.5739534e-01  -3.2516919e-02  -5.0315469e-01   3.5780981e-01  -7.9384161e-01   4.6711990e-01   5.3255848e-01   8.5602786e-01  -6.1658863e-01  -3.6275620e-01  -8.2211996e-01   3.9149946e-01  -7.0336470e-01   9.7815265e-01  -1.3380873e-01   8.8835176e-02  -9.3109515e-01   2.8524403e-01  -2.0063635e-01  -3.8333047e-01   8.0566176e-02   1.0368375e-01  -2.5371352e-01   1.1331177e-01   7.1062205e-01   1.3255833e-01  -6.6070045e-02   8.1526530e-01   1.4318174e-01  -8.1753868e-01  -2.7100539e-01   8.3091930e-02   1.9077043e-01   4.5290958e-01  -7.5223363e-01   8.5385046e-01  -9.4222828e-01   8.6433753e-01   4.5249953e-01  -6.9639834e-01   2.8064138e-01   4.1059042e-01   2.2666334e-01   3.3230262e-02  -1.4000718e-01   3.1764915e-01   8.4282020e-01  -9.0303225e-01  -5.1090585e-01   1.5349896e-01  -3.4133174e-01  -8.9466656e-02   7.5640612e-01  -2.1443466e-01  -2.0368803e-01   7.3698297e-01   8.3354885e-01   7.9692879e-01   1.9778293e-01  -2.8637340e-01  -9.4901028e-01  -2.7695842e-01  -7.6153924e-02   3.7470909e-01  -3.5015227e-01   2.2778362e-02   8.6390510e-01   1.5977525e-01  -5.6387552e-01  -7.0015254e-01   7.9231604e-01  -1.8628935e-01   4.6951884e-01  -5.9097395e-01   1.9999514e-01   9.5671424e-01  -1.5014402e-01  -5.4469799e-01   1.4551156e-02  -8.6587712e-01   7.0523428e-01   1.0945705e-01  -9.9526547e-01   6.9375661e-01  -2.9331285e-01  -3.9686758e-01   5.4652496e-01   7.4283492e-01   9.6545370e-01  -3.7821722e-01   7.3797194e-01   7.2995612e-01   4.5221954e-01  -4.3415175e-01   4.6593679e-01   7.0093639e-01   5.6639200e-01   1.5418148e-01   2.9135884e-01   6.9387289e-01   8.6364353e-01   4.6273562e-02  -3.0949671e-01  -1.6559570e-01   5.0139301e-02   4.5288211e-01   1.6492850e-01   1.8641368e-01  -5.3447293e-01  -4.9604034e-02   1.0804767e-01   6.8024945e-01  -8.9919666e-01   2.0644355e-01  -2.5905034e-01  -8.2190462e-01   9.9385731e-01  -5.3872689e-01   5.1611968e-01  -1.2443441e-01  -9.4105271e-01  -9.9660076e-01  -9.3234688e-01  -5.5154552e-01  -9.3247875e-01   3.2420441e-01   6.2191758e-01   1.1599157e-01   7.6617759e-01  -7.4997983e-01  -7.7331651e-01   2.8552409e-01   1.2282308e-01   8.5903571e-01  -6.8656537e-01   7.4700901e-01   3.2826112e-01  -3.5026288e-01  -3.3599974e-01   7.1920666e-01  -5.4832685e-01   3.4865916e-01  -8.0181039e-01   7.8435008e-01  -8.9122163e-01  -6.4265829e-02   5.6444134e-01   8.0692964e-01  -2.9939048e-02  -7.7577132e-02  -4.7638552e-02  -8.0815678e-01  -2.5827660e-01   2.7020878e-01  -9.0983601e-01  -1.2491895e-01  -4.3416730e-01  -5.4061508e-01  -6.8869488e-02  -9.8554269e-02  -4.8889550e-01  -4.3069218e-01   1.7348099e-01  -2.4433587e-01  -9.4757509e-01   7.7747558e-01   3.5867574e-01   7.7977417e-01  -7.2678324e-01   5.2516649e-01  -3.4414057e-01   3.2554830e-01  -5.9728146e-01   4.7870344e-01  -2.5733952e-01   8.2223368e-02   6.7376737e-01   1.5644511e-01   3.5871339e-01  -5.7543912e-01   5.8957928e-01  -9.8057864e-01   4.9739157e-01  -2.4272955e-01   8.1320292e-01  -2.1244924e-01   9.5614468e-01  -5.5896034e-01  -8.4264204e-01   6.1885759e-01   4.3399492e-01  -5.1593230e-02   8.8170673e-01   2.5783686e-01   3.8690179e-01   4.8662527e-01  -9.6256232e-01   8.0615065e-01   8.2842668e-01   2.9124582e-01  -8.3532690e-01  -8.9861705e-01   3.6756043e-02  -7.4657860e-01   4.5932533e-01  -3.3156034e-01   5.0385075e-01  -3.0476803e-01   3.8236981e-01   1.2602160e-01  -7.6597546e-01  -4.0996350e-01   8.0714967e-01  -6.9647482e-01  -2.5757401e-01  -4.8583945e-01   7.8195281e-01   5.9663523e-02   1.6063644e-01  -5.9237920e-01  -1.0203560e-03   8.6236929e-01  -5.3829152e-01  -8.4615519e-01  -2.5068434e-01  -7.9870344e-01   7.7435823e-01   3.0891913e-01   7.2755668e-01  -2.9092128e-01   1.3226526e-01   9.7625895e-01   9.7260012e-01  -9.4343532e-01   9.3391255e-01  -9.0471621e-01   3.2792272e-01   7.4951916e-01  -4.4744793e-02  -8.3434339e-01  -5.1838505e-02   5.4923619e-01  -2.9786220e-01   6.9167686e-01   5.5528430e-01   8.8594128e-03  -3.9099086e-01   7.3125709e-01  -3.6016829e-02  -9.4743009e-01  -4.3666784e-01   7.0402754e-01  -9.7611184e-01   2.6591663e-01   9.3685545e-01  -9.8106139e-01   2.8169708e-01   9.6130619e-01   7.7477385e-01   7.8897147e-03  -6.4421757e-01   9.5001327e-01  -8.1561872e-02  -5.5610055e-02   2.4121960e-01  -5.6351951e-02   6.2476902e-01  -8.5099217e-01   2.0726527e-01   6.5752204e-01   3.5415870e-01  -7.5835653e-01   3.3147620e-01   9.9882274e-01   6.5264331e-01   1.5225899e-01  -8.5218802e-01  -5.5192618e-01  -9.1845953e-01   2.4995582e-01  -7.7534149e-02   5.5756265e-01   3.7513011e-01   3.5610390e-01   8.4469685e-01   9.0247424e-01   5.6182544e-01  -8.6140882e-01   7.2695494e-02   2.1925380e-01   6.6630334e-01  -2.4590381e-02  -8.9643112e-01   6.5177370e-01   8.3926256e-01  -4.0746891e-01  -7.4524932e-01  -8.2889183e-01  -1.7085287e-01  -6.1209060e-01  -9.4820930e-01  -3.0997240e-01  -8.1980881e-01  -9.0059851e-01  -8.7053725e-02   5.2970638e-01   8.9512492e-01  -2.5865208e-01  -7.1834286e-02   3.6334279e-01  -6.3340554e-01   8.8796190e-01  -1.8466444e-01   6.9101069e-01  -3.3385225e-02   3.0274123e-01   3.0483140e-01   4.6027717e-01  -8.7375374e-01   6.1300116e-01   7.0795322e-01  -7.8470149e-01   5.2941879e-01   6.7336629e-01  -5.0242671e-01  -1.5859112e-01   8.9257581e-01   6.9759484e-01  -8.3573325e-01  -8.9553775e-01   2.9656744e-01   4.6794678e-01  -5.6595509e-01   5.0320863e-01  -4.5916352e-01   5.9231362e-01   1.7389331e-01   6.2225114e-01  -6.7340311e-01   6.1957670e-01   7.5343774e-01   3.7167115e-02   5.4975583e-01  -1.1066630e-01  -9.7424442e-02   9.5535274e-01   6.8643873e-01  -2.2423887e-01   1.8931179e-01  -9.7262446e-01  -8.4091853e-01   8.5057007e-01  -7.0394819e-01   3.6617362e-01   2.5627695e-01  -5.6623476e-03  -7.4414517e-01   7.8723034e-01  -6.6655341e-01  -7.1963366e-01  -3.3067010e-01  -2.4570865e-01   6.9516133e-01   1.5148196e-01  -8.2205553e-01   8.2274745e-01  -4.7646578e-01   6.2345642e-01   2.9825112e-01   9.1609889e-01   7.2620442e-01  -4.6891928e-01   7.4579475e-01  -8.6532019e-01  -4.9658390e-01   1.8032521e-01   7.0563026e-01   9.8359432e-01   1.6367532e-01  -6.4998248e-02   4.9741969e-01  -8.0027885e-01   2.3431199e-01   3.5196476e-01  -5.5760366e-01   7.8395196e-01  -4.0713864e-01  -5.8846354e-01   5.4508651e-01  -1.2533048e-01   9.6823074e-01  -6.9386711e-01  -7.1308119e-01   4.4228221e-01   8.8450288e-01   4.3799625e-01  -1.3879938e-01  -1.3661334e-01   9.4104134e-01   4.8292219e-01  -2.9561589e-01  -6.1256483e-01  -2.8131286e-01  -9.6272912e-01   7.0093592e-01  -8.7809468e-01  -8.3578899e-01  -9.2348470e-01   1.7025740e-02   3.3970430e-02   1.1653155e-01   9.3855247e-02  -8.5344831e-01  -8.7410137e-01   1.3506300e-01  -5.5405129e-01  -9.3065826e-01   8.8298976e-01  -6.1886057e-01   2.6395733e-01  -6.4685264e-01   8.6381302e-01  -6.9523481e-01   7.6830825e-01  -9.9877274e-01  -8.0796100e-01   7.2515548e-01  -2.0058918e-01  -3.3911558e-01  -9.5030810e-01   6.9006524e-01   8.6122914e-01   9.8931841e-01   5.3839327e-01  -3.1576430e-01  -3.2528756e-01   3.4548523e-01   4.8461540e-02   7.1673685e-01   3.5483294e-01  -4.9537291e-01   8.9852165e-01   1.9177472e-01   4.2868735e-01   3.6768576e-01  -8.5572132e-01   8.7198250e-01  -2.6371252e-02   2.0718234e-01   6.1973672e-01   6.3851477e-03   8.2956928e-01   7.4662441e-01  -7.5808693e-01   4.0252516e-01  -1.9169790e-01   1.4877491e-02  -2.2514114e-02   8.1629408e-01   4.0997173e-01  -1.7069143e-01   5.7660272e-01   2.8546959e-02   1.7688094e-01   8.0050105e-01   9.9809391e-01  -9.4166103e-01  -1.2093398e-01  -5.3357679e-01   2.6708077e-01  -9.2129294e-01   2.4756296e-01   6.4625002e-01  -6.5210964e-01  -5.0485398e-01   2.3509398e-01   2.2978653e-01  -5.1907171e-01   8.4763958e-01  -7.9537031e-01  -1.5591615e-01  -4.2756184e-01   1.6245354e-01   8.7570204e-01   2.3233043e-01
  -9.7979813e-01  -1.8286200e-01  -8.8988413e-01  -4.3157040e-01   5.5092976e-01   4.4179132e-01  -9.4114352e-01  -5.0900869e-01   4.4202796e-01   5.6321062e-01   3.5076991e-01   7.3725012e-01  -6.8134788e-02   6.4819087e-01  -4.7856257e-01   3.7432717e-01   1.3304390e-01  -6.8773596e-01  -8.1192783e-01  -3.2252914e-01   7.5251769e-01   5.2850977e-01   2.4975678e-01  -4.9355927e-01   2.2218582e-01   5.4933449e-01  -6.1062419e-01   1.5740339e-01   4.3276372e-01   9.2267285e-01   7.3849364e-01  -9.2996746e-01  -1.6604511e-01  -5.2241979e-03  -8.9956459e-01  -9.4716637e-01   3.9802941e-01   4.9023135e-01   9.4214802e-01   7.5796332e-01  -4.4874531e-01  -6.1870396e-01   9.7196757e-01  -8.5085331e-01  -7.2609284e-01   4.1385878e-01   6.7641321e-01   8.9818983e-01   6.0243713e-01  -5.9440581e-02   9.1116656e-01  -3.2787146e-01  -4.9793080e-01  -9.2171575e-01  -7.8481437e-01  -9.2860099e-01  -3.5046714e-01  -8.0755943e-01  -9.5660303e-01  -2.5853544e-01  -8.8017447e-01  -5.7903680e-01  -9.8714683e-01   8.4114387e-01   2.4873547e-01  -8.4970713e-01  -6.2936141e-01   7.3749710e-02   2.9543118e-01   5.0387706e-02  -9.9424859e-02  -3.3792708e-01  -2.7828196e-01  -5.5242484e-01  -7.2161843e-01   7.1850840e-01   2.3650753e-01  -7.4987325e-01   2.3929233e-02   8.6949521e-01   4.5102015e-01  -4.7310705e-02  -8.8423720e-01   1.3883667e-01   3.2370323e-01  -6.0544996e-02  -9.0142362e-01   4.1663882e-01   8.7789985e-01   6.8012702e-01   7.3757221e-01   2.2243344e-01  -1.9487146e-01  -3.1541333e-01  -8.2830517e-01   9.2641028e-01   7.3929645e-01  -9.5306343e-01   2.6313989e-01  -3.3230114e-01   8.2284574e-01   9.6209380e-01  -1.2329423e-01  -8.2262321e-01  -2.6360708e-01   1.4130914e-01   8.1431215e-01  -8.6173072e-02  -8.6883671e-01  -9.5595533e-02  -2.9515732e-01  -2.4726682e-01  -5.3230862e-01   9.2133797e-01  -5.4391688e-02  -1.8883513e-01   4.2431885e-01   9.6038633e-01  -8.4565359e-01   7.7317608e-01   8.4894106e-01  -2.7190101e-01  -8.0641003e-01   9.5776221e-01  -3.2894919e-01  -7.3148545e-01  -8.5428794e-01  -6.4154938e-01   3.7892906e-01  -4.9650042e-01  -5.5854251e-01  -9.4343165e-02  -7.2588744e-01   3.1753448e-01   4.5258890e-01  -7.5160909e-01   9.4532720e-01   4.2861183e-01   8.3688195e-01   3.0473131e-01   4.6285792e-01   4.0315800e-01  -7.0250338e-02   9.7664287e-01  -9.9674869e-01   3.7613408e-01  -5.6335577e-01  -4.6101422e-01   4.6422426e-01   3.3273115e-01   6.8898080e-01   3.3090887e-01  -8.6755324e-01   6.2799775e-01   5.4725426e-01   9.5597840e-01   8.5980187e-01  -6.6841376e-01  -4.9627602e-01   1.9351120e-01   7.8096411e-01   7.7741829e-01  -4.1738529e-01   6.8513595e-01   7.6480861e-02   5.5349101e-01  -5.8237840e-01   8.9966848e-01  -2.6139752e-01  -5.9572022e-01   9.4605143e-01  -3.4116959e-01   4.1329165e-01   4.8411742e-01  -3.8762718e-01  -4.8235661e-01   7.3363834e-01  -4.6848428e-01  -8.1847167e-01   7.4293503e-01   7.7564618e-01   1.3783636e-01  -1.1574386e-01   4.5283857e-01  -1.3777178e-01  -2.4657227e-01   1.5874801e-01  -6.0765135e-02  -5.5214082e-01   7.9706068e-01  -3.6387097e-01   6.2327646e-02   8.9983130e-01   7.8625763e-02  -8.2145655e-01   7.0978318e-01  -1.9616131e-01   6.7745674e-01   6.5632946e-01   1.4224436e-01  -9.6343345e-01   3.4222006e-01   9.4064700e-01  -5.3987642e-04  -6.3342559e-01  -8.8051675e-01  -1.0667341e-02  -1.5407099e-01  -5.2721329e-01   2.2933409e-01   6.4858905e-02   9.1002541e-01   2.9939371e-01  -6.1333048e-01  -3.2213158e-02  -4.4084122e-01   6.0044774e-01  -7.2888440e-01   8.0055019e-01  -3.6935283e-01  -1.3514979e-01  -6.2433851e-01  -5.7247994e-01   4.6067761e-01   3.3861250e-01   5.6106173e-01  -4.0055043e-01  -2.8114399e-01  -6.2883425e-01   5.0503153e-01   1.0639879e-02  -5.5336280e-01  -6.2353867e-01  -9.1041928e-01  -4.7144143e-01   3.9864036e-01   7.8210560e-01  -4.5735860e-01  -2.8881433e-01   9.3941211e-01  -4.3649535e-02   5.9355762e-01   6.3159539e-01   2.4770109e-01  -7.5954283e-01   6.2391015e-01   2.0135029e-01   6.6243156e-01  -3.8077776e-01  -8.3869098e-01   1.7647813e-01  -6.9656943e-02  -7.3011128e-01  -5.9412107e-01  -3.7646595e-01   8.0855192e-01   2.7343655e-01   8.4524357e-01   5.1751665e-01   3.8640042e-01   1.7195280e-01  -7.5994860e-01   1.7431928e-01  -3.6240477e-01  -1.8526992e-01   6.5904984e-01   4.4908708e-01  -8.3513537e-02   4.0748797e-01  -3.1328092e-01  -2.3747095e-01  -7.3934040e-01   3.8898575e-01  -5.4454281e-01   5.9102893e-01  -5.3508360e-01   7.4732269e-01  -2.2904658e-01   8.1353548e-01   1.6599779e-01   7.2668843e-01  -9.8945281e-01  -7.7265182e-01   4.2855275e-02  -4.7766691e-01   1.0533662e-01  -2.1608239e-01  -3.4507203e-01  -7.1744174e-01   7.5191834e-01  -9.1056148e-01   9.7785052e-01   5.7999954e-02  -5.7877652e-01   3.7275633e-01  -6.6479418e-02   1.3036815e-01   6.5239172e-01  -1.3718228e-01  -5.8832612e-01   4.3871343e-01  -2.2313913e-01   3.8541446e-01  -8.3382972e-01  -3.8894200e-01   3.7905324e-01  -8.1325140e-03   7.6360933e-01  -4.9643760e-02   5.0772120e-01   6.7372278e-01   1.8454455e-01   2.4980005e-01   2.6499536e-01   5.8078571e-01   9.3771676e-01  -5.7307853e-01  -8.1277376e-01   8.2827677e-01  -2.7817887e-01   9.5077763e-02   9.1624920e-01   7.2896031e-01   4.3812386e-01   9.7207345e-02   1.8412061e-01   7.2647488e-01   6.4062633e-01  -9.0114083e-01  -8.6073914e-02   5.7001027e-01   5.0466603e-01   9.9165093e-01  -5.0995141e-01  -3.1535120e-01  -2.1965639e-01  -7.8398701e-01  -6.5667319e-01  -3.6226303e-01   4.6697068e-01  -5.1236091e-01   5.0271214e-01   6.2211390e-01  -9.7003012e-01   3.4190147e-01  -9.7433834e-01  -6.9423944e-01   4.3177122e-01  -3.9735670e-01  -3.5490928e-01   2.4121430e-01   3.3565004e-01  -6.4580452e-01  -6.0730214e-02  -5.8302937e-01   9.9355458e-01  -5.9084138e-01  -8.5846006e-02   4.4976999e-02  -6.9694465e-01   6.4835952e-01  -1.6928397e-01   3.5004235e-01   4.2083323e-02  -3.2836450e-01   9.5546657e-01  -8.4329573e-02   7.6899752e-01  -6.9144803e-01   3.1180768e-01  -2.2710809e-01   4.1951599e-01   6.4158162e-01  -8.8958421e-01  -2.3603922e-01   7.3596823e-01  -9.5904974e-01  -1.6627472e-02   9.2017968e-01   6.3651113e-01   5.6851200e-01   3.3008399e-01   3.6055502e-01  -8.5997072e-01   8.9542466e-01  -8.7815397e-01   4.0482813e-01   8.7609065e-01   1.4495931e-01  -6.8549135e-01   2.4762238e-01  -6.7991347e-01   3.4095518e-01  -2.0502839e-01   5.4475813e-01   1.3709951e-01  -2.7599738e-01  -9.5956431e-01   4.2385344e-01  -2.8746921e-01   4.7311703e-02   8.5433017e-01  -2.8451150e-01   4.9366427e-01   3.1987866e-01  -6.9083237e-01   5.8251554e-01  -9.0562895e-01   2.9264183e-01   8.1188282e-01  -4.2079815e-01  -2.8653869e-01   3.4366121e-01   7.1819414e-01   4.0866333e-01  -8.1757345e-01   1.6450699e-01   5.6490098e-01   4.4228378e-01  -5.5460999e-01  -8.0086773e-01   5.7669935e-01   2.0723657e-02  -9.2935288e-01   7.0158012e-02   5.6796574e-01   2.9605669e-01   9.5033928e-01  -5.8902000e-01  -8.0115125e-01   9.6598267e-01   3.0814112e-01   3.8246855e-02   2.7470903e-01  -6.4933587e-01  -8.5184457e-01  -4.2877725e-02   5.5575199e-01  -1.3233097e-01  -9.1507850e-01   4.3591864e-01  -3.7491450e-01  -6.7953000e-01   3.9412392e-01  -2.4881557e-01  -9.1618191e-01   6.1355675e-01  -4.6665654e-01   9.7660027e-01  -3.5918111e-02   1.6537306e-01   2.1500279e-01   6.7206305e-01  -5.6499785e-01   8.6322092e-01  -9.1190473e-01  -7.6764178e-01  -8.9956164e-02   8.5258338e-01  -1.5325198e-01   8.4238795e-01   8.6210627e-02  -9.4348868e-01   9.7553223e-01  -4.5502480e-01   3.0961279e-01   1.7705081e-01   2.6891603e-01   3.5662967e-01  -5.1278488e-01  -3.8438819e-01   8.3620340e-01  -2.2144124e-01  -1.5772653e-01   7.5667080e-01   1.4417973e-01   7.0600185e-01   7.5726038e-01   4.2855974e-01  -2.1022206e-01  -5.4354281e-02  -7.7536587e-01  -7.4895248e-01   6.2152106e-01   6.3384619e-01   3.2400561e-01  -1.4335303e-01  -9.9280805e-01  -7.3787191e-01   3.7221074e-01  -2.9802256e-01   3.2985508e-01  -3.3533451e-01   9.0317681e-01  -3.2226999e-01  -6.7711119e-01  -3.9689221e-01  -3.9128103e-01  -2.0785674e-01   5.4476076e-01   9.0792228e-01   7.3133641e-01   4.5703390e-04  -9.1570912e-01  -1.7871592e-01   9.7186474e-01  -9.1808349e-01   8.3263143e-02  -9.6911622e-01   8.6199203e-01  -6.7897562e-01   9.8532611e-01  -6.5110784e-01   5.5003938e-01  -9.6691166e-01   3.8440920e-01  -7.4255806e-02   2.2929786e-01  -4.0854888e-01  -7.2447841e-01  -9.2205597e-01  -1.8469409e-01  -4.0952300e-01  -3.3045498e-01  -2.2223544e-01  -8.5929160e-01   6.4573646e-01  -7.0671858e-01   2.0413608e-01  -8.4678278e-01   6.4887832e-01  -2.3091239e-01   1.0879945e-01   2.0115539e-01   4.2776392e-01  -1.8365908e-01  -9.9708755e-01   5.2525600e-01  -3.9849584e-01   1.6135274e-01  -4.2595492e-01   1.1310459e-01   8.0611004e-01  -5.9032122e-01  -7.4004682e-01   7.9677780e-01  -7.3888339e-01  -6.8909656e-01  -5.2397765e-01   2.3904772e-01   6.2923226e-01  -2.5404167e-01   7.4318889e-01   4.3658660e-01   8.4813334e-01   4.6830917e-01  -1.5197738e-01  -6.7462625e-01   4.2829547e-01   7.9969407e-01  -3.7052647e-01  -9.3153562e-01  -2.5970669e-01   8.1722307e-01   5.9830015e-01   6.9816064e-01   7.5180764e-01  -8.6767547e-01  -8.3681960e-01   2.3967940e-01  -3.9327249e-01  -7.7111368e-01  -1.0756104e-02  -2.7781308e-01  -4.4769584e-01  -1.8715559e-01   2.4476803e-01  -8.5251765e-01  -7.8837012e-01   3.2312164e-02  -2.5053453e-01   3.4732995e-01   6.6659364e-01   5.9019602e-01   5.0469917e-01  -9.3942420e-01   4.8015940e-01  -8.8790006e-01  -7.5793314e-01  -4.7555875e-02  -8.6121352e-01  -3.4780630e-01   1.7990962e-01   3.1279299e-01  -6.6661712e-01  -9.8454280e-01  -6.5196206e-01  -9.7539542e-01   4.7084211e-01   9.1560613e-02  -4.4902979e-01  -7.7317749e-01   3.0042056e-01  -9.9647081e-01  -6.2633143e-01   1.4775407e-01  -3.1473343e-01  -4.3671160e-01   3.4090242e-02   2.3871224e-01  -8.3761497e-01  -4.9416665e-02  -2.6044692e-01   2.8137758e-01  -8.0659546e-01   2.6369844e-01  -8.1614839e-01  -1.4219220e-01  -2.8033708e-01   6.3669810e-01   8.2927063e-01   8.8594082e-01   7.6397097e-01   3.8592099e-01   1.6932563e-01   3.4842628e-01   7.2224937e-01   5.5020023e-01  -3.4596209e-01   5.1374178e-01   5.1723766e-01  -6.1274700e-03   9.9364782e-01   1.0457665e-02  -7.3668236e-02   6.1178981e-02  -6.4426240e-01   1.1786337e-01  -3.9073304e-01   1.9201206e-01   4.8968915e-01   3.1239937e-01  -6.3094550e-01   2.1801481e-01   3.2762746e-01  -5.2758456e-01   2.9713452e-01  -1.1514477e-01  -4.6623105e-01  -9.4259528e-01  -5.7415664e-01   7.4441196e-01   6.4641147e-01  -2.3323245e-01   6.4310297e-01  -3.6778723e-02  -1.5939201e-02  -4.6387059e-01   5.0749863e-01  -9.8774903e-01   4.0546017e-01  -2.2860496e-01  -2.0119914e-01   4.9742089e-01  -7.4929739e-01   5.8461905e-01  -2.5108388e-01  -7.5529930e-01  -1.4316432e-01   9.9459573e-01   2.2007159e-01   7.1918268e-01  -4.0370399e-01   2.3050797e-01  -7.7483981e-01  -8.7615964e-01   5.5582805e-01  -1.3433777e-01  -9.4595616e-01   6.1172212e-01   8.4057725e-02  -4.8839357e-01   7.8377396e-01  -7.7456139e-01  -6.4687019e-01  -5.9111143e-01   1.1376073e-01   8.9640272e-01  -3.0564418e-01  -7.5213205e-01  -5.8137988e-01   9.0974555e-01  -4.5469427e-01   1.6260407e-01  -9.4043236e-01  -1.6597980e-01  -5.0739284e-01   2.5491866e-01   3.7279326e-01   1.1863303e-01   6.7470765e-01   9.2614670e-01   5.5351525e-01   7.4715022e-01   7.8414597e-01   9.1645220e-01   6.7661838e-01   7.3956008e-01  -8.9329321e-01   1.8641971e-01  -3.2056573e-01  -3.0127871e-01   2.8792528e-01   6.6960931e-01  -2.8327164e-01  -1.8546134e-01  -3.6326728e-01   6.8284721e-02  -5.5522145e-01  -7.5304788e-01   2.4118878e-02  -3.9513640e-01   5.5018127e-01  -1.2526810e-01   9.3344910e-01   3.1322624e-01   3.1860976e-01   4.8477806e-01   7.1092832e-01   2.6420335e-01  -9.1937050e-01   6.6624296e-02  -1.2209020e-01   5.6313076e-01  -7.4232801e-01  -8.6489332e-01   3.6704700e-01  -1.1954015e-01   7.8390704e-01  -2.7329991e-01  -6.6418577e-01  -1.0065461e-01   8.1426735e-01  -2.9272558e-01  -3.1759822e-01   2.7243864e-01   5.9914531e-01  -5.4071998e-01   9.8438428e-01  -4.3486484e-01  -2.0102435e-01   6.8312433e-01  -4.4487017e-01  -8.8800842e-01   4.9098261e-01   6.7637307e-01  -3.2125180e-01   4.3904609e-01  -4.3029637e-01  -2.3844853e-01   8.6771798e-01  -9.1668490e-01   1.0919040e-01  -8.6845749e-01  -1.1684743e-01  -7.0083844e-01   6.2283933e-01   2.5131759e-01  -2.3442038e-01   9.8841645e-01  -5.7617715e-01  -9.3924786e-01  -6.9655665e-01  -3.9906005e-01   5.7393838e-01   5.6766047e-01   1.5383417e-01  -9.1322793e-01  -4.2535551e-01   7.3065603e-01  -2.4339022e-01  -8.7723870e-01   5.6444320e-03  -8.1519616e-01   5.6164517e-01  -5.9469169e-01   3.5584196e-02   9.5756151e-02  -5.7690541e-01  -5.8538059e-01  -1.6431186e-01   5.0794362e-02   7.6315212e-01   7.0192556e-01  -2.9362029e-01   4.2480621e-01  -3.4092212e-01  -6.4091587e-01   4.6732059e-01   7.4155445e-01  -3.3733349e-01  -6.6849270e-01   4.8904250e-01   4.1506801e-01   7.9353922e-01   4.6042494e-01  -8.5709801e-01   1.8108692e-01  -8.0787201e-03   7.7052006e-01   8.9126416e-01   6.9967212e-01  -4.5277388e-01  -3.8235545e-01   8.8927712e-01  -1.0953084e-01   1.2463477e-01  -7.1772679e-01   9.6461862e-01  -2.3624978e-01  -1.5924271e-01   2.8644135e-02  -1.7539483e-01  -4.0262710e-01  -3.3348390e-01  -3.4036607e-02   1.0392631e-01  -6.6944032e-03   5.4684369e-01   3.6659855e-01  -4.8719407e-01  -2.5683842e-01   4.9635788e-01   1.4756952e-01   6.0769103e-01   1.7615072e-01   3.5599725e-01  -9.4202381e-01  -2.8955420e-01   7.1566273e-01  -1.1628535e-01  -1.9711629e-01  -6.9914780e-01  -7.7404672e-01   7.3393101e-01  -8.1252446e-01  -6.1325060e-01   3.2675698e-01  -8.8770163e-01   4.7016557e-01  -3.2430432e-02  -5.8621009e-01  -3.5795234e-01  -4.9835679e-01   6.5881242e-01   3.7751785e-01  -4.2467663e-01  -1.3349990e-01   5.3711151e-01   6.0421586e-01   9.9443941e-01  -7.9327449e-01   7.7495210e-01   7.2799940e-01   7.9239980e-01   9.4941316e-01  -4.5495364e-01   5.4336852e-01  -5.3905498e-01   4.9301536e-01  -5.6492894e-01  -8.2817247e-01   2.9677667e-01  -2.8682443e-01  -4.6644571e-01  -2.7347683e-01  -6.1703035e-01  -4.1975091e-01  -7.0891582e-01   8.8829700e-01   6.8861129e-01  -4.8997275e-01  -5.1301297e-01  -2.2876832e-01   4.8807924e-01  -8.6529258e-01  -2.6172187e-01   4.0305333e-01  -1.7066035e-01  -7.2806376e-01   4.3207988e-01  -2.7810203e-01   2.8008624e-01   7.3221256e-01  -9.3901240e-01  -7.3558729e-01  -9.1319958e-01  -3.5705850e-01  -2.0180281e-01  -6.3692918e-01  -6.6448493e-01   8.5397614e-01   2.7016400e-01   8.0357610e-01   4.9820976e-02  -3.2366854e-01  -5.6512226e-01  -2.3994953e-01   9.6691202e-02   3.1232905e-01   5.3537099e-01   3.0854050e-01  -8.7188254e-01   8.1078736e-01   7.9918626e-02   3.2191805e-01   6.0285444e-01  -4.3705668e-01  -8.8287537e-01  -2.8507974e-01   4.5695440e-01   5.5691879e-01   9.6143600e-02  -5.6629501e-01  -1.7286722e-01  -9.0202371e-02   9.6819806e-01   4.2396257e-01   2.5681930e-01  -6.8174254e-01   1.1576733e-03   4.1477756e-01   9.5197040e-01   9.7161218e-01  -2.4908752e-01   1.7859783e-01   9.2012657e-01  -4.2864112e-01  -5.4893363e-01  -8.9649017e-01   6.3263710e-01  -4.2844328e-01  -8.7649816e-01   9.7728884e-01  -9.6633503e-01  -9.4667659e-01   3.4938925e-02   4.8493230e-01  -1.7736204e-01  -1.1299231e-01   4.5755145e-01   2.5048700e-01  -3.2434014e-01  -5.9327516e-01  -5.0527424e-01  -6.2121472e-01   8.1692511e-01  -3.3513811e-01   3.9122170e-01   2.9074761e-01  -4.4799147e-01   2.7496760e-01   9.7412986e-01  -2.0573267e-02  -5.2256750e-01   7.4681607e-02  -3.5199058e-01  -3.9194380e-01   3.2535513e-02   9.1074636e-01  -8.9129236e-01  -8.1748030e-01   9.9205690e-01  -2.0866550e-01  -5.9463649e-01  -6.9898507e-01   3.9317107e-01   2.7086904e-01   1.1285125e-01   3.9225944e-01   6.4046587e-01   6.8508593e-01  -5.6574465e-01  -5.5927851e-02  -8.6583254e-02  -7.4682903e-02   5.8518482e-01  -4.7622477e-01   1.5552367e-01   1.7675625e-01   6.4313726e-01   1.6703379e-01   5.5408677e-01  -9.1992956e-01  -4.3047216e-01  -2.2281390e-01  -8.8528102e-01   9.6740162e-01   5.5271894e-01  -7.0721673e-01
   1.7212349e-01  -8.4378598e-01  -7.5437323e-01   8.5416688e-02   9.6136799e-01  -8.6275463e-01   3.3120274e-01   5.5705582e-01   5.6659481e-01  -5.4579078e-01  -3.0817572e-01   1.5794539e-01   4.3987010e-01  -3.1935618e-01   7.5097523e-01   9.6058141e-01  -9.8011367e-01  -1.8668219e-01   6.9011909e-01   8.1051759e-01  -8.6083365e-01   3.4208431e-01   1.9009112e-01  -5.6301671e-01   7.1401713e-01   4.6983379e-01  -2.9172012e-02   4.4275526e-02  -3.1336459e-01   1.1400801e-01   5.4244196e-01   8.0904525e-01  -7.9713023e-01  -8.3934093e-01   3.1463708e-01  -4.3052334e-01   5.2663993e-01  -7.3692391e-01  -2.6844701e-01   9.1421704e-01   7.9088892e-01  -4.0715044e-01  -3.7514887e-01  -2.9428415e-01  -2.3238704e-01   6.8564968e-01   5.7006461e-01  -5.1964135e-01   8.3309707e-01  -1.3339414e-01   6.2689707e-01   5.1986431e-01   9.4003183e-01  -8.0055271e-02   9.3717209e-01  -7.9919944e-01   9.5926601e-01   1.5957418e-01   5.0110617e-01  -7.5975478e-01   6.7341369e-01  -9.8080256e-01  -9.5038894e-01   9.6061496e-01  -2.3729399e-02   1.9686631e-01   6.9250213e-01   9.9223603e-01   2.3275736e-01  -6.6550679e-03   8.3485497e-01  -6.1797379e-01  -4.5376833e-01  -3.1959847e-01  -9.4235218e-02  -7.9876154e-01   7.2572918e-01  -3.3701194e-01  -2.6162258e-01   4.8943920e-02  -9.1741504e-01   3.6173041e-01  -2.7706304e-01  -6.5610121e-01   9.3381823e-01   8.8217927e-01  -8.6009319e-01  -1.7328951e-01   7.0527577e-02   8.1656070e-01   2.0343196e-02   9.1469423e-01  -2.1922589e-01  -7.3745721e-01  -7.9569695e-01  -4.3563840e-01   5.1095460e-01   5.0608618e-01  -6.4782146e-01   2.2036607e-01   3.4488780e-02  -4.9917493e-01  -5.9451468e-01   6.8428364e-01  -6.0673445e-01   9.1910561e-01  -3.0753355e-01   9.4159436e-01  -4.0818070e-01   1.3988241e-01   1.7016012e-01  -3.3462743e-01   1.7157382e-01  -2.1471853e-01  -1.2011504e-01  -4.6376522e-01  -8.9857981e-01  -2.3496938e-01  -9.1495305e-01   6.5440989e-01  -5.2949002e-01   6.5152943e-01   3.0335644e-01  -6.4507638e-01   7.4998550e-01   5.7404602e-01   7.7790930e-01  -1.2655444e-01   5.4270361e-01   4.5136115e-01   4.2102062e-01  -6.8762455e-01  -6.8798532e-01  -6.3407411e-02   2.8329568e-01   3.9703644e-01  -9.7561713e-01  -4.4269899e-02   8.1075784e-01  -4.8636891e-02   5.5797809e-01  -3.8499286e-01  -2.1767483e-01  -9.2547885e-01   7.2630868e-01  -6.6670676e-02  -7.7674952e-01  -8.0851635e-01   7.0700643e-01  -1.5966443e-01   1.1400498e-01   4.9135394e-01  -4.6089040e-01   4.6668983e-02  -8.4144817e-01   5.2704268e-01   9.8502839e-01   7.1945758e-01   2.8964489e-01  -2.4016091e-01  -7.9733300e-01  -5.8164588e-01   8.4972690e-01  -9.9088447e-01  -5.4816467e-01  -1.2345891e-01  -4.8408867e-01   4.7364867e-02  -3.5754960e-02   9.1637273e-01  -5.4897422e-01   3.9488524e-01   7.3126056e-01  -1.4669020e-01   3.0506856e-01  -3.9784952e-01  -1.9505818e-01  -4.2274251e-01  -6.4895524e-01   8.8731062e-01   7.1999305e-01   9.0669500e-01   2.3544483e-01   5.0184824e-01  -4.7008721e-01  -8.4505219e-01  -1.4050839e-01   8.1986199e-01   4.0364111e-01   5.7499660e-01   4.6356853e-01   8.9262585e-01  -7.6824843e-01  -4.0763820e-01   1.8025667e-01   4.9605133e-01   2.6179216e-01   3.5741770e-01  -4.6537133e-01  -7.0127082e-01   4.4353248e-01   5.8768771e-01   8.9360459e-01   6.3631291e-01   5.6394020e-02   8.8341044e-01   6.3132195e-01  -4.4555204e-01  -8.3404680e-01   1.0966391e-01   5.2229376e-01   3.7398010e-02  -1.0097658e-01  -9.4822314e-01  -9.9961993e-01  -4.3114372e-01  -6.7468612e-01   3.7686075e-01  -1.8626837e-01  -4.1499125e-02   8.5773391e-01  -9.7870442e-01  -3.1498634e-01  -8.3045612e-01   3.2975976e-01   3.0630666e-01   1.5108548e-01  -6.4400930e-01   1.0709328e-01   4.9001963e-01   3.5223354e-01   4.6223689e-01  -2.9488037e-01  -8.9492081e-01   6.2197492e-01   9.4999725e-01  -9.0037518e-01   6.7040171e-01  -9.5425717e-01  -8.3390987e-01   5.6493709e-01   7.3128110e-01   1.6651132e-01   3.6054621e-02  -7.2288077e-01   6.0591362e-01   2.1837560e-01   5.1065857e-01  -9.4074747e-01  -4.0401434e-03  -9.6203808e-01   6.6530503e-01   9.8278389e-01  -5.2601019e-01   9.4187741e-01  -5.5533995e-01   3.0834396e-02   8.7739209e-01  -8.4234381e-01   9.4560777e-01   5.8574471e-01  -4.8964513e-01   1.5188044e-01  -1.6145154e-01  -6.5486676e-02  -7.6306127e-01  -9.6403482e-01   4.8460761e-01  -5.2481478e-01  -4.9870685e-02  -8.2506013e-01   7.6048614e-01   1.5967765e-01  -6.4919093e-01  -9.1180679e-02   5.5941211e-01   1.8812575e-02  -1.6423469e-01  -8.1421777e-02   9.3008200e-01  -4.4406484e-01  -9.6577199e-01  -7.9039015e-02  -8.9889653e-02  -5.9010315e-01  -5.4585452e-01   5.5272872e-01   8.5007982e-01   2.0911585e-01  -8.9003561e-01  -1.1064393e-03   7.5623332e-01  -4.9840990e-01  -8.6694140e-01  -9.5598869e-01  -2.7731458e-01   6.0477038e-01  -3.7234755e-01   1.2418537e-01   5.3627920e-02  -4.7471701e-04   1.3631088e-01  -3.2376658e-01  -4.2674583e-01   4.0290253e-01   1.2708984e-02  -6.8847086e-01  -5.8812811e-01   4.7109996e-01  -7.5665379e-01  -8.3879194e-01  -5.4649147e-01   8.3517464e-01  -1.0770750e-01   1.2787572e-01  -7.7346790e-01  -6.2242978e-01   8.5941060e-01  -6.8300499e-01  -4.9662363e-01  -2.8122699e-02   1.0028847e-01   1.8533904e-01   6.0583888e-01  -6.3520838e-01  -7.0679871e-01   1.5895304e-01  -1.2128069e-01   4.2043989e-01   7.3696357e-01   9.2040494e-02   6.6831200e-01   4.4302386e-01   9.1999805e-01   8.3124609e-02  -3.5466628e-01   9.8596645e-01  -2.6615809e-01   4.7201386e-01  -4.7162149e-01   5.8798776e-01  -8.1472768e-01  -1.0751937e-02   7.4908578e-01  -3.8868010e-01  -3.9318424e-01  -3.2841731e-01   6.4671594e-01  -7.5131503e-01  -2.7925567e-01   6.0110629e-01  -2.7423069e-01   4.9615554e-01  -7.2622355e-01   9.1308617e-01   5.7473035e-01  -6.9451908e-01  -9.3538155e-01   4.8789306e-02   1.0080537e-02  -7.3165644e-01   9.0565770e-01   4.1863121e-01  -9.5777237e-01   2.0891553e-01  -6.7827502e-01   5.0309188e-01  -4.5331967e-01   2.4086571e-01  -8.3414252e-01   1.6105870e-01   1.8726830e-01   9.3014791e-01  -7.7694440e-01  -2.8847074e-01  -8.9516939e-01  -3.7864721e-01  -4.5470411e-01   6.5774088e-02   3.5118218e-01   9.9935774e-01  -4.2966388e-01   8.4252514e-01  -3.7975356e-01   2.2666948e-02  -1.0859363e-01  -1.5351162e-01  -9.2730931e-01   5.4358912e-01   6.1787017e-02   4.8919899e-01   1.1012563e-01   7.9576044e-01   6.2159933e-02  -6.6446705e-01   8.7155183e-01  -5.7690553e-01  -9.6006202e-01   4.5501087e-01  -5.4338290e-01  -3.3528030e-01  -7.2333474e-01   3.7724454e-01  -9.9089334e-01   8.6521316e-01  -6.8270408e-01   7.3864925e-01  -1.7639005e-01  -9.8773164e-03   7.6282719e-01   4.3970535e-01  -8.7736051e-01  -3.3760236e-01   4.6249031e-02   2.7684923e-01   1.9550388e-01   4.7843443e-01   4.3063352e-02   3.8188366e-01   7.0196976e-01  -5.1325871e-01  -3.9707648e-01   2.9809179e-01   1.4735728e-01   5.4733353e-01  -4.5660333e-01  -8.1954973e-01   4.3573121e-01  -6.1796757e-01   8.8363688e-01   6.6370043e-01  -5.9877682e-01  -9.6858604e-01   8.6963068e-02   6.6283756e-01   1.8133424e-02  -5.9745164e-01  -4.5555974e-01  -9.4991000e-01  -6.4338463e-01  -5.6971104e-01   7.6694315e-01   4.0051907e-01   9.3320807e-01  -6.9535230e-01   7.9131196e-02   6.2739112e-01  -5.2885353e-02   4.3161510e-01  -5.2679940e-01  -5.4165640e-01   9.3351447e-01  -3.9910568e-01   6.4691012e-01  -8.7630861e-01  -4.9291122e-01   4.3749136e-01   4.2096613e-01   5.5852596e-01  -5.7215165e-01  -5.1618400e-01  -4.0876752e-01  -8.9904458e-01  -9.9009548e-01   1.9900713e-01   8.7510748e-01  -4.4980672e-01   8.8177853e-01  -7.5902309e-01  -9.5004632e-01   5.5700387e-01  -4.1426765e-01   7.2018206e-04   3.7168039e-01   5.3283266e-02   3.9539569e-01   6.6411047e-01   4.1002796e-03  -3.7646418e-01   5.7890513e-01  -5.5918415e-02   5.0922043e-01  -5.0016929e-01  -9.4104889e-01   7.8163014e-01   1.5960860e-01  -9.2036366e-01  -5.5833123e-01   3.4447169e-01   1.3166276e-01  -2.0817068e-01   6.7567591e-01   2.0966507e-02   4.3323439e-02   7.6887823e-01  -6.8131978e-02  -9.1271815e-02  -1.6879296e-03  -2.8388494e-01  -2.7493487e-01   6.2545810e-01   5.9457679e-01   8.2031889e-01   8.6279910e-01   3.8402066e-01   3.2113661e-01  -7.9568628e-01  -1.9826411e-01   4.5177901e-01   8.3277269e-01  -7.5245601e-01   7.9885964e-02  -1.6940987e-01  -3.5619033e-01  -8.1022930e-01   1.8088347e-01   2.2987820e-01   3.6729424e-02   1.2851001e-01  -5.8453698e-01  -9.2164197e-01  -7.9208372e-01   7.7223683e-01   1.5549908e-01   8.8169916e-01  -6.7335722e-01  -9.6831746e-01  -7.7561463e-01  -4.9362192e-01  -9.7786046e-01   2.4385069e-01  -3.4473780e-01   2.7823427e-01  -9.4369394e-01   8.6951283e-01   9.0498566e-01  -9.2913535e-01   7.9481847e-01   8.8403499e-01  -2.1101216e-01  -8.8357366e-01  -5.6409198e-01   2.6130410e-01  -8.3036411e-01   6.6321457e-01  -6.2843293e-01   8.2617761e-01  -8.1843076e-01  -4.8966879e-01  -8.3388959e-02   4.4347591e-01  -5.9807305e-01   2.8126189e-01  -3.4306965e-01  -5.1080162e-01   9.2851089e-01  -7.9700311e-01   1.3655014e-01   5.8962637e-01  -2.4205986e-01   3.3907998e-01  -2.7745772e-01   1.5520996e-01   5.3191784e-01   4.0277835e-01   3.0572066e-01   8.2636076e-01  -1.6376126e-01  -6.4566963e-01   5.8608355e-01   1.0390998e-01  -5.3935700e-01  -8.7951034e-01   4.8285951e-01   6.4643451e-02  -6.5429534e-01   1.9197059e-01   4.0704799e-01  -7.4299888e-01  -1.4575887e-02   9.7104959e-01   2.1559405e-01   3.2460281e-01   2.7115649e-01  -5.0033976e-01  -8.5544596e-01   2.3308127e-01   9.0302819e-01   4.4763304e-01   2.6227389e-01  -9.4087517e-02  -6.7173744e-01   6.3914383e-01   7.8080049e-01   3.8606254e-01  -8.9095928e-01  -6.0618242e-01   4.8755823e-01  -1.0997143e-01  -5.8248103e-01  -2.4389988e-01  -8.1561519e-01   7.4497591e-01   1.1767845e-01   5.2060166e-01  -6.7255605e-01  -6.8936602e-01   8.2196007e-01   5.6522265e-01  -4.7632785e-01  -3.8126599e-01   3.3739074e-01   1.1673910e-01   9.8718517e-01   2.8407705e-01   9.5865515e-01   4.3997660e-01   3.1024869e-01   7.1041962e-01   1.8817060e-01   8.9171046e-01   1.2809461e-01   2.9002406e-01  -2.7748868e-01   2.7980022e-01   2.6677581e-01   8.7464212e-01   3.4510966e-02  -1.7859103e-01  -8.0886565e-01  -6.6769352e-01  -5.9496320e-01   1.3183914e-01   7.8506522e-01   6.6261188e-01  -5.2377388e-01   8.4161188e-01   9.4861266e-01  -5.7322396e-01   7.6310614e-01  -3.0610877e-01   1.2226070e-01  -7.1910548e-01   5.9937622e-03   6.4699456e-01  -5.4193261e-01   9.8327347e-01  -4.3940394e-02  -3.4900944e-01   5.1428952e-01   2.7165675e-01   8.6109752e-01  -1.1946680e-01   4.9812078e-01  -3.2400600e-01   2.2648959e-01  -4.7561317e-01  -6.1026124e-01  -8.8099086e-01   4.1389204e-01   4.8323659e-03   2.8577137e-01  -3.7175989e-01   3.9154682e-01  -3.7074928e-01  -9.5595632e-01  -9.5261434e-01  -8.9831750e-01  -1.8938102e-01   8.2625718e-01   5.8899520e-01   6.3598902e-01  -8.4805895e-01   9.2069482e-01  -6.3305831e-01   4.2738803e-01   1.0293554e-01   4.2318242e-01   6.4009788e-01  -8.6146346e-01  -7.7696846e-01   3.1853897e-01  -3.3056860e-01  -9.4106535e-01   9.3460466e-01  -2.7925873e-03  -8.3941703e-01  -2.8943826e-01   8.1989656e-01   7.9027862e-01   7.1158891e-01  -4.7408492e-01  -9.4514641e-01   6.0559265e-01   9.6931989e-01   7.2832023e-01   5.8032499e-01   5.6260675e-02  -6.9782155e-01   5.9130881e-01  -9.0872918e-01   6.6080573e-01  -1.9065071e-02   8.6397806e-01  -6.7671310e-01  -6.8395501e-01  -1.5895001e-01  -5.9585173e-01  -7.7432656e-02   3.2477642e-01   3.1842623e-01   3.3247008e-01  -9.4308406e-02   8.6063572e-01   3.3364124e-01  -4.6425146e-01  -4.4503200e-01  -6.2285154e-01  -5.2171800e-01   7.7225696e-01  -6.1094621e-01  -3.6485592e-01  -5.6458648e-01   8.3050964e-01   2.6343775e-01  -6.4373340e-01   5.3689021e-01   3.1418247e-01  -7.1423230e-01  -7.0127982e-01   8.2775207e-01   5.8625869e-01  -2.0024538e-01  -4.5343494e-01   9.9689717e-01  -3.2283679e-01  -3.9924620e-02   5.6910961e-01   8.1618416e-01  -8.3816259e-01  -5.6051228e-01   3.8609860e-02  -4.5781428e-01  -7.0661463e-01  -7.4953165e-01   9.8776863e-01   9.2600753e-01   2.5814799e-01   1.6001523e-01  -4.8625101e-01  -8.7522392e-01   1.7052175e-01   5.7268323e-01   7.0070693e-01  -4.8020015e-01   3.8180562e-01   5.1955759e-01  -6.2016905e-01  -7.7757134e-01  -1.6681416e-01   9.3831989e-01   6.7788323e-01  -4.7732736e-02   4.3513000e-01   8.0693954e-01  -6.2516023e-01  -3.6578727e-01   2.5243645e-03   3.3467613e-01   6.2947485e-01   6.6577044e-01   9.5143177e-01   4.9314505e-01  -4.8443435e-01  -5.0779794e-01  -2.1210274e-01   6.9529445e-01  -4.2020736e-01   5.3435276e-01  -1.6585090e-01  -9.0072667e-01  -2.5627603e-01  -7.5703111e-02  -7.2543534e-01  -4.2602072e-01   9.6258000e-01   2.3958773e-01   2.2977255e-01   4.6849937e-01   4.4799967e-01  -7.1497993e-01   1.7292551e-01   2.1671983e-02  -6.3041612e-01   2.1122236e-01  -6.1829359e-01  -7.1505455e-01  -9.6785984e-01   2.8396664e-03  -7.2004984e-01  -9.6716620e-01  -1.3723654e-01   5.5121245e-01  -7.0574569e-02   8.8943484e-01   8.6597194e-01   6.9020083e-01   9.2414437e-02  -8.2049036e-01   2.8764481e-02   9.1987649e-01  -2.3575500e-01  -5.9547258e-01  -9.2051302e-01  -5.2174922e-01  -1.2416065e-01  -5.7121390e-01  -8.5306584e-01  -6.7933602e-01   5.4512485e-01  -7.1902283e-01  -7.6884492e-01   7.8789711e-01  -2.1456689e-01   7.3322267e-02  -9.5604710e-01  -6.5619222e-01   2.9370591e-01   7.5920642e-01   1.9936816e-01  -5.6667585e-01  -3.0276040e-01   7.3999565e-01   5.6566638e-01  -2.9808892e-01  -8.6125467e-01   2.9372873e-01  -5.5978969e-01  -7.7351829e-01   1.6055575e-01  -7.3517189e-01   8.7860171e-01   6.7611330e-01  -4.9548224e-01   2.7207802e-01   5.0196322e-01  -2.1546724e-01   4.8053975e-01   1.4852650e-01   8.3279138e-01   5.9349757e-01  -8.1285886e-01   3.5324396e-01   2.8353528e-01  -8.8589145e-01  -1.7316345e-01  -5.4041108e-01   4.3479441e-01  -6.2567739e-01   1.2197983e-01  -4.0330514e-01  -1.1136657e-01  -9.5407739e-01   4.3067678e-02  -1.6638726e-01  -5.9483165e-01   1.4179303e-01  -2.0522873e-01   1.6560911e-01  -8.4862174e-01   4.3672680e-01  -3.5973148e-01   7.1781729e-01   7.5838396e-01   2.2436032e-01   8.8356577e-01  -9.8034470e-01   2.1980204e-01  -4.2236721e-01   4.2913754e-01  -7.0638899e-01   3.6942963e-01   8.9575967e-01   9.0981055e-01  -4.6835173e-01   7.9507134e-01   4.8737216e-01  -9.9921974e-01   9.4212318e-01   8.5357333e-01  -6.0002067e-02   7.9975830e-01  -2.1089846e-01  -4.8400281e-01   4.8918148e-01  -8.7098794e-01  -1.6026742e-01  -9.7756421e-01   8.1037956e-01  -4.4493091e-01   4.5363148e-01   4.0437165e-01  -6.6469127e-01   9.4659683e-01   3.4858431e-01  -8.8379670e-01  -1.8543256e-01  -1.4147805e-02   9.0196686e-01  -7.3830681e-01  -8.4912432e-01  -8.8355950e-01  -1.5988552e-01  -6.0735474e-01  -4.8389573e-01  -7.9473159e-01   2.3049719e-01   7.1128247e-01  -1.2508385e-02   9.9463664e-01  -3.9692611e-01  -2.5099618e-02  -3.0131272e-01  -3.6214587e-01  -7.2944900e-01   4.7972411e-01  -6.6952333e-01  -2.3643801e-01   9.5405025e-01  -1.8791289e-01  -3.6795748e-01   1.1572981e-01  -6.5051502e-01  -3.8413205e-02  -1.1351462e-01   5.5526727e-01   3.0518559e-01   5.7459335e-01  -2.0587404e-01  -4.6031950e-01  -2.2023758e-01  -2.5082826e-01  -9.3275672e-01   8.2570948e-01   6.9215136e-01   6.7623214e-01  -8.4950311e-01  -7.7361651e-01   7.7657949e-02  -8.7483482e-01   6.3320366e-01  -6.8678598e-01  -3.1847675e-01   2.7094252e-01   8.2703039e-01   7.2291837e-01   8.9291425e-03  -7.1008641e-01   7.7572854e-01  -5.0257927e-01   6.2552762e-01  -3.3016554e-01   9.0531300e-01   3.1985118e-01   8.7005346e-01   3.7741863e-01  -7.5262535e-02  -4.9652063e-01  -1.5407526e-01  -3.9204278e-01  -5.5543402e-01  -8.7141550e-01   5.6407355e-01  -4.7710572e-01   2.0756786e-01   4.8597879e-01   5.0634656e-01   7.0510786e-02  -1.9584536e-01   4.6361736e-01  -2.9048997e-01  -5.4098620e-02  -1.8710803e-01  -5.7826036e-02  -3.0264482e-02   8.5640456e-01   4.6572497e-01  -5.3478317e-01   4.4492175e-01  -1.7619311e-01   8.3909632e-01   1.2398361e-01   6.6491144e-01  -7.3127030e-01   7.9739627e-01   6.9540572e-01   6.6784000e-01  -6.8783562e-01  -6.9096547e-01  -4.2190141e-01
   3.7948283e-01  -2.0857039e-01  -3.1889696e-01  -4.1697247e-01  -2.5099971e-01  -8.8116415e-01   7.4462014e-01   5.0786623e-01   8.7464557e-01  -2.1449945e-01  -6.1218896e-01  -2.2306102e-01  -2.6675479e-01  -4.6047239e-01  -5.4176322e-01  -8.9586969e-02  -5.1727294e-02  -8.5121671e-01  -7.9050806e-01   2.2252437e-01  -3.0601414e-01  -7.9551135e-01   1.1791891e-01   8.8972984e-01  -5.7087432e-01  -5.5675151e-01   6.2866199e-01   7.0228688e-01   1.6116714e-01   2.1518856e-01   3.3075074e-01  -2.8122048e-01  -6.0975163e-01  -4.8019273e-01   2.3199909e-01  -4.9924202e-02  -5.0433726e-01  -8.4888012e-01  -9.8002041e-01  -9.8712723e-01  -8.2669181e-01  -4.6447820e-02   2.2281747e-01   5.7963718e-01   7.3921676e-01   5.8472686e-01   9.4375919e-01  -8.0750540e-01  -5.8958746e-01   2.6338837e-01   2.2928164e-01   2.4414910e-01   5.8166986e-01  -5.2579454e-01   8.0048388e-01   3.8872601e-02  -5.9444106e-02  -6.4459009e-01   3.5533856e-01  -7.3506579e-01  -3.7573985e-01  -4.3609390e-01  -8.5141652e-01   2.6456925e-01   7.3320266e-01   1.5730749e-01   1.5586088e-01   2.7106611e-01   1.9789872e-01   8.9931024e-01   5.4679990e-01   5.0695633e-01   7.7527810e-01   3.5951201e-01   8.6511675e-01  -3.4885867e-01   2.9491486e-01  -5.7665651e-01  -6.8480753e-01  -4.1588526e-01  -1.9240499e-02   9.7380553e-01   3.7311681e-01  -6.0274690e-01   9.0396569e-01  -8.9381552e-02  -1.4375905e-01  -5.2994970e-01  -9.8949968e-01  -7.2319791e-01  -6.0945774e-01  -6.4722937e-01   5.6192731e-01   6.9746463e-01   9.0854818e-01   6.5910621e-01  -7.5020055e-01  -1.1157019e-01  -4.7551523e-01  -1.4336114e-02  -3.7772634e-01   4.6615224e-01  -5.5874820e-01   3.6502837e-01  -5.6467132e-01   4.0419946e-02  -8.6294176e-01   4.0616814e-01  -9.7523006e-01   9.8193146e-01  -9.5642349e-01  -1.9570059e-01  -9.3516442e-02   3.7401001e-01  -8.2662241e-01   5.0202058e-02   1.0731003e-02   5.9535684e-01   2.2542999e-01   5.0815609e-01   8.7913715e-01  -7.3332437e-01  -6.3082751e-01  -8.9511706e-01  -9.3390783e-01  -9.5867254e-01  -4.9383988e-01   7.7685722e-02  -6.2535048e-01  -1.5035582e-01  -5.6051057e-01  -6.7299945e-01   4.8483671e-01   2.7456130e-01  -6.8000424e-01   2.3034952e-03  -4.4796159e-01   1.4641591e-01  -7.5547475e-01   7.2936560e-01   8.9728842e-01   1.4797059e-01   4.5394562e-01   7.5159650e-01   2.1277216e-01  -1.2181587e-01   8.6517882e-01  -6.2489082e-01   6.8131311e-01  -7.7888580e-01  -1.3282955e-01   2.2557733e-01  -5.4517938e-01   6.1593559e-01  -8.9050707e-01  -1.1373423e-01  -3.5464713e-01   9.0727607e-02   8.3319879e-01   3.9537907e-01  -2.7904032e-01  -2.3793962e-01   2.1313883e-01  -3.4084073e-01  -1.2288971e-01   6.2047203e-01  -2.8059103e-01  -6.6537788e-01   2.5306753e-01   9.4997365e-01  -7.4525314e-01  -4.1487190e-01   2.7878172e-01  -5.2992261e-01   1.2699536e-01  -3.2473814e-01   1.4571817e-01   3.6373306e-01  -6.1193343e-01  -8.7414231e-01  -6.0920964e-02  -1.8161065e-01   3.2327833e-01   1.4932872e-01  -6.5204266e-01   7.6178160e-01  -5.0900009e-01   5.0703125e-01   7.8830198e-01  -8.2571094e-01   6.2532753e-01  -1.7810553e-01  -4.0893144e-01  -3.9806411e-01   6.7034264e-01  -7.3859409e-01   2.6470856e-01   4.0630777e-01   2.0443343e-01   6.6557333e-01  -6.2050778e-01  -7.3147763e-01  -1.8787134e-01   6.1824392e-01   9.3137788e-01  -3.8192563e-01  -7.0859207e-01   2.6295370e-02   6.1448791e-01   4.1515474e-01   8.7779019e-02  -3.6319469e-01   6.3217111e-03   5.7341502e-01   3.8327605e-01   6.0945300e-01  -5.7829703e-01   2.1007453e-01   1.6224639e-01   8.9126884e-01   7.3178867e-01  -6.9278183e-01  -9.8060790e-02  -8.9081641e-01   1.1888422e-01   4.6085475e-01   3.7327483e-01   8.7907165e-01  -3.7213991e-01   3.8140344e-02  -8.2937704e-01   2.9918632e-01   3.2087090e-01  -1.4967606e-01   8.5142515e-02   5.5387287e-01  -6.9003367e-01  -2.5069253e-01   7.9930210e-01   6.6201789e-02  -2.2987933e-01   8.1718594e-01   8.7813501e-02   7.6653016e-01  -3.3632419e-01   9.8923958e-01   9.8394933e-01  -4.5137036e-01  -7.9337421e-01  -7.2110405e-01   7.8551657e-01  -5.7295092e-02  -2.5849833e-02   9.2974459e-02  -1.7619473e-01  -9.8257524e-01  -4.8078714e-01   9.9626288e-01  -6.8988488e-01  -6.5535260e-01  -8.1882078e-01  -8.6651438e-01  -4.5251825e-01   4.7671292e-01  -1.8289012e-01  -2.1480591e-01   8.5119577e-01   3.0843822e-01  -7.4075060e-01  -2.1976638e-01  -2.5616588e-01  -2.7368357e-01   2.5013235e-04   8.1221376e-01  -6.7646066e-01  -6.6408136e-01  -9.3429817e-01   9.0468105e-01  -1.6352861e-01  -5.3037563e-01   9.1430346e-01  -7.0121194e-01   1.7765709e-01   2.5409851e-01   3.0165822e-01   2.3745969e-01   9.6763083e-01  -6.7699419e-01   7.3592935e-01  -6.1377614e-01  -1.1050616e-01  -5.5098078e-01   1.2255491e-01   8.0488666e-01   1.6090644e-01  -7.2118545e-01   9.4338447e-01  -4.4649944e-01  -1.9849319e-01   3.4797060e-01   2.4853724e-01   2.4527294e-01  -6.7516697e-01   9.6719886e-01   8.4643633e-01  -5.1235738e-01  -1.5223057e-02  -2.7350807e-01  -1.8288677e-01  -2.0969876e-01  -5.1219384e-01   9.4208160e-01   8.7976579e-02   7.5931328e-02   2.0517890e-01  -5.3170136e-01   1.0056050e-01  -4.9651703e-01  -7.2848151e-01   6.3113757e-01   1.6664665e-01   2.8451113e-01   9.4925597e-01  -4.0317378e-01   2.8238535e-01   3.6713873e-01   1.4778406e-01   2.8440938e-01   5.2805805e-01  -1.0079594e-01   1.7564265e-01  -9.4185215e-01  -2.3507311e-01   7.4911512e-01  -8.9190753e-01   8.2624794e-01  -1.0516823e-01  -7.8266344e-01   2.7604911e-01   8.6999554e-01  -4.2753812e-01  -4.1948985e-01   8.7659591e-01  -4.3588798e-01   5.3237159e-01  -5.7715736e-01   4.5462563e-01  -2.7182787e-01  -8.6429152e-01   7.7988764e-01   1.9427984e-01  -9.9695478e-01  -8.7039411e-01  -2.9752625e-01  -2.3299790e-01   5.8477000e-01   6.1924480e-01   2.3142975e-02   9.2987006e-01  -8.5097117e-01  -8.2037720e-01  -6.8804493e-01   4.1375412e-01  -9.1001235e-01   6.9289372e-01  -4.6236067e-01  -7.0152141e-01   5.0172100e-01   4.8698392e-01  -7.8478289e-01  -2.3614174e-01   8.1638632e-01   2.4488334e-01  -8.1698057e-01  -3.8446067e-01   6.4224822e-02  -4.9711992e-01   7.8454944e-01   6.0175454e-01  -1.7758997e-01   5.0886756e-01   5.1310072e-01  -7.8196079e-01  -3.9708070e-01  -6.0493587e-01   7.1039857e-01  -2.5949361e-01   7.7504327e-02  -7.2629685e-01   1.0238825e-01  -9.2023860e-01   7.4778285e-01  -1.9072374e-01  -6.5539119e-02  -6.5179732e-01  -7.3347989e-01   7.2833016e-01  -9.4930209e-01  -8.2342172e-01   9.7319941e-01  -9.6737704e-01   6.6354508e-01   7.3227406e-01   1.9881034e-01   4.0454527e-01  -4.7420879e-01   8.2797699e-01   7.1495960e-01   5.4932660e-01  -1.6091989e-01   7.8175108e-02   6.2110493e-01   3.2478926e-01   5.5475905e-01  -1.7655656e-01   8.6717080e-01  -4.2062756e-01   5.3232027e-01  -6.9163652e-01  -4.2364200e-01   4.0771108e-01  -6.6973402e-01   7.9063675e-01   4.9316487e-01   2.8462006e-01   2.2439148e-01   3.7191961e-01   7.1817322e-01   3.0762457e-01  -7.5938406e-01  -6.2254644e-01   6.6736387e-01   8.8980190e-01   8.7317579e-01  -8.2451037e-01   5.6686166e-01   2.0784359e-01   6.3432705e-01   2.9612645e-02   2.0371149e-01   1.9689742e-01   4.9879627e-01  -5.1583449e-01  -4.0361420e-01   5.3488915e-01  -9.4736934e-01   6.2603906e-01   2.2678242e-01  -8.5988873e-01  -6.1878022e-01  -4.9450582e-02   2.5616559e-03   1.3168678e-01  -3.8370472e-01   5.3759583e-02   7.5531815e-01  -5.0289438e-01   4.1574149e-01   6.9548686e-02   9.2753308e-02  -5.1546729e-01  -8.9042009e-02  -7.6822191e-01   5.4961640e-01   7.2352622e-01   2.8592416e-01  -5.3777148e-01   7.4135700e-03  -8.8954396e-01   9.2614760e-01  -9.3323901e-01  -9.4190779e-02   7.4212217e-01  -8.2395984e-01   7.4213322e-01  -5.4520539e-01   1.2776760e-01   8.1366172e-01  -5.1678441e-01  -1.1125135e-01   7.4809756e-01   4.3050062e-01  -1.9446400e-01  -7.1390863e-01  -8.5838182e-01  -3.1144469e-01   5.3638214e-01  -2.6001512e-01   3.9386027e-01   5.0535983e-01   7.2121642e-01   6.5835130e-01  -8.4539381e-01  -9.7650703e-01   1.6795871e-01   5.7636130e-01  -1.2678593e-01   3.7728010e-01  -3.2427131e-01  -7.4544868e-01   9.8338847e-01  -3.4038979e-01   2.1966672e-01  -4.6601706e-01  -6.1711987e-01  -1.6497575e-01  -3.8481742e-03   5.6212756e-01   7.8723343e-01   9.8252834e-02  -1.9049602e-01  -3.9351266e-01   4.8042068e-01   1.7583821e-01   9.9819288e-01   5.0677408e-01   7.8067835e-01  -2.1799012e-02   6.5958885e-02  -5.6037975e-01   6.1998494e-01  -5.6926960e-02  -8.1243764e-01   5.6188116e-01  -2.8150831e-01   5.2149853e-01  -6.0057644e-01  -5.8713639e-01   2.4189601e-01  -1.7905606e-01   7.0482506e-01   5.0421989e-01   6.5172964e-01   2.3552451e-01   3.4725165e-01  -6.6158601e-01  -2.9233671e-01   7.4592248e-01  -1.6679895e-01  -1.7566253e-01   9.6835957e-01  -1.1251155e-01   4.1658197e-01   7.8291324e-01   1.4169809e-02  -9.5385165e-01   4.6041754e-01  -4.3776264e-01   8.8129610e-01  -3.5832716e-01   2.8425911e-01  -4.3363989e-01  -6.4535041e-01   2.8547136e-01  -9.3301373e-01   6.4324310e-01  -8.4783683e-01  -6.6996265e-01   9.4170253e-01  -3.7952461e-02  -5.7874914e-01   6.8560135e-01   4.2174973e-01   9.6019930e-01   6.5663760e-01   4.9560786e-01  -8.7108915e-01  -7.8007716e-01  -6.3815363e-01   3.1600108e-02  -4.6997293e-01  -3.4174097e-01  -9.2924802e-01  -5.6138057e-02  -5.9436282e-01   5.9502528e-01  -8.9616095e-01   3.0443141e-01  -2.5590257e-01   9.6956635e-01   4.9045859e-01   1.4181548e-01   8.9981633e-01  -4.0889271e-01   8.0719865e-01  -5.1741212e-01  -8.4454495e-01   4.5380423e-01  -2.2958099e-01  -2.8227632e-01   6.5275241e-01   9.4943480e-02   7.2290230e-01   3.4126306e-01   3.6852514e-01   2.1522720e-01   9.3496484e-01  -6.1997448e-01  -2.7032310e-02  -7.8443955e-02  -3.8026503e-01  -4.3399554e-01   7.5208628e-01  -6.3999635e-01   7.7933565e-01  -4.6340164e-01  -5.8534391e-01  -6.9912107e-01   8.2373107e-01   3.7784827e-01  -3.9374671e-01   3.3709981e-01  -5.6634431e-01  -2.4635707e-01   4.1214011e-01   6.5853039e-01  -3.0464625e-01  -4.7442457e-01  -3.9586721e-01   1.4771025e-02  -3.0348236e-02  -8.1263629e-01   1.9482114e-01  -9.2983685e-01   9.1206911e-01   9.6628915e-01   7.1647332e-01  -1.7278019e-01   4.2061142e-01  -4.1099301e-01   5.5964763e-01   5.3924888e-01   6.9868273e-01  -7.4276492e-01  -8.7894969e-01  -6.8700599e-01   8.9576027e-01   4.6160932e-01   3.0757008e-01   1.8019440e-01  -3.0308888e-01  -5.8290290e-01   5.3525626e-01  -2.9450271e-01  -9.8566296e-01  -6.1846241e-01  -6.3101179e-01  -9.3110008e-01  -2.6877775e-01   6.4935237e-01  -6.1067659e-01  -9.6427840e-01  -8.6921312e-01  -7.4132377e-01  -7.3066377e-02  -6.0887371e-01  -7.0327189e-01   3.5673009e-01   7.3358482e-01  -7.9211975e-01   5.1670892e-01  -6.7022768e-01  -8.9331377e-01  -6.1305232e-01   4.0517515e-01  -5.1257274e-01  -9.2837353e-01   7.7748972e-01  -7.3386986e-01   2.5859243e-01  -8.5256742e-01   4.8803220e-02   7.4779192e-01   5.4876558e-01   5.7639541e-01  -1.8810913e-01   7.0812384e-01  -4.2130092e-01   4.7882569e-01   1.7528680e-01   9.9024762e-01   5.0721656e-01   6.3801297e-01  -7.1835444e-01   6.5638180e-01   2.2482605e-01   5.4894142e-01  -4.4492099e-01   9.5544520e-01  -4.9074436e-01  -3.0118032e-02  -7.5404769e-01   5.1409186e-01   9.0711969e-01  -9.4877420e-01   4.3228691e-01   4.7630600e-01  -7.3908446e-01   5.0763312e-01  -1.4679229e-01   9.0404634e-01  -9.5590063e-01   2.8637084e-01   6.4967886e-01  -8.8539492e-01  -4.3428228e-01   2.1991946e-01   2.8978022e-01  -8.5731184e-01   4.8836124e-01   3.7031655e-01  -5.4231929e-01   1.1094018e-01  -4.2841707e-01   2.5468611e-01  -5.0573141e-01  -9.2335425e-01   5.6052790e-01   5.6624296e-01   1.7529994e-01   2.4114988e-01  -8.5461490e-01  -5.4526509e-01   9.2045094e-01  -9.5062004e-01   7.8509719e-01   2.9729473e-01  -7.3064974e-01   2.7682790e-01   6.4326870e-01   9.0787487e-01  -6.2837485e-02   2.8039673e-01  -3.1873416e-01   8.3923720e-01   1.8449082e-01   6.9667971e-01   9.1202155e-01   6.4177278e-01  -2.5351229e-01   5.4328277e-01   9.0410185e-01   4.9392434e-01  -5.5266167e-01  -7.9510567e-02   7.7396441e-01  -4.2496802e-01   5.2601169e-01   6.0886400e-02   7.7373232e-01  -4.9581989e-01   4.6692805e-01   9.3741498e-01  -8.1599132e-01   6.2736382e-01  -2.9563371e-01  -3.9814967e-01  -6.9632389e-01   8.1047654e-01  -1.5845524e-01  -6.9730512e-01   7.4519575e-01  -2.1875919e-01   9.6993621e-01  -8.1801595e-01   9.0509752e-01  -9.3353492e-01   9.5514078e-01  -1.1501180e-01   5.9342196e-02  -6.2823872e-01  -8.1891284e-01   8.7992733e-01  -1.1792470e-01   5.9080050e-01   3.8288122e-01   7.8284248e-01  -9.2929181e-01   4.6746926e-01  -9.0041008e-01   1.6640005e-01  -3.1907850e-01  -4.8043185e-01   5.6394300e-01  -8.2382754e-01  -8.8857769e-01   2.9420927e-01  -1.3878447e-01  -9.8540757e-02   9.2877017e-01  -9.2199022e-01  -8.8126764e-03  -3.6327459e-01  -1.8108043e-01  -2.6908438e-01   2.4469479e-01  -2.2120707e-01   7.4810452e-01  -4.7018170e-01   9.3112446e-02  -3.1753439e-01   7.9026817e-01  -7.4866286e-01   9.7542212e-01   8.9473983e-01  -6.0010139e-01   7.7662519e-01   7.5390241e-01  -2.9092278e-01   2.2741238e-01  -5.3696757e-02  -9.6518303e-01  -7.2102344e-02  -6.0957362e-01  -8.9810607e-01   1.4747842e-01   1.4120163e-01  -7.7325945e-01   6.5660939e-02   3.5794880e-01   8.4405585e-02   8.3143873e-01  -2.5323821e-02  -4.1939367e-01   6.3205031e-01   3.2705207e-02   5.2740732e-01  -6.2514485e-01  -6.6765134e-01  -2.8520052e-01   4.0669240e-01   9.2833512e-01  -9.1981831e-01   7.6431933e-01   8.6486228e-01   2.6975780e-01   6.6105105e-01   5.7523962e-01  -3.4815710e-01   9.0799964e-01   5.3268742e-01   6.4226574e-01   1.5476553e-01   1.6654959e-01  -9.2965742e-01  -4.0639807e-01   7.4437012e-01  -5.1753043e-01  -7.8940730e-01  -6.3717649e-03   9.9999426e-01  -3.7373306e-01  -9.0443802e-01  -1.7952051e-01  -9.2455582e-01  -9.3287985e-01  -6.0036628e-01   8.6372218e-01   9.3339775e-01   8.1182630e-02  -2.0674566e-01  -5.0983572e-01   3.7002538e-03   5.9752508e-01   6.5734234e-01   5.3224410e-01   6.4056813e-01  -6.0149373e-01   9.2027590e-01   3.1949403e-01   6.2080274e-01   2.9820266e-01   2.4311763e-01   6.1092362e-01   7.1394653e-01   6.6004003e-01   4.9963036e-01  -6.8840493e-01  -1.0854317e-01   1.5190188e-01   2.2015071e-01  -8.6052175e-02  -3.3133319e-01   1.6532999e-01  -8.1235007e-01   9.4088955e-01  -2.5742427e-01   8.4493067e-01   2.6045850e-01   8.0661574e-01   7.3707446e-01  -1.3039141e-01   9.5958552e-01  -7.7608566e-01   6.8702703e-02   8.9214081e-01   2.0643227e-01  -9.9392364e-01  -5.4171149e-01   9.2575187e-01  -3.2197413e-01  -2.6129863e-01  -1.6407631e-01  -1.4722299e-01   5.4230897e-01   5.5589160e-01   9.3649752e-01   6.7248428e-01   4.3682549e-01   3.2375995e-01  -6.7479263e-01  -2.5299779e-01  -8.6004401e-01   6.2586529e-02  -6.2572323e-01   7.3214374e-01  -5.8967186e-01   1.8751458e-03  -6.5554521e-01  -6.2542646e-01   8.2422755e-01  -3.6548992e-01  -5.3934070e-01  -8.1606157e-02   7.2911431e-01  -9.9761695e-01  -8.3046952e-01  -5.5051962e-02   6.9141032e-01   3.3437515e-01   6.2391345e-02   7.4131807e-01   4.6029055e-01  -6.0638843e-01   6.8054728e-01   6.8794645e-01   5.2728478e-01  -5.3373377e-02  -5.6399803e-01   5.7191947e-01   5.2080845e-01  -9.7505059e-01   7.2630420e-02  -4.3475552e-02   3.5159106e-01   8.1462785e-02  -2.8019505e-01  -6.3109645e-02   8.5938758e-02   2.9860866e-01   4.5108469e-01   4.9641164e-01   6.6048043e-01  -1.7909091e-01   8.2873326e-01   7.7433967e-01  -9.4697929e-01  -9.3480609e-01  -9.8610978e-01   5.0315615e-01  -4.6381361e-01  -8.8172028e-01   9.2949238e-01   8.7967473e-01   1.8575330e-02  -2.7212698e-01   7.7143909e-02   4.5174037e-01  -7.3479520e-01  -4.2047612e-01   4.6002029e-01   4.1496320e-01   5.4898854e-01  -6.5580147e-02  -7.5162577e-01  -7.7412547e-01   3.5421146e-01  -5.5287999e-01  -2.0641225e-01   1.0948239e-01   4.0229009e-01  -8.2623115e-01   9.6665884e-01  -3.5289601e-01   9.5975740e-01   1.2975875e-01  -5.0395944e-02  -1.6051773e-01  -7.6862642e-01   8.1369592e-01   9.6297621e-01  -1.8988778e-01   3.2282835e-02   8.7310815e-01  -3.7322015e-01  -8.6671754e-01   6.1963786e-01   7.3049556e-01   4.9499745e-01   6.3034766e-02
   7.8989946e-01   2.4801350e-02   1.4244193e-01  -7.1969314e-01   1.1406716e-02   5.4567237e-01  -1.5242529e-01  -1.2084393e-01   4.2943440e-01  -7.6595830e-01  -6.4621193e-01   3.1483622e-01   6.4681103e-01  -7.8674530e-01   4.5741043e-01   3.8028868e-01   4.5172511e-01   8.7031253e-01  -7.6992369e-01  -6.6810347e-01   4.7986439e-01  -2.3154241e-01  -7.6999616e-01  -2.8710828e-01  -6.8968505e-01   8.6930358e-01   9.2980608e-01   5.0266941e-01  -1.2668734e-01  -5.4254109e-01   2.7222962e-01  -3.0398981e-01   8.4752460e-01  -3.9883017e-02  -1.8356135e-01   9.0574156e-01   6.3312333e-01  -2.5041829e-01  -4.1601316e-01  -4.6633012e-01   4.2748410e-01   7.7456605e-01  -5.3879489e-01   6.9056676e-01   7.0574282e-01  -7.6254870e-01  -1.4142581e-01  -1.1506129e-01  -5.1648681e-01   6.3150650e-01   5.9289647e-01   6.2721759e-01   4.2593286e-01  -7.4686946e-01  -3.6044815e-01   5.3002392e-01   3.1105329e-02  -1.6620082e-01  -6.5318383e-01  -5.2549421e-02   6.8983873e-01  -1.2335549e-01  -8.4328157e-01   2.8778540e-01  -9.2721832e-01   4.5268587e-01   3.2381546e-01   8.1272531e-01  -8.7786433e-01   8.7573411e-01  -4.8433539e-01   5.2231398e-01   5.6836916e-02  -8.9638306e-01  -7.1265481e-01   6.6257607e-01   2.7578043e-01  -3.2586141e-01   6.2776452e-01   1.0123812e-01  -6.7685463e-01   2.9909724e-01  -1.8363492e-01   3.5789534e-01  -3.4207428e-01   1.6828911e-01  -7.3452614e-01  -5.4457635e-01   7.3352716e-01  -4.0875231e-01  -2.2032447e-01   4.0513322e-01   5.6681830e-01   6.4048627e-01  -9.7812688e-01   3.2789925e-02  -4.3276468e-01   9.6483849e-01  -4.0082023e-01  -2.7468374e-01  -4.6866271e-01  -4.8865370e-02  -5.5832598e-01  -4.8575558e-01   3.0985983e-01  -1.3016259e-01  -5.6472835e-01   4.6167107e-03  -3.1092640e-01   2.1111841e-01   6.1983250e-01  -3.5584868e-01   9.4341102e-01   8.8691124e-02   8.3599179e-01   1.5618816e-02  -6.2740459e-01   4.9151082e-02   7.8380808e-01  -6.4549272e-01  -8.9645402e-01  -7.7722745e-01   9.1592192e-01   3.7279788e-01  -9.0525955e-01   9.3550220e-01   8.5919573e-01  -8.1922438e-01  -9.1772267e-01  -4.0033307e-01  -2.7851691e-01   2.1922740e-01   8.7105076e-01  -4.7749175e-01  -9.1655616e-01  -6.3236462e-01  -3.8282233e-01   8.0604436e-01  -1.9341902e-01  -3.9499575e-01  -7.8536368e-01  -5.2533551e-01   6.1852565e-01   4.3847622e-01   4.7080542e-01   6.4370389e-01  -2.4456425e-01   1.8700611e-01  -9.1454645e-01  -7.5788094e-01   3.0121029e-01  -8.7674143e-01  -9.2239287e-01   5.5608842e-01  -2.3401178e-01  -4.8093961e-01  -5.8219214e-01  -2.2437745e-01  -4.5887599e-01   8.2517720e-01   5.9715953e-01   1.4561466e-01   8.9711037e-01  -4.0828382e-01  -4.7779089e-01  -9.7086187e-01  -3.1397713e-01   2.3551456e-01   2.1797058e-01   5.0573528e-01   7.6447280e-02  -9.2858986e-01   7.5857488e-03   9.2117071e-01   1.2650707e-01  -5.9472908e-01  -5.5112176e-01  -4.2025041e-01   5.5328413e-01   8.5718160e-01  -6.6807528e-01  -3.9409130e-01   9.9719317e-01  -3.6968237e-01   9.4182134e-01  -6.6247748e-01   8.1666207e-01  -1.9317748e-01   2.0720961e-01   3.7314442e-01  -1.1968875e-01   7.5630183e-01   3.3620375e-01   8.6349232e-01  -7.9710396e-01   3.2982071e-01  -8.8571775e-01   4.8352036e-01  -1.9946206e-01  -7.7089854e-01  -1.1908399e-01  -3.3533456e-01  -2.1403207e-01   3.3068666e-01  -1.8399604e-01  -9.3705512e-01   8.5244226e-01   7.5221042e-01  -8.3192105e-01  -3.5882382e-01   3.2944743e-01   8.2235748e-01   1.1531889e-01   9.8168298e-01  -7.8848720e-01  -5.9411403e-01  -5.6942118e-01   6.7891322e-01   4.1976996e-01   9.3323596e-01   5.7555191e-01  -3.5333179e-01  -8.2819839e-01   9.2693083e-01   3.8274898e-01  -3.7065154e-01  -4.9513812e-01  -1.7400887e-01  -7.4237769e-01   6.8217210e-01  -8.6295829e-01   8.3041263e-01  -7.6870523e-01   5.2247156e-01  -3.4696224e-01   3.3270199e-01  -4.2996524e-01   1.4964986e-01  -7.6242555e-01  -7.4848438e-01  -9.8236718e-02   1.6089948e-01   1.8191995e-01   4.3936950e-02   4.8693413e-01   8.1844296e-03  -3.3281909e-01  -9.5709373e-01  -5.1799613e-01   5.5835763e-01   5.5182361e-01   2.8358825e-01  -6.6463931e-01   8.9317024e-01   1.9678450e-01   2.3121720e-01   8.6997011e-01  -8.2812237e-01   1.0489439e-01  -5.3343714e-01   7.9233906e-01  -5.9803678e-01  -1.3693662e-02  -9.2053336e-01  -1.2234008e-01   2.2472324e-01   4.5223428e-01   1.0307339e-01   7.0380698e-01   4.3086868e-01  -5.8817336e-01  -1.2584601e-01   1.8644377e-01  -2.0919031e-01   9.0061380e-01  -3.0772678e-02   6.5991690e-02   9.2347571e-01   7.9435566e-01  -6.0471482e-01  -2.2924831e-01  -9.6445153e-01  -5.2440309e-01  -4.1453529e-01  -9.5045708e-01   6.5875720e-01  -5.7453366e-01   6.8992855e-01   2.1694283e-01   3.0374940e-02   4.0143806e-01  -6.9175388e-01   8.0570719e-01  -5.3031468e-01   5.1389255e-01   9.9989691e-01  -1.9647614e-01   3.9185837e-01  -2.9530750e-01   3.1467846e-01  -2.0495206e-01   7.5055049e-01  -6.7812215e-01   7.6182947e-02   3.4713113e-01   6.0427899e-01  -3.0523424e-01   5.7129227e-01   7.6411237e-01   5.6416361e-01   4.5866591e-01   3.9842278e-01  -7.6452937e-01  -1.6224913e-01  -6.6638750e-01  -3.6836957e-01  -9.6676880e-01   1.3751329e-01  -6.8826613e-02  -8.0655591e-01  -8.0223020e-01  -4.7827303e-01  -1.6612093e-01   7.0976972e-03  -1.7792881e-01  -5.9138033e-02   9.4742229e-01  -7.7026815e-01  -2.3866958e-01   7.9919322e-01   8.7225564e-01   6.9646709e-01   4.7278818e-01   4.6118148e-01  -2.5857482e-01   2.0412762e-01   3.1581061e-01   7.8424741e-01  -6.7887525e-01   6.7639299e-01  -4.5013406e-01  -9.6328375e-01   7.0628914e-01   3.7029212e-01  -4.3657211e-01  -9.4195091e-01   4.3390281e-02  -1.0229735e-01   6.5482975e-02   5.1500514e-03   3.8075586e-02  -3.0125222e-01   4.4326086e-01   7.9763625e-01  -2.6030756e-01   4.0073739e-01   7.0939237e-01   8.6935903e-01  -4.2019472e-01   5.6400705e-01   3.3893635e-01  -5.5770932e-01   9.1760915e-03  -2.6809296e-01   3.0423362e-01  -5.4554653e-01   5.3927432e-01   3.6383356e-01  -4.7643562e-01   6.7887457e-02   4.6520828e-01  -7.5461650e-01  -8.4039408e-01  -8.5125114e-01   8.5638420e-02  -8.5228889e-01   8.3253571e-01  -3.3925655e-01  -4.9032925e-01  -8.1811792e-02   5.3009576e-01  -5.3499829e-01  -9.1916177e-01  -9.1434944e-01   1.3740420e-01   7.5990294e-01   7.2375444e-01  -8.3743782e-01  -3.5825839e-02   1.5776014e-01  -3.9408478e-01   8.9633423e-01   6.1259486e-01  -3.0550091e-01  -2.4098876e-01   4.9942228e-02   9.8598284e-01  -6.0995128e-01  -4.9895656e-01  -2.2365268e-01   1.2351346e-01  -1.8052741e-01  -7.4020809e-01   1.3378611e-01  -3.2974233e-01   3.3390611e-01   8.1481150e-01   4.6379685e-01  -4.1677208e-01   1.7242066e-01   6.2357698e-01  -3.0246384e-02   8.8605281e-01  -4.3126658e-01  -9.7370364e-01   3.0882348e-01   9.1930142e-01  -9.6435163e-01  -7.7145635e-01   2.0543064e-01  -7.9028761e-01   6.2226251e-01  -7.4920288e-01  -9.1520255e-01  -8.5594109e-01  -2.7683050e-01  -7.1957205e-01   2.5153236e-02   2.0335009e-01   8.0161272e-01  -5.3608296e-02  -9.0391786e-02  -9.6108358e-01  -9.9252645e-01   7.2118563e-01   9.4238281e-02   4.8951005e-01   8.2382147e-01  -8.7974543e-01  -1.3503868e-01   9.7398822e-02  -8.6549555e-01  -8.6541884e-01  -3.1881710e-01  -4.7960057e-01  -5.9980063e-01  -9.1686553e-01   4.8106844e-01   4.7283179e-01   8.6834614e-01   9.0218986e-01   4.4905956e-01  -8.8941201e-01   6.8622288e-01  -1.4076029e-01  -3.5945436e-01  -5.2503758e-01  -7.9610616e-01   6.8693883e-01  -9.3913362e-01   7.2797595e-01   7.6768123e-01  -9.0948020e-01  -8.0702146e-01   7.5795424e-01  -6.1806074e-01  -8.7668221e-01   4.3992291e-01  -2.8096312e-01  -7.7944603e-01   7.0685003e-01   4.6079722e-02  -5.1785617e-01   2.5176320e-01   2.0610562e-01  -9.0065758e-01   9.8161886e-01   9.0870297e-01  -6.4777732e-01   3.0416846e-01   1.1649305e-01   1.5286207e-01  -3.1739496e-01  -8.3601603e-01   4.8820264e-01   2.9979864e-01  -6.5069276e-02  -9.4044320e-01   3.8455268e-01   2.7986916e-01   6.9167898e-01  -1.0507271e-01  -5.6354661e-01   7.4957753e-01  -8.3440845e-01  -7.8160651e-01   8.4617436e-01   1.6818271e-01   8.4978141e-01   5.3027675e-01  -7.1207945e-01  -4.1150492e-01   2.8864335e-01   9.8112073e-01   5.1030580e-01   6.9097780e-01   5.3317701e-02  -1.2414729e-01   6.7761591e-01   4.0121380e-01   8.8104059e-01   8.8020417e-01  -8.5537334e-01   1.7304154e-01  -4.9246972e-01   6.1484611e-01   3.5534595e-01  -6.1318498e-01   4.7052527e-01   3.4823896e-01   6.5415421e-01   1.9011946e-01   9.4350659e-01  -5.7054021e-01  -2.3280496e-01  -9.0898793e-01   4.9526959e-01  -4.5511286e-02  -9.3014146e-01   5.6466391e-01   4.6469037e-01  -1.0528120e-01   9.9659214e-01   2.6805824e-01  -7.6321330e-01  -9.3751575e-02  -4.7702274e-01  -1.3723201e-01  -8.0435559e-01  -3.0092159e-01   1.8566638e-01  -4.6796980e-02  -4.3310611e-01   4.4636162e-01  -1.7003295e-01  -7.4778569e-02  -2.8249913e-01  -1.1129696e-01  -3.8084715e-01  -3.0074916e-01  -2.6868286e-01  -4.0885797e-01  -3.1761258e-01  -4.8993036e-01  -2.8172761e-01  -8.6039199e-02   2.5019648e-01  -8.9289251e-01  -7.8728381e-01  -7.3159816e-01  -8.8964499e-01   1.0791575e-01  -3.2337777e-01  -5.2301094e-01  -7.9059480e-01   9.5696268e-01   1.7790778e-01  -2.1928906e-01  -2.6915779e-01   6.2054403e-01  -4.3485576e-01  -5.0979204e-01  -3.2439959e-01   4.9721538e-01  -4.2971116e-01  -5.5951600e-01   3.0729825e-01  -8.6222231e-01   1.7471049e-01   5.6881097e-01  -5.4717930e-01   4.9332724e-01   5.3328747e-01   3.0219220e-01  -7.2979720e-01   8.4296627e-01  -9.8060276e-01   6.5993409e-01   1.2735026e-01   9.9211289e-01   3.6785687e-01   9.2064410e-01   4.4669231e-01  -1.5340730e-01   6.8035740e-01   7.3008576e-01  -7.5552892e-01   5.5402672e-01  -7.2197271e-01   4.2840224e-02  -1.2240955e-01  -5.9474769e-02  -5.2376242e-02  -1.1615645e-01   6.5155497e-01  -9.8299224e-01   9.0456417e-02  -7.7972511e-01   8.7809808e-01  -3.0389564e-02   9.9959821e-01  -5.9779692e-01   9.1762036e-01   4.3709588e-01  -5.9068270e-01  -7.3702962e-01   5.3204121e-01   3.6270570e-01   2.1441505e-02   8.3106131e-01  -1.5963425e-02  -2.9053062e-01  -9.3116923e-01  -3.0721089e-01   3.9538815e-01   6.1153218e-01  -8.2827925e-01  -1.8095700e-01  -9.9833149e-02  -3.6806513e-01  -3.0945787e-01  -1.3739473e-01   5.1148253e-01   9.1284978e-01   6.5867712e-01   4.1678606e-01  -8.4470718e-01   6.6598547e-01  -6.0282999e-01  -4.5943212e-02   7.6219027e-01  -1.4537611e-01   3.4570742e-01   3.0522912e-01   2.1489552e-01  -2.5103040e-01  -2.3713770e-01  -7.4358631e-02   1.3801241e-01   5.4224708e-01   6.7562208e-01  -9.8350311e-01   5.0039522e-01   9.8344006e-02   7.8408505e-01  -3.4473036e-02   8.4137052e-01  -7.3720492e-01   8.7892257e-01   5.4748820e-01   9.1125285e-01  -9.4627208e-01   4.3289315e-01   3.8713240e-01  -2.7441060e-01  -6.6517441e-01   9.4640410e-01  -6.9766245e-01   7.1923531e-01  -9.5210503e-01  -1.2671384e-01   2.0852840e-01  -9.7079891e-01  -7.2781795e-01  -2.5741656e-01   2.7128225e-01  -3.7006294e-01  -6.7234297e-01   7.4366065e-01  -5.8167607e-01   7.2007488e-02   4.1812059e-01  -4.8825991e-01   8.8866233e-01   7.1954061e-02   7.6766878e-01  -1.3752906e-01  -6.6977844e-01  -6.6417664e-01   1.0139683e-01   6.5469756e-01   9.7111110e-01  -3.9177721e-01  -2.6201361e-02  -9.0127409e-01   4.4582698e-02   5.1814521e-02  -4.9643021e-01   8.9835164e-01   2.6791524e-01   2.1068650e-01  -7.2629587e-01  -9.6399450e-01   6.7053668e-01   8.5163899e-01   8.0340932e-01  -6.5389645e-01  -8.5566274e-01  -8.2983925e-01   4.6167461e-01   4.9779895e-01   9.0830703e-01   4.8909836e-01  -9.7281100e-01   1.9809261e-01  -2.4283034e-01   2.3350937e-01  -2.9890621e-01  -5.0581254e-01   7.5612839e-01  -9.9088403e-01   1.2236263e-01  -1.1281781e-01  -6.0390983e-02  -2.2339990e-01   2.1296166e-01   2.1345742e-01   1.6647419e-01  -5.4110506e-01   5.9729927e-01  -9.1708674e-01   3.9268028e-01  -3.9937090e-01   5.1340796e-01  -4.8415636e-01  -1.7185167e-01   5.2002018e-01  -1.7425585e-01  -5.0028865e-01   5.7582831e-01  -4.7855284e-01  -2.6919649e-02   1.8321794e-01  -4.8842549e-01   1.5610932e-01  -1.8292491e-01  -1.9542145e-01  -3.5160624e-01   2.1564784e-01   3.9561917e-01  -2.7318785e-01  -9.5023955e-01   8.3362808e-01  -2.1735438e-01   6.0234659e-01  -3.3440755e-01  -7.5250388e-02   7.1188298e-01  -2.5128823e-02   8.1401318e-01   3.0795786e-02   4.8052978e-01  -4.3964647e-01   2.8086977e-01   9.6319191e-01  -7.2810769e-01   7.7737464e-01  -9.8917816e-01  -7.5541433e-01  -4.0500173e-01   5.2550675e-01   4.1237003e-01  -2.4599935e-01  -1.8225505e-01   1.2488726e-01   7.8885842e-01   3.5048339e-01  -1.0433738e-01  -8.9765666e-01  -8.2470037e-01   1.7245653e-01   1.7982403e-01   6.5705157e-01   4.9808441e-01   6.6746496e-01  -8.2083359e-01  -8.0480010e-01   5.6071653e-01  -2.1741722e-02  -7.2986094e-01   5.8171864e-01  -8.6503874e-01   8.5366777e-01  -5.9857315e-01  -7.5468619e-01   5.8109622e-01  -1.0049331e-01   1.8670484e-01  -8.4517500e-01  -3.0411803e-02   4.3816453e-01   6.5299088e-01   9.3684897e-01   6.3696458e-01   5.9657249e-01  -3.1903357e-02  -2.8139303e-01   1.3145133e-01   2.5690760e-01   6.6876322e-01  -4.5968702e-01  -7.4494495e-01  -9.4056743e-01   4.4408757e-01   2.0964233e-01   9.4134258e-01   8.1213552e-01   9.0480541e-01  -3.7035118e-01   8.2316038e-01   7.6154610e-01  -1.5291394e-02  -6.3814641e-01   5.8908673e-01   5.8736804e-02  -4.8790705e-02  -5.8807422e-01  -5.5820325e-01   3.3347814e-01  -8.9399117e-01   7.5219890e-01  -1.0056383e-01   4.4974259e-01  -7.9825098e-01  -6.3340457e-01  -1.0593137e-01  -8.0297087e-01   2.3663279e-01   3.4983836e-01   7.7485436e-01   3.9494329e-01  -1.8268621e-01  -7.5497249e-01  -3.1904394e-01  -7.9306440e-01   2.1326612e-01   6.9206836e-01  -3.4602904e-01   6.5652778e-01  -2.7605867e-01   1.7952825e-01   4.9579888e-01   9.4237781e-01  -7.4536223e-02   1.2273855e-01  -5.4009082e-01   8.0380028e-01   5.0674561e-01   6.9240371e-01  -3.8434535e-01   2.0410403e-01   5.8223959e-01   4.3274764e-01  -2.4887093e-01   6.0090416e-01  -7.5264632e-01   4.7903900e-03   2.2884423e-01  -6.2458181e-01   4.1382199e-01  -1.6582169e-01  -2.6981730e-01   4.8361777e-02  -9.9863182e-01   4.7410781e-01   3.4145086e-01   2.5151202e-01   2.3187612e-01   9.7577895e-01  -9.2786342e-01   5.9156123e-01   2.2710275e-01  -2.0984703e-01   1.9368769e-01  -6.8248304e-01  -7.7920619e-01   5.7597633e-01  -3.3688980e-01   5.8142766e-02   8.4650700e-01  -9.9907404e-01   7.5955563e-01   8.2054657e-01   2.2287561e-01   5.1677869e-01  -4.3427351e-02  -5.3311242e-01   6.9754662e-01  -9.2217799e-01  -5.3717941e-01   1.2183531e-01   6.2072086e-01  -8.9055264e-02  -8.8345184e-01  -5.6196901e-03  -2.7904661e-01  -3.5077362e-01  -4.8902494e-01   8.1347669e-01  -5.7659695e-01   7.9199059e-02   5.3081618e-01  -9.2723571e-01   6.3463243e-01  -5.1893548e-01   9.5162646e-01  -5.9233641e-01  -6.6894550e-02  -4.6369279e-01  -1.5660318e-01   4.3995969e-01  -7.5833070e-01  -7.4283602e-01   4.1133959e-01  -1.8824812e-01  -5.8194021e-01  -3.0541300e-01   6.4643039e-01   2.6851594e-01   2.6286510e-01   9.4483345e-01  -6.2672790e-01  -5.8640839e-01   5.7737236e-01   5.4631439e-01  -3.1840412e-01  -2.2042956e-01  -1.2025636e-01   2.6954543e-01   4.0040292e-01   2.1258286e-01   1.5307137e-01  -9.9695543e-01  -4.2313060e-02   9.3193852e-01   8.6526197e-01  -9.2240054e-01   1.9181141e-01  -2.9282187e-02  -9.7236676e-01  -2.6390527e-01   1.1004204e-01   2.2602167e-01  -7.1748073e-01   6.3077655e-01  -5.4926597e-01   8.2657634e-01   6.7295022e-01  -4.8765411e-01   8.4081927e-01   6.3394805e-01   5.4725754e-03  -3.4746217e-01   5.9182716e-01  -2.7437624e-01   7.5049428e-01   6.0841794e-01   2.8666917e-01   6.8535718e-01  -6.1575139e-01  -3.2062056e-01  -5.2621229e-04   5.6039150e-01  -9.4408510e-01  -4.6581851e-01   8.9609646e-01  -1.3290822e-01   4.8888112e-01  -9.4339574e-02  -9.5489331e-01  -5.4283231e-01   1.8828919e-01  -1.6933109e-01  -4.7579384e-01   9.2071483e-01  -3.2977187e-01  -9.9801590e-01   3.9531293e-01   9.2965542e-01  -7.3135254e-01   8.9045501e-01  -3.3453068e-01   9.8055843e-01   7.2502054e-01  -7.5908543e-01   3.5389380e-01  -3.4129071e-01   1.6550661e-01   7.1356568e-01  -4.0880255e-01
