   2.1766815e-01  -4.3643106e-01   5.0478857e-01   1.7247956e-01  -2.2447874e-01  -8.3108031e-01   5.4648210e-01   7.0675048e-01  -9.0874634e-01  -4.7769653e-02  -7.4015630e-01   1.1600764e-01  -1.9432973e-01   4.7285010e-01   3.4284654e-01  -7.1831496e-01  -4.8734758e-01   7.4807019e-01  -6.8779953e-01  -8.4603141e-01  -6.0603297e-03   5.4215752e-01  -4.7598684e-01  -6.4710486e-01  -8.0342021e-01  -6.4548878e-01   2.8116990e-01  -8.3438242e-02   8.9110179e-01  -5.6543173e-01  -2.6130187e-01   4.0210073e-01  -9.8013518e-01  -1.9739091e-01   9.7282472e-02   4.7490360e-01  -1.5397147e-01   3.2504997e-02  -6.5136261e-02  -9.5947751e-01   5.5484407e-01  -1.2218801e-01  -5.1752399e-02   4.6545485e-01  -7.9211784e-01  -9.5189192e-01  -1.1170419e-01   9.3227936e-01   8.8374271e-01   7.2396902e-01  -1.2929341e-01  -1.1104462e-01   1.4077253e-01   7.0252939e-01   8.2674915e-01  -8.0907639e-01   8.1180237e-01   1.5689238e-01  -5.7508113e-02   2.3435928e-02   9.0528836e-01  -5.5953394e-01  -5.3079920e-01  -8.4670279e-02  -7.5573729e-01  -9.0329283e-01   9.6012412e-01  -7.2090204e-01   1.6833234e-02   8.8712032e-01  -7.9940543e-01   3.3279169e-01  -4.6091386e-01  -5.4584892e-01  -2.2948437e-01  -3.4519523e-01   6.9872136e-02   5.0623514e-01   9.3598458e-01   5.7891430e-01  -5.5931373e-01   5.9366647e-01   3.3683315e-01  -3.6309192e-02   1.4470155e-01  -3.4778569e-01  -2.0324392e-01  -6.9404091e-01   9.7282031e-01  -1.7495970e-01   2.6299343e-01  -4.9802048e-01   7.3235744e-01   3.8114166e-01   3.4662359e-01  -7.0244948e-01   6.5764779e-01   6.6157417e-01   8.0307103e-01  -8.4789655e-01  -7.3425775e-01   4.8602097e-01   8.6102399e-01   9.0034947e-01   2.7815931e-01   8.1832028e-01  -1.2305233e-01  -1.7975826e-01   1.5818246e-02   8.6579388e-01   3.2027913e-01  -8.7819193e-01   6.5175961e-01  -9.3182951e-01   6.9173156e-01  -8.4366170e-01   7.6379487e-01  -7.0138548e-01   7.8182469e-01  -4.5630281e-01   1.1262860e-01  -9.9119613e-01   1.7046602e-01   8.7084102e-01  -9.5557127e-01  -9.6495191e-01   6.2080256e-01  -6.1111301e-01   2.2197650e-01   5.7035976e-01   4.9257733e-01   9.8929301e-01  -4.6957645e-01  -5.4189262e-01  -2.3553722e-01  -7.6222561e-01   3.2263193e-01  -4.1506817e-01  -2.7099470e-01  -5.8580551e-01   2.9725916e-01  -8.3152990e-01   4.7505221e-01   4.0956583e-02  -8.3504720e-01  -5.7862698e-01   7.4948536e-01  -4.9551473e-01  -2.9626266e-01  -7.6344624e-01   8.5570798e-01  -8.5003082e-01   6.3838903e-02  -5.9882390e-01  -4.0399331e-01   8.7101966e-01   9.7676933e-01  -3.4287839e-01   8.9021341e-01  -1.7747609e-01   8.9863122e-01  -2.8617623e-01   2.2049967e-01   4.3851535e-01  -2.4177538e-01   6.8365492e-01  -1.1815737e-01   4.9796907e-01   7.7913266e-02  -1.7035701e-01  -1.2534276e-02  -3.1012922e-01  -8.0935169e-01   5.0055147e-01  -8.2543256e-01   6.0849694e-01  -3.1595862e-01  -6.8619946e-01   3.3669949e-01   4.1059090e-01   5.6567547e-01   4.7279335e-01  -3.7479304e-01  -6.7929736e-01   4.5526217e-01  -5.4203420e-01  -7.7829207e-01  -5.9567415e-01  -9.0967661e-01   3.1189733e-01  -3.9776620e-01  -3.3215473e-02  -1.4631045e-01   3.3669011e-01  -4.5477057e-01  -6.8249553e-02   1.3557534e-01   4.2402713e-01  -5.0251746e-01  -9.7452574e-01   4.8843650e-01  -4.5942300e-01  -1.7762015e-01   6.9319811e-01  -5.7254683e-01  -5.7918946e-01  -4.9129163e-02   4.1672980e-01   8.0845672e-01   7.4968496e-01  -7.7411665e-01   8.1711019e-03  -6.7685323e-01  -4.3582762e-01  -3.3091944e-01   3.9105561e-01  -1.9280554e-01  -2.4579283e-01  -9.2156158e-01   5.9396401e-01   1.3104209e-01  -3.3775451e-01  -6.4768291e-01   8.2220149e-01  -4.0818760e-01  -4.7716685e-01  -6.3485331e-02   3.6831678e-01   5.3513569e-01  -4.6666748e-01   2.8797751e-02   2.1290082e-01  -8.8917586e-01  -3.6136490e-01   9.0294583e-01   7.2769024e-01  -8.3709351e-01  -2.2340780e-01   2.8676553e-01  -2.3035188e-01  -4.3850523e-01   8.7441181e-01   3.5023155e-01  -3.6757213e-01  -3.3258902e-01  -5.3631097e-01  -4.6213802e-01   8.8392266e-02  -3.0670607e-01  -8.3184368e-01   2.8468840e-01  -8.1163027e-01   9.9903854e-01  -9.0759609e-01   6.7718798e-01   3.7712654e-01  -3.4263153e-01   8.5574363e-01  -4.9759893e-01  -1.3823867e-02   1.0449668e-01  -2.8487439e-03  -6.5062724e-02  -6.1686486e-01  -1.4709670e-02   3.1241915e-01  -4.3030650e-01   4.9472328e-01  -1.2794780e-01   3.2876599e-01   4.3146501e-02   1.3085388e-01   9.0450244e-01  -4.9959839e-01  -2.6101940e-01  -2.5261341e-01   1.9249298e-01   4.5698891e-02   7.3797258e-01  -5.7591929e-01   9.3573972e-01   5.1860122e-01   5.8461456e-01   2.2814194e-01  -2.0603797e-01  -6.6004121e-01  -7.5194594e-01  -8.7976865e-01  -7.9520708e-01  -4.0640609e-01  -4.8031967e-01  -8.2598244e-01   9.2858506e-01   2.4906202e-01   7.5560864e-01  -3.6000384e-02  -6.9637968e-03   1.0344009e-01   8.7905821e-02   5.4969038e-01   7.3737282e-01   1.0027899e-01  -2.2259726e-01   3.8934628e-01   4.5943098e-01  -4.9818152e-01   5.3122921e-01   7.8265693e-02  -4.2317946e-02   3.1954893e-01   3.7269602e-01  -8.9657730e-01  -5.0901180e-01   3.0031117e-01  -8.6310483e-01  -1.0149423e-01   2.6824428e-01   5.3753706e-01   4.0517288e-01  -2.5997214e-01  -1.3160097e-02  -9.6409085e-01  -6.5225323e-01  -7.0832821e-01   4.6492099e-01  -1.0655225e-01  -9.2363533e-01  -7.7430072e-01   7.3986853e-01  -8.0750395e-01   6.1820796e-01  -6.1758654e-01  -2.3985795e-01  -9.7041399e-01   8.8210999e-01   2.7632201e-01  -6.6880693e-01  -3.0670952e-01   7.4779290e-01  -8.5892956e-01   7.0517423e-01   5.4457801e-01  -9.7216003e-01  -3.1138299e-01   9.2682937e-01   2.9409154e-01  -9.6566124e-01  -2.2676081e-01   2.9244916e-01  -1.6451972e-01  -4.5369825e-01   2.8870742e-01  -9.5628711e-01   2.9330446e-01  -8.2167770e-01  -1.5376145e-02   5.5593898e-02  -4.5197159e-01   6.4819087e-01  -4.3014941e-01  -3.4298849e-01  -5.6931139e-01  -7.1434814e-02  -1.5276937e-01  -3.2604295e-01  -4.4884387e-01   7.7168697e-01  -2.7487460e-01   4.9339316e-01  -1.3748720e-01   1.0467421e-01   2.6919471e-01   5.3959166e-01  -6.5224604e-01   3.3438576e-01  -1.3655906e-01  -7.9635834e-03   4.9146230e-01   7.2179026e-01  -6.4662048e-01  -9.0147296e-01   1.1157486e-01  -3.0376162e-01  -1.6484338e-02   7.3269856e-01  -5.8727747e-01  -9.2306572e-01  -2.8532965e-01  -7.8244336e-01   1.1490224e-01  -3.5187629e-01   7.9235843e-01   4.2037288e-01   8.7805099e-01   5.6265427e-01   5.6534361e-01  -5.8554297e-01   4.9623287e-01   8.9323006e-01  -1.0047630e-01  -8.7842207e-01  -7.8996445e-01   7.7976250e-01   9.8535411e-01   6.2685118e-01   5.9065105e-01   7.6780988e-01  -1.7104182e-01  -8.8331139e-01  -3.5460798e-01   3.9656813e-01   1.0371919e-01   1.0121597e-01   6.1239465e-01  -6.0464565e-01  -9.2469357e-01   2.4672570e-01   8.8611011e-01  -4.2837782e-01  -1.2279734e-01  -1.4628363e-01   5.9251550e-01  -1.4201883e-01  -1.9531239e-02   2.4883801e-01  -4.5411889e-02   5.9137479e-01  -4.6468437e-01   6.2028601e-01   7.9736336e-01  -9.5902190e-01   4.7319751e-01   9.7250275e-01   4.9666170e-01   1.4641876e-01  -3.6138189e-01  -6.5290501e-01  -3.7333347e-02   9.7731764e-01  -1.5141821e-01  -6.6823452e-01  -5.6041898e-01  -8.0466481e-01   5.0126983e-01   4.9061064e-01  -2.2535382e-01   1.1732516e-01  -5.0356818e-01  -8.6968877e-01  -2.2458463e-01  -1.2684692e-01  -7.3795798e-01  -1.2016837e-01  -5.8160802e-01  -9.0345656e-03   4.8393959e-01  -2.7994166e-01   3.6435247e-01   1.0559534e-01   9.9043024e-01  -4.4808323e-01  -6.8628862e-01  -2.3441912e-02  -6.5019520e-01   4.8790483e-01  -1.9551975e-01   2.6868126e-01  -4.6507378e-01   6.1903349e-01   6.6660883e-01   4.3868410e-01  -2.4257526e-01  -8.1103073e-01   3.4287918e-01  -6.7518730e-01   8.9811043e-01   8.0133150e-01   7.8600399e-01   3.4016421e-01   8.2269040e-01  -3.2173441e-01  -3.8999956e-01   7.7596069e-02   8.4927022e-01   9.1762521e-02  -3.5755428e-01   2.4918950e-01  -3.4136519e-01  -7.1155625e-01  -2.1257206e-01   6.7426656e-01   6.7146698e-01   1.5036296e-01   5.1600166e-01   3.5361262e-01  -2.9666419e-01   7.3699637e-01  -6.7971219e-01  -8.0770824e-03  -4.5284970e-01   5.2655216e-01  -8.8934453e-01  -2.8624216e-01   7.8031908e-02  -5.7239191e-01   9.4509735e-01  -3.7393068e-02  -3.7848324e-01  -6.5012639e-02   7.8808062e-01  -8.7202046e-02   1.3953576e-02   8.5073865e-01  -9.1636851e-02  -9.6832534e-01  -1.9232638e-01   1.6906159e-01   5.0849079e-01   8.7958764e-01   6.5245862e-01   5.6868484e-01   1.3440013e-02  -9.2992128e-01  -1.6429643e-01   9.2251238e-01   5.7302223e-01  -9.6159033e-01  -2.4681652e-01   8.6550378e-01  -3.0099206e-01  -1.7868801e-01  -9.6866460e-01   5.9945714e-01   1.2213557e-01   7.6213735e-01  -4.1566916e-01  -9.1545805e-01   4.3244212e-01  -6.8489816e-01   2.9541351e-01  -4.1841339e-02   4.7920488e-01   5.2120910e-01   7.1152106e-01   2.3995363e-01  -1.3981772e-01   9.1536903e-01   7.8976619e-01   3.7667035e-01   9.6078287e-01  -2.5946613e-01   3.2690194e-01   3.2870516e-01  -1.3104757e-01   5.6059072e-03   5.9310941e-01  -7.1831558e-01  -9.7386292e-01   3.6154938e-01   8.1575599e-01  -1.7247461e-01  -9.9175441e-01   5.7408605e-01   7.9832789e-01   6.2613307e-01   4.1518971e-01   1.8854267e-01  -7.0054266e-01  -1.4763089e-01  -7.2804706e-01   9.2361859e-01  -1.0119550e-01  -9.5412936e-01  -8.2251162e-01  -1.8961133e-01  -6.2766541e-01  -1.2857281e-01   9.2547579e-01   5.7275192e-01  -2.3477148e-01   5.1263225e-01   8.1992788e-01  -4.0962084e-01  -2.5596218e-01  -8.9077959e-01   9.7581352e-01  -7.4239030e-01   2.9807521e-02  -1.5701899e-01  -7.9478672e-02   7.5308942e-02   1.7351805e-01  -1.8984736e-01  -5.3694690e-01   8.2771638e-02   3.0359546e-01  -9.0539713e-01  -2.1453595e-01   6.2973148e-01   3.7087433e-01   2.2183940e-01  -4.5526260e-01   1.5720973e-01   4.4212310e-01   2.9116493e-01   1.3644205e-01   9.1970589e-01  -9.7745596e-01   1.6073748e-01   2.1504075e-01  -6.4002073e-01  -2.2129753e-01   6.9390208e-02  -8.8760901e-02   7.9081657e-01   4.3897309e-02  -7.1665602e-01   4.6734712e-01  -8.9126331e-01  -8.9074785e-02   2.4047888e-01  -3.9893135e-01   4.8070029e-01   9.5372168e-01   8.6788535e-01  -9.9006269e-01  -2.2146948e-01   7.6075930e-01   3.2513131e-02  -9.2339544e-01  -8.2541301e-01  -4.4531512e-01  -2.6291923e-01   8.4240435e-01   2.0552191e-01   8.0057675e-01  -6.6946761e-01   6.2022990e-01  -5.8504236e-02   5.3189316e-01   8.8177665e-01   6.8195085e-02   5.8569185e-01   2.2375496e-01  -3.1965269e-01   5.3272635e-01  -2.3076355e-01  -6.5097707e-01  -4.7516049e-01   5.9417268e-01   8.8001761e-02  -7.8666686e-01  -3.7979845e-02  -5.9173387e-01   2.8324573e-01  -8.0803766e-01   5.9832606e-01   5.4236191e-01  -9.4852260e-01   6.4407938e-01  -8.9818709e-01   4.2485152e-01  -2.3351367e-01  -1.3260966e-01   3.4563080e-02  -3.1571763e-01   6.8125446e-01  -6.1869314e-01   5.8756331e-01   4.4683748e-01   8.7321301e-01   1.7652099e-01   8.5586611e-01   7.3678996e-01  -7.5576635e-01  -5.7837580e-01  -7.4712191e-01  -8.5535009e-01   2.7858442e-01   1.9542073e-01  -8.5266041e-01   8.7068670e-01  -2.8187032e-01   2.7005093e-01  -2.4498778e-01  -4.6499098e-01  -7.4275379e-01  -5.4022862e-02   5.0895016e-01  -1.1782682e-01  -9.5499327e-01   6.0231622e-01   7.8854178e-01  -1.7249065e-02  -9.6816870e-01  -9.9501914e-03  -7.6162791e-01  -7.5980825e-01  -9.3391642e-01  -6.9117436e-03   4.9622800e-01  -3.7313626e-01   2.3971229e-01   9.4751411e-01  -1.9687559e-01  -2.4562353e-01   7.3300141e-01   3.0496151e-01   5.2238074e-02  -6.0926377e-01   3.1722296e-01   3.2092611e-02   7.5587111e-01  -5.4177760e-01   3.3016599e-01  -3.3998043e-01  -2.0914442e-01  -3.1845741e-01  -1.2529129e-01  -1.4383785e-02  -6.0252299e-02  -8.3777838e-01  -1.0872159e-01   8.1395826e-02  -9.5457197e-01   3.1449144e-02   7.6829638e-01  -6.1571983e-01   7.5386714e-01  -4.5140252e-01  -5.4743456e-01   3.7689566e-01  -8.7800561e-01   3.2480915e-01  -3.4071039e-01  -2.0862858e-01  -6.1961370e-02   5.2823364e-01   7.2772002e-01   1.9428993e-01  -5.3244636e-01  -9.9360202e-01   2.9822951e-01  -3.7407945e-01   5.2237854e-01   8.7478811e-01   9.6695926e-01  -2.9705540e-01  -5.0867306e-01  -4.7388384e-01  -5.7571977e-02  -4.8460127e-01   2.9492150e-01  -2.0518966e-01   6.2027511e-01   2.5566144e-01   7.0200298e-01   6.0837798e-01  -8.1655991e-01   2.0634303e-02  -8.9341073e-01  -6.7784012e-01   2.0867044e-02   8.7424291e-01  -3.6714975e-01  -9.0030822e-01   8.1177709e-01  -2.5626957e-01   5.5654242e-03  -3.0717118e-01  -8.2756402e-01   9.2872500e-01  -1.9014994e-01   8.2239098e-01  -3.7161187e-01   3.1507350e-01  -9.2270418e-01  -6.2283455e-01  -9.1358575e-01  -1.6450463e-01   1.0196783e-01  -6.2246022e-01   6.1181279e-01  -4.5585408e-01  -5.9881330e-01  -1.4678513e-01   6.4607983e-01  -4.8101576e-02  -7.0318549e-01   6.0715772e-01   5.8929795e-01  -5.7234164e-01  -3.4238815e-01  -2.4656360e-01   8.1661735e-01  -1.1734099e-01   5.8032404e-01  -8.5346122e-01   2.1568127e-01   3.7565204e-01  -9.0701954e-01   7.9162467e-01  -3.3473678e-01  -2.3230197e-01  -7.5002245e-02   3.3689182e-01  -4.7658212e-01   5.2628076e-01   8.6029588e-01  -3.9875477e-01  -5.0404068e-01  -6.9349812e-01  -4.5852545e-01   1.7254468e-01   9.0640725e-04  -3.1936166e-01  -4.6445811e-01  -9.5307467e-01  -3.6939465e-01  -5.5692322e-01  -5.8045838e-01  -3.8433391e-01   2.8874142e-01  -5.7007361e-02   8.9337645e-01   4.1191523e-02  -9.4664544e-01  -9.7419582e-01   8.5111801e-01   3.3429640e-01  -6.1125690e-01  -8.5402488e-01  -3.7555984e-01  -2.8286550e-01  -7.1907947e-01  -4.1752547e-01   6.0557262e-01   6.6616567e-01  -6.2946271e-01  -2.6769883e-01   5.7430899e-01  -9.5540064e-01  -5.9020310e-01  -4.6513894e-01  -1.7038945e-01   1.3330777e-01  -2.5507371e-01   8.8208342e-01  -8.8154474e-01  -6.7567970e-01  -9.5338125e-01  -8.5796615e-01   1.5516629e-01  -9.0911096e-01  -1.8508432e-01  -1.0248019e-01   3.9687588e-02  -8.4104363e-01   1.2848877e-02   6.0243320e-01   6.2703489e-01   3.8642254e-02  -8.8800671e-01   8.1646073e-01  -1.7025685e-01   5.0949304e-01   1.5218413e-01   6.6845304e-01   1.1651698e-01   5.3708867e-01  -6.5423180e-01  -3.0803920e-01  -4.7337320e-01  -3.3511078e-01   5.2192522e-01  -4.2935979e-01   7.9132751e-01   9.6436756e-01   2.4729812e-01  -8.8422479e-01   3.6892711e-02  -8.5588486e-01   4.0898446e-01  -3.0449398e-01   1.4783392e-01  -1.6125226e-01   8.2975502e-01  -9.2900233e-01  -9.8457822e-01  -9.6129442e-01  -7.8021663e-02   1.8233556e-01   8.0720848e-01   4.7419813e-01   1.3125080e-01   4.4145907e-01  -4.4077716e-01  -8.3144104e-02  -8.4299373e-01  -3.5042196e-01  -4.1027292e-01  -5.9218497e-01   4.9515894e-01   4.2415481e-02  -6.7826156e-01   8.9020835e-01   2.1008445e-01  -5.8393676e-01   4.0118645e-03  -7.9340070e-01   7.7737519e-01  -2.3717315e-01  -8.3347150e-01   6.6183685e-01  -8.9277945e-01   1.9378285e-02  -9.9980147e-01  -1.4177548e-01   3.6417053e-01  -4.4749883e-01   1.3751999e-01  -8.8344880e-01   2.2281777e-01   8.5285312e-01  -1.1043398e-01   1.3187867e-01  -2.0880240e-01   2.3442187e-01   3.6818975e-02   1.5484930e-02   6.2662995e-01  -5.1983556e-01  -6.3673310e-01   4.0783848e-01   7.8694090e-01   8.0846573e-01  -6.3569411e-01  -7.3591070e-01   5.2592038e-01  -9.9464841e-01   4.6871575e-01   3.5666805e-01   6.3990463e-01  -1.7467482e-01   1.5146503e-02  -6.3962081e-01   1.6725354e-01  -2.7151773e-01   8.2401099e-01   6.5731870e-01  -2.9084973e-01  -7.4153104e-02  -9.9055665e-01  -2.6172317e-01   4.7228275e-01   8.4500987e-01   9.0861148e-01   3.6126259e-01  -3.3754802e-01   6.4411909e-01   1.4518401e-01   2.3033275e-01   4.3163472e-02   9.0950002e-01   1.5481062e-01   5.7727696e-01   1.3059800e-01  -2.7021194e-01  -7.6068847e-01  -2.0801287e-01   7.9852406e-01   2.8771955e-01   5.3665564e-01  -1.9049727e-01  -4.8841725e-01   5.6357015e-01  -5.5089579e-01   8.5587628e-01  -4.5081630e-01   7.1770169e-01  -3.3992552e-01  -7.0277406e-01   6.9088063e-01  -1.6778389e-01   8.6982484e-01  -8.3870941e-01   9.7107564e-02  -8.2937977e-01  -1.2216151e-01  -4.5478423e-02   4.6739014e-01  -8.9572112e-01   6.4729064e-01   2.9005050e-01  -3.0229393e-01   5.7893967e-01  -3.7458150e-02  -7.0216584e-01  -7.5800040e-01  -1.0732479e-01
  -2.7256576e-01   2.9763864e-01  -6.1723097e-01  -8.6994214e-02  -2.0809731e-01   9.7780230e-01   6.2945188e-02  -3.7650903e-01  -6.0010566e-01   1.4734593e-01   4.6768669e-02   7.2008315e-01  -3.2907317e-01   2.1166809e-01  -1.8434037e-01  -5.1293183e-01  -7.4672956e-01   8.5549585e-01  -5.3871318e-01  -2.3797052e-01  -6.5748297e-01  -3.2030667e-01  -1.7369068e-01   9.6816675e-01   7.2841900e-01  -7.6674490e-02  -9.6817656e-01  -4.8722834e-01  -9.0123490e-01  -3.4243407e-01   3.6810296e-01  -3.5631125e-01   9.3003098e-01   1.7344622e-01  -8.6527035e-01   2.9050392e-01   3.3032577e-01   8.5139795e-01  -1.7419912e-01   7.7889247e-01   4.1459212e-01   1.1307209e-01   8.1329789e-01   1.6538406e-01  -3.2850858e-01   2.2458197e-01   3.3076011e-01  -1.1034994e-01  -4.2297024e-01  -6.9680849e-01   4.9759245e-01  -5.1956682e-01  -1.2843555e-01  -8.0202373e-01   1.2059463e-01  -5.2591740e-01   7.0533788e-01   8.6060579e-01   7.9519606e-01  -8.5275831e-01  -6.9416692e-01   2.6952401e-01  -7.2637728e-01  -8.0800452e-01   5.9205006e-01  -5.9045952e-01  -5.5254419e-02   7.6978390e-01  -8.8507151e-01   1.8128937e-01  -6.9569593e-01   8.2483218e-01  -3.7516308e-02  -8.6854943e-01  -7.3817337e-01   7.7413792e-01   5.1825161e-01   1.8925567e-01   8.4391613e-01  -7.1018982e-01  -6.2683075e-01   4.6665487e-01   3.3633976e-01   4.7141927e-01   8.1210115e-01   3.7042630e-01  -2.3668547e-01   2.3303379e-01  -1.2323851e-01  -8.2582580e-01   4.0871235e-01  -9.1919635e-01   4.2299549e-01   3.4807844e-01   2.9886554e-01  -2.8815664e-02  -7.1621574e-01   4.8329509e-01  -7.9640676e-01   2.9165857e-01  -3.7906820e-01   3.3145408e-01  -6.1824891e-01  -1.8785073e-02   3.7991966e-01   1.6823004e-01  -5.0574456e-02   6.0530691e-02   9.1037290e-01  -5.1951887e-02   3.2641264e-01   9.0620673e-01   8.1079180e-01   2.0513463e-01   1.1482720e-01  -2.1900008e-01   8.5373225e-01   1.3878273e-01   1.8457323e-01  -3.6883198e-01  -7.9850109e-01   9.8772009e-01   4.3881070e-01   8.2972708e-01   4.8023820e-01   7.1800656e-01   1.6972614e-01   1.4815764e-01   9.2707576e-01  -7.9778691e-01   4.0650583e-01  -2.3484631e-01   9.4259476e-02  -4.7304818e-01   6.8607520e-01   8.9794244e-01  -6.8046827e-01   4.8425581e-01   9.5806399e-01  -3.2803169e-02  -9.1241848e-01   7.1012170e-01  -7.4825797e-01  -1.6061088e-01   2.9434841e-01   6.8083144e-02   8.4846991e-01  -8.2358129e-01   1.8234370e-01  -8.5729818e-01  -5.0253403e-01  -3.9219696e-01   8.9221214e-01   9.1863441e-01  -9.2268900e-01  -2.3529075e-01   1.8735547e-01  -6.9718237e-01  -5.5292786e-01   3.7045628e-01   8.2331209e-01  -6.7152080e-01   5.2828530e-01  -4.1682855e-01  -4.9054376e-01   6.1338578e-01  -6.4685698e-01  -9.4469280e-01   5.5093908e-01  -1.1821431e-01   9.1622513e-03   8.6153757e-01  -6.8083355e-01   6.0081778e-01  -3.4073862e-01  -4.2414013e-01  -4.4829353e-01  -2.3837072e-01  -5.0066580e-01  -9.9256582e-02   6.7062686e-01   1.8991254e-02  -4.4966181e-01   9.2426574e-01   6.3418274e-01   1.0514257e-01   6.7028369e-02   6.3531908e-01  -5.5715508e-01  -1.0300022e-02   3.1109038e-01  -7.8251089e-01   1.2142993e-01   3.6329510e-01   9.6076959e-01   1.1028000e-01  -9.5959063e-01   2.2908755e-01  -9.7486955e-01   4.4006149e-01  -8.7864799e-01  -3.5888306e-01   6.1585141e-01  -7.3476180e-01  -6.0014608e-01   5.4456749e-01  -3.3129160e-01  -4.0986401e-01  -3.2630169e-01   9.2235436e-01   7.5188844e-01  -6.5934505e-01  -2.5382997e-01   9.6312309e-01   8.5297534e-02   6.8318889e-01   3.4682070e-01   6.4784814e-01  -6.3976635e-01  -5.3014582e-01   3.2220813e-01  -9.4835121e-01  -5.6106932e-01  -7.2865421e-01  -1.6678326e-01   7.6661488e-01   5.8467452e-01  -9.5996427e-01   8.4754853e-01  -2.0183773e-01  -8.8276937e-01  -4.4763220e-01  -2.2473271e-01  -2.5497036e-01  -1.2512767e-01   2.0723547e-01  -5.1241407e-01  -3.9709668e-01   7.5589260e-01  -3.6232052e-01  -7.3135788e-01   4.8363477e-01  -2.1684885e-01   9.8286502e-01   2.1293683e-01  -4.2159996e-01   7.0982230e-01   4.0134367e-02   6.0195524e-01   9.8105889e-01   1.9799311e-01   9.2634450e-01  -7.9921380e-01  -4.6195775e-01  -6.3507867e-02   8.7401958e-01  -1.1290771e-01   7.2499653e-01  -2.4591058e-01   9.2256070e-01  -5.0211011e-01  -6.4314596e-01   6.2356813e-01  -5.5471897e-01   1.0646330e-01   5.7515204e-01  -1.8056055e-01  -6.8216082e-01  -6.4576939e-01   2.3485701e-01   3.6623250e-01  -2.7710698e-01  -5.5400464e-01  -5.2242429e-02   7.6501964e-01  -2.3150480e-01  -5.8351089e-01   5.0912711e-01  -4.8600525e-01   6.1688090e-01   6.5789507e-02  -3.1424042e-01   7.3233528e-01  -3.4311455e-01   5.4395028e-01  -1.8035683e-01  -6.4739993e-02  -6.1545667e-01   6.5072752e-01   9.8312697e-01  -6.4593325e-01   9.4675500e-01  -6.3261452e-01   1.3038918e-01  -2.5647889e-01   6.8169635e-01  -9.0873312e-01   7.2649183e-02   3.0482282e-01   5.7058939e-01   4.2266952e-01   5.5955884e-01   3.3476134e-01  -2.6334464e-02   3.7279531e-02   6.2892687e-01  -2.7472086e-01   6.0005608e-01  -5.0686864e-03  -1.9775988e-02   6.1555484e-01  -6.5885306e-01  -4.3971196e-01  -4.2307482e-01  -7.1277288e-01   5.3649391e-01   3.7287243e-01  -6.1682881e-01   2.1434405e-01   9.3151536e-01   5.5642672e-01  -3.3598895e-01  -6.3626972e-01  -5.5582475e-01   9.1387523e-01  -9.6772234e-01  -1.9861275e-01   2.4141635e-03   2.3796938e-01   2.3129348e-01  -1.1180131e-01  -4.9584381e-02   6.7214380e-01   9.8137248e-01  -1.2492731e-01  -7.6087454e-01   8.6708736e-01  -3.6869689e-01   2.6730672e-01   7.9689245e-01   5.2625489e-01   2.2657203e-01   4.8415133e-01  -5.8607936e-01  -8.1887396e-01   4.1505629e-01   5.5378502e-01  -7.2494174e-01   3.9331693e-01  -2.6682920e-01   7.4684870e-01   3.6628982e-01  -9.1000282e-01  -5.0088558e-02   3.5872565e-01   6.8529482e-02  -8.4293008e-01   7.9135529e-01   4.6539881e-01  -6.5748864e-01   4.1735843e-01  -6.6234377e-01  -7.8073931e-01   6.6516362e-01  -2.8936242e-01  -7.2303056e-01   6.7430202e-01  -3.4025442e-01  -5.2102379e-01  -3.9208822e-01  -4.7156081e-01  -6.9391212e-01  -1.3395024e-01  -4.1595895e-01   3.0608622e-01  -4.8982330e-01   1.2811009e-01  -1.7791007e-01   8.3499332e-01  -3.7887619e-01  -4.2611585e-01   1.7001965e-01  -1.4827248e-01  -4.4788103e-01  -7.1920963e-01  -4.1569428e-01  -5.2083892e-01   7.1840955e-02  -1.2217620e-01  -8.5734432e-02  -2.8651396e-01  -3.0403885e-01   3.7018879e-01   8.4037963e-01   4.3133331e-01   8.1479009e-01   2.6924302e-01  -4.0502367e-01   2.0690058e-01  -2.8087435e-01   7.1189108e-01  -2.0747295e-01   1.5067032e-01  -6.1192463e-02  -5.9475368e-01  -1.2170779e-01   2.1354177e-01   5.8368781e-02   6.3681338e-01   1.1508680e-02  -9.9839414e-01   2.9615421e-01  -4.9580674e-01  -8.2724803e-01  -5.2235605e-03  -6.2049970e-01   5.2598354e-01  -9.8431118e-02  -5.6425352e-01   5.9239264e-01  -2.3442664e-01   5.3361246e-01   9.1047610e-01   4.7757512e-01  -6.9226330e-01   2.5366374e-01  -1.8574339e-01  -8.6100643e-01  -5.9038271e-01   9.6738217e-01   5.3916112e-01   8.4484055e-01  -2.9182016e-01   8.0522795e-01  -8.4558927e-01  -5.0044414e-01  -9.6102409e-01   6.1556722e-01   9.5190905e-02  -4.6517149e-01   4.2609331e-01   3.8284953e-01   4.3918648e-01   9.8488647e-01   6.3178664e-01  -1.2436113e-01  -7.6895600e-01  -2.8713354e-01  -7.3424778e-01   1.9274716e-01  -3.0818701e-01  -7.0661322e-01   4.0476316e-01  -5.3595618e-01   3.6671963e-01   6.6376023e-01   5.8746589e-01   6.5495827e-01  -6.7612487e-01  -9.5587794e-02   7.7070861e-01  -5.8853661e-01   4.9154961e-01  -1.0467760e-01   4.3514332e-01  -8.6730415e-01   5.1017994e-01  -7.7294220e-02   9.7599166e-01  -2.5541355e-02  -4.0016591e-01   7.6898049e-01  -8.7558853e-01  -3.0786855e-01   6.2074705e-01  -3.2577907e-01  -2.3807294e-01   1.0458303e-01  -5.0465615e-01  -4.5615529e-01  -6.6660295e-01   9.3755221e-01  -1.5245990e-01   7.2412648e-01   8.7509364e-02   3.6412855e-01  -5.2897983e-01  -1.9818572e-01  -6.1182696e-02   5.8266382e-01   5.9688214e-01   4.7864236e-01  -6.5759192e-01  -5.3135251e-01   5.0913690e-01  -2.0861091e-01   7.4387874e-01  -1.0896932e-01  -2.7019155e-01  -3.0595456e-01   1.8076459e-01  -2.5426875e-01   3.2364958e-01   8.4305362e-01   2.6447022e-02   7.4324192e-01   9.2728461e-01  -2.6605287e-01  -5.7232402e-01   9.9373424e-02   6.9675916e-02   9.9989518e-01   3.9537789e-01  -6.5078797e-02   7.8289572e-01  -8.6429935e-01   6.1722142e-01   2.4794720e-01   8.7931254e-01  -8.7280246e-01  -9.9644656e-01   5.5957077e-01   4.6116038e-01  -6.8653633e-01   2.9913024e-01  -3.1629194e-02  -9.7393273e-01  -7.0937126e-01  -1.4055870e-01  -2.5560177e-01  -6.7210056e-01  -6.4938882e-01  -4.3368737e-01  -4.9474567e-01  -1.0993281e-01  -4.4701485e-02   4.0999183e-02  -3.4568136e-01  -8.1297908e-02  -3.5344807e-01  -5.5542581e-01  -1.3915914e-01  -4.1625829e-01  -5.7292482e-01  -1.1230117e-01   5.8073536e-01   5.6208871e-01  -1.4671765e-01   4.9812126e-01   1.6104403e-01  -9.5386224e-01   3.3528244e-01  -5.3911385e-01   9.5175326e-01  -8.6858520e-01  -3.1351094e-01   2.3559753e-01  -3.4350972e-01   6.5446580e-02  -3.1262206e-02   8.9954942e-01   7.2029675e-01   1.8515099e-01  -8.9106716e-01  -8.5980277e-01   3.6912332e-01  -9.7475661e-01  -8.6691046e-01   6.7613319e-01   9.9570846e-02   3.5863756e-01  -4.3224292e-01   4.7947347e-01  -5.6782480e-01   6.4318726e-01  -8.6170457e-01  -3.4851665e-01   7.5768119e-01   5.8345901e-01  -3.3545458e-01   9.2609406e-01   3.2573325e-01   3.2315501e-01   7.7843866e-01   5.5978443e-01  -6.9821394e-01  -9.8468141e-01   2.9171763e-02   7.6036734e-01  -2.0707253e-01  -5.2574782e-01   7.1203772e-02   8.4112025e-01   2.9489977e-02   5.1787997e-01   1.0212080e-01   2.7678038e-01   6.7475780e-01   8.1325853e-01   6.1624183e-02  -6.7833164e-01   3.9867469e-01  -1.4632159e-01  -9.6938157e-01   2.0548886e-01  -8.8936778e-02  -2.7647164e-01  -7.1253412e-01  -8.2527329e-01   5.7184704e-01   2.1299045e-01   8.2316137e-01  -3.3011982e-02   2.5777878e-01   3.7312005e-01  -4.6341484e-01   6.4976816e-01   3.3425637e-01   9.1733928e-01  -5.8250755e-01  -7.6181955e-01   7.5568711e-01   1.5620624e-01  -6.8249916e-01  -1.1387720e-01   3.2056794e-01   8.3108712e-01  -9.3399816e-01  -3.5937601e-01   8.4361133e-01  -8.3649355e-01   3.2315460e-01  -2.0202823e-01   6.0176996e-01  -9.2068572e-02  -1.5832213e-01  -8.2540324e-01  -8.9218993e-01   1.0009520e-01   8.5447276e-01  -3.5290742e-01  -5.7256160e-02  -1.1837836e-01   6.1912830e-01   8.5131463e-01   2.1854285e-01   5.9043979e-01  -9.7739507e-01   6.1388971e-02   3.1873633e-01   4.7341988e-01  -8.3040562e-03  -3.2036132e-02   8.4397014e-01   2.9188824e-01   4.9453772e-01   1.6058137e-01  -7.7520597e-02   5.8347120e-01  -4.8850290e-01   3.4261006e-01   7.3118336e-01   8.8090578e-02  -1.9290096e-01   6.4618312e-01   2.9114396e-01  -4.6514596e-01   1.4582583e-01  -8.1750096e-01  -6.4951649e-01  -7.8872443e-01   1.4110850e-01   5.8340670e-02   1.2929872e-01   6.3119476e-01   2.2683552e-01  -6.5727568e-01  -7.9528180e-01  -2.5806178e-01   4.1076468e-01   7.2056816e-01  -9.8377319e-01  -6.2847706e-02  -5.4855466e-01  -2.1724679e-01   6.6219127e-01  -3.8063485e-03  -2.2306570e-01  -7.2568673e-01   1.1691798e-01   9.3321417e-01   7.3030900e-01  -8.8429914e-01   2.4136218e-01   5.2645391e-01   1.6700747e-01   7.4807844e-01   7.7192807e-01   6.6387398e-03   2.7509746e-01  -2.3835685e-02  -7.2746861e-01   8.3712808e-01   1.8723429e-01  -2.9070568e-01  -4.5684148e-01  -1.5630352e-01  -6.0753086e-01  -9.4828160e-01   7.3387356e-01   2.4652388e-01  -8.3333215e-01   2.8880671e-01   5.4088058e-01   8.6221592e-01   1.7840225e-01   2.1393849e-01   4.7327078e-01   1.4420488e-02   4.8993414e-01  -1.3865597e-01  -3.8272199e-01   4.8908266e-01  -4.5354889e-01  -4.6659744e-02  -5.4107623e-01  -3.4299387e-01  -6.8277166e-01   7.9330618e-01   6.8169400e-02   6.6988229e-01  -6.6642459e-01   7.9142374e-01  -6.4795864e-01   1.6454992e-01  -6.7261450e-01  -2.4540135e-01  -9.6657327e-01   7.5768933e-01   8.1115874e-01   6.6327817e-01   6.2511563e-01   7.8897759e-01  -3.4444775e-01   5.8772653e-02  -7.0930171e-01   4.3175653e-01   7.2329645e-01   3.6657616e-01   9.4511260e-01  -2.0225397e-01   5.3205049e-01  -2.7348039e-01  -8.7883089e-01   7.4956908e-01   3.4664997e-01   4.1148447e-01  -7.7508336e-01  -8.2639625e-01  -1.9939305e-01   2.5651839e-01  -7.6337101e-01  -8.3851854e-01  -3.8638113e-01  -8.6871263e-01   9.2373244e-01  -4.7603671e-01  -4.2991967e-01  -2.9277312e-01  -2.4964217e-01   3.9262976e-01   9.1736068e-01   7.7326785e-01  -5.2782060e-01  -3.8623164e-02  -3.4648582e-02  -8.3115854e-01  -5.3353057e-01  -8.5439005e-01  -1.7077526e-01  -4.1597449e-01   6.5769011e-01   4.9023751e-01   7.5744002e-01  -1.7558556e-01  -4.0464872e-01   4.1669561e-02   3.4515256e-01  -6.7942486e-01   5.5402792e-01   4.2389667e-01   4.6880931e-02   7.7549968e-01   2.6149222e-01   9.9246365e-01  -5.9100763e-01  -7.0735044e-01  -7.8676336e-01  -3.1779593e-01   6.0920763e-01  -8.6407490e-01   7.2778450e-01  -3.1212266e-01   5.4570669e-01   8.5008599e-01  -1.3060235e-01   4.7610739e-01   6.3483224e-01  -3.2825555e-02   1.0167705e-01   5.6416233e-01   6.7477475e-02   4.0186406e-01   5.3637323e-01   3.3145157e-01  -7.5948586e-01   5.9225273e-01  -1.7051439e-01   4.2365847e-01  -5.4381927e-02   5.2051355e-01   4.4800487e-01   3.9385665e-01  -1.9622526e-01   6.7078651e-01  -8.3844668e-01   4.5437851e-01   4.7667896e-01  -5.9326058e-01  -3.9229813e-02   3.7178328e-01   4.8680405e-01  -5.5929235e-01   8.3451620e-01   2.8390157e-01  -6.5764163e-01   3.7883924e-01  -5.5635366e-01  -1.1339387e-01   5.4790768e-01   6.6323189e-01  -4.4535761e-01  -4.5646488e-01   1.4585989e-01  -4.3462619e-01  -6.1273714e-02  -2.6919970e-01   2.0792632e-02  -9.7950069e-01  -9.1153240e-01  -7.9787458e-01   7.5849144e-01  -9.8440780e-01  -2.6569455e-01  -9.2286362e-01   6.2516250e-01  -7.0125225e-01   8.0641060e-01  -5.2921963e-01   2.8195731e-01  -5.3701126e-01   9.6264243e-01  -1.8978356e-01   6.0285699e-01   3.8071230e-01   4.4736199e-01   6.7566544e-01   4.9111210e-01   9.1654541e-01  -5.9780574e-01   9.9467925e-01  -2.8230822e-01   4.3611036e-01  -2.0050436e-01  -9.1020050e-01  -8.4039326e-02   1.2551921e-01   1.8017658e-01   7.3593528e-01   1.7883035e-02   4.9394720e-02  -3.0365479e-01   1.9773324e-01  -9.7101625e-01   3.3431051e-01   6.4896140e-01   4.7335037e-01   1.0020836e-01  -8.8707584e-01  -5.6575850e-01   1.5112602e-01   9.7488282e-01  -4.2724771e-01  -1.3139965e-02   1.0898458e-01   6.8145019e-01  -8.9668344e-01   8.6224899e-01   6.3002503e-01  -5.8873343e-01   1.3853586e-01   3.4751697e-01   1.2762961e-01  -4.0008478e-01   9.5996932e-01  -8.3985604e-01  -6.1780085e-01   2.4989565e-02   1.1972289e-01   6.0313154e-02  -4.9252255e-01   7.0755836e-01   8.6845132e-03  -7.5362318e-01  -6.2614982e-01   8.9350505e-01  -7.3910568e-01  -2.6504364e-01   7.3523254e-01   4.0405547e-01  -3.7753033e-02   8.8688844e-01   5.7561051e-02  -5.0323954e-01   7.9155796e-01  -3.0072574e-01  -1.8442741e-01   9.7791636e-01  -5.1465919e-01  -8.7856523e-01  -3.9226182e-01   2.4740187e-01  -8.4211962e-01  -7.6077054e-01   8.4179475e-01  -5.5092923e-01  -4.5291642e-01   2.0660255e-01  -9.2356320e-01  -9.5930776e-01   1.0865811e-01  -6.8044007e-01   5.3764285e-01   1.0115432e-01   8.6412307e-01  -6.5349857e-01  -5.7756445e-01  -4.7062686e-01  -1.1875699e-01   1.1107634e-01   3.2552475e-01  -1.3598949e-01   5.9543054e-01   3.8975058e-01  -5.6616271e-01  -1.8834130e-01   8.4711034e-01   8.5880285e-01   3.0819670e-01  -5.8187890e-02  -9.9636543e-01   7.3410734e-01   3.5570096e-02  -7.9096967e-01  -4.3315764e-02   2.4244263e-01  -7.9883153e-01   6.5076826e-01   7.0763497e-01  -5.2039394e-01  -2.9282702e-01  -6.6319194e-01   5.0311324e-01  -1.4877359e-01  -8.7670598e-01  -5.0228170e-01  -8.7624098e-01  -5.0903041e-01   2.8211687e-01  -3.5122304e-01  -2.3045327e-01  -3.0053342e-01  -2.6314117e-01  -7.9165766e-01  -9.7651625e-01   4.6712533e-01  -3.4241408e-01   4.7347846e-01   2.8732199e-01  -9.3425736e-01   6.7779529e-01   3.5356932e-01   3.1735571e-01  -4.7067010e-01  -5.3502253e-01  -7.7785975e-01  -3.8811592e-02  -8.1997335e-01   7.0312119e-02  -4.6145099e-01
   1.6946214e-01   4.4130618e-01  -4.1788065e-01   2.2998983e-01   8.1032386e-01   2.6375542e-01   2.7333003e-01   7.0640740e-02   5.3401027e-01  -8.6400055e-01   9.5161980e-01  -1.0317095e-01  -9.1075463e-02  -7.8452670e-02   6.2538083e-01   1.1351156e-01   5.9101064e-01  -3.4548985e-01   7.6769247e-01  -4.5426727e-01  -3.2948302e-01  -7.6932753e-01  -9.0705112e-01   7.8125182e-01   2.5496173e-01  -2.6830785e-01   6.5162759e-03   8.7926749e-01   7.7451579e-01   9.4489939e-01  -2.2972009e-02  -2.8795704e-01  -1.0477745e-01  -1.6524374e-01   2.8564939e-01  -6.1501035e-01  -1.2194362e-01  -4.2615487e-01   2.7826443e-01   8.4161250e-01  -1.0662949e-01  -7.0856936e-01  -4.8015331e-01  -3.6151112e-01   8.1302252e-01   9.3366990e-01  -9.0865908e-02  -8.5623035e-01   3.1669318e-01  -4.7140502e-01   2.2996737e-01   8.2710797e-01  -1.7189710e-01  -9.0599880e-01   5.0628939e-01   4.3252715e-01   4.1883943e-01   6.1105091e-01   5.8214777e-01   2.5484073e-01  -5.0785696e-01  -2.0061625e-01  -5.2477556e-01   1.2168141e-01   4.9150113e-01   4.6410626e-01  -4.5031736e-01  -3.0997058e-01   5.3709665e-01   9.1891285e-01   3.1479604e-01  -1.0441062e-01  -6.8400253e-02   7.8890370e-01  -4.6999607e-02  -3.8318553e-01   7.2661119e-01   8.5180252e-01  -9.2624467e-01  -9.1767471e-01  -7.3653694e-01  -2.3968565e-01  -4.4913044e-01  -7.5515277e-01  -8.4809497e-02   2.9545143e-01   7.4924526e-01   3.7135081e-02  -7.6478801e-01   8.2546675e-01  -1.2657825e-01   6.1935924e-01   7.0048062e-01   8.5926386e-01  -3.1429417e-01  -5.0051001e-01   4.4250355e-01  -1.7927134e-01  -8.2226589e-01  -8.3344663e-01   1.4038318e-01  -6.4930575e-01   2.7033936e-01  -8.2226083e-01  -6.2198505e-01  -4.3840086e-01   2.3564523e-02   1.1981109e-01  -2.2133934e-01   4.6029699e-03  -8.3295677e-01  -2.4800687e-02  -7.2424791e-01   3.8707619e-02   6.6880654e-01  -5.0067634e-01   7.6127769e-01   8.1583474e-01  -7.3214375e-01   4.9077274e-01  -3.2987322e-01  -5.8559986e-01  -1.5436887e-01   1.7126107e-01   8.5040257e-01   7.7720180e-01  -8.2436663e-02   9.7295317e-01   2.6011269e-02   6.2106335e-01  -3.0769340e-01   6.9071474e-01  -3.2934280e-01   6.3442865e-01   6.9485843e-01   3.6108684e-01  -1.8496241e-01   8.5252698e-01  -6.1553265e-01   9.7361670e-01   2.6134570e-01  -4.6814932e-01   4.6847470e-01  -1.8627243e-01   2.7856904e-01  -1.0879736e-01   9.4975254e-01   1.2801254e-01  -2.0046414e-02  -9.3558993e-01   7.5864655e-01  -1.2387894e-02  -3.0314391e-01   9.7455454e-01   1.4346744e-01  -4.0942322e-01   8.9165706e-01  -8.4755255e-01  -8.0988163e-01   7.3262002e-01  -7.0875658e-02  -6.2121323e-01   9.2572571e-02  -6.6338706e-01   3.9484644e-02   2.1412651e-01   7.6130743e-01  -2.0161110e-01  -9.9142455e-01   4.9440148e-01  -7.9688923e-01   1.1854164e-01   4.2957220e-01  -9.5650900e-01   8.0689049e-01   8.8399394e-01  -4.0944221e-01  -5.1783333e-01   1.2393662e-01  -4.6577092e-01  -8.6209407e-02  -3.3283631e-01   5.9829394e-01  -9.6716620e-01  -5.1814628e-01   8.8950086e-01   9.3567995e-03   8.3303072e-01  -5.1368894e-01  -2.3648140e-01   5.3417487e-01   5.1912382e-01  -2.3821970e-01  -8.1759510e-01  -9.6506585e-02   5.0138231e-01  -2.9828688e-01   4.5985365e-01  -2.8574465e-01   1.8942165e-01   6.1534901e-01   9.2224058e-02  -3.7440104e-01   1.5825209e-01  -1.0634877e-01  -9.4193696e-01  -5.3792323e-02  -3.1953653e-01  -4.5387145e-02   7.8677202e-01   8.4855622e-01   3.3420379e-01   5.1914622e-01   6.3285242e-01  -2.0758694e-01  -9.6011503e-01  -1.3539367e-01   3.8667864e-01   8.2004329e-01   3.1230894e-01   3.2367327e-01   2.6831490e-01  -4.9194984e-01  -7.0219665e-01   1.5976377e-01  -1.4958548e-01  -4.6835730e-01  -8.8554056e-01   8.4488336e-01   8.5633312e-01  -7.8855530e-01  -8.4271434e-01   8.3504429e-01   8.7558935e-01  -4.2394911e-01  -7.6598708e-01  -2.5385269e-01   4.2633888e-01  -5.2739590e-01  -6.5286155e-01  -4.3072054e-01   1.8002390e-01  -2.9607848e-01   2.2043727e-01  -8.3595254e-01  -8.4220649e-01  -4.9603384e-01   4.7364412e-01  -2.6471847e-01  -4.8821574e-01   3.1447784e-01  -1.2326719e-01   5.4478251e-01   9.5044994e-02  -4.7765914e-01   9.7015846e-02   5.5723112e-01  -5.0648556e-01   3.6879077e-01   9.1039891e-01   3.4635053e-01   3.8145444e-01  -8.4553803e-01  -5.4453924e-01   1.3250976e-01  -3.4932094e-01  -5.0076002e-01   3.6683874e-01  -4.4958653e-01   4.4437734e-01   8.3305677e-01   4.1657446e-01  -2.5576308e-01  -9.4490383e-01   4.9727493e-01   7.6401029e-01   4.1699266e-01   8.4422196e-01  -6.1967200e-01  -8.2305059e-01   8.4715760e-01  -9.8355197e-01  -4.8347717e-01  -5.7815441e-01  -8.5771853e-01   4.6963669e-01   6.3629451e-01  -8.7337501e-02  -9.3030282e-02   3.0410933e-01  -4.7614111e-01  -5.5382249e-02   8.5939270e-01   4.9098836e-01  -1.2874310e-01  -1.6651685e-01   9.7319726e-01   6.4673196e-01   3.3429809e-01   9.2994143e-01  -5.4508977e-01   3.6196956e-02   5.2206117e-01   7.8976222e-01  -4.2957610e-01  -4.6962722e-01   6.3141645e-01  -3.3415490e-02   8.1982281e-02  -9.0506699e-02   7.6614088e-01  -2.6279429e-01   1.3471004e-01   1.6282062e-01   4.9934984e-01  -5.2696108e-01  -3.5282537e-01  -8.4682679e-01   9.8406312e-01  -1.9942606e-01  -9.8271247e-02  -6.2669926e-01   9.6253212e-01  -9.9416181e-01  -4.5831855e-01  -4.2334264e-01  -9.9805413e-01  -5.8283255e-01   8.1668743e-01   8.5939191e-01   1.8244518e-01  -7.3692601e-01  -7.2192093e-01   3.8131540e-01  -6.3909427e-01  -9.5730996e-01   5.2774512e-01  -8.0509566e-02   8.9206793e-01   8.6065133e-01   3.2319660e-01  -9.0050076e-01   4.9469677e-01  -6.4410220e-01  -5.7119200e-01   3.9683090e-01  -7.0411254e-01  -1.0715771e-01  -9.0263607e-02   9.3425589e-01   9.4621616e-01  -3.5591882e-01   3.5124566e-01  -5.1857034e-01   6.3141966e-01  -2.5650042e-01   2.4207616e-01  -9.4923144e-01  -7.6090000e-01  -1.2119259e-01  -2.6658692e-01   7.2732925e-01   2.0960077e-01  -7.5203031e-01   9.5916529e-01  -3.1847961e-01  -1.8876420e-01   6.9337248e-01  -5.8480606e-01  -9.6681596e-01  -2.5725004e-01   1.8413203e-03  -2.7841697e-01  -3.6235565e-01  -2.0720126e-02   4.6392977e-02   7.9374082e-01  -4.1296875e-01   4.1975462e-01   7.6597569e-01   3.2860989e-01   6.8118420e-01  -7.7556587e-02  -3.1037975e-01   1.6336895e-01  -7.1135547e-02  -2.6722023e-01  -5.4003141e-01   8.1758819e-01  -3.7137170e-01  -8.2310018e-01  -9.4054242e-01  -8.4134025e-01   2.2059997e-03  -7.5009288e-01   5.2799755e-02   7.8230170e-02  -9.3271683e-02  -1.7829988e-01  -9.4230077e-01  -8.9311099e-01  -2.8257854e-01  -6.8113366e-01   1.6563536e-01   1.8858522e-01   7.0502662e-01   1.3035919e-01   4.3265324e-01  -4.4938038e-01  -5.9149262e-01  -7.1966842e-01  -4.4170468e-01   9.7991014e-02  -4.0679762e-01  -4.1846808e-01   3.3100370e-01   4.9070656e-01  -5.8899561e-01   2.3937483e-01   3.1984654e-01   8.4520096e-01   2.4093037e-02   2.3628528e-01   1.3532444e-01  -3.3896055e-01  -3.6260633e-01  -6.3733499e-01  -1.6731499e-01  -5.7682100e-01  -3.8118940e-01   3.9449562e-01  -7.4384734e-01   6.7857985e-01   6.7780576e-01   8.7304172e-01   7.2573730e-01  -8.1192406e-01   4.4568063e-01  -8.1380583e-01  -9.0528044e-01   6.3861190e-02   6.9117962e-01  -1.9595384e-01   9.1948053e-01   8.8484517e-02  -4.4982890e-01  -6.7484529e-01   8.0029344e-01   4.9445919e-01   5.2664929e-01   6.3816167e-01  -4.5475695e-01  -1.9100660e-01   3.3951619e-01   2.7384919e-01   4.6883340e-01  -8.8140438e-01  -7.8740557e-01   8.0190761e-01  -5.4763446e-01  -1.4175207e-01  -9.2588732e-01  -6.2193570e-01  -4.9026522e-01   4.6909432e-01  -9.2658853e-01   9.5714942e-01  -3.5092924e-01  -8.5728503e-01  -9.5130512e-01  -3.4247559e-01   2.3145879e-01   6.7872355e-01   4.3920850e-02   4.0626155e-01   8.0026285e-01  -6.9654439e-01   2.6050046e-01   5.5816164e-01  -5.1655831e-01  -7.2572976e-01   7.7680670e-01   4.2019662e-01   9.9496626e-01   1.1978629e-02  -6.0413501e-01   7.0631031e-02   6.7820184e-01   9.8310467e-01   9.3684170e-01  -9.3192994e-01  -5.9347506e-01   1.7340519e-01  -2.7097177e-01   7.0472847e-01   3.2941302e-01   7.5457319e-01  -6.2711811e-01   6.9701247e-01  -3.9653187e-01  -8.4399868e-01  -6.8673798e-01   2.2564533e-01  -4.4160653e-01  -2.7901541e-01  -3.9007956e-01   1.9057666e-02   9.0952579e-01  -6.6406084e-01  -2.3281128e-02  -8.6580571e-02  -5.1008710e-01   4.5058826e-01  -3.3639843e-01  -8.1497622e-01   1.3466332e-01  -7.4515515e-01   2.6717388e-01   1.7658267e-01  -7.2758668e-01  -4.3275597e-01  -7.2650229e-01  -1.3796872e-01   6.9605945e-01   3.3504390e-02   7.0021677e-01   8.6895678e-01   2.5549006e-02  -9.0884054e-01  -2.9822612e-01  -9.1978400e-01  -7.1942239e-01   6.9952377e-01  -1.6962829e-02  -4.6499724e-01  -2.4191532e-01   4.4722428e-01  -3.7021176e-01   3.2273810e-01   8.9778420e-04   8.2289192e-01  -6.9899727e-01   7.1854650e-01  -9.3650373e-01  -8.1637283e-01  -3.6065174e-01  -5.5311002e-01  -6.6246911e-01  -5.4664613e-01   3.1904104e-01   8.2021773e-01   3.3257986e-03  -9.1637820e-01  -6.8276535e-01  -9.9932554e-01   4.3890164e-01   5.6168844e-01   9.6271471e-01  -7.1587834e-01  -2.1232823e-01  -5.1801083e-01  -2.7949029e-01   8.1424020e-01  -9.9275851e-02   7.9968348e-01   4.7008692e-01  -4.6562776e-01  -1.1122305e-01   8.0461354e-01   8.0037705e-02   4.3922897e-01   9.6798980e-01   2.0426535e-02  -4.0771997e-01  -1.6261042e-02   5.8457044e-01   5.7811413e-01  -2.7254473e-01  -3.8492722e-01  -9.8501654e-01   1.3779055e-01   4.8530479e-01  -4.9721385e-01  -3.8044072e-01   5.6101667e-01   4.6867677e-02   4.7027032e-01  -3.6868848e-01   7.6785871e-01  -1.6140668e-01   5.7656327e-01  -5.6592033e-01   9.6904361e-01   2.2767298e-01  -2.7571316e-01  -3.8706944e-01   2.0833136e-01  -4.2642764e-01   4.5792412e-01  -4.7154520e-01  -8.2613736e-01   3.1542523e-01   7.8620338e-01   8.4019818e-02   7.3635044e-01  -6.2339068e-01   9.4040699e-01   1.5747385e-01  -3.9758251e-02  -5.2793173e-01  -7.6414513e-01  -5.4855519e-02  -6.1050940e-01   8.8875524e-01  -9.2937384e-01   7.3161387e-01   9.2296035e-01   4.0732471e-01  -8.2908536e-01  -5.1719495e-01   9.2101289e-01   6.8493137e-01  -5.9247212e-01   1.6550165e-01   2.1789314e-01   1.0249622e-01   1.9449500e-01  -8.8291235e-01   3.5734821e-01   6.5359328e-01  -1.1145501e-01   6.3476276e-01   8.0869546e-02   4.4067480e-01   3.8937760e-01  -5.9907760e-01  -2.2086561e-02   9.1298397e-01  -9.8327181e-01  -5.6984401e-01  -5.5993028e-02  -1.3326415e-01   5.6535625e-02   3.3961629e-01  -9.9647686e-01  -1.7855849e-01   2.9252526e-02   9.9237343e-01   6.3030350e-01   5.3268969e-01   7.4439138e-01   4.3638599e-01   6.8669639e-01   2.1530102e-01   3.1872241e-01   7.8633097e-01  -8.3103619e-01   6.5087756e-01  -9.8923688e-01  -1.7774473e-01   8.1099307e-01  -1.5144852e-01   8.0261745e-01   6.9427889e-01  -1.0590040e-02  -8.4129611e-01  -2.8698914e-01   9.8436756e-01  -5.0682504e-02  -6.6829440e-01   2.0862557e-01   6.9395307e-01  -4.6163467e-01   7.7234622e-01   7.8860301e-01   1.6825497e-01   9.5807451e-01   8.5524570e-02  -5.7109447e-01   1.1155573e-01  -8.8195782e-01  -7.7056431e-01   4.4927587e-01   9.1902478e-02  -4.3516794e-01   1.2616207e-01  -4.7446003e-01  -9.4986381e-01   1.6747294e-01   9.7925543e-01   5.8577274e-01  -9.2210394e-01   5.0863881e-01  -6.0520498e-01  -1.7026789e-01  -4.4714488e-01  -2.8108339e-01  -8.1605160e-01   1.3102223e-01  -7.1106402e-01  -8.4402826e-01  -9.5087553e-01   5.5256764e-01  -2.6431892e-01  -4.9892119e-01   8.6196770e-01  -6.5724215e-01  -3.9200335e-02   1.1093302e-02  -1.9676593e-01  -8.1750664e-02  -9.4012178e-01  -2.7449165e-01   2.7927405e-01   2.7208258e-01   6.5739897e-01  -5.0978124e-03   2.3511337e-01  -1.8371899e-01  -2.4472048e-01  -7.7856935e-01   9.6651356e-01   3.1158410e-02   2.2714564e-01  -6.2511321e-01   6.0550483e-01  -7.3030312e-02  -7.2656562e-01  -7.6157301e-01   3.2338187e-01  -9.8247606e-01  -8.8512544e-01   3.9617697e-02   5.4403029e-01  -6.0197243e-01  -9.5874427e-01  -4.9346927e-01  -1.3507678e-01   8.4740064e-01   1.5970344e-01   5.3533479e-01   1.5557400e-01   3.8020963e-01   5.3132874e-01   7.0223536e-02  -5.7538313e-01   9.5514278e-01   8.8270457e-01   2.3603956e-01  -6.2181188e-01   2.5194540e-01   8.6155872e-01   6.2443827e-01   1.3845580e-01  -4.5548963e-01   7.1022502e-02   7.6601423e-01   2.1673872e-01   8.0089772e-01  -6.8027021e-01  -7.6786802e-01   4.8736327e-01   9.0548996e-01  -3.4757510e-02   4.4969716e-01   4.3708166e-01   2.0522100e-01   5.8905023e-01   6.4275945e-01  -2.7052776e-02  -5.0886603e-01  -3.5542111e-01  -7.9954879e-01   4.0210228e-01   6.2796371e-01  -1.1153481e-01   5.3250654e-01   8.3681429e-01  -8.9129327e-01   1.3965162e-01   3.5931914e-01   4.6714945e-01  -3.2175126e-01   5.1905701e-01  -6.2685433e-01   5.8569956e-01  -3.8539110e-01   4.2874450e-01  -3.6050199e-01   8.2562152e-01   4.6401928e-01   6.1547952e-01   1.4210968e-01   1.0032027e-01   2.0161016e-01  -1.4825526e-01   7.1394563e-01  -3.7568968e-02   8.9970990e-03   2.8020615e-01  -2.9158964e-01   8.9502946e-01  -3.2060690e-01   7.0322113e-01   7.0055185e-01  -6.5281124e-01   5.5056094e-01   5.4755811e-01   7.1721828e-01  -7.9285395e-03  -7.5462076e-01  -4.8366200e-01   1.0395423e-01  -3.0016356e-01  -8.9523922e-01   8.1602750e-01  -3.9204935e-01   5.8220396e-01   3.2429877e-01  -7.0034430e-01  -8.0387280e-01  -3.1316065e-01   8.8230968e-01  -3.6636473e-01  -7.8066070e-01   2.3846040e-01  -2.0115225e-01  -4.3163693e-01   1.5139347e-01  -2.5825582e-01  -1.8723558e-01  -7.0975621e-01  -5.7501921e-02   6.6338198e-01  -4.8801487e-01  -3.3315566e-01   4.7750049e-01  -6.2489802e-01   5.0621191e-01  -8.5860580e-01  -9.4654235e-01   6.1441647e-01   6.4739383e-01  -5.7241785e-01  -4.8853906e-02  -1.9933929e-01   7.0060050e-01  -9.0930202e-01  -1.7256215e-02  -7.3238690e-01   3.8293925e-01  -8.1150076e-01  -9.8820577e-01   5.2140610e-01   7.5669866e-01   3.6319751e-01   9.6591039e-01   2.9978278e-01  -4.7608515e-01  -7.6644927e-01   5.1955385e-01   8.8829168e-02  -1.9566784e-01   6.3115107e-01   1.4237974e-01  -8.8984572e-01  -2.1130213e-01   2.3540762e-01   5.4987417e-01   4.5484906e-01   8.4421155e-02  -5.7179893e-01   2.1183764e-01   9.4777847e-01  -4.8984091e-01  -4.3541163e-01   8.3979842e-01   7.6527758e-01  -4.4095568e-01   8.9478415e-03  -6.6826397e-01  -8.8728980e-01   8.6196328e-01   1.8840922e-01  -6.1731245e-01  -6.7127720e-01  -4.6423130e-01  -9.2779860e-01  -9.6461055e-01   8.7983903e-01   2.7633826e-01   5.6967292e-01  -2.6457399e-01   4.1671437e-01   5.9029887e-01  -7.4420740e-01  -6.1263020e-01   5.2844228e-01  -7.1372176e-01   4.0160415e-01  -9.9327794e-01  -1.4286528e-01  -1.6749347e-01  -3.7584621e-01  -9.2045041e-01   3.7500125e-01  -6.5919497e-01  -7.5666633e-01  -6.2800987e-01  -1.0900828e-01   1.3825471e-01   5.3954909e-01  -3.1266885e-01   8.8766556e-02   1.5164929e-01  -8.7998043e-01   4.0968678e-01   2.5140287e-01  -1.1607492e-01  -4.3062363e-01  -1.4958428e-01  -6.1879125e-01  -9.0387771e-01   6.6143533e-01   4.6843667e-01   4.4738235e-01   6.0599143e-01   2.1729560e-01  -1.9439364e-01  -8.0888503e-01   4.3382889e-01   7.1585496e-01  -6.2827695e-01   4.1448655e-01   3.6077651e-01  -2.6121226e-01   8.0061397e-01   1.7615151e-01   5.0612819e-01   1.3046371e-01  -9.2915753e-01  -7.8447864e-01   1.5325627e-01  -6.0622094e-02  -7.1282018e-01   4.5622367e-01   8.2288420e-01  -3.8225635e-01   3.7341293e-01  -1.4687837e-01   1.2463270e-01  -8.3059763e-01   4.1880714e-02   3.6082955e-01  -8.1950922e-01   2.7300652e-01   8.5028742e-01   8.2154134e-01   3.3349313e-01   1.7819198e-01  -8.8833309e-01   9.1720151e-03   5.8663013e-01   2.0687533e-01  -8.7147324e-02  -1.3360506e-02  -9.5017223e-01  -9.6644262e-01   2.3051937e-01   9.5977954e-01   8.2930373e-02  -8.0735848e-01   4.9312448e-01   3.5447543e-01  -8.9764593e-01   3.8056281e-01   8.1915347e-01  -7.6675478e-01   8.1375269e-01   6.0138997e-01  -3.5834578e-01   6.7671752e-01  -1.2579546e-01   3.4961030e-01  -9.1017643e-01  -2.5093711e-01   6.3802134e-01   1.9162718e-01  -5.9990729e-01  -1.4401365e-01   2.8249508e-01   1.3633132e-01   4.9279593e-01   4.9540948e-01  -3.5242467e-01  -9.5329948e-01  -4.1170657e-01   1.7808565e-01  -2.1947036e-01  -9.6555930e-01
   3.2434254e-01  -8.2938764e-01  -2.2210991e-01   4.3352004e-01   1.4665748e-01  -7.5051035e-01  -1.1174249e-01   5.5434369e-01  -5.3334027e-02   7.4926382e-01  -5.3624551e-01   3.3653894e-01   1.3290140e-01   7.6492210e-01   9.6192266e-01   4.4068357e-01  -7.8947621e-01   9.8999533e-01   7.1684607e-01   2.5509684e-01   6.8360066e-01  -3.4511725e-01  -7.7064706e-01  -1.0133074e-01  -6.5566116e-01   7.2629907e-01   2.8834066e-01  -2.6987817e-01   4.9187853e-01  -7.2832071e-01  -6.7588504e-02  -1.4504635e-01   3.5145235e-01   2.9504062e-01  -4.8327385e-01   9.5620309e-01   4.2832194e-01  -7.1594858e-01   9.8199822e-01   9.2425032e-01  -7.6423891e-01   5.6254806e-01   6.4435752e-01  -3.4320945e-01  -7.7938015e-01  -3.0252655e-01   1.2203043e-01  -2.6453700e-01   7.3518409e-01   7.9095433e-01  -2.8520338e-01  -9.5952014e-01   1.4856395e-01   4.0146156e-01  -5.4517068e-01  -5.0865682e-01  -3.0528627e-01   7.8750105e-01  -5.2185903e-01  -4.1275969e-01   3.2270557e-01  -6.8544521e-01  -4.4720246e-01  -6.9847367e-02  -4.0292667e-01  -9.4119785e-01  -8.4232605e-01  -4.2906117e-01  -3.3374175e-01  -4.0400259e-01   9.5963184e-01  -1.7239393e-01  -3.2697586e-01   2.4813034e-01  -6.3076574e-01   4.6028211e-01   3.0756065e-01  -4.3860735e-01  -3.1388109e-02   8.5903775e-01   8.9193860e-01  -6.7918751e-01   9.3291331e-04   6.9508985e-01   2.6950434e-01  -5.2205478e-01   2.9396879e-01   9.7993799e-01  -2.3623628e-01  -9.6160838e-01  -6.2458773e-01   4.2724542e-01  -7.3882982e-01  -2.8568762e-01   9.9107479e-01  -7.4336242e-01   4.9401399e-01   6.9492548e-01   9.3330059e-02  -1.3453765e-01  -1.6878030e-01   9.0336389e-01   6.2060255e-01   7.1636884e-01  -1.9811514e-01   9.5390621e-01  -2.6468146e-01  -7.5915653e-01  -5.6309065e-01   4.0948583e-01  -9.6286231e-01  -2.7617348e-01  -1.2039482e-01   2.4815524e-01  -5.4100201e-02  -1.8527710e-01  -9.6503398e-01  -4.9290092e-01   4.2231429e-01   5.6149326e-01  -1.3652584e-01   7.9084231e-03   4.6530941e-01   9.9371008e-01  -8.7017095e-01  -9.9878223e-01  -3.5880932e-01  -4.9862756e-01  -8.0938360e-02  -7.5913544e-02  -9.2861366e-01   8.0824870e-01  -1.2234834e-01   5.9593140e-01   1.2159557e-01  -6.9736389e-01   7.7479297e-01   8.4566663e-01   4.3443086e-01   7.1335069e-01   9.0201097e-01   5.9404797e-02  -7.4481991e-01   1.9740988e-02  -6.1200675e-01   9.6771182e-01  -5.9539986e-01  -4.7868230e-01  -4.3565647e-01   1.8127262e-02   1.3379329e-01   5.5020178e-01   1.4225488e-01   5.5044615e-01  -8.2053660e-01   6.0194804e-01  -4.2718804e-01  -8.3150811e-01   8.3446563e-01  -6.7852494e-01   3.8504623e-01  -2.6172547e-01   4.4317708e-02  -5.6531651e-01   9.9658619e-02  -7.6698829e-01  -5.5168487e-01  -3.7040524e-01  -8.7485381e-01   5.5084067e-01  -1.3791842e-01   3.2302646e-01   7.4349198e-01   1.5607992e-02   2.7718271e-01  -4.5664729e-01   1.2031892e-01  -3.3031105e-01   1.7240971e-01  -7.0380080e-02  -9.1070943e-01   7.1374958e-01   8.2388471e-02   2.3315352e-01  -5.1251005e-01   6.5577080e-01  -2.4675103e-01   9.4593924e-01  -6.3278161e-01  -8.1483107e-01  -5.3580143e-01  -9.7513718e-01   3.9647661e-01   6.6456332e-01   2.6268273e-01   7.6433175e-01  -3.1797923e-01   9.0437281e-01  -8.8742023e-01   5.0874954e-02   9.4388748e-01  -7.1107808e-01  -8.0226015e-01   2.2583935e-02  -1.1885767e-01   8.0443958e-01   2.5350444e-01   5.3449805e-02  -1.6145372e-01   2.6850885e-01  -9.1838385e-02  -4.2943809e-01  -7.2306571e-01  -8.2761811e-01   7.0421406e-01   6.2354502e-01  -8.7260251e-01   4.3913592e-01   5.4809480e-01   4.7848592e-01   2.2499551e-01   4.1778903e-01   9.1455802e-01   4.3772022e-01  -3.7153273e-02  -5.2707643e-01   6.6040010e-01  -5.9667532e-01  -9.9229504e-02   6.2039535e-01  -1.1191262e-01  -6.7054887e-01  -7.1438503e-01  -4.0528602e-01  -5.9025046e-01   1.7049925e-01  -3.8479558e-01   5.0122145e-01  -1.1596106e-01  -2.6133048e-01  -5.2871388e-01   9.1452962e-01   8.6274578e-01  -9.7044472e-01   2.6421938e-02   2.3807772e-01  -6.7186204e-01  -4.9238084e-01   2.9994905e-01  -5.7831499e-02   5.4545897e-01   3.1356468e-01   2.7938702e-01  -9.0031939e-01  -5.4525426e-01   5.5517721e-01   7.6043993e-01   9.0306944e-01  -8.7693937e-01   9.4766061e-01   4.5300222e-01  -1.4356054e-01   4.9320587e-01   8.7755215e-02   5.7480573e-01   8.4678999e-01   9.6224151e-01  -3.1399415e-03   1.5392459e-01  -4.0160445e-01   1.2080028e-01   3.5257583e-01   6.1622936e-01  -8.1141405e-01  -9.0352314e-01  -9.0141339e-01  -6.4774762e-03   8.9173424e-01   1.8457543e-01  -4.2605770e-01  -9.5898532e-01  -2.2856774e-01  -5.4088534e-01  -1.0356175e-01  -2.8102806e-01   2.5516618e-01  -4.2482652e-01  -5.3383792e-01   8.7801134e-01   3.6029446e-01  -8.6937500e-01   6.5323384e-01   2.9909915e-01  -3.9288100e-01   4.8016926e-01  -1.0426241e-01   2.8588167e-01   7.8781924e-01   6.1277998e-01   4.6771087e-01  -4.4995480e-01  -5.8970005e-01  -9.5924902e-01  -4.3298266e-02  -9.5904429e-01  -3.7432598e-01  -4.9403140e-01   3.4765434e-01   6.2497216e-01  -5.2177983e-01   7.4577825e-01   7.0687507e-01  -9.8707403e-01  -2.5674626e-01   2.9133860e-01  -1.8541623e-02  -4.3405867e-01   8.5269904e-01  -7.1122228e-02   1.7522777e-01  -5.3691330e-01   4.8363373e-01  -4.0713095e-01  -6.9420373e-01  -8.3306398e-01  -8.2108608e-01   7.8540949e-01  -2.8590061e-01  -1.1567173e-01  -7.0553010e-01  -9.4175706e-01  -9.6971806e-01   7.7778421e-01   5.7599527e-01  -7.3639449e-01   3.4607474e-01   3.9269336e-01   1.1623290e-01   6.9246808e-01   1.8459708e-01   6.3444575e-01  -1.9087017e-01   3.2706031e-01   4.2002257e-01   6.0099417e-01   5.4521891e-01   1.7562570e-01  -9.4007468e-01   5.2866799e-01  -5.7780672e-01   4.9515035e-01   4.3796614e-01  -1.1646888e-01  -1.4640399e-01   6.5599547e-01   4.1549173e-01   4.6614461e-01   8.4528640e-02   4.4192536e-01   2.9129835e-01   6.6068193e-01   8.0600085e-01  -4.8088709e-01   6.4158091e-01  -6.9898984e-01  -7.8253961e-01   4.9686242e-01   6.8903713e-01   6.1068764e-01  -9.3020984e-01   4.5023845e-01  -7.8232768e-01  -5.1972201e-01   6.2774239e-01   6.3017652e-01   7.1953549e-01  -6.7979143e-01  -2.8628427e-01  -9.8625985e-01   5.9427564e-01   8.7875009e-02  -4.5473059e-01  -9.9858339e-01   7.9096111e-01  -4.3603967e-01  -7.5201815e-01  -8.6773381e-01   7.3589963e-02   2.6213919e-01  -1.0015650e-01   6.0109484e-01  -8.4945209e-01  -8.9546438e-01   5.8794908e-01   7.5515166e-01   3.9364631e-01  -5.3185393e-02   2.4036215e-01   9.9597343e-01   9.5925575e-01   4.9051220e-01   6.5196867e-01   3.7567057e-01   6.2777161e-01  -5.3798051e-02  -6.6137266e-01  -9.9135914e-01   4.3083776e-01   4.1258607e-01   7.5586287e-01   3.5495354e-01   7.8762249e-03   7.2974507e-01   5.6436515e-02   1.1544849e-01   2.6505517e-01   2.0632357e-01   3.7993558e-01  -9.6582242e-01   1.2175534e-02   3.3851062e-01  -1.6717691e-01   6.5040926e-01   8.6461299e-02  -4.1788550e-01   7.4959879e-01   6.9409393e-01   4.9890905e-01   2.2868606e-01  -6.6069570e-01   9.3960804e-01  -4.4187628e-01  -7.9030461e-01  -6.1337925e-01   6.3750006e-01   9.6673033e-02   8.0880576e-01  -2.3540200e-01   7.0040625e-01   2.8434153e-01  -4.3437946e-01  -9.4081931e-01   1.5822541e-02   8.9848266e-02   3.4585051e-01  -3.8694678e-01  -8.4335978e-01  -8.3614033e-01   8.0845355e-01   5.4088489e-01   9.7972759e-01  -8.0479000e-01  -6.7660120e-01  -1.3213697e-02  -3.3289951e-02  -5.6868401e-01   2.2140105e-01   9.3014910e-01  -9.3702019e-01   3.1575245e-01  -8.5887980e-01  -9.1188825e-01  -7.1796358e-01   5.4229638e-01  -5.4735407e-01  -2.1508348e-01   9.5829627e-01  -1.8380609e-01  -2.1349837e-02   7.9403834e-02   9.3098268e-02   9.7565387e-01  -5.5820834e-01  -4.6407227e-01  -1.0776475e-01   3.0318428e-02   2.0716781e-01  -3.3457491e-01   1.2220756e-01  -6.6699939e-01  -7.8016462e-01  -6.8794821e-01  -7.0003400e-01  -2.8472109e-01  -1.5088783e-02   4.9507012e-01  -5.9520961e-01   8.9671683e-01  -9.5473700e-01  -7.9292164e-01  -9.0261479e-01  -6.3429354e-01  -5.0284550e-01  -3.0804384e-01  -6.6859980e-01  -3.5736443e-01   3.1525204e-01   5.5963374e-01   3.6200936e-01   2.9353071e-01  -4.9927448e-02  -9.5175871e-02  -2.9424483e-01   9.8115646e-01   5.8275645e-01  -4.8743783e-01  -7.8798870e-01  -7.3978896e-01  -2.6210225e-01   9.6431461e-01   4.7306234e-01  -5.5098791e-01  -8.0567382e-01  -1.5457091e-01   4.5796488e-01   6.9867324e-01   6.4146280e-01  -4.3060253e-01  -4.5950735e-01   7.6980354e-01   1.1807533e-01   7.9361177e-01  -8.3301253e-01   2.7375472e-01  -1.4128779e-01   1.8320866e-01  -5.3468894e-01  -9.7525768e-02  -1.3616743e-02  -6.8942807e-01   6.8150306e-01  -9.7225115e-01   7.2341000e-01  -6.7474852e-01  -7.6136559e-01   8.1102934e-01   6.5284802e-01   1.4714952e-03   4.7252738e-01   9.9129239e-01   4.1352295e-02   9.4085553e-01  -9.7683027e-01  -2.1993230e-01   7.3313560e-01   8.7997851e-01  -6.2486795e-01   7.9545531e-01  -3.9713474e-01   7.0428646e-01   8.3566284e-01  -6.4178507e-02   5.2026537e-01   9.9360536e-01   8.1743655e-01   1.9620051e-01   6.1147334e-01   4.8663469e-01  -9.0112643e-01   1.8305603e-01  -1.2602146e-01   7.0243891e-01  -6.5445986e-01   1.8135435e-02   5.7605633e-01   1.8040155e-01   5.2771088e-01  -3.6591146e-01   8.9074986e-01   7.7673815e-01   5.9236050e-01   5.4168477e-01   5.8458976e-01   9.1487398e-01  -2.1899186e-01  -8.1658135e-01  -9.6694244e-01  -1.1913883e-01  -5.7443486e-01   5.7314063e-01  -5.4096174e-01   5.8102606e-01   9.5460446e-01   7.1696717e-01  -6.6751976e-01   9.9160695e-01   4.8597889e-02   4.6102992e-01  -8.8666000e-01  -7.8435618e-01   7.6744138e-01   5.4305832e-01   5.2539490e-01   6.8840471e-01   8.2298187e-01   2.7537091e-01   5.4676051e-01  -5.9799888e-03  -6.8414184e-01   3.7948472e-01   4.2676504e-01   1.1005222e-01   6.4770369e-02  -2.8128139e-01   3.7036245e-01   5.9817102e-01   8.4738207e-01  -1.9084053e-01  -7.5290562e-01  -7.1594471e-01   3.7304155e-01  -9.1956081e-01   6.1720734e-01   4.1272326e-01  -1.2581725e-02  -9.5764164e-01  -2.8711366e-01   6.0003481e-01  -7.6660147e-03   8.0958357e-01  -5.0128931e-01  -4.1874449e-01   6.5337100e-01   8.3457144e-01   6.9565533e-01   8.6626875e-02  -4.4441908e-01  -5.0515038e-01  -1.4538725e-01  -3.2681938e-01   4.4845695e-01   8.6159157e-01   4.1825624e-01   7.0322557e-01   1.2174761e-01  -2.4458742e-01   7.1144754e-01   6.0431207e-01  -2.0687794e-01   3.0996045e-01   9.7359750e-01  -7.5117699e-01   8.8841897e-01  -8.8688264e-01   5.1452366e-01   3.5777718e-01  -1.4755577e-01  -8.6065674e-01   5.3865745e-01  -8.3658306e-01   1.1079489e-01  -2.0334205e-01   6.9250800e-03  -7.9406366e-01  -4.1389237e-02  -6.5923448e-01   2.5329556e-01  -4.4707682e-01   8.9318006e-01  -1.2692512e-01  -8.0503839e-01   5.7744550e-01  -2.2623198e-02  -7.7767792e-01   9.0041199e-01   6.5669875e-01  -3.0830660e-01  -2.4363619e-02  -1.8241387e-01  -8.2966280e-01   5.2068828e-01  -7.6738426e-01   4.0427202e-01   4.9271354e-01   4.4940879e-01  -1.7509811e-01  -1.0151448e-01  -4.2678721e-01   1.2017188e-01  -2.4106647e-02   8.4814341e-01   1.2175369e-01  -7.2591723e-01   4.5008379e-01  -9.2313941e-01  -1.0768727e-01   2.4010864e-01   2.6125908e-01  -9.8970821e-01  -6.4558845e-01   8.9169825e-01   8.6697175e-01   7.5111022e-01  -7.7746295e-01  -6.8682701e-01   6.5352804e-01   8.5387328e-01  -8.8094179e-02   9.3082496e-01  -3.0651077e-01   9.3992371e-01  -9.6531580e-02  -4.9057140e-01   1.8633118e-01  -1.0433251e-01  -2.5981173e-01   8.6391708e-01   4.8477520e-01   5.1086260e-01  -8.7099840e-01   3.0820426e-01   1.4693414e-01   2.5690367e-01   6.5599559e-01  -5.1646426e-01  -1.7243134e-01   7.5804694e-02   7.8134929e-01   1.9720781e-01   8.0285860e-01   5.6739711e-01   4.6051498e-01   9.5291904e-01  -4.5458169e-01  -4.7199693e-02   3.0961383e-01   3.2067018e-01  -1.6592407e-01   1.0822094e-01  -4.4126760e-01  -6.9219850e-01   8.7200684e-01  -7.7991866e-01   8.8108181e-01  -3.2647379e-01   1.8781199e-01   9.6416581e-01  -2.6135024e-02   1.6491158e-01   9.9403799e-01   7.3815145e-01   6.7267800e-01   1.6430732e-01   3.6434085e-01  -5.8797657e-01   8.7350739e-01  -6.9570014e-01   4.1436869e-01  -7.8977317e-01  -8.3855009e-01   7.6268846e-01   8.2802206e-01   4.6769420e-02  -2.4946182e-02  -1.0937080e-01   3.2897442e-01   5.9643329e-01  -6.5152970e-01   3.3824546e-01  -2.5421406e-01  -8.0711322e-02  -1.5974261e-01   7.0575839e-01  -6.6847573e-01   2.0031833e-01   3.6842794e-01   9.0848491e-03   1.3106664e-01  -3.5095070e-01  -1.1522121e-01   4.7434705e-01   1.7450910e-01  -8.8175768e-01  -2.8367091e-01  -2.8580007e-01   4.1614505e-01  -9.7600981e-01   8.1465839e-01   1.4057418e-01   7.1379967e-01  -8.9309897e-04  -7.9137312e-01   3.2701835e-01   8.4970785e-01  -5.2648581e-01   7.2245835e-01   9.7655372e-01   3.5780355e-01   7.5223094e-01   8.9151037e-02   8.6054281e-01  -6.9719502e-01   1.2775674e-01  -8.2070528e-01   5.3981557e-01   5.1391708e-01   7.1143718e-01  -3.9609911e-01   9.3720358e-01   2.2228128e-01   7.2653282e-01  -5.0204049e-01  -7.4560984e-01   1.9542907e-01  -1.9411952e-01   8.8451534e-01  -8.4751130e-01  -7.3598699e-01  -9.1378862e-01   8.3693057e-01  -3.6698976e-01   6.4505991e-01   8.4677198e-02   4.9075853e-03  -5.3663677e-01  -9.2127474e-01   4.2580852e-01   9.5965247e-01   2.9644662e-01  -1.8846234e-01  -7.1517567e-01   6.2724565e-01  -9.3553052e-01   4.0492896e-01  -2.6446901e-01  -1.1434145e-01   3.9454725e-01   6.1741291e-01   8.2232925e-01  -2.4544254e-01  -5.1064191e-01  -5.6193671e-03  -6.8477628e-01   6.6539766e-01   1.6979548e-01  -5.7416603e-01  -8.0340419e-01  -2.0298195e-01   8.8849677e-01  -5.0200545e-01  -5.4914879e-01   8.3637331e-01   7.5963764e-01  -6.0116471e-01  -6.1639250e-01   7.3417392e-01   2.3587610e-01  -7.1659571e-01  -1.3510481e-01  -3.1571602e-01   3.4929119e-01  -9.5824179e-01   8.4306179e-01   5.0376113e-02  -6.2248167e-01   7.8537575e-01  -1.0926480e-01   2.2288148e-01  -8.4686854e-01   6.6073964e-01   6.9558595e-01  -4.9817621e-01  -1.4993598e-01  -2.4795170e-01   6.2174876e-01   4.3183631e-01  -2.3167889e-01  -8.7596051e-01  -1.4242194e-01  -1.4209452e-01  -1.6200794e-01   8.1429811e-01   4.5852585e-01  -2.7123307e-01   7.3741549e-01   7.8248348e-01   9.9264358e-01   1.6771477e-01   6.7038804e-01  -3.9183866e-01  -4.1920093e-01  -4.4747737e-01  -6.0378343e-01   5.6096657e-01   2.4949472e-01   9.0403147e-01   2.8600065e-01  -9.7210377e-01  -4.2149522e-01   1.1789939e-01  -6.9256321e-01  -5.0834286e-01  -9.4547985e-01   6.0167161e-01   9.8985554e-01  -2.2204982e-01   8.8012825e-01  -7.5108060e-01  -7.1974735e-01   7.2018680e-01  -5.8118621e-01   1.3244295e-01   1.2041367e-01  -4.2291864e-02  -7.4477662e-01  -3.0357095e-01   9.7195800e-01  -3.4106826e-01   7.8860859e-01  -9.5983309e-01   7.4962194e-01   4.2614633e-01  -7.5041304e-01   6.4286807e-01   1.4620567e-01   6.0283323e-01  -7.9137484e-01   6.1645106e-01   1.3413311e-01   5.3465342e-01   6.3225366e-01   5.2340448e-01   9.6526811e-01   1.3115636e-01   2.5944404e-01   8.7929553e-01  -2.7190180e-01   5.2794040e-01  -1.4864904e-01  -8.2169213e-01   5.6005794e-01   3.9611211e-01   8.6401716e-01   1.7277149e-01   6.4865075e-01   2.9147752e-01  -8.0247835e-01   6.1526156e-02  -4.6994705e-01   8.0265945e-01   1.4000197e-01  -9.3822374e-01  -5.9198152e-01   2.5985491e-01  -8.9568845e-01   3.2154612e-01   2.6472824e-01   1.1940011e-01   4.7894835e-01  -5.7256444e-01   4.8923882e-01   3.4512466e-01  -8.5690033e-01  -6.4985592e-01   5.9269836e-02   1.3295844e-01   1.7295638e-01   3.7412510e-02  -5.8894917e-01   6.3381400e-01   7.0193777e-01  -7.7149231e-01  -7.1342873e-01   4.2144628e-01  -4.7483313e-01   4.5509966e-01  -8.5041973e-01  -4.8505246e-03   7.1384752e-01   1.3859963e-01   2.8089483e-01  -7.6561463e-01  -5.2716909e-01  -2.4646965e-01   8.7722049e-01   2.0137853e-02   1.3546566e-02   3.2087491e-01   4.5232042e-01   8.9194040e-01  -7.0162501e-01   4.7780836e-01   9.2862949e-01   9.4045351e-01  -5.3730393e-01   1.9005261e-02  -6.1426902e-01   5.1028910e-01  -2.1022440e-01   1.2166754e-01   1.0347481e-01   3.9381681e-03   7.2816843e-01   1.2025311e-01   4.0034840e-01  -2.5623225e-01  -2.2705848e-02  -7.7672190e-01  -6.5563773e-02  -9.7707697e-01
  -2.4342754e-01  -1.8307476e-01  -9.5832294e-01   5.9162865e-01  -3.8667813e-01   3.8736571e-01  -9.3590293e-01  -8.0235550e-01   4.9505229e-01  -1.7442711e-01   1.7918115e-02   1.3099513e-01  -2.0517189e-01   5.1652413e-01  -4.2587055e-02  -9.2654186e-01  -1.6109094e-01   2.2171487e-01   2.7580989e-01   8.7871539e-01  -4.0087805e-01   8.3200046e-01  -5.5971544e-01  -8.0210133e-01   9.5166309e-01  -7.1714193e-01  -5.8529149e-01   1.0955518e-02  -5.8301199e-01  -3.9679055e-01  -9.0734527e-01  -6.6529782e-01  -8.7241584e-01  -4.2379726e-01   6.9439441e-01   9.9592304e-01   9.5697600e-01   1.5892477e-01   1.8489463e-01  -6.5627900e-01  -2.7775693e-01  -6.6604641e-01  -4.6828359e-01   3.2539820e-02  -4.1133541e-01   8.7769524e-01   4.3067399e-01   8.1534768e-01  -5.7765934e-01   9.1943854e-01   6.7867820e-01  -3.1909458e-01  -9.1201563e-01  -7.4661008e-01   4.1045518e-02   7.7717199e-01  -1.5883337e-01   5.9152155e-01  -7.3334901e-01   3.0536781e-01   9.4126480e-01  -6.1346990e-01  -4.7662888e-01   8.5806661e-01   6.0234455e-01   9.7013931e-01   4.9308593e-01   9.1850044e-01  -4.4749058e-01  -8.9934363e-01   6.7319850e-01   8.7577828e-01   9.2146119e-01   9.1130653e-01   9.3228297e-01  -8.6300198e-01   6.0537143e-01  -9.4491795e-01  -7.4025924e-02   8.5556648e-01   3.4583010e-01  -1.6699193e-01   7.0926868e-01   5.4521039e-01  -6.6388491e-01  -1.3818289e-01  -1.2147965e-04   2.0642598e-01   6.3339616e-01   1.1958673e-01   7.1490862e-01  -3.9492993e-01   1.1349198e-02  -7.0002679e-01  -4.5946270e-03  -5.0901789e-01   6.9241251e-01  -6.8233225e-01  -1.7601169e-01  -1.9845573e-02  -8.4209168e-01  -3.7341722e-01   9.7545053e-02  -4.6059795e-01  -2.6119745e-01  -8.1502459e-01  -8.8973880e-01   5.9870055e-01  -5.5349359e-01   2.4989681e-02   3.8893094e-01   6.6093218e-01  -6.9135001e-01  -7.5729121e-01   8.5695378e-01   5.0479738e-01   9.1989014e-01   5.2310146e-02   7.1257314e-01   6.6603630e-01  -2.2523774e-01   6.7315311e-01   6.2556744e-01   3.9725021e-01  -4.9356284e-01  -3.7421936e-01  -4.9533369e-01   8.2427625e-01  -1.3299540e-01  -4.6306237e-01  -6.9021957e-01   4.9404357e-01  -4.1089375e-01   6.6171018e-01  -8.9029463e-01   1.7290381e-01  -1.6168015e-01  -9.2852085e-01  -1.0612152e-02   2.2171395e-01   9.2808126e-02  -4.7918080e-01   5.8320834e-01  -2.0207128e-01  -4.1193102e-01   2.5041788e-01   2.7215122e-01  -8.4912362e-01  -9.6009912e-01   4.4612705e-01   8.3328843e-01   4.1367195e-01  -2.6519260e-01   3.6049325e-01   3.9157270e-01  -3.5744332e-02  -8.7472342e-01   4.6701306e-01  -8.0739464e-01  -9.7956518e-01  -5.4903717e-01  -9.2138892e-01  -4.1255125e-01  -9.3045312e-01   1.0289005e-01   5.9183993e-01   2.5365172e-01   5.5298467e-02  -8.9108343e-01  -3.3843701e-01  -7.4529537e-01   1.9645829e-01  -8.9725002e-01  -7.0389595e-03   5.1743885e-01   9.6594026e-01  -7.7041929e-01  -2.1885000e-01  -8.6164653e-01  -3.1942259e-01  -2.6075995e-02  -4.4369226e-01  -9.6720759e-01  -5.1465064e-01   4.9684981e-01  -2.9621191e-03  -6.6890080e-01  -2.1204866e-01   6.5355417e-01   8.9981099e-01  -8.7122986e-01   1.7535781e-01  -2.0137331e-02  -7.1056419e-01  -5.1231936e-01  -1.9923036e-01   7.7230633e-01  -2.5559526e-01  -8.7922326e-01  -4.0692224e-01   6.0539243e-01  -5.5301870e-01   2.7435524e-01  -3.9105073e-01   4.2289876e-01  -8.7409013e-01  -5.0071897e-01  -1.0199003e-01  -8.8057301e-01  -8.7847827e-01   2.9665634e-01   1.3809078e-01  -4.8229925e-01  -5.1397083e-01  -1.6308077e-01   8.6635530e-01   9.3870553e-01  -8.9612842e-01  -1.3980261e-01  -8.7873534e-01   8.8806690e-01   8.9970300e-01  -5.6026769e-01  -7.7973673e-03  -7.8856174e-01   7.9871959e-01   4.3354806e-01  -8.5393428e-01  -3.3351391e-01   6.8205308e-01   3.9958481e-01   4.3111639e-01  -7.5946389e-01  -6.0210310e-01   4.3341818e-01  -1.6456011e-01  -9.7203467e-01  -6.3593024e-01  -6.8534747e-01  -6.8990404e-01  -3.8564329e-01   9.4658861e-01  -6.8044229e-01  -2.3355554e-01   9.8062941e-01   8.8312967e-01   3.8184492e-01   5.0079457e-01  -3.0684858e-03   8.5504045e-01  -7.8123459e-01   8.5961878e-02   7.0758485e-01  -1.5316116e-01   7.3092915e-01  -5.9244179e-01  -4.0937422e-02   8.9028420e-01   9.0080897e-01   9.7483913e-01   3.0615793e-01   6.3675167e-01  -7.1521156e-01  -2.3082394e-01   5.8245620e-01   1.3991123e-01   4.9206490e-01  -3.7622693e-02  -4.2777189e-01  -6.5377560e-01  -8.7362062e-02   1.7891524e-01  -6.1240619e-01   6.0304420e-01   9.7299908e-01   1.4127886e-01  -4.3203947e-01  -5.5779202e-01   6.2660724e-01  -4.6991708e-01  -5.5592449e-01   1.8115513e-01  -9.3148473e-01  -9.5037618e-01  -9.4226111e-01  -6.7752837e-01   1.8308792e-01   6.1025307e-01   8.7599001e-01  -9.9169706e-02  -2.8381603e-01   3.6053072e-01   9.0358968e-02   6.3204964e-01  -8.2866845e-01   3.8121719e-01  -8.2913339e-01   4.8919409e-01   5.2831329e-01  -2.9664502e-01   4.7307538e-02  -6.9189880e-01   6.4890688e-01  -5.9795704e-01  -9.1320528e-01   8.5728510e-01  -1.4121907e-01   3.1594567e-01   1.4523910e-01   2.5775736e-01  -6.9530399e-01   2.7561670e-01   5.6365965e-01   9.3729833e-01   9.0329031e-01   6.7117028e-01   6.2184444e-01  -5.6995830e-01  -5.7598297e-01  -9.3380635e-01  -1.0805308e-01   4.4015671e-01  -3.0356957e-01  -9.4606107e-01   3.1431901e-01  -5.8053842e-01   1.6142813e-01  -1.5950626e-01   8.4103339e-01   6.4347502e-01   9.8098917e-02   6.1854070e-01   7.0534395e-01  -6.4042202e-01   3.1958012e-01   8.1457283e-01  -1.5812256e-01   8.5198430e-01   5.8539809e-01  -1.9180970e-01   8.0903165e-01   5.0594988e-01  -7.1007682e-01  -3.8894040e-01   4.4959024e-01   9.8902277e-01   4.6713629e-01   7.5815854e-01  -9.4808507e-01   6.0929812e-01  -4.4506565e-01  -8.3602951e-01  -8.8446509e-01   2.4740043e-01  -9.8950589e-01  -8.3867463e-01   5.4215195e-01   8.8075144e-01   2.0450221e-01   3.0157079e-01   3.9045756e-01   3.8963839e-01  -7.3948981e-01   7.8710689e-03  -1.8564936e-01   3.8634037e-01  -3.1621490e-01  -2.3356533e-01  -8.1318837e-01  -5.6650612e-01  -2.2383472e-01  -5.2101588e-01   3.6815674e-01   6.5788126e-01   3.3359401e-02   7.0306201e-01   8.6849267e-01  -8.9844149e-01   8.3483984e-01  -1.5185873e-01   1.7683141e-01   6.3560882e-01  -7.7139949e-01  -4.5946814e-01   8.2203383e-01  -6.9372696e-02  -8.1324016e-01   4.8080862e-01  -7.5762980e-01   6.4579080e-01   6.4936270e-01   8.3149883e-01   9.0880009e-01  -8.1379409e-01  -5.2912917e-01   3.0351666e-01  -5.8712999e-01  -2.6484582e-01   8.4962999e-01  -8.2936449e-01  -6.9034308e-01   9.7551962e-01  -3.5779888e-01   3.9328837e-01   4.7723069e-01  -2.3107576e-02  -8.4206191e-01   6.8997058e-02   4.4249284e-02  -9.0930774e-01   2.5749616e-01  -8.8284986e-01   3.0036551e-01   4.8142244e-01  -5.2813938e-01   4.8830622e-01   5.8700707e-01  -9.7802444e-01  -2.6175602e-02  -1.1237160e-01  -8.5779336e-01  -5.9807571e-01   9.8903900e-01  -6.2954589e-01  -2.3836498e-01   2.8496560e-01  -4.0128268e-01   2.0665081e-01  -7.2505469e-01   6.0234668e-01   4.0961035e-01   7.5370243e-01   8.0715316e-01   4.0783905e-01  -4.1934696e-01  -2.6236316e-01   4.7014086e-01  -4.3812861e-01  -4.3709064e-01  -9.8679220e-02  -6.5226099e-01  -2.3130673e-01  -5.1827366e-01  -9.8278948e-02  -4.9324452e-01  -7.8306570e-02   9.5262124e-01  -6.3282781e-01  -6.9963405e-01   6.3796679e-01  -1.2081383e-01  -4.0814597e-01   3.9433847e-02  -1.4261276e-01  -7.1306214e-01  -8.0879834e-01  -7.9727496e-01   3.0718631e-01   7.7260684e-01  -7.4350391e-01  -2.3260057e-01   6.6010049e-01  -9.7514962e-02   5.9270624e-01  -8.5038186e-01  -5.7137973e-01   6.1201931e-01   7.0342696e-01   3.7068907e-01   4.2254576e-01   2.5698327e-01   7.1143837e-01   1.0147413e-01   6.2702751e-01  -3.7035157e-01   3.8200104e-01  -3.0049801e-01   4.9737066e-01   8.3328634e-01   8.8434520e-02  -9.4959702e-01  -5.1574382e-01   8.7602465e-01   3.1934098e-01  -5.1901514e-01   6.0855285e-01  -3.4885116e-01   3.1656310e-01   5.4749714e-01  -3.2341830e-01   3.7407415e-01   2.2593985e-01  -9.3187534e-01  -7.7855353e-01  -7.5991948e-01  -6.2146344e-01  -1.7969096e-01   4.9334409e-01  -2.5707098e-01   9.7580280e-01  -3.2445338e-01   7.1326646e-01  -4.0102964e-01  -8.3950547e-01   1.8739796e-01   3.1424688e-02  -7.7071120e-01   3.7874798e-01  -8.6212626e-01   1.2881597e-01   8.8264479e-01   9.9939182e-01   1.3497132e-01   7.4998156e-01  -8.7961845e-01   9.4380321e-01  -5.0349142e-01  -4.4161996e-01  -9.1975454e-01   6.5427821e-01   8.7520112e-01   4.0319549e-01  -8.1136604e-01  -9.9310346e-01   2.2562105e-01   6.5888302e-01  -1.9076388e-01   3.8203137e-01  -6.1760977e-01  -6.5921801e-01   1.9402072e-01  -9.4639035e-02  -3.3258815e-01  -5.2707812e-02   9.9045172e-01   5.8290391e-01  -7.0412818e-01   3.4506766e-01   6.6060169e-01  -9.0511685e-01  -8.3434797e-01   6.7646026e-01   2.7385154e-01  -1.9969540e-01  -1.7480048e-01  -4.2452697e-01   8.1345615e-01   9.6862249e-01  -7.8913505e-01  -1.4357586e-01   3.6172379e-01  -7.9391398e-01   9.0486169e-01  -6.5856933e-01  -1.3453631e-01   7.1261399e-01   4.9494675e-01  -1.3800465e-02   1.8193630e-01  -8.3025712e-01  -7.0885017e-01   2.4837682e-01  -4.5238364e-01  -6.1612443e-01  -4.4655762e-01   4.5920699e-01   4.0155738e-01  -6.7011971e-01   5.3818786e-01   4.4050139e-01  -6.7916358e-01  -1.3735003e-01  -8.8426436e-01   8.4777978e-01   9.5523883e-01   8.1319064e-01  -7.0586997e-02  -4.0177329e-01  -6.8763557e-01   6.1592072e-01   7.2833240e-01  -5.6449574e-01   5.7310044e-01   6.4657808e-01   7.4593047e-02   9.7072511e-01   2.2522387e-01   2.0318998e-01   5.6992373e-01  -7.5384855e-01   4.9165295e-01   8.0192728e-01  -8.2339233e-01   8.7994558e-01  -2.9016585e-01   1.7401177e-01  -5.2996487e-01  -1.5459689e-01  -8.6750031e-01   9.5730977e-01   7.4933006e-01   7.0011078e-01  -9.9090305e-01  -2.8793862e-01  -4.6534335e-01   3.6059637e-01   6.5038092e-01  -6.8586913e-01  -2.9919111e-01   9.0425790e-01   2.7615347e-01   7.4570713e-01   2.9346363e-01  -6.6598747e-01   4.3709975e-01  -7.3315817e-01  -2.1781303e-01  -1.4048645e-02  -6.1276399e-01   8.0272808e-01   5.8429059e-01  -3.7989670e-01  -5.0182963e-01  -9.0819496e-01   1.8360133e-01   9.9590999e-01   8.0209852e-01   2.0826266e-01  -7.6762003e-01   1.4877582e-01  -8.7943184e-01   9.2914618e-01   9.3117975e-01   8.7709019e-01  -8.6858776e-02  -3.3630649e-01  -3.7717865e-01   3.9819646e-02   3.6134848e-01  -7.3481525e-01  -2.3634526e-01   3.8396294e-01  -3.5364005e-01   4.4954065e-01  -1.2520466e-01   1.3424236e-01  -1.5324634e-01  -6.4796930e-01  -4.3722628e-01  -8.2390411e-01   8.5217154e-01  -3.7859455e-01   7.7373447e-01   7.8657957e-02   7.0214300e-01   3.1645897e-01   2.4283012e-01  -5.9973376e-01  -2.1625725e-01  -2.0415092e-01  -8.0340597e-01  -5.1284961e-01   7.1542168e-01  -6.6100371e-01  -6.3754122e-01   5.3915103e-01   9.0335609e-01   3.9819474e-01  -9.6479600e-01   4.3817821e-02   4.8673408e-01  -5.5581435e-01   3.1022741e-01  -6.7654183e-01  -4.3213095e-01  -2.0481205e-01  -5.7022782e-01  -1.7634940e-01   2.9388290e-01  -7.6329603e-01   3.7671364e-01  -1.0729900e-01   2.4429247e-01  -6.7854395e-01   9.1937086e-01  -2.8437010e-01  -4.7847382e-01   4.7256675e-02   4.9494836e-01  -1.4829263e-01  -4.7513207e-01  -3.2985525e-01   4.0635892e-01  -6.9690542e-01  -3.2167006e-01   7.5849607e-01   1.1916423e-01  -9.5189848e-01   1.4442703e-01  -7.7087752e-01  -9.7173248e-02  -7.8557310e-01  -5.4310131e-01  -7.6972115e-01   1.6609234e-01   8.1042761e-01   9.2976545e-01  -6.7781625e-01  -9.1527550e-01  -4.5185115e-02  -6.3350951e-01  -6.6359756e-01  -8.5831522e-01   2.3239149e-02   4.9717472e-01   3.9146406e-01   3.5142152e-01  -6.2979408e-01   6.0608119e-01   4.7195903e-01  -9.1432223e-01   5.8336219e-01   2.0359912e-01  -5.7482593e-01   6.0331083e-01   6.9330145e-01   1.6143512e-01   8.7859945e-01   8.3556527e-01  -5.2647067e-03   8.3535628e-01   8.9517092e-01  -5.8762388e-01   6.4504049e-01  -2.0015787e-01  -7.5558592e-01  -4.8664135e-02  -3.0972684e-01   9.7359982e-01  -5.4668115e-01  -1.7125303e-01  -3.0059788e-01   5.9175678e-01   2.2454065e-01  -2.3475261e-01  -8.3185235e-01   5.6367868e-02  -2.0450080e-01  -6.7552089e-01  -2.1182560e-01   2.1846606e-01   6.8898629e-01   3.6473547e-01  -3.1493267e-01   7.0458602e-01  -8.5931795e-01  -7.6660527e-01  -1.1889595e-01  -3.9869550e-01   2.5223096e-01   2.3916669e-01   8.7372266e-01  -7.8101886e-01  -2.7605220e-01   2.8192652e-01  -3.8333211e-01  -6.7825077e-01  -9.7405157e-01  -1.9700836e-01  -8.8291815e-01   5.0108614e-01  -1.1399690e-02  -2.8188050e-01  -5.9927276e-01   1.6710937e-01   2.3033952e-01   4.2610183e-01  -8.1149311e-01  -6.4910859e-01  -2.7691411e-02   4.2483681e-02  -2.4739701e-03  -9.4071568e-01  -2.4346064e-01   3.8340329e-01  -5.1498254e-01  -1.3950849e-01   4.2526493e-01  -5.7711583e-01  -7.4178399e-01  -1.4194946e-01   2.4507568e-01   1.3309580e-01  -3.7836087e-01  -6.7474560e-01  -4.1184623e-01   7.8826132e-01   1.0794085e-01  -7.3354858e-02   9.7624878e-02  -2.0875673e-01   9.2542005e-01   7.4143557e-01   8.8319370e-01   6.6162821e-01  -7.2863459e-01  -4.7256675e-02   4.6265413e-01  -4.2687757e-01  -3.7980947e-01   9.8764911e-01  -5.2000039e-01  -5.0416556e-02   1.7353778e-01   9.7701392e-01   3.2682866e-01  -3.3306112e-01   8.9555749e-01  -1.3064731e-01  -4.9568042e-01   9.3916770e-01  -5.3550526e-01  -9.4809699e-01  -1.3639392e-01   7.4564869e-01  -7.5651932e-02   2.6692656e-01  -9.8862653e-01  -5.3188253e-01  -8.7643419e-01  -8.0813353e-01   6.8677047e-02   9.6261351e-02   7.8624242e-01   5.6099115e-01   7.2654035e-01   5.6471544e-01  -1.4360009e-01  -1.8270036e-01   1.8963087e-01  -8.0247732e-01  -8.9377113e-01  -6.4318823e-01  -7.3560196e-01   9.9940527e-01  -4.3024372e-01  -7.3929897e-01   6.7601209e-01  -1.6607148e-01   6.3156159e-01   9.3797777e-01  -8.3306011e-01   1.3955774e-01   2.8039980e-01  -5.1006014e-01  -5.3213952e-01  -2.7768804e-01   3.6836752e-02   2.7411923e-01  -5.3245915e-01   6.2627711e-01   4.7156113e-01   8.4489727e-01  -8.0365603e-01  -7.5894281e-01   5.5062433e-01   6.3085955e-01  -6.3113817e-02   6.3883386e-01   7.7283724e-01   4.6812362e-01  -1.9705968e-01   9.8528348e-01  -8.8795924e-01  -4.0943556e-01   7.1739155e-01   9.8599101e-03  -8.0715616e-01  -1.6184702e-01   1.7244195e-01  -7.1572759e-01   2.8873480e-01   5.9804890e-01  -9.4368302e-01   3.0221777e-01   3.0906090e-01  -2.2934053e-01  -4.6863756e-01   4.1730529e-01   8.4551319e-01  -7.3863512e-01  -2.1440333e-01   4.3975163e-01  -1.9366556e-01   2.2450780e-01   5.8277762e-01   1.0847994e-01  -5.6366104e-01  -1.8829042e-01  -6.5002260e-01   9.8850836e-01  -2.7148069e-01   3.1121615e-01  -3.5390694e-01  -2.9952733e-01   3.9644928e-01  -5.8549088e-01  -1.5198701e-01  -2.0786977e-02   1.2738148e-01  -6.4152134e-01  -5.6207482e-01  -3.8654228e-01   2.3021730e-01   6.8778593e-01  -5.2265024e-02  -9.6890373e-02  -7.6768753e-01  -5.7808151e-01   2.4731512e-01   8.3308317e-01   5.1682449e-01   1.4304210e-01   3.5192334e-01   8.7199434e-01   9.5871253e-01  -5.3498739e-01   1.2574841e-01   6.6210148e-01  -4.6276931e-02   8.4448424e-01  -1.2729125e-01  -1.9538393e-01   3.1341004e-01   1.0771490e-01  -9.2736010e-01  -6.3016256e-01   8.2157144e-01   4.9342804e-01  -5.2010069e-01  -1.5176575e-01  -3.7691220e-01  -2.4398591e-01   7.5226722e-01   4.9923939e-01   3.7447511e-01   4.7606895e-01  -1.2939289e-01  -3.8723156e-01   5.9609703e-02  -9.0496641e-01   3.8582845e-01   7.0996970e-02  -6.4859191e-01  -5.3530726e-01   3.6668638e-02   7.8714228e-01   6.8130882e-01  -4.8405594e-01   5.8190799e-01  -3.5909263e-01  -5.6515398e-01   6.8192269e-01   1.6268313e-01  -3.7547009e-01  -3.6119825e-01  -5.5404511e-01   8.7278769e-01  -7.7925337e-01  -8.6733522e-01   5.4461459e-01  -9.1366205e-01   7.1179816e-01  -6.1990182e-01   6.5614828e-01  -2.8448240e-01   7.0786217e-01  -4.1362299e-02   6.4945934e-01  -5.8200804e-01  -4.9241784e-01   1.7984988e-01   9.4544489e-01   3.0777699e-01   7.7899192e-01   5.1032710e-01  -8.3631429e-01   6.6553860e-01   7.9984404e-01   9.0734056e-01   8.9650491e-01  -5.6113593e-01   6.8481296e-01  -4.9897962e-01  -6.8326148e-01   9.8355147e-01   2.8887183e-01   1.8605387e-01   3.5000511e-01  -8.2472965e-01
   2.7085594e-02  -1.0674644e-01   6.3523910e-01   3.7663473e-02  -6.4357454e-01   6.1865622e-01  -8.7275524e-01  -9.2705446e-01   2.4539853e-01  -1.1426151e-01  -7.6128230e-01  -2.9465074e-01   2.3994122e-01  -6.9512125e-01   1.3834897e-01  -4.2292758e-01  -7.2768536e-01  -1.7606609e-01   7.5178733e-01  -1.6580911e-01  -5.5418965e-01   9.9796726e-02   4.9904510e-01  -3.6088415e-01  -3.8887264e-01  -8.5317754e-01  -5.5717524e-02   4.7166671e-01  -3.6990774e-01   9.1083298e-01   9.2196278e-02  -9.3007731e-01  -9.6979017e-01   5.7702369e-01  -2.7702216e-01  -4.4775862e-01   3.8982555e-01   4.5305892e-01  -4.6329903e-02  -2.9424663e-01   3.2733071e-01  -2.5863861e-01  -2.7160098e-01   4.6675282e-02   2.9379681e-01   5.6355346e-01   3.6752476e-01   8.3593356e-02  -8.7109490e-01   9.2040494e-01   8.0122531e-01  -4.2582603e-01   4.9880070e-01  -3.5387885e-01  -3.4905003e-01  -2.8436455e-01  -2.3200719e-02   6.5415628e-01   1.5208806e-02   5.1635107e-01  -2.7744096e-01  -5.7533711e-01   5.6437566e-02   5.8000836e-01   8.5413408e-01  -8.8651613e-01   3.2586279e-01   9.7493920e-03  -2.0196198e-01   2.3005192e-01  -7.7275380e-01   6.2929617e-01  -9.5544639e-01  -3.0690066e-02  -6.7979764e-01  -7.6420542e-01   4.7963337e-03  -3.1245102e-01  -6.5253306e-01  -4.9169321e-01   4.0530045e-01   7.8899383e-01   5.0403070e-02  -5.6619265e-01  -5.8139057e-01  -4.8379829e-01   4.5709852e-01   3.0068155e-01   6.8906818e-01  -7.3672583e-02   1.2268611e-01   1.1901138e-01   1.7118364e-01   2.4172752e-01  -7.1214730e-02  -9.7715491e-01  -2.1076884e-01   2.6465362e-01  -3.5112142e-01   2.4615782e-01   6.2102438e-01  -8.6609933e-01  -1.6722674e-01   8.4449103e-01   3.5967580e-01  -6.6489304e-01  -3.7639173e-01  -8.8033464e-01   7.2000031e-01   5.7369722e-01  -4.8262107e-02  -8.8592254e-01  -4.1699040e-01   9.9665658e-04  -3.8318812e-01   7.9324654e-01   4.2949407e-01  -6.7008263e-01   3.6779233e-01   3.2582650e-01  -3.6244516e-01  -5.8433048e-01  -7.1337972e-01  -7.6511599e-01   1.4275901e-01  -6.2954344e-01   9.9897195e-01   6.6639047e-01   4.3648024e-02   7.1571123e-01  -2.1585664e-01  -5.0549808e-01   8.3270188e-01  -9.1304502e-01   4.4598006e-01  -9.6860306e-01  -3.3605916e-01  -5.6075812e-01   5.5999596e-01   7.2293655e-01  -4.8107199e-01  -8.3076940e-01  -8.4994952e-01   1.9637260e-01   4.2454451e-01  -3.9567058e-01  -3.8487513e-01   7.3475057e-02   4.6319776e-01   9.2233646e-01  -9.7212527e-01  -3.3077003e-01   4.8024301e-01  -2.8031609e-01  -8.3943519e-01   4.6632862e-01   1.1345623e-01   5.1359507e-01  -5.0254013e-01   8.2423258e-01  -2.6989118e-01   8.8348683e-01   4.2368317e-01  -1.9249425e-01   4.0324635e-01  -7.7159351e-01   5.0555627e-01  -9.1280765e-01  -8.0385923e-01   5.5474743e-01  -5.0120157e-01  -8.2448398e-01  -1.9108683e-01   7.3831425e-02   8.1621746e-01   8.8140821e-01   6.6591312e-01  -5.1634418e-01   2.5574712e-01   5.7575752e-01   2.4713912e-01   8.6900866e-01   5.2053780e-01   8.7028555e-01  -2.7345733e-01   1.7817936e-01   6.6583399e-01   5.7257737e-02   6.5590476e-01  -4.9551857e-01   3.4325778e-01  -3.0361770e-01  -4.8478218e-01   6.0171989e-01   2.5464316e-01   8.2688432e-01   2.7754150e-01  -4.3255588e-01  -1.8839815e-01   9.0536742e-01  -7.9517519e-01   8.0814413e-01  -1.7385772e-01  -5.7133690e-01  -8.4359630e-01  -6.4036721e-01   4.9879919e-01   1.8297680e-01   2.1084771e-03   5.2397210e-01   3.6108629e-01   7.3425720e-01  -8.0718891e-01  -9.0218901e-01   3.3124404e-01  -8.8733664e-01   7.9973975e-01   1.0368816e-01  -1.4953310e-01  -4.2816070e-02  -5.2954394e-02  -7.0148127e-01  -5.5437728e-01   3.2004317e-01  -2.8690145e-01  -7.9918674e-01   6.0783708e-01  -5.7279788e-01   8.5470288e-02   6.3186934e-01  -2.8686774e-02  -2.1837499e-01  -1.9566988e-02  -8.1322876e-02   5.3716078e-01   7.2952620e-01  -8.9991766e-01   8.1618827e-01   7.8749059e-01   9.6701423e-01  -9.4773838e-01  -2.3706122e-02  -6.5293978e-01   2.3800280e-01   3.1622718e-01   2.4112670e-01   1.2877113e-01  -3.7360595e-01  -6.1614913e-01  -6.3554871e-02  -5.5883311e-01  -4.7753619e-01  -4.1136907e-01   3.4470824e-01   4.5457326e-01   4.1141673e-01   1.9017854e-01   6.6357579e-02   6.5373001e-01   7.2773840e-01   1.7476701e-01   3.6573075e-01  -3.9021643e-01  -6.6712888e-01   6.2054872e-01   7.2400313e-01  -4.9963723e-01   2.0424763e-01   7.8441175e-01  -1.1091842e-01  -9.7378013e-01   1.9804825e-01   4.3141656e-01  -9.4249708e-01   6.8729027e-01   6.3990353e-01  -2.7153730e-02   9.0224599e-01   6.0980445e-02   2.1603421e-02   7.6425861e-01   3.3169444e-02   2.4422794e-01   4.4876336e-01   2.8727207e-01  -3.2058781e-03  -4.2552357e-01   6.7359783e-01  -4.1816455e-01  -6.6236157e-01  -8.1596516e-01  -5.0142651e-01   2.9558033e-02  -3.9796890e-01   1.6088035e-01  -2.4685856e-01  -8.9939752e-01   7.6921794e-04  -7.1268690e-01   5.7660754e-02   5.1316009e-01   4.9209970e-02   1.4587920e-01  -8.1757840e-01  -7.1855283e-01  -8.8135252e-01   7.9834614e-01   2.9982200e-01  -1.0227594e-02   9.2074115e-01   6.8640821e-01   1.0527422e-01   7.7096525e-01  -1.1015708e-01   2.4523456e-01   3.2072229e-01   3.5739689e-01  -1.2074191e-01   4.8097048e-01   1.6399179e-01  -1.4882983e-01  -1.7532856e-01   7.6968107e-01  -9.0352375e-01  -2.1547305e-01   6.9013759e-01   1.3908192e-01  -4.3033475e-01   8.5460022e-01  -2.2201660e-01  -8.2241481e-01   6.2304509e-01   3.4927160e-01   6.3798107e-01  -9.0928196e-01  -1.9401588e-01  -3.6782489e-01  -1.5126622e-02   5.0956542e-01   3.6058504e-01   7.2040026e-01  -3.9839838e-01   3.7124776e-01   9.0746323e-01   1.7167175e-01   5.7278820e-01   7.9114304e-01   3.5015200e-01  -8.2795548e-01   3.8468958e-01   5.4953841e-01  -6.3352838e-02  -2.7144300e-01   8.7877306e-01  -8.0215561e-01   8.1053407e-01   9.0656679e-01  -2.2057685e-01  -9.9741591e-01   2.2239001e-01  -4.6277110e-01   7.4957912e-01  -5.5780352e-01   6.9433219e-01   3.4585653e-01   2.1507598e-01   4.5782417e-01   7.3863565e-01   9.4858170e-01  -3.1889886e-01  -5.5753555e-01  -8.3188714e-01   9.9630814e-01  -1.6236636e-01  -5.8735251e-01   3.8305522e-01  -6.2128234e-01  -2.9955836e-01  -3.3744167e-01  -8.8731240e-01  -4.8999898e-01   2.6077542e-01   8.1691242e-01   1.7384091e-01  -8.6497148e-01  -9.1487816e-01   4.2948005e-02   6.7523663e-01  -6.6185105e-01   8.6765317e-01   2.8373628e-01   4.9590482e-01   5.6274828e-01  -8.9254934e-01  -5.0296559e-01  -2.5095049e-02  -4.5045543e-01   2.3429603e-01  -9.5861619e-01  -3.1632860e-01  -4.8595624e-01  -7.4790272e-01   6.7108679e-01  -3.1008986e-01   1.5444231e-01  -6.9015100e-01  -5.9346583e-01  -7.4636269e-01   2.2467659e-01   1.6493802e-01   5.4098793e-01  -1.4579419e-01  -9.8763165e-01   9.2811903e-01  -6.6965489e-01  -4.3133257e-01  -3.3084148e-03  -8.4332666e-01  -2.5696295e-01   3.3450309e-01   6.9151734e-01   9.5582970e-02   6.5051310e-01   5.8579617e-01   2.5956236e-01  -6.8321729e-01  -8.7611643e-01   6.5589525e-01   5.4500162e-01   5.3824642e-01  -7.8582016e-01  -4.7648766e-01  -9.2206646e-01  -5.6993940e-01  -9.1788668e-01   8.2228554e-01   1.1606838e-01  -1.5702487e-01   5.4171208e-03  -3.7051429e-02   7.7489114e-01   4.6438791e-01  -6.2816878e-01  -9.1941840e-01   3.6964575e-01  -4.2504595e-01   4.0047393e-01  -7.0599898e-01   1.8301373e-01  -7.9244697e-01  -4.1979166e-01   4.0519204e-01   9.3807826e-01  -4.4381812e-01   7.3166785e-01  -9.9071190e-01   3.7816243e-02   4.7132372e-02  -2.5120642e-01   4.8844400e-01   3.1815354e-01  -4.4807008e-01   4.5504736e-01  -2.3033332e-01   7.4809059e-01  -3.2196388e-01  -9.3132561e-01   4.5313236e-02  -6.1530152e-01   4.2473374e-01  -8.0260953e-01   6.2533103e-01  -8.8126038e-02  -6.0998067e-01  -1.5646787e-01  -9.7754935e-01  -2.5617068e-01  -2.9164306e-01   9.2217233e-01  -2.0436895e-01  -4.2157394e-01  -6.6019450e-01  -3.2710718e-01  -6.3110847e-01  -4.7109761e-01  -3.5813658e-01   4.4398930e-01  -3.7592207e-01  -4.0152451e-01   2.4927093e-01   9.0840284e-01  -4.6156032e-01   4.6626642e-01   1.6170595e-01   5.7811343e-01   8.1141361e-01  -5.5747148e-01  -1.9764444e-01   9.1075572e-01   6.3230765e-01  -1.8672449e-01   5.4441828e-01  -8.5375638e-01   4.0480384e-01  -6.9522028e-01  -2.7755257e-01   4.9574319e-01   6.3085610e-01  -2.7904475e-01   1.2258439e-01   5.7400553e-01   3.5015441e-02   4.2776240e-01   8.2487586e-01   1.6748903e-01  -9.5113583e-01  -6.3234449e-01   8.4178774e-01   5.2122330e-01  -4.6056668e-01  -3.7201840e-01   2.0061988e-01  -2.2453323e-01   9.3031102e-01  -3.5284466e-01  -2.2376427e-01   8.4532434e-01   9.7977672e-02   7.4563604e-01   3.8035426e-01   1.9781176e-01   5.4488021e-01  -2.5013927e-01  -5.9671209e-01   7.6713751e-01  -4.7606878e-01   5.0471559e-01   2.9682777e-01   5.3309439e-01  -6.5706039e-01   2.5539250e-01   7.7644163e-01   6.7402902e-01  -5.8407285e-02  -4.4729577e-01  -2.7203962e-01   2.4440800e-01   5.7370459e-01  -8.4136261e-01   2.5604024e-01   3.8603253e-01  -6.4777838e-02   2.4805201e-01   6.8985337e-01  -7.7940058e-02  -7.6243077e-01  -2.9309633e-01   5.6591648e-01   7.3654860e-02   3.7560083e-02   9.5935492e-01   8.1790853e-01  -8.8920113e-02   9.4354190e-01  -2.0784753e-01  -2.0336583e-01   9.0696875e-01   9.3877909e-01  -1.2806507e-02   1.6092429e-01   7.9043441e-01   4.1570736e-01  -3.6600873e-01   3.1032082e-02  -2.2510971e-01   9.8072196e-01   3.3794060e-01  -9.1077730e-01   1.4424631e-01  -7.2478083e-01  -2.2150993e-01   6.2461328e-01   5.7949049e-01   2.8808999e-01  -1.6228910e-01  -5.8374856e-02  -2.7966814e-01   2.1567706e-01   7.0709557e-01  -6.7780779e-01  -9.0100774e-01   2.2297942e-02  -6.6249481e-01   9.4556012e-01  -1.3441087e-01  -7.7529578e-02  -8.7299661e-01   1.1253186e-01  -7.8829146e-01   2.7161164e-01  -9.5130335e-02  -6.2219266e-01  -8.5322517e-02   1.1690545e-01   4.0421622e-01  -1.0673231e-01  -4.0187980e-01  -2.3410460e-01  -5.3761234e-01   2.9248334e-01   3.2640133e-02  -8.8188926e-01  -2.1728007e-01   1.1190612e-01   6.8193155e-01   8.7727652e-02   5.9071961e-01  -1.8575827e-01  -9.6308103e-01  -1.1583723e-01  -2.4817756e-01  -8.4009049e-01   6.4917281e-01  -9.3537478e-01   4.2720896e-02   5.9981897e-02   1.0463838e-01  -3.2103871e-01  -7.0969654e-01  -4.2295248e-01  -6.7283680e-01  -1.3154396e-01   3.0830143e-01   1.3252876e-01  -3.3412347e-01  -1.2807992e-01   5.8178701e-02   9.6779708e-01   1.1534707e-01   5.2811314e-01  -5.2671181e-01  -1.3452567e-01  -2.7608633e-02   7.6414646e-01   2.2371602e-01   3.8526115e-01  -4.2025719e-01   3.4501217e-01  -6.0879485e-01  -8.3009322e-01   1.9226584e-01  -5.9180971e-01   5.1387570e-01  -6.8666145e-01   2.8593311e-01   8.0814224e-01   8.1113510e-01   4.0788682e-01   6.1639759e-01   4.1556250e-01   4.8279655e-01   4.3993922e-02   9.4770862e-01  -4.3591904e-01  -3.8525568e-01   1.0079593e-01   8.1034993e-01  -1.9728767e-01   3.3513190e-01  -2.6638149e-01  -7.6444504e-01   8.5943242e-01  -3.0235164e-01  -8.2033787e-01   7.6192231e-01  -3.5505017e-01  -8.3985773e-01   2.8940266e-01  -6.3609156e-01  -7.6964261e-01  -8.3962952e-01  -1.5823274e-03  -8.7152329e-01   4.4471093e-01   1.7495419e-01   6.7588459e-01  -1.5693924e-01   2.6612329e-01   6.9203041e-01   9.0223917e-01  -5.1721484e-01   3.0225843e-01  -4.1737037e-01   1.7485544e-01  -1.9998274e-01  -3.6323972e-02   2.0136718e-01  -4.8904114e-01   1.2995119e-01   7.1311507e-01   2.6149474e-01   7.6886453e-02   4.2599409e-01  -9.2247034e-01   5.8995606e-01  -6.4054569e-02  -1.6626628e-01  -6.3909585e-01   3.8056957e-02  -3.2911792e-01  -6.0285386e-01  -6.0527048e-01   6.2848663e-01   5.9996320e-02   8.7509485e-01  -1.7089829e-01   2.5796275e-01  -2.9684913e-01   8.0635758e-01   1.3224471e-02   5.5772721e-01   9.5103102e-01  -8.5088476e-01   4.9422765e-02  -5.7592983e-01  -3.5038195e-01  -2.5180472e-02   8.0440348e-01  -4.4525564e-01   7.2498667e-01   3.5632226e-01   3.0857553e-01   1.7321535e-01  -3.0967008e-01  -2.5917106e-01  -1.5344406e-02  -1.9272750e-01   5.8247791e-01  -1.6989601e-02  -6.4388336e-01  -4.9069940e-01  -1.5286090e-01   6.6930583e-02  -2.2563195e-01  -7.2669763e-01  -5.9735358e-01  -2.3369158e-01   8.1132705e-01   9.8287048e-01   3.4729722e-01   3.7150959e-01  -6.6652475e-01  -3.7417907e-02   4.0208190e-01   1.2796856e-01   4.4626979e-01  -5.7098777e-01   6.8197635e-01   9.4882312e-01  -8.1127029e-01  -4.2373943e-01  -5.3298191e-02  -2.8476377e-01   6.4512783e-01  -7.0523848e-01  -4.4317280e-01   2.2045404e-01   3.5084503e-01  -2.9705998e-01  -1.1168190e-01   3.3803496e-01   4.5424593e-01  -3.6733890e-01  -9.0958564e-01  -5.0373098e-01  -3.2610793e-01  -5.6299767e-01   9.1991584e-01   1.6372064e-01   3.4798157e-01  -1.4885087e-01  -1.7567478e-01   5.7526068e-01   1.3906492e-02  -1.2267975e-01  -2.6944392e-01   4.7507766e-01   5.2684457e-01  -7.6818392e-01  -3.5411225e-01   4.6874799e-01  -9.5267779e-02  -7.4251277e-01   3.8888897e-01  -6.7363133e-01   6.4936538e-01  -1.9830212e-01   3.6773411e-01  -4.6271685e-04   6.5099195e-01   3.2350081e-01  -5.4128558e-01   2.6459256e-01   9.2379406e-01  -7.9865548e-01  -7.1637301e-01  -8.6534682e-01   7.7895470e-01   9.3752245e-01  -4.3513685e-01  -2.2581708e-01  -1.0130534e-01   7.1438345e-01   2.2042704e-01   9.2629886e-01   6.8584209e-01  -1.8001681e-01   9.9746891e-01  -6.8588020e-01   2.1406139e-01   7.1035650e-01   9.1491751e-02  -7.0144169e-01  -3.1938164e-01  -5.0600189e-03  -4.8014370e-01   1.2993428e-01   3.9767497e-02  -1.5264935e-01  -5.6262715e-01  -6.2833794e-01  -1.6745364e-01   1.6719904e-01   7.7758799e-02  -4.6667590e-01   5.9524232e-01  -9.7931378e-01  -3.2736064e-01  -6.1850931e-01  -5.5755011e-01   1.1895026e-01   1.7400316e-01   4.9966654e-01  -2.8965284e-01   9.0886037e-01   2.8638238e-01  -3.0089689e-01  -3.4800664e-01   1.6722177e-01  -5.0784660e-01  -9.9890347e-01   8.1785205e-01  -6.0275791e-01   9.5861953e-01   5.6148785e-01  -6.2011499e-01   1.0252228e-01   9.1653495e-01   8.4363072e-01   4.7105717e-01   8.5464785e-01  -1.4583417e-01   1.7973837e-01   2.0900683e-01  -5.9064512e-01  -2.2832398e-01   8.9037694e-01   9.1248222e-01  -4.5267718e-02  -3.4909419e-01   4.0297767e-01  -1.8892985e-01   9.5198054e-01  -6.4115649e-01  -9.9858874e-01   5.3992300e-01  -4.5450275e-01  -8.3075901e-01   8.5994473e-01   1.3234533e-02  -7.7745252e-01  -5.3644988e-01   9.1401950e-01  -5.4080854e-01  -4.1265158e-01  -5.5459394e-01   4.7798864e-01   2.2996913e-01   2.1313203e-02   1.1610579e-01   1.5156741e-01  -6.7889282e-01   8.7223936e-01  -6.8868889e-01   7.4456149e-01   2.9301531e-02  -6.3349346e-01   2.7933976e-01   1.7295254e-01  -8.3106568e-01  -6.6785678e-01   8.5352728e-01   6.0022540e-01   4.8365798e-01   6.0050270e-01   6.1983768e-01   9.2744530e-01  -2.2326016e-01  -3.5192550e-01  -6.8243850e-01  -3.3787366e-01  -9.4492781e-01   2.7730779e-01   8.5771640e-01   7.6958701e-01  -7.8826547e-01  -1.3934876e-01   9.5074150e-01   8.4619260e-01  -6.7245386e-01  -4.5909879e-01   2.6078759e-01  -6.8985896e-01   9.5083761e-01   3.9094645e-01   6.5329152e-01   6.7536705e-01   1.6026506e-01  -2.3295829e-02  -6.1442225e-01  -1.0714705e-01  -4.8913655e-01  -8.4556351e-01   2.6496374e-01  -8.8050076e-01  -6.1573861e-02  -1.2493111e-01  -7.0359831e-01   4.3212072e-01  -7.2107554e-01  -6.8622630e-01  -1.3485554e-01   7.9979962e-02   2.8825956e-01   7.1849504e-01  -7.6220121e-02   3.4631545e-01  -3.8124762e-01   2.5697182e-01   9.0415650e-01  -9.1080286e-01  -9.7219420e-01  -4.3117900e-02  -1.5622792e-01  -2.7292182e-01  -7.2910662e-02   6.5085020e-01   2.1300587e-01  -5.0709129e-01  -7.7397358e-01   7.3160874e-01  -6.0170086e-01   3.5655955e-01   3.7579802e-01  -9.3577273e-01   8.4760550e-01  -4.7133523e-01   6.2806923e-01   7.5232099e-01  -2.8036383e-01  -7.9248318e-01  -9.4798503e-01  -5.5101487e-01   5.2983968e-01  -6.8645883e-01  -8.8662104e-01   6.9241848e-01   2.5302640e-01  -7.5938514e-01  -1.5459059e-01  -9.6543981e-01  -8.9804316e-02   7.8963373e-01  -2.0255204e-01   6.3610777e-01  -4.7127639e-01  -9.5082452e-01  -4.6653311e-01  -7.6035514e-01  -3.3923192e-01  -6.1167617e-01   4.1835053e-01   9.1511407e-01  -6.1965620e-02   4.3742906e-01   4.4500230e-01  -7.7502121e-01   2.1789045e-01  -8.0585024e-01  -6.3227006e-01
   8.8202407e-01   7.1654755e-01  -2.4864117e-01   4.1433352e-02  -4.1949223e-02  -7.3599891e-01   4.8966108e-01   2.7288311e-01  -2.7839004e-01   8.8307745e-01   3.9799090e-01  -5.2750865e-01  -2.9672320e-01  -3.4483532e-01   4.1694673e-01  -6.8820628e-01   5.3210019e-01   8.2197661e-01   6.7294733e-01  -9.9706295e-01   9.1067746e-01  -8.7172767e-01   4.7624821e-01   7.4498032e-01  -6.5463866e-01  -5.7227583e-02  -2.1948524e-01   4.3845667e-02   4.9754319e-01  -3.7205964e-01   6.7874767e-01   7.0872854e-01  -6.1628889e-01   9.5910823e-01  -8.2373083e-01   3.0356221e-01  -5.8328634e-01  -6.5435464e-01   2.2872158e-01   2.1687794e-01   6.8335158e-01   1.9843524e-01  -8.5310293e-02   5.7716053e-01  -7.3224983e-01   8.6048835e-01   5.4990177e-01   5.8230348e-01  -4.1500201e-01   7.2307949e-01  -5.0156820e-01  -4.9298333e-01   4.9938506e-01  -6.9377177e-01  -5.0368130e-01  -3.1178612e-01   3.6842501e-01   2.5717528e-01  -5.1555225e-01  -1.9978402e-01   9.8228160e-01  -2.1768650e-01   9.6073533e-01   6.2801605e-01  -7.4872574e-01  -9.0098694e-01  -8.5773304e-01  -4.1591075e-01   3.9784773e-01   3.3927323e-01  -5.6886796e-01  -1.7741910e-01   9.7554121e-01   3.8853280e-01  -6.7056105e-02   2.7305799e-01   2.0940395e-01  -8.0283268e-01   9.1011285e-01   5.0881167e-01   6.5012040e-01   6.2064624e-01  -9.0704499e-01   6.0358034e-01  -2.3533110e-02  -9.2527921e-01   8.2734429e-02  -7.1458659e-01  -6.1219988e-01  -1.6749515e-01  -7.9185096e-01   7.4950965e-01  -7.1856068e-01   8.4578124e-01   8.9097239e-01   9.6050486e-01   1.3346474e-01  -3.4769125e-01   8.6261178e-01  -9.6720246e-01   5.3802012e-02   9.9718050e-01   4.9828147e-01   6.2941927e-01  -6.9195681e-01  -1.5379151e-02  -7.1718936e-01   8.7168855e-01   4.8111610e-01   8.9228320e-01  -9.6927449e-01  -5.4697932e-01   7.4492398e-01  -1.7019196e-01  -2.9516764e-01  -3.5263240e-02   1.4185152e-01   7.2715363e-01   5.8654797e-01  -9.6171148e-01  -1.0805295e-01  -4.0791615e-01   2.1984961e-01   8.5506869e-01  -8.8654992e-01  -6.3366378e-01  -7.0869814e-01  -7.6829462e-01   3.2881350e-01  -3.4011424e-01   6.8840752e-01   3.5663529e-01  -5.2167727e-01  -1.7266169e-01   2.6807510e-02  -9.7862302e-01  -4.9513555e-01   5.3071835e-01  -3.2778045e-01   3.5424162e-01  -1.7019478e-01   7.2100374e-01  -5.8405195e-01  -2.1219272e-02   5.1146964e-01  -4.2186933e-01   2.7249300e-01  -4.4030866e-01  -5.6366982e-01  -8.4423977e-01  -9.5365496e-01  -1.9006404e-01  -5.0059522e-01  -2.8926381e-01  -4.0451783e-01  -2.2705114e-01  -1.1106479e-01  -2.0875799e-01   9.7585119e-01   3.6239938e-01   9.9675334e-01  -9.9679069e-04   2.6815777e-01   8.3220391e-01  -9.0365836e-01  -3.4149372e-02   3.2558392e-01   4.0062562e-01   6.6770813e-01   3.4373126e-01   2.6528395e-01   8.1283100e-01  -6.0802112e-01   5.8424180e-01   3.7818165e-01   3.2315140e-02   3.4624817e-01   2.6625167e-01   8.6062613e-01  -7.2511011e-01   5.9804555e-01  -8.2500171e-01   3.2798362e-03   7.5026958e-01   8.0175783e-01  -6.4442101e-01   1.7607505e-01  -4.6692985e-02  -2.5562706e-01  -4.0375904e-01   4.4006333e-01  -6.5495181e-01  -8.5421957e-01   3.9130706e-01  -5.3800442e-01  -2.9818839e-01   7.2020483e-01  -6.0095219e-01   4.9795843e-02   5.9416495e-01   1.8231669e-01   3.9569335e-01  -5.9996679e-01   9.7812421e-01   3.2587748e-01  -8.1368374e-01  -2.1170271e-02  -1.1646217e-02   5.8819627e-01   6.4098303e-01   5.7483267e-01   7.9894071e-01  -3.2193945e-01   6.7190739e-01   2.8089198e-01  -4.0446394e-01   9.4261299e-01   1.8525264e-01   9.3932922e-01  -4.4594509e-01   4.5823338e-02   9.1960261e-01   6.7449599e-01   9.4100041e-02   8.8646145e-01   6.8261979e-01  -7.4555179e-01  -4.9870903e-01   5.6130593e-01  -8.5434489e-01   2.8517669e-01  -9.3645781e-01   6.2290855e-01  -4.5361129e-01   8.8413575e-01  -1.4867605e-01   2.0353270e-01  -1.1176317e-01   1.8482688e-01   5.9410635e-01  -8.7017575e-01  -5.5258810e-02  -8.8180334e-01  -4.9959150e-01  -2.2688639e-01   3.2806652e-01   5.2942550e-01   9.0206721e-01   3.0125291e-01  -8.8906763e-01  -4.7315282e-01  -6.9430432e-01   6.1578044e-01  -8.8991584e-01  -1.2084255e-01   4.9621579e-01  -1.2194037e-01   8.9043125e-01   8.6520835e-02   6.9549982e-01   5.2542111e-01  -4.7259103e-01  -9.4462610e-01   3.3290905e-01  -2.9603845e-01  -6.3295551e-01  -9.9066056e-01   2.3812502e-01   9.1718834e-01   1.2340638e-01   8.8642054e-01   1.5384339e-01  -1.7908216e-01  -2.2879629e-01  -9.9990538e-01   9.8695916e-01  -7.4798435e-01   4.4001943e-01   7.1522070e-02   6.1247959e-01   2.7791449e-01   1.1172312e-01  -1.4645340e-01   8.9741685e-01   1.7864896e-01   8.1177052e-01  -4.4667514e-01   1.5875258e-02  -4.9874810e-01   6.5260285e-01  -4.2640585e-01  -5.4458886e-01  -1.3476561e-01   4.3824126e-01   5.7486398e-01  -1.2862886e-01   1.2098950e-01  -9.0882257e-01   1.3939505e-01   6.3427275e-01  -6.5978591e-01   1.2009196e-01   9.5907742e-01  -4.9197372e-01  -8.0315971e-01  -6.2827573e-01   9.2791294e-02   8.8747720e-02   5.5782052e-01  -7.2990725e-01  -1.2959484e-01  -8.9664027e-01   5.7129594e-01   7.4759442e-01   8.3014116e-01   6.5600941e-01   7.2312057e-01   9.5641619e-01   4.5675063e-02   6.7133893e-01   8.9432741e-01   3.1048014e-01   5.9377947e-02  -6.1450130e-01   7.2434250e-01   6.7174418e-01   4.9244215e-01  -2.5309958e-01   2.1018826e-01   3.1278843e-01  -3.8755515e-01   5.7613474e-02   4.7442939e-01  -4.2722360e-01  -3.8386628e-01   7.1418301e-01  -7.6039420e-01  -9.8669557e-01  -4.5782151e-01   9.4318942e-01  -8.6341741e-01   6.9528344e-01   6.0817217e-01   4.0270448e-01  -4.9681907e-01  -8.4572048e-01  -6.9012728e-01   4.0622935e-01   9.1113705e-01   2.7951499e-01   6.4215281e-01   8.3386593e-02  -1.2014852e-01   8.9631931e-01   5.8900240e-01   8.3004237e-01   3.9366692e-01  -9.3501932e-01  -9.6727432e-01  -1.6082918e-01  -5.6353647e-01  -9.9050158e-01   4.8324609e-01   5.9312311e-01   9.8984344e-01   5.8409640e-01   4.0704546e-01   5.0156507e-01   3.8785187e-01  -2.8502702e-01  -3.3415610e-01  -7.9980615e-01   9.2895639e-01   1.6711143e-01  -3.5657361e-01  -8.1846849e-01  -1.0952989e-01  -7.0752132e-01  -4.7175969e-01   3.5571744e-01   1.3228472e-01   2.0655041e-01   4.7570221e-01  -1.8540173e-01   3.0749436e-01   6.7392473e-01   8.9187447e-01  -6.1685805e-01  -4.7549993e-01   7.9018166e-03   1.0233665e-01  -1.6855619e-01  -1.5137741e-02   5.9000928e-01   9.0398732e-01  -5.8577077e-01  -9.1405217e-01   8.5696475e-01   8.4761236e-01  -6.9304315e-01  -3.7933923e-02   3.3236963e-01   6.8698955e-01  -2.0405374e-01   4.8384036e-02  -1.5530015e-01   7.3363465e-01   2.8518849e-01  -2.2718668e-01  -1.4352425e-01  -1.6716736e-01  -5.3838604e-01  -3.0148256e-01  -4.7304463e-02  -6.2950685e-02  -5.4458500e-01   5.6575097e-01   4.5466953e-01  -3.8950696e-01  -2.1577976e-01   8.9948861e-01  -9.4656315e-01   1.5667125e-01   1.9746583e-01  -6.4594403e-01  -2.6260801e-01  -7.9708213e-03  -5.4414214e-02  -9.1711980e-01   1.1612340e-01   5.6056755e-01   1.0470955e-01   8.7821596e-01  -2.1947257e-01  -3.1673063e-01  -1.2946887e-01   1.0099393e-01   5.7952320e-01  -2.7856720e-02   7.0940966e-01  -4.9123872e-01  -4.9858952e-01   6.2569123e-01   5.0282961e-01  -7.5681221e-01  -3.5830412e-01  -1.4365865e-01  -8.8112305e-01   6.5561551e-01  -3.9064483e-01   5.9525322e-01   7.8065841e-01  -7.3156519e-01  -7.8351407e-01  -3.1570542e-02  -4.1537001e-01   6.6629388e-01  -8.5839924e-01  -4.7310300e-01   8.6495086e-01  -3.2145632e-01   6.3439289e-01   9.9307109e-01  -5.2775647e-01   4.4546837e-01  -4.6880371e-01   2.5099662e-01  -2.6729827e-01  -8.1477418e-01   8.3356925e-01  -8.4942068e-01   7.7841971e-01   3.4476622e-01  -6.4913033e-01   7.5213361e-01  -8.7579341e-01   5.8058202e-01  -5.3402379e-01   5.7824374e-01   1.2760484e-01   7.7249911e-01   2.4777442e-01  -6.1939130e-01   1.9224842e-01   6.3507816e-01   8.2336372e-01   5.9186762e-01   5.4339104e-01   8.3250722e-01  -4.9359406e-01   9.3776305e-03  -3.6573418e-01  -9.6555345e-01   5.2946182e-01   1.3923713e-01  -9.1782272e-01  -6.0705202e-01   3.7640406e-01  -8.9459891e-01  -9.5770453e-01   4.9298242e-01   6.1311602e-03  -7.3582804e-01  -3.3227907e-01   1.0869825e-01   9.7195874e-01   7.3753520e-01  -2.5500806e-01  -3.7988303e-01   8.6036867e-01   1.4683762e-01  -7.7763821e-02  -7.7048296e-01  -3.1242744e-01  -5.2590068e-01  -8.2576069e-01   5.8007462e-01  -2.9098368e-01  -1.9407722e-01   7.5813764e-01  -1.6015095e-01  -3.6235395e-01   6.1392432e-01  -3.0678616e-01   5.5369350e-01  -1.0197439e-01   8.0647224e-01  -9.0879001e-01   1.4639911e-02  -6.4447879e-01  -4.1205327e-01  -2.2726582e-01   1.2143662e-01   1.2230301e-02  -7.3955139e-01  -8.2748129e-01   9.9173234e-01  -8.4099820e-01  -6.3694605e-02   9.7393354e-01   7.5689461e-01  -2.0615757e-01   3.9477772e-01   2.5574434e-01  -3.2307455e-01  -1.6947188e-01   2.7006082e-01  -6.1474828e-01  -5.9222217e-01  -2.7260601e-01   8.7175328e-01  -2.6446840e-01  -1.1927534e-02   6.5569891e-01   2.4618137e-01  -1.5809792e-01   4.9366371e-01   7.8261851e-02  -4.0295645e-02  -7.6364559e-01   7.0255866e-01   1.2865193e-01   7.5266638e-01  -1.6562199e-01   5.8337359e-01   3.6169198e-01   6.6829028e-01   4.9756872e-01   2.5467225e-01   9.0425507e-01  -1.3011153e-02  -1.0471918e-01  -1.9625736e-01   6.8240040e-01  -2.5829271e-02  -2.9664050e-02  -9.9981017e-01  -3.5235400e-01  -4.0879219e-01   6.8827366e-02  -3.1229422e-01  -9.6411108e-01   5.5746186e-01  -5.5420061e-01   6.4859654e-01   8.4400141e-01  -3.7431299e-01  -9.3389438e-01  -3.0029010e-01  -8.0446619e-02  -3.0508735e-01  -6.0156437e-01   1.0955787e-01   5.9335064e-01  -1.7047534e-01  -5.7174537e-01  -9.3825612e-01  -8.1893006e-01   7.6211031e-02   5.4346194e-01   2.7850224e-01  -9.1484144e-01   2.6435737e-01   4.0628128e-01   8.8792225e-01  -5.1632790e-01   9.3007623e-01   2.5456371e-01   9.1496732e-02   9.5293816e-01  -6.7455413e-01   3.0941296e-01   1.4009101e-01  -8.9076158e-01   4.9932608e-01  -6.8079582e-01   7.3402126e-01   7.0710528e-01  -5.2955002e-01  -1.1199233e-01   3.0444373e-01   8.2197185e-01  -2.3249784e-02   1.8135286e-01   2.7708477e-01   3.9201394e-01   5.4957185e-01   3.8787386e-01   8.6850957e-01   7.4620723e-01  -4.4321187e-01   7.6375779e-01   5.9065114e-01   4.7415096e-01  -6.5176405e-01   5.6354260e-01   9.6680562e-01   1.7634844e-01  -5.0045091e-01   4.5809288e-01  -7.5408240e-01  -1.9390968e-01   1.5401555e-01  -2.1941387e-01   5.9090121e-01   5.5092338e-01   1.4273714e-01   5.1810946e-01   4.8996939e-01   6.3768910e-01   3.2877956e-02   6.4183435e-01  -7.1818445e-01   3.6492370e-01  -9.5805633e-01  -1.4192532e-01  -7.2635337e-02  -4.1837666e-01  -2.6387959e-01   2.1710044e-01  -6.6549453e-01  -2.2719324e-01  -5.2763577e-01   3.7350654e-01  -2.8078518e-02  -1.0711185e-01  -4.5690196e-01   3.9891231e-01   1.2764782e-01  -1.4961890e-01  -5.8489259e-01  -2.7431835e-01  -6.9430873e-01   1.3547960e-01   4.1662354e-01   7.6947333e-01  -5.1714234e-01  -5.7507216e-01   2.3223823e-01  -9.6751878e-01  -6.6599403e-01  -5.2479321e-01   1.9110210e-01   5.4315856e-01  -8.8739087e-01   4.7802286e-01   2.8757952e-01   2.8173702e-01  -6.9704346e-01  -6.0041568e-01  -6.2284495e-01  -7.8444389e-01  -6.7591478e-01  -2.1709831e-01  -5.1590573e-01  -1.0094709e-01   7.9105688e-01   6.1306708e-01   4.9549486e-01   7.6234729e-01  -6.7081470e-01  -8.5219853e-01  -1.3124659e-01   3.7571068e-01   9.2032470e-03  -3.9915805e-01   5.7150929e-01  -4.8771149e-01  -9.8053940e-01   2.8252780e-01   6.2673406e-01   1.4352286e-01  -5.9997520e-01   9.4324921e-01   7.4251474e-02  -8.8087808e-01   8.6916725e-01   2.6032988e-01   8.6891189e-01  -2.9046321e-01  -8.5354465e-01  -1.9678656e-01   8.1867365e-01   7.5183259e-01  -3.7062135e-01  -3.6626867e-01  -4.8156138e-01  -3.1489215e-01  -3.1910529e-01   2.3391868e-01  -8.3618587e-01   1.6264236e-01  -6.3783313e-01  -4.3011219e-01   6.6669727e-01   6.6180413e-01  -3.1581528e-01  -3.8991605e-01   9.5503088e-01  -4.2157123e-01  -6.2798833e-01  -7.3265468e-01   4.5124982e-01  -6.7057190e-01   3.7773283e-01  -4.5759467e-01  -5.5760998e-01  -4.5734001e-01  -3.0293246e-02  -1.8750082e-01  -1.7571386e-01  -1.6570544e-01   6.6368419e-01  -6.5015986e-01  -2.5562789e-01   1.6838981e-01   1.9396777e-01  -4.3059229e-01  -2.6116714e-01  -6.2539163e-01   4.9181677e-01   6.1606347e-01  -8.1764067e-02  -7.6860611e-01   4.7917769e-01   8.4484323e-01  -4.1948371e-01   2.9213133e-02   8.0000227e-01   2.4497256e-01   3.3465172e-01  -8.8308492e-01   7.6851962e-01  -3.6314508e-01  -8.0759377e-01   2.2221987e-01   1.2240110e-01  -1.9646701e-01   1.7097209e-01  -2.9654751e-01   9.9679442e-01  -9.0739597e-01   6.7035878e-01   8.6948964e-01   5.2357167e-02   6.8606152e-01   3.9686709e-01   3.2686868e-01  -5.9025263e-01   3.7888492e-01  -4.8274886e-01   4.7625435e-01  -5.7411877e-01   4.0923199e-01   8.8332447e-01  -2.2196681e-01   9.4877976e-01  -5.8814636e-01  -9.3127548e-01   1.7075584e-02  -9.9360254e-01  -4.3884308e-02  -2.2211269e-01   7.8292043e-01   5.0547482e-01  -1.5218745e-01  -9.9661263e-01  -5.9423349e-01   4.9762671e-01  -7.6488276e-01  -4.1560298e-01   3.4285777e-01   9.3376229e-01   2.8324924e-01  -3.3938713e-01  -6.4523436e-01  -7.3910294e-01  -1.1846450e-01   6.4635680e-01  -1.9050783e-01  -3.4225528e-01  -6.2903215e-01   3.3938062e-01   6.6711968e-01   2.6913918e-01   3.3977190e-01  -4.3624999e-01  -7.0132380e-01  -7.5737162e-01  -7.2666361e-01   3.5767547e-01  -6.7876314e-01   7.9834438e-01   2.8595551e-01  -4.1631994e-01  -4.2135507e-01  -3.3249131e-01  -2.7369648e-01   4.4432606e-01   4.1585816e-01  -3.2395602e-01   9.2019685e-01   6.7304815e-01   7.7637907e-02  -4.1670764e-02   5.0791065e-01   7.7223379e-01  -3.5980184e-01   5.4111237e-03  -8.7883696e-01  -6.3421150e-01  -9.3193461e-01  -4.0896101e-01   8.7368965e-01   8.4719744e-01  -7.4130955e-01  -9.6042430e-01   8.5991784e-01  -4.3308758e-01   1.8410044e-01   3.6415486e-01  -7.5891112e-01   3.8044655e-01  -1.7626116e-01   1.9513975e-01   2.9512650e-01   6.9578029e-01   2.7722984e-01  -8.5044254e-01  -8.8035318e-01  -2.6103996e-01   1.2823875e-01   8.9671202e-01   2.7715204e-01  -2.2188823e-01   1.6055376e-01   2.7107619e-01  -3.0275411e-01   3.8984446e-01   6.0304696e-01   3.6076601e-01  -7.8097883e-01   2.0604098e-02  -6.2586118e-01  -4.9638307e-01   9.0082865e-01  -5.1238667e-01   2.2392811e-01   9.3663417e-01  -2.5836614e-01   8.5097416e-01  -6.9243164e-01  -9.2055593e-01   6.3801736e-01  -3.2032667e-01  -3.3000574e-01  -2.0908216e-01  -5.2637559e-01   8.1202043e-01  -6.4759543e-01   2.0933822e-01   4.2843326e-01  -1.3548746e-02   5.8367047e-01   2.4814120e-01  -2.8741885e-01   7.6928336e-02  -9.8368494e-01  -5.6041853e-01  -9.8409977e-01  -8.0924490e-01   4.9847852e-01   7.3585332e-01  -1.8198385e-01  -3.6499575e-01   7.7305300e-01   5.2869414e-01   5.3188756e-01  -6.4557188e-01  -1.8372916e-01  -8.7233278e-01  -6.5175810e-01   3.8819631e-01   7.4525722e-01  -2.4040748e-01   4.6961900e-01   8.6028079e-01  -4.5389442e-01   5.8573340e-01  -7.4602198e-01   8.3907009e-01  -3.1763826e-02  -5.8336060e-01  -4.6547823e-01  -6.1751484e-01  -2.8254197e-01  -1.6825896e-01  -1.2050618e-01   6.1874304e-01  -6.2941731e-01  -5.6204196e-01   6.8687783e-01   7.1381292e-01   4.5760457e-01  -8.3060312e-02   1.9253519e-01  -9.9772104e-01  -4.8643926e-01   9.6270681e-01  -5.5521427e-01   9.1676758e-01   5.0421824e-01   1.3719259e-01   2.4382705e-01   3.5858184e-01   8.5062714e-01  -2.2774640e-01   4.2258766e-01  -6.2098961e-01   6.8980188e-01  -2.2321335e-01   5.5748951e-01   9.7309011e-01   5.5149357e-01  -4.6380922e-01   5.6263531e-01   8.8402536e-01  -4.5913067e-01  -6.2718915e-01   5.8049705e-01  -1.4710226e-01  -2.7936518e-01  -3.1374103e-01  -1.4361596e-01  -5.0235575e-01   9.0122697e-01  -2.1335227e-01   2.6516582e-01   9.7835728e-01   5.8815542e-01   8.6640303e-01  -1.1338386e-01   5.3905808e-02  -4.2597571e-01   1.2654437e-01   1.0390807e-01  -2.2424955e-01   2.8416705e-01  -4.6564697e-01  -7.2831797e-01  -7.9551459e-01   3.2576202e-01  -8.4279216e-01  -7.6442974e-02  -2.9166283e-01  -5.8091485e-01   5.0177817e-01  -4.6940837e-01  -4.7661913e-01  -4.7887835e-01
