  -2.6350983e-01  -9.7175828e-01  -2.7652674e-01   5.5235854e-01   6.4063474e-01  -1.3576075e-01   5.8839519e-01  -1.6181568e-01  -9.2142499e-01  -9.3511776e-01  -3.8224063e-01  -9.3963147e-01  -6.1843480e-01  -4.4624416e-01   9.5729755e-01  -5.7785137e-01   8.2456093e-02   8.3681483e-01  -1.0644108e-01   5.6850934e-01  -1.7874637e-01  -1.7849561e-01   5.8004625e-01   3.1745891e-01  -9.3169374e-01  -4.2289149e-01  -5.9077837e-01  -6.8091027e-01   6.5016422e-01  -2.8311527e-01  -1.3200472e-01  -6.9979651e-01  -9.1693868e-02  -8.2598516e-01   2.9956465e-01  -1.2877046e-01  -7.6996501e-01  -6.3917995e-01   8.3339441e-01  -1.8525339e-01  -7.2239881e-01   9.5290267e-01   6.7296558e-01   2.6791846e-01  -4.9305876e-01   4.3745131e-01  -7.9644808e-01  -8.9676757e-01  -3.4609886e-01   7.4918829e-01  -6.7714416e-01   6.9268185e-02   8.9707810e-01   9.9519080e-01   1.0496900e-02   9.4874697e-01  -3.3129565e-01  -7.0886666e-02  -2.1730415e-01  -8.4095715e-01  -8.5228384e-01   9.0760591e-01  -2.3975958e-01   8.5083036e-03  -8.8664337e-01  -1.7471592e-02  -5.5464994e-01   8.5652578e-01  -2.6970558e-01   1.9305714e-01  -4.3359840e-01  -1.2016483e-01   9.5123658e-02  -5.3746045e-01  -1.6829044e-02  -6.4373738e-02   7.6491753e-01   4.7551248e-01   8.1953956e-01  -4.6667406e-01   8.0588217e-01  -4.2851128e-01   2.1999768e-01   1.3137956e-01  -2.7008878e-01  -7.6898608e-01  -1.4849361e-01   9.5190704e-01   4.8942685e-01   9.9190532e-01   8.9451459e-01   2.2136958e-01   3.8067370e-02   7.3802353e-01  -2.3386850e-01   8.3188819e-02  -3.4803555e-01  -9.5796370e-01   1.8902424e-01   1.6436048e-02   4.3729072e-01   5.7317368e-02  -2.5839878e-01  -5.4608929e-01   1.6627013e-01  -9.9975525e-01   8.0635550e-01   2.5212345e-01   3.0035829e-02   1.7927281e-01  -7.4661960e-01  -1.1451115e-01  -4.0608621e-01  -3.2422933e-01   4.0416684e-01  -5.8641339e-01   1.8857527e-02   5.7697955e-02   7.2574038e-01   8.9006893e-01   3.1043666e-01   5.0461898e-01   8.6335013e-01   7.6269699e-01   8.9900461e-01   9.5134543e-01  -9.0227995e-01  -5.8495861e-01   6.6570359e-01   1.3752746e-01   4.2280160e-01   2.1628929e-01  -2.8364353e-01  -4.4550101e-01  -4.8149192e-01  -2.0550943e-01  -9.3245676e-01  -8.3971935e-01   6.5666729e-01  -9.4383672e-01   3.3162920e-01   9.8297256e-01   8.4595842e-01  -4.5691273e-01   7.0263116e-03  -3.1644876e-01   5.7347132e-01  -6.7356272e-01   8.4101786e-02   7.0513851e-01   9.3968238e-01  -8.4284103e-01   3.6203759e-01  -3.4436644e-02  -1.7994699e-01  -9.1787451e-02   7.3957925e-01  -5.1508271e-02  -6.8614304e-01   8.1569750e-01  -4.2585322e-01  -6.4546833e-01   9.9516505e-01  -5.1742359e-01  -4.2435085e-01   4.0748241e-01  -6.6206578e-01  -7.9764213e-01   1.9662805e-01   4.3338269e-01  -8.7240233e-02  -8.6207709e-01   3.7218194e-01   6.4187487e-02   3.1208489e-02  -7.6560536e-01   5.5225869e-01  -9.3323457e-01   4.8579489e-01  -1.1159347e-01  -3.4111791e-01  -8.3785419e-01  -4.1027302e-01  -6.0498924e-01   6.2313919e-01  -7.2091130e-01  -7.4754252e-01  -8.0217117e-01   7.7215384e-01   1.7320217e-01   8.8748353e-01   4.8766711e-02   9.1314591e-01  -3.1133110e-01  -3.7525971e-02   5.7515766e-01   2.4574466e-01  -1.1337449e-01  -5.1879573e-01  -3.9555691e-01  -5.8575175e-01   1.7433203e-01  -6.8226429e-01  -6.0153019e-01   6.6337309e-01  -9.1169814e-01   7.9659011e-01  -2.6251221e-01   9.4611498e-02   5.8918578e-01  -7.5738039e-01  -4.1248572e-01  -4.7871607e-01   4.2698002e-01   4.4955162e-01   3.4702510e-01   9.6521503e-01   6.5159934e-04   3.9902836e-01   6.7756652e-02  -9.3911379e-01   6.3490771e-01   3.6462267e-01   6.9471887e-02  -6.7633861e-01  -8.2725139e-03   1.3421380e-01   5.7051877e-01  -6.7480598e-01  -9.6816478e-01   7.2389702e-01   8.4908552e-01   1.3492514e-01  -5.5802682e-01   2.0315268e-01   5.1491261e-01  -8.7715359e-01   6.8270237e-01   3.3857586e-02  -7.1129655e-01  -9.1732697e-01   5.3101686e-01   7.2779712e-01  -6.8980798e-01   5.3402655e-01  -5.5905646e-01  -6.8922269e-01  -9.6296058e-01  -4.3998184e-01  -9.8969200e-01  -6.0214904e-01  -3.2422169e-01   6.7666546e-01  -9.4461676e-01  -1.6317526e-01   2.6809572e-01   7.2101747e-01   5.8118573e-01   2.0002208e-01  -9.4427155e-01   6.8959795e-01   1.9626450e-02   6.5142850e-01  -9.7807208e-01  -4.4701717e-01  -5.2644030e-01   5.6364583e-01  -9.9239113e-01  -7.6887501e-01  -7.9838647e-01   9.5913790e-01   1.5765035e-01  -5.1488907e-01  -7.2553017e-01  -7.0452847e-02  -5.1841061e-01  -5.8562114e-02   2.6221625e-01  -9.9049791e-01  -6.8063716e-01   6.9180421e-01   3.8603622e-01  -9.9432677e-01   7.3040492e-01  -4.6308793e-01   7.4046047e-01   5.5448477e-01  -4.0681808e-01  -2.0505502e-01  -4.3330277e-01   3.3639912e-01  -5.4915271e-02   1.8225581e-01   9.2354335e-01  -1.4099994e-01   9.6776434e-01   9.7715932e-01   3.4841860e-01  -3.6912765e-01  -2.8886636e-01  -5.2547955e-01  -2.4376150e-01   6.5361757e-01  -7.2355347e-01   3.4750604e-02   4.8996168e-01  -4.8220079e-01   2.1007884e-01   8.7576703e-01   1.8131508e-01  -9.4173527e-01  -1.6454262e-01   6.6366268e-01   8.0609957e-02   8.0904918e-01  -6.9603583e-01  -2.8409770e-01  -2.1897185e-02   9.6254218e-01  -6.6556969e-01   2.5294729e-02   7.8243859e-01   9.0422863e-01   2.2283790e-01   8.6250423e-01   6.7359558e-01   6.9454941e-01   1.0164929e-01   5.9031501e-01  -5.0134203e-01  -8.2654896e-01  -6.7280132e-01  -2.0551320e-01  -1.4450660e-01  -5.9185359e-01  -3.5441075e-01  -6.6369775e-01  -2.7718626e-01  -4.6384169e-01  -7.6486771e-01   4.2821130e-01   2.1890973e-01  -6.5267727e-01   3.4854233e-01   1.2786717e-02  -8.2830174e-01  -5.6915119e-01  -4.8667596e-01   4.2323113e-01   8.9603289e-01   4.7737552e-01  -9.6161619e-02   4.4233539e-01   7.7464219e-01  -1.0285814e-01   4.2319899e-01   9.5708189e-01  -9.9459057e-01   5.3663520e-01  -3.2131843e-01   4.7212185e-01  -3.2858877e-01  -7.3508655e-01  -8.5297290e-01  -6.5973340e-01   5.5861025e-02   9.5992496e-01  -1.2437614e-01  -6.1928701e-01   5.2874264e-01   8.7668965e-01  -9.3373282e-01  -5.7529809e-01   6.8381957e-01  -5.4910395e-02   7.6132234e-01   6.8006428e-02  -9.8201887e-01   8.4733456e-01   7.1119470e-01  -9.4781545e-02   5.9800343e-01   8.2531746e-01   3.3148929e-01   6.3809853e-01   4.2166182e-01   2.9221306e-01  -3.1367516e-01   3.2035993e-01  -1.1387858e-01   9.5935700e-01   7.4818211e-01   2.2275326e-01  -4.6755796e-01   3.4123793e-01   7.3203748e-01   9.5305625e-01  -5.6103102e-01   7.3700316e-01   7.7170323e-01   2.6682868e-01   3.4297480e-01   2.9413561e-01   1.6631055e-01   1.3147348e-01  -4.0351252e-01   9.3704573e-01   5.7149152e-01   4.9486799e-01  -9.5760434e-01  -9.5910192e-01  -9.9039286e-01  -5.4733308e-01  -7.9372113e-02   7.3213599e-01   4.2145442e-02   1.9374714e-01   8.0052589e-01   2.6229951e-01   9.1027573e-01   4.8198280e-01  -6.8450552e-01  -6.2581773e-01  -7.4313583e-02  -9.9001469e-01  -5.2165653e-01  -9.2968992e-01  -2.9999602e-01  -4.0941842e-01  -4.4752346e-01   3.3643630e-01   4.8977506e-01  -7.1762075e-01  -7.1944061e-01   7.3392086e-01  -3.7034043e-01   7.6440585e-01  -8.8516703e-01   9.0826264e-01   2.7420034e-01  -4.1363088e-01  -5.0021012e-01   9.1778872e-02  -4.2685243e-01  -8.0677029e-01  -8.9932021e-01  -8.4431573e-02   2.0702012e-01  -8.3440202e-01   9.2608558e-01  -7.9768015e-01   3.8829411e-01   4.8325589e-01  -7.8539883e-01  -1.8508390e-01  -1.7384307e-01   7.2765173e-02   3.0217279e-01  -9.8899178e-01  -6.2661154e-01   7.4928172e-01   8.7944061e-01   8.4548763e-01  -3.3556874e-01   2.8417946e-01   6.9647159e-01  -1.4176672e-01   2.3238616e-02   6.9275497e-02   9.3902884e-01  -8.4513387e-01   7.9963678e-01  -1.8196991e-01   8.6947406e-01  -5.9904975e-01  -5.1505511e-01   9.3947295e-01   6.1379178e-01   9.5188828e-02   5.4330599e-01   6.2099463e-01  -1.3880458e-01   1.1627279e-01  -2.9446973e-01  -6.3930421e-01  -3.3826584e-01  -6.2482582e-01   4.0049560e-02  -9.1457476e-01   3.9539154e-01   5.0393957e-01   7.7261266e-01  -4.7085195e-01   4.8398645e-01   3.2985225e-01  -8.9755757e-01   5.6323251e-01   8.1873116e-01   8.3563487e-02   5.2251124e-01   2.8788467e-01  -1.8769270e-01  -4.1014606e-01   2.6267346e-01  -9.0159476e-02  -4.8382768e-01  -1.6515886e-01  -9.6821989e-02  -1.0740591e-01  -6.4573344e-01  -7.3105073e-02   2.5590341e-01   8.4039707e-01  -7.7752476e-01   1.7538981e-01  -1.1894851e-01  -7.0177326e-01  -5.4790957e-01  -7.6648577e-01  -2.0006003e-01  -5.0732022e-01   6.1732478e-02   3.7561870e-01   7.1029376e-02   1.0708251e-02   8.4716152e-01   2.0761082e-01   2.9581128e-01   8.9891277e-01  -5.4967913e-01  -4.6035844e-01   7.6417260e-01   4.9418713e-01  -6.6352463e-01  -9.1052105e-01  -7.2196162e-01  -6.2548232e-01  -3.4560861e-01   6.7760898e-01   3.1515613e-01   4.5349176e-01   6.9809365e-01   7.4285332e-01  -9.2328475e-01  -4.1543535e-01   2.4247328e-01  -3.2919058e-01   8.4165199e-01   2.8080494e-01   6.4274340e-02   1.4600291e-01  -8.9946193e-01  -1.6464141e-01  -1.4086778e-01   9.1017270e-01   2.1243813e-01  -1.9566201e-01   5.9421811e-01  -8.6508365e-01   8.5665134e-01   4.6574916e-01  -6.5598900e-02  -5.9381376e-01  -8.8998014e-01  -2.7335393e-01  -1.9858675e-02  -5.2040612e-01  -5.8172676e-01  -9.2578886e-01  -6.1550704e-01   2.7541089e-01   8.7115158e-01   7.2684642e-01   7.0946575e-01  -2.8891510e-01  -7.5773237e-01   4.4704096e-01   7.4787467e-01  -5.7141881e-01   6.5755335e-01  -4.6007564e-01   4.6549755e-01   8.0803294e-01   8.3325008e-01  -6.3611888e-01   4.1540181e-01  -3.3485766e-01  -6.5442329e-01  -7.2854695e-01   2.2358290e-01  -3.2489077e-01  -1.9639809e-01  -1.0754898e-01   8.9424235e-01   1.7707155e-01  -6.1997279e-01   7.1454813e-01   9.2745396e-01  -2.3443070e-01  -2.7241743e-01  -5.9673277e-01  -8.9849308e-01   7.9173834e-01   6.4977174e-01  -6.1913600e-01  -2.5554202e-01  -4.5844720e-01  -7.8892212e-01  -6.0162520e-01  -6.8329321e-01   5.3679724e-01  -2.2757137e-01   7.1747378e-01  -1.1363710e-01   3.2298202e-01   2.8814626e-01  -8.3094356e-01  -5.8417313e-01   3.1433873e-01   5.2449397e-01   8.7822771e-01  -3.1937682e-01   4.8272764e-01   6.2499356e-01   8.3099465e-01  -1.3680931e-01  -3.2226397e-01  -3.6549554e-01  -1.3614309e-01  -8.7055839e-01  -2.8328927e-01   8.5090575e-01  -4.0626205e-02   2.0158881e-01  -2.6818936e-01  -1.5298179e-01  -1.7963109e-01  -2.7753381e-01   3.9399145e-01   3.7827665e-01  -4.2463713e-01   3.9735526e-02  -2.9624851e-01   3.3438538e-01   1.1202958e-01   9.0264439e-02   8.7335857e-02   7.5434037e-01   6.6911310e-01   2.0616823e-01  -8.6917421e-01  -3.6059174e-01  -6.2539988e-01   6.7028825e-01   5.3207113e-01  -7.4362306e-01  -1.5637085e-01   6.1781068e-01  -4.6153041e-01   9.9668169e-01   5.6401353e-01   6.0957856e-01   8.2340261e-01  -6.0179178e-01  -3.8584852e-01   5.4747182e-01   3.3861151e-01   6.2570712e-01  -9.0043976e-01  -7.3792799e-01  -9.8846061e-01   3.6809233e-01  -2.9742166e-01   8.9414067e-01  -5.9461420e-02   1.0875878e-01  -5.0874465e-01   7.4822003e-01   5.4115226e-01   4.1955805e-01  -3.3734737e-01   4.0390473e-02  -2.9203070e-01   8.8602859e-01  -8.7094108e-01  -8.1643669e-01  -6.2824645e-01  -2.9095040e-02  -5.9888493e-01   1.2824219e-01   5.9980623e-01   3.5770688e-01   9.8614053e-01   3.3424726e-02  -5.6521760e-01  -5.3264657e-01  -7.7451297e-01   4.3005718e-01  -6.9917901e-01   1.3217192e-01  -6.1900200e-01  -1.2752521e-01  -3.1243713e-01  -3.1917826e-01   2.1987857e-01  -6.4087198e-01  -7.6763704e-01  -4.1659447e-01  -3.5213760e-01  -9.4098872e-01  -6.5164578e-02   1.2108386e-01  -2.5002671e-01  -2.6042984e-02   9.6836843e-01  -9.7619953e-01   6.8518407e-01   8.1824723e-01  -9.2220837e-01   6.7765176e-01  -8.0886631e-01  -5.9526193e-01  -2.0751410e-01  -1.3988275e-01   5.5558522e-01  -7.5324193e-01   7.5766127e-01   7.7607603e-01  -8.2250080e-01  -6.9842509e-01  -9.9132686e-01  -4.1693405e-01   2.5162821e-02   7.9981079e-02   1.5552410e-01  -7.4183644e-01  -2.5996344e-01   5.1019680e-01   6.3128555e-01  -2.2986605e-01  -7.9596429e-01   5.5163624e-01   2.0179645e-01   9.9392127e-01   4.2701589e-01  -8.2902949e-01   5.6244111e-01   4.2619226e-01  -8.1113622e-01   6.8145110e-02   4.3810202e-01  -6.5108011e-01   3.2389166e-01   5.5517700e-01  -8.4068604e-02   9.0817269e-01  -9.8687337e-01   6.0939955e-01   5.2944764e-01  -3.9982853e-01   4.3004521e-01  -8.4596019e-01  -4.5969803e-01  -3.6529888e-01  -3.6058642e-01   8.4667446e-01   6.4771364e-02   8.3801102e-01  -6.3926654e-01   6.8094881e-01  -1.2423342e-02   3.5234750e-01   6.0955558e-01  -7.8440369e-01   5.0286325e-01  -6.5982842e-01   6.1607292e-01  -7.9399908e-01  -4.8314812e-01  -8.0317642e-01  -1.8341291e-01  -5.7027299e-01  -8.5082759e-01   9.1871326e-01   9.8358003e-01  -4.3696636e-01   9.2171784e-01   8.1599508e-01  -4.4865430e-01  -6.7865762e-01   9.6051298e-01   4.9863264e-01   8.8674449e-01  -5.2400322e-01  -7.5781776e-01   8.8615101e-01  -7.9932381e-01  -4.6350919e-01  -5.5748588e-01   3.0239259e-02   1.4093396e-01  -6.0968504e-01   8.5069181e-01   6.3490766e-01   8.6438245e-01  -2.6522949e-01   5.4911822e-01  -1.4051489e-01  -2.7228683e-01  -4.0853157e-02   7.8943126e-01  -6.8054510e-01   4.1790978e-01  -2.0533477e-01  -9.1281561e-01  -5.0396308e-01  -5.4600930e-01   1.3038453e-01   7.5815709e-01  -5.6845583e-01   7.3443429e-01   7.5565833e-01   2.0360535e-01  -1.9323385e-01   5.0306143e-01   8.6508748e-01  -8.8967115e-01  -7.8732703e-02  -1.2199001e-01   8.3261042e-02   5.7350696e-01  -2.6694115e-01  -8.5926570e-01   6.7805723e-01   1.3493382e-01   2.2318168e-01  -4.3804659e-01   1.9428813e-01   4.0380901e-01  -8.8155337e-01  -9.5920863e-01  -6.6703393e-01   4.4096326e-01   6.3625774e-01   4.0315781e-01   4.1702478e-01   4.6597548e-01  -3.3954773e-01  -6.0733720e-01  -5.8620645e-01   9.4444725e-01   4.9115945e-01   7.3804879e-02  -2.1622848e-01   1.1929075e-01   7.9523390e-01   3.9786597e-01  -6.5150970e-01  -7.5191386e-01  -6.1713211e-01  -7.5186456e-01  -9.9791201e-01  -7.8707721e-01   9.1868675e-01   3.1708888e-01   3.7959063e-01   3.5852872e-01   3.2065285e-01  -4.5017178e-01  -4.5479821e-01   2.8625932e-01   7.8920257e-01  -8.0268599e-01  -2.4060608e-01  -1.1352266e-01   9.6692905e-01   7.8726831e-01   1.9188960e-01  -8.1955677e-01   9.9960830e-02  -7.9694063e-01   9.2189535e-01  -4.2567966e-01  -1.4942117e-01  -5.6739375e-01  -1.8873144e-01  -8.8666689e-01   7.4038559e-01   5.5764765e-01   2.9476542e-01   9.8129560e-01  -3.2111419e-01   4.9899051e-01  -2.6253941e-01   7.1818037e-01   6.8797687e-01   2.5481208e-01  -3.0339457e-02   8.9102801e-01  -1.1247701e-01   5.6604542e-01  -4.8759896e-01  -2.1813029e-01   5.1019777e-01   5.7264183e-03  -5.5927752e-01  -7.7010021e-01   7.8123784e-01  -9.4304171e-01   4.9451968e-01  -2.7006293e-01   2.4984281e-01  -3.5766703e-01   9.7101334e-01  -8.7364747e-01  -3.1060576e-01   8.8954171e-02  -3.7775324e-01  -2.0071809e-02   3.2092755e-01   1.4460410e-01   5.6410970e-01  -5.5261544e-01   9.5029116e-01  -7.4682377e-01   8.5920629e-01  -5.9506821e-01  -2.8309916e-01  -2.4743588e-01  -1.7320138e-01  -8.6882794e-01  -9.2490077e-01  -1.8029944e-02  -3.1649810e-01   7.5171061e-01   3.6964337e-01  -2.8760151e-01   9.0116042e-01   6.4272131e-01   7.7438431e-01  -5.1773876e-01   1.2768531e-01   2.7791317e-01  -1.8189183e-01   9.4218958e-01  -1.0152011e-01  -8.4185405e-01   3.8932415e-01   1.8294842e-01  -2.8315506e-01  -6.9015852e-01   7.1110245e-01   6.5357043e-01  -8.9350871e-01  -1.2299615e-01   1.1410648e-01   1.6521859e-01  -4.9121887e-01  -4.4106917e-02  -9.1425138e-01   2.7254042e-01  -4.0115254e-01   9.6607086e-01  -7.1868658e-01   2.4656628e-01   7.5030614e-01   3.7117752e-01  -6.4174807e-01  -2.5044974e-01   6.5328366e-01  -5.4521383e-01   6.0752500e-02   2.4122758e-01   9.1837806e-01   6.2385121e-01  -7.1512222e-01  -6.6410116e-01  -3.6970354e-01  -7.3170269e-01  -3.9821278e-01  -7.1035151e-01   8.0575630e-01   2.4297603e-01  -4.9680671e-01  -9.0139880e-01   4.9016969e-01   7.3229199e-03  -7.5041281e-01   2.4944295e-01   7.8421099e-01   5.3347616e-01   3.8871110e-01   6.2293309e-01   2.0105812e-01  -4.1624805e-01  -4.2504606e-01   9.1916354e-02  -7.8860797e-01   8.1997690e-01   5.5237898e-01
  -9.3662879e-01   6.4614885e-01  -7.9598483e-01  -4.0324916e-02  -5.0083789e-01   1.1568564e-01  -5.9676991e-01  -8.7715610e-01   6.7941872e-01   2.9599662e-01   2.9860059e-01   8.5640475e-01   8.2038340e-01   4.0295496e-02   5.3019680e-01  -5.3315522e-02  -8.1329704e-01  -6.0115161e-01   9.7717471e-01  -7.9512824e-01   9.1539182e-01  -4.0890434e-01  -3.2231906e-02  -4.6104612e-01   8.4160039e-01  -8.6557597e-03   6.6398689e-01  -6.9881789e-01  -4.6236531e-01   2.0258475e-01   9.5834551e-01   6.1141212e-01   1.2787728e-01  -5.1179554e-02   2.7458011e-01  -9.6151041e-01  -1.7997910e-01  -6.4258752e-01   2.3505894e-01   1.3652485e-01  -9.0516209e-01  -5.6335917e-01  -4.5378429e-01   1.0655687e-01   3.7494426e-01   1.9035810e-01   3.2762863e-01  -8.2422392e-02  -8.9850546e-02  -6.8325182e-01   8.7993470e-01   8.9523976e-01  -2.5322179e-01  -9.4560297e-01   3.4352387e-01  -9.0517841e-01   3.8020032e-01  -4.9624168e-01   4.8408203e-01   9.5925804e-02   3.5897973e-01  -6.5291378e-01   6.3924834e-03   1.6777049e-02   9.4139956e-01  -4.6025486e-01  -3.5338655e-01   8.5298337e-01   6.5488992e-01  -2.5257877e-01   6.4825592e-01  -5.4008494e-01  -6.9593788e-01   5.1947672e-01  -2.6843839e-01   4.6075545e-01   6.9640789e-02   9.8660969e-01  -6.0666975e-01  -8.0945103e-02  -2.7433371e-02   2.0289424e-01  -7.4532602e-01  -9.6629437e-01   9.9826645e-01   7.3343968e-01   9.3948249e-01  -1.7334106e-01  -1.9810256e-02   2.2167549e-01   6.4107937e-02   9.6980422e-03  -3.5055669e-01   1.5286716e-01  -6.6681255e-01  -3.4491292e-01   1.8861648e-01   1.8380542e-01  -7.2719068e-01   3.1098993e-01  -7.6226296e-01  -4.2996702e-01  -6.0167049e-01  -2.9287283e-01  -8.1504281e-01  -6.9085250e-01  -5.6575753e-01   2.4548044e-01   7.1952995e-01   9.0247921e-01   3.9697140e-01  -1.1570041e-01  -9.3232275e-01   6.0874287e-01   5.9517095e-01  -1.4491739e-01   3.1021917e-01   9.5507102e-01  -3.0555109e-01   8.9250846e-01  -6.7759441e-01  -4.8444725e-01   5.9190329e-02   1.5479783e-01   6.2660237e-01  -3.5425140e-01  -8.1989363e-01  -6.9206178e-01  -8.5072559e-01   6.7896103e-02  -5.2149168e-01   2.7610099e-01   3.2504565e-01   5.9732445e-01   4.5101922e-01  -7.7628041e-01  -4.6966895e-01   5.5500517e-02  -6.5056883e-01   6.6154479e-01  -6.0649610e-01  -6.3283590e-01   3.1718018e-01  -6.4874254e-02  -3.7274664e-01   5.1995853e-01   1.2912399e-01   8.3757263e-01   2.4346407e-01  -7.1054145e-01   5.9581649e-01  -4.5997800e-01  -2.4290616e-01   7.5641939e-01   4.0290861e-01   9.7848708e-01   2.3985944e-01  -8.3871892e-01   3.1863942e-01   6.3721581e-01   1.3638013e-01   5.0493305e-01  -2.0759948e-01   2.1609713e-01  -3.4934598e-01   8.8590757e-01   7.2253549e-01  -7.2314945e-01   1.1841971e-01   7.1779836e-02  -1.1985433e-01  -7.7750838e-01  -7.7034568e-01  -5.1721165e-01   9.4378723e-01   5.5353092e-01  -9.5719094e-01   9.1053193e-01  -8.8556127e-01  -4.0812437e-01   6.5432161e-02  -4.2596284e-01  -1.9235114e-01   1.9811089e-02  -9.2756221e-01  -1.9690914e-02   8.9414502e-01   2.5080695e-01   2.9475093e-01   6.8310114e-01  -7.9473671e-01   3.0799694e-01  -1.2018297e-01   4.6651669e-01  -3.6816853e-01   4.2883878e-01   3.6013479e-01   9.5411585e-01  -8.0363455e-01   3.3221136e-02  -6.2291099e-02   5.7525770e-01   2.6320518e-01  -2.4778585e-01  -5.7370895e-01   2.3563980e-01  -4.6704125e-01  -4.2943017e-01   7.1687468e-01   1.9216364e-01   5.1015051e-01   3.2556396e-01   9.4144297e-01   8.9156467e-01  -9.1487978e-01  -2.1823241e-02   4.8343674e-01  -6.0573091e-01  -4.5706370e-01  -4.5268756e-01  -6.7545035e-01  -8.6451530e-01   6.3888519e-01  -3.8956209e-01   1.5498706e-01   2.3343555e-01   4.9716743e-01  -9.3863172e-01   3.7403994e-01   9.0565104e-01  -1.9972991e-01  -3.7504177e-01  -7.6589506e-01  -7.5593819e-01   4.6283280e-01  -5.6142100e-01   6.4911545e-01  -8.6830990e-01   3.5091299e-01  -7.6160325e-01   5.8817903e-01   9.6838582e-01  -2.8259192e-01  -1.1666780e-01  -4.9382337e-01  -4.2335061e-01   5.2070499e-01   7.8976814e-01  -5.1520013e-02  -8.0567479e-01   6.1402734e-01  -4.8364656e-01  -7.1054056e-01  -6.4203271e-01   1.5697543e-01   8.9756336e-01  -6.3949140e-01   4.5105099e-01  -6.2436562e-01   2.3114531e-01  -3.2819470e-01  -5.0851548e-01  -2.5649308e-01  -3.2637950e-01  -8.1315855e-01  -6.0341941e-01  -2.2821960e-01  -3.3948486e-01  -3.8934467e-01  -7.9050915e-01   4.9160629e-01  -4.2407696e-01  -1.3183752e-01  -1.5819575e-02   9.6095377e-01   4.6081234e-01  -2.2784603e-01   2.3357839e-01  -5.7288337e-01   8.0838840e-01   7.0042211e-01  -5.1540630e-01  -6.3959875e-01  -2.8392562e-01  -8.3481689e-01   2.1705448e-01  -7.3357039e-01  -1.5309957e-01   5.0936435e-01  -3.6329787e-02  -1.5494359e-01  -7.9408862e-01  -2.0781129e-01   1.5230297e-01   8.9081457e-01   5.2100857e-01   2.7224004e-01  -5.0385929e-01  -6.4156358e-01  -6.1344894e-01  -6.3403626e-01   6.9759795e-01  -2.6480745e-01  -6.6952160e-01   5.2527027e-01  -2.9695212e-01   7.8439026e-01  -4.1055623e-01  -7.3071267e-01  -6.5232809e-01  -7.4969693e-01  -8.0762305e-01   3.3258796e-01   1.7292281e-01  -2.9713752e-01  -4.6230436e-01  -4.2048297e-01  -8.7568624e-01   8.5618482e-01  -7.4142597e-01   9.6449918e-01   2.9250404e-01  -6.2465561e-01  -3.1056533e-02   2.3746371e-01   2.3422509e-01  -9.3643471e-01   1.8834287e-01  -3.1656468e-01  -9.9181869e-01   6.9635622e-01  -2.7204103e-01  -5.5714304e-01  -6.9360803e-01  -9.3693482e-01   2.3773681e-01   1.0699601e-02  -7.6847274e-01  -8.0558958e-01   5.7157460e-01  -7.0901501e-01  -3.1430466e-01  -9.4381673e-01   8.6173706e-01  -9.6916741e-02  -9.8265118e-01   6.2570838e-01  -2.0417643e-01  -8.3195683e-01  -5.0210159e-01  -8.5034467e-01  -5.3167290e-01   6.8360162e-01   7.0456593e-01   2.3492209e-01  -3.9286612e-01  -9.2569805e-01   2.9079655e-01   5.5185892e-01  -7.1168439e-01  -3.5670523e-01  -5.6161505e-01   4.9753189e-01   2.1916511e-01   1.1068179e-02  -2.6270221e-02  -7.0721492e-01  -9.0395868e-01  -5.9040019e-01   6.5824886e-01  -3.3896591e-01   8.5934822e-01   4.1862351e-01  -8.0663079e-02   7.5895160e-01  -1.0494464e-02   6.4731711e-01   1.4816102e-01   6.6076297e-01   4.8242486e-01  -3.3723363e-01  -5.5975781e-01   1.5370417e-01  -4.8811579e-01  -3.8031439e-01   2.2304550e-01   3.2841796e-01  -1.9020910e-02  -9.5664658e-01   4.5499120e-02  -8.7871144e-01  -6.8843345e-01   8.6590975e-01  -4.4429889e-01   4.4653567e-01  -2.3370055e-01   4.6624869e-01   2.4843847e-01   8.5885599e-01  -5.5552895e-01  -4.0452732e-02  -1.9022778e-01   4.4749175e-01   9.5256825e-01   9.5479089e-01  -6.0745684e-01   6.9146504e-01  -2.5479244e-01  -8.8822148e-01  -6.0126522e-01  -9.2136322e-01   3.2002743e-01  -9.1886250e-01  -5.4911496e-01   1.2124685e-02   6.3991425e-02   1.1680033e-01  -4.0405511e-01   3.2813617e-01   3.9210073e-01  -5.0682510e-01   6.6291524e-01  -7.6784786e-01   2.2835354e-01   2.5294567e-01   5.8066946e-01  -6.6789446e-01  -9.9101349e-01  -5.6765651e-01   1.9115354e-01  -5.3963139e-01  -3.8960988e-01   9.8650317e-01   6.4857942e-02  -8.7327578e-01   5.4710186e-01  -1.9119440e-01  -7.6444485e-01  -8.3585856e-01  -3.0429397e-01   2.8377080e-02  -8.6461473e-01  -9.5729850e-01   1.5514444e-02  -3.6445667e-01  -1.3935001e-01   7.9249853e-01   1.2208079e-02   3.6647632e-01   5.4963097e-03   5.4593478e-01   1.4167502e-01  -5.3100602e-01   7.2054212e-01  -5.7357436e-01   7.6368513e-01  -5.1939598e-01   1.4354165e-01   9.2139483e-02  -1.9511793e-01   3.9114154e-01  -6.3318328e-01   2.2652821e-01   7.8977448e-01   7.3007037e-01   8.5753948e-01  -1.9348029e-01  -2.4176368e-01   9.7042688e-01   3.3213864e-02  -6.9473294e-01  -8.3031326e-01   8.6106739e-02   7.0940508e-01   5.6258305e-01   1.7626907e-02  -7.0622612e-01  -4.5315267e-01   4.0684984e-01  -4.7607634e-01   4.5699644e-01   7.4775460e-01   5.7949940e-01   1.5933440e-01   4.5682584e-02   9.1510281e-01   8.6335659e-02  -5.6971414e-01   9.9014455e-01  -8.1087773e-01   7.6534366e-01  -8.9625362e-01   9.5573987e-01   4.9387081e-01  -6.1834015e-01   4.1018418e-01   7.0055265e-01  -9.6076247e-01  -9.6361982e-01   8.6075339e-01   2.8108803e-01   2.2005043e-01   4.1537488e-01   2.4680018e-01  -4.3882091e-01  -3.0749288e-01  -4.7015161e-01  -8.3200500e-01  -1.4116468e-01  -1.9490010e-01  -6.9079841e-01  -3.7430141e-01  -2.5730224e-01  -4.3984542e-01   5.2375043e-01  -2.5405902e-01  -5.2058693e-01   7.3680330e-01  -1.0242047e-01  -9.7284977e-01  -3.6961212e-01   6.0323746e-01   3.0064059e-02   3.2584162e-01  -4.1950506e-01   2.9725953e-01  -5.7318308e-01  -9.1045843e-01   5.6201199e-01  -9.2172678e-01   3.1351660e-01   8.7279823e-01  -1.6075206e-01   3.9040157e-01  -7.3520699e-01  -3.5408707e-01   7.2084403e-01  -8.3427265e-01   2.2182026e-02   7.9811979e-01  -3.7942482e-01   3.7797252e-01  -7.1656703e-01  -6.1467645e-01  -3.5267582e-01   3.1929668e-01  -4.5606316e-01  -1.2676376e-01   9.4291126e-01  -7.7110802e-01   4.6556644e-01  -2.2383066e-01  -6.3507299e-01  -7.2318257e-03  -8.7944955e-01   7.0398877e-02   1.7409410e-02   6.9649547e-01  -9.9610704e-02  -8.3105285e-01  -6.8276869e-02   7.3534998e-02  -4.3408447e-01   6.4758957e-01   8.0487615e-01  -5.9985203e-01   7.5595923e-01  -3.9772172e-03  -7.8002208e-01  -4.4493175e-02   7.3963037e-01  -3.6433883e-01  -3.9857648e-01   8.3444883e-01   9.6720980e-02  -2.6758106e-01  -9.4138996e-02   5.8092398e-01  -4.5939680e-01  -9.0155342e-01  -9.8843148e-01  -7.6446098e-01   8.4723833e-02  -1.0794925e-01  -8.8005486e-01   6.3942246e-01  -4.7265797e-01   2.0454051e-01  -4.5644951e-01  -5.1695216e-02  -7.9293909e-01  -8.9200338e-02  -1.2717031e-01  -1.5559849e-01   4.3109096e-01  -7.6195454e-01   3.7631201e-02  -7.6911826e-01  -8.5436646e-01  -5.0307233e-02   3.1310343e-02  -1.0056451e-01   2.5539927e-01   2.6037086e-01   2.4627685e-01   9.5727322e-01  -9.3907727e-01   9.6387863e-01   2.3780675e-01  -1.7598560e-01   4.6874069e-02  -3.8645066e-02   4.3631509e-01   9.9125844e-01   4.4760820e-01   3.7696739e-01  -7.8962607e-01  -8.2317446e-01   5.3396521e-01   2.4100363e-01   7.9527212e-02   2.9945081e-01   2.8643038e-01  -3.2617045e-01  -9.3876059e-01  -8.0348806e-01   6.3985326e-01   3.2604063e-01  -2.3007322e-01   6.7883651e-01   1.6185660e-01   6.9512536e-01  -1.2565555e-01  -5.0615707e-01  -5.2638726e-01   2.0809876e-01   6.5020225e-01  -6.3322121e-01  -9.4868226e-01  -4.4129343e-01  -1.8686747e-02  -7.9779645e-01  -8.9480601e-01   2.4753517e-02   8.9229939e-01  -3.8841302e-01   9.2651503e-01  -8.5964547e-01   2.0126437e-01  -8.5144699e-01   7.1397978e-01   3.1166156e-01  -9.7360120e-01   2.1088013e-02   7.7576194e-01  -4.2197724e-01   5.8343867e-01  -9.7760656e-01   5.2356484e-01  -7.7871258e-01   1.3995896e-01   2.0105762e-01  -8.4444393e-01   5.2982544e-01  -9.4617163e-01   6.2975739e-01  -7.4100204e-01  -8.9930513e-01  -7.7673017e-01   4.9184233e-01   2.7707775e-01  -5.3557589e-01   2.5722721e-01   5.4038040e-02   1.9064957e-01   1.6603688e-01   4.4909191e-01   3.3303660e-01  -9.7963828e-01   1.3085979e-01   1.7337703e-01  -5.4356997e-01   9.7114979e-01   5.4032064e-02   1.5139566e-01  -2.4406792e-01   5.5726307e-01   5.0958128e-01   6.8110711e-01  -7.5736261e-01  -6.4623105e-01  -2.6039515e-01   4.7246437e-01  -7.1480039e-01  -4.9818910e-01   2.6060553e-01  -2.9716680e-01  -4.2460806e-01   3.4853785e-01  -9.2177582e-01   9.4609291e-01  -9.5365095e-01   2.1888276e-01  -5.4676361e-01   2.5634950e-02   4.1415457e-01   3.8513417e-02   9.4341255e-03   7.0095695e-01   4.1827672e-01   9.7843533e-01  -3.9530129e-01  -5.9585290e-01   8.8370857e-01   1.3647618e-01   3.2228787e-01  -3.3817861e-01  -9.5315352e-01  -6.7847119e-01   7.5022600e-01   1.1245301e-01  -7.0028895e-01   2.2816721e-01  -5.2859102e-01   9.5590896e-01  -9.1644943e-01  -8.5459733e-02  -8.2649104e-01   7.0715767e-01   2.1179952e-01   9.4666534e-01  -9.2903636e-01  -5.0341337e-01   6.0807718e-01  -7.2428643e-01   4.1737466e-02  -5.1871675e-01  -9.7539863e-01   9.7053114e-01  -8.4517361e-01  -8.0864739e-01  -4.5135821e-01   3.4825053e-01  -7.5678461e-01   3.0103337e-01   4.5886750e-01  -1.5494822e-01   6.7288145e-01  -6.6380336e-01   8.0507905e-01  -4.3643795e-01   9.7204038e-01   8.2987171e-01   5.3437614e-01   7.8333264e-01  -3.0962885e-01   7.2951652e-01  -5.6691347e-01   5.9700492e-01   4.1552929e-01  -9.8529352e-01  -3.5058709e-01  -6.4042150e-01  -6.3430342e-01  -7.9327789e-01   5.8337039e-01   6.0697855e-01   1.1903426e-01  -6.6596148e-02   9.7821356e-01   8.2345382e-01  -8.7863456e-01   3.0775409e-01   8.8750992e-01  -4.9743035e-01   9.5460229e-01   5.3281011e-01  -4.7179283e-01  -9.0665286e-01  -6.3453681e-01   9.3728649e-01  -9.2204373e-01  -5.8379221e-01  -2.0561081e-03  -5.7767567e-01  -4.8972715e-01  -9.3376251e-01  -5.2613848e-01   3.3323627e-01   6.6300280e-01  -7.4441857e-01   4.1303620e-01   5.1322059e-01  -7.3241042e-01   2.8638644e-01   1.0941640e-01  -1.9851930e-01   9.6830484e-02   8.5070189e-03  -3.5567019e-01  -7.6615821e-01  -1.9140431e-01  -3.5957048e-01   4.7795476e-02   6.0175825e-01  -5.4681863e-01  -5.6936727e-01  -6.3352812e-01   1.7859244e-01  -8.9924913e-01  -6.0642871e-01  -8.4103203e-01  -3.9863489e-01   2.4014180e-01   4.8412636e-01  -7.2737981e-01   1.4133515e-01   9.0028729e-01  -9.1881219e-01   2.7181327e-01   5.7659418e-01   6.6258217e-01  -8.6073962e-02  -5.5215546e-01  -7.0832138e-01  -9.0121486e-02  -2.1134932e-01   3.1666514e-02  -7.9766230e-01   3.6454444e-01  -1.1278922e-01   7.9965785e-01  -8.9560493e-01  -7.1233054e-01   1.9565948e-01  -4.0044638e-01   9.1516148e-01   7.6098792e-01  -6.7915539e-01  -5.9827365e-01  -4.8358418e-01   5.7756107e-02   4.0898068e-01   3.9431232e-01   8.6330739e-01   1.8106263e-01  -6.5153463e-01  -4.4656024e-03  -4.6557054e-02   9.8012843e-01   7.2596787e-02  -3.7997368e-02  -8.6485359e-01  -2.9450533e-01  -5.4125944e-01   9.6887765e-01  -7.8712468e-01   3.1678544e-01  -9.2559793e-01   4.3080853e-01  -4.1236925e-01  -3.8082271e-02   1.7278780e-01  -3.8150237e-01   3.0907297e-01   8.4464297e-01  -9.3120776e-01   4.4436289e-01   8.3367140e-01   5.6899184e-01   3.3720825e-01  -6.5455969e-01  -4.0272690e-01   6.6934617e-01   8.8843176e-01   5.9580682e-02  -5.5014948e-01  -4.5251817e-02   5.2934289e-01  -3.5993982e-01  -7.3449472e-01   2.6391758e-01  -5.2063196e-01  -3.0852766e-01   6.1672328e-01   5.3160005e-01   1.0850521e-01  -2.4640257e-01   2.5362481e-01  -2.4155202e-01  -7.7367512e-01   4.8679817e-01   8.9129390e-01   2.1843685e-01   9.8322998e-01  -6.4801191e-01   7.2730563e-02  -3.7053280e-02  -6.2437017e-01   8.1893752e-01  -3.3910157e-01   2.8168219e-01   6.7150944e-01  -7.4582909e-01   9.9092156e-01   1.7719661e-01  -9.5184527e-01  -6.7429200e-01   5.0410004e-01   5.3306997e-01  -7.1296892e-01   2.6741048e-01  -7.0620784e-01   9.2844518e-01  -7.7304353e-02   8.7858339e-01   5.1035907e-02   5.3716736e-01   8.0311601e-01   2.0940950e-01   9.7199059e-01  -5.5643495e-01  -3.2523863e-01  -8.4519999e-01   2.6430557e-01   6.0346885e-01   9.9168663e-01  -8.1239393e-01   5.3236847e-01  -2.6476782e-02   7.0529089e-01   8.5348752e-03  -3.3232031e-01   8.5624389e-01   9.1764826e-02  -3.9472586e-01  -3.9668859e-01  -3.1331705e-01  -4.1578573e-01  -2.6085284e-01   6.7868621e-01   4.7281846e-01  -4.9758939e-01  -7.9703563e-01  -4.8624297e-01   5.1734817e-01   6.6078497e-01  -5.8128277e-01  -3.3887052e-01  -8.6150326e-01  -9.2896781e-01   8.1034182e-01  -8.9673636e-01   7.8022683e-04   8.3859665e-01   3.6382753e-01  -6.0752524e-01   4.8469680e-01  -9.6749507e-01  -5.4974235e-01  -3.4927330e-01  -5.8664395e-01  -1.9782418e-01   6.2264641e-01   6.6030727e-01   5.5862731e-01  -2.0592020e-01  -4.2889644e-01   2.1907776e-01   9.0440381e-01  -3.5899970e-01   5.9032564e-02   6.8633357e-01  -7.8846229e-02   7.9885094e-02  -4.6766159e-01   4.7906847e-01  -8.4768057e-01  -7.1825171e-01  -4.1925890e-01   8.6254855e-01  -8.1685623e-01  -6.0970976e-01  -6.3608722e-01   6.6403238e-01  -1.5966831e-01   2.2073328e-01  -7.0266427e-01   5.4005104e-01   2.1327220e-01  -7.7504036e-01  -6.5369107e-01  -4.5197246e-01  -6.5271067e-01   4.3444230e-01   3.1968029e-01   7.8869283e-01   9.6051978e-01   3.5099784e-02  -3.0150355e-01
   5.6067613e-01   8.5450100e-01   6.4062955e-02  -2.1710408e-01  -6.7441341e-01   9.8851194e-01   8.6394893e-01  -8.5089477e-01   7.5499307e-02   5.7632137e-01  -9.1865698e-01  -1.6086987e-01  -7.5193627e-01   6.3943450e-01   5.0890082e-01  -5.6667112e-01  -7.6796394e-01   7.2468817e-01   6.1025673e-01  -7.8088137e-01  -3.9486764e-01   8.9144467e-01   6.1080441e-01   1.2647233e-01   1.7579631e-01   7.1423027e-01   9.9022802e-01   7.2565709e-01   8.7559975e-01  -2.1466095e-01   7.5490717e-01  -5.0029166e-01  -4.0312555e-01  -4.5579482e-02  -7.2483828e-01  -4.1540888e-02  -1.5399407e-01   4.4379204e-01   8.9294274e-01  -5.4591227e-01   7.4828124e-01  -7.8728828e-01   3.0565911e-01  -3.2643030e-01  -6.0975205e-01  -9.9663109e-01  -5.2618770e-01  -7.4924129e-01   4.4497880e-01  -7.0346307e-01   8.1831925e-01   9.5635144e-01   4.7108329e-01  -9.7706796e-01   1.2396929e-01   8.1043871e-01   7.8172300e-01  -4.3287916e-01  -7.8888042e-01  -4.8716290e-01  -8.4567899e-01   1.4829753e-01   3.7377960e-01  -5.5980920e-01  -4.1276503e-01   3.5625061e-01   9.9805545e-01   1.1857656e-02   7.5101531e-01   4.3677380e-01   6.6944052e-01  -4.1836089e-01   8.3745846e-02  -5.0746656e-01   8.7547481e-01   2.4458796e-01   3.6678913e-01  -6.1712964e-01   1.4671807e-01  -6.8199282e-01  -7.3517723e-01   6.6854334e-01   4.0497076e-01  -8.5741612e-01  -8.3929485e-01   9.3202780e-01  -8.7910708e-01   9.3457178e-01  -6.1243352e-01   9.9092350e-01  -5.4117322e-01   2.0768042e-01  -7.5549871e-01  -3.4576952e-01   8.0254625e-01   4.2862453e-01   3.1436634e-01   4.2279890e-01  -3.5599210e-01   4.7350342e-01   8.1154134e-01  -9.0692584e-01   2.0461676e-01   4.5452201e-01  -3.7009033e-01   2.4541204e-01   4.0214819e-01   9.1907854e-01   1.9160617e-01   9.5075729e-02   2.3324956e-01   4.9907941e-01  -7.0794278e-01   7.0387077e-01   5.7245241e-03  -1.5315319e-01   6.1508795e-01  -7.3397336e-02  -5.5577888e-01  -2.0641869e-01   8.0705360e-01  -7.6662496e-01  -8.4337627e-01   3.4565955e-02   3.1975259e-01  -5.0665623e-01  -5.6090325e-01  -8.0095498e-01   4.3440389e-01  -9.1124657e-01  -6.2587378e-01   1.8614963e-01  -4.5655793e-01   7.6505202e-01   1.7443444e-01   2.8628630e-01   5.9294671e-01   1.5127323e-01  -5.6495313e-01   3.4454155e-01   2.1973187e-01  -8.9970798e-01   9.0860857e-01   9.5666929e-01  -7.4433143e-01  -4.5282467e-02  -8.1276310e-01   8.7413062e-01  -2.4985165e-02  -6.6383368e-01   5.0485983e-01  -4.7173343e-01  -4.2755216e-01   7.0526517e-01  -5.7854302e-01   1.9329857e-01  -6.7112126e-02   4.3355001e-01  -8.3209084e-01  -9.0818698e-01   6.6788730e-02   1.1510409e-01  -5.1933008e-01  -3.3185318e-01   5.8435325e-01  -5.0905519e-01   6.8447773e-01  -6.1217818e-01   7.8066467e-02  -2.5589255e-01   4.6075928e-01   6.3274499e-01   7.5624949e-01   6.0980050e-02   4.4104053e-01  -5.6751373e-01   6.4985569e-01   6.4330977e-01   1.9261899e-01  -9.8101989e-01  -8.2413352e-01   8.5471932e-01   3.7851185e-01  -8.4484872e-01   2.3289335e-01   3.8912856e-01   4.9380693e-01   4.5114929e-01  -8.3894328e-01   8.9140914e-01  -7.5193993e-01  -8.0461645e-01  -5.1130099e-01   2.0449659e-01   9.3038287e-01   9.6741286e-01  -4.1626071e-01  -9.5937364e-02   9.4752802e-02   3.6098688e-02  -5.9732278e-01   9.6719592e-01   4.4534950e-01  -4.5021153e-01  -8.2651055e-01  -8.6768342e-01   9.8323188e-01  -1.6585913e-02  -1.6690498e-01  -2.2298647e-01  -4.7432898e-01   5.8816837e-01  -2.6866493e-01  -6.4896333e-01  -7.1779841e-01  -5.2588264e-01   5.8875491e-01   6.1702422e-01  -7.4368418e-01   5.5968200e-01  -6.4657367e-01   4.2423014e-01   9.4481462e-02   5.4304363e-01  -8.1908488e-01  -2.4043773e-01   9.8452171e-01  -3.6843007e-01  -9.0296890e-01   6.2028444e-01  -8.3462815e-02   8.5605574e-01  -3.6558088e-01  -8.3655829e-01   1.7968010e-01  -5.3570465e-01   9.7856040e-01   7.1712778e-02  -9.4724870e-01  -2.0240345e-01  -6.8911525e-01  -2.6163703e-01   9.6681535e-01   6.7202690e-01   7.8356904e-01   3.5859434e-01   7.0345645e-01  -3.6020708e-01  -4.9873411e-01  -7.2846588e-01  -5.7526425e-01   5.9849546e-01  -5.3815201e-01   4.7818633e-02  -3.4772281e-01   3.3627671e-02   4.0350893e-01  -3.2195668e-01  -9.2350772e-01   5.6652793e-01  -6.4839975e-02  -3.2282634e-02  -6.9615128e-01   9.6137113e-01  -3.1483796e-02   5.6980569e-01  -5.7264340e-01   2.1132652e-01  -1.2159266e-01  -9.1618674e-01  -5.6194350e-01  -4.0402920e-01  -2.2623935e-01   6.7754928e-01  -7.4817163e-01  -3.9176496e-01  -2.8783399e-01   4.0225664e-01  -6.7371273e-01   2.3632087e-01  -4.7130689e-01   6.3782040e-01  -5.3921426e-02  -8.1643160e-01  -4.8976493e-01   1.1995284e-01  -1.9358543e-01   3.5923860e-01  -1.0126837e-01  -7.8425606e-01  -5.6862977e-01  -8.8806333e-01   2.8771709e-01  -4.5763533e-01  -3.2367735e-01   2.2170857e-01   3.6473054e-01  -4.8131659e-01  -7.7611982e-01   6.3273048e-01  -4.3246344e-01   6.9888965e-01  -4.5011620e-01   2.6058564e-01  -8.5815360e-01   9.6958309e-01  -2.0424200e-01  -2.3565085e-01   8.9197341e-02   3.3007807e-01  -3.3936584e-01   3.7631764e-01  -4.7042828e-01   2.5343200e-01  -3.5237767e-01  -8.0393889e-01   4.4333357e-01   3.8378982e-02   7.8251271e-01  -5.1779932e-01  -3.5899586e-01   9.6672472e-01   4.6631559e-01   4.8196322e-01  -9.1874469e-01   2.3942981e-01   2.8499290e-01  -9.8302446e-01   1.7614484e-01  -1.6639010e-01   3.4045953e-01   7.3266270e-03  -3.6599797e-02  -6.6146822e-02  -2.3685079e-01  -5.9764259e-01   8.3137103e-02   6.9982195e-01  -3.1240499e-01   4.1745003e-01  -7.0530712e-01  -2.9067917e-01  -4.6083749e-01   9.0548231e-02   3.9778525e-01  -4.1967846e-02   5.9429637e-01  -9.5152467e-01  -6.2725198e-02  -4.0101458e-01   4.1150453e-01   7.4484849e-01   4.7584799e-01  -6.1134046e-01   6.1379756e-01  -5.1530768e-01  -2.9821805e-02  -6.8420338e-01  -9.1252563e-01   3.3732866e-01  -2.2779726e-01  -1.4306572e-01   5.7304418e-01   1.1085241e-01  -1.2622240e-01   1.2423377e-01   7.4204908e-01  -2.2650383e-01   3.1464398e-01   4.5326173e-01   9.1725951e-01   9.0169721e-01  -7.4228065e-01  -7.5852525e-01   2.0036951e-01  -1.0626635e-01   7.1056360e-02   1.7115623e-01  -1.5195603e-01  -2.8587442e-01   8.7451175e-02  -9.1850683e-01   4.4085640e-01  -8.2444361e-01  -5.0116066e-01  -1.4495801e-01  -9.5889228e-01  -4.7993808e-02   2.9192154e-01  -8.2138152e-01  -2.2695570e-01   3.7337293e-01   1.2577902e-01  -1.0987559e-01  -5.8106295e-01  -1.7911087e-01   6.5498382e-03  -2.8104793e-01   3.1501638e-01  -8.7483450e-01  -4.6326140e-01   3.5598017e-01   2.8494569e-02   3.3344204e-01   6.7293219e-01   4.2184583e-01   6.4891900e-01  -4.0506141e-01   7.4215632e-01  -8.8496261e-01  -6.1781050e-01   8.8592317e-01  -1.2417003e-01  -9.3516652e-01  -2.5444308e-01  -5.6105399e-01  -3.4350934e-01  -2.7164053e-01  -9.7200116e-01   2.0965294e-01  -4.3343078e-01   6.7513046e-01   1.1227238e-01   1.6010717e-01  -3.7607010e-01  -1.6611007e-02   4.3646690e-01   5.9010477e-01  -3.4401067e-01   8.1250853e-01  -3.9809853e-01  -3.5437964e-01  -8.1502841e-01   7.4969921e-01   1.5822050e-01  -6.0630449e-01  -1.1960212e-01  -1.4580993e-01   7.5277077e-01  -5.2340854e-01  -3.9668580e-01  -2.4263083e-01  -7.8798835e-01   4.1669664e-01  -8.3509851e-01   9.5101032e-01  -9.8011299e-01   2.9484220e-01   7.0135078e-01  -8.5571326e-01   2.5987810e-01   2.6539445e-01   9.2019270e-01  -4.1592339e-01   7.7674560e-01  -3.7514236e-01  -6.5520912e-01  -1.5282915e-01   8.6793813e-02  -2.1049314e-02  -5.8286634e-01  -7.7057058e-01  -6.5267769e-01  -8.3177643e-01   8.1889893e-01   7.8304389e-01  -3.5450932e-01  -7.7440759e-01   6.9438546e-01  -9.8649965e-01   5.6741039e-02   1.8299082e-01   3.0069779e-02  -1.3452932e-01   3.2292507e-01  -5.0330252e-01   5.9059821e-01   8.0772514e-01   6.8900487e-01   5.6833543e-01   8.1367966e-01  -7.9172212e-01  -4.2653547e-02  -2.9862138e-01  -3.5101702e-01  -3.5664499e-01   4.8958893e-01  -2.9733655e-01  -5.8433151e-01  -3.5691157e-01  -8.7540767e-01   5.3784316e-01  -5.2994518e-01   8.2726181e-02   4.0948078e-01   3.5453014e-01  -5.8959192e-01   6.0340201e-01   1.6888885e-01  -6.7695563e-01  -1.9829670e-01   8.9307744e-01   8.2681518e-01   7.6631395e-01   9.6216127e-01   5.0788721e-01   1.5315560e-01  -6.5206841e-01   5.4444072e-01   1.0456073e-01   7.2478226e-01  -5.8378139e-01   3.1707097e-01  -2.5008706e-01   6.4330027e-01  -8.1015784e-01   5.7005320e-01   9.1321816e-01   8.7100487e-01  -2.9572519e-02  -3.1791057e-01   1.4684874e-01   2.9378417e-01  -1.5691460e-01  -2.2339759e-01  -2.6280246e-01  -5.0122757e-01   2.2452732e-01  -5.4889767e-01   3.9684406e-01   2.6552274e-01   9.8199535e-01   9.1970999e-01   3.1785562e-01   3.1725078e-01  -6.3621099e-01   3.0244114e-01   5.9263820e-01  -3.4240765e-01  -1.5030738e-01  -1.7299132e-01   4.9245503e-01   6.9964627e-01   6.5013270e-01  -7.0949708e-01   8.5102956e-01   6.3674668e-02   8.8173150e-01   4.8196924e-01  -9.4650430e-01   4.4555734e-01   1.5333610e-01   5.6988231e-02   2.0769655e-01   5.4131829e-01   6.6441941e-01   9.2897094e-01  -2.8874619e-01  -3.1512649e-01   5.6722683e-01  -5.4028944e-01  -1.4864110e-01   4.4052511e-01   2.6768005e-01   7.5598036e-01   5.2514749e-01  -6.3311137e-01  -3.2333114e-01  -1.1512772e-01   6.5697308e-01  -6.3025475e-01   7.1327431e-01  -3.7698127e-01  -3.6767810e-01   7.3128814e-01  -4.6358527e-01  -9.2638427e-01  -9.8912473e-01   5.5870649e-01  -1.9296297e-01  -8.4923272e-01  -6.2805839e-02   6.2980656e-01  -4.9756732e-01  -3.2940847e-01  -8.4354390e-01  -4.8296600e-01  -2.0604245e-01   4.3211708e-01  -3.2987467e-01  -5.1156236e-01   4.1555881e-01  -8.5505619e-01  -9.8890363e-01   5.8951143e-03   7.6296989e-01   8.5445410e-01  -7.3634367e-01   4.7464482e-01  -5.0745383e-01  -1.7468802e-01   5.5160525e-01   7.6817347e-01  -3.2674186e-01   8.6712493e-01  -4.1711344e-01   7.9208384e-01   4.6035710e-01   7.3654263e-01   2.0280921e-01  -6.2143667e-01   6.6841707e-01  -1.6630076e-01  -3.9516910e-01  -3.5709563e-01  -2.2618770e-01  -5.1644770e-01  -4.7526462e-01  -6.0416564e-01  -7.9723897e-01  -7.6666981e-01   5.0816815e-01   6.2868492e-01  -8.1034867e-01  -3.3727236e-02  -5.2928264e-01  -9.3083042e-01   8.7611006e-01   7.7867863e-03   3.9946387e-01  -5.8241769e-01   3.9654281e-02   5.9412022e-01  -2.0839977e-01  -7.5883418e-01  -5.8411826e-01  -4.8670804e-01   8.3059428e-01  -4.2696918e-01   1.2397201e-01  -5.7838035e-01   4.6427095e-01  -7.4415866e-01  -5.1957922e-01   1.5503119e-01   4.9860497e-01  -8.5987437e-01  -4.4272386e-01  -3.9907428e-02   5.3494651e-01  -7.0142077e-01  -7.9402271e-01   8.4649100e-01  -4.4880642e-01   2.6030790e-01  -7.8427238e-01   7.7456986e-01  -5.7155286e-01   3.9457592e-01  -9.0959141e-01   7.7397947e-01   5.1652929e-01  -5.9079702e-01  -6.5044460e-01  -7.7299733e-01  -7.8903679e-01   1.9057439e-01   4.7916503e-01   3.1897149e-01  -5.6015672e-01  -5.8825842e-01  -7.6972406e-01   1.4282488e-01   2.8071457e-01   9.9769401e-01   8.7459773e-01   3.7951249e-01  -6.9552945e-01   5.7025815e-01  -5.4629892e-02  -7.5366320e-01   9.8080886e-01  -9.1755567e-01  -8.8915057e-02   8.2417514e-01   7.6025042e-01  -5.6543266e-01  -7.6449547e-02  -7.0472256e-01   5.3774612e-01   4.2640335e-01   6.7986631e-01  -9.2110064e-01  -8.9539839e-01   3.9508804e-01  -6.4431912e-01  -1.4512885e-01   8.3298454e-01  -3.1973521e-01   6.8110331e-01   9.3685338e-01   2.4248056e-01  -4.2246335e-01   7.6897021e-01   5.2576687e-01  -5.5292785e-01   7.3685578e-01   2.8142479e-01   5.3709493e-01   6.2010064e-03   1.5246636e-01  -1.2994934e-02   7.7047394e-01  -3.9711766e-01  -3.7981286e-01   2.6474462e-01  -7.7801384e-01  -2.3120127e-01   7.8136883e-01  -5.0812203e-01   5.8845766e-01   4.5244607e-01  -7.5721233e-02  -7.9256489e-01   6.1371838e-02  -1.9152915e-01  -9.4622686e-01  -9.1752373e-02   9.6785775e-01   4.8718566e-01  -9.0670976e-01   4.9053879e-01   2.0514133e-01   9.5900853e-01   7.8873051e-03   9.1368311e-01  -3.1050126e-01   5.1793045e-01   9.2941808e-01  -3.3262397e-01  -7.6344847e-01   7.0247798e-01  -9.1980883e-01  -8.0438426e-01   2.0324640e-01  -8.0566715e-01   8.5840851e-01  -4.1017973e-01  -1.9940592e-01  -4.8016545e-01   7.5095150e-01  -7.7811425e-01  -8.8896552e-01   7.4565914e-01   3.3007030e-01  -7.6050146e-01  -4.9756580e-01   7.3210964e-01  -1.6123112e-01   2.5008655e-02  -4.3001686e-01   1.3793945e-01  -4.5425291e-01  -4.0141096e-01   2.2164304e-01  -9.8739163e-01   6.5310745e-01  -3.1421706e-01   9.7554968e-01  -5.6613598e-01  -3.8854806e-01   3.6511020e-01  -6.2583379e-02  -1.0496405e-01   9.1025696e-01   9.9925302e-01  -5.2509092e-01   2.0384985e-01   3.2313067e-01  -6.6175079e-01  -5.2027167e-01  -1.8162440e-01  -3.5576776e-01  -9.4854679e-01  -3.8957599e-01  -1.4670014e-01  -6.1593485e-01   6.7906460e-01  -7.3394852e-02  -1.9908426e-01   5.1277756e-01  -3.3841839e-01   9.9986733e-01   5.4127478e-01  -3.6308233e-01   8.2066426e-01   5.6870782e-01   8.6144544e-01   5.2409628e-01  -3.9346936e-01  -7.9705757e-02  -9.3655533e-01  -8.1506073e-01  -2.3208809e-01  -6.6173752e-01   7.4216841e-01   1.5167165e-01  -8.2447762e-01   1.4493526e-01   4.9606619e-01  -9.6953955e-01  -2.5737989e-01   9.3129435e-01  -4.2893455e-01   3.6232878e-01  -2.5396737e-01  -1.8443307e-01   7.1031240e-01   1.5055240e-01   9.4603660e-01  -8.0468704e-01  -7.0260100e-01  -3.3957876e-01  -2.7372525e-01  -1.1088653e-01   9.8670753e-01   2.3141228e-01   5.2889448e-01  -8.7762953e-01  -5.0007446e-02   2.0829928e-02  -5.5342370e-01  -5.5768989e-01   9.9421689e-01  -4.7044067e-01   9.3863306e-01   3.1047620e-01   3.6367919e-01   5.3478355e-01   1.7410032e-01   6.9297541e-01   4.4986605e-02  -9.4870318e-01  -7.2275659e-01  -5.7049499e-01  -3.0129448e-01  -4.0597667e-01  -8.8570354e-01  -3.1217113e-01   7.2485509e-01  -9.8832250e-03   1.8007288e-01  -5.5975089e-02  -1.2736001e-01  -5.3786917e-01   3.3136367e-01  -6.7216907e-01   4.6533045e-01  -3.7412523e-01  -3.6849896e-01   5.7766526e-01   8.8505063e-01   2.3159671e-01  -3.9817905e-01  -1.9341627e-02   6.5543202e-01  -7.9133489e-02  -3.2926965e-01   2.6546577e-01   4.5310203e-01   8.5331655e-01   8.8463436e-01  -5.3934770e-01   1.3934361e-01  -3.0206220e-01  -7.3213809e-01   1.5082685e-01  -9.0905491e-01  -4.0448561e-01  -5.2288938e-01   2.2477433e-01  -3.7329433e-01   5.1812257e-01  -3.2268040e-01   9.7302468e-02   9.8285326e-01  -7.5928838e-01  -4.0109203e-01  -5.2572970e-01   5.3722387e-01  -6.6528338e-01   1.1129265e-01  -4.9007283e-01  -8.7782170e-01  -8.9760767e-02  -1.8737802e-01  -9.0731519e-01  -1.7312188e-01  -7.1409551e-01  -6.7028832e-01   8.9360286e-02  -5.6417947e-01   3.9980394e-01  -9.9923942e-01  -9.4929815e-01  -3.8089376e-01  -7.0276227e-01  -8.6655088e-01  -9.6931896e-01  -5.0683210e-01   8.9912565e-01  -1.7544075e-01   3.1039500e-02   8.9823962e-01   2.0400454e-01   6.1635906e-01   2.7044695e-01  -9.4807875e-01   4.6731374e-01  -5.9940433e-01   1.2997292e-01  -7.1605888e-01  -9.5671702e-01   7.8695536e-01  -4.8410175e-01   8.3374567e-01  -4.1672159e-01  -6.4685582e-01   3.1047452e-01   5.1817129e-01  -9.1221179e-01  -2.9773704e-01  -7.3327189e-01  -7.5800676e-01   1.3420968e-01  -5.6831253e-01  -7.6492344e-01  -7.1864818e-01   4.6037332e-01   7.3354002e-01   4.7661812e-01   5.3045226e-01   4.3091679e-01  -6.3353975e-01   5.1491229e-01   9.7532050e-01   3.1436280e-01  -3.1345578e-01   8.7880808e-02   1.6827544e-01  -7.3418819e-02  -6.0179182e-01   4.8232670e-01  -6.2832359e-01   7.7228052e-01   2.4861777e-02  -8.6285273e-01  -6.2467663e-02  -5.5337492e-01  -6.5850519e-01   7.1052314e-02  -5.3624841e-01   3.9155529e-02  -4.1198095e-01   4.1599587e-01  -3.7506083e-01   5.1580175e-01   7.4472770e-01   4.6735714e-01  -9.3662153e-01   8.6684835e-01   2.8678079e-01   5.8753527e-01   4.4147845e-01  -9.9192183e-02   2.9800747e-02  -8.9516822e-01   4.8821361e-01   7.0656128e-01  -2.4245301e-01  -1.2712657e-01  -8.7434394e-01  -2.1761695e-01  -8.5479262e-01   5.9343931e-01   4.6061655e-01  -4.9938355e-01   4.3125973e-01  -8.1998658e-01   9.4864661e-01  -1.4782156e-01   8.1825815e-01   9.2900278e-01  -6.7213842e-02  -4.5765210e-01  -5.0074194e-01  -2.9786735e-01   2.1050925e-01   7.3931148e-01  -8.0007387e-02
  -8.0514746e-01   2.3801933e-01   7.7387982e-01   5.2488258e-01   6.8960383e-01  -6.4023853e-01  -9.6249577e-01  -6.0759894e-02  -3.1492926e-01   5.4345579e-01  -6.7739069e-01   2.2365734e-01   5.2609524e-01   1.3363788e-01  -4.5770637e-01  -9.9318880e-01   9.2851264e-01   7.5968930e-02   9.2292822e-02   3.0041056e-01  -8.2787312e-01   2.2263546e-01   3.9142158e-01  -5.1869813e-01  -2.9102347e-01   6.8670485e-01  -1.7616728e-01  -5.1856097e-01   3.0950880e-01  -1.9254179e-01  -2.2911949e-02   2.2585892e-01  -8.5362092e-01  -7.2579517e-02   6.6558185e-01  -5.9413451e-01  -4.1440889e-02   5.7213170e-01  -6.9341404e-01   1.4991856e-02   4.9169786e-01  -5.1340882e-01  -8.7308559e-01  -4.9316171e-03  -2.9559521e-01   7.2411951e-01   6.0546371e-02  -2.1416800e-01  -6.5544013e-01   4.1370228e-01   4.2649610e-01   6.1123206e-01   4.6988098e-01   5.8604064e-01   4.8537311e-01   1.3224432e-01  -3.0871425e-01  -2.2807427e-01  -1.9344039e-01   6.8927685e-01  -4.8061362e-01  -8.9718960e-01  -7.4678092e-01   5.4374700e-01  -5.1887729e-01   6.7278143e-01   8.0059804e-01   2.1876821e-01  -6.6277449e-01   4.4883161e-01  -7.7951878e-01   2.6330800e-01  -2.5414086e-02   4.9173691e-01  -7.3158349e-01   7.6664514e-01  -2.3938622e-01  -2.1849482e-01   4.9017020e-01   1.4009135e-01   4.2129514e-01  -8.8287561e-01   1.8879923e-01   6.7909711e-01   9.0175200e-01  -6.0211681e-01   5.3382301e-01  -1.5601889e-01   8.1488079e-01  -6.1954311e-01  -6.5139055e-01   2.7821949e-02  -5.4417008e-01  -6.0679159e-01   4.6495231e-01  -7.6206243e-01  -1.6982293e-01  -8.8966406e-01  -8.0341473e-01  -7.5689661e-01  -6.3366776e-01   4.3679944e-01  -5.2680852e-01  -2.9642736e-01  -1.5134332e-01  -8.0186707e-01   1.5439966e-01  -3.1437006e-01   3.2331992e-02  -9.1894038e-01  -7.9391323e-01   8.2848749e-01   2.9956290e-01   3.7087244e-01  -8.5043243e-01   5.7166022e-01  -9.5855756e-01  -8.1708600e-03   4.3238866e-01  -3.2125512e-01  -7.9692274e-01  -9.5687639e-01   7.0034350e-01   3.4128027e-01   8.2608515e-01   6.4409895e-01   3.6145610e-01  -6.7641214e-01  -8.7554994e-01   1.8211826e-01   2.0317615e-01  -6.3770421e-01   6.6733668e-01  -3.1230257e-01   1.8296447e-01   1.9639781e-01   8.6600858e-01  -2.5296037e-01  -8.6361096e-01  -3.8608145e-01   7.6770574e-01  -2.1018786e-01   8.2074665e-01   9.3995903e-01  -1.4473318e-02   7.7640587e-01  -6.9983792e-01   2.2714332e-01   2.1575673e-01  -7.8704971e-01  -9.3096926e-01  -8.9605025e-01   4.1328781e-01   5.5944393e-01  -1.6188294e-01   1.2606222e-01  -3.6577105e-01  -7.4447672e-01   4.9488078e-01  -1.4425914e-01   4.1913922e-02  -9.6402332e-01   2.4234359e-01  -3.1820215e-01  -1.2082716e-01   4.1597175e-01   5.2578189e-01  -5.1022655e-01  -7.5954481e-01   7.7686725e-01  -6.0166904e-01  -8.3619518e-01   9.2296770e-01   5.7313645e-02  -8.4017048e-01  -3.4175043e-01   8.9087851e-01   8.0682474e-02  -9.9617748e-01   5.1647450e-01   2.8210653e-01   7.1586784e-02   4.9278098e-02  -5.5561104e-01   4.8499402e-01  -9.4537418e-01   1.3458607e-01  -3.3032860e-01   2.9929510e-01   9.7435187e-02   1.4881347e-01  -2.2746706e-01  -7.3313790e-01  -6.6494245e-01   4.2496653e-01  -7.3374572e-01  -5.6113174e-01   4.8883255e-01   9.3615680e-01   6.3097269e-01  -4.4442655e-01   6.5035835e-01   9.6023713e-01  -5.7709115e-01   5.2966886e-01   5.1130649e-01  -1.7752198e-01   3.6449001e-01   8.0750482e-01  -8.0648310e-02  -9.1850280e-01   4.6459571e-01   3.2790694e-01  -5.1230217e-01   8.4101326e-01  -7.5121342e-01   2.3571603e-01   4.2129450e-01  -3.5032961e-02   8.0012097e-01   6.1666924e-01  -4.1826437e-01   2.2366925e-01  -9.9841400e-01   1.4963438e-01   4.8517163e-01   7.7500593e-01  -2.7244303e-01  -2.3306256e-02  -6.2825225e-01  -5.7883679e-01   2.5316330e-04  -5.3930712e-01   7.7758443e-01  -2.2906843e-01  -5.2072321e-01  -1.3026104e-02   9.4806618e-02   8.8393034e-02  -6.9362352e-01  -2.4456534e-01  -3.4233254e-01   4.7868972e-01  -1.3130751e-01  -9.9000932e-01   2.4679607e-01  -2.5493199e-01  -7.4191938e-01   7.3613190e-01   8.1200665e-01  -5.3329509e-02  -4.3807420e-01  -5.1499810e-01   4.0257071e-01   1.0943937e-02   9.9555733e-01   4.3689407e-01   4.5694772e-01  -5.0342631e-01   9.5941969e-01  -4.4073636e-01   3.6096011e-01   4.5779183e-01  -6.2675880e-01  -2.8284375e-01   4.5478177e-01   5.6199870e-01  -5.0381268e-01  -2.5748849e-01   9.6982699e-01   6.6276059e-01   8.2771782e-01  -4.5970155e-01   2.7488652e-01   3.7357365e-01   8.6502397e-01   5.6551518e-01  -4.6322678e-02  -9.8453103e-01   5.4323690e-01  -1.5533510e-01   9.7482943e-01   8.8644067e-01   5.8872458e-01  -2.2506430e-01  -1.4022659e-01  -8.4617842e-01  -3.4877174e-01  -9.4314651e-01   3.6726255e-01   9.5592203e-01   4.4506757e-01   8.5418030e-01   5.3458781e-01   8.3251273e-01   4.0160498e-01  -3.1363326e-01   9.8514098e-01  -9.4067050e-01   5.2569636e-01   4.4391701e-01  -5.7167841e-01  -4.0833671e-01  -4.5087065e-01  -7.8863072e-01  -1.7455684e-02   3.8948928e-01   9.5803610e-02   5.1045915e-01  -4.7379717e-01   5.4057258e-01   8.6215062e-01  -4.8038730e-01  -7.5128093e-01  -9.6366642e-01  -6.2556292e-01  -5.9874437e-01   7.7278341e-02  -4.7271559e-02   9.1387458e-01  -3.0472366e-01   4.2812585e-01  -1.3060729e-01   7.4156146e-01   6.0424770e-01   6.6365281e-01  -5.4903989e-01  -7.3385847e-01   3.6618381e-01   7.5843371e-01  -3.5464909e-01  -7.3646923e-02  -4.5861586e-01  -6.9487551e-01  -9.4378301e-01   8.1290019e-01   5.6724094e-01  -1.3190360e-01   9.5898152e-01   6.1719463e-01   2.6299121e-02   3.8984555e-01  -1.6936945e-01   1.6150205e-01   8.1907862e-01  -5.5282636e-01  -3.9024484e-01   9.2741001e-01   6.1032135e-01  -3.4787976e-01  -4.8900407e-01  -6.3361125e-01  -8.0701455e-01  -3.1885602e-01  -8.4044608e-01   8.4483848e-01   4.5121224e-01   8.7080267e-01  -8.8856225e-01  -4.8679799e-01   4.0325639e-01  -2.2287867e-01  -9.1042260e-02  -8.2621745e-01   2.7304914e-01  -7.4694277e-01   8.3860976e-01   1.2845839e-01  -9.6344164e-01  -5.3509679e-01   9.3834038e-01   1.1272212e-01  -7.6657818e-02   6.3773944e-01  -7.6950197e-01  -1.3078977e-01   5.1076270e-02   6.4464214e-01  -1.8339404e-01  -8.8981888e-01  -7.3711676e-01   8.1171228e-02  -2.7815553e-01  -3.5471241e-01   3.6744142e-02   4.7181346e-01  -1.2406872e-01   9.0581058e-01  -9.0894940e-02   9.6263938e-03  -9.7575122e-01  -2.6140656e-01  -8.1777550e-01  -9.1292909e-01  -7.4757439e-01  -6.0913576e-01   5.6791311e-01   4.0614398e-02  -7.2608017e-01  -5.3485083e-01  -3.8040900e-01  -2.2091682e-01  -8.5677847e-01  -3.2685851e-01   8.8026201e-01  -6.4818120e-01  -7.1218241e-02   4.3522549e-01  -9.3111408e-01  -3.6366992e-01   2.3834864e-01   2.9878497e-01   3.0693963e-01   1.2729013e-01   6.5949804e-01  -6.3295586e-01  -1.0818137e-01  -9.4506856e-01  -4.9203416e-01  -8.6572500e-01   4.1709731e-01  -5.0596908e-01   8.7364704e-01   2.7829000e-01  -8.0335960e-01  -1.0082712e-01   4.3735363e-01   6.0519181e-01  -2.8998817e-01  -5.4138942e-02   9.4439461e-01  -7.9801162e-01  -9.5757865e-01  -2.6205728e-01  -2.1349141e-01  -3.2526291e-02   8.8271723e-01   8.6314932e-01   2.9423017e-01  -1.1759688e-01  -6.1108020e-01   2.0621127e-01  -3.3437303e-01  -8.6328296e-01   2.5444154e-01  -9.0696593e-01   8.8747267e-01  -8.0582402e-01   8.3962707e-01  -3.1565914e-01   9.6846130e-01  -3.3830302e-01  -8.9161384e-01  -5.3602674e-02   6.2870385e-01   7.8452766e-01   8.7404328e-01   4.5285633e-01   5.6071252e-01  -1.8768244e-01   4.2621586e-01   6.1282291e-01   8.2785159e-01   1.6778329e-01   4.1251386e-01  -8.7754806e-01  -7.1083670e-01  -1.3374945e-01   7.8510189e-01  -8.4683691e-01  -6.8844775e-01  -3.1427378e-01  -9.1039172e-01   8.5849957e-01   1.4199221e-01   6.5744621e-02  -6.4734422e-01  -5.0803017e-01   2.0120008e-01   4.2268672e-01   1.6701821e-01  -8.5952180e-01   6.4516340e-01  -1.2141561e-01   9.1856591e-01   5.0570714e-02  -6.8781635e-01   8.6485632e-01   6.7433128e-01  -9.3466411e-01  -1.8860794e-01   8.4800181e-01   6.7863972e-01  -3.3039163e-01   1.4261467e-02  -4.3841589e-01   3.0683341e-01   3.9827680e-01   3.7999824e-01  -1.3881787e-01  -8.0212400e-01  -8.1036066e-02   3.2578988e-01   8.4819059e-01   3.6036854e-01  -5.3734863e-01   5.3818566e-01  -5.7181248e-01  -7.3607710e-01  -1.0152655e-01   8.2390174e-01   9.3795416e-01   5.7739444e-01   8.2562527e-01   9.9605547e-01   7.5650708e-01   7.6161753e-01   3.6215446e-01  -3.9492686e-01  -1.3801832e-01   3.0434971e-01   6.1225539e-01  -1.4723245e-01   4.2557898e-03  -3.5899870e-01  -1.7475526e-01  -8.9747451e-01  -8.5668493e-01   6.0844344e-01  -1.2508675e-01  -6.2115062e-01  -5.8647354e-01  -4.8231006e-01  -9.6969976e-01   7.0599113e-01   3.5193008e-01  -7.0469852e-01  -3.5575268e-01   5.4961287e-02  -8.6494268e-01   6.7363779e-01   2.1972977e-01   5.6781629e-01  -7.8509456e-01  -2.5797658e-01   5.2043548e-01   1.8453081e-01   8.8234522e-02   1.3123771e-01   3.0563892e-01   1.2848576e-01  -8.2838418e-01  -8.3563268e-02  -6.7441893e-01   9.5702139e-01  -6.1108408e-01   8.0894785e-01   7.0969395e-01  -7.6769954e-01   7.0423296e-01   6.7793342e-02   6.4092194e-01   4.5889880e-02   1.8853759e-01   1.6163446e-01   3.0246633e-01   5.2122228e-01  -2.9948171e-01  -5.5323479e-01   8.4879940e-01   3.7246762e-01   8.3623174e-01   5.3295937e-01   1.5727192e-01   1.3741288e-01  -4.4950177e-01   1.0307735e-01   4.9007826e-01  -5.2531352e-01  -6.8281768e-01  -5.1899468e-01   7.3441826e-01   3.9040967e-01  -2.1757534e-01  -7.1775421e-01   6.7482576e-01   7.0592644e-01   7.3757848e-01   2.3086994e-01  -1.4932799e-01   1.2501437e-02   1.2962936e-01  -6.6706702e-01  -9.0810594e-01  -6.2401019e-02  -4.0086337e-01   6.3690601e-01  -1.1617170e-01  -3.5352815e-02   9.7820750e-01   5.4360451e-01   9.0916231e-01  -9.6368376e-01  -1.4432276e-01   9.8006298e-01   4.6215879e-01  -7.6608142e-01   5.1002590e-01   2.5974612e-01  -4.5371308e-01  -6.5569794e-02   6.1742629e-01   9.6025342e-01  -7.9968290e-01  -7.8389140e-01   2.3526841e-01   2.0086745e-01  -2.2970879e-01   9.6758308e-01  -7.0908714e-01  -9.8536615e-01   5.1283953e-01  -7.5302650e-01  -6.1485208e-01   2.2943344e-01  -4.8694125e-01  -8.6849343e-01  -8.9121808e-02  -6.1817440e-01  -6.3037905e-01  -6.3301381e-01  -4.9448849e-01  -1.7594256e-01   4.1747467e-01   8.4218079e-01  -9.6466750e-01  -4.9615759e-01  -2.8788457e-01   6.9980391e-01  -7.6398779e-01  -1.4060820e-01   4.1759305e-01   6.1293606e-01   7.5450112e-01  -4.5346594e-01  -7.3158031e-01   5.2915599e-01   9.4224540e-01  -8.4042807e-01   6.0774555e-01  -8.0779826e-01  -9.9783740e-01  -5.5856653e-01   1.9464550e-01   4.6704097e-02   5.8539778e-01   9.5166613e-01  -1.9553462e-01   7.6218369e-01   7.1225352e-02   4.8224367e-03  -6.5301085e-01   3.9803391e-01  -9.5054709e-01  -1.7244167e-01  -4.5188577e-01   6.3920493e-01   3.2838835e-01  -8.3796901e-01  -2.8293765e-01   8.5906535e-01   3.3820220e-01  -5.0630161e-01   5.0984312e-01  -2.5324339e-01  -9.4105114e-01   6.5934337e-01   9.2893636e-01   3.8900181e-01  -3.9090832e-01   8.9669916e-01   7.7288463e-01   9.4648669e-01  -2.3941521e-01   1.3928888e-01  -7.0819224e-01   8.8843627e-01  -3.5798046e-01   6.8034363e-02   4.5157630e-01  -7.4707982e-02  -4.6391409e-01   1.7979326e-01  -5.4213217e-01   2.8609893e-01   9.3089845e-01  -1.1837849e-01  -3.0532235e-01   1.6940526e-01  -5.0492890e-01   9.7965419e-01   1.9322708e-01  -1.9195754e-01   9.1067386e-01   1.1741019e-01  -3.1690693e-01   5.2016303e-01  -3.0528201e-01  -8.7314414e-01   1.5666228e-01   2.3847682e-01  -1.7473685e-01  -6.0491681e-01  -3.2985650e-01  -6.7525626e-01   1.3378389e-01  -2.5806764e-01   9.9141052e-01   6.9376737e-01  -4.0175328e-01   1.9387827e-01   2.6821982e-01  -7.6460438e-01   2.8571014e-01   9.9654048e-01   7.5781280e-01   6.7520892e-01   9.9303380e-01  -4.9175837e-01   4.6045018e-01   5.3305499e-01  -8.4650637e-01   7.2617297e-01   1.6945977e-01   1.7335176e-01  -5.1503922e-02  -8.2358944e-01   8.0899766e-01  -7.1135429e-01   3.9174538e-01   3.5103776e-01  -3.8758777e-01   1.8371660e-01  -3.9426817e-01   9.0845124e-01  -2.8419333e-01   4.0585899e-01  -7.8259571e-01   1.5414359e-01   2.0493389e-01   9.9393439e-02  -9.7032971e-01   6.5770683e-01  -6.1546026e-01   1.5681714e-01   5.7535910e-01  -8.8226448e-01  -2.7514942e-01   3.2382446e-01  -5.8156256e-01   6.7264701e-01   4.7290276e-01   2.8568537e-01  -1.7976268e-01  -9.3058073e-01  -7.4390933e-01   4.0935080e-01  -2.6873899e-01  -5.9177967e-01  -3.2610261e-01  -9.4851222e-01   3.9715362e-01   5.1415166e-01  -4.1208288e-01  -6.5774268e-01  -6.9596043e-01  -5.3591972e-02   4.1806301e-01   9.9339244e-01  -1.0218478e-01   7.9561767e-01  -6.2090160e-01   1.8468705e-01   3.5218152e-01   1.3581493e-02   9.3519748e-01  -9.8994941e-01   3.9963252e-01  -9.3421865e-01  -4.2349250e-01  -2.8615979e-01   7.2480794e-01   2.8082274e-01  -4.9461259e-01  -1.7086139e-01   5.4365731e-01   2.0066620e-01   9.9805164e-01  -9.1116661e-01   7.8804235e-01   3.4244042e-01   6.6635420e-01   5.1924566e-01   6.5690676e-01   6.6024821e-01   4.9500682e-01   4.2940872e-01   8.2622915e-01   6.6955754e-01  -4.9809061e-01   7.1574004e-01   5.9494889e-01   6.5805478e-01  -7.8188411e-01  -4.8269914e-01   5.2407571e-01   4.3173186e-01  -9.9970367e-01   8.6852608e-01  -3.8374548e-01   8.8054588e-01   1.7243668e-01  -4.5326548e-01   5.3691959e-01  -8.6720613e-01   6.0101936e-02   9.3213353e-01  -1.2650572e-01   9.4369753e-01   2.5148006e-01  -6.6640436e-01   8.0814321e-01   3.7750403e-01  -9.9782139e-01  -6.7902112e-01   7.2868191e-01   8.9926131e-01   5.1488332e-01   9.7049149e-01   9.2479258e-01   8.1160084e-01   5.1241783e-01  -8.5660680e-01   8.3837953e-01   1.9255710e-01  -1.9853673e-02  -8.8412486e-01  -4.7616117e-01   6.7965881e-02  -2.9518229e-01  -4.6265063e-01   8.2966109e-01  -4.6045577e-01  -5.3695166e-01   5.7864987e-01   7.0929541e-01   8.8886275e-01   8.8112833e-01  -4.4661955e-01   9.9359878e-01   3.1859249e-01  -1.2526254e-01   8.5569385e-01   3.4174119e-01  -9.7696954e-01   4.9669973e-01   2.3890475e-01  -5.8450934e-01   2.5940505e-02   5.7627349e-01   4.7842895e-01   8.0749865e-01   5.1025145e-01  -3.4984147e-01   9.6526988e-01   9.9822541e-02   2.3752301e-01   2.9835376e-01   2.1874655e-01  -7.7922517e-01  -1.8422292e-01  -6.7934064e-01   2.3190215e-01   2.3724000e-01   1.6635640e-01   7.3899699e-01  -5.0205825e-01  -6.1945067e-01  -2.7027096e-01  -7.9752285e-01   5.9316797e-02   4.7510414e-01   3.0520741e-02  -1.6853793e-01   7.3430006e-01  -8.2411658e-01  -7.0376827e-01  -6.6825948e-01  -3.4647947e-01  -2.5199177e-01  -2.5677114e-01   4.9653659e-01  -8.3503714e-01  -4.6474654e-01  -5.4566136e-02  -5.7645211e-01  -6.6815723e-01  -3.9585528e-01   2.3585754e-01   8.9461445e-01   1.5296617e-02   1.7951301e-01   7.5068364e-01  -2.7532589e-01   7.6745825e-01   8.1665624e-02   7.3511100e-01  -8.3050703e-01  -5.8399476e-01   3.0999898e-01  -1.2194818e-01  -9.4563533e-01   1.9298571e-01   9.0676948e-01   8.2193049e-01   9.1357861e-01  -7.8576150e-01  -1.0188395e-01   7.7805610e-01  -1.9866134e-01   9.5685314e-01  -6.0639565e-01   5.8074889e-01  -5.2906379e-01   4.8527482e-01   7.8393870e-01  -3.7586327e-01  -4.8337559e-02  -3.2362363e-01   1.3533852e-01   8.4569545e-01   7.0399550e-01  -7.7207853e-01   8.3778836e-01   6.5544544e-01   9.0891502e-01   4.9022364e-01  -9.4010145e-01  -2.8059788e-03  -4.3936227e-01  -1.7342163e-01   7.1950818e-01   8.5157174e-01   4.5532593e-01   7.9740794e-01   1.1515044e-01   9.0156333e-02  -6.3255379e-01   7.8333303e-01  -9.9802712e-02  -1.3673339e-03   7.6574355e-01  -1.9910663e-01   3.7217481e-01   5.0333750e-01  -9.7176856e-01  -7.1046896e-01   5.3719455e-01   9.4645242e-01   7.0012891e-01  -6.5091249e-01  -3.4623741e-01  -6.7360117e-01   2.2263058e-01   9.3668470e-01  -9.7696821e-01  -3.0564546e-01   5.6629799e-02  -6.0016828e-01  -2.6744623e-01  -3.0826711e-01   6.5825105e-01  -9.5857525e-01  -7.1724732e-01   5.5292050e-01   5.5522235e-01   6.9647356e-01  -5.3094808e-01  -5.7801684e-01  -4.2015123e-02   7.1441992e-01   2.7632070e-02  -2.8372752e-02  -6.6239651e-01   9.5663933e-01  -7.4243842e-01   9.0919899e-01   5.2503931e-01   7.1893125e-01  -9.2747588e-01
  -3.1642016e-02  -7.8575335e-01   7.2908444e-01   2.2301010e-01  -2.6666565e-01   8.8974340e-01   3.1334896e-02  -9.8144743e-01  -9.6306864e-01  -5.9052083e-01  -3.2796232e-01  -9.0402781e-01  -9.2644112e-01  -5.4160465e-01  -6.5707446e-01  -3.9347014e-01   7.8859784e-01   4.4399499e-01   5.9599716e-01   8.0490851e-01   5.7628764e-01   7.1336527e-01   8.9861247e-01  -4.1129868e-01  -2.4146785e-01  -7.0552601e-04   9.4348678e-01   4.0324403e-01   8.5381717e-01  -4.7223292e-01  -3.6363509e-01   6.2230910e-01  -7.1556505e-01   1.2468811e-01  -3.2780436e-02  -3.1953539e-01   2.1118156e-01   1.9477329e-01  -4.7405806e-01  -4.9832389e-02   7.3823335e-01   2.2643059e-01   9.9993845e-01  -7.7850641e-01   3.5602551e-01  -7.4686811e-01   1.2396334e-01  -5.4317409e-01  -6.5817414e-01   4.7820941e-01  -8.7945555e-01   9.8977218e-01  -2.0940414e-01  -4.2765996e-01  -7.3040423e-01  -8.1785572e-01   5.6964552e-02   9.6003293e-02   4.6476656e-01  -9.2662983e-01  -7.6879641e-01   2.0731529e-01   6.8046376e-02  -3.1995477e-02   1.8315107e-02   6.0612381e-01  -6.1821043e-01  -6.2009686e-01  -2.0777781e-01   9.3937231e-01   8.1356205e-01   6.2938577e-01  -7.8612174e-01   5.1405560e-01  -7.3962345e-01   1.9083339e-01  -6.2891717e-01   9.9460841e-01   9.7936616e-01   5.0656767e-01   1.1358412e-01  -7.2265908e-01  -8.4418664e-01  -4.8344266e-01  -1.7041796e-01  -3.0621033e-01   1.1732963e-01  -4.6852138e-01  -7.9332898e-01   9.8121600e-01   8.5314455e-01  -3.9609611e-01  -9.4742248e-02   6.0715921e-01  -2.0202471e-01   9.3481761e-01   4.8608296e-01   5.8420329e-02  -5.2068764e-02   2.9959570e-01  -2.7371058e-01   1.6289061e-01   9.0823042e-01  -7.7250522e-01  -2.4919015e-01   1.5462468e-01  -7.7990053e-01   2.5897647e-01  -1.5076318e-01   9.4571333e-01   6.0958149e-01   3.1634661e-01  -2.1167132e-01   5.7231659e-01  -8.9962834e-01  -1.0779441e-01   9.8994047e-01  -1.1294891e-01   7.7777375e-01   8.5560124e-01   3.4378191e-01   8.5527933e-01  -5.4441790e-01  -3.2349948e-01  -8.3763578e-01  -5.7540941e-01   4.7862232e-01   1.0512087e-01  -6.6633395e-01  -3.1612397e-01   3.5712891e-01  -9.9396900e-02   3.5320770e-01   7.0292523e-01  -9.6871267e-01   7.5323637e-01   8.4293991e-01  -3.4253821e-01  -4.5059321e-02   5.9035349e-01   2.8264214e-01  -7.4258638e-01  -8.9043503e-01   6.1478425e-01  -5.9227993e-01   1.8140604e-03  -1.7800156e-01  -4.4503942e-01  -7.2061811e-01   3.4820738e-01  -6.5240201e-01  -7.6561407e-01   2.7896274e-01  -5.6421277e-01   3.5768726e-01  -6.6341697e-01  -5.3138682e-01   4.7355106e-02   7.7035304e-01  -1.3402415e-01  -2.4154967e-01   9.3201787e-01   3.6530154e-01  -6.6132222e-01  -8.0325046e-02  -6.4224657e-01   6.7547598e-01   6.0970218e-01  -5.2009473e-01  -9.9155348e-01  -2.2311475e-02   6.0311308e-01  -5.7575166e-01  -3.8016392e-01   4.4578398e-01  -4.1541909e-01   9.2739118e-01   3.7151880e-01  -2.9783548e-01   6.0641555e-01  -5.4952472e-02  -6.2177596e-01   6.5548832e-01   6.7304486e-01   2.1385208e-01   5.8853954e-01   7.9762139e-01   7.1542715e-01   9.2083098e-01  -2.4698433e-01   5.5880284e-01  -4.0108212e-01  -3.2949218e-01   2.0024664e-01  -9.6816563e-01  -7.6918292e-01   7.5007679e-01   3.9430095e-01  -7.4488010e-01  -2.0378701e-01   3.8658926e-01  -8.9860540e-01   1.0072792e-01  -6.6652417e-01  -8.4139665e-01  -7.0805408e-01   5.2985118e-01  -3.9070174e-01   3.9759313e-01   1.7095955e-01  -2.6386978e-01  -7.1769121e-01   1.9042357e-01   1.6033420e-02   7.3852148e-01  -4.1722794e-02   1.3237872e-01  -9.9982237e-01  -3.1754495e-01   3.6154992e-01   9.0654909e-01   8.7422018e-01  -7.1422412e-01   5.4726320e-01  -8.6465301e-01   1.3259499e-01  -5.7319923e-01   4.9016316e-01  -4.5325173e-01  -1.7852621e-01  -8.7485656e-01  -3.8123504e-01   5.8305793e-01  -5.9055213e-01   8.9484365e-01   3.9976665e-01   9.1175204e-01   4.8198400e-01   8.2328650e-01   7.1302131e-01  -9.5366144e-01   1.7047206e-01  -4.1543991e-01   2.1581796e-01  -7.7675734e-01  -7.1930178e-01  -4.1276610e-02  -1.8603741e-02  -1.0591401e-01  -3.5317458e-01   5.6990067e-01   3.2561507e-01   1.7887746e-01  -1.2161226e-01   5.9711072e-02  -5.2710274e-01   9.0563448e-01  -6.6153998e-01   3.4712918e-01   5.0574589e-01  -4.3282932e-01  -7.8804588e-01   1.2758518e-01  -9.5907252e-01   7.6739664e-01  -8.3485521e-01  -6.9605056e-01  -6.8162487e-01   9.8371210e-01  -5.9613061e-01  -3.3162947e-01  -2.0553535e-01   1.2380280e-02  -4.0953247e-01  -9.8060214e-02   7.4149377e-01  -6.3351366e-01   9.2163692e-01   8.8077213e-01  -8.7439164e-01  -7.6669150e-01  -6.1623811e-01   3.4989846e-01   5.8616745e-01  -4.3127467e-01   1.8650925e-01  -9.8006226e-01  -8.7141083e-02   7.3118447e-01   2.9302892e-01  -9.1317285e-01   9.7016048e-01   2.3052393e-01  -2.1400472e-01  -9.7711115e-01   2.1645209e-01   6.6141901e-01  -7.0781349e-01   4.7682498e-01  -2.7119240e-01   4.8442805e-01   5.0627073e-01  -1.6099972e-01  -7.6212089e-01  -1.8185759e-01   1.8543553e-01   5.2753804e-02   5.8071535e-01   6.6065252e-02   1.0581611e-01  -6.1629460e-01   7.5990269e-01   2.8048973e-01   1.9634128e-01   1.6039347e-01   1.2184278e-01  -4.5456293e-01   3.6869377e-01  -4.0642195e-02  -9.9157632e-01   4.5730122e-01   8.6442094e-01  -9.3614615e-01   4.3694924e-01  -3.6363118e-01   2.9593266e-01   1.4541466e-01   6.6154710e-01   2.0059072e-01   7.3136248e-01   7.8565249e-01  -5.3533454e-01   7.0976321e-01  -7.1067853e-01   2.6513677e-01   1.2537194e-01   1.7223131e-01   6.6970792e-01  -5.6475695e-01  -5.5603117e-01  -9.5958033e-01   6.6956807e-01   9.3049352e-01   2.7222466e-01   4.7171671e-01  -3.1421231e-01  -7.1285314e-01  -7.7973753e-01  -2.4458967e-01   4.6507238e-01   2.1463376e-01  -5.3317778e-01   7.4844172e-01  -1.6087497e-01  -9.5567247e-01   6.9863691e-01  -4.2436101e-01  -2.0517195e-01   1.2467232e-02  -9.4112890e-01   8.6660004e-02  -1.9511163e-01  -4.6520265e-01  -4.1246144e-02  -8.9550966e-01  -5.3971122e-01  -3.5379322e-01   3.7153526e-01   4.6080065e-01  -8.5816897e-01  -1.7660070e-01  -4.9901837e-01  -4.4759765e-01   1.0428886e-01   6.9094909e-01  -3.3623032e-01   7.1190651e-01   3.7085968e-01  -4.6161932e-01  -1.6579140e-02   6.5442496e-01  -6.8384473e-01  -1.3409785e-01  -4.1852116e-01   8.4092722e-01  -8.7740669e-01   7.4557441e-01  -2.9115716e-01   1.7882712e-02  -5.8726084e-01  -7.5513720e-01  -6.0239435e-01   4.5215977e-01   6.0957867e-01   5.0914776e-01  -8.7197638e-01  -4.4318625e-01   8.0837554e-01   3.7323225e-01   6.8914142e-01   6.6682400e-01   5.0010744e-01   2.2760129e-01  -7.5494688e-01  -5.5189071e-02   1.6715655e-03   1.1827546e-01   7.5969015e-01  -3.6722638e-01   4.6086340e-01  -8.9558137e-01   9.5592325e-01   8.6665718e-02  -3.9312509e-01   1.2580407e-01   6.7578996e-01   9.9608963e-01   4.2889301e-01  -4.7135375e-01  -7.5154447e-01   1.5014298e-01  -1.4915862e-01  -9.9613120e-01  -7.9213386e-01   8.6057797e-01  -5.9001409e-01  -8.5326859e-01  -8.7603311e-01  -5.7297529e-01  -4.8443351e-01   5.4303472e-01   5.6588762e-01  -3.0000264e-01   3.9652009e-01  -1.3297304e-01  -1.9211725e-02   9.7931132e-01  -4.3860551e-01  -3.0396649e-01  -7.9873811e-01   4.5187313e-01  -6.0532703e-02   4.9790290e-01   5.5206509e-01  -9.1412156e-01  -6.7624001e-02   6.5322488e-01  -3.7292744e-01   7.4300636e-02  -3.6367744e-01   9.5685036e-01   3.0011776e-01   3.0569452e-01  -8.5910182e-01   4.6493017e-01  -1.1619973e-01  -2.3076416e-02  -9.5361028e-01  -6.0773005e-01  -8.2385364e-02  -3.6633854e-01   2.2535421e-01  -1.6995637e-01   5.8696871e-02   8.4820219e-01  -3.0661696e-01  -4.2089341e-01  -7.5747977e-01  -4.3664739e-01  -3.0787633e-01   4.0076683e-01   4.3902731e-01  -2.8756938e-01   3.7227078e-01  -1.9073916e-01  -8.5295813e-02  -9.5984690e-01  -2.4792876e-01   2.8540868e-01   5.2485138e-01   4.2506023e-01  -5.2222484e-02   5.9469985e-01  -6.2232349e-01  -8.3901922e-02   4.1327268e-01  -7.8458591e-01  -8.0086497e-01  -3.3518335e-01   5.6150776e-01  -2.7228555e-01   7.6759678e-01  -7.2541704e-01  -2.5187542e-01  -6.9447209e-01   7.2534395e-01   8.5182335e-01  -9.4517877e-01   3.9671036e-01   6.8437901e-01   8.1473198e-01  -6.3447668e-01  -9.4435655e-01   8.0718563e-01   4.6803191e-01  -1.3205257e-01   4.7417270e-01  -9.4461277e-01   4.6719273e-01  -9.1677712e-01  -7.9832763e-01   3.7385515e-01  -6.8844634e-01  -9.0093247e-01  -3.6658496e-01  -6.8065153e-01  -1.6451217e-01   9.3954297e-01   4.0073627e-01  -9.8985783e-01   8.3442980e-01  -8.3269020e-02  -3.5161230e-01  -5.0235336e-01   2.5088460e-01  -3.9125298e-01  -4.6464806e-01  -6.9459156e-01  -3.8601964e-01  -6.4188822e-01   7.0524022e-01  -7.9375267e-01   6.3721962e-01   1.7058745e-01  -1.0378639e-02   2.9177796e-01  -6.2510373e-01   1.9136131e-01  -3.2441135e-01  -7.5164574e-01  -9.2339898e-01  -7.9436543e-01   4.9122358e-01   8.7899948e-02   6.3598362e-01   2.8934972e-01   4.8122766e-01  -7.7099419e-01   4.4712761e-01   8.5885091e-01   3.0853157e-01   9.5293834e-01   5.4401293e-01  -6.1130329e-01   3.3367664e-01  -2.5132070e-01   4.3689438e-01  -6.3587309e-01   7.5927460e-01   8.7418514e-02  -5.0363451e-01   4.6421401e-01  -1.7802980e-01  -1.7295078e-02  -9.7439800e-01  -5.6830612e-01   4.7747137e-01   2.8031987e-02  -7.1778200e-01   8.0926516e-01  -7.0656699e-01   2.0220995e-01  -5.5110989e-01   8.0018433e-01   4.9200738e-01  -4.3739050e-01   7.7432068e-01  -9.7658808e-01   4.8441266e-01  -6.3724441e-01   7.4073932e-01  -5.5159008e-01   3.8168195e-03  -6.9891244e-01   4.2040903e-01   9.4563139e-01   6.3689669e-01   3.5664068e-02   2.3188387e-01  -9.7607525e-01   2.2535432e-01  -4.1125198e-01  -9.6948370e-01  -5.4093831e-01   4.2069907e-02  -1.6409246e-01  -4.1240286e-01   3.0422444e-01  -7.7047487e-01  -4.9010371e-01   8.0874136e-01   6.8929247e-01  -6.0128646e-02   2.7823505e-01  -8.5752179e-01  -2.5723483e-01   1.9533130e-01  -6.1256729e-02  -3.3715843e-01   9.2021817e-02  -1.5555709e-01   1.3109194e-01   4.5340417e-01   8.5420099e-01   3.4769763e-01   6.6649250e-01   5.0737017e-02  -8.8376687e-01  -4.6934120e-01   7.2792210e-01  -3.6790699e-02  -7.6308565e-01   3.8911411e-01  -4.1989811e-02  -8.2115513e-01   8.6294738e-01   8.3509562e-01  -3.7439163e-01  -2.5312215e-01  -1.9375298e-01   3.7962660e-02  -3.8769765e-02   2.0161255e-03  -7.8198399e-01   4.2986918e-01   4.7710391e-01  -9.1741100e-01  -3.2806804e-01   6.7775242e-01  -2.2613285e-01  -9.1539282e-01  -6.4241214e-01   5.6114424e-01  -4.5938553e-01   5.4209829e-01  -6.8089228e-01  -4.9236796e-01   1.1262246e-01  -4.1250690e-01   2.6483116e-01  -7.3353375e-01   6.2098282e-01   7.9799224e-01  -4.3170591e-01  -7.4244364e-01  -2.3988434e-02   2.3213678e-01   4.5574395e-01   9.9037945e-01   5.8600287e-01  -3.3796146e-02   2.9061321e-01  -6.1687361e-01   7.7974317e-01  -3.0578163e-01  -1.5487387e-01  -9.7461314e-01   7.4496236e-01  -5.4237091e-01  -6.2412636e-01  -8.7791201e-01   2.7756430e-01   5.0691645e-02  -1.2379141e-01  -3.6877370e-01   2.6831055e-01   2.3478460e-01  -8.7178754e-01   6.8935886e-01  -9.4463337e-01  -7.0529311e-01  -5.7160943e-01  -1.9325504e-01   4.2999347e-01  -6.3413443e-01   6.7597469e-02  -2.4378584e-01   4.4123285e-01  -5.1332890e-02  -4.7134007e-01   9.5754395e-01  -4.1364634e-01  -9.2483652e-03   3.8890305e-01   4.4948743e-01   7.9138031e-01   7.4075266e-01  -1.9116282e-01  -9.8860146e-01   2.4135890e-01   1.4750371e-01  -4.0556172e-01   4.8450307e-01   6.4488137e-01   1.2051223e-01  -5.7255373e-01  -9.3417093e-01   4.1684733e-01  -4.2106702e-01   9.5850072e-01   9.5281778e-01   5.2900932e-01  -3.8309838e-02   5.2389139e-01  -6.6380600e-01  -2.1648650e-01   2.0625394e-01   5.9755316e-01  -1.0362603e-01  -7.0668208e-01   7.3079894e-01  -2.2803255e-01  -3.6040891e-02  -3.6598651e-01   1.5978820e-01   8.8707201e-01  -3.2964958e-01  -6.4807859e-01  -4.4594321e-01  -7.4195566e-01  -1.9124999e-01   8.5495303e-01  -1.8409532e-02  -1.5750410e-01   1.7889181e-01  -2.6434718e-01   2.7192944e-01  -4.0941405e-01  -2.5114641e-01   1.3640024e-01  -3.1582419e-01   7.1203841e-01  -4.3294980e-01   4.2182345e-01  -3.2866254e-01   7.6143670e-02  -2.7984825e-01  -7.2595252e-01  -4.3409034e-01  -9.4495789e-01   8.8025331e-01   1.7468964e-01   9.6575732e-01  -1.5065754e-01   3.6517959e-01  -2.7286583e-01  -2.5760289e-01   2.3078532e-01   5.8108232e-01   4.8180531e-01  -2.4444003e-01   7.6251655e-02   7.8689214e-01   8.0699652e-01  -6.9677891e-01   4.7688400e-01   8.5149147e-01  -6.3700614e-01   7.2357943e-01   3.3829227e-01  -8.5765365e-02   2.1579821e-01   4.3132184e-01   4.0356750e-01  -9.2853651e-01  -4.6232377e-01  -7.5341884e-01   6.1622794e-01   9.7444721e-01   2.0988325e-01   6.1440000e-01  -5.5107866e-01  -7.9135781e-03  -5.5244728e-01   2.1824427e-01  -9.8812734e-01   4.7364286e-01  -5.2898268e-01   1.6261361e-02   5.0044592e-01  -4.2464066e-01  -6.3633713e-01  -1.1289178e-01   6.7441473e-01   4.9469378e-01  -4.0151209e-01  -6.5895343e-01   4.1245835e-01  -6.6154978e-02  -4.4464415e-01   8.5401131e-01  -9.4916259e-01  -5.8412528e-01  -1.0188481e-01   7.8274566e-02  -6.2853580e-01   4.7423613e-01  -6.9852605e-01   2.2806177e-02  -6.0817495e-01   2.5224306e-01   9.9399650e-01   1.6084519e-02   9.3508241e-01  -9.0859141e-01  -7.0953903e-01  -5.8967945e-01   2.9555839e-01   8.3764347e-01  -7.4690528e-01   8.4317246e-01  -6.3436326e-01  -7.9125068e-01   3.5228777e-01  -5.0788883e-01  -7.3334079e-01   3.7191671e-01  -3.1429395e-01  -6.9643610e-01  -8.3974168e-01   5.6030867e-01   1.5147434e-02   4.7420331e-01  -4.2144105e-01  -9.1950139e-01  -8.7590091e-01   8.5660209e-01  -6.1576692e-01   8.9699402e-01   8.9954728e-02   6.7617321e-02  -5.4935096e-01   9.5009458e-01   5.3234904e-02  -3.6213273e-02  -5.1104106e-01   2.0608783e-01  -2.4895760e-01  -9.5038976e-01  -8.3350530e-01   1.4858719e-02   2.0140674e-01   7.6218559e-01   8.1397071e-01  -5.5567439e-01  -8.9215883e-01   3.3676935e-01  -3.8833583e-01   7.9845600e-01   5.9718154e-01   2.0367063e-01   1.0111689e-01   1.2936174e-01   1.2432026e-01  -2.0993849e-01   7.2715266e-01   6.1238646e-01   4.8206097e-02  -2.2111064e-01  -5.7687858e-01   5.3660607e-01   6.2734888e-01  -4.8507958e-02   3.7024339e-01   1.0336826e-01   3.8789932e-01  -9.8708445e-01  -7.1422951e-01   3.6087347e-02  -1.1890754e-02  -1.2775059e-01   1.0344796e-01  -9.2521601e-02   8.9627601e-01  -9.6201464e-01   9.6213718e-01   9.7004230e-01  -6.7299487e-01  -8.9411587e-01   9.5076818e-01   1.0362426e-01  -1.8239288e-01  -1.7052538e-01   2.3267201e-01   7.6919579e-01   8.9162231e-01   5.3681387e-01  -9.4718822e-01  -7.1327203e-01  -6.2693652e-01  -1.8789484e-01  -2.5410061e-01  -9.7673533e-01   3.2402925e-01  -1.9283810e-01  -2.3625949e-02   3.3322025e-01   2.5183868e-01   4.4706172e-01   2.9968295e-01   7.8470652e-02   9.1518509e-01   2.5346183e-01   1.3965214e-01  -1.7904093e-01  -6.9329471e-01   3.3664608e-01   9.9693207e-01  -2.2968061e-01   6.2703211e-01  -3.5166002e-01   9.4527344e-01   8.1116750e-03  -9.8001888e-01   5.5814611e-02  -3.6487987e-01   4.2293740e-01  -7.2123616e-01  -1.6098240e-01   9.7059717e-01  -6.2758291e-01  -1.2767316e-01   9.6820968e-01  -4.1995720e-01   9.9553396e-01  -5.8250271e-01   8.1921896e-01  -2.0805801e-01   1.3679301e-01  -4.5612290e-01   9.9189923e-01  -1.1602682e-02   5.0683272e-01  -3.9070744e-01   4.2124407e-01  -4.3671199e-01   4.3604027e-01   4.6373743e-01   6.7868946e-01   9.6845164e-01   3.4415323e-01  -1.2394870e-01   9.7993702e-01   8.7729968e-01  -9.1024070e-01   2.6214753e-01   6.9870129e-01   5.8903994e-01  -7.2419811e-01   6.4213698e-01  -9.0993322e-01  -9.4291842e-01   1.7372788e-01  -1.8112615e-01   7.7741610e-02   1.0177286e-01  -9.4122791e-02  -8.2927831e-01  -2.4905265e-01  -5.1114544e-02  -4.4733138e-01   4.4566274e-01  -8.8990745e-01   8.7874292e-01   8.4148463e-01   5.9824615e-01   9.7908109e-01   5.7680771e-01   2.7488466e-01   9.2913058e-01  -7.0533028e-01  -6.3388700e-01  -4.1566048e-01  -6.2771383e-01  -8.7929988e-01   8.1475657e-01  -9.1230531e-01   6.9568073e-01  -4.0694559e-01  -7.6857764e-01   3.2137365e-01   5.9137842e-01  -6.0737955e-01   2.9257565e-01  -4.2952365e-01   1.1220003e-01   1.5599324e-01   7.2852873e-01   3.4456956e-01  -9.0354422e-01
   7.2842447e-01   3.8579458e-01  -4.0822244e-01  -3.3636522e-02  -8.0730632e-01   4.4204198e-01   7.2600594e-01   1.0656169e-01  -9.3820348e-01  -2.8589319e-01   6.6541440e-01  -5.8128899e-01   5.0692245e-01  -6.6584940e-01   7.1508704e-01  -7.9304791e-01  -5.7459865e-01  -9.4713158e-01  -3.8357715e-01   2.7903821e-02   9.8916874e-01   4.7001733e-01   8.7207318e-01  -8.9311116e-01   6.4527442e-01   2.9843683e-01   9.6466209e-01  -6.4966147e-01  -7.8083564e-01   4.9795226e-02   8.2378822e-01  -1.1238139e-01  -4.8145908e-01  -8.5947563e-01   1.8415328e-01   6.5580698e-01   6.3227263e-01   5.6019857e-02   4.2352054e-01  -7.1406081e-01   5.0237509e-01  -8.2742578e-02   8.4974304e-02  -1.0954775e-01  -5.1763906e-01  -7.1026842e-01  -5.4283018e-01  -3.4321038e-01   2.9777836e-01  -2.0180304e-01   9.9620479e-01   7.5368863e-01  -1.6653000e-01  -9.3690729e-01   9.4454471e-01  -5.3132535e-01  -9.9870335e-02  -8.1116574e-01   8.2048628e-01  -9.0326377e-01  -1.3450528e-02  -7.4255936e-01  -2.6143561e-01  -4.7837300e-01  -2.6686886e-01   7.5547436e-01   5.8956031e-01  -6.8285256e-01  -3.6446619e-01   7.0281738e-01   3.1125864e-01   5.6900720e-01   9.2359293e-01   3.4871444e-01  -1.9589263e-01   4.5280032e-01  -5.3649191e-01  -3.9636598e-01   1.5684749e-01   2.4850276e-02   1.9496727e-01   3.4730647e-01   5.8414412e-02  -5.3102788e-01  -7.7150896e-01   8.3320724e-01  -5.2083681e-01  -6.6926461e-01  -6.4597241e-01   9.7501904e-01   6.6407767e-01  -5.4374693e-01  -8.6306900e-02   3.4185727e-02   3.7855328e-01   8.7836130e-01  -2.1444039e-01  -3.4692547e-01  -1.7965197e-01  -5.6300817e-01  -6.6788627e-01   8.0907214e-01  -1.0481599e-01   5.7536585e-01   9.5383697e-01   4.5878133e-02   1.2130892e-01  -4.4209911e-01   1.7735157e-01  -2.7993227e-01  -1.3428180e-01  -9.6610306e-01  -3.4279698e-01   3.7497741e-01  -9.3810623e-01  -2.3217723e-01   1.5162822e-01   7.5798536e-01  -8.0824904e-01   5.9273729e-01  -4.2435660e-01   6.7782210e-02  -4.9917765e-01   9.9319873e-02  -9.1435766e-01   3.3256916e-01  -1.5287236e-01   2.6983396e-01   5.8384326e-01  -9.6906081e-01   9.4361868e-01  -9.1258994e-01  -8.0416102e-01  -7.5391713e-01  -5.9579103e-01  -7.1883995e-01  -8.1675084e-01  -3.9604605e-01  -6.8736416e-01   1.6190976e-01  -1.1898822e-01  -2.2602518e-01   5.1602182e-01   4.6637701e-01   5.7449382e-01   4.2378852e-01   5.6958961e-02   3.8971383e-02   4.8771049e-01  -5.8980786e-01   1.1851002e-01  -9.8833790e-02  -1.8794239e-01  -8.1867278e-01   4.5350677e-01  -2.7665169e-01  -7.0505265e-01  -2.7489894e-01  -7.8852801e-01  -1.1177782e-01  -4.3264343e-01  -3.0624265e-01  -3.3472601e-01  -3.9108008e-01   4.5835449e-01   1.1568216e-01   9.4554611e-01  -4.8727976e-01   7.6927065e-02   4.0935638e-01  -9.9844967e-01  -3.9163331e-01   2.0487808e-01  -3.7984789e-01  -1.0121893e-01  -1.6271093e-02   5.7467002e-01  -8.8799665e-01   4.6655538e-01  -8.6051024e-01   3.3511115e-01  -4.4656399e-01  -3.4866558e-01  -3.6205179e-01   2.8622341e-01  -2.8559482e-01   7.4687643e-02  -5.9257620e-01   8.6883763e-01   3.9377672e-01  -6.1228754e-02  -7.9208264e-01   3.4811419e-02   8.4034397e-01   9.5297878e-01  -1.4318660e-01  -6.7862589e-01  -5.3365393e-01  -9.8477550e-01   9.1210292e-01  -8.5744189e-01  -9.8334819e-01   7.7993584e-03  -6.4938598e-01  -4.1200077e-01  -8.1455287e-01   7.4040745e-01  -2.3485672e-01   3.2247675e-01  -9.3323071e-01  -6.9290172e-02  -1.8027640e-01   1.2099606e-01  -6.8847329e-01   4.6793014e-01   8.2421996e-01  -2.6298803e-01  -7.9783211e-01  -7.8750696e-01  -3.5343209e-01  -4.1885124e-01   9.8282135e-01  -9.2753852e-01   9.9875700e-01  -1.9720857e-01  -7.6706818e-01   4.0074232e-01  -9.2663489e-01   2.1117890e-01  -1.7821837e-01  -1.0175105e-01   8.6376591e-01  -9.6162459e-01  -5.1504905e-01   5.4699679e-01   6.2824026e-01   9.6902243e-01   7.4884425e-01  -2.5524748e-01  -4.6667033e-01  -9.0233516e-01   4.6227447e-01  -6.2608545e-01   1.3699711e-01   4.0378914e-01   5.3035771e-01   2.5191055e-02  -9.0582466e-01   8.2585319e-01   2.0153989e-01  -3.4438071e-01  -7.6421880e-01   5.6393046e-01   8.0360333e-01  -2.9402249e-01  -2.9945750e-01  -4.2180528e-01   9.1816326e-01  -8.5217379e-01  -3.6760345e-01  -6.5232672e-01  -3.8338685e-01   8.0061917e-01  -2.2663632e-01   4.8591053e-01  -8.8566175e-01  -5.8397557e-01   6.1256605e-01   2.8824027e-01   1.3160532e-01   3.5067324e-01  -7.2164182e-01   5.7650983e-01   4.7090677e-02   6.3612122e-01   7.7888813e-01   6.2196802e-01   2.7607720e-01  -8.4772077e-01   2.7226945e-01  -6.3577395e-01   5.1533668e-01  -5.4397397e-01  -8.0058405e-01   3.1777627e-01  -2.8028055e-01  -5.4791684e-01   6.4800238e-01   2.0886489e-01  -2.8567579e-01  -3.8367696e-01   9.8271195e-01  -1.6809254e-01  -4.6169041e-01   2.5900144e-01   4.7216258e-01   6.9115033e-01  -1.6266290e-01  -2.4815294e-01   2.1433184e-01  -6.2152770e-01  -6.4777416e-01  -8.3882630e-01   4.8634588e-01   9.5535755e-01   8.5277920e-01   2.3660246e-01  -1.4053538e-01  -4.7832350e-01   9.1246920e-01  -6.6997538e-01   6.8587532e-01   8.6688074e-01  -9.1093603e-01   1.3555056e-01   6.4372162e-01   8.3050130e-02   3.4415849e-01  -5.4229985e-01  -4.2729154e-01   4.7491997e-01  -7.0099933e-01  -2.4204921e-01   9.4401658e-01   9.7683461e-01  -5.3429871e-01   4.0075406e-01   8.5952008e-01  -2.0836389e-03   3.8178949e-01   6.7494158e-01   3.6087543e-01  -2.7037960e-02  -6.1735107e-01   9.2344921e-01   8.2337517e-01  -2.3503654e-01  -8.2912557e-01  -6.9883152e-01   6.6931347e-01   4.2256885e-01   7.6435190e-01   2.9311432e-01  -8.6478241e-01  -3.5520420e-01   8.4700776e-01  -4.3432782e-01  -5.6979369e-01  -8.4767544e-01  -6.2775918e-01  -4.9197872e-02  -9.9647036e-01  -4.9581472e-01  -2.6623051e-01  -3.3752126e-01   2.8353749e-01  -3.6072537e-01   5.4334958e-03   8.7282355e-01  -7.3955538e-02  -8.2103975e-01  -2.1075744e-02  -7.8262721e-01   1.7911218e-01  -2.4677511e-01  -3.1395475e-01  -9.9584785e-01   7.5269536e-01  -7.5860136e-01  -9.9117789e-01  -8.2228867e-01   2.4988589e-02   5.9404512e-01   9.9161586e-01   5.5450628e-01   1.1866254e-01   5.8890382e-01  -5.4252244e-01   4.8899817e-01  -6.0276682e-01  -3.6043313e-01   6.9398331e-01   8.7513497e-03  -4.9077572e-01  -8.2230811e-01   9.9214111e-01  -9.0116715e-01  -5.2778042e-01  -9.3609701e-01   9.6135872e-01  -9.1709118e-02  -3.6943018e-01   6.5473792e-01   6.6012239e-01  -9.0845785e-01   6.4950323e-01  -4.1269270e-01   4.1919717e-01  -2.2476723e-01   2.7174837e-01  -8.3904491e-02   1.8618568e-01  -7.5941072e-01   4.0853353e-01   2.0818739e-01   5.9040243e-01  -3.3162492e-01   1.5637271e-01   5.3520543e-01  -1.5900059e-01   4.5541274e-01  -6.3443684e-01  -5.8304556e-01  -3.4023503e-01  -8.7618622e-01  -1.4824577e-02   4.5721683e-01   4.6791204e-01   1.4965907e-01  -7.5744138e-01  -3.6777341e-01  -1.3285103e-01   5.3788041e-01   6.1145147e-02  -7.3767400e-01  -7.3820685e-01  -2.9118920e-01   4.7787696e-01  -6.3813776e-01  -7.0940872e-01   5.2699898e-01  -6.6724451e-01   2.1817696e-01  -6.0108788e-01   5.0304424e-01   1.3119693e-01  -7.3411848e-02   6.7247329e-01   6.8016155e-01   6.3754376e-01  -3.4918087e-01   2.8661550e-01  -6.5813492e-01   8.8801718e-01  -9.9779020e-01   6.4770373e-01  -9.7984118e-01   8.1494348e-02  -4.1562754e-01  -3.3626251e-01  -6.8225460e-01   5.4795531e-01   8.6947354e-01  -6.9999018e-01  -6.9662522e-01  -5.1191645e-01   3.9697678e-01   8.6037490e-01  -6.1609883e-01  -4.8109355e-01  -8.8452658e-01   2.2326271e-01  -2.5492890e-01   7.0591662e-01  -5.9296491e-01   5.3137521e-01   1.1211911e-01  -2.8651271e-02  -6.9672493e-01  -3.6691510e-01   7.8624300e-01   3.4970483e-01  -3.1359487e-01   6.0991246e-01   7.1812653e-01  -5.4837554e-01   1.6246493e-01  -8.6447396e-01  -2.1055429e-01   8.4184781e-01   3.9467712e-01  -4.6339669e-01   5.5314862e-02  -2.3418702e-01  -4.2157699e-01   7.4160280e-01  -7.0521361e-02  -4.9487734e-02   9.4169691e-01  -1.2348828e-01   4.0559795e-02   5.3693232e-01   8.5307118e-01  -3.5847119e-01  -8.8246738e-01  -8.6250857e-02   5.3215352e-01   2.4790749e-01   7.3657610e-01   1.6531533e-01   9.0207654e-01   3.3650646e-01   7.5928317e-01  -6.3435019e-01   6.0618445e-01  -1.8457261e-01  -8.0403369e-01   6.3124247e-01   9.0575931e-01   8.7633691e-01  -4.6656432e-01   2.6588756e-01   2.7742447e-01   1.5653719e-01   8.9300376e-01   5.2246871e-01   5.5306200e-01  -7.9884199e-01   3.1279226e-01   7.7976858e-01   5.9020485e-01   6.5369950e-01   2.8129141e-01  -4.1105432e-01  -8.9514927e-01  -8.1920543e-01   9.0337800e-01  -8.2497823e-02   5.7913446e-01   2.5870431e-01  -1.2032618e-01  -1.9175166e-03  -4.0649178e-01  -2.7867736e-01   7.8113294e-01   8.6407662e-01   3.8007672e-01   3.8725376e-01   3.1141671e-01  -5.9922900e-01   1.8855271e-01   6.2154745e-01   2.7444089e-01  -6.1332815e-01   2.6994872e-01   7.3423570e-01  -4.7095111e-01   1.3164892e-01   8.4543179e-01  -5.3650606e-01   7.8768162e-01   3.9978865e-02   7.7601069e-01   8.9604624e-01  -7.7142279e-01   1.1174692e-01  -6.1053862e-01  -7.9500584e-01  -9.1093325e-01   4.2184677e-01   3.0612833e-01   7.3174886e-01  -6.2093591e-01  -6.0497183e-01  -9.8149764e-01  -1.4948046e-01   6.4202174e-01  -4.5738640e-01  -8.4175283e-01  -3.6786852e-01  -8.1785080e-01   4.9859013e-01   2.7385541e-01   3.2634883e-01  -3.2817334e-01  -1.5187041e-02  -1.7596910e-01   8.1677905e-01  -1.1134189e-01  -4.9880827e-01  -6.9802790e-01  -2.3411574e-01   4.5886892e-01   3.0986439e-02  -9.0572181e-01   7.7489564e-01  -2.6632922e-01  -6.5631653e-02   8.7533205e-01   3.1518637e-01   6.3131070e-01  -9.8847321e-01  -4.6226234e-01   7.7260025e-01   7.9749966e-01   6.9268774e-01   5.0855368e-01  -3.9887981e-01   1.8102186e-01   3.6387408e-01   4.4186011e-01   3.0672706e-01  -1.2299537e-01  -4.8380553e-01   2.1504154e-02  -8.6538298e-01   2.9149200e-02  -8.6564375e-01   9.1783223e-01   2.6265750e-01   8.1673318e-01  -5.2391514e-01   9.5219994e-01  -4.6193904e-02  -3.5867755e-01   1.9605751e-01  -9.5120544e-01   5.0263818e-01  -9.0690906e-01   6.3707033e-01   2.5288487e-01   7.9230335e-01  -9.7103415e-01  -6.9567768e-01  -6.8803335e-01   6.9214569e-01   7.5618825e-01   4.4391971e-01   8.4385985e-01  -6.2413795e-01  -5.7256881e-01  -6.3772076e-01   4.4566597e-01  -8.3226814e-01  -6.0905106e-01   7.7282530e-02  -5.6791564e-01  -1.0437439e-01  -1.9445046e-01   2.8624698e-02  -7.3375742e-01  -3.1157788e-01  -3.6081651e-01  -6.4133723e-01  -5.9487341e-01   5.1181064e-02   7.5382798e-01  -7.1235774e-01  -9.6781237e-01  -5.5085665e-01   6.7668363e-01  -4.9493950e-01   3.8996373e-01  -6.4916303e-01  -6.7588973e-01   5.6339979e-01  -4.1357344e-01   3.2062687e-01   8.7048744e-01   6.0014671e-01  -7.2851590e-01   9.6711072e-01  -7.3594453e-01   4.2983621e-01   9.8468455e-01  -5.3112185e-01  -3.3769623e-01   7.9956530e-01   4.1666751e-01  -1.7968482e-01   3.6900141e-01  -1.7982569e-01  -1.1564457e-01  -9.5530860e-01  -9.2942206e-01  -6.3883580e-01  -6.1855996e-01   8.0306266e-01   2.4157732e-01   6.5532532e-01   9.8826062e-01  -4.2812176e-01  -4.4674730e-01   3.6220744e-01   9.5772307e-01   5.9834924e-01  -8.1018253e-01   6.1389425e-03   2.3800315e-01  -6.5579703e-01   4.0544246e-01  -4.2389162e-01   4.8912760e-01  -6.6984429e-02  -2.5368511e-01  -1.1814592e-01   7.0350299e-01   7.9542240e-01  -8.5809087e-01   1.3210383e-01  -1.9231992e-01   5.1176945e-01  -9.4065520e-01   2.2621586e-01  -8.9024412e-01   4.9073173e-01   3.7093745e-01   1.2061726e-01   1.3983318e-01   3.4499970e-01   8.6916777e-01   8.4240713e-02  -3.8796294e-01  -7.6031986e-01   1.5868866e-01  -1.6634779e-01   3.5868861e-01  -2.4935335e-01   5.7913173e-01  -1.5152422e-02   7.3542845e-01  -9.4109398e-01  -2.0356192e-01   3.8037846e-01  -3.4771880e-01  -7.3897673e-01  -5.0670983e-01  -1.3014832e-01  -2.6356329e-02   7.8921013e-01   7.2344447e-01   6.1386899e-01   8.1532048e-01  -4.1668369e-01  -9.3269629e-01   8.7582760e-01   3.0613233e-01   6.4471050e-01   1.9943365e-01  -9.1621536e-01  -2.0974625e-01   6.8718571e-01   7.2641935e-02   3.8746186e-02  -2.7775363e-01   3.0154299e-01   2.8472787e-01  -6.0264707e-01   3.3131188e-02   3.7589196e-01  -7.7725138e-01  -7.3973409e-01   3.8986046e-02   4.6831722e-01   1.5045801e-02  -5.1330825e-01   5.2419845e-01  -3.4067692e-01  -2.7299279e-01   5.3020420e-01   3.7475314e-01  -7.4088763e-01   2.1195231e-01   3.9511949e-01   9.1805247e-01   4.9849324e-01   7.1856892e-01  -2.7867225e-01  -5.3231497e-01  -2.6922713e-01   7.3671626e-01  -6.5042280e-01  -6.1695481e-01  -4.1703705e-01   6.1450944e-02  -6.8751039e-01  -7.0964442e-01   6.3502827e-01  -6.4481862e-04   4.6994578e-01  -8.7243425e-01   4.2913738e-01  -7.4477849e-01  -4.7010565e-01  -6.9958427e-01  -8.2499830e-02  -3.3815879e-01  -4.6221491e-01  -6.6388066e-01  -7.1045779e-01  -4.3860817e-01  -2.3542553e-01   4.8362108e-01  -1.6701142e-01  -8.7097358e-01   8.1708377e-01   6.2281505e-01   3.4983340e-01   3.5680616e-01   2.6722287e-01  -8.7417937e-01  -4.3908030e-01   4.3427910e-01  -5.6773455e-01   7.2522365e-02   4.2253863e-01  -9.8419026e-01  -1.2339309e-01   5.4544466e-01  -1.4047907e-01   9.2003626e-01  -8.7114226e-01   6.3666474e-01  -5.6223329e-01  -1.3283539e-01   7.3219887e-01   5.0443244e-01  -1.2903396e-01   1.6094382e-01  -6.9325456e-01   5.3469962e-01   9.7243228e-01  -9.7918343e-01   6.7758652e-01   4.9090344e-01   9.7197694e-01   4.5393076e-01  -7.9688819e-01   6.2932929e-01  -4.0749109e-01   3.0830070e-01  -4.3774119e-01   8.5500215e-01  -6.9256587e-01  -8.8323156e-01   4.6864428e-01  -6.9550654e-01   3.3205480e-02   7.9531326e-01  -3.9829636e-01   5.1246048e-02  -9.4090843e-01   5.6970927e-01  -3.1032619e-02   1.8373496e-01   6.8692609e-01  -7.7640658e-01   8.9223297e-01  -8.0542637e-01  -8.4552475e-02  -3.3187694e-01  -8.7952163e-01  -2.9269010e-01  -4.5198371e-03   8.6211250e-01   4.9626017e-01  -8.7741000e-02   3.5670990e-01  -6.9268437e-01   5.0515591e-01   8.0330141e-01   9.8689089e-01  -4.9864936e-01  -7.4587618e-01  -9.4281405e-01   4.4496760e-02   7.9630737e-01  -8.2423930e-01   6.6167634e-01   1.2467590e-01   3.9100436e-01   4.7546395e-01   4.8561646e-01  -7.5959236e-01  -4.9271472e-02  -3.1291972e-01   7.9441560e-01   1.2564586e-02   3.4336465e-01  -3.8362931e-01   5.8565633e-01   1.1789939e-01   5.9310246e-01   2.5300353e-01  -9.6184856e-01  -3.3651012e-01  -9.8647583e-01   7.0411856e-01   8.4862634e-01  -5.7621109e-01  -5.0352262e-01   3.5300103e-02   7.0865948e-01  -3.3177047e-01   8.2801250e-01   2.8487088e-01  -7.2750900e-02  -1.1366387e-01  -6.0140775e-01  -5.7571607e-01  -1.6289253e-01  -3.4378474e-01   4.8513830e-01  -8.3230384e-01  -3.4575689e-01  -1.8565192e-01  -1.2363681e-01   6.2958761e-01   4.1164493e-01  -2.3296787e-01  -1.9281722e-01  -5.6297379e-01  -3.3597143e-01   1.1836418e-02   8.4522179e-01   5.6276123e-01  -3.3696782e-01  -6.6320634e-01   9.3507912e-01  -8.1514192e-01  -1.4382821e-01  -5.0474692e-01   8.2374263e-01  -7.9372050e-01  -3.7615104e-01   7.2312951e-01  -1.6663435e-01   6.4067344e-02  -7.2803586e-01   5.0886402e-01   6.7047148e-01  -5.3753423e-01  -9.1611342e-01   3.2074780e-01  -1.8856099e-02   2.2194683e-02  -6.0346066e-01  -9.6741485e-01  -3.9334295e-01   2.1274348e-01  -4.9529508e-01   6.6511447e-01  -6.0176525e-01  -1.0903160e-01  -7.3073330e-02  -5.6184682e-02   3.0168300e-01   5.7215682e-01  -8.8751184e-02   9.3178060e-01  -5.1258359e-01   3.9579502e-01  -7.3877163e-01   6.3695011e-01   6.1900392e-01  -3.0918868e-02   4.5446331e-01   2.6419375e-01   5.6282612e-01   7.5937555e-01   2.9865423e-01   2.0254309e-01  -8.9920376e-01  -7.2017987e-01  -6.4785432e-01  -3.8398114e-01   6.8351105e-01   8.5762862e-01   8.0486134e-02   4.3146722e-01   7.8227900e-01   2.9032081e-01   3.6948004e-01  -9.2931241e-01   2.4022970e-01  -5.8585915e-01   8.9280137e-01   9.8933713e-02   2.4270814e-01  -6.8437512e-01  -4.3777584e-01   7.3682598e-01  -1.8588329e-01   3.7880963e-01   6.1540453e-01   1.3633849e-01   9.1804805e-01   6.6003469e-01   9.3547857e-02   2.5408676e-02  -5.1391577e-02   4.8208414e-01  -8.5288001e-01  -8.0453298e-01  -6.8814909e-02  -5.1893856e-01   4.8728895e-01   4.6581123e-01   1.2336545e-01   3.7335836e-01
  -2.5643481e-01  -6.6482469e-01  -9.0294685e-01  -9.5829394e-01  -9.7065804e-01   3.6800807e-01   6.1424877e-01  -9.0433763e-01   2.1650617e-01  -7.9775493e-01  -5.6189036e-01   3.9731900e-01  -9.1101178e-01  -8.0599365e-01  -8.0256413e-01   6.9723474e-01   1.3161544e-01   8.1596877e-01   6.6691149e-01   3.2938347e-01  -9.3835341e-01   8.5604450e-01  -7.4214789e-01  -4.4872641e-01   7.9471643e-01  -7.0808926e-01  -9.4445965e-01   6.7384252e-01  -8.7550271e-01  -9.7304198e-01  -3.0192323e-01   3.0503782e-01   3.5364201e-01  -1.0228107e-01  -3.3591844e-01   3.1476667e-01   7.4166494e-01   5.0238807e-01   5.8299982e-01  -3.9581701e-01   7.5566900e-01  -8.9597415e-01   6.2013650e-01   4.0898561e-01  -7.5102687e-02  -6.6953076e-01  -7.9584775e-01  -8.1774808e-02  -7.8210211e-01  -1.9626417e-01  -9.1959905e-01   6.8441731e-01  -2.5109695e-01   8.8418853e-01   7.6645063e-01   2.0187611e-01  -9.1970148e-03  -8.4426750e-01  -4.0083668e-01  -8.3785191e-01  -2.6847823e-01  -8.9679747e-01   4.2030384e-02   4.2498806e-01  -2.0914380e-01   9.3213603e-01   6.7734976e-01  -2.5684039e-01   7.5416367e-01   6.4300230e-01   7.9637503e-01   2.8951932e-01   7.4948497e-01  -9.7292197e-01   3.7390882e-01   8.5149120e-01  -2.0666300e-01  -5.0092912e-01   8.1504378e-01   4.9284757e-01   2.0993010e-02   7.4666125e-01   8.8864820e-01   5.9245689e-01  -8.4343937e-01   9.9607482e-01  -9.0300596e-01   4.6039255e-01   1.5882284e-01  -8.7403425e-01   6.5216129e-02  -3.4278851e-01   2.9770689e-01  -8.7587543e-01   1.9425132e-01   1.5501202e-01  -7.6612315e-01  -7.2080119e-01  -8.0610584e-01  -7.0142144e-01  -8.3563923e-01  -5.9305256e-01   1.4392059e-01   7.4493506e-01  -8.0885524e-01  -6.7617640e-01  -3.9067879e-01  -2.6425236e-01  -2.8120103e-01  -8.7297246e-01   5.9550735e-01   2.2903003e-01   3.3421185e-01  -3.3784912e-01  -3.9763027e-01  -4.9646012e-01   6.3546776e-01  -9.0068354e-01  -3.3477084e-01  -4.6280569e-01   9.6925756e-01  -5.2983225e-01   1.9363432e-01  -8.3610012e-01   7.6419903e-01  -8.5596537e-01  -9.0335932e-01   9.6901583e-01  -9.7550984e-01   9.8623314e-01  -5.4134474e-01  -8.8133345e-01   9.1065534e-01   7.2581464e-01   9.3897875e-01  -3.5849924e-01   4.9011721e-01  -7.8120628e-01  -6.6192478e-01  -8.5585229e-01  -8.9089167e-01  -9.1472311e-01   5.4492532e-03  -5.1057432e-01   9.1246740e-01   4.8266925e-01   7.1188268e-01   4.5033743e-01  -5.8985231e-01  -4.5907821e-01   2.0340358e-01  -9.7525657e-01  -2.8042872e-01   6.9114410e-01  -4.7704615e-01   9.2968027e-01   6.1089155e-01   3.2547254e-01  -8.9888368e-01  -6.2952523e-01  -3.4672962e-01  -1.0812585e-01   8.5128249e-01  -8.0073290e-01   6.8744939e-01  -6.2704253e-01   4.3974183e-01   3.1226425e-02   9.5820474e-01  -2.9146926e-01  -8.1107275e-01  -7.2297877e-01   7.9660718e-01   4.2185030e-01   6.5365361e-01   3.9663862e-01   8.4434936e-01  -6.7951482e-01   3.1665747e-01  -8.1952951e-01  -9.6661944e-01  -1.6547081e-01  -2.4222315e-01  -3.8054803e-01   1.1375507e-01   7.8197803e-01   4.5400040e-01   8.2716234e-01  -9.0032090e-01  -4.3315865e-01  -5.1255756e-01   7.2798089e-01   2.7412854e-02   3.0450797e-01  -9.8569822e-02   1.3566168e-01  -7.4285052e-01   1.2042964e-01   2.2861703e-01   4.6801531e-01   6.9962473e-01   8.4996411e-01   2.8241990e-02   6.4970080e-01   3.9601689e-01  -6.5393897e-01  -7.2792016e-01  -5.9305245e-01  -2.5957726e-01  -3.8935925e-01  -6.7165838e-01  -7.4994346e-01  -3.9547556e-01   4.6864994e-01  -6.1152554e-01   1.1737566e-01  -4.8402713e-01  -8.9235046e-01  -9.1885282e-01   5.9264605e-01   6.9889275e-01   4.3700979e-01  -4.3263801e-01  -9.4773185e-01   8.7086448e-01  -4.7317945e-01   7.3651943e-01  -6.4056583e-01   5.1068097e-01   2.6465272e-01   2.2629294e-01  -1.1936194e-01  -2.5155270e-01  -7.1802635e-01  -1.9574213e-02   2.8898274e-01   7.7691791e-01  -1.2845951e-01  -6.0400632e-01  -3.6443218e-01  -9.6818485e-02  -2.3304577e-01  -4.5658648e-01   8.6347653e-01  -2.3864646e-01   9.2722358e-01   6.2653716e-01  -1.2100752e-01   7.5771924e-01   3.0800679e-01  -2.3957906e-03  -9.4623487e-01   3.3399517e-01  -4.4718692e-01   5.1003351e-01   9.3738169e-01  -6.3049705e-01  -8.8613646e-01  -1.1439993e-01  -2.9078076e-01  -7.0952157e-01   5.4309415e-01  -6.6738615e-01   6.1461282e-01   3.0892434e-01   3.2654009e-01  -9.5551343e-01   3.2170822e-01   9.4048403e-01   8.6591829e-01  -9.3138083e-01   6.5884452e-01  -6.9052468e-01  -5.2131129e-02  -1.9592259e-01  -6.1470786e-01   5.7774279e-01  -8.0126240e-01   3.1053417e-01  -6.8114820e-02   2.5077542e-01   8.9843639e-01   9.3228423e-01   4.8066351e-02  -4.1585861e-01  -1.1668228e-01  -5.3048170e-01   4.1020132e-01   7.1424912e-02  -3.7120792e-01   5.2653520e-01  -1.5057546e-01   4.7751154e-01  -6.6003721e-01  -7.2534842e-01  -7.7295550e-01   8.5770051e-01   9.9145857e-01  -3.1930595e-01  -2.0546493e-01  -8.8191664e-01  -9.9607794e-01  -7.6005268e-01  -7.7900753e-01  -9.1967374e-01  -9.4015668e-01  -9.5965799e-01   8.5214529e-01  -4.2731810e-01   3.7135543e-01  -7.5842710e-01  -6.2005908e-01  -4.2908482e-01   1.4643510e-01   7.5946489e-01  -3.1237972e-01   4.7485009e-02  -2.5660164e-01  -3.2895169e-01  -2.4485388e-01  -8.6423112e-01   7.3892792e-02   2.8915814e-01   3.7908556e-01  -6.4573599e-01   5.9863851e-01   5.4775881e-01   6.4173911e-01  -9.7845900e-01  -7.9230853e-01  -8.7545227e-01   2.2329159e-01  -6.2747659e-01  -4.2098601e-01  -1.4753484e-01   4.7151851e-01  -4.6319910e-02   3.8422315e-01  -3.2270244e-01  -6.2254521e-01  -2.1427597e-01  -3.4061038e-01   9.2676683e-01   6.1753343e-01  -7.7790559e-01  -5.8209234e-01   4.9569710e-01  -3.2589227e-01  -2.6185789e-01   6.5297385e-02  -3.5520477e-02  -6.9859380e-01  -9.7791261e-02  -6.9644203e-01   6.2726134e-01   6.0023384e-01   9.7709938e-01   5.7116759e-01  -2.6589518e-01   3.1062587e-01  -5.4108482e-01  -8.5490870e-01   7.6776284e-01  -7.3731672e-01  -6.2632534e-01  -5.1042832e-01  -8.8426598e-01  -3.3277986e-02  -9.0394301e-01   1.2729353e-01   2.0444162e-01  -7.2105624e-01   9.6542328e-01   8.4952570e-01  -1.9699769e-01   8.1162530e-01  -4.3489040e-01  -6.2700213e-01   7.1415939e-01  -1.4281957e-01   4.6189279e-03  -4.4739151e-01  -1.5848725e-01  -3.0285570e-01   9.7436177e-01   9.8825153e-01  -2.5997224e-01   4.5111037e-01  -4.9959974e-01   8.8164572e-01  -5.6702859e-01  -1.5732936e-01   4.4468512e-01   8.9101678e-01  -6.3914928e-01   1.3400141e-01   5.6806901e-01   5.7508845e-01   7.1961084e-01   2.7712879e-01   7.0159430e-02   3.3648570e-01   8.0758958e-01  -1.7090653e-01   2.1055830e-01  -8.0854957e-01   1.7057088e-01  -4.0175315e-01   2.8232439e-01   7.4514924e-01   4.4021342e-01  -7.3448497e-01  -2.5024320e-01  -4.5382196e-01   9.1633092e-01  -2.7093505e-01  -3.2136947e-01  -7.5127141e-01  -9.2062118e-01   6.5153453e-01   1.0079516e-01  -3.5791783e-02  -1.8622930e-01  -4.8924493e-01  -3.9905760e-01  -3.8706488e-01  -4.2774935e-01   6.9875322e-01   4.5747380e-01  -6.8338063e-01   7.7278826e-01  -9.9972463e-02   4.2027212e-01   5.7035058e-01   2.6934334e-01  -3.8579098e-01   4.5774152e-01  -5.5228639e-01  -1.6533066e-01   4.8834278e-01  -9.4699627e-01  -7.9943521e-01  -2.3411394e-01   9.1160052e-01  -3.2295866e-02  -2.2296036e-02  -8.0029384e-01  -7.7119268e-01   2.8655855e-02  -8.4925712e-01   6.7475191e-01  -7.8974939e-01   4.9856031e-01  -8.4198532e-01   6.8866376e-01   6.5457866e-01   2.2029575e-02  -2.4341494e-01   4.2704626e-01  -7.5854737e-01  -2.1593700e-01   3.4248010e-01   9.2025080e-01   3.3314248e-01   2.5652561e-01   9.4673272e-01   1.2519076e-01   5.0364493e-01  -3.4941531e-01   5.1358196e-01  -9.7613704e-01  -1.3494051e-01  -5.7609069e-01   6.7402278e-01   2.9375518e-01   6.1236439e-01  -8.6617916e-01  -1.4642690e-01   5.8706615e-01   1.3043873e-01  -1.7631663e-01  -2.3896584e-01   6.7025190e-02   8.3347647e-03   3.8699093e-02  -6.7327596e-01   1.4086863e-01   8.7748345e-01   4.6695920e-01   5.8783699e-01   9.3297704e-01  -3.0874174e-01  -3.7503826e-01  -3.2548699e-02   7.2653561e-01  -9.2543696e-01  -1.4311149e-01  -4.9115658e-01   7.8949818e-01  -3.2167366e-01  -9.4368038e-01  -3.8357007e-01  -7.6957506e-01   5.9040613e-01   6.5831394e-01  -6.0043764e-01  -6.9952247e-01  -1.7032364e-01  -6.8290398e-01  -6.9962309e-02   6.3781050e-01   5.8493455e-01   6.0131028e-01  -6.3241524e-02   2.7690356e-01   6.8206593e-01  -4.7413629e-01  -5.8487505e-01   5.0571812e-01  -6.3202149e-02   8.9078805e-01  -2.1373552e-01  -6.0934987e-01  -4.2940504e-02   3.2111048e-01   3.1058216e-01  -9.6717329e-01   6.8175159e-01  -1.8011757e-01  -2.5197021e-03  -9.3929749e-01  -6.7995571e-01  -3.5908075e-01   3.8403413e-01  -1.0093666e-01  -1.4174519e-01   1.1601801e-01  -7.0850392e-01  -9.0157083e-01   1.2648009e-01   3.4137409e-01   1.3844600e-01  -5.8045377e-01  -8.2363751e-01   2.8411623e-01   6.9789002e-01   8.5586982e-01  -2.0634290e-01  -6.9284850e-01   2.9532677e-01   5.1047579e-01  -8.7194723e-01  -8.1437914e-01   2.3441024e-01   4.5099707e-01  -5.9486201e-01   7.4822478e-01   1.9525486e-01   9.6616040e-01   1.1893272e-01   9.2348510e-01   3.9867473e-02  -6.9790518e-01   5.7406918e-01  -3.0679892e-01   3.8834012e-02  -2.4532250e-02  -1.3608560e-01   4.4985124e-01  -3.1208426e-01  -4.0763860e-01   4.1129188e-01   7.3019928e-01  -3.9895930e-01  -2.2931536e-01  -5.5216504e-02   1.5091912e-01  -4.0683847e-01  -6.9394486e-01   4.6614947e-01   2.1159449e-01  -5.1865160e-01   5.8142846e-01   6.7652323e-01  -8.7246076e-01   4.9883883e-01   9.9066608e-01   8.7710996e-01  -2.3652528e-01  -9.8884467e-01  -9.6256816e-01  -3.4547697e-01  -6.9064357e-01   7.8449395e-02   5.6793719e-01  -1.0652156e-01   4.9979294e-01  -6.8786695e-01  -9.8473671e-01   2.7146874e-01  -5.0229471e-01  -9.7487110e-01  -2.1210975e-01   8.1573931e-01  -6.2358799e-01  -8.1369999e-01  -3.4194518e-01  -7.1128371e-02  -4.8506343e-01   8.3938315e-01  -1.7640847e-01  -4.3142568e-02   4.0414961e-01  -6.4240144e-02  -5.3468437e-01   3.7349009e-01  -3.3141871e-01   6.3271982e-01  -3.1831449e-01  -8.8636085e-02  -8.1229666e-01   6.9082579e-01  -8.5823135e-01  -4.5457608e-01  -2.4998284e-01  -5.3635457e-01  -2.4901673e-02   6.8825937e-01  -6.6643751e-02   3.0229006e-01  -5.6834268e-01  -5.3474714e-01   3.4204423e-02  -8.9903186e-01   5.2674943e-01  -6.6123715e-01  -1.4969855e-01  -9.3915785e-01  -3.9115832e-01   3.1839298e-01   3.6707163e-01   5.4525777e-02   7.9226231e-01   1.9247613e-01  -3.3770855e-01   5.1002163e-01  -2.0849766e-01   7.2817564e-01  -7.5129695e-02  -5.2871610e-01   7.6840231e-01  -1.8794667e-02   8.1641863e-01   9.3276231e-01  -8.0820921e-01  -9.5284593e-01  -2.6314781e-01   3.4763972e-01  -5.8425161e-01   8.6274742e-01  -3.8269494e-01   8.3130134e-01   9.7817061e-01   4.5194458e-01   1.6752137e-01   2.2711092e-01  -7.3821896e-01  -9.4438103e-01  -6.7661621e-01  -2.9892227e-01   3.8979456e-02  -9.1873718e-01   7.0234929e-01  -4.5180020e-01   2.3043084e-01  -8.0479534e-01   5.9787020e-01  -3.0364754e-01  -6.0245155e-01   1.5472832e-01  -5.4669529e-01  -1.1230779e-01  -7.9682936e-01  -5.7691329e-01   7.7246157e-01  -8.7071940e-03   2.6391134e-01   1.4475940e-01  -5.7393800e-01   5.5456554e-01  -5.5809956e-01  -4.8420297e-01   1.8291745e-01   9.2916008e-01   3.4845293e-01   4.2853559e-01  -5.1239988e-01  -2.8133905e-01   6.9025921e-01   8.8057889e-01  -5.4860953e-01   4.5109576e-01  -5.8816842e-01  -8.2250348e-01   3.3665044e-01  -4.6355213e-01  -3.3422815e-01  -1.5956107e-01  -9.2677772e-01  -8.1667075e-01  -8.9852084e-01  -5.8905570e-01   4.7279663e-02   2.8327392e-01  -8.6651898e-01  -3.3406337e-01   7.4874350e-01   9.2828161e-01  -8.8219551e-02   6.4986661e-01   3.2412262e-01  -7.8318704e-01  -7.9370901e-01  -1.0903807e-01   6.0722533e-01   1.9419220e-02  -9.1162085e-02   8.3750211e-01   7.4102695e-01  -6.4004063e-01   2.8307283e-01  -3.6835127e-01   1.5012906e-01  -5.4318098e-01   5.8489030e-02   8.5405546e-02  -8.5718624e-01   5.7562050e-01  -2.6311228e-02   5.3842285e-02   1.0737200e-01   6.5383074e-01   2.6022094e-01  -3.3891173e-01  -8.7326367e-01   3.7665123e-01   5.8949364e-01   6.8828874e-01  -7.3554749e-01  -8.2168024e-01  -1.8890744e-01  -5.4571118e-01  -6.4916921e-01   7.2903840e-01   1.7032306e-01   8.0211495e-01  -2.8362462e-02   1.8310176e-01  -6.5662921e-01  -1.3933702e-01  -5.5079942e-01   7.4742098e-01   5.1755170e-01  -2.7324424e-01  -5.0097673e-01   3.1311615e-01  -6.7226299e-01   2.7716032e-02  -3.5485290e-01   1.9809477e-01  -3.9768423e-01   5.6995571e-01  -3.0485096e-01  -3.1596690e-01  -5.2603342e-01   2.2710238e-01  -5.3696733e-01  -5.4327653e-01   7.6578902e-01  -4.9565320e-01   5.3404523e-02   2.8194982e-01  -4.8488566e-01  -6.0876199e-02  -8.1408387e-01   5.7940660e-01  -6.2582277e-02   9.5758599e-01   3.6167266e-01   4.8386424e-01  -1.4195643e-01  -8.8268856e-01  -8.8074061e-01  -4.1180926e-01  -8.3246643e-01   2.7708051e-01  -5.8914718e-01  -5.8681525e-01  -8.2285400e-01  -4.1983588e-01   8.1480821e-01  -6.9402583e-01   3.3134268e-04  -5.5217972e-01  -2.7498939e-01  -6.9186846e-01  -8.3119999e-01  -5.6602434e-01  -6.7522234e-01   5.1031192e-01   6.3865753e-01  -3.7337231e-01   7.0579617e-01  -6.8434822e-01   3.5477627e-01  -4.6236548e-01   5.1206319e-01  -6.5960938e-01   2.6853632e-01  -3.1427510e-01  -1.2665754e-01   4.3093991e-01   2.3336281e-01  -2.9330496e-02  -1.8870546e-02   7.6327490e-01   2.1115556e-01   6.6773021e-01  -9.8986270e-01   9.9590477e-01   2.0596528e-01  -2.1586205e-01  -3.9130230e-01   4.8714799e-01  -5.3633401e-01   5.7333377e-01  -4.3177417e-01   4.3225978e-01   5.8443979e-01   8.9950437e-02   7.4486270e-01   1.3734403e-01  -5.9122249e-01   8.1534541e-01   1.1512868e-01   4.4998941e-01  -3.7692184e-01   6.2977693e-01  -3.4494713e-01  -6.5207942e-01   2.2885869e-01  -3.7212052e-01   5.4799259e-01  -7.0820205e-02   8.3595267e-01   1.1766236e-01  -9.3461055e-01   9.7284066e-01   9.6059104e-01   6.8962492e-01   6.4169284e-01  -5.5914310e-01  -9.4783295e-01  -6.3984947e-01   2.8348108e-01  -6.1858560e-01  -6.6155409e-01   1.5958133e-01   1.5383112e-01   1.2142149e-01  -8.7930006e-01  -9.3329435e-01   2.9244159e-01  -1.2076084e-01   2.8971934e-01   1.8074281e-01   1.9524720e-01  -8.0428188e-01   1.6061600e-01  -4.6112758e-01  -8.1827157e-01  -5.9981549e-02  -1.8972252e-01  -9.7269342e-01   4.4756888e-01   8.4704922e-01   7.0350379e-01  -2.5048653e-01  -8.8026094e-01  -8.4573245e-01  -6.8006319e-02   7.0516395e-01  -5.5243918e-02  -2.7816902e-01   6.2502262e-01   3.1842633e-02  -9.8968038e-01   9.4078001e-01  -4.3340468e-01  -5.9685293e-01   9.5146700e-01   1.1687771e-01  -3.3916040e-01  -4.7687497e-01  -6.1037615e-01   2.7405664e-01  -2.8190788e-01   7.4064759e-01  -8.1430826e-01   2.5021227e-02  -2.0608388e-01   7.6422419e-01   1.8267947e-01   4.4814695e-01   9.3206579e-01   7.6259938e-01   8.1953432e-01   2.7399053e-02   1.2413453e-01   6.9356518e-01  -2.0761409e-01   2.6222730e-02  -1.5694881e-01  -9.4177269e-01   1.0278125e-01  -4.0483475e-01   6.0441548e-01  -3.1173835e-01   8.3573195e-01   1.6657733e-02  -4.1089232e-01  -7.1792077e-01  -3.9484851e-01  -6.0535790e-01   4.7387558e-01  -7.7421562e-01  -7.9077167e-01   1.2658308e-01   3.3363265e-02   8.4717723e-01  -6.7761151e-01   4.4825874e-01   1.9447700e-01  -5.0241627e-01  -2.7469481e-01  -9.1386061e-01  -5.8015112e-01   1.0023985e-01  -4.2162071e-01   1.0160970e-01   4.4386564e-01  -5.8019159e-01   5.3889019e-02   3.7130203e-02  -5.4738881e-01  -6.1873294e-01  -5.9249565e-01   3.2482164e-01   9.3947728e-01   6.8986402e-02   5.3165364e-01  -1.3260491e-02   2.0740121e-01  -3.0250619e-01  -3.3968313e-01   8.0811463e-01  -6.8322879e-01  -3.1230514e-02  -4.0430311e-02   2.4483052e-01  -3.3811995e-01   9.5086925e-01   1.7362566e-01   4.3759122e-01   4.1964663e-01   7.4458758e-02   5.5220722e-01  -4.1957143e-01   9.4203470e-01  -4.8195618e-02  -4.0614356e-01   1.5322492e-01   6.4404990e-02   3.5831272e-01   6.4135189e-01  -8.5931245e-01   4.9434160e-01   4.4145072e-01  -3.2637446e-01  -6.5580696e-02  -8.3946608e-01   9.0754536e-01   9.6543609e-01   1.0721956e-01  -5.0322611e-01   5.2421410e-01   5.1553971e-01  -5.4500103e-01   4.9787477e-01   8.6258711e-01
