   6.4520192e-01   6.4829901e-01   5.9540905e-01   8.3492291e-01  -6.9145462e-01   7.0747909e-01  -2.5111937e-02  -2.6705718e-01  -1.6726849e-01  -3.6855637e-02  -4.2455109e-01   8.7815696e-01  -8.7645478e-01  -7.3515969e-02  -4.0546239e-01   1.4759996e-01  -8.2284964e-01  -7.8280158e-01   6.9231366e-01   2.8214261e-01  -3.7187228e-01  -7.1247547e-01   4.0270807e-02   8.7775799e-01  -2.3189775e-01   1.9579918e-01   5.4048075e-01  -8.9945514e-01   1.0181292e-01   3.1816651e-02   2.7420322e-01  -7.9405903e-01  -4.8542942e-02   6.5001771e-01   2.2262235e-01   1.0138038e-01   5.8654177e-01  -6.2093151e-01  -7.3275730e-01  -2.0219186e-01   4.6434215e-01  -1.2813740e-01   4.3643481e-01   5.2956971e-01  -2.5731170e-01   6.3663830e-01  -4.4000609e-01  -6.0534412e-01   5.2333107e-02  -2.2992884e-01   4.4992107e-01  -8.2468058e-01   2.7023288e-01  -6.8175908e-01  -3.2863339e-01  -5.7502335e-02   1.6552590e-01  -5.0312078e-01  -1.0452973e-01  -5.3573615e-01   1.6413182e-01  -3.5465793e-02  -7.3539315e-01   6.9005629e-01  -3.1875701e-01   2.2449323e-01   2.1837221e-01   8.0814014e-01   8.3076931e-01   4.4183272e-01   2.8554759e-01   5.2048663e-01   1.1890971e-02   8.9657610e-01  -5.7530191e-01   5.6128797e-01  -5.6756995e-01  -4.8325384e-01  -3.7768457e-01  -9.9058772e-01  -6.0976551e-02   3.9241585e-01  -3.4805623e-01  -7.3165078e-01   5.1911936e-01   7.6547569e-01   8.7264312e-01  -8.9542451e-01  -3.8181592e-01   7.9311185e-01   6.0319056e-01   4.7461497e-01   1.5850362e-01  -3.8245038e-01  -2.0567227e-01  -9.4654090e-01   6.3465869e-02  -4.0464952e-01   2.3126804e-01  -2.4343537e-01   2.3673124e-01   9.2715606e-01  -8.8793321e-01   1.4576409e-01  -5.0880352e-01  -3.0229837e-01   9.6100574e-01   2.0984579e-01  -9.7495771e-01  -4.9936010e-01  -4.2568964e-01  -6.9319234e-01   3.8539083e-01   4.3300950e-01  -2.1532515e-01  -3.1461663e-01  -3.5051470e-01  -9.0277573e-01  -6.8725709e-01  -1.0707671e-01  -1.3359125e-01  -3.0317616e-01  -4.5207890e-01   7.1478847e-01   2.8336871e-01  -3.2996974e-01   6.1889986e-02  -2.4435107e-02  -2.2512232e-01   8.2461788e-01   7.8041358e-01   6.4553750e-01  -8.7160780e-01   8.0811089e-01   9.8642856e-01  -5.3642020e-01   8.3332645e-01  -2.6818305e-01   4.7983877e-01  -8.4009363e-01  -2.9072222e-01  -2.4984180e-01  -8.2546206e-02  -7.9801417e-01  -7.7305731e-01  -5.1295002e-02   7.0159067e-01   7.5974813e-01   7.4235719e-01   6.0880652e-01  -1.4532220e-01   7.9607342e-01  -2.0486662e-01   6.4208703e-01  -1.3805305e-01   1.6022826e-01   7.6607138e-01   5.7726677e-01   5.4747736e-01   2.6637064e-01   9.3771199e-01  -5.2454880e-02  -6.4422997e-01   9.5622867e-02  -3.6131039e-01   5.7208486e-01   2.3882156e-01  -1.2142455e-02  -4.2892055e-01   8.6086654e-01   9.7409024e-01   5.0289829e-01  -1.3110014e-01   6.0078699e-01   4.1194750e-01  -5.8102884e-01  -2.3298846e-01  -6.9376596e-01  -2.7019732e-01  -5.6563818e-01   9.1689762e-01   9.9970993e-01   3.1435890e-01  -2.3971366e-01   5.2526796e-01  -6.1739267e-01  -3.6889548e-01  -7.5370698e-01  -4.7601532e-01   8.8384643e-01   7.2089733e-01   1.5272766e-01  -9.2039717e-02  -2.6312466e-01  -7.5504000e-01  -7.6370572e-02   7.6058781e-01   1.0388021e-02   4.8343302e-01   1.2156010e-01  -5.8613000e-01  -4.2502130e-01  -6.2853532e-01   5.4773466e-01   6.6150500e-01   5.8556999e-01   4.8372621e-01   8.1082098e-04   4.5749577e-01  -9.9818212e-01   7.0166373e-01  -4.1919828e-01  -7.9993316e-01   8.7604661e-01   1.9777444e-01   6.4011863e-01  -4.8602125e-01  -5.6880940e-01   3.3552464e-01   8.3957015e-01  -9.7760165e-01  -1.5090003e-01  -9.6864431e-01   6.2943824e-01   5.9386688e-03   5.6726201e-01   6.9987243e-01  -3.8856944e-01   2.5272241e-01   7.7298470e-01   3.2873565e-01   9.2490126e-01  -5.0677617e-01   2.8258538e-01   5.0907387e-01   6.2170152e-01   3.4753461e-02   9.2610803e-01  -9.6573799e-01  -1.9279069e-01   8.1317068e-01  -3.3749322e-01  -5.4010521e-01  -8.7039367e-01  -5.5370867e-01  -2.6088375e-01  -4.3348203e-01   2.7500552e-02   1.3550335e-01  -3.4522397e-02   7.4718786e-01  -2.0167937e-01  -9.0214285e-01   3.1085073e-01  -9.1921979e-01  -9.1906303e-01  -7.6695226e-01  -4.0261719e-01   9.7194199e-01   6.5345156e-01  -7.9465446e-01  -9.5413123e-02   2.7365692e-01   6.8590988e-01  -2.6257583e-01   4.4597945e-01  -5.6808743e-01  -8.8941494e-02   6.8399761e-01  -1.0088134e-01   5.4561222e-02  -8.9211072e-01  -2.4599604e-01  -3.0197304e-01   3.2758720e-01   9.9882762e-01   2.6848525e-01   2.1595387e-01  -2.6230688e-01  -6.0412518e-01  -8.9165095e-02  -6.2451835e-01   6.3224515e-02  -5.9689672e-01   3.0959772e-01   2.2940504e-01  -4.0119644e-01  -2.0421793e-01   7.7991263e-01  -4.8267590e-01  -2.9405766e-02  -5.4035751e-01  -7.4128539e-01   2.3667818e-01   7.9843733e-01   3.5892922e-03   6.1515237e-01  -9.5040518e-01  -1.1055336e-01   9.6523638e-01  -4.7320219e-01   7.7531546e-01   9.3323976e-01   5.0607881e-01  -8.5321459e-01   4.9089934e-01   1.0478913e-01  -3.4364719e-02   6.4942621e-01  -4.4872255e-01   6.3146985e-01  -6.1117251e-01   7.4778830e-01  -6.8021048e-01   2.5515172e-01   1.9799129e-01   6.5666967e-01   9.3679282e-01   1.4044342e-01  -2.6682067e-01  -2.7568077e-01  -7.1356400e-01  -6.5736240e-01  -8.5294581e-01  -2.9514152e-01  -5.6556768e-01  -2.9655855e-01   4.7631506e-01  -1.1426416e-01  -7.7234071e-01  -1.0388632e-01   5.1586344e-01   7.8266258e-01   6.8758932e-01  -3.9633714e-01   7.2179923e-01  -9.9236746e-01  -7.6154359e-01   4.4431873e-01  -9.2579951e-01   3.1709439e-01  -7.7036123e-01  -9.4286438e-01  -5.9885883e-01  -7.8469449e-01   8.1566200e-01  -2.5197384e-02  -3.0474573e-01  -2.4407052e-01   5.7010642e-02  -3.9872383e-01   7.8236732e-01  -6.5338790e-01   3.1281541e-02   2.3472901e-01   5.7553216e-01   6.9482385e-01  -4.8243611e-01  -7.8291027e-01  -6.0631037e-01   3.0690706e-01  -2.5646677e-01   1.1919870e-02  -4.2209578e-01  -4.5106222e-02  -1.7735948e-01   7.5695584e-01  -1.8284929e-01   7.8939993e-01   2.9691580e-01   3.9130340e-01   9.5188329e-01  -6.4395545e-01   9.6282022e-01  -6.6682143e-01   5.8961839e-01  -6.6192847e-01   6.0026767e-01   3.7322665e-02   8.0841300e-01   7.9329412e-02  -9.4816782e-01  -4.7605108e-01  -7.7071567e-02   5.4815886e-01   3.0912399e-01   3.8642868e-01  -2.4720308e-01   7.1968301e-01   6.7685898e-01   7.7733282e-01  -8.2743864e-01  -5.4788743e-02  -5.3490086e-01  -8.5175712e-01   6.4123523e-01   1.9670415e-01  -8.9401595e-01  -3.3840684e-01  -5.4921526e-01  -7.5831964e-01   4.2462308e-02  -3.8306239e-01   6.3024738e-01  -9.3242105e-01   7.2843568e-01   6.8066524e-01   1.2427832e-01  -2.9195859e-01  -6.1854233e-01  -3.7058092e-01   7.3332874e-01  -7.2138407e-01   1.0201585e-02   9.3517234e-02   1.1226386e-01   5.0570932e-01  -8.2102939e-03   8.1450674e-01   5.4294396e-01   8.0729853e-01  -7.8338106e-01   8.1233527e-01   2.8829951e-01  -4.5740061e-02  -2.7299783e-01   8.4225589e-01   3.6783722e-01   1.3330642e-02   2.5429875e-01   5.7217794e-01  -7.4300431e-01  -3.3079063e-01  -8.2942621e-01  -2.2426054e-01   5.0835194e-01  -6.3662137e-01   8.5371666e-01  -2.1205744e-01  -3.8930252e-01   8.5173062e-01   7.8849083e-01   2.2877825e-01  -1.7884268e-01   8.6617452e-01   5.7790101e-01   4.2189268e-01   6.0056931e-03  -8.2120376e-01  -8.5553699e-01   6.9063228e-01   8.2642929e-01   2.3391370e-01  -5.6815657e-02   3.3872248e-02  -1.0700959e-01   4.7474340e-02  -1.8635368e-01  -1.3089128e-01  -6.4481823e-02  -9.7586024e-01  -6.5776957e-01   1.4039763e-02  -1.4642541e-01  -9.2320398e-01   1.0537301e-01   9.4132713e-01  -7.3544710e-01   8.2296261e-01   5.9449580e-01   8.8504024e-01   8.6581172e-02   3.0415820e-01  -2.7223243e-01   5.7737856e-01  -3.3292222e-01  -8.2582526e-01   3.6635155e-01  -5.9268999e-01  -7.3180666e-01  -2.4474602e-01   9.4735224e-02   4.6488660e-01  -6.8158873e-01   2.6880491e-01  -1.9603435e-01   9.8703515e-01  -6.3188782e-01  -2.3298184e-02   5.0928945e-01  -6.8533720e-01   9.1881333e-01  -3.0632096e-01   1.7060598e-01   3.0161760e-01  -2.7784396e-01   9.6006115e-01  -8.2530017e-01   1.6999027e-01  -5.4178205e-01   3.2326697e-01   5.8979260e-01  -7.2564978e-01  -4.9323223e-01  -7.4001594e-01   3.1364216e-01   2.7689272e-01  -9.7466002e-01   4.4404602e-01  -6.5356088e-01  -6.7501032e-01   5.9233072e-01  -7.1113586e-01   1.3092701e-01   4.8081475e-01   6.3925148e-01   3.4764610e-01  -5.1940153e-02  -9.8879450e-01   7.1327216e-01  -7.5188945e-01   3.2088485e-01   1.5516891e-01   9.5507091e-01  -4.1007474e-01  -9.2300802e-01  -5.1026415e-01   5.5999846e-01   4.4731454e-01  -2.6165718e-01   6.5563742e-02  -4.6417836e-01   4.5019966e-01   6.5596968e-01  -4.7739873e-01  -4.2169526e-01   7.4716730e-02   6.0248774e-01   8.0260978e-02   3.9153265e-01   4.5731792e-01   6.4795894e-01  -2.1437390e-01  -9.5840328e-01  -5.9178029e-01  -9.0998111e-01   6.0003538e-01   9.5331194e-01  -9.4033140e-01  -6.6754606e-01   5.4222228e-01   3.2198019e-01   6.0249797e-01  -8.8626811e-01   3.5568435e-01   6.5932975e-01  -2.7212499e-02   6.5525050e-01   7.8995027e-01   5.2190215e-02   4.9144908e-01   1.5937100e-01   1.4373488e-01   2.2866146e-01  -2.7565657e-01   1.1552352e-01  -4.0364705e-01  -1.1854262e-02  -3.0941920e-03  -6.1025385e-01  -1.2596037e-01  -6.4073879e-01   1.6673446e-01   4.0540877e-01   4.0045061e-01  -1.8299033e-02  -3.4248868e-01  -9.3619047e-01  -2.3664571e-01  -9.3375555e-01   1.5884504e-02   9.0110078e-01  -1.5613079e-01   6.4137950e-01   4.0260804e-01  -7.1524051e-01  -6.6562366e-01  -8.1760721e-01  -8.7412194e-01   8.8249013e-01   8.4420490e-01  -6.9703908e-01  -1.1639449e-01  -3.1954011e-01   4.7672986e-01  -4.9607872e-02  -2.6627401e-01   6.4746007e-01  -8.9707311e-01   4.7263674e-01  -4.6103444e-01   7.0556685e-01  -5.2446567e-01   9.2867024e-03  -7.6268353e-01   5.2212201e-01  -6.8594625e-01   6.6886738e-01   6.4549728e-01  -4.9944812e-01   8.8687944e-01  -6.3079284e-01   3.6172120e-01  -1.3933454e-01   6.4636236e-01  -6.1488303e-01   1.6111336e-01   8.5368373e-01   5.2830856e-02  -9.3789172e-01  -6.7246981e-02   5.8317927e-02  -4.6953630e-01   9.3113841e-02  -9.8368367e-01  -9.5105895e-01  -4.5455045e-01   4.8241965e-01   7.0859077e-01  -9.2233842e-01  -8.6234810e-01   3.9600007e-02  -3.9769485e-01  -3.9394624e-01   4.9529882e-01   7.9306335e-01   3.6951431e-01  -2.3931992e-01   6.0815193e-01   6.6581391e-01   9.3136911e-01  -8.0863208e-01  -2.0148119e-01  -8.9892817e-01  -3.5707909e-01  -6.2803882e-01  -1.9785714e-01  -1.6655355e-01   2.3499704e-01  -6.2526751e-01   6.9128339e-01  -7.5454771e-01   4.3222821e-01   7.8279955e-01   1.2706573e-01  -3.5532957e-01  -4.8213983e-01  -1.9990132e-01  -5.4829136e-01   6.8492499e-01   3.8571931e-01  -7.0524603e-01   4.8494401e-01  -5.5385779e-02   7.0176486e-01  -8.3814427e-02   3.4496819e-01   7.8527416e-01   1.1827525e-01  -2.0461051e-01   3.5706094e-01  -2.4199226e-01   9.4200912e-01  -8.3090768e-01  -5.7197050e-01  -4.6048930e-01  -9.1996260e-01   7.7946898e-01  -1.8505121e-02  -5.5104436e-01   6.5890703e-01  -2.2594000e-01   6.7208194e-01   3.1890608e-02   7.6282981e-01  -5.6957677e-01  -2.0042121e-02  -8.6929840e-01   5.5112857e-01   1.5494477e-01  -2.6101398e-01   1.1307470e-01   9.2750502e-01   4.3364571e-01   4.6293527e-01   8.9080682e-01   3.8637823e-01   4.0313762e-01   6.4390376e-01   3.9801471e-01  -7.8545352e-01   7.3900292e-01  -1.9570698e-01   8.5643241e-01   5.3228286e-02   1.7735397e-01   9.8005804e-01  -8.6836704e-02  -1.7426815e-01  -6.2883256e-01  -9.1602827e-02  -8.0347846e-01   1.0612921e-01   9.9086863e-01   1.0547449e-01   3.0395696e-01   6.3704607e-01  -8.4783603e-01   7.4217365e-01  -8.9893766e-01  -3.2157780e-01  -7.7904635e-01   3.2474153e-01  -7.9860634e-01   4.3616242e-01   8.3235111e-02   2.2040735e-01   5.9924434e-01  -1.7292062e-01   6.3253668e-01  -8.7477077e-01  -6.6483150e-01   1.9492306e-01   5.3083072e-01   3.2058971e-01   7.0785600e-02   8.7554135e-01   4.5307625e-01  -3.0839784e-01   3.0581653e-01  -8.2106279e-01   6.1762128e-01   7.8461267e-01   4.1285373e-01   2.6421320e-01   9.4383264e-02  -1.5629207e-01   5.4546469e-01   9.8674821e-01  -4.3731917e-01   8.9378255e-01   9.0093376e-01   4.8007601e-01  -1.2525980e-01  -2.1636447e-01  -8.2966072e-01  -4.7918256e-01   2.3917818e-01   7.6903457e-01  -6.3128378e-01   9.0764399e-01   8.4039618e-01  -1.8080098e-01  -3.7513912e-01  -5.7983023e-02   3.9684153e-01  -9.3761380e-01   3.3138223e-01   7.0851021e-01   4.6548328e-01  -1.9864362e-01  -2.4904027e-01   5.4508007e-01  -8.2688480e-03   5.0808774e-01  -1.1341094e-01  -3.3640107e-01   6.0556706e-01  -3.5667074e-01  -8.3297618e-02   7.5099922e-02  -6.7886589e-01  -8.6996831e-01  -1.6359850e-02  -4.0600755e-01  -6.3116709e-01   7.6877666e-01   4.0806067e-01  -4.9337602e-02  -2.0323623e-01  -1.6698809e-01   4.4216665e-01  -3.3611335e-01   4.3344351e-01   4.5634413e-01  -1.9208055e-01  -5.3609939e-01  -6.7945386e-01   5.9977431e-01   5.2460491e-01  -3.7286808e-01   1.6835637e-01  -8.6580724e-01   6.9143232e-01   9.5975364e-01   4.0820720e-01   1.2452800e-02   8.0622377e-01  -3.0387021e-01  -3.9904294e-01  -8.0470107e-02  -4.4955070e-01  -4.4965631e-01   6.7027219e-01  -2.4363498e-01   7.3214338e-01  -3.3708025e-01   1.3342458e-01   1.4127219e-01   7.2619102e-01   3.0012308e-01  -5.9497560e-01  -6.0756068e-01   2.9332282e-01   4.2094997e-01  -9.1219574e-01   3.9956351e-02   6.7080375e-01   1.4941552e-01   7.6219829e-01   5.0188092e-01  -5.9919482e-01   3.4573570e-01   3.4440753e-01   7.1349343e-01   9.3944260e-01   6.3398256e-01  -8.9835785e-01  -5.5624489e-01   6.5745974e-01  -7.1469468e-01  -3.2607504e-01  -8.7801012e-01   6.2602805e-02   8.9039374e-01  -4.6340344e-01   6.5526577e-01   7.6105219e-01   3.4476896e-01  -8.9496830e-01  -2.2722870e-01  -7.7374155e-01  -8.5918573e-01  -6.2013485e-01  -1.3380143e-01  -7.7643739e-01   4.7270576e-01   6.3171488e-01  -7.3626635e-01  -9.3995361e-01  -4.4525982e-01   1.6187853e-01  -7.1413038e-01   5.2402651e-01   7.4529707e-01   6.3056058e-01  -6.5418018e-01  -3.3219104e-01   8.7491957e-02   4.8144431e-01  -6.3323640e-01  -6.0624001e-01  -4.5494860e-01  -7.3560881e-01   1.5588701e-01  -9.0606100e-01   9.8864889e-01   4.3628727e-01   6.1327170e-01  -8.1875747e-02  -4.7790567e-01   6.1134152e-01   5.2287057e-01  -2.2969182e-01  -7.3333234e-01  -9.6206428e-01   2.4153927e-01  -9.0863995e-01   3.4077916e-01  -8.4314625e-01   4.2548882e-03   1.6108179e-01   6.6544269e-01  -5.2559031e-01   2.0933806e-01  -2.6185962e-02  -5.0318319e-01  -8.1888451e-01  -2.6424750e-01  -9.0520086e-01  -9.4669332e-01   2.6559726e-01  -7.7568040e-01   2.9772143e-01  -2.5090855e-01  -7.2709060e-01  -9.3943037e-01   6.7987336e-01  -9.5234162e-01   9.6539669e-01  -1.4608248e-01  -8.3088991e-01   2.8468791e-01   8.7236571e-01  -7.6505030e-01   6.9515709e-01   8.8071697e-01  -2.6207198e-01   9.1636672e-02   1.7562376e-01   4.9292085e-01   3.8857365e-01   1.9144191e-02  -1.1397779e-01  -6.2407118e-01  -6.0707179e-01  -2.7824444e-01   4.8661270e-01   1.7451344e-01  -2.3847324e-01  -6.6989771e-01   6.8970478e-01  -1.9907306e-01  -9.5805052e-01  -2.5326360e-01   9.1654064e-01   5.9618498e-01  -1.9097742e-03   9.4501002e-01   3.9669296e-01  -1.0295654e-02  -2.0454982e-01   6.5108106e-01   2.3052694e-01  -2.6971371e-01  -1.2918475e-01  -5.9093631e-02  -7.7504643e-01  -2.5863193e-01   7.1917433e-01   2.8110672e-01   5.6086111e-01  -5.8547341e-01  -9.8435099e-01  -7.2856902e-01   7.8684001e-01  -2.3494646e-01  -9.0486657e-01   6.1088799e-01   5.6557899e-01   5.2679015e-01   3.2485471e-03   6.2042125e-01   8.1744128e-01  -3.3880979e-02  -8.2008117e-01  -9.6548164e-01   1.0004109e-01  -7.3810893e-02  -2.4441737e-01   9.0955610e-01  -1.4956287e-01   4.6580025e-01  -9.0478884e-01  -3.8449297e-01   8.7958355e-01  -6.1202369e-03  -9.6272771e-01   6.2450574e-01   6.1719923e-01  -1.9172549e-01   8.1426880e-03  -8.7913073e-01   9.3236728e-01  -4.2851517e-01  -3.6491186e-01   2.3380565e-01  -3.9409449e-01   8.7590038e-01  -7.2484263e-01   1.1209712e-01   8.4673017e-01  -4.0044527e-01   3.6589085e-01   1.6050207e-01  -5.7478930e-01   4.7042327e-01  -6.3187415e-01  -1.7551592e-01  -8.6885885e-01
  -7.1475338e-01  -1.9598351e-01  -5.1393123e-01  -3.5156455e-01   8.7990832e-01  -9.5658524e-01  -3.9249928e-01  -9.2210911e-01   4.7598409e-01  -1.8977412e-01   5.5761907e-05   1.1112156e-02   3.0069363e-01   5.9121196e-01  -5.3691885e-01   6.9229804e-01   5.9590166e-01  -7.7274646e-01   2.4971539e-01  -8.7277221e-01   8.0625605e-01   5.1419953e-01  -3.8118754e-01   2.6901307e-01  -6.5185757e-01   9.0013380e-01   4.4167674e-01  -4.0849296e-01   4.7947992e-01   8.3916333e-01   2.8366012e-01  -9.3747238e-03   1.3802897e-01   6.0629034e-01   2.8728341e-02   2.8763493e-01   7.4972957e-01   1.7615387e-01   4.3645178e-01   4.6581155e-01  -8.2966256e-01  -1.8888509e-01  -9.3405909e-01  -2.5139797e-01   6.3976461e-01  -5.5337655e-01   8.7787040e-01  -9.9298021e-01   4.0746509e-01  -6.8451646e-01  -3.9349341e-01   6.4299497e-01  -5.8078383e-01  -7.5678240e-01   1.0750673e-01   4.7611586e-02  -8.7112796e-01   3.9418098e-01  -4.7696165e-01   8.2882145e-01   6.5254102e-01   7.0057254e-01   3.0462228e-01  -7.3678217e-01   9.2117266e-01  -2.3515495e-01   3.3286915e-02   2.8217215e-01  -5.8845035e-01  -6.8651654e-01  -2.3392104e-01  -4.6192085e-01  -9.3976293e-01  -4.1307911e-01   6.3298001e-01  -9.4606806e-01   5.8591156e-01  -6.4177879e-01   3.5107821e-01   4.9932425e-01  -6.9545648e-01   4.3492616e-01  -4.2203162e-01   1.6333248e-02  -5.5887603e-01   3.7260396e-01   7.3960077e-01  -9.0212034e-01   2.8879553e-01  -5.9337279e-01  -2.0293112e-02   1.1166289e-01   3.7657779e-01  -9.0716560e-01  -3.4231415e-01   5.0316458e-01   3.5832475e-01  -7.8934363e-01  -3.8651490e-01  -6.0968574e-01   2.8067854e-01   8.0943932e-01   5.7889837e-01   7.7802862e-01  -2.5544476e-02  -3.6787276e-01  -8.1269915e-03  -5.1366951e-02   3.2535491e-01   4.5357865e-02   4.0068053e-01   1.5392507e-01   7.6109859e-01   2.8228297e-01  -5.6245397e-01  -6.8987277e-01  -6.3619198e-03  -3.3422304e-01   4.4508430e-01  -5.8238283e-01   5.2944687e-01  -3.4761423e-01   6.5350735e-01   9.1870302e-01  -3.3341988e-01   5.3201827e-01  -4.8427022e-01   2.0267386e-03  -8.0351377e-01   8.5307452e-01  -5.7065859e-01   1.5011392e-01  -9.2487199e-01  -9.1290730e-01   7.4841960e-01   1.8114078e-01   1.6942993e-01  -8.7726451e-01  -8.2962581e-01   1.4213034e-01   4.2221299e-02  -3.7371797e-01   6.2215814e-01  -2.0043739e-01   3.7341183e-01   1.2618531e-01   6.9299068e-01  -7.1033090e-01   4.9950448e-01  -2.8994028e-01  -9.8982219e-01   9.2777771e-01   6.0836429e-01   7.7963713e-01  -8.4225569e-02  -1.1359274e-01   7.3666967e-01   1.2226884e-01   8.3310197e-01   9.2184954e-01   5.7551057e-01  -9.7719160e-01   2.0662056e-01  -2.0875277e-01   4.0791870e-01   1.2927196e-01  -7.4629707e-01   4.2155838e-01  -1.3715540e-01   8.9106045e-01   5.3788342e-01   3.3637533e-01  -6.4569409e-01  -1.0103084e-01   7.4517682e-02   3.5775517e-01   8.1244600e-01  -6.1125197e-01  -4.0011341e-01   5.2841162e-01   7.8319173e-01  -3.2893469e-01   7.1342633e-01   7.5044441e-01   7.3641321e-01  -5.2737329e-01  -8.9522045e-01  -5.9044938e-01   7.0406745e-01  -5.6274616e-01  -8.5776737e-01   8.9321095e-01  -4.3278273e-03  -4.4819532e-01   7.2328470e-01   1.0734494e-01  -4.6797641e-01   7.5328652e-01   5.0200177e-01  -3.0794263e-02  -5.1046457e-01  -9.1678879e-01  -2.5296075e-01  -2.0899227e-01   6.3342996e-01  -4.5808543e-01   2.5199243e-01   8.9871325e-01  -9.3959148e-01   9.9073941e-01  -5.0231954e-01   4.2921924e-01   1.4508923e-01   5.9992893e-02   1.6129074e-01   6.1605892e-01  -5.2173915e-01   8.1208329e-01   5.3218525e-01  -6.3800301e-01  -1.1186771e-01   4.7345511e-01  -6.3645488e-01  -7.6761168e-01  -3.1621550e-01   2.2606659e-01   3.7306215e-01  -8.0411086e-01   3.0377445e-01  -9.1232022e-01   4.2123852e-01   9.6694427e-01   1.0600047e-02  -7.0414854e-01   9.2077738e-01   9.4447634e-01   3.1299361e-01  -8.7651975e-01   9.0107865e-01   9.0046158e-01  -5.4474343e-02   3.6687941e-02   9.0758270e-01   1.2661319e-01  -2.0122948e-02   5.5574186e-01   3.3124883e-01  -3.5231057e-01  -5.6975779e-01   1.4147463e-01  -5.7284778e-01  -2.6474547e-01   8.7665242e-01  -4.9668612e-01   5.8507042e-01   5.5640365e-02   8.7125095e-01  -9.3400246e-01  -5.6999957e-01  -9.0331568e-01   6.2095643e-01  -2.8536365e-01   9.6798738e-01   6.9136746e-01  -4.1164054e-01  -8.5025429e-01   7.2107926e-01  -5.0956089e-01  -5.0271442e-01   9.9326415e-01  -7.3978737e-01  -8.0602228e-01   1.7257375e-01  -9.5198711e-02  -4.7097896e-01  -2.3811596e-01   3.2652976e-01   2.3919688e-01  -5.3515972e-01   1.1222544e-01  -7.3330350e-01   2.7236233e-01  -6.4178163e-01  -9.7732442e-01   1.9000188e-01  -2.7466733e-01  -7.0719046e-01   5.0615974e-01  -3.6421894e-01   8.7036444e-02   2.8368875e-01  -8.1813361e-01  -4.6325132e-01   4.2955310e-01  -5.6673592e-01   1.5239523e-01   5.5820372e-02   5.8452199e-01   7.4440859e-01  -9.8762940e-01  -6.4155701e-01  -4.9911858e-02   5.7851011e-01  -8.2878881e-01  -7.4629358e-01  -5.9295099e-02  -4.5972940e-01  -3.4523619e-01  -8.9075068e-01  -1.1454638e-01   4.7139267e-01   3.2297263e-01  -2.1622051e-02   9.3363443e-01  -2.8536062e-01   3.2313312e-01  -7.4684790e-01   8.1187125e-01  -1.9499787e-01   2.2833830e-01  -1.0784539e-01   6.0759594e-01  -2.9267038e-01   9.9896213e-01   7.6386436e-01  -4.7855966e-01   7.0070377e-01  -8.3252526e-01  -3.3599706e-01  -6.9569049e-01   5.3522326e-01  -3.8336012e-01   9.7864100e-01   3.9551315e-01  -4.7566291e-01   6.4397407e-01   7.3944951e-01  -3.1223757e-01   8.5987676e-01   6.1592925e-01  -9.8365185e-01   3.6262649e-01   5.4580655e-02   1.3720965e-01  -7.2782647e-01  -8.1600812e-01   8.0093796e-01  -8.5636342e-01  -3.8530702e-01   5.2983510e-01  -8.6545684e-01   9.8960916e-01  -3.7601491e-01   5.2534001e-01  -5.2938021e-01  -6.9179577e-01   2.1869014e-01   4.9021396e-01   9.9647615e-01  -5.9077188e-01   6.8247756e-01   2.1445226e-01  -4.3169725e-01  -3.8753925e-01  -4.4522764e-02  -9.0555405e-01   6.5674175e-01   2.0287678e-01   8.9877502e-01  -2.1625375e-01   8.6132144e-01  -4.0016380e-01  -8.3762993e-01   7.6829866e-01  -8.1037972e-01  -1.1577343e-01  -8.3071697e-02  -6.6556169e-01   3.6342287e-01   5.4214041e-01   2.3109506e-01   1.5124908e-01   8.0975541e-01   7.2823025e-01   2.4037786e-01   2.6352981e-01   2.8025801e-01  -6.1416962e-01   8.3176003e-01   3.7590228e-01   5.7117120e-01  -6.2678636e-01   7.4014590e-01   1.7825255e-01   2.7360063e-01   7.7087582e-01   6.2298239e-01  -6.7319237e-01  -3.8620610e-01  -1.6416813e-01  -1.5252159e-01   9.8253436e-02  -2.7850530e-01  -4.7835223e-01   3.8195703e-01  -7.1407329e-02   7.1766301e-01  -3.3763275e-01   4.2979947e-01   6.5523271e-01   7.5161584e-01   6.6176918e-01  -3.9203002e-01   6.2536470e-01  -3.8840549e-01  -9.9656222e-01   5.2417870e-01   2.4970598e-01   2.2572900e-01   7.7303404e-01   6.1486600e-01   5.4053071e-01  -2.9304320e-02   9.1750754e-02   8.5533031e-01  -2.2835162e-02  -6.7830884e-02  -3.2818233e-01   1.3292661e-01   4.4404047e-01   2.4903574e-01  -3.9194189e-01   9.4164472e-01  -6.0449623e-01   8.7312945e-01   5.8248899e-01   9.3337825e-01   9.2726479e-01  -5.8477539e-01   2.3118586e-01   3.2460324e-01   7.1761394e-01  -6.2904683e-01  -6.6542514e-01   5.0460694e-01   7.2691317e-01   1.3743817e-02  -1.0882067e-01  -8.5227973e-01  -7.9991072e-01   1.6353758e-01   3.1818030e-01  -5.1445879e-01   9.3058945e-02   4.9639204e-01  -5.6092717e-01  -4.8499376e-01   6.6856369e-01   7.1744111e-01   2.5575095e-01   6.3393175e-01   7.6641999e-01  -2.5381143e-01  -8.2849482e-01   9.3289652e-01  -4.7802083e-01  -5.5898395e-01  -8.2092631e-01   2.8297848e-01   7.9557603e-01   7.5150250e-01  -2.5225952e-01  -2.6900208e-01  -1.8738820e-01   8.4636083e-02   1.7690059e-01  -5.9950312e-02  -5.3175595e-01  -2.3875232e-01   4.4450628e-01  -7.8990480e-01   4.4305306e-01   9.8500401e-01   8.6334210e-01   1.7471818e-01  -8.1993681e-01   6.8655305e-03  -9.1500396e-01  -3.9323772e-01   2.3221556e-01   1.9613900e-01  -2.0872880e-01  -4.7409026e-01  -5.8117336e-01   9.8384360e-01  -6.1580623e-01   3.6335683e-02   7.6279797e-01  -5.9350685e-01   7.6876567e-01  -6.1598836e-01  -8.6149978e-02   9.6424761e-01   3.7523199e-01  -6.1965871e-01  -7.3282872e-01   7.1882431e-01  -2.3897310e-01  -6.4329175e-01   6.0896040e-01   5.9314803e-01   8.8412667e-01  -8.9386606e-01  -1.2287666e-01   7.7280465e-01  -2.1161021e-01  -2.0656710e-01   6.4657671e-01  -7.1768257e-01  -1.2300266e-01   6.7464624e-01  -8.9354611e-01   5.7406576e-01  -5.3797456e-01   8.5942258e-01   6.2298222e-02   3.3720675e-01  -5.7925776e-01  -5.1398417e-01   8.1162652e-01   6.6880746e-01  -5.1970716e-01  -9.3365132e-01  -7.6922895e-01  -5.1720010e-01   7.8478732e-01  -8.3141663e-01  -8.9786772e-01  -3.0865719e-01  -5.0409421e-01   4.2807539e-02  -3.9799726e-01   4.0078582e-01   5.2263532e-01   9.1703497e-01   6.4854375e-01   7.5692471e-01   7.9176180e-01   3.1535000e-01   7.8962870e-01  -1.6248633e-01  -1.1955106e-01  -9.1932927e-02  -9.4432765e-01  -5.5827442e-01  -7.2752976e-01   2.9645166e-01  -6.4062128e-01  -7.4143048e-01   6.3233894e-02  -9.8563620e-01   7.6550590e-01  -3.9197139e-01   6.0184695e-02   7.3971298e-01   3.5614375e-02  -5.2081975e-01  -1.4967373e-01  -6.0783535e-01   9.8126943e-01   7.5477949e-01   4.1797850e-01  -4.7503697e-01  -6.0957680e-01  -4.0118766e-02  -7.8875991e-01  -1.5526533e-01   4.4870032e-01  -9.7013802e-01  -9.5384254e-01  -1.1589605e-01   7.5160040e-01  -5.1030677e-01  -4.5275925e-01  -5.0938383e-01   7.2361027e-01   2.8483512e-02  -7.7614635e-01   6.2674400e-01  -2.1221148e-01   3.8289256e-01   2.9924625e-01   8.8812710e-01   2.5998335e-01   7.9441898e-01  -5.9235588e-01   6.8506974e-01  -1.1754260e-01   8.0755413e-01   6.2815992e-02   2.7411711e-02   7.3255901e-02  -4.9125648e-01  -1.9664026e-01   7.6017998e-01  -4.4387908e-01  -7.8672485e-01   9.6855002e-01   3.4647122e-01   6.3331385e-01  -5.8079691e-01   9.8955826e-01   4.6566015e-01  -2.6256310e-01  -1.9322972e-01  -9.6236486e-01  -6.7857552e-01  -4.1086247e-01   5.7889895e-02   3.9600332e-01   7.0841094e-01   5.8636536e-01   9.1153213e-01   2.7795985e-02  -3.0206093e-01  -4.5754801e-01   4.1430984e-01   3.0430330e-01  -6.2396446e-02  -5.3042515e-01   7.4909224e-01   4.8307803e-01  -2.0411372e-01  -8.1699729e-01  -5.8775783e-01   5.1940726e-02  -1.2873003e-01  -6.2950834e-01  -7.2765391e-01   2.2154090e-01   4.9161792e-01  -3.6498050e-01   5.8071503e-01   6.5714460e-01   7.0497767e-01   3.0667544e-01   4.2266585e-01   4.2140934e-01   3.0218516e-01   1.6063108e-01  -1.3355786e-02  -6.8142497e-01  -3.6514530e-01   4.4202947e-01  -5.6309735e-02   3.8442957e-01  -3.2297310e-02   3.1192737e-02  -7.2127084e-01  -6.6252279e-01   4.7488439e-01  -2.7366674e-01   7.3805314e-01   8.2864150e-01   6.5315876e-01   8.3370292e-01   4.6055911e-01  -8.2249332e-01  -1.7208626e-01   3.0596639e-02  -4.6256134e-01  -7.8137549e-05  -2.2672985e-01   5.4051651e-01   8.7525228e-02  -3.5760939e-01   2.2280489e-01   9.0550771e-02   1.1406153e-01   7.7983591e-01  -4.9612854e-02   6.6448751e-01  -2.0309973e-02  -3.3314888e-01  -8.7875738e-01   4.0691190e-01   5.4460434e-01   2.5693946e-01  -2.1382124e-01   6.2758507e-01  -5.4002984e-01   7.4128544e-01  -2.1390068e-01  -9.8395861e-01  -1.7913495e-01  -9.7795422e-01  -8.6079682e-01   6.9791679e-01  -2.3854239e-01  -6.3579918e-01  -5.1395184e-01  -2.4541192e-01  -8.0939407e-01   8.4739578e-01   5.1754708e-02  -8.9735649e-01  -6.7366366e-01  -8.8619930e-01  -4.5115815e-01   9.1616108e-01  -6.3916272e-02   8.2875359e-02  -2.7505604e-02   8.0167564e-01   4.8929612e-01   3.4668173e-01  -9.0329243e-01   6.7980969e-01  -8.6703755e-01  -4.3906183e-01  -8.0056808e-01  -8.5612283e-01   2.1140046e-01   7.2326242e-01   9.9755405e-01  -2.0490517e-01  -7.3125548e-01   8.7088243e-01  -9.4871443e-01   7.6545977e-01   1.1572373e-01  -6.3882918e-01  -7.8662225e-01  -7.0762284e-01   3.0338262e-02  -1.6116166e-03  -3.6873929e-01   9.4874864e-01   2.5185161e-01  -3.2966782e-01   1.1445057e-01   6.7892567e-01   1.6259786e-01  -3.1135780e-01   5.8647642e-01   8.5753319e-01   8.9352892e-01   6.4474988e-01   3.2510791e-01  -3.9387914e-02   6.1699944e-01  -5.1129453e-02   5.0858452e-01   5.9112711e-01   8.4254270e-01  -8.8150939e-01   9.6072560e-01   9.9253803e-01   5.3045879e-01   8.7920207e-02   9.5276542e-01  -1.8795572e-01  -8.3935953e-01   4.0964782e-02   1.2327533e-01  -7.7720545e-02   5.7313389e-01  -1.9729441e-01   2.8147281e-01   1.3675528e-01  -2.4123417e-01   9.8806279e-01  -5.7465517e-01  -8.8869558e-02   4.6415438e-01   8.8180430e-01   7.4295430e-01  -6.2191863e-01  -6.3264676e-01  -9.9476179e-01  -6.7782763e-01  -6.5330196e-01  -7.8344746e-01   2.8158713e-01  -4.7153990e-02   2.7632004e-01   9.1891775e-01   5.0663253e-02  -7.2137211e-01  -9.9701545e-02  -1.6857662e-01  -2.9487557e-01  -5.9520122e-01  -3.5060463e-01   1.3696017e-01   1.7582723e-01   1.4935536e-01   2.4401200e-01  -7.5934359e-01   1.5812823e-01  -3.8136182e-01   2.7444788e-01  -5.1524192e-01   5.1260872e-01  -5.2372907e-01  -6.0731448e-01   7.7890428e-01  -4.0282134e-01  -6.0584116e-01  -5.4938872e-01   6.4168239e-01  -7.3246303e-02   5.1610540e-01   3.3736571e-01   9.0947541e-01  -7.6181771e-01  -5.1377377e-01  -1.0368580e-02  -1.4602388e-01  -7.6478838e-01   5.3292274e-01   2.1605305e-01   7.7504385e-01   9.7196294e-01  -6.5164986e-01   5.5125030e-01  -8.2356617e-01  -1.5557165e-01   2.8531418e-02   6.4420524e-01   6.6166283e-01  -7.4792514e-02   9.2036001e-02  -1.0714486e-01   7.6536643e-01   8.0048774e-01  -2.4886957e-02  -3.1262550e-01   9.5772494e-03  -3.3939068e-01   4.4843540e-01  -9.5713470e-01   6.2585276e-01   2.9684635e-01   8.2938785e-01  -9.6081101e-01  -2.0598610e-01  -2.4051767e-01  -2.8879727e-01  -8.9168072e-01  -2.5368784e-01  -1.0699532e-02   6.1441236e-01  -3.8589358e-02   2.0686301e-01   9.4928856e-01  -7.6733367e-01  -3.6600057e-01   2.3507043e-01  -3.5699290e-01  -6.0955846e-01  -3.2438713e-01  -7.8565184e-01   5.5612199e-01  -6.2260527e-01  -3.6377752e-01   2.7468553e-01   9.9997543e-01   1.1208296e-01   8.9093661e-01  -1.1605211e-01   2.6275858e-01  -7.4995975e-01  -1.4518281e-02   2.9921644e-01   3.9698884e-01   2.5581350e-01   2.1852579e-01   1.8279611e-01  -4.7213617e-01   1.4084164e-01   6.9395305e-01  -5.5161272e-01  -3.0954023e-01   8.2269615e-01  -2.8486821e-01   3.0415478e-01   3.0880762e-01  -3.8271074e-01  -7.5259254e-01   7.8258841e-01   8.5827901e-01   3.5746524e-01  -4.5333069e-02   9.2686103e-01  -2.0798619e-02  -1.6225436e-01  -1.8798087e-01  -7.5498664e-01   6.5449838e-01   6.8770064e-01   1.1712644e-01  -7.6652295e-01   1.3700608e-01   6.0521745e-01   8.9362488e-01  -9.4848424e-01   7.3164484e-01  -4.9642502e-01  -9.4551026e-01   1.7575852e-01  -8.6027179e-01  -7.1614340e-02  -4.9530271e-01  -7.1453801e-01  -2.4826146e-01  -4.0152273e-01  -7.0677314e-01  -7.9341297e-01   8.6506678e-01  -1.3515692e-01  -2.4726937e-01   7.8351734e-01  -4.2896194e-01   2.3287473e-01  -5.2746190e-01  -1.8450614e-02   4.9798562e-01   6.0496674e-01   1.9693194e-01  -2.1485214e-02  -8.6182593e-01  -7.6181520e-01   2.0603429e-01   9.0688111e-01  -6.3342647e-02   6.0278103e-01   3.2169539e-01  -2.7098663e-01  -7.4080973e-02   5.3602108e-01   4.8883208e-01  -7.0360388e-01   7.1264952e-01  -6.7692490e-01  -9.4894250e-01  -2.0341949e-01  -7.6531935e-01  -4.5201102e-01   1.0246383e-01   6.7777605e-01   3.9422320e-01   5.1405968e-01  -8.6719731e-01   3.4638316e-01  -5.7373874e-01   7.2427467e-01  -5.2741761e-01   7.7002551e-01   1.7620600e-01  -4.2558744e-01  -4.6349788e-01   5.0444508e-01  -6.0112928e-01   8.7324874e-01  -8.4617638e-01  -6.2603240e-01  -1.2384874e-01   1.4926904e-01  -2.8781343e-01   2.7552924e-01   1.2617170e-01  -3.0579100e-01   1.1000870e-01   9.6388808e-01  -7.0580645e-01   1.7385899e-01  -7.3004640e-01   4.8658514e-01   7.8404246e-01  -9.6534606e-01   3.9570345e-01  -1.9575448e-01  -9.9892528e-01   2.0776056e-01   1.6950893e-01   5.6826645e-02  -7.2682728e-01   6.9476669e-01   9.8649924e-01   3.5918708e-01   6.1585868e-01   9.3932498e-01   7.4693119e-01   8.9845775e-03   1.8157532e-01  -4.7460313e-01   1.0992373e-01   1.6908497e-01  -8.6159484e-01
   7.2779446e-01   8.0973567e-01  -1.2590727e-02  -7.0799832e-01  -2.7233276e-01   2.4654073e-01   2.3621810e-01   4.4433613e-01  -7.7741064e-01   9.5129791e-01   2.7607199e-01   1.6813483e-01  -2.6320975e-01   7.3159826e-01  -1.5887706e-02  -9.8375089e-01  -8.4776776e-01  -8.7985291e-01   7.8644326e-01   1.3202286e-01  -7.8941618e-01   8.2311380e-01  -3.3038185e-01   1.1431636e-01   5.5523558e-01   6.4121503e-01   2.2750703e-02   4.4288148e-01   5.9082100e-01  -4.2015428e-01  -7.2711350e-02   5.3454457e-01  -3.2359967e-01  -1.8454066e-01   1.6926889e-01   6.5919972e-01   4.3383956e-01   3.8945971e-01  -6.1421416e-01  -3.8305925e-01  -9.3451337e-01   1.1521170e-01   2.1417109e-01  -3.0651267e-01  -9.7793678e-01   5.5301382e-01  -9.6503609e-01  -9.4157036e-01  -8.7929212e-01  -8.1174495e-02  -2.6128200e-01   8.0214490e-01   5.0550114e-01  -9.6033330e-01  -2.9301607e-01  -3.9622137e-01  -3.2636221e-01  -5.2661332e-01  -6.4976795e-02  -5.3729348e-01   7.2871773e-01   1.1441702e-01  -8.3116780e-01   5.1650811e-01  -3.0796012e-01   4.9170820e-01  -8.3486955e-02  -7.6200909e-01   3.5930542e-01  -5.0152575e-01   5.9965906e-01  -5.1558620e-01   7.7280055e-01  -8.6086092e-01  -1.3048241e-01   5.0782917e-01   1.5545966e-01   7.5281094e-01  -5.8186358e-01  -9.0043141e-02  -8.0845968e-01  -9.8518139e-01   3.2034550e-01   4.7609660e-01  -7.4657153e-02   7.9044983e-01   1.7797353e-01   2.1860507e-02   5.4243374e-01  -5.5713880e-01  -6.6225381e-03   6.4260438e-02  -5.8752865e-01  -5.5029620e-01  -1.4511280e-01   5.1047933e-01   8.0299915e-01  -3.7324000e-01  -2.8254460e-01  -4.2266931e-03  -3.9494939e-01  -4.6881534e-01  -7.8292837e-02  -3.3247073e-01  -1.1452811e-01   7.2002331e-01  -8.3547583e-01  -4.3920677e-01   4.1962543e-01   4.9435512e-01  -5.7985192e-02   2.1066545e-01  -3.1257554e-01   8.6020287e-01   3.4356406e-02  -6.4789099e-01  -8.7848587e-01   1.8172190e-01  -5.3469298e-01  -9.7858040e-01   7.3660698e-01  -2.4211033e-01   7.9727916e-01   1.3160376e-01   9.7254113e-01   8.5731457e-02   7.6063490e-01   1.4580921e-01  -6.5743607e-01   6.3897112e-01   4.7324642e-01   3.0605993e-01   7.9115043e-01  -7.1217049e-01   9.7142731e-01   2.4074449e-01   5.0909167e-01   1.1769678e-01  -6.6838878e-01   6.9218647e-01   4.3839482e-01   9.0810090e-01  -6.2274699e-01  -4.3803681e-01  -2.4975337e-02   9.0859527e-01  -4.9289161e-01  -6.7757529e-01  -1.2429690e-01   9.1761566e-01   5.9601668e-01  -4.4780921e-02   1.3407533e-01  -9.9219603e-01   6.9430559e-01  -2.6597114e-01   5.7889874e-01   6.6305625e-01   9.3401264e-01   7.4052729e-01  -2.0449356e-01   4.5563744e-01   7.7512392e-01  -9.7821473e-01  -3.9610110e-01  -2.3965497e-01   6.0556372e-01  -8.6241891e-01  -4.1939541e-01   1.2153135e-01   5.0182350e-01   1.9944324e-02   8.3155010e-01  -5.1124098e-01  -7.6059661e-01  -5.8414266e-01   4.2609663e-01   6.9660943e-01  -1.3536567e-01   1.5318907e-01  -3.8008977e-01   1.2592233e-01  -6.8263216e-01   8.4142309e-01  -5.1353212e-01   6.1330821e-01   8.8617601e-01  -6.4202973e-01  -8.6231863e-01   2.3909686e-01  -5.4919559e-03  -5.8624796e-01  -7.1614597e-01  -5.3018167e-01  -4.9176193e-01   2.6565373e-01  -6.3608559e-01   3.7467444e-01   7.9480514e-01  -4.4570512e-01   2.5625348e-01   7.2854122e-01   4.9120443e-01  -1.6450222e-01   2.6858038e-01   2.2260684e-01  -1.8806691e-01  -5.5662239e-03   8.8298441e-01  -6.2885741e-01   5.2255614e-01  -3.2302005e-03  -1.1849932e-01   9.6211642e-01   8.4403488e-01   9.5495807e-01  -7.6515643e-01   3.8926137e-01   7.5085819e-01  -3.5902265e-02  -4.8644670e-01   4.8339738e-01   4.0186034e-01   2.5916267e-01   4.6940341e-02  -5.6187692e-02  -8.9103474e-01   1.5952303e-01  -9.9261013e-01  -5.9822656e-01   3.2767660e-01   9.8225910e-01   8.4961500e-01   4.4500673e-01   2.1865496e-01   8.0322956e-01  -7.7798044e-02  -1.9910629e-01   9.0982020e-01   3.4318445e-01   7.9321338e-02   9.9901467e-01  -4.8140445e-01   6.2520077e-01   9.2699802e-01   4.3610374e-01   7.2568638e-01   2.8672698e-01  -7.2380656e-01  -7.9186166e-01  -3.0669753e-01  -4.7970954e-01  -4.5907230e-01   4.1499987e-01  -5.8920839e-01  -9.4751627e-01  -8.8594611e-01   5.6658225e-01  -3.5047485e-01   1.0186512e-01  -5.4620313e-01  -7.2127738e-01   5.0152658e-01   8.3453144e-01  -3.3541089e-01   3.2518197e-01  -6.7205857e-01  -2.3198486e-01   1.5737092e-02   4.6221848e-01   2.3478660e-01  -6.8341607e-01   1.7786393e-01   8.9185269e-01   5.3334455e-01  -6.7052394e-01  -7.7469934e-01  -1.1510875e-01  -1.8703592e-01   8.9045408e-01   3.8841427e-02   8.4691652e-01   6.7767316e-01  -8.9506162e-01   9.0988499e-01   8.9226019e-01   4.2860059e-01  -9.5411916e-02  -5.0672593e-01  -6.1507859e-01   9.4593759e-01  -5.1703513e-01   8.6373282e-01   3.9890490e-01  -9.0165219e-01  -4.5257564e-01   1.6427580e-01   5.4776945e-01   5.3052287e-01   4.5733433e-01   5.1329674e-01   8.1379584e-01   5.0740326e-01  -8.3941013e-01   2.8097736e-02   5.1242116e-01  -2.1901283e-01  -8.5968359e-01  -5.7238290e-01  -6.9452949e-01   2.6766557e-01  -9.7369688e-01  -5.6938789e-01   6.3028660e-01   9.6863966e-01   3.4204212e-01  -8.1964008e-01   8.4221886e-01   4.6951241e-01  -6.1691088e-01   8.2574771e-01   3.9541953e-01  -7.2472573e-01   1.9665739e-01   5.6723179e-01   5.2038927e-01  -2.2293074e-01   8.6511653e-01   8.6754543e-01   7.7839750e-01  -4.7328701e-01   1.7138250e-01  -3.3418530e-01   1.4831749e-01   9.4065330e-01   1.3059651e-01  -4.1976231e-01  -4.1932798e-01  -8.2412769e-01   9.6946935e-01   4.3878419e-01   7.6909980e-01  -4.7597261e-01   4.0701237e-01  -9.7300985e-01   4.1794428e-01  -7.6857844e-01  -6.4192229e-01   8.3020407e-01  -6.6453330e-01   7.1865191e-01  -3.1992017e-02   7.3407516e-01  -2.0453241e-01  -5.9602810e-01  -3.2041548e-01   4.3830691e-01  -1.9508956e-01  -5.8185037e-01  -1.4602424e-01   2.1440201e-01   8.1076653e-01  -6.8382702e-01   1.1438937e-01   2.4898920e-01   3.4716188e-01  -5.3964792e-01  -4.9068101e-02  -3.5339314e-01   4.6101939e-01   2.3344914e-01  -2.5693673e-01   8.3197312e-01  -8.0845872e-01   3.3099723e-02  -8.9866783e-01   9.3136549e-01  -5.8841306e-01   2.0359914e-01  -2.7895731e-01  -7.8162311e-01   3.0896067e-01   9.6093678e-01   1.6787169e-01  -5.3814910e-02   7.7773427e-01  -5.0536031e-02  -8.9402323e-01   1.8267356e-01   8.5435485e-01   1.7933039e-01   9.8820138e-01  -8.0097772e-01   4.2796961e-02  -6.6704300e-01  -6.5622250e-01   5.6956604e-01  -7.3820266e-01   4.2909872e-01  -7.3725294e-01  -3.5782423e-01   6.8311827e-01  -6.2139764e-01   6.4716323e-01  -7.1947427e-01   2.2397734e-01  -8.4698973e-01   4.2488009e-01   6.4844314e-01  -9.8103154e-02  -1.6031640e-01   7.9399094e-01  -1.7785811e-02   9.7290948e-01  -5.7414699e-01  -8.1854481e-01  -8.6468358e-01  -7.2520186e-01   5.7349744e-01  -2.4898477e-01   8.0779556e-01  -9.1784900e-01   6.1008449e-01  -3.7976939e-01   5.2684750e-01   9.8623851e-02   1.1722486e-01   5.6530324e-01   3.7060405e-01   1.1783705e-01   5.9345314e-01   1.3973399e-01  -2.4839049e-01   2.2391283e-01  -2.2698134e-01  -8.4082156e-01   5.5465808e-02  -2.0766891e-01  -4.2732328e-01  -2.4590727e-01   9.1115158e-01  -7.9599500e-01  -7.8911226e-01  -4.4350783e-02   8.1349012e-01   6.7379014e-01   5.8941836e-01   6.3981447e-01   5.5427124e-01   5.1797246e-01  -2.3930758e-01   5.7026077e-01   9.2957975e-01  -4.9074773e-01  -3.5094169e-01   1.9733261e-01   6.9117948e-01  -7.6586774e-01   6.1147193e-02  -8.2141302e-01   1.2067057e-01   4.7803395e-01  -2.2162364e-01  -5.7836384e-01   6.2825693e-01   7.4724686e-01  -2.4725317e-01   6.6015311e-01   1.9513858e-01   9.7628413e-02   2.1857426e-02   8.1856023e-01  -8.5932339e-01  -9.8804053e-01   4.3482609e-02   4.0951567e-01  -6.2835878e-01  -5.6925659e-02  -8.1835540e-01   5.4786999e-01   7.3265724e-01  -9.9591650e-02   9.5240462e-01   5.6046814e-01   2.9806005e-01  -1.9669519e-01   9.9602157e-01   2.9868121e-01  -3.2717788e-01   3.3466234e-01   6.4149748e-02  -2.9532614e-01   2.8263325e-02   1.7236218e-01   5.9628791e-01   6.3490857e-01   8.8429060e-01  -6.4010997e-01  -3.2566398e-01   8.4236650e-01   6.5002435e-01  -5.3844775e-01   6.2120495e-02   4.6805168e-01   4.8072287e-01   4.5934449e-01   8.4120538e-01  -1.1628014e-02  -8.6389944e-01   1.9295100e-01   8.8514938e-01   2.6813288e-01  -9.3854759e-01   8.3236594e-01   8.7687702e-01  -5.8293524e-02   8.5697792e-01  -3.2428205e-01   9.9192367e-01  -4.8619595e-01  -6.1810554e-01  -4.5274865e-01  -5.4106441e-01   4.7577597e-01  -8.2165455e-01  -2.1560202e-01   3.1839361e-01   6.0763358e-01   7.3187801e-01   3.4805032e-02  -2.0249894e-01  -2.8123217e-01  -4.8898722e-02   8.2336814e-01  -2.3992135e-01  -2.3235968e-01  -9.6730497e-01   5.7058424e-01   7.4281727e-01   1.3148735e-01  -3.0918540e-01  -8.6516543e-01   9.6166258e-01  -3.6856352e-01   5.1885036e-01  -5.3282826e-01  -9.5968174e-01  -7.1460297e-01  -4.6125303e-01   2.5014974e-01   9.1914683e-01   8.0478168e-01  -1.2306558e-01   5.3226947e-01  -3.2946732e-01  -5.6045570e-01   2.3324172e-01  -3.4307104e-01  -8.8566346e-01   1.0129328e-02   5.6831496e-01   3.4880012e-01  -4.2058231e-01   6.0013579e-02  -7.9930459e-01   8.4458982e-01   8.2252202e-01   6.1875387e-01   3.0094852e-02  -1.0744622e-02  -5.0435549e-01  -6.7429749e-01   5.7809658e-01   8.8748514e-02   6.2646233e-01   8.7476731e-01  -3.4864793e-01   2.2549176e-01   3.4121089e-01  -2.4141882e-01  -1.7751459e-01  -1.9065632e-01  -5.5865055e-01  -6.2390310e-02  -8.8650093e-01   6.2180087e-01   8.3777185e-01  -8.3338910e-02   8.5451027e-01  -6.3226858e-01  -4.0504671e-01  -5.9998227e-01   2.2126760e-01  -7.9059601e-01  -2.4342017e-02  -7.5903335e-01  -1.1392933e-02   9.0757650e-01  -3.0595255e-01  -5.8396331e-01  -7.1765738e-01   7.3524622e-01  -1.5289764e-01   5.8053495e-01   8.7547079e-01  -8.0842126e-01  -6.7730598e-02   5.2575479e-01   7.3918916e-01   2.0043360e-01  -5.5822847e-01  -8.9228850e-01  -4.6155824e-01  -6.8412830e-01   3.3761796e-02   8.4519344e-01   8.6074786e-01   2.9419272e-01   3.5782901e-01  -9.4796963e-01   8.7319289e-01   2.6651117e-01  -9.9675711e-01   5.2708271e-01  -1.4392965e-01  -1.4243445e-01  -2.2376617e-01  -8.6171909e-01   7.9551589e-01   1.6824333e-01   9.1655079e-01   7.0292750e-01   6.9875112e-01   7.5105905e-01  -1.2370442e-01  -5.1363663e-01  -5.5165366e-01  -9.0405090e-01  -2.6859425e-01   3.0739108e-01   9.9921403e-01  -5.9102243e-01  -2.7670498e-01  -3.8429866e-01  -6.7053705e-01   4.4390755e-01   4.1902610e-01   3.4591149e-01   4.8923422e-01  -2.1360465e-02   6.8986832e-01   5.4542284e-02  -7.9177711e-01  -5.0029834e-01   4.8137182e-01   4.5137818e-01   3.1071232e-01   8.9596756e-01  -8.0137420e-01   8.5217949e-01   7.8810870e-01   2.5936986e-01   1.1318176e-01   4.0491081e-01  -3.1161802e-01   8.2621594e-01  -3.3219219e-01   8.7543500e-01   3.5405152e-01   1.6891058e-01  -1.2587705e-01  -6.0748682e-01  -9.4041594e-01  -4.6777822e-01   1.8312729e-01   6.9611265e-01  -1.9957080e-01  -2.6980866e-01  -7.2844850e-01  -8.2791826e-01   1.3291101e-01   1.8675048e-01   8.1014686e-01   8.0684183e-01   3.9423028e-01   1.5622998e-01   8.0416052e-01  -7.8052823e-01   6.8450266e-01  -4.3040426e-01   7.4441033e-01  -1.8926956e-01   3.0146787e-02   9.5088691e-01   2.1443440e-01   9.9530742e-01  -7.8074536e-01  -7.5106674e-01   3.9587485e-01  -2.1570639e-01   3.1336941e-01  -7.2609763e-02  -4.4274838e-01   1.0357429e-01  -7.6142727e-01  -5.2225748e-01   8.5905464e-01   1.3273816e-01  -3.4570809e-01  -9.6676506e-02   3.4935519e-01  -2.7634691e-02  -4.8978477e-01   5.0299115e-01  -9.7291006e-01  -2.2159948e-01   1.6572322e-01  -3.8393741e-01   1.8504322e-01  -9.6183980e-01  -8.6570112e-01  -6.8777595e-02   9.6298131e-01  -5.4478653e-01  -7.3975684e-01   4.8631166e-01   1.8591171e-01  -2.1891665e-01  -9.3038903e-01  -8.8406943e-01  -2.7146896e-01   4.0322062e-02   8.9761370e-01  -1.4178475e-02  -2.3175017e-01   8.2065765e-01   4.3504472e-01   9.9418975e-01   9.4538048e-01  -8.4590731e-01   9.6838729e-01  -1.6683812e-01  -6.4130823e-01   4.1188794e-01  -9.5098192e-01   3.0716762e-01  -3.6029462e-01  -6.8846926e-01  -6.4695830e-01  -8.8751178e-02  -1.3927810e-01   8.4783448e-01   9.1988880e-02   7.0670086e-02   7.0245370e-01  -1.3088099e-01   6.4564338e-02  -5.4344447e-01   1.1411133e-02  -1.7057545e-01  -7.4099848e-01   5.8647356e-01   4.2539357e-01   3.2584343e-01  -7.5732401e-01  -7.6881788e-01   9.2528195e-01   5.7485081e-01  -3.6359534e-01  -3.7682094e-01  -4.9146797e-01  -2.0670950e-01  -8.0294630e-01  -4.6836813e-01   5.6230405e-02  -9.6210340e-01   9.2205148e-01  -5.3199805e-01   2.9224792e-01  -1.1805858e-01  -9.3663882e-01  -2.1799052e-01  -5.6867136e-01   8.2713842e-01   4.3168158e-01   1.9713879e-01   4.1025266e-01   4.6776116e-01  -3.1419034e-01   3.0796986e-01  -6.1538414e-01   2.2733560e-01   6.0133322e-02   7.2202025e-02   9.7940781e-01   2.5458201e-01   4.8738442e-01  -3.8607297e-01  -5.6345683e-01   5.9794723e-01  -7.6640475e-01  -9.8779561e-01  -3.5682799e-03  -8.3792665e-01  -8.8091111e-01  -4.0531817e-01  -8.7517076e-01  -9.2107498e-01   3.1139883e-01  -4.3666866e-01  -4.8544671e-01  -3.8073571e-01   2.9882585e-01  -5.9103266e-01  -4.5969381e-01   4.2569413e-01   7.4132220e-01  -6.0781973e-01  -2.4458490e-01  -9.6315135e-01   1.3905027e-01  -5.6298594e-01  -8.2996505e-01  -3.5828461e-01   3.3871874e-01   9.5887584e-01   4.1218259e-01   4.0228657e-01  -8.7929969e-01  -1.3849959e-01  -2.3564540e-01   8.0993304e-01   1.0442639e-01   8.7322512e-01   8.8411803e-01  -4.3885399e-01   7.1675651e-01  -2.5088226e-01   2.3790604e-01   8.0304024e-01  -9.6233833e-01  -6.5045440e-01  -2.1557172e-01  -1.2164901e-01   8.4611492e-01  -2.1337164e-01  -3.5322377e-01   3.9303742e-01   4.8855259e-01  -4.7874136e-02  -4.0308511e-01   3.7238850e-01  -5.9611159e-01   5.5306034e-01   8.9531135e-01  -6.6407364e-01   1.9885599e-01   2.7309972e-01   5.1297958e-01  -7.7994964e-01   4.8612152e-01   8.4758642e-01  -2.3275112e-01  -1.0095212e-01  -1.5461938e-01  -3.6110128e-01   7.4479676e-01   8.8713197e-01  -1.7128555e-01   5.4389700e-01   5.1034299e-01   2.1004813e-01   2.9362041e-01  -7.5362822e-01   7.8508353e-01   3.2240034e-01   2.3557944e-01   7.0614182e-01   6.1362962e-01  -6.3200873e-01  -8.2257914e-01   6.5461733e-01  -5.1476628e-01  -7.9983612e-01   8.3097616e-01  -7.9109626e-01  -5.9128760e-01  -1.0192547e-01  -5.1983583e-01   9.5125559e-01   5.0851086e-01  -4.9969424e-01  -2.2723255e-02   3.0814839e-01   3.7486146e-01  -7.2932391e-01   2.2275018e-01  -4.7922558e-01   6.0268039e-01   7.7676495e-04   1.5307700e-01  -5.2055166e-01  -3.7233399e-01  -7.3988681e-01  -5.1037892e-01  -7.5386520e-01   6.4395115e-01   5.4275581e-01   1.2474042e-01  -4.2519962e-01  -3.2002981e-02  -2.9195825e-01   6.9280194e-01   6.0644488e-01   9.7065396e-01  -8.4459314e-01  -2.5674011e-01  -8.9493358e-01  -9.5670044e-01   6.3263822e-01   3.0393285e-01  -9.6657013e-01   6.9066040e-01   1.8264822e-01  -2.2646959e-01  -1.7672586e-01  -3.3532371e-01   7.7610929e-01   4.9724331e-01   5.4385434e-01   4.8271824e-01   6.8966932e-01  -7.9483953e-01  -3.9592529e-01  -2.3992296e-01   9.0250779e-01  -7.3015748e-01   4.4060346e-01  -2.0785524e-01  -2.0787927e-01  -3.6760791e-01  -7.5804113e-01   8.5974072e-01   9.0583319e-01   9.3431546e-01   5.4588967e-01   3.8430909e-01   7.0351005e-01  -1.3262957e-01  -9.1577555e-02   2.9534451e-01   9.3495265e-01  -7.3440058e-01  -3.3415902e-01   3.3155776e-01  -5.9724174e-01   1.9569498e-01   9.7113794e-01  -5.6009175e-01  -2.8097752e-01   4.8094195e-01   6.6179067e-01   5.4303732e-01   9.4068114e-01  -1.9697618e-01   7.9031800e-01  -4.7226255e-01  -2.7587440e-01  -3.1698223e-02  -8.7225688e-01   1.3579115e-01   8.2281242e-01   8.3408982e-01   3.7423597e-01   5.5945924e-01  -8.2995964e-01  -9.4845493e-01  -1.2069005e-01  -2.9480719e-01  -8.0495897e-01   3.9649642e-01   6.7168289e-01  -9.4740907e-01   9.1610595e-01  -6.0517625e-01   2.6433597e-01   4.9705488e-03   4.4349287e-01  -8.3927864e-01  -7.2671984e-01   5.2191700e-01  -9.1483897e-01  -7.6764108e-04   3.7878802e-02  -3.3962151e-01   2.0660701e-02  -9.1528790e-01   1.1987109e-02  -8.2925466e-01  -6.5636401e-01
  -3.4944422e-01   6.2982765e-01   9.1493455e-01  -9.5735014e-01  -7.9201970e-01   8.8432354e-01   8.8465676e-01   8.1490542e-01   5.5304972e-01   8.0163033e-01   8.0252810e-01   9.4942017e-01   1.7652404e-01  -6.7399554e-01  -9.1881379e-01  -8.9328351e-01  -5.8003177e-01   2.7717548e-01   6.0549322e-01  -5.6810436e-02   9.0353202e-01  -1.9689032e-01   5.0656265e-01   8.7471344e-01  -6.7317542e-01   5.8322261e-01  -9.0106647e-01   7.9970790e-01  -3.6902292e-01   8.9540009e-02  -6.5853206e-01   3.0281528e-01  -1.2045395e-01   8.5561835e-01  -2.4451800e-01   3.7534554e-01   7.2208245e-01   7.0023225e-01  -6.5752327e-01   3.9852578e-01   8.1197670e-01  -6.9407710e-01   9.3728277e-01   4.3854453e-01  -2.0472307e-01   3.4545777e-01   3.5551168e-01  -9.2565395e-01   3.3220475e-01  -2.0175376e-01   4.0232412e-01  -7.5490545e-01  -7.8889585e-01   2.7009027e-01   6.0425395e-01   2.2569826e-01   2.2142944e-01  -7.1102629e-01  -5.5110239e-01  -6.7674259e-02   8.8468083e-01  -7.1202562e-01   2.9265400e-01   5.3148962e-01   5.9770846e-01  -9.0160138e-01   6.9704521e-01   3.9336269e-01  -5.4832862e-01  -7.0227093e-01   2.6368169e-01   9.1796819e-01   1.8382014e-01  -2.1463008e-01  -7.9624449e-01  -1.1997304e-01   2.5221241e-01  -3.9721985e-01  -4.9972471e-01  -3.6678517e-01   1.0959479e-01  -6.6177889e-02  -1.0643012e-01   5.9475594e-01  -2.1485383e-01  -9.1241459e-01  -8.6669470e-01   4.8922974e-01  -7.9679486e-01   5.3427741e-01  -2.1929363e-01   5.4913483e-01  -6.9341586e-01  -3.2903054e-01  -1.0329670e-01  -1.3186108e-02   5.0954615e-02   5.5246770e-01  -7.7065658e-01  -1.3969692e-01  -4.9146599e-01   2.6772705e-01  -6.9635572e-01   2.6515464e-01   3.3316300e-01   5.5295607e-01  -6.4936459e-01  -6.0401034e-02   4.7643278e-01   3.8442405e-01   6.2710558e-01  -5.3772335e-01  -4.7240402e-01  -2.1182559e-01  -3.7060423e-01  -6.4094041e-02  -2.5790276e-01  -2.5516411e-01  -7.8498483e-01  -8.1216637e-01  -5.8577098e-01   8.8239360e-01   3.0927605e-01   4.7170989e-01   7.8677893e-01  -6.7620054e-02  -1.2376533e-01   5.1095799e-01   4.0751045e-01  -7.4725388e-01  -9.3620938e-01  -1.1747942e-01  -8.5353488e-01   9.2622163e-01   6.2956231e-01  -5.4527697e-01  -5.4610491e-01   2.2590844e-01   1.6566533e-01   3.4421205e-01  -9.7471060e-02  -7.7631043e-01  -7.1263464e-01   3.3728533e-01   4.4245556e-01   1.7409699e-01  -3.1319832e-01   7.0712337e-01   1.4090374e-01  -8.1243368e-01  -6.7007597e-01   6.2868962e-01   6.7994382e-01   8.8445770e-01   7.2641103e-01  -4.0866491e-01   1.3624063e-01  -6.8660930e-01  -3.4190932e-01   6.4769207e-01   7.2653288e-01  -3.8133946e-02  -1.3261251e-01  -3.8375479e-01   2.8547950e-01  -7.7643961e-01  -4.4700408e-01  -8.3942262e-02  -6.3261390e-01   5.2643898e-01   8.8619971e-01  -6.7644752e-01  -3.7011322e-01  -9.0747452e-01  -4.0602927e-01   4.0399454e-01   7.1829430e-01   7.2774690e-01   5.8756075e-01  -4.5265282e-01   8.7219446e-02  -2.0766522e-01  -6.9768614e-01  -4.7744364e-01   2.4934547e-01  -1.9674444e-01  -7.0130916e-01   3.2417218e-01  -3.4641720e-01  -6.8251195e-01  -3.3570747e-01   9.6016498e-01  -8.3668715e-01   9.0136108e-01   6.5618954e-01   2.0041776e-01   4.2231639e-01   6.0210333e-01   1.7661318e-01   9.2804616e-01  -2.8769315e-01   4.1798317e-01   4.4256983e-01   5.5598946e-01   4.7917413e-01   5.4642005e-01  -6.8331483e-01   2.8129138e-01   3.0548135e-01  -8.6866896e-01   2.5740835e-01  -9.2623378e-01  -9.7723532e-01   5.7507030e-01   8.9286048e-01   3.9512818e-01  -7.3155624e-01   3.6900657e-01  -8.4949945e-01  -2.3643579e-02  -6.3940494e-01  -5.1195872e-01   8.1599932e-01   2.2384800e-02   6.1841152e-01   7.9880249e-02   1.0004387e-01  -3.7768249e-01  -4.8254131e-01  -9.3790622e-01  -9.3464942e-01   3.9066877e-01   6.1299679e-01   9.0860440e-01   1.3346846e-01  -3.2282593e-01   5.1625602e-01  -3.3341082e-02  -7.1526548e-01   5.8731195e-01   8.5255936e-01  -4.3608077e-01   4.2976968e-01  -5.7530053e-01  -7.2687957e-02   1.4472746e-01   5.9328944e-02  -7.7251809e-01  -7.9317829e-01   2.3519823e-02   1.3744278e-01   8.5901021e-01  -7.8966881e-01  -2.0887303e-01  -2.1234042e-01  -4.3586611e-01  -6.7639673e-01  -4.3339414e-02   3.2858866e-01  -8.5699175e-01   8.6999154e-02  -9.1515329e-01   9.0778058e-01   5.0249632e-01  -8.3111382e-02  -5.5111198e-01   6.5583551e-01   5.2220247e-01   7.6698827e-01  -6.2863844e-01   6.5132617e-01  -6.3492551e-01  -7.7544088e-01   8.0055463e-01   2.6539288e-01   5.0174592e-01  -2.4961805e-01  -8.5147114e-01  -2.7870925e-01  -5.3590956e-01  -3.3141387e-01  -5.0666261e-01  -8.3580259e-01  -4.8325516e-01   2.0841173e-01  -8.6919061e-01  -1.5315193e-01   1.0849820e-01  -4.9900301e-01  -2.4063740e-03   9.7738103e-01  -6.1841763e-01   3.9244060e-01   3.7951385e-01  -4.2483422e-01  -8.1395579e-02  -7.9610828e-01  -3.6273113e-01   5.8539388e-01   1.4270093e-01   5.9221357e-01  -4.7262362e-01   4.3780515e-01  -3.6903368e-01  -2.3559244e-01   7.2716609e-02   4.2606162e-01  -6.1861288e-01   1.7150103e-01   6.2920650e-01   7.6862891e-01   7.6179932e-01   2.9990660e-01   1.3222312e-01   7.9327142e-01   9.4537327e-01   7.9468555e-01  -9.0292873e-01   3.3633124e-01   6.7246876e-01  -9.7150670e-01   5.2537461e-01   5.9242015e-01  -2.5932101e-01  -3.5014721e-01   9.2645885e-01  -1.4386236e-01   6.7573482e-01   7.6445981e-01  -8.3697626e-01   4.1625469e-02   6.0094783e-01   2.9513808e-01  -4.3949889e-01   9.6633581e-01   4.7221875e-01  -8.0163892e-01   9.8844577e-01   6.8915854e-01   2.0857765e-01  -1.2615594e-01  -9.3187087e-01   9.0294052e-01   8.9258696e-02   3.7248672e-01  -5.6834396e-01   8.0683770e-01   9.3686976e-01   6.3927364e-01   6.9756882e-01  -1.0866486e-01  -2.1560275e-01   5.5805717e-02  -4.6460492e-01   1.7875243e-01   8.4718886e-02  -5.5281902e-01   2.9865451e-01   6.8592412e-01  -8.0562705e-01  -6.8109345e-01  -2.5633556e-01  -9.9102662e-01  -3.3894600e-01  -8.0101666e-01   3.9429158e-01  -5.6252048e-01  -3.1020154e-01  -2.4484427e-01   8.4069758e-01  -7.3407092e-01  -9.4426514e-01   8.4947671e-01  -7.6012329e-01   7.0851947e-01   6.9857524e-01   9.6896893e-01   2.9022418e-02   7.1857043e-01  -9.7926260e-01  -6.7145054e-01  -6.6447951e-01  -5.4508338e-01   4.5400441e-01   9.0077341e-01  -2.7185328e-01  -2.9064461e-01  -1.5386591e-01   5.5835877e-01  -3.0835602e-01   4.6942221e-02   9.6261124e-02  -9.8556585e-01  -7.1894920e-01  -3.7519298e-01  -3.9444753e-01   4.7727057e-02  -8.4516317e-02   1.4181701e-01  -3.5508209e-01  -6.4651302e-01   7.1232727e-01  -6.5464960e-01  -2.5419364e-01   1.3704516e-01   2.2291298e-01  -9.5920440e-01  -6.8039553e-01  -6.3595708e-01   2.4722817e-02   4.9408211e-01   1.4906521e-01   1.1475261e-01   9.4493640e-01   4.8084095e-01   8.9873431e-01  -3.1628276e-01  -3.1382882e-01   3.1284270e-01   4.8067096e-01   2.5868145e-01   2.8558477e-01   8.4312682e-01  -6.2389326e-01   4.8692361e-02  -9.8653515e-01   3.1290781e-01   8.2895823e-01   5.1478179e-01  -9.7942200e-01   8.1557343e-01  -1.0871906e-01  -3.9188876e-01  -1.2255299e-01  -5.8883314e-01   8.8251536e-01   5.5966450e-03  -1.9081375e-01  -7.7688270e-01   7.7694819e-01  -5.8893601e-01  -1.0045081e-01  -6.6390563e-01   3.3869833e-01   3.5727568e-01  -3.4858476e-01   9.7088324e-01  -5.4100984e-01  -4.4804006e-01   5.4788181e-01   7.1719063e-01   6.5087068e-01   3.8021082e-01  -5.5007145e-01  -1.6499213e-01   5.6338129e-02  -5.2717882e-01   9.4948954e-01  -9.7165847e-01  -5.5864970e-02   6.0811592e-01   6.9360048e-01  -5.7957845e-01  -2.7357331e-01  -6.3257263e-01  -3.6723819e-02  -6.0629637e-01   9.6702925e-01  -5.0965889e-01   2.7207152e-01  -7.4533463e-01  -5.6201680e-01  -8.7722397e-01   4.0305863e-01  -4.6960825e-01   1.6851834e-01   7.1097531e-01  -9.7341343e-01  -6.1768024e-01  -6.2015832e-01  -2.5975393e-01   5.8963259e-01  -6.9756112e-01   3.8835185e-01   6.3480201e-01   8.3387605e-01  -4.2466835e-01   7.9300749e-01  -2.2297068e-01  -4.5022856e-01  -2.4632669e-01  -6.2003556e-02   3.9684978e-01   4.4750046e-01   2.6067765e-02   8.4469192e-01   6.6199391e-01   9.7205652e-01  -5.6880595e-01   3.6830224e-01   4.9461651e-01  -7.4505788e-01  -2.1247724e-01  -2.4924702e-01   7.3971711e-01   7.8395587e-01  -3.5993242e-01   1.5392108e-01  -6.1395878e-02  -1.6961702e-01   8.2385263e-01   8.1443184e-01  -4.8278330e-01   5.7561570e-02   1.7056261e-01   9.1697147e-01   1.1745325e-01  -8.6628495e-01  -3.6237026e-01  -5.7991396e-01   3.3127429e-01   5.1618305e-02  -6.4253353e-02  -2.9597177e-02   5.8959932e-01   7.6640762e-01  -4.8833196e-01   8.9437760e-01  -3.3740677e-01   6.9656072e-02  -1.5764254e-01   7.3758662e-01   5.9443662e-01  -2.9989806e-01  -2.8032095e-01  -4.6908073e-01  -7.3496640e-01   2.7134375e-01  -2.0121563e-01  -4.0755610e-01  -5.9772634e-01  -9.2248098e-01   9.8070219e-01   2.4421106e-01  -5.3308400e-01  -4.0186147e-01  -6.5286399e-01   5.2694600e-01  -3.0676599e-01   7.9173480e-01   6.6298037e-01   1.1637899e-02   1.1621198e-01   7.3135179e-02  -3.2895873e-01   1.5358571e-01   8.0872335e-01   9.6317950e-01   3.6661345e-01  -4.7253929e-01   9.0772141e-01   7.6681115e-01   2.4209886e-01  -4.8609708e-01   2.3160252e-01   8.7022192e-01   3.0724935e-01   7.5139734e-01  -1.5595380e-01  -1.2607886e-01   2.3614159e-01   4.3388899e-01   8.3646726e-01   9.9418342e-01   2.2126319e-01   4.9439681e-01   3.1387765e-02  -3.9419205e-01   6.9234072e-03  -9.3447957e-01   3.5737288e-01   2.9568774e-01   7.9171555e-01   9.7880006e-01  -4.8479123e-01  -4.2107582e-01   4.0424063e-01   3.0321450e-01   4.5810982e-01   5.0934399e-01   6.8591943e-01  -5.9175339e-02  -7.1691862e-01   1.6887556e-01   2.6098139e-01  -8.2563433e-01  -6.7761654e-01  -4.7162388e-01   5.9983667e-01   4.9980135e-01   7.7589070e-01  -2.7810347e-01  -6.0735576e-02  -2.8943132e-01  -6.2390610e-01  -5.5887921e-01   9.1314838e-01  -1.3522313e-02   2.2973968e-01   3.1666760e-02  -5.9688638e-01   7.9007707e-01   5.5204382e-01   8.2564151e-02   2.9566109e-01  -2.6055826e-01   4.1529065e-01   2.0583393e-02   5.6404961e-01   4.8799087e-01  -5.2728283e-01   7.3547819e-02  -1.9205023e-01   4.0470641e-02  -6.1768301e-02  -9.2139672e-01   1.5330995e-01  -6.9882980e-01   9.2650143e-01  -4.0634947e-01  -1.3226038e-01  -2.1614146e-01   8.3957789e-01   9.2984142e-01  -6.5450754e-01   3.4961621e-02   7.9371062e-01   1.7587304e-01  -5.6992087e-02   5.1693386e-01   3.7464333e-01  -6.5068706e-01  -2.3285448e-01  -8.3853081e-01   4.9808135e-01   4.6826147e-01   6.8869538e-01  -4.1739727e-01   6.2487028e-01   2.5273183e-01  -4.9034462e-01   7.3204475e-01  -2.7192649e-02   7.3313758e-01  -1.7952786e-02  -8.1694564e-01   8.3382002e-01   3.1446265e-01  -1.6799492e-01   7.8892243e-01  -6.5401436e-01  -8.6195464e-01   3.7492249e-01   8.6461431e-01   1.8974537e-01  -6.9387516e-01  -3.8667721e-01   2.4525138e-02   7.8128281e-01   7.2859967e-01  -5.3942783e-01  -8.0938268e-01   5.1804020e-01   9.6407990e-01  -4.2858985e-01  -2.0774574e-01  -1.7935569e-01  -4.6010823e-01   7.1225301e-03   5.8243280e-01  -5.0197899e-01  -9.7550340e-02   9.7670890e-02   2.4386168e-01  -2.4756497e-02   5.0630935e-01   3.1076390e-02   6.0537371e-01  -4.2331904e-01  -8.3441478e-01   4.6101815e-01  -2.9945872e-01  -6.3441007e-01  -5.9900507e-01  -8.2311199e-01   1.3320009e-01  -1.2142631e-01   3.9350239e-01  -9.9306998e-01  -8.2497574e-01   3.4783957e-01   3.8836309e-01  -6.7880044e-01   3.2366080e-01  -5.0784368e-01  -5.1623077e-01   2.3453024e-01   4.4533890e-01  -6.2412477e-01   4.4360623e-01  -1.8887908e-01  -2.6713092e-01   8.7914966e-01  -6.2284111e-01  -8.4033809e-01   8.3538459e-01   3.5279472e-01  -9.1273256e-01  -6.1126753e-01   2.6563317e-01  -7.4635429e-01   7.1487224e-02   8.0364005e-01   9.3981157e-01  -8.8939755e-01  -3.7000654e-01   7.0759200e-01  -6.2794722e-01   9.7847118e-01   5.8040799e-01  -7.8621122e-01   5.6218008e-01  -8.4613392e-01  -4.8522557e-01   1.8307271e-02   2.1392877e-02   4.0021666e-01   8.9298921e-01  -8.0396957e-01   2.8768573e-01   6.2465161e-01  -6.1189965e-01   1.5342061e-01  -5.3914781e-01   4.3466728e-01  -7.1952840e-01   8.5258007e-01   2.7791932e-02   8.9605967e-01  -1.0903605e-01   7.5417808e-01  -3.4114136e-01  -5.5492883e-01   2.9572013e-01   2.9019141e-01   1.0817092e-01  -3.7534409e-01   1.1516934e-02  -8.3122356e-01   4.0680255e-01  -4.2625341e-01   7.5412048e-01   1.6276236e-01   1.7109139e-01   5.6422618e-02   8.6857241e-01  -2.2223542e-01   7.3921728e-02  -2.3271348e-01   5.7673128e-01  -4.3762745e-01  -1.9496840e-01   6.4741298e-01   8.6116970e-01   1.9494645e-01  -5.0759963e-01   2.7809795e-01   5.3072174e-01   2.4816702e-01   7.4155568e-02   6.8213720e-01  -8.0243395e-01   2.9919857e-01  -2.0325735e-01   9.8531338e-01  -3.9505615e-01  -1.5983785e-01   2.5395255e-01  -4.8582338e-01  -2.6065700e-01  -9.6984796e-01   4.9081072e-02  -7.5553650e-01  -4.9062722e-02  -1.5817992e-01   6.6697543e-02  -2.1848185e-01  -3.6400079e-01  -9.9320928e-01  -8.0306302e-01  -8.6276372e-01   4.9533025e-01   2.1316219e-01   5.5636635e-01   3.2226614e-02  -4.7589606e-01  -9.3373781e-01   3.5920775e-01   6.8973044e-01  -9.4751537e-01  -8.6621341e-01  -5.6668974e-03   2.4332150e-02  -2.0167769e-01  -8.3328206e-01  -7.7160051e-01   3.7311138e-01   8.2873193e-01   4.8404144e-01  -2.6793135e-02   6.0023241e-01  -7.0018160e-01  -6.3870158e-01  -6.4743418e-01  -2.5138557e-01  -8.5975206e-01  -9.0709115e-01   7.3063931e-01  -1.3648467e-01   2.0304582e-01  -4.4091386e-01  -1.1722336e-01   3.2827226e-01  -2.2448415e-02  -1.2004691e-01  -8.2893884e-02  -7.8745414e-01   3.2649340e-01  -6.4597600e-01  -9.2051113e-01  -4.1638317e-01   9.6118932e-02   7.3151491e-01   2.1760623e-01  -3.2809592e-01  -5.9223734e-01  -3.7760987e-01   8.4439178e-01  -5.4213159e-01  -8.3118918e-01   2.2200150e-01   1.0120136e-01   9.1743499e-01  -5.8556812e-01  -9.8650204e-01  -9.5165433e-01  -6.0805571e-02   9.9514372e-01   6.3192988e-01  -2.4402107e-01  -9.0829207e-01  -1.3514023e-01  -4.6093150e-01   4.0122708e-01  -8.5220964e-01  -5.5449845e-01   2.3399830e-01   4.4714308e-01  -1.9611169e-01  -2.9397771e-01  -5.9155585e-01  -6.3238263e-01  -7.4481532e-01  -5.6233407e-01  -6.3954764e-01   8.5204148e-01   5.0987585e-01  -6.4432303e-01  -4.5540203e-01  -6.7585850e-01   9.9726522e-01   2.6096751e-01  -1.3496686e-01   3.5951797e-01   3.0611445e-01   3.3922136e-01  -6.9109833e-01   4.0334153e-01   3.7178979e-01  -8.7449731e-01   2.0409189e-01   8.1309889e-01   7.9958788e-01  -3.2053105e-01   3.9905191e-01  -8.6674780e-01   1.5498923e-01  -1.7670662e-01  -4.9517425e-01   1.1681386e-01  -9.9395091e-01   3.7050039e-01   1.7722211e-02   8.4914803e-01  -1.7084274e-01   4.9900514e-01  -7.6086759e-01   7.9951805e-01   8.8590088e-02  -1.1228582e-01  -5.7283231e-01   3.1693781e-01   9.2346056e-02   4.4908312e-02  -9.3994933e-01   7.8649497e-01   6.6836428e-01  -7.0053552e-02   7.1521049e-01   6.6511545e-01   4.6585353e-01   7.2488725e-01   4.2957392e-01   6.1198799e-01   7.6890029e-01  -5.9392169e-01  -9.2090415e-01   3.7325420e-01  -7.9702875e-01   7.4824319e-01  -5.5558960e-01  -1.7610303e-01   2.2539965e-01   7.0890562e-01   2.5101133e-01   3.6652702e-01   3.0363695e-01  -1.4677570e-01   5.1663984e-01  -8.2867527e-01   9.4112626e-01  -3.5817434e-01   1.9477488e-01  -1.1833354e-02  -2.9687543e-01  -8.7905467e-01  -5.3732615e-01   8.4463405e-01   2.0245819e-01  -9.9080602e-01   1.8232941e-01   6.8557063e-01  -6.4483212e-01   7.3787257e-01  -6.3084151e-02  -4.5962155e-03  -4.6373070e-01   3.2649212e-01   9.0540364e-01   9.4044842e-01  -7.0014120e-01  -5.9639289e-01  -2.7902714e-01  -6.8377298e-01  -7.8584187e-01  -6.0572872e-01   7.0016909e-01  -4.4826459e-01  -2.0178547e-01  -8.3341204e-01  -1.3699274e-01   5.6723515e-01   7.1342278e-01   9.4777760e-01   3.2384954e-01   5.6642532e-01  -9.8339926e-01   5.4967177e-01   4.5213030e-01   1.8088686e-01  -9.7738626e-01  -5.9762543e-01  -1.1163879e-01   6.6024462e-01   4.5848054e-01  -5.4425716e-01  -1.7562629e-02   3.0368342e-01   7.6111909e-01  -5.5930338e-01   7.2933881e-01  -9.7646577e-01  -5.1744321e-01   3.0835337e-01   6.5491935e-01   9.6798239e-01   4.3585882e-01   3.1516587e-02   6.8763960e-01  -5.0913943e-01
  -7.3641253e-01   7.5865025e-01   7.5875121e-01   9.0238850e-02  -8.5964821e-02   9.5119147e-01   2.8046509e-01   8.4093198e-01  -3.4243815e-01  -9.5162101e-01   8.0355321e-01   2.0825408e-01   1.1219977e-01   5.1579854e-01   3.4871836e-01  -9.2827421e-01   7.9598159e-01  -3.1035945e-01  -9.7876024e-01  -4.5949933e-01  -1.9579145e-01  -2.1924540e-01   2.9453552e-01   3.6394203e-01  -6.9162449e-01   4.4136033e-02  -1.6934707e-01   6.3562638e-01   4.6122150e-01  -2.1080290e-01   9.1612243e-01  -6.7148494e-01  -1.5314272e-01   2.5935804e-01   8.1196160e-01  -6.2376936e-01  -4.1873410e-01   3.3011488e-01   2.4274255e-01   1.6669362e-01  -4.1057226e-01  -3.6218308e-01   7.6338071e-01  -5.4971313e-01   7.9793252e-01  -9.8205721e-02  -1.3171191e-01   3.6610496e-01  -7.4377315e-01  -9.4577204e-01   1.3436690e-01  -8.9337856e-01  -5.0336289e-01   1.0605043e-01  -9.1537785e-02   8.4204457e-01  -2.2777020e-01   7.1073235e-02  -4.4197788e-02  -7.0516069e-01   4.5992878e-01   7.5623502e-01   1.1254428e-01  -2.6199439e-01   1.9000488e-02  -6.2511269e-01   3.3771246e-01  -2.2200542e-01   7.4424390e-01   7.1788377e-01   1.5696708e-01   6.2958349e-01   8.5042219e-01  -5.4767683e-01   1.4392097e-01  -6.2228425e-01  -4.5853532e-01   2.2400992e-01  -2.8480056e-01  -5.3656941e-01   1.2090924e-01  -4.2451802e-01   2.2589353e-02  -6.3436079e-01  -5.7696811e-01  -4.9657606e-01   2.3994959e-01   3.8624973e-02  -9.3690320e-01   4.0081538e-01  -6.1833683e-01   6.7796127e-02  -4.5674150e-01  -7.4167524e-01  -9.7834527e-01  -8.4192998e-01  -2.3117858e-01  -1.3926381e-01  -1.8702875e-01  -3.5026709e-01   3.3528903e-01   4.3235147e-01   7.9911509e-01  -3.9861322e-01  -7.2422240e-01  -4.7626252e-01   5.3801112e-01   6.0348681e-01  -7.3603405e-01   1.1314961e-01   6.5082438e-01  -4.8489175e-01  -4.0743910e-01   1.6884732e-01  -4.1481275e-01  -2.7062138e-01  -7.2078879e-02  -1.2837800e-01   9.7517968e-01   4.0212062e-01   4.1177730e-01   7.4633373e-01  -6.4943885e-01   6.2103342e-01   6.5669024e-01  -4.5693195e-02  -2.3320577e-01  -9.4797109e-01   7.9941929e-01  -9.7940422e-01   3.7727992e-01   4.7895140e-01  -6.7142367e-01  -4.1549536e-01   3.9004954e-01  -1.2439739e-01   8.4697774e-01  -8.3096442e-02   3.1087585e-01  -8.9743072e-01   4.5685698e-01  -3.0036178e-01   8.6593725e-01  -6.5693490e-01   6.1247031e-01   5.0479431e-01  -3.3105242e-01   1.3124244e-01   9.7214489e-01   3.9067103e-01   3.0777734e-01  -6.2414237e-01  -7.9211896e-01   7.8375623e-01   8.5196493e-01   8.7485383e-01  -8.7527788e-01   3.4992451e-01  -4.6276816e-01  -9.7254382e-02  -4.3955632e-01   5.1959479e-01   1.2778396e-01   2.2619455e-01  -9.4080785e-01  -3.3789436e-01   5.6330240e-01   8.1382426e-01   2.1486451e-01  -4.5568286e-01   3.5402555e-01  -4.8783363e-01  -6.2910815e-01  -3.5436840e-01  -8.4848020e-02   3.5377672e-01   3.2052675e-02  -6.5089996e-01  -3.6119046e-01  -5.6494467e-01  -8.2405811e-01  -4.3925617e-02   9.1259214e-01  -5.7727476e-01   5.1925118e-01  -8.5189617e-01  -9.5343132e-01  -9.5980675e-01   8.8165970e-01  -7.3590253e-01   6.5023967e-01   2.7187204e-01   8.5855780e-01   7.4589685e-01   9.4827456e-02   2.1041212e-01  -2.7798807e-02   9.0314579e-01  -1.7007656e-02   1.4237699e-01   8.2470854e-01  -6.0673073e-01  -8.2512003e-01  -7.7565315e-01  -2.8186229e-01  -8.2809573e-01   4.5256367e-01   4.4898355e-01  -7.0071315e-01  -1.6118102e-01  -3.4887647e-01  -8.9351977e-01   1.9188598e-01   2.8227324e-01  -3.2207524e-01  -7.7641924e-01  -8.8485395e-01   9.8929267e-01  -6.7373263e-01  -7.5168562e-01   9.7077960e-01  -8.2266511e-03   9.5204927e-01   4.5331361e-01   2.0294654e-01   4.0381399e-01   6.0612580e-01  -1.8979995e-01  -5.7887017e-02  -4.2234068e-02   3.5422285e-01  -3.6878184e-01  -2.8499914e-01   1.0423213e-01  -8.0783975e-01   6.2230666e-01   8.9789428e-01   4.2507244e-02   7.2565336e-01   9.8001683e-01  -5.3918438e-01  -6.6153549e-01   8.3335980e-01  -2.9876213e-01   2.8511189e-01   7.4245997e-01  -3.6840595e-01  -8.3285437e-01   7.1674113e-01   9.5795555e-01   1.9874671e-01  -6.0799192e-01  -7.7867535e-01   1.0803421e-02  -4.8478458e-01  -9.1445804e-01   4.2345832e-01  -4.3622529e-01   8.9191991e-01  -8.3147503e-01  -7.3548138e-01   1.5696979e-02   4.4554899e-01  -7.7116319e-01   5.0529976e-01  -1.8786315e-02   6.5940575e-01   1.0393620e-01  -4.2419542e-01   3.6424914e-01   8.3030606e-01  -9.7673272e-01  -4.8613696e-01   7.3659170e-01   5.2463861e-01   1.4910296e-02  -3.9274765e-01  -5.9461662e-01   5.6832039e-01   7.7682562e-01   1.1211226e-01  -5.1927952e-01   5.6433651e-01  -9.2455987e-01   9.8511453e-01   7.5968661e-01   3.7776033e-01   8.1202391e-01  -1.1305823e-01  -8.1358596e-01   9.9215346e-01  -2.3384042e-01  -7.7539681e-01  -4.1783512e-01  -4.5160443e-01  -9.4751534e-01   4.3900271e-01   1.9210352e-01   6.4410438e-01   3.3093064e-01  -8.4650999e-01   3.2133367e-01   4.0563403e-01  -5.1987237e-01   8.4679038e-01  -6.9676646e-01   6.0198885e-01   3.2392686e-02   1.5705584e-02  -3.5527480e-01   2.3685031e-01  -2.7802964e-01  -8.2319359e-01  -6.1449398e-01   6.0419042e-01  -2.9810092e-01  -9.8151398e-01   5.7380196e-01  -6.4845751e-01   6.2161975e-01  -5.4768907e-01   6.5661987e-01  -8.0816779e-02   4.3448637e-01  -2.6556822e-03  -4.3539482e-02  -8.2703663e-01  -6.1618724e-01  -5.9419597e-01  -1.9237407e-01   2.4635197e-01   8.3897684e-01  -2.6985386e-01  -2.7330561e-01   8.0927702e-01  -6.3906263e-01  -1.4013437e-01  -6.0584377e-01  -7.3542413e-01   7.8251526e-01   2.5884651e-01  -5.8509065e-01  -3.7548481e-01  -6.5366828e-01  -2.3231574e-01  -1.4713604e-01   9.7857281e-01  -5.0468744e-02   4.8250152e-01  -3.6123119e-02   1.1645694e-01  -8.0460356e-01  -7.1320926e-01   9.7151598e-01   9.9681143e-01   7.7708415e-01   4.1935612e-01   9.4469844e-01   6.0612968e-01  -3.6717443e-01  -1.9562764e-01  -1.0985121e-01   7.8978232e-01   8.7404303e-01   7.0871275e-01  -8.0808143e-01   7.1318945e-01  -9.2377129e-01  -5.4844752e-02  -2.5998785e-01   5.4267319e-01  -7.8731759e-01   3.7402774e-02  -9.9197608e-01   2.0675784e-01  -8.4185911e-01   6.2130597e-01   5.8115103e-01   5.5590365e-01  -3.6173211e-02  -4.7217697e-01   9.6943378e-01   5.2583466e-01  -9.4112056e-02  -3.2269089e-02   2.8385954e-01   7.4901631e-01  -4.2320004e-02   9.3322686e-01   7.9341647e-01   6.4162793e-01  -9.3487500e-01   3.3799016e-01   8.4776318e-01   4.2555318e-01   4.6267437e-03   1.9330696e-01   7.6876602e-01   9.6061335e-01   2.0091664e-01   1.8586032e-01   2.6001677e-01  -4.1989080e-01   9.7183446e-01  -6.4112299e-01  -3.3266773e-01  -5.8551115e-01   2.7958650e-01  -7.8167659e-01   4.2670387e-01  -3.4355163e-01   9.8635208e-01  -8.8271161e-01  -1.6437858e-01   5.4596890e-02  -1.9690114e-01  -8.1109544e-01   3.6100287e-01  -5.1982422e-01   2.2665841e-01  -9.8227617e-01  -5.3127302e-01  -8.7979509e-01  -3.4573742e-01   9.3685279e-01  -5.6204607e-01  -5.7454656e-01  -1.7155503e-01  -1.9879208e-01  -8.8910273e-01   3.2508718e-02  -7.0530807e-01   7.2485031e-01  -1.3920315e-01  -8.3315870e-01   1.8089805e-01  -6.0650317e-02  -8.6394242e-01  -6.0983894e-01   7.2513167e-01   8.4588328e-01   9.8140591e-02  -4.6283091e-01   1.4849583e-01   9.9418753e-01   5.1311459e-01   5.5350598e-01  -4.8166449e-01   5.9838980e-02  -5.7338030e-01   5.4285113e-02  -8.6307040e-01   6.1622786e-01  -8.8549630e-01   5.3902929e-01  -2.9853031e-01   6.8628138e-01   6.4183322e-01   9.3808751e-01  -7.8008191e-01  -3.0373713e-01   3.8814890e-01   4.2361752e-01  -1.4538247e-01  -1.4139879e-01   1.1882181e-01  -4.5398690e-01   9.4085875e-01  -3.0300160e-01   7.7274336e-01   2.9443887e-01  -6.4725412e-01  -6.7595332e-01  -7.6435869e-01   4.7241051e-02  -5.5509464e-01   6.5942716e-01  -6.0706112e-01   5.0934933e-01   2.4758898e-01  -6.5247689e-01  -8.0670053e-01  -6.5392365e-01  -3.9666370e-01  -6.5933999e-01  -1.2294088e-01   5.2802257e-01   7.6750913e-01   4.0562893e-01  -5.5841817e-01   5.5582000e-01  -6.8892512e-02  -5.0319371e-01  -9.0104319e-02   6.2248773e-01  -1.0609762e-02  -8.1973778e-01  -5.9039144e-01   6.6992300e-01  -7.0963279e-01   2.0208548e-01  -9.1568273e-01   3.9615662e-01  -9.7338062e-01  -1.6130108e-01  -5.7417326e-01   7.6805846e-02   7.2464160e-02  -3.6740183e-01  -4.3854774e-01  -6.4803737e-03  -6.1999210e-01  -4.9531093e-01   2.3093597e-02  -5.8173666e-01   8.4649064e-01  -2.5985319e-01   8.0490813e-01  -1.2921258e-01  -7.8556439e-01  -6.5477768e-01  -8.1355064e-01   2.7836505e-01  -8.8401892e-02  -4.5991816e-01  -8.3492138e-01  -8.5531711e-02   8.8667471e-01   7.0885715e-01  -2.2627660e-01   2.5118688e-01   7.1727999e-01  -2.2225124e-01   6.4814318e-01  -3.5715889e-01   1.4422569e-01   4.3582187e-01  -4.9205788e-01  -6.0599208e-01   1.6412739e-01  -3.4414508e-01   2.6967689e-03  -1.5852581e-01   2.7102537e-01   1.4576415e-01   1.4597973e-01  -6.9256971e-01  -1.4630373e-01   8.9385247e-01  -2.2088871e-01  -7.1209911e-01   3.8159128e-01  -9.7217330e-01   8.6326240e-01  -9.8570532e-01  -8.3094755e-02   4.5337061e-01   5.9141668e-01  -2.1734255e-01  -8.7566394e-01   1.5197800e-01  -1.4497715e-01   8.5498184e-01  -4.5123738e-01   4.0941747e-01   6.2708153e-01   6.8468910e-01  -2.5621647e-02   5.5405959e-01  -4.7512592e-01   5.8321311e-01   2.2276108e-01  -5.9395658e-01  -5.1474676e-01   6.8076875e-01   4.2744462e-01  -5.2644807e-01   5.7755747e-01  -7.9672419e-01   7.1701310e-01  -9.2249883e-01  -1.8500265e-01  -4.6037160e-01   2.2115984e-01  -2.3127083e-01  -3.1023921e-02  -3.4544383e-01  -1.3475770e-01   1.2610293e-02   4.1417305e-01  -2.2975330e-01   7.5147940e-01  -5.3461475e-01  -8.7697781e-01  -7.0866356e-01   2.8289701e-01   8.2059042e-01  -2.1454492e-01   6.6096939e-01  -3.9277556e-01  -1.9473314e-01  -3.8945613e-01  -1.6064861e-01  -9.3776106e-01   1.6801626e-01   1.6078473e-01  -3.8556399e-01   7.3753284e-01  -7.5167940e-01  -9.4248098e-01   3.1806940e-01  -7.8770163e-01   8.4906455e-01  -1.5765536e-01   8.9456851e-01   8.1535525e-03  -7.6890856e-01  -7.2975778e-01   1.5470518e-01   8.2872616e-01  -7.8065440e-01  -3.7424779e-01   4.7731167e-01  -3.7278451e-01  -7.1679505e-01  -7.8277681e-01   5.3898755e-01  -5.8148862e-01   3.8505891e-01   5.9569767e-01   7.1997612e-01  -2.8908161e-01  -1.7139362e-01   8.3238969e-01  -5.5266476e-01  -4.5523591e-01  -5.2639036e-01  -4.9905831e-01   3.1079797e-01   7.6600994e-01   5.8512756e-02  -8.6303377e-01  -9.2763873e-01   9.6490494e-01  -8.3053652e-02   3.0687502e-01  -9.3062981e-01   5.5592006e-01  -1.1167049e-01   9.6230584e-02   8.1806278e-01   9.5915438e-01   8.4009267e-01   4.7055757e-01   7.5369421e-02  -6.2745288e-01  -5.5364514e-01  -6.8277897e-01  -5.3628843e-01   3.0103944e-01  -3.7719451e-01   9.5511799e-01   1.2256364e-01  -1.9700694e-01  -2.4008080e-01   3.2379211e-01  -6.9586762e-03  -7.0859796e-01   7.5911271e-01  -4.9102344e-01  -1.1808951e-01   4.0475921e-01   6.9268619e-01   6.0311264e-02   1.0633308e-01  -2.0134406e-01   8.7905781e-01   4.7995543e-01   9.7557727e-01   8.6213241e-01  -4.6007929e-01  -8.4504025e-01  -1.3178820e-01   9.5276303e-02  -2.8984791e-01   6.3962642e-01   5.1464940e-01   5.2567565e-03   3.0663966e-01  -1.9168766e-01  -6.8153999e-02   8.9639025e-01  -6.8090222e-01  -3.7990742e-01  -5.4961941e-01  -3.5643992e-01   9.8479910e-01  -5.4601973e-01  -3.3896467e-01  -8.9653824e-02  -2.6255134e-01  -7.4925808e-01   2.7333811e-01   8.2286044e-01  -5.4223631e-01   6.1984651e-01   3.3358534e-01  -4.2302654e-01  -2.1616554e-01   2.6387860e-01  -5.4338100e-01   9.1300574e-01  -3.2583799e-01  -8.4203747e-01   4.9634835e-01  -5.4342084e-01  -3.8531563e-01   5.5115186e-01  -8.1865054e-01   5.1502215e-01   6.4313655e-01   8.6653059e-01   2.8452599e-01   4.0006650e-01   9.5568774e-01  -3.2714960e-01   5.5356031e-01  -2.1629819e-01  -1.4440224e-01   8.6557549e-01  -5.4142320e-01   3.8724534e-01  -5.4458752e-01  -4.0403452e-01   7.2825251e-01   1.7362363e-01   1.6048686e-01   2.7780843e-01  -6.8146851e-01  -9.9636267e-04  -1.4748139e-01  -9.5708146e-01   5.5024030e-01   2.9741311e-01  -5.7849431e-01   2.4849177e-01   9.6981854e-01  -6.0694715e-01  -8.8506454e-01  -8.3144360e-01   3.7659255e-01   3.9937529e-01  -7.0117511e-01  -5.5441233e-01   3.8226160e-01   7.6450409e-02   8.9468309e-01  -2.8966454e-01  -9.6051863e-02   8.5976214e-01   1.6857266e-01   6.0035666e-01   5.5568475e-01  -9.8924246e-01   1.4878867e-01  -4.2248816e-01   1.9847279e-01   6.4976508e-02  -9.7703556e-01  -7.8850673e-02   2.9584795e-02   6.8338761e-01  -6.8527742e-01  -7.9742809e-01  -1.2736100e-01   2.4800875e-01  -7.9246609e-01  -8.9478907e-01   6.0882490e-02   3.4338745e-01  -3.2290489e-01   4.4179302e-01  -2.1536479e-01   2.4387801e-01   4.1902216e-01  -4.8711977e-01  -5.3272192e-01  -4.1638569e-01   2.8837809e-01   4.1036212e-01  -7.6958052e-01   4.5127432e-01   8.5106263e-01   6.4832151e-01   2.4331168e-01   7.7331792e-01   1.3579002e-01   6.4901017e-01  -6.1073587e-01  -7.0801792e-01  -3.3005849e-01  -7.6554767e-01  -2.5087801e-01   8.8474237e-02   8.4661324e-01   2.2284892e-01   7.3483445e-01   6.1624785e-01  -3.9951293e-01  -2.7621293e-01   3.3033331e-01  -2.0184673e-01  -3.0346407e-01  -6.1479840e-01  -3.4452712e-02  -3.7141375e-01  -3.1143591e-01   5.4751112e-01   7.8449144e-01  -9.9635250e-01  -9.8295512e-01  -4.6815293e-01  -8.1050341e-01   2.1933085e-01  -5.0759928e-01  -6.1181265e-01   8.9184410e-01  -3.2068681e-01   3.0304848e-01   8.4905939e-01  -3.9335674e-01   3.5344088e-02  -1.8373607e-02  -5.4949954e-02   8.1431613e-01  -4.4909179e-01  -2.3139371e-01   5.6174751e-01  -8.2393609e-01   5.4229739e-01   6.0243996e-01   5.6478893e-01   9.8975148e-03   9.7754118e-01   1.5830502e-01  -9.9593996e-01  -1.2121283e-01  -6.5093800e-01   1.4856403e-01  -6.2621530e-02   7.1752534e-01   2.1859207e-01  -9.3523633e-01   3.9386021e-01  -9.9115246e-01  -1.3238515e-01   8.8033019e-01  -6.5143261e-01   9.5066614e-01  -2.7229254e-01   6.1028965e-01   7.7640108e-01  -6.1802698e-01   1.8875277e-01   8.1202497e-01   8.4875225e-01   5.0631850e-01  -5.6943780e-01  -3.7959193e-01   8.0965701e-01   4.8752636e-01  -3.9548779e-01  -8.5510754e-01   4.5419755e-01   5.1481146e-01   5.3164583e-01   3.3725729e-01   3.5178011e-02   2.4305166e-01  -1.8157852e-01   8.7175433e-01   7.9373028e-01   4.9767883e-01   8.1496149e-02  -3.2616111e-01   7.8762819e-01  -7.7980430e-01   6.6360301e-01   4.0651247e-01  -3.7396307e-01  -8.0931143e-01   5.4996298e-01   3.7992148e-01  -9.3226841e-01  -8.1371680e-01  -8.0573348e-01  -2.1001596e-01  -1.4582989e-01   8.1018977e-01   9.5841897e-01   6.2954195e-01   5.4799314e-01  -3.3166871e-01  -2.1213489e-02   7.0296592e-01   9.6136671e-01  -3.1872445e-03   4.9003691e-01  -6.0106336e-01  -5.8807743e-01   2.4903414e-02   5.4557793e-02  -4.6353895e-01   3.4323174e-01  -9.6463587e-01   4.1108851e-01  -7.7903113e-01  -9.6118238e-01  -1.2764238e-01  -9.5300435e-01  -9.0574889e-01   6.8048618e-02   3.7417960e-01   6.8441757e-01   4.9535711e-03  -7.2495983e-01   1.3250477e-01   1.0935266e-01  -4.6578119e-01  -4.5277852e-01  -1.0702377e-01   7.8348547e-01  -5.5621067e-01   7.2441812e-01  -4.0377947e-02  -6.4477231e-01   3.8752939e-02  -1.2730229e-01   4.3951006e-01  -8.8012900e-01  -5.9628497e-01  -8.5163741e-01  -6.1904320e-01   4.4166938e-01  -4.4237913e-01   8.6779928e-01  -4.3782362e-01   3.5846969e-01  -9.8302147e-01   2.2510287e-01  -3.6719068e-01  -4.2443091e-01  -2.1277754e-01  -5.3502895e-02  -3.4712290e-01  -3.4135974e-01   5.1843128e-01  -3.9764429e-02   9.4344166e-01  -5.4667263e-01  -2.7832822e-01   3.3355132e-01  -3.8987621e-01   5.7607014e-01   9.0875084e-01  -3.7570807e-01   6.7680280e-01   3.0583329e-01   4.8112114e-01  -8.0806578e-01   7.0087103e-01  -7.7460057e-01   1.1805474e-01  -6.0998534e-01  -6.7392357e-01   1.0925923e-01   7.0883308e-01  -2.2282518e-01  -3.1317098e-01   4.4994276e-01   9.1934143e-01  -4.5631455e-01  -4.8403720e-01  -9.1942600e-01   9.0456260e-01  -6.0719458e-02   6.9636147e-02  -5.9885814e-01  -6.9114098e-01   6.8142473e-01  -8.8283393e-01   5.9167403e-01  -4.5434612e-01   3.6879407e-02   5.2384430e-01  -9.3900025e-01  -2.2587382e-01  -2.0489998e-01   7.0858822e-01  -2.6379292e-01
   5.0262979e-01   1.8849917e-01  -4.1215928e-01   6.3186112e-01  -5.1001697e-01   8.8892280e-04   5.1365149e-01   7.9777688e-02  -3.1666059e-01   5.3964739e-01   3.6603253e-01  -6.7516819e-01  -5.6437707e-01   3.1532743e-01   9.2117378e-01  -3.2936831e-01  -4.2282042e-01   1.0891555e-02  -2.0594999e-01   6.2429987e-01  -2.7181266e-01  -6.3401866e-01   1.7304532e-01   5.6202028e-01  -7.8979268e-02  -8.6400669e-01  -6.8984754e-02  -9.4855899e-01  -9.1733659e-01   2.6584217e-01   2.7891646e-01   6.1622914e-01   2.5163677e-01  -1.0992621e-01   9.7402218e-01  -8.9281689e-01   8.2748977e-01   4.6863588e-02  -5.6970825e-01   9.9773873e-01   4.2718710e-01   7.4103510e-01   5.9439273e-01   3.9145359e-01   9.0081278e-01   2.5985972e-01   4.7348511e-01   6.2336394e-01   3.6693141e-01  -2.0026829e-02   9.9323348e-01  -2.7568360e-01  -2.2182151e-01  -2.4418080e-01  -6.4214864e-01  -3.1451363e-01  -5.3714542e-01   7.2907767e-01  -5.3890079e-01   3.1450910e-02   2.1843815e-01  -3.8939371e-01   5.1331724e-01  -2.6533048e-01   9.6994651e-01  -6.6900733e-03  -9.5555391e-01   4.4254494e-01   5.8552851e-01   1.4214001e-01   2.5363287e-01  -8.4133386e-01   2.0894813e-01   9.7806258e-02  -2.3550859e-01   7.6480242e-01  -9.5180331e-01   6.2820068e-02  -4.5658420e-01  -6.3427711e-01  -8.0015650e-01   5.6691437e-01   2.2890808e-01   5.0659757e-02   6.9159000e-01   1.8123234e-01  -6.3246841e-01   2.9701695e-01  -3.3258922e-01  -5.7687692e-01  -2.9669528e-01  -2.5123080e-01   6.7066106e-01  -4.1067355e-01  -6.9459941e-01  -6.8890986e-01  -4.2772649e-01   5.7802783e-01   6.3352858e-01  -8.2841253e-01   4.9232678e-01   5.2504929e-01   8.0686478e-01  -7.6805564e-01   1.5903471e-01   7.6992136e-02  -3.8184411e-01  -2.0097630e-01  -7.5704265e-01   3.8128039e-01  -7.0247937e-01  -4.9447399e-02  -6.7273366e-01  -7.2135155e-01   4.8942386e-01  -9.7526102e-01   1.7218352e-01  -5.5506495e-02   7.7176951e-01   2.6582381e-01  -5.0239726e-01   2.4691751e-01   7.5729441e-01   9.2224196e-02  -5.3215390e-01   4.8485136e-01   8.4350169e-01   1.5220460e-01  -3.5256455e-01   3.9553842e-01  -3.5637404e-01   8.9348991e-01   5.4754802e-01   8.5430720e-01   8.4804009e-01   8.9258610e-01  -9.0237722e-01   4.0147546e-01   1.3461070e-01   7.5178763e-01   4.2320445e-02   4.1293628e-01  -1.7626820e-01   4.4014303e-01   5.3202640e-01  -2.1291913e-01  -8.4751700e-01   2.7636997e-01   7.0899298e-02   2.1339109e-01  -4.5139380e-01  -2.2346766e-01  -9.7006083e-02  -2.4724321e-01   1.1863135e-01   7.9312176e-01   8.5879816e-03   7.9943965e-01   5.2331252e-02   2.7227828e-01  -5.6117617e-01   1.5403948e-01   8.9406676e-02  -9.4183827e-01  -6.5259695e-01  -7.7018837e-01  -9.4444380e-01   3.7304851e-01  -7.2039384e-01  -3.2732924e-01  -2.5248955e-01  -9.4356837e-01   8.9611071e-01  -9.6234798e-02  -5.0665341e-01  -6.2221133e-01  -8.4903840e-01  -7.9815280e-01  -5.7787227e-01   5.4689152e-01  -7.9026275e-01  -2.4558290e-01   9.4424175e-01   7.6447154e-01   3.7321385e-01  -1.3880939e-01   4.4496849e-01  -6.8794171e-01   5.3186325e-01   6.1171779e-01   9.2919876e-01  -2.7424887e-01   5.3588025e-01  -4.4322878e-01  -1.8079305e-01   2.0800418e-01  -2.4515419e-01  -2.8425090e-01  -3.8737021e-02   3.0039879e-01  -3.5372970e-01  -4.4858535e-01   2.8710767e-01  -6.4075319e-02  -3.2620917e-01  -4.9007145e-01  -3.4108113e-01  -9.3733140e-01  -7.0517807e-01   2.5150671e-01  -7.2477272e-01   5.8695871e-01   5.1582189e-01   2.0095089e-01   2.5536515e-01  -4.4094460e-02   3.2207125e-01   2.8172913e-01   4.8007947e-01   7.8298318e-01  -2.5997779e-01  -9.2021388e-01  -5.1994959e-01  -7.9921023e-02   4.2452484e-01  -8.1585921e-01   5.7588584e-01  -4.0985640e-01  -1.8693389e-01  -9.0446695e-01   1.0112859e-01   8.5031599e-01  -2.2285102e-01  -7.6467682e-01  -5.1642853e-01  -3.0615298e-01   3.8056823e-01   1.1485839e-01   8.0083828e-01  -1.3582038e-01  -4.5630663e-01  -8.6553397e-02  -6.5972690e-01  -9.0201201e-01   9.3167619e-01  -6.3970332e-01  -8.8934924e-01   6.6046592e-01  -6.2169043e-01  -7.3360386e-01  -4.3836506e-01  -3.0210438e-01   7.7394759e-01  -5.6019903e-01  -7.6934976e-01   9.1161935e-01   2.3263146e-01   5.7009900e-03  -6.8773166e-01   9.4460829e-02  -6.5279368e-01  -2.7131797e-01  -4.5278088e-01  -6.1234056e-01   8.1262920e-02  -2.1076868e-01   7.9611037e-01  -5.5459802e-01  -7.0363974e-01  -7.4834408e-01  -7.9883275e-01   4.3839315e-01   8.1111778e-01   1.4148361e-01   2.6283514e-01   8.0115430e-01   4.9349465e-01  -9.4190401e-01  -2.9317918e-02  -7.9190275e-01  -9.1291384e-01  -4.5765779e-01   9.4286056e-01  -8.1502971e-02   9.1499502e-01  -7.0005843e-01  -2.0747630e-01   7.9514625e-01  -6.7335120e-01   6.6557517e-01   3.9351356e-01  -6.6902974e-01  -6.2312144e-01   6.2607107e-01   5.1106821e-01  -1.0990811e-01   1.8547650e-01  -1.6004116e-01   2.2095060e-01  -5.2415741e-01   6.4204563e-01  -1.4499564e-01   1.6746525e-01   4.2680477e-01  -9.1194427e-01   7.4699423e-02  -8.9678174e-01  -2.0472390e-01  -6.2363878e-01   1.2666227e-01  -6.2682658e-01  -7.8995976e-01  -7.8409720e-01  -9.4640137e-01  -5.7507742e-01   3.3194758e-01   1.8723362e-01   1.7315178e-01   2.3307445e-01  -7.1549962e-01  -9.0421658e-01  -4.9810688e-01  -5.3981675e-01  -2.4732018e-01  -7.4401190e-01   6.3198613e-01   2.5547177e-01  -6.9300125e-02  -2.3078732e-01  -7.0858085e-01  -8.0135794e-01   6.4079739e-01  -6.3658831e-01   5.1653833e-01   4.6578829e-01   3.6173272e-01   6.4557458e-01   6.1191412e-01  -8.0833550e-01   6.5343271e-01  -4.3130940e-01   8.3584526e-01   9.5177444e-01   8.1591886e-01  -7.8055923e-01   5.9080979e-01   9.7656804e-02   8.9777270e-02  -6.2786225e-01  -4.1695478e-01   6.2706173e-01   9.1597294e-01   4.5655096e-01  -8.2841178e-01   7.5208968e-01   8.9444366e-01   1.0300424e-01  -8.2036641e-01   1.7083893e-01  -1.6262571e-01  -1.3627381e-01   4.7349476e-01  -4.9424654e-01  -1.9870836e-01   3.8684221e-02  -6.5322706e-01   6.0689368e-01  -8.9724037e-01   6.8737133e-02  -9.6509837e-01   3.2704599e-01   2.2746240e-01   4.7722413e-01   4.0255014e-01  -6.6065358e-01   7.6722685e-01  -6.5491878e-01  -2.6960045e-01   5.1191473e-01  -9.7169294e-01   4.7945180e-01  -6.1771107e-02  -4.4555301e-01  -7.7583491e-01   4.6851421e-01   8.0643072e-01   7.6467894e-01   2.0388694e-01   2.8908017e-01  -5.5298136e-01   4.3985762e-01   7.5939296e-01  -4.6180225e-01  -8.2944453e-01   8.4900493e-01  -4.8477509e-01   4.4065039e-01  -9.5578235e-02  -4.5845653e-01  -5.9610311e-01  -8.1370312e-01   8.5485583e-02  -1.9341900e-01  -2.9704429e-01  -7.6286587e-01   4.5163309e-01   8.3404081e-01   6.7260594e-01   8.3089913e-01   1.7188359e-01   8.8289098e-01   1.3401019e-01  -7.4462387e-01  -7.9591554e-01  -9.2108133e-01  -4.8310152e-01  -2.9643036e-01   2.4815127e-01  -7.7791474e-01  -9.0012374e-01  -3.0006553e-01  -8.5343915e-01   4.7923437e-01  -7.9628550e-01   9.7855777e-01  -2.5076887e-01  -2.7621623e-01   8.6719527e-01   4.6090685e-01   1.4184569e-01  -6.8142830e-01  -5.2727549e-01  -6.8865043e-01  -2.8223844e-01  -8.5926014e-01  -3.7020435e-01  -2.4634081e-01  -2.3746090e-01  -9.9557659e-01   3.8633472e-01  -7.7462074e-01  -8.9981075e-01  -3.6452403e-01   4.9258016e-01   1.1284601e-03   6.3587815e-03   8.6963975e-01   6.3513639e-01  -4.2270556e-01   5.2713965e-01   2.5020338e-01  -3.0115639e-01   8.7514079e-01   1.0773899e-01   8.9902869e-01   8.3953630e-01   4.7657530e-01  -7.3053729e-01   3.0975043e-01   6.8147057e-01   4.5860659e-01   4.8730367e-01   2.0275043e-02  -8.5183905e-01   4.9388726e-01   6.4333994e-01  -3.8963161e-02   8.0064941e-02   5.1728769e-02   2.7996654e-01   6.3408327e-01  -5.8797841e-01  -2.7398136e-02  -9.4625040e-01   8.5312144e-01   1.6387630e-01   5.7436840e-01   9.2942875e-01   5.9111310e-01   8.1499483e-01   2.9858748e-01  -4.3271989e-01  -6.8009774e-01  -1.8326170e-01   4.0468323e-01   3.2130919e-01  -9.0174528e-01   1.2924067e-01  -6.0092474e-01  -7.6116514e-01   9.8240131e-01   4.4098973e-01  -3.9461890e-01   4.0580406e-01   1.5088008e-01   5.2692775e-02   2.6174558e-01  -6.2674852e-01   4.1790884e-01  -2.2009971e-01  -2.0744814e-01  -8.9190983e-01   6.3071225e-01  -4.6767924e-01  -1.2280205e-01   7.4988321e-01   2.6783906e-01  -1.1870115e-01  -6.3722000e-01   3.9136234e-01   9.8264687e-01  -9.0497971e-01   5.1987339e-01  -3.8187664e-02  -1.8558488e-01   4.9884581e-01  -5.8898943e-01   3.5447366e-01   3.4084993e-01  -2.4386010e-01   1.9051167e-01   7.1781861e-01   8.3941392e-01   1.2609421e-02  -1.2418740e-01  -3.2794095e-01   5.7168304e-01   1.1577872e-01  -8.5744245e-01  -6.4288795e-01  -8.0179973e-01   7.3395253e-01  -6.8498417e-01   7.6101918e-01  -4.7402813e-02   6.1099367e-01  -8.7864125e-01   1.6257127e-01  -1.2664379e-01   5.1360602e-01  -8.4650350e-01  -5.1368350e-01  -1.7171631e-01  -1.6076082e-01   9.6854738e-01   7.5765963e-02  -1.0467521e-01   1.7689990e-01  -1.6152062e-01   8.7009895e-01  -9.5027299e-01   3.8357376e-01   1.0342604e-02  -8.4944529e-01   8.1391216e-01  -4.8525253e-02  -6.8327000e-01   6.0174539e-01  -9.4531050e-01  -8.0005259e-01  -5.8566317e-01  -5.4035283e-01  -4.1024459e-01  -2.9123876e-01  -3.1276957e-01   6.9432664e-01   8.9777946e-01   3.8728221e-02  -6.0117998e-01  -2.5594853e-01  -2.4320301e-02  -4.7215006e-01   6.2715984e-01   4.1625663e-02  -5.7013567e-01  -7.7995763e-01  -4.6668894e-01  -4.1718961e-01   4.8835550e-01  -9.7189742e-01   5.7695647e-01   5.7746348e-01   2.1842595e-01  -8.1832040e-01   5.7343960e-02  -7.9603755e-01  -5.4495507e-02   6.8489723e-01   2.8461803e-01  -1.5080105e-02  -9.8150248e-01  -3.3745867e-01  -8.3865061e-01  -2.1989346e-02  -6.9460280e-01  -3.9509449e-02  -9.5303088e-01   6.4891093e-01  -3.9098620e-01   2.5672304e-01  -5.7658080e-01   4.1221405e-02  -7.0399029e-01   8.3475358e-01   9.0240185e-02   6.7923348e-01   1.8685194e-01  -2.8489131e-01   2.0303990e-01  -7.0435030e-01  -4.4156291e-01  -7.1538977e-01   4.1403840e-02   9.4790366e-01  -4.6194337e-01   4.5588987e-01  -6.7053576e-01   5.4823442e-01   6.8920426e-01  -5.1716306e-01  -7.9782868e-01   6.4398388e-02  -5.3339524e-01   9.2736311e-01  -7.1220032e-01   7.6126262e-01  -3.0157092e-01  -7.3537551e-01  -7.4513147e-01   8.0353497e-01  -2.2312264e-01  -3.0582704e-01   5.7994288e-01  -6.8526842e-01  -9.4612132e-01   1.3376267e-01  -1.3819438e-01   8.0264829e-01   5.3995417e-01  -3.1682336e-01   2.9081318e-01  -1.3595826e-01   2.0013436e-02  -8.6205844e-01  -5.0491041e-01  -6.9747933e-02   8.8316402e-01   7.9809302e-02   7.4132773e-01  -1.7424396e-01  -4.1515894e-01  -9.2816891e-01  -2.0363851e-01   1.3186810e-01   7.7113759e-03   7.9437760e-01   2.7474042e-01   1.7172004e-01   1.0981368e-01  -5.2709630e-01   4.0773503e-01  -5.1746737e-01   2.1399764e-01  -1.2639232e-01  -2.6471666e-01   5.4457224e-01  -5.4407206e-01  -4.9120116e-01   1.6024597e-01  -5.2806881e-01  -5.9474733e-01  -4.0983039e-01  -9.8961981e-01   9.8385553e-01   6.5495079e-01  -8.8081754e-01   1.2201858e-01  -2.6243925e-01   9.4283103e-01   6.6233319e-01   6.1123564e-01   6.3103016e-01  -5.1448261e-01  -3.2193340e-01   2.9186800e-01   6.8760201e-01  -8.1805601e-01  -7.0659396e-02  -7.5938091e-01  -2.6478173e-01   2.1724815e-01   9.6428329e-01   1.6875358e-01  -9.1038418e-01   6.9189177e-01   8.2718134e-01  -7.1338289e-02   5.6340289e-01  -5.0674063e-01   4.5889148e-01   5.4725516e-01  -5.0825659e-01  -5.2058785e-01  -8.7418179e-01   6.0053336e-01   2.4237763e-01  -1.3273022e-01   6.5454141e-01   3.0640095e-01  -3.0869073e-01  -3.9216098e-02  -7.9873265e-01   8.4828250e-01  -3.9104879e-01  -7.6635028e-01  -4.5704247e-01  -1.5114233e-01  -8.9126956e-01  -8.9540544e-01  -4.1325015e-01   8.9222527e-01  -9.9122581e-01   4.3064479e-01   1.9044943e-01   3.9980518e-01   7.7599557e-02   9.8350667e-01  -6.3990135e-01  -6.8476232e-02   2.7824042e-01   6.5611268e-01   5.2569270e-01  -2.8010378e-01   2.2979570e-01  -7.4007094e-01   9.5749632e-01  -7.6588459e-01   5.3752721e-02   4.6275917e-01  -2.9823029e-01   2.8226893e-01  -2.4501614e-01  -9.6763274e-01  -7.1660099e-01  -8.6967731e-01   2.8717537e-01   1.6118275e-01  -4.5606791e-01   8.5030080e-01  -4.0662938e-01   3.5714161e-01   4.3266866e-01   1.8296238e-01  -5.0852705e-01   4.3175597e-01   1.3479578e-01  -9.3373118e-01  -2.8296067e-01  -3.1714413e-01  -9.2099596e-01  -6.8095199e-01   2.8711038e-01   2.3340511e-01  -9.1755090e-01   4.0777667e-01  -2.1377712e-01  -4.0998581e-01   4.7048416e-01   2.4453064e-01   8.6078975e-01   3.5569798e-01  -8.0007141e-01   8.2010868e-01   4.1696738e-01   2.4151396e-01   5.3413151e-01   3.3338802e-01  -8.8488546e-01   2.6176475e-01   6.1670203e-01   3.2965248e-01  -8.1055539e-01  -2.6164476e-01   1.6171290e-01  -5.1688282e-01   5.1767404e-01   1.3994416e-01   4.6375350e-01  -7.2965274e-01  -7.1077978e-01   6.6405721e-01   7.5345233e-01   2.5912624e-01   1.2867575e-01  -9.6039386e-01  -6.1965365e-01  -7.5373156e-01  -4.5521488e-01  -7.7144370e-01  -6.9250580e-01   9.8894112e-01  -7.1071483e-01   4.4581088e-01  -3.8069919e-01   3.0737068e-01  -8.9895027e-01   8.8879921e-01  -8.8875273e-01  -6.1663578e-01   1.7759614e-01  -7.6431460e-01  -3.3713803e-01  -8.2772337e-02   1.9001972e-01   5.7548826e-02   9.3025296e-01   9.5221758e-01  -2.6956051e-02   1.1610479e-01   7.4072270e-01   1.5297181e-01   3.5438784e-01  -4.1901747e-01  -9.5787020e-01  -2.1776902e-01   5.9726124e-01   7.6469808e-01  -6.9710731e-01  -8.7141887e-01  -5.2780746e-02  -4.5543847e-01   1.6694704e-01  -3.9683370e-01   1.4802567e-01   5.9451022e-01  -4.4207692e-01   8.6236439e-01  -4.9369827e-01  -9.4935170e-01  -8.4027833e-02   7.6846557e-02  -3.8332837e-01  -3.6174771e-01  -5.3435716e-02   8.9453834e-01  -3.9353838e-01   9.8855696e-01  -3.5421360e-01  -9.7907043e-01  -1.5633688e-01  -5.9458479e-01  -6.8500450e-01  -2.3516509e-01  -9.9616017e-01  -5.2563240e-01   3.8531626e-01   5.6333359e-01  -5.7011187e-01  -1.9491890e-01  -9.1289199e-01  -3.9629467e-01   6.1798311e-01  -8.5694696e-01   5.6517452e-01   5.6855803e-01  -5.7318454e-01   3.9788968e-01  -3.7160384e-01   7.9905706e-01   2.5536239e-01   4.7838496e-01   5.8021074e-01   1.9479241e-03  -1.3794771e-01   7.0893148e-01   6.4201291e-02   5.2342537e-01   9.7062160e-01   6.0453922e-01  -8.6533633e-01  -2.6899660e-01  -1.2217393e-02   4.9518979e-01   7.9752396e-01  -6.9663132e-01   8.9458095e-01   4.5379707e-01  -6.7924774e-01  -1.2767969e-01  -4.7184795e-01   7.7440517e-01   7.4960456e-01  -5.0773108e-01   3.7703720e-02  -1.9526346e-01   8.4712852e-01  -7.7305917e-01  -4.9934035e-01   5.4368932e-01  -9.0438173e-01   5.1572928e-01   3.6495661e-01  -6.7895873e-01  -5.3530674e-01  -7.9999453e-01  -2.6513265e-01   4.0557446e-01   7.8287628e-01  -3.3827880e-01   6.4462344e-01  -6.1650917e-01   3.8800900e-01  -7.8511938e-01   6.1453560e-01  -7.2852518e-02   7.8098679e-01   1.6529840e-02   9.8872883e-01   6.8952089e-01   3.9899010e-01   3.7320013e-01   2.6885719e-01  -8.9306620e-01  -5.3124641e-01   3.9187298e-01  -1.6015181e-01  -8.0656436e-01  -7.7626248e-01  -5.9787449e-01  -9.9016961e-01   4.8438305e-01   1.0109539e-01  -4.4320188e-01  -8.1895322e-01  -2.1749641e-01   4.7489351e-01   8.7826159e-01  -4.2818869e-01   1.6644745e-01   7.0576863e-01   6.4991704e-01  -7.3316947e-01  -6.7079785e-01  -2.7039271e-01  -7.4378912e-01  -4.7883065e-01  -3.3540011e-01   8.5818398e-01   8.1296848e-01  -5.9363665e-01  -4.7794920e-01  -9.9002723e-01   3.1810108e-01   5.3643600e-01  -9.3462381e-01   3.3519879e-01   9.2522047e-01  -6.0609990e-01   7.7751141e-01   4.0608484e-01  -7.5306064e-01  -2.8674554e-01   8.4520448e-01   1.3964434e-01   2.9402335e-01   4.6936447e-01   3.5837471e-02  -5.3638150e-02   3.1611263e-02  -3.1820256e-01   7.6590970e-01  -2.0391514e-01  -7.2774315e-01   9.9051559e-01  -3.5105869e-01   8.5825768e-01   5.5729238e-01  -4.1505159e-01   7.3834680e-01   9.3011186e-01   3.8655945e-01   8.4241949e-01   9.2958734e-01  -9.1657928e-01  -3.7301900e-01  -8.6834616e-01  -8.0557932e-01   5.8934229e-01   3.6324188e-01  -4.1137650e-01   3.1581512e-01   8.6060285e-01   5.2224675e-01  -8.4350842e-01  -7.5623311e-01   6.9245851e-01   6.8086451e-01   8.4546423e-01   2.1128994e-01   2.9758024e-01
   9.7572450e-01   7.9620253e-02  -3.2573592e-02   4.3531778e-01   1.0500735e-01   6.8440189e-01  -8.1134858e-01  -7.7588649e-01   6.6707569e-01   5.9727668e-01  -2.2515665e-01  -8.4935821e-03  -2.0203932e-01   3.6128133e-01  -7.7432575e-01   2.6704041e-01   9.0528635e-01   2.7997315e-01   7.0178137e-01   8.9247993e-01   9.5122348e-01   9.9328153e-01   9.0904302e-01  -3.2999988e-01   9.9656961e-01  -1.1853425e-01   9.5003918e-01  -2.4338558e-01  -3.6497963e-01   3.3088580e-01  -9.8125939e-02   1.2242323e-01  -2.0158974e-01   2.9479035e-01  -9.9928952e-01   7.9043282e-01   7.5330535e-01  -1.2531630e-01   6.6967596e-01  -9.5749389e-01   5.8866206e-01  -9.3619077e-01  -6.6875105e-01  -5.8900438e-01  -5.4733801e-01   1.8392636e-01  -9.1035037e-01  -2.9607883e-01  -5.3996126e-01   3.0467630e-01   9.9033075e-01   4.4858933e-01   2.7488569e-01   3.2144923e-01   5.9532265e-01   9.8637055e-01  -7.1685551e-01  -6.0012834e-01   2.5745794e-01  -1.1349306e-01  -9.5282844e-01   5.1701546e-01   1.6962072e-01  -3.5557471e-01   1.6154167e-01   4.5775307e-01   4.1287147e-01   1.8693265e-01   1.0063821e-03  -3.9333882e-02  -7.4206405e-01  -5.3384019e-01  -6.4341498e-02   3.4087632e-02   3.8340956e-01  -6.8886522e-01  -8.6015758e-01   5.0265771e-01  -2.5640908e-01   2.0681366e-01  -1.8368110e-01   1.8898868e-01   9.5905793e-01   3.6530344e-01  -1.0146086e-01  -1.1606203e-01  -6.0461156e-01  -7.6685305e-02   2.8730455e-01  -9.8436318e-01  -8.8573076e-01  -5.2470487e-01  -3.1950965e-02  -6.3073217e-01  -4.5040636e-01   2.5739667e-01  -4.0975271e-01  -1.3150196e-01  -4.0158868e-01  -9.6348815e-01  -9.8188575e-02  -7.3036718e-02  -5.1506478e-01  -3.2377507e-01   6.3835698e-01  -4.2620695e-01  -5.2425149e-01   5.4506871e-01   6.8944308e-01   5.5733999e-01  -1.8076611e-01   8.4124643e-02   5.3358838e-01  -9.0380485e-01  -1.3793105e-01  -1.3717719e-01  -9.7708731e-01  -4.6882536e-01   8.0172676e-01  -8.0539246e-01  -9.5947792e-01  -4.7048366e-01   5.2966353e-01  -2.5691020e-02  -1.6172554e-01   6.8732865e-01   1.2398311e-01  -3.8762848e-01   8.2355206e-01  -8.0380827e-01  -8.7753183e-01   9.2283401e-01   5.4913022e-01  -2.0251052e-01  -1.9189257e-01   9.3921205e-02   1.6769325e-01   8.5698657e-01  -4.3024517e-01   1.1652400e-01  -7.9013071e-01   3.7485023e-01  -4.6482287e-01   4.9942246e-02  -3.1375475e-01   4.4264606e-01  -7.5563767e-01   2.0100162e-01  -1.8358949e-01   3.3855404e-01   3.9944183e-01  -9.9994367e-01   1.8763589e-01   1.2520583e-01  -1.8677185e-01  -6.8818160e-01   3.6286030e-01  -2.0624935e-01   5.5233717e-01  -5.7933780e-01  -6.9139342e-01  -4.3365350e-01   6.5399967e-01  -8.5306504e-01   3.3256176e-01   9.9816073e-01   7.5913056e-02  -8.2040977e-01  -5.9774378e-02  -4.7898875e-01  -7.5414163e-01   8.1316094e-01  -2.6888032e-01   1.7046915e-01   5.4537055e-01   3.1597470e-01  -4.6547556e-01   4.3357804e-01  -5.4765768e-01  -7.2229153e-01   9.4123788e-01  -4.2006381e-02  -4.2236780e-01  -9.0118147e-01   3.2080101e-01   3.9316029e-01  -1.1805147e-03  -1.7570502e-01  -7.4047572e-01  -8.1221706e-01  -2.7639179e-01   4.4969208e-01  -8.5788464e-01   3.2834972e-01  -7.6435697e-03  -2.2688089e-01   9.5777448e-01   6.8691237e-01  -6.6375501e-01  -9.5534184e-01   2.9113430e-01  -4.4421897e-01  -5.9033246e-01   3.7734154e-01  -6.5150678e-01   2.2976349e-01   1.8992477e-01  -9.2356894e-01  -2.5859473e-01  -2.9725769e-02   3.7986874e-01   3.4059495e-01   7.5184341e-01  -5.3577619e-01  -8.4266752e-01  -6.8116795e-01  -7.0787521e-01   2.1303114e-01  -1.2066538e-01   4.0624358e-01   1.0560963e-02   1.3875150e-01  -9.3387792e-01   2.3449955e-01   9.6371377e-01   2.6217104e-01   5.6895524e-01   3.8071081e-01   4.7139944e-01   8.3204650e-01   7.2425129e-04   5.5366404e-01   4.1357556e-01  -6.1762248e-01   2.7282684e-02  -4.1885180e-01   1.7761306e-01  -2.0296645e-01   6.5533468e-01  -7.1113759e-01  -5.9169468e-01   7.1283004e-02  -7.8431651e-01  -4.2259031e-01  -7.8388165e-01  -1.6159131e-01   8.5869468e-01  -7.2049938e-01  -4.0140329e-01  -9.6568778e-01  -1.9797921e-01  -4.3748320e-01  -9.9466879e-01  -4.3550680e-01   1.2231766e-01  -1.2986729e-01   1.0812708e-01   7.4254863e-01  -3.3134688e-01   9.7538262e-01   3.6286621e-01   6.0673733e-01   2.3715048e-01  -6.8164197e-01   4.9811338e-01   8.2342144e-01   3.3204517e-01   9.8140961e-01   5.5062087e-01  -1.8454558e-01  -3.6612893e-01   1.5543590e-01  -3.9461068e-01  -5.9660191e-01   8.9489962e-01  -9.7282253e-01  -5.0674988e-01  -6.1044298e-01   5.2524032e-01  -5.4286499e-01   1.5004053e-01  -2.1019677e-01   3.0498045e-01  -6.4904466e-01  -4.5414314e-01  -2.5458755e-01  -1.5062690e-01   4.1977822e-01  -3.9833717e-01  -6.1952617e-01  -6.1852444e-01   4.5673895e-01  -9.1286265e-01  -5.1320392e-01   4.2595250e-01   2.6322555e-01  -3.1853651e-01   2.7472712e-01  -5.0351780e-01   9.3355918e-01   1.9023307e-01  -2.8160359e-01   1.2522507e-02  -2.8309105e-02  -6.0832865e-03  -9.6229932e-01   7.8087252e-02  -3.7706403e-01  -9.0963405e-01  -7.0339544e-01  -4.1619870e-01   6.3877346e-01  -4.8221030e-01  -4.6133114e-01   9.0443956e-02  -7.8790380e-02   5.9388860e-01  -4.6433594e-01  -6.7054931e-01   7.2804610e-01  -9.0298942e-01  -7.3219228e-01   4.8434181e-01  -8.5765199e-01  -1.3285994e-01  -3.7413756e-01   4.9068040e-01  -8.9086707e-01  -4.5476938e-03   2.6378251e-01  -1.3465773e-01  -9.6920125e-01   5.2803132e-01  -2.5374331e-01  -7.7105318e-01   7.1301246e-01   6.4833149e-01   6.9439458e-01  -5.2699410e-01   9.3362302e-01   9.6468342e-01   7.3691055e-01  -2.1283220e-01  -8.8502495e-02  -8.7666203e-01   5.1990731e-01   2.1782206e-01   6.8217845e-02   1.6375156e-01   3.7070437e-01  -2.5461683e-01   5.4174601e-01  -6.7702323e-01  -7.1856144e-01   8.5751449e-01   4.6255649e-01   3.2325254e-01   3.1296986e-01   7.6615390e-01  -3.7339925e-01  -8.5898440e-01  -6.2090265e-01  -8.4400031e-01  -3.1267968e-01  -1.9183381e-01  -4.5938733e-01  -8.0245304e-01   3.1181658e-01   7.6747300e-01  -3.0966074e-01   4.5855250e-01  -3.7507813e-01  -2.2560712e-01   4.7851558e-02  -2.4238022e-01  -8.2961934e-01  -4.9712929e-01  -1.1478103e-01  -7.8589088e-01   2.3173435e-01  -9.9632621e-01  -7.9849280e-01   8.8795947e-01  -5.6405232e-01  -4.7171863e-01   7.9202555e-01   3.4464158e-01  -9.1959862e-01   2.3975757e-01   7.9635016e-01  -7.0001498e-01  -4.3369171e-01   7.6962684e-01  -3.2677093e-02  -1.1728338e-01  -1.1902050e-01   1.8398527e-01  -8.2576430e-01  -9.2880426e-01  -5.6849553e-01  -6.0193401e-02   7.0637923e-01   7.8408564e-01  -1.0988428e-01   9.2569907e-01  -7.6276687e-01  -7.8560071e-01   4.8254799e-01   7.1612610e-01  -9.6569676e-01  -1.2906267e-01  -7.5474657e-01  -7.7131223e-01   5.7903586e-01  -1.0958280e-01  -3.1062516e-01   8.2249670e-01  -4.1353868e-01  -8.3561860e-01  -9.0525432e-01   7.7655743e-01  -3.0973469e-01  -9.2782364e-01  -5.0732400e-01   1.2154827e-01   7.8683537e-01   5.5245125e-01  -3.4288473e-01   1.6514911e-01  -2.0930408e-02   2.9869685e-01  -6.6584586e-01   1.1522801e-01   6.8023323e-01   9.2194104e-01  -8.1986556e-01  -9.5133028e-01  -4.8476878e-01  -7.7596936e-01   4.0257579e-01   5.8096642e-01  -1.6655393e-01   8.5275113e-01  -2.1383746e-01   4.7988124e-01   6.7153838e-01  -5.4043779e-01   7.5069451e-01   5.0342365e-01  -7.2306130e-01  -9.2303494e-02   8.7484845e-02  -4.5588321e-01  -6.3882902e-01  -3.2116251e-01   3.8436624e-01   9.1121962e-01  -7.6184238e-02  -1.1978321e-01   2.7446421e-02  -5.3016749e-01  -5.9804024e-01   8.1528907e-01  -7.5732592e-01  -2.2263323e-01  -6.5891696e-01   2.7736701e-01   3.4958119e-01   5.1890181e-01   9.0911971e-01   1.0923003e-01   1.8490157e-01   5.4845380e-01   4.1626641e-01   7.5861488e-01  -6.1775451e-01   3.2418286e-01  -2.4004317e-01  -2.8981951e-02   4.2548711e-01   5.0603388e-01  -7.2544010e-01  -1.9601986e-01   9.5387781e-01   8.9892789e-01   3.0164448e-01   7.8398249e-01  -3.2657205e-01   3.3234983e-01  -4.5022914e-01  -6.7134927e-01  -2.7752461e-02   1.6717136e-01   4.5576214e-02  -9.6740571e-01   7.4670565e-01  -5.2324010e-02   9.5892956e-01  -8.9749343e-01  -9.4884239e-01   1.4807958e-01   5.7282915e-01   7.1865966e-01   5.3194902e-01  -3.3814619e-01  -8.2272918e-01   7.3728908e-01   5.4261095e-01   1.7162496e-01  -9.2037975e-01  -8.4863446e-01  -7.8303434e-01  -4.4374517e-01   9.1102528e-01   6.9960198e-01  -7.5051191e-01   1.4198921e-01   2.3630255e-01  -4.4872029e-01   2.9610683e-01   2.1286504e-01   3.4886983e-01   9.1653812e-01   7.7674104e-01  -1.8918448e-01   1.7924264e-01  -2.3883214e-01   2.1752915e-01   8.5690278e-01   6.6899156e-01   2.6371022e-01   6.1115989e-01   9.7416038e-02   7.4591998e-01  -1.7937945e-01   8.1581055e-01   6.6843622e-01  -5.8367136e-01   4.8350473e-02  -2.2379343e-01   4.5900409e-01  -2.6623390e-01  -4.4599974e-01   5.6553365e-01  -6.8287919e-01  -4.3878822e-01  -5.9855696e-02   8.5757534e-01   7.1920493e-01  -9.3564231e-01  -6.9226114e-01  -4.2644317e-01  -9.0962247e-01  -6.1382994e-03   4.9304184e-01  -1.3629590e-01   5.8895898e-01   9.4288760e-01   5.1996714e-01  -6.9836975e-01   7.5206570e-01   5.7093756e-01   4.6782509e-02  -3.5904877e-01  -1.0327932e-01  -9.6617019e-01   6.1507134e-01   4.3760914e-01   7.7182491e-01   9.4682803e-01  -2.6482454e-01  -6.2082446e-01  -1.4435918e-01   7.6077014e-01  -9.3427975e-01   5.2149100e-01  -4.5937408e-01   4.0466136e-01   9.0520396e-01  -1.0272507e-01  -4.4737669e-01  -6.4744115e-01  -5.7357997e-01  -4.7156301e-01   2.3059089e-01  -3.1679303e-02  -4.7840215e-01  -1.2864342e-01   5.4183086e-01   1.8291153e-01  -7.5703944e-02   4.0121371e-01   6.0783275e-01   6.7345229e-01   4.3968448e-01   5.3931449e-01   9.5834035e-01   3.8910020e-01  -6.0585556e-01   2.7071885e-01  -7.7565134e-01   9.0690130e-01  -2.6301691e-01   9.1818843e-01  -5.5684407e-01  -6.0191262e-01   1.6381730e-01   6.1457541e-01  -2.8688820e-01   4.8739854e-01  -8.0079269e-01   8.5182294e-01   9.3236399e-01  -5.6497669e-01   7.9165463e-01  -2.8485435e-01   2.4289615e-01  -3.4105157e-02   4.2643111e-01   2.5378536e-01   2.1942106e-01   1.6846290e-01   8.7446883e-01  -7.6892034e-01   3.7398201e-01  -5.6719978e-02   8.9325850e-01  -3.2913819e-02   5.9135454e-01  -1.6046102e-01  -1.3369684e-02  -9.8264450e-01   7.2692977e-01   3.0674672e-01  -8.1345739e-01  -4.4785564e-01   1.5792660e-01   8.9500666e-01  -7.4575024e-01   7.3324448e-01  -4.3054276e-01   7.3649445e-01  -5.4301706e-01  -3.5529500e-02   2.8789216e-01   6.6931961e-01  -4.3826354e-01   4.0601096e-01   3.7358950e-01  -9.8118250e-01   1.3709984e-01  -6.1052350e-01  -7.3788979e-01   3.3264546e-01  -5.8245980e-01  -1.9989555e-01   3.4672123e-01  -1.4477732e-01  -6.8599954e-01  -5.8665190e-01   8.2111863e-01  -3.5890529e-01  -7.0787522e-01   9.9760601e-01   7.5969748e-01   1.5767643e-01   4.2409681e-02  -8.1492367e-01  -6.7983745e-01  -1.0954874e-01  -8.4050974e-01  -6.0621373e-01   8.8316355e-01   9.0515392e-01   6.9276838e-01  -9.4566094e-01  -2.5614236e-01  -5.4276357e-02  -2.3470938e-01   1.2727777e-01   4.4085790e-01  -8.8182771e-01   6.2644414e-01  -7.2283645e-01   5.0377236e-01  -1.9191343e-01   6.6713645e-01  -7.0237099e-01   2.1579635e-01   3.7366118e-01  -6.7063075e-01   2.3797134e-01  -5.6642139e-02   4.5111485e-01   1.3561934e-01  -4.6727354e-01  -6.8577238e-01   3.2494444e-01   4.2898845e-01   7.7885851e-01  -9.5281681e-01   5.0113164e-03   5.3853847e-01  -9.4249155e-01  -8.7627578e-01   2.8099488e-01  -9.2853614e-01  -9.0121254e-01   1.4193474e-01  -2.8597634e-01  -8.1734417e-01  -4.0020529e-01  -1.5440976e-01   7.1158737e-01   5.1979950e-01  -7.0467182e-01  -3.0470921e-01   8.2211514e-02   8.4331461e-01   8.4962017e-02   9.7588160e-01   2.4441421e-01  -1.4144587e-01  -1.5185153e-01  -9.2903650e-01   5.3598346e-01  -3.0312709e-01   2.5738864e-01   6.0821392e-01  -1.0730785e-01  -2.3327179e-04   6.0511109e-01  -6.3541583e-01   7.2789364e-01  -9.3085178e-01  -9.3612271e-01   8.5904427e-01   6.7483621e-01  -4.2896346e-01  -3.2156812e-01  -5.3936428e-01  -9.8968073e-01   2.1713158e-01  -8.7988846e-01   3.8987520e-01   8.0445982e-01   7.2345105e-01  -3.9327871e-01  -9.0433786e-01   9.6708436e-01   9.3579392e-01  -2.3239342e-01  -3.6730096e-01   8.8299640e-01   1.4356711e-01   3.4974184e-01   4.8589622e-01   5.4790209e-01  -9.9900422e-01   2.5124051e-01  -7.1016140e-01   1.7195331e-01  -9.9383485e-01   9.6819694e-01  -9.6229902e-01   2.3428371e-01   9.5150053e-01  -2.2470715e-02   4.8284881e-01   1.8691285e-01  -6.9297941e-01  -7.1062896e-01  -1.9397208e-02   8.0070061e-01  -4.7641183e-02  -6.1770109e-01   5.8422785e-01   3.8470194e-01   7.2581661e-01   9.2685725e-01  -5.3479780e-01  -3.2486356e-01   1.9191906e-01   6.8870987e-02  -2.0908577e-01   5.8409201e-01   8.7509436e-01   4.7708522e-01   8.9114624e-01   8.8557398e-01   9.3809536e-02   4.8997659e-01  -5.4029732e-01  -8.7309851e-01   8.9533711e-01  -5.7422361e-01   2.1682088e-01  -5.6167479e-01   6.6408075e-01   4.0805762e-01  -5.1713932e-01   6.4382232e-01   6.6857970e-01  -3.4594335e-01   9.3333775e-01  -7.4287230e-01   1.8713719e-01   2.0199878e-01   3.8355313e-02  -2.4166141e-01   7.5603385e-01  -1.5449388e-01   7.1859612e-01  -7.5469261e-01  -3.2358854e-01  -5.9673302e-01   2.7246188e-01  -3.9055943e-01  -2.7205213e-01   5.8214088e-01   2.3963156e-01   4.7183059e-01  -5.4988240e-01   7.8920068e-02  -2.5408576e-01   5.6114328e-01   1.3934844e-01   3.9089588e-01   7.2586510e-01   8.5234482e-01  -4.9179366e-01  -1.8653591e-02   6.8921450e-01  -4.6105982e-01  -1.9581457e-01   1.5178333e-01  -2.1428566e-01  -5.5254437e-01  -3.6105458e-01   5.2901949e-01   2.2537119e-01   4.2076514e-01   6.2945996e-01   3.4953276e-02   7.3533973e-01  -9.5072037e-01  -1.9786590e-01  -3.8387980e-01  -1.6170444e-01   6.3689926e-01  -3.8400158e-01   3.3762431e-02  -9.9863739e-01   5.4972801e-01   1.1389181e-01   3.7908483e-01  -2.5857036e-01   8.5252791e-01  -5.1764102e-01   3.3079613e-01   8.0796767e-01  -6.0057982e-01  -5.3775478e-02   2.1584340e-01  -2.4288063e-01   1.3845304e-01   2.8802851e-01  -8.1946464e-01   5.3270176e-01  -7.0587582e-02   5.4444788e-01   9.1697418e-01   8.2289422e-01  -9.6774179e-01  -5.1940327e-01  -2.1305612e-01   3.6890015e-01   1.3084813e-02  -9.8694452e-01   7.8141286e-01   7.4058376e-01   7.5727349e-01  -4.0781284e-01   4.1366600e-02  -5.8935580e-01  -9.3137041e-01  -5.1883874e-01  -4.3020434e-01  -3.5644593e-01   2.9873175e-02   4.8012806e-01  -9.3117291e-01  -3.6212524e-01  -3.2844308e-01   3.5080663e-01  -9.6996629e-01  -3.9727432e-01   9.9600723e-01  -9.4669459e-01  -8.7983050e-01   3.6714146e-01  -8.5366563e-01  -7.3373350e-01   4.6289426e-01  -3.3908481e-01  -3.7318377e-01  -9.3328473e-01   4.5818163e-01   2.1744921e-01  -4.2159133e-02  -8.2740070e-01  -3.2295267e-01   5.3282120e-01   3.7000059e-01  -9.3779242e-02  -8.1167772e-01   2.6058980e-01   5.7057660e-01   4.2555225e-01  -6.0328218e-01  -6.5790380e-01  -8.6162783e-01  -6.5225098e-01   4.4181347e-01   3.5808821e-01  -2.7862098e-01   4.9806345e-01  -4.2678577e-01  -6.0729447e-01  -8.3519654e-01  -5.4225225e-01   7.7098924e-01  -7.0335809e-01   5.1813337e-01  -7.5879587e-01   6.8917520e-02  -8.1628533e-01  -3.2354266e-01  -8.2662736e-01   4.2093786e-01  -1.8113318e-01   1.6720574e-01  -4.6735954e-01  -4.1681547e-01  -1.8126882e-01   4.9899168e-01  -7.4727043e-01   4.1724869e-01   2.7385127e-03   5.2592096e-01   1.0198153e-02  -3.5057295e-01   9.1834028e-01   6.2345662e-01  -5.4846265e-01  -2.3515798e-01   5.2659650e-01   4.3886669e-01  -7.6305193e-02  -3.8945550e-01   1.1710938e-02   7.3360448e-01  -8.3832883e-01  -5.2017574e-01  -8.2790470e-01  -7.0127045e-01  -3.4513379e-01  -3.2389909e-01   5.3537208e-01   9.0299325e-02   5.5310666e-01   6.7888831e-01  -1.6218123e-02   2.4820538e-01   2.4940267e-01   8.4781497e-01  -7.0295052e-01   9.1052260e-01   9.4358721e-01  -4.8160401e-01  -9.9259082e-01  -5.2782443e-01   1.3209255e-01  -7.7226522e-01   5.9926890e-01   3.4279848e-01   8.3822372e-01  -2.6424641e-01  -8.5906893e-01   5.1664909e-01  -9.2403876e-01   8.7810518e-01  -7.8177803e-01  -2.1270640e-01  -4.4357342e-01  -9.1570500e-01   5.2442763e-01   6.3261180e-01  -8.1294648e-01   1.9781861e-01
