   9.1470725e-01  -4.6867970e-01   6.3692381e-01  -7.2352663e-01  -9.0141941e-01  -1.3889314e-01  -2.6759197e-01   5.9780297e-01   1.2112950e-01   7.3851317e-01  -9.1735330e-01  -3.5304359e-01   2.6504343e-01  -7.0684526e-01  -7.0049855e-01  -9.2071298e-01   9.0966217e-01   2.3430831e-01  -1.3992832e-01  -7.0623012e-01   5.5869766e-01  -6.8012754e-02  -7.7434268e-01  -1.3873307e-01   6.1764778e-01  -9.5480706e-01  -7.1454605e-01  -5.8917034e-01  -2.3338434e-01   9.5325190e-01  -1.4621079e-02   1.5163313e-01   9.5904883e-01  -3.5657733e-01   5.7956340e-01  -5.9473911e-01  -8.2933581e-01   9.9932962e-01  -9.8557368e-02  -9.4204320e-01  -1.6111958e-01   8.2244897e-01  -6.8419748e-02  -8.0413068e-01  -1.5426075e-01   5.5051683e-01  -1.3172480e-01  -2.4613612e-02   8.0892375e-01  -7.3279623e-01  -5.3170472e-01  -2.2863553e-01  -4.2323450e-01   2.6337777e-02   1.5452242e-01   5.9257338e-01  -8.3063671e-01  -2.7549530e-01  -6.0821632e-02  -5.4841399e-01   3.3805421e-01  -7.3711564e-01   1.5601609e-01   4.5790918e-01  -9.9165971e-01   8.2205390e-01   4.6956718e-01  -2.1607049e-02   2.1433926e-01   5.1835173e-01  -6.2540133e-01   8.7876753e-02  -5.8540037e-01  -3.2466792e-01  -7.6582468e-01  -9.3833568e-01  -8.0443232e-01   7.7699130e-01   7.5273164e-01   7.7607610e-01   7.7180754e-01   5.9642983e-01  -6.8162577e-01   9.3460617e-01  -2.9611115e-01  -7.1550812e-01  -8.9511729e-01  -4.5497388e-01  -3.4317936e-01   8.4811919e-01  -7.5560289e-01  -3.1197399e-02   2.9442357e-02  -6.9852078e-01   7.4377551e-01   8.5452234e-01   4.4006698e-01  -2.0435460e-01  -3.6006831e-01   2.3336206e-01  -5.0046690e-01   4.5009051e-01   9.3102752e-01   5.9350704e-02  -4.9240853e-01  -2.2540474e-01  -2.0941857e-01   7.0844552e-01   1.9235913e-01  -6.1598676e-01   1.4765649e-01   2.9703119e-01   3.5499524e-01  -1.9243890e-01   6.8620235e-01   5.2513011e-01   8.8237217e-01   7.0870858e-01  -4.3918826e-01  -8.9484498e-01   2.6882156e-01   2.0940812e-01   1.0709403e-01  -1.9202887e-01  -8.6602699e-01   9.8847437e-01  -5.1826725e-02   8.7339033e-01  -6.8501407e-01   7.6484665e-01  -7.5559237e-01  -9.7247864e-02   2.1555360e-01   5.4131064e-01  -5.5752113e-01  -9.0771438e-01   9.7956307e-01   1.8858211e-01  -1.7846711e-01  -1.4973700e-01   3.2356858e-01   8.5179487e-01   9.0780280e-01  -2.9680377e-01   7.0331145e-01   1.2554425e-01   3.7706403e-01  -6.7860461e-01   2.9279302e-01  -5.1054813e-01   4.6896095e-01  -8.7689682e-01  -4.9273764e-01   6.0466333e-01  -7.6150367e-01  -1.1998612e-01  -8.7202997e-01  -1.5070751e-01   5.6473326e-01  -6.9501602e-01  -5.5065758e-01   4.7542008e-01   8.7625768e-01   6.9388110e-01  -7.2352068e-01  -5.2711998e-01   4.9471417e-01  -9.3869401e-01  -5.7675590e-01  -8.6515092e-01   9.8539805e-01  -3.7446051e-01   5.4790680e-01   6.5470708e-01   2.2290603e-01  -9.6905676e-01   1.9846919e-01   7.1413756e-01   1.3667474e-01   4.0192861e-01  -6.3642687e-01  -6.4437231e-01  -4.2841106e-01  -8.4747823e-01  -4.2058494e-01   5.9209742e-01  -1.4559146e-01  -6.4489166e-01  -6.6133420e-01  -6.6811879e-01   8.8236620e-01   3.5393189e-01   4.6974013e-01   1.9513714e-01   4.4395859e-01  -6.3165645e-01  -6.3802528e-01  -3.3884674e-01  -7.1928881e-01  -4.3386795e-01   8.8225511e-01   7.5691495e-01  -8.9449345e-01  -5.5042108e-01   6.9803117e-01   2.4334180e-01   2.0850861e-01   8.4773666e-01  -7.1107116e-01  -2.4774051e-01   2.9682846e-01   2.2508959e-01   6.9667702e-01   4.3193181e-01   3.6718606e-01   5.5724141e-01   8.7172620e-01   4.8282461e-01   9.4386998e-01  -6.9623380e-01  -9.6627280e-01  -1.1206906e-02   2.5682240e-01  -4.2477155e-01  -1.1723715e-01  -3.5646810e-02  -6.7656053e-01  -2.2619323e-01   3.0786208e-01   4.3977263e-01   2.3839501e-01   1.5563795e-01  -8.4779219e-02   5.6498986e-01  -2.2626828e-01  -1.4414388e-01  -8.4163603e-01   5.9371542e-01  -9.5413410e-01   7.2402010e-01   5.4429355e-01   4.9411569e-01   6.5909885e-01   9.0959984e-01   6.5141926e-01  -5.7447125e-01  -8.9372318e-01   5.7467011e-01  -1.1542514e-01  -4.9200601e-01  -6.2606640e-02   6.4518986e-01  -9.2122113e-01  -2.1594085e-01   7.8037698e-01  -7.9531438e-01   2.6764401e-01   7.2250803e-01  -5.7274225e-01  -4.8436843e-01  -8.0682290e-01  -5.2884251e-01  -9.8234183e-01  -6.0819575e-01  -1.6324782e-01  -4.8805175e-01   5.5601560e-01  -2.8859815e-01  -6.9664132e-01   5.8531835e-02  -9.4393238e-01   4.6908818e-01   2.8011216e-01   9.0887898e-01  -8.4948303e-01  -7.0574695e-01  -9.5900310e-01  -1.9792598e-01   1.7523407e-01  -7.5226744e-01   7.1322141e-01  -5.2108980e-01  -7.7751680e-02  -1.4868439e-02  -3.6966643e-01  -1.9998121e-01   7.8587333e-01   3.5309213e-01   8.7624761e-01  -7.3344333e-01   3.6133616e-01   5.8534074e-02   2.6973418e-01   3.5647746e-01  -6.3921662e-01   5.6680521e-01  -8.6633055e-01  -5.7235004e-02   2.0148713e-01  -2.8551449e-02  -4.4430937e-01  -7.8018962e-01   5.6922875e-01  -7.0583345e-01   2.2976397e-01   3.2063592e-01  -4.7009570e-01   8.4182123e-01   1.1899079e-01  -2.1772435e-01   1.2259349e-01  -5.4116141e-01   7.6379484e-01  -1.7382682e-01   7.6563688e-01  -6.2772602e-01   1.5094357e-01  -9.7642368e-01  -6.4023971e-01  -8.4377899e-01  -2.2634760e-01  -2.7573346e-01   7.2226885e-01   7.8064638e-01  -1.7030788e-01  -4.5753090e-01  -6.9765037e-01  -9.8242120e-01  -1.3231080e-01  -1.4075542e-01  -8.7065654e-01  -9.3099868e-01   1.0288059e-01   3.4454500e-01   5.2153045e-01   5.5008966e-01  -5.8825176e-01   9.9126410e-03   1.7456858e-01   4.7331877e-01   3.1668921e-01  -8.4147628e-01   8.2170241e-01  -3.7787682e-01   6.5059921e-01   8.3735794e-01   3.1269428e-01   3.2849178e-01   3.3294529e-01  -4.0019547e-01   4.5352715e-01  -6.0934845e-02  -2.1331211e-01   8.4142860e-01  -5.7265004e-01  -6.2247905e-01  -3.2867525e-01  -7.8053256e-01  -8.0556490e-01  -8.1762321e-01   1.1663458e-01   8.3052431e-01  -2.2995624e-01  -4.5354262e-01   1.7411986e-01  -8.0390571e-01  -6.9881341e-01   8.6983857e-01   9.8670038e-01   1.5821045e-01   2.4788993e-01   4.7463648e-01   4.2106143e-01  -6.1430741e-01   9.9249926e-01  -1.1227967e-01  -3.1679495e-01  -7.8524090e-01   5.6776385e-01  -1.5105651e-01  -9.9405051e-01   9.2996328e-01   9.8120352e-01  -9.9615727e-01   4.9859624e-01  -6.4219046e-01   7.8466526e-01   6.7767022e-01   8.1234632e-01   2.5064539e-01   6.3625471e-01   3.3918331e-01   7.4947752e-01  -8.1558245e-01   5.7809849e-01  -9.0030203e-01   1.8351670e-01  -4.1507645e-01  -4.9635133e-01   2.7727350e-01   2.7540636e-01  -5.3316724e-01  -7.0139384e-01   4.2685189e-01  -7.3800321e-01   8.6385591e-01  -2.4809794e-01  -1.7825468e-01   9.6647315e-01  -7.5508995e-01   1.8218908e-01  -7.2190586e-03  -7.6794825e-01  -8.0878342e-01  -4.6272786e-01  -8.4164838e-01   7.2929468e-01  -1.1077414e-01   9.6341005e-01  -2.1065978e-01  -9.7819428e-02   4.4042725e-01   3.2494089e-01   4.9940738e-01   6.6982235e-01   4.8690103e-01  -6.6296432e-01   8.8449912e-01  -8.8331485e-01   3.8471743e-01   8.5116066e-01  -5.1955569e-01   8.4565614e-01  -1.0393510e-01  -1.3756898e-01  -5.1878239e-01   7.2218984e-01  -1.0953826e-01   4.1346796e-01   8.5428208e-01  -7.6805277e-01   8.1475855e-01  -3.1516982e-01  -9.0208269e-01  -9.2302290e-01  -3.5589834e-01  -1.6601609e-01  -9.5598468e-01   9.4977937e-01   8.2142152e-01   3.5967127e-01   6.5770977e-01   6.5254561e-01   5.1015892e-01   5.6718582e-01  -5.7140453e-01   1.9009977e-02  -2.9431309e-01  -4.3266547e-01   9.9957596e-01   5.7015636e-01   7.0320446e-01  -9.3125359e-01  -9.8958792e-01  -8.5511144e-01   8.6665410e-01  -2.2590701e-01  -7.2530176e-01   2.4520457e-01   3.5085357e-01   7.5139677e-01   4.1665293e-01  -5.7652244e-01  -2.9280082e-01   2.0530028e-01  -8.8816381e-01  -7.6875628e-01   4.8468448e-02   4.5106175e-01   8.6450994e-01   1.4652069e-01   8.7288140e-01  -8.6849658e-02  -3.9662887e-01  -2.1703411e-01  -8.4262619e-01   8.0740461e-01   9.8684972e-03   2.7968964e-02   3.9810923e-01   6.6827458e-01  -7.8214948e-02  -8.6948434e-01   7.9655994e-01  -1.9055227e-01  -8.7347961e-01  -5.1674165e-01   4.6219091e-01   1.9256898e-01  -2.1665772e-01  -5.3585612e-02  -7.3936077e-02  -6.5335180e-01   9.7360281e-01  -6.2295042e-01  -1.5038555e-01   5.3271487e-01   3.5180668e-01   7.2341548e-01   7.9187125e-01   9.0653082e-01   4.6063650e-01   6.3331053e-01   7.8188682e-01   9.0327644e-01  -2.7992949e-03  -8.1271826e-01   1.7068223e-01  -8.2002583e-02   1.9051213e-01   4.4561897e-01   6.9523733e-01   8.2623043e-01   6.2381546e-01   3.6779407e-01  -4.7083303e-01  -4.4096863e-02  -7.4644734e-01  -2.7090842e-01  -9.6218307e-01  -4.2042635e-01  -2.0253303e-01   1.5236285e-01  -8.5262010e-01  -5.5965736e-01  -8.5571922e-01  -6.3258045e-01   7.5232137e-03   1.4617389e-01  -6.3404962e-01  -3.6328259e-01  -2.6123036e-01   8.4792187e-01  -5.4655826e-01   6.4730149e-01   5.8944162e-01   1.5851959e-01   7.6788663e-01   4.8010265e-01  -3.4248205e-01  -1.3795724e-01  -6.8329239e-01  -6.9100436e-01   9.5867744e-01  -1.9735398e-01  -7.5398762e-01  -8.7329882e-01  -7.8397479e-01   7.7687733e-01   1.6163782e-01   8.8719657e-01   7.5342167e-01  -6.4043696e-01   6.9417367e-01   5.3639074e-01   4.8211749e-01  -9.9457368e-01  -2.8843748e-01   2.2445120e-01  -7.3401082e-02  -5.8563678e-01  -5.6552662e-01   9.7682386e-01   9.9860772e-01  -9.0787210e-01  -1.3022568e-01  -1.0863139e-01  -1.5205631e-01   4.9721544e-02   5.4683269e-01  -2.3020256e-01  -7.1205882e-01  -7.5237785e-01   6.8426903e-01   7.1845611e-01  -8.9059005e-01  -7.5369833e-01  -8.4372496e-01  -9.9034471e-01   3.8367617e-01   3.8012404e-01  -3.9216884e-01  -9.7707806e-01  -7.5759125e-01   7.7775427e-02   4.2723812e-01   4.3329499e-01   4.6976121e-01   9.2765659e-01  -6.8372714e-01   3.2598101e-01  -5.4816014e-01   5.6441095e-01   2.9975290e-01  -8.9753634e-01  -7.5138846e-01  -1.4645210e-01   2.6805038e-01   4.3459112e-01   3.9989577e-01  -7.5078795e-01   8.6994683e-01   6.6898429e-01  -1.1608773e-01   6.4023384e-01  -1.0626239e-01   6.3253205e-02   1.5717338e-01   3.2163133e-01   2.0616465e-01  -3.0386181e-01   9.6473991e-01  -3.6593726e-01   9.6850276e-01  -4.9047617e-01  -2.2923646e-01  -2.9428496e-02   7.7312715e-01  -1.1584767e-01   7.2799082e-01  -7.8580921e-01  -1.1661865e-01  -2.1008952e-01  -8.2755174e-01  -6.1614786e-01  -4.1382926e-02  -8.2855804e-01  -9.2817318e-01  -2.2819212e-01   8.1489149e-01  -3.8541315e-01  -9.4012389e-01  -5.9454865e-01  -5.8393789e-02  -7.4618280e-01  -2.6237156e-01   4.4346292e-01  -3.0571999e-01  -9.2565746e-02   1.9267985e-01   9.4664376e-01  -8.0803107e-01  -7.1156562e-03  -6.3085426e-01   6.5918486e-01   3.1701211e-01  -4.5775636e-01   1.2959118e-01   7.3334067e-01  -4.4365151e-01   7.7101454e-01   8.9115719e-01   1.3818521e-01   8.8285960e-02  -6.2296957e-01   2.1096404e-01   2.0875457e-02   8.4042850e-02  -2.2728999e-01  -3.9640448e-02  -1.5978736e-01   2.4964581e-01  -2.9693292e-01  -1.9381338e-01   1.7280981e-03  -6.6161214e-02  -9.7159929e-01  -4.2470023e-01  -4.2177435e-01  -7.1844895e-01  -3.1591189e-01   4.6552129e-01  -5.3138783e-01  -4.2999930e-01   6.3979476e-01  -9.1718612e-01  -9.5624712e-01   3.5385810e-01   4.9683013e-02  -2.0006278e-01  -4.1645295e-01   4.8075317e-01  -4.6298693e-01  -6.4195261e-01  -1.5077835e-01  -1.8519506e-01   7.1369521e-03   4.6330742e-01  -5.5359611e-01  -9.6674464e-01   9.5299544e-01  -2.3977329e-01  -1.6244681e-01   5.2185111e-02   4.2019594e-01   2.7224691e-01  -8.7055442e-01   9.9514863e-01   9.9765439e-01  -2.5328028e-01   2.3705985e-01   6.8822538e-02  -3.7663654e-01  -6.5890605e-01  -4.4853189e-01   7.0227218e-01   3.6483202e-01   6.5758680e-01   3.6381842e-01   3.2100134e-01  -4.9287418e-01  -9.8250114e-01  -5.7231704e-01   8.2022672e-01   8.2416823e-01   8.1732102e-01  -5.6780957e-01  -6.0566593e-01   3.1315759e-01   9.4864384e-01  -8.2064597e-01   7.3018226e-01  -4.4676724e-01  -1.1693678e-02   7.1251829e-01   6.9065022e-01  -1.9035946e-01   3.2786194e-03   3.8458883e-01  -2.1433004e-01   9.2576974e-01   2.4773542e-01  -3.3742633e-01  -8.8171821e-01   4.5604402e-01   6.4546078e-03   5.3742002e-01   3.7200810e-01   7.6395187e-01   1.3672626e-01   4.8494979e-01  -5.6128756e-01   4.7801925e-02  -5.4029356e-01   4.6206054e-01  -6.1531481e-01  -4.7110683e-02  -3.7866356e-01   5.5428119e-01  -4.5429688e-01  -3.4780911e-01  -3.4902096e-01   8.3999080e-01   8.5883591e-01  -7.7335649e-01   7.0987106e-01  -9.8270011e-01   1.1268882e-01  -3.5448203e-01   5.4369804e-01   5.2975904e-01  -2.8357780e-01  -4.8537504e-01  -5.3879616e-02  -6.8072419e-02  -6.6494706e-01   9.4715038e-01  -2.7916254e-01  -7.8366441e-01  -7.9031264e-02   1.5825539e-01  -2.3510496e-01   4.7155082e-01   4.0108452e-01   4.0548258e-01  -5.0526726e-01  -8.2243759e-02   2.9815191e-01  -9.8376161e-02  -7.5487024e-01   3.7806058e-01  -6.2104134e-01  -6.7787259e-02  -4.2738082e-01   8.5726643e-01  -7.8494850e-02  -5.0981892e-01   3.9807672e-01  -8.0453888e-01  -1.3630944e-01   1.3511463e-01   3.9053028e-01  -7.4710204e-01   3.5511642e-01   4.6183094e-01   2.5574146e-01   6.7809695e-01   7.8546629e-01   6.0936436e-01   2.1831553e-02   2.4613746e-01   1.1686103e-01  -4.2408884e-01  -2.4152011e-01  -1.5644195e-02   6.6536445e-01  -6.4619666e-01   5.4041045e-01   7.8143068e-01  -2.5610730e-01  -6.0609712e-01  -7.0608790e-01   4.5772881e-01  -8.4965487e-02  -6.9932977e-01   1.4339815e-01  -8.4011563e-01  -6.0572312e-01   8.4336798e-01  -4.3036972e-01  -8.8321027e-01   5.1969550e-01  -1.5630557e-02  -8.5583897e-01   6.5173910e-01  -7.9711694e-01  -5.3973272e-02  -8.3586411e-01   2.7251430e-01  -7.7964980e-01  -2.6392259e-02  -7.1468249e-01   8.4722192e-01  -4.1318868e-01   6.0204727e-01   1.6424890e-01   4.9631325e-01  -7.9099810e-01   6.4315348e-01   1.8468608e-02  -1.4947400e-01  -5.8512873e-01   7.0092749e-01   5.0356752e-01  -6.7125084e-01   1.4834843e-01   6.4357585e-01   4.0454861e-02  -4.5280807e-01  -8.1716688e-01  -7.2539345e-02   3.0913946e-01  -4.6122979e-02   6.0913805e-01  -3.4374886e-01  -1.1811938e-01  -5.0030112e-01   3.7932144e-01   7.3159093e-01  -9.9176707e-01   8.2660469e-01   4.2777921e-01   3.4489714e-01   6.2194309e-01   9.8441064e-01   7.3258707e-01   8.6599985e-01   7.0878245e-01   2.7471753e-01   2.1891661e-01  -7.0661917e-01   5.1984928e-01   9.5740411e-01  -1.9449457e-01  -9.1546064e-01  -3.0304750e-01  -6.2349492e-01   7.1517585e-01   1.7357361e-01  -1.5728124e-01   8.4257633e-01  -2.7204743e-01   2.8092238e-01   6.6881717e-01  -4.4954737e-01  -9.0157397e-01   5.5596452e-01   1.0744532e-01   9.0752806e-01   5.5605804e-01  -1.0157109e-01   1.9665974e-01  -5.2821992e-01  -3.0246448e-01  -8.3622998e-01   8.5999262e-04  -6.9169841e-01  -7.6882495e-01  -7.3545007e-01  -8.5005417e-01  -7.3272654e-01   6.8260242e-01   3.9788533e-01  -3.5269622e-02   3.2698464e-01   5.0794093e-01   4.6098579e-01  -4.7551434e-01   5.1811795e-01  -1.9950696e-01   7.9740876e-01   7.3853483e-01  -2.1699881e-01  -1.0683315e-02   1.7083824e-02   7.6656642e-01   4.9587572e-01  -8.7400073e-01   5.8026604e-02  -5.2512601e-01   2.1275321e-01   8.2724568e-01   9.3191584e-01  -4.5532864e-01   8.6089977e-01  -8.4339986e-01  -9.5590264e-01  -2.9825939e-01  -8.1181147e-02  -5.3233423e-01  -1.0952312e-01  -8.9666025e-01   8.5645502e-01  -2.3072146e-01  -8.9864017e-01   9.2258194e-01   3.3172817e-01  -4.6353156e-01  -6.1555221e-01  -5.0200119e-01   8.4827343e-01   9.9714909e-01  -1.9429695e-01   2.4364288e-01  -9.7992464e-01   5.3414368e-01   5.5001973e-01  -6.6308600e-01  -3.6309594e-01   1.5561612e-01   6.5415513e-01  -6.6291686e-02  -2.8555528e-01   5.6192222e-01   5.2606063e-01  -8.7799139e-01  -7.9547211e-01  -7.0668279e-01   2.2282211e-01  -1.3508001e-01  -7.6918480e-01   4.1983431e-01  -2.5826111e-01   9.7476113e-02   2.9411973e-02   6.6953566e-02   5.5462863e-01  -3.7556050e-01   4.0315468e-01  -3.2904827e-01  -4.7804917e-01  -2.0438780e-01  -9.7978165e-01  -6.0276541e-01   3.6026768e-01  -5.0893178e-01  -4.7046078e-01  -6.6263916e-01  -4.9944608e-01  -9.5284239e-01   6.0906095e-01  -5.8525565e-01  -8.1168005e-01  -5.0078808e-01   1.4289050e-01   6.9334760e-01  -9.3026572e-01  -3.9744884e-01   1.2105179e-01  -8.6038186e-01
   1.2303700e-01  -7.3540519e-01  -8.4001824e-01   8.7546138e-01   7.9914356e-02   3.3264755e-01  -2.3153207e-01   2.8119532e-01   5.7744596e-01   4.1562767e-01  -1.8770966e-01  -2.5157631e-01  -4.0192053e-01   5.1142503e-01  -4.4165684e-01   2.8894760e-01  -7.8205020e-01   7.2665344e-01   5.0602228e-01   9.9126879e-01   4.4420910e-01  -5.1116955e-01   2.0159015e-01  -2.0039005e-01  -8.0952236e-01  -3.8245124e-01   7.6778016e-01   8.8904625e-01  -7.9032756e-02   9.4799044e-01   5.8320738e-01  -1.6555076e-01   8.2318125e-01   7.5750485e-01   2.9607518e-02   1.9380066e-01  -7.9126718e-01  -3.5862955e-01  -4.3477734e-01   3.3570062e-01   4.7834036e-01   6.5273211e-01   8.2790824e-01   1.7625641e-01   5.0974955e-01   2.8466076e-01   4.5130468e-01  -5.3471060e-01   5.2958483e-01  -3.5686412e-01   1.6168692e-02  -8.7967164e-01   9.2243489e-01  -8.2601856e-01  -6.0001267e-01   5.1571018e-01  -8.4193516e-01   4.7173955e-01  -5.0667370e-01   3.0972290e-01  -5.5400361e-01   1.4677859e-01   9.3562303e-01  -7.0366381e-01  -9.2173580e-01   1.4473022e-01   4.8279097e-01  -6.5725954e-01   3.4298549e-01  -5.1477384e-01   3.9050782e-02  -2.0408028e-01   9.2137431e-01   1.3593183e-01   9.3693892e-01   2.9920145e-02  -2.5747390e-01  -4.3791812e-01   1.1490102e-01   4.0490620e-01   1.2580364e-01   6.1057057e-01   6.6014002e-01   5.6861496e-01   5.9777525e-01   4.6065804e-01   5.2754533e-01   3.6518066e-01   2.2398146e-01  -9.6044823e-01   2.3656311e-01   1.6278179e-01  -7.2580730e-01   9.2011388e-01  -8.6199505e-01   1.2344938e-01  -2.9289085e-01  -5.9427978e-01   6.0260381e-01   5.8452308e-01  -5.7479822e-01  -7.1230564e-01  -8.9229399e-01   8.5200003e-01  -3.2296915e-01  -5.7002135e-01  -2.4644526e-01   5.5081855e-02  -9.2239391e-01  -8.8596895e-01   7.2787884e-01  -5.5231609e-01   2.7306970e-01  -6.0375392e-01   8.7395899e-01  -1.0117686e-01  -9.1168984e-01   1.0092479e-01  -1.6774704e-01  -5.2604424e-01  -3.0820536e-01   4.1452292e-01  -9.2571882e-01   9.6635476e-01  -2.4808697e-01   2.6781437e-01   2.0262680e-01  -6.5354897e-01  -6.9324422e-01   1.0531647e-01  -9.5946378e-02   9.9806959e-01   4.2947360e-02  -6.9201164e-01   4.1570069e-01   4.1953451e-01   3.9134338e-01  -4.7108707e-01  -7.1038864e-01  -3.1416644e-01  -9.5974346e-02   3.5122344e-01   4.7283239e-01  -7.4954214e-02   3.2075048e-01  -2.8628208e-02   1.5840286e-01  -7.3295507e-01   4.7444554e-02   8.6541826e-01   4.1920776e-01  -4.3568817e-01   2.5220603e-01  -3.4740719e-01   9.7488712e-01   7.4449646e-01   6.1885861e-02   1.2625184e-01   6.0005752e-01   8.1617053e-01  -2.7269331e-01  -5.5351459e-01   2.8018193e-02   8.6466507e-01   5.5954735e-01  -7.3941642e-01  -2.9692507e-01   8.1873469e-01   1.4435445e-01  -7.3850002e-01  -6.1995715e-01  -7.6581920e-01  -7.6745126e-01  -4.9719050e-01   7.4355592e-02   3.4541238e-01   2.3138090e-01   1.3777470e-01  -5.6934228e-02   9.7741463e-01   7.6991850e-01  -3.6302444e-01  -8.5361060e-01  -3.6388212e-01  -1.3909014e-01  -1.6136712e-01   9.5006855e-01   1.0151641e-01  -7.6267190e-01  -8.1675676e-01   2.0876265e-01   2.8373217e-01   9.1105891e-01   7.6515271e-01   7.5060473e-01   1.0428222e-01  -2.3112883e-01   4.1950670e-02  -3.3543708e-01  -1.3920683e-01  -5.8762812e-01  -2.5460967e-01   8.5192056e-01   5.5179847e-01  -7.7316255e-01  -3.1634540e-01   4.6338464e-01   5.1227525e-01  -7.4518857e-01   8.4667512e-01  -9.5059303e-01  -5.5659639e-01   2.5600732e-01   7.4058713e-01  -4.0723573e-01  -4.0655999e-01   5.5886603e-01  -1.4480559e-01  -9.0557922e-01   8.7000541e-01  -4.2724244e-01   9.0510933e-01  -6.6233581e-01   9.7509211e-01  -2.6519111e-01  -9.2179192e-01  -4.4246816e-01   3.6183662e-01   7.6995703e-01   6.1057437e-02  -5.4178956e-01  -1.0900227e-01   6.2813533e-01   5.1998049e-01   8.5891620e-01  -2.2025643e-01   6.1113149e-01   6.7284581e-03   7.3993818e-01   1.3005918e-02  -1.7822150e-02  -9.6464636e-01   9.1098364e-01  -1.6744029e-01  -3.8645589e-01   5.1095380e-01   9.4380119e-01   3.7968467e-01  -9.0600452e-01   4.9830033e-01  -8.7674362e-01   8.3788373e-01  -8.3731349e-01  -3.4364800e-01   3.0971800e-01   6.8700049e-01  -8.7121289e-01  -7.7974035e-01   7.9341435e-01  -7.4344886e-01  -7.7702715e-01   1.4376303e-01   4.0697768e-01  -7.0203881e-01   8.9971910e-01   6.3409125e-01  -4.0013496e-01  -4.3542129e-01   5.0783715e-01   4.6180382e-02   4.9974235e-01  -7.4031122e-01   2.5323274e-01  -8.1544148e-01   3.1317768e-01   4.7515033e-01   1.7710873e-01  -1.7993131e-04  -5.2594934e-01   9.5448567e-01  -7.4014474e-01  -5.7482381e-01   6.9870452e-01  -2.5098497e-01   4.7560594e-01  -7.7035227e-01   6.7217900e-01   8.0692444e-01   1.6912471e-01  -9.5425087e-02  -4.7446811e-01   6.9266250e-02  -7.4680653e-03  -6.1446343e-01  -5.4995564e-01  -4.5624555e-01   7.8804471e-01   4.6605832e-01   2.5837601e-01   2.6785447e-01   1.6344200e-01  -4.5547218e-01   9.9253274e-01  -9.1143404e-01   9.8689248e-01   9.9627881e-01  -1.4913075e-01  -7.2524413e-01   6.4102092e-01   5.8778732e-01  -7.1946679e-01   6.0368419e-01  -1.7123340e-01  -2.6929356e-01  -3.4831592e-01   8.1587790e-01   1.0939853e-01  -3.5445877e-01   7.9454008e-01   8.8145787e-01  -7.8938467e-02  -9.8973908e-01   9.0002302e-01  -3.6826343e-01  -2.0699088e-01  -9.6368912e-01   4.6364466e-01   1.7515077e-01   6.3078909e-01  -1.1927332e-01   4.8606173e-01   3.6958778e-01   3.5553239e-01  -6.8954796e-01  -3.3176562e-01   2.6547928e-01   1.9778713e-02  -4.8765909e-01  -9.0077308e-02   4.4158408e-01  -1.0386158e-01   5.7576224e-01   3.5034178e-01   7.1087806e-01  -4.6989155e-01  -7.5390903e-01   8.5853055e-01  -9.0338369e-01  -3.3418752e-01   2.2943599e-01   9.5672737e-01  -4.3539295e-01   2.5440833e-01   2.6506044e-01   9.2747587e-01  -5.0959478e-01   1.5478898e-01   6.5393530e-01   5.0796566e-01   1.8836437e-02   7.7562054e-01  -4.2844730e-01   8.7799325e-01  -7.5501464e-01   9.3547332e-01  -9.1112614e-01  -9.4920649e-02  -2.0166561e-01  -6.0220643e-01   6.7104659e-01   3.2736439e-02   6.5976641e-01  -2.8024017e-01  -6.1696122e-01  -3.0567097e-01   9.0625541e-01  -9.9941971e-01  -7.8419683e-01   1.8120480e-01   4.3314347e-02  -7.1164507e-01  -7.4668262e-01   2.8898514e-01   7.8058842e-01   9.5231045e-01  -5.2818872e-01  -9.9352999e-01  -8.5914361e-02  -8.6983238e-01  -6.6334041e-01   1.5992102e-01   7.0830215e-01   7.5188718e-01   5.0115416e-01   9.0434923e-02   3.9418828e-01   5.0678863e-01   9.2761637e-01  -7.4918955e-03  -9.4611926e-02  -9.8765691e-01   7.0525129e-01   1.1749813e-01  -5.2102539e-01   9.3392762e-01   2.6187042e-01  -9.4239221e-01   3.8490531e-01  -1.0143375e-01   9.3311823e-01  -9.7676360e-01  -8.8725852e-01  -5.3654971e-01  -3.2406641e-01  -8.2108419e-01  -4.2427144e-01   7.0720569e-01   3.7286146e-01   1.8710848e-01   6.0109719e-01  -7.2211852e-01  -1.4961022e-01  -1.3884762e-01  -6.6036419e-01  -1.8545377e-01   6.6964489e-01   3.5640333e-01  -4.9651486e-01   8.5050687e-01   6.4866466e-01  -3.7971136e-01  -3.7940349e-02  -8.3121832e-01   8.3952035e-01   6.3892269e-01  -9.6393487e-01  -1.8316452e-01  -4.6916409e-01  -9.9236155e-03   7.1874673e-02   7.4798381e-01  -5.5807518e-01   3.5180839e-01   8.3795338e-02  -8.1858326e-01   7.1211060e-01   5.0593151e-01   5.1928273e-01   7.4735898e-01   6.6301921e-01  -1.5254209e-01   2.8482938e-01  -9.8198022e-01   3.8886420e-01   9.0618709e-01  -6.6632494e-01   2.1849410e-01   7.0198145e-01  -1.2785942e-01  -8.6580338e-01  -7.7701012e-01  -5.2933306e-01   9.3783968e-01  -9.9994684e-01  -7.6529245e-02   4.4439554e-01   7.9437514e-01  -2.8643121e-01   9.9750141e-01   9.7892369e-01   5.7027129e-01  -7.9449123e-01   7.3561299e-01  -8.1582049e-01   6.9813682e-01   3.0057896e-01  -8.8864710e-01  -6.2659981e-01  -8.7628666e-01   5.2696527e-01  -5.9766589e-01  -7.4603439e-01  -8.6833178e-01   3.2588113e-01   3.0085100e-01  -1.8939370e-01   4.7527709e-01  -2.3560650e-01  -4.8061816e-01  -7.3000358e-01   3.7471584e-01  -2.5452816e-01  -8.7659440e-01  -8.0861450e-02  -6.4755486e-01  -2.4083285e-01  -3.1365366e-01  -1.9668522e-01   7.7050461e-01  -1.2695789e-01   9.4882171e-01  -8.7443835e-01  -4.7696248e-01  -6.0155020e-01   1.7626776e-01   1.7797199e-01   9.5830417e-01   8.6796318e-01   7.0604939e-01  -4.8624769e-01  -3.9242990e-01  -8.8784642e-01  -9.8892564e-01  -3.5646031e-01  -3.4171875e-01  -9.7977815e-01  -2.8034506e-01   5.9602011e-03  -8.8752686e-01  -6.1142872e-01  -1.3866818e-01  -4.1249607e-01   4.3552701e-01   5.9178887e-01  -2.2503059e-01   2.7479196e-01   7.4823683e-01   2.5437271e-01  -4.3450231e-01  -3.4091798e-02   1.9003561e-01  -4.8221885e-01  -9.8823564e-01   8.3548401e-01   4.7592268e-01  -6.3545363e-01   2.2046643e-01   6.3542298e-01  -6.4228959e-01   7.2651984e-01   9.1488032e-01  -8.2967529e-01  -5.3136756e-01   2.1310149e-01  -3.3073332e-01   8.1122649e-01  -6.7034499e-01  -4.1253628e-01  -5.7553527e-02  -8.1800220e-01   6.9892960e-01  -6.4446629e-01   4.3868377e-01  -6.2707565e-01   6.8273679e-01   1.8763405e-01  -6.6111861e-01   6.1068102e-01   4.9503030e-01  -8.6093759e-01   3.5003641e-01  -1.7381685e-02  -8.2895968e-01  -7.7993363e-01  -9.8172809e-01   8.1979119e-01  -5.6879388e-01  -7.1435199e-01   2.2598383e-01  -7.6066779e-01  -2.2717776e-01   2.1489749e-01   1.1382476e-01   9.6409653e-01   6.2850392e-01   7.4230786e-01   9.4148777e-01   4.9516648e-01   3.5929158e-01  -3.9039650e-02   2.3910359e-01   5.1031179e-01   1.9899949e-01   2.7741151e-01  -3.2146180e-01   8.3678960e-01  -6.4596135e-01   7.0081961e-01  -7.7845317e-01   3.2419139e-02  -4.9123766e-01   9.8582145e-01   4.3742535e-01  -9.3646556e-01   9.0542650e-01  -6.0110130e-01   9.8137260e-01  -9.9066682e-02  -2.4158151e-01  -2.6993170e-01   5.5916486e-01   7.3171981e-01   4.3049192e-01   8.9541735e-01  -2.5707757e-02  -1.3830876e-01   7.1343356e-01  -5.8644790e-01   1.4247369e-01  -4.6431317e-01   2.8154113e-01   5.2252843e-02   2.5383796e-01   7.4800809e-01   9.7075816e-01   2.9292180e-01   7.1664523e-01   3.4187802e-01  -6.7595672e-01   5.9223674e-01   4.1525257e-01   6.0309840e-01  -3.6112369e-01   4.8831082e-01   6.0803786e-01   8.8193895e-01  -6.2944409e-01  -5.5989281e-01  -8.8997716e-01  -5.7646705e-01   6.8796065e-01   8.6038249e-01  -7.8881286e-01  -2.6682969e-01  -8.0027569e-01  -9.5753889e-01  -8.1723902e-01  -5.0805736e-01   9.6502246e-01  -3.0632795e-01   6.5158608e-01  -9.7447888e-01  -8.4785213e-01  -4.3097622e-02   6.0650924e-01  -8.0627087e-02  -3.8544400e-01   6.1840160e-01   1.3013994e-01   6.7353540e-02   5.0930753e-01   8.8247184e-01   3.5977157e-01  -2.6630056e-01  -7.5056665e-01  -5.3059999e-01  -3.0782108e-01  -5.3087403e-01   2.2138309e-01   5.7946712e-01   3.9553884e-02   3.0892856e-01   9.4961296e-01  -5.1103508e-01  -2.6186199e-01  -6.0785989e-01   3.7365152e-01   8.6663957e-01   2.6780668e-01   3.0160359e-01  -9.9210199e-01  -6.7009475e-01   5.5920734e-02   5.9936666e-01  -6.9726640e-02  -9.5572064e-01   8.6882385e-01   6.5867228e-01   2.3660501e-01  -8.5680548e-01   3.9879128e-01  -6.1387797e-01   1.8322237e-01  -8.9069087e-01  -9.0304246e-01  -9.9330489e-01   8.3126874e-02  -9.6045436e-01   4.0558349e-01   5.8759895e-01  -7.8046127e-01   5.1427839e-01  -9.3863909e-01  -5.9026848e-01  -2.2864422e-01  -3.4288069e-01  -8.7141782e-01  -8.4629148e-01   8.8470626e-01  -2.4379049e-01   2.3187398e-02  -5.7671103e-01   8.7527104e-01  -5.3549667e-01  -6.5221276e-01  -1.6422388e-01  -6.0390177e-01   6.5428547e-01  -7.8048305e-01   2.3175662e-01   2.8730875e-01   2.5488699e-01   4.0133957e-01   9.7653467e-01  -7.9380387e-01  -8.7262102e-01  -9.6224898e-01   9.9005428e-01   8.0625972e-01   9.2696396e-01  -2.6214177e-01   1.9000580e-01   2.0863444e-01   8.9293749e-01  -2.9514145e-01   8.4368092e-01   2.2103666e-01   7.9933923e-01  -8.5864602e-01  -4.9606210e-02   3.7033472e-01   7.8370211e-01  -1.7639227e-01  -6.7218029e-01  -5.7074660e-01  -4.6447462e-01  -2.8845652e-01   9.0540097e-01  -5.4732628e-02   8.2026157e-01  -2.5283942e-01  -4.2135348e-01   8.0160203e-01   9.2537348e-01   8.6011207e-01  -2.3937687e-01  -1.1784611e-01  -7.4247650e-01   1.2370241e-01   1.5852699e-01  -4.6538656e-01  -3.7385187e-01  -2.1004049e-01  -6.6688765e-01  -3.6042887e-01   7.2996368e-02  -2.9057497e-01   6.3981587e-01  -1.4606640e-01   3.0673300e-01  -3.7749827e-02   7.6610292e-01  -9.3570854e-01   2.8408711e-01  -2.2798557e-01  -8.6886919e-01  -4.1554922e-01   7.8104043e-01  -2.4382308e-01   2.1661537e-01   8.5427987e-01  -6.5286294e-01  -7.2544211e-01  -2.2368210e-01   7.5639321e-01   3.9839438e-01  -5.1066235e-01  -5.7825954e-02   3.9951162e-01   5.7630283e-01   3.8601645e-01   6.6211485e-02  -8.6449009e-01   4.7937262e-01  -1.8404080e-01  -5.3084222e-01   2.1973828e-01  -6.2284639e-01   9.4783698e-01  -4.6622558e-01  -5.0336862e-02  -2.9000395e-01  -7.7231025e-01  -6.1587184e-01  -1.7886519e-01   4.8148130e-01   2.2951978e-01   4.8082512e-01  -3.1728469e-01  -6.6969621e-01  -8.3554983e-01   5.0625401e-01   1.9429324e-01   9.1253161e-01  -7.0326666e-01  -3.1370476e-01  -1.0039919e-01  -3.5841637e-01   3.8748014e-01   8.6281204e-01  -3.8061611e-01  -6.0260002e-01   6.2647902e-01   9.0006856e-01  -8.0297180e-01  -5.1035580e-01   2.1638729e-01  -2.6092808e-01   5.8877851e-01   8.5236065e-01   5.7702853e-01   6.3401110e-01  -7.6630175e-01  -5.1518519e-01  -4.4876895e-01  -1.2629368e-01  -1.2896377e-01  -7.6666947e-01   9.5611356e-02  -1.1561778e-01   5.4903328e-01   1.7309462e-01  -9.8334939e-01   1.6331500e-01   5.2836530e-01   3.9856428e-01   8.9859907e-02  -3.3722325e-01  -9.2419005e-01  -1.8604507e-03  -7.2693987e-02  -9.7680279e-01   6.8362236e-01  -2.7791666e-01   6.7229329e-01  -6.5234219e-01  -2.9366263e-01   9.7210876e-01  -8.5222179e-01   7.3486537e-01   1.7336629e-02   3.3722001e-01   6.9358270e-01  -5.5716968e-01  -8.1160332e-01  -3.6648639e-01   4.0834215e-01   3.4848199e-01  -9.9907705e-01   4.4509729e-02  -1.8838826e-01   7.3003895e-01   9.8165828e-01  -4.2782273e-01   2.1584453e-01  -6.3919435e-01  -7.0140014e-01   5.1124847e-01  -9.0134143e-01   5.6732087e-01  -8.1461773e-01  -9.4973448e-02   6.8246920e-01   3.6946196e-01  -1.6653834e-01   7.4655330e-01  -6.3531193e-01   2.6577992e-01   3.0581220e-01   8.7613768e-02  -1.3375061e-01   3.8920032e-01  -8.5393440e-01  -9.4086447e-01  -7.4997047e-01   9.0055224e-01  -7.5059624e-01  -7.9880447e-01  -8.1610395e-01  -1.6822520e-01  -9.3491539e-01  -7.7676763e-01  -2.7162942e-01   9.4928383e-01   9.7998730e-01  -2.5829356e-02  -8.8449656e-01   7.0959113e-01   7.6449925e-01   5.7320291e-02   5.6291571e-01   6.3624743e-01  -7.6867813e-02   9.3932573e-01  -2.0728269e-01  -1.1865400e-01   5.0780139e-02   4.1944660e-01   7.4756352e-01   1.5772408e-02   3.2444105e-01   5.8672637e-01  -6.8118858e-01  -5.3366079e-01  -8.5519380e-01   6.1621248e-01   5.2444626e-01   6.9547359e-01   3.3356164e-01   3.7972760e-01  -7.8510684e-01   3.8880017e-01  -8.3409047e-01  -4.9710118e-01   9.0116091e-01   1.9901165e-01   7.0825554e-01  -9.6271415e-01  -2.0912303e-01  -6.8204724e-01   2.8592047e-01  -2.8053164e-01  -1.4181918e-01  -2.2385195e-01  -4.2012414e-01   9.5773299e-01  -7.2183274e-01  -1.0616997e-01  -1.2111623e-01  -4.3844066e-01  -2.7479724e-01   8.0690007e-01  -5.2926137e-01  -7.9071946e-01  -4.8089932e-01   3.5672482e-01  -2.8786953e-01  -5.6197181e-01   8.9666401e-01   3.2938433e-01  -6.0868481e-01   5.3896617e-01   6.1994977e-01   9.7016082e-02   4.3741850e-01   1.0139323e-01   7.2245056e-01   5.4414485e-01  -5.7268581e-01   3.1105590e-01   2.9596580e-01   5.7386304e-01   3.5784861e-01  -6.3826215e-01  -8.5880534e-01  -3.1773254e-01   6.1022776e-01   8.1790500e-01  -3.4003102e-01  -5.2389118e-01   4.5580752e-01  -8.6189050e-01   4.9620116e-01  -5.4216444e-01   8.1647112e-02   2.9861576e-01  -8.8111435e-01  -2.1401191e-01  -3.4310151e-01  -9.4195475e-01  -2.6041518e-01   8.5841249e-01  -2.2797070e-01  -5.1151003e-01  -7.0480288e-01   9.6460860e-01  -2.6892961e-01  -3.4801087e-01  -4.0897352e-01  -7.6689907e-01  -4.7002635e-01   1.6591126e-01  -9.9458939e-01  -2.9403780e-01  -1.5283420e-01   9.4231495e-01  -4.1630602e-01  -3.0388816e-01   6.3355769e-01   3.2527248e-01
  -1.2711780e-01  -7.8462503e-01  -5.0245640e-01   7.1633053e-01  -2.5716278e-01   4.8536646e-02  -7.2557239e-01  -3.5127424e-01   3.9427923e-01  -2.2913255e-01   7.8433790e-01   4.1925586e-01   8.6446397e-01  -3.0651145e-01   1.7905363e-01   6.9281254e-01   4.9505874e-01  -8.7665643e-02   1.7474261e-01   1.7157627e-01   9.1196512e-01   4.9817804e-01  -4.4441909e-01   4.4893903e-01   6.4022553e-01   7.6520291e-02  -9.5981809e-01  -2.0184259e-02   4.9431550e-01  -6.3243522e-01   7.7129483e-01   3.4104519e-01   7.9060010e-01  -6.5185843e-01   5.9521613e-01   5.3164630e-01  -2.2230026e-01   1.1317494e-01   4.9769729e-01   7.0018318e-01   8.8689832e-01   5.5160744e-01  -8.7408793e-01  -5.3219410e-01  -4.5312075e-01   6.9684676e-01   1.5823008e-01  -6.9705945e-01  -7.4385081e-01   4.9808077e-01   5.9623630e-01  -1.0150997e-01   2.3308550e-01  -1.6283597e-01  -5.0699823e-01  -3.4910884e-01  -5.4558570e-01   2.8185114e-01   5.4450181e-01   4.6861594e-01  -6.7397735e-02   9.2913619e-02  -9.6864128e-01  -4.5516415e-01   8.0048987e-01  -5.2819814e-01  -1.1689415e-01  -9.0367044e-01  -9.1838987e-01   4.6653073e-02   7.7645285e-01  -1.2860680e-01  -2.9219866e-01   5.2394758e-01  -6.8517184e-01   5.6547786e-01  -4.0857767e-01  -6.8423226e-01   9.0904723e-01  -1.7875268e-01  -6.4285160e-01   5.9779622e-01   9.5825582e-02  -7.1486603e-01   1.8466729e-01   5.3442471e-01   2.2182268e-01   2.3680009e-01  -6.4035906e-01  -6.0698032e-02   1.9654710e-01  -6.1913663e-01  -1.5074629e-01   1.2224568e-01   2.8493307e-01  -8.5091820e-02  -8.4796677e-01   1.4999112e-01  -7.3057390e-01   6.6993663e-01  -4.2729813e-01  -3.1705709e-01   7.2013227e-01   1.2928246e-01   5.8372958e-01  -4.1166389e-01  -8.3310779e-01   8.8023449e-02   5.6677033e-01   6.1255335e-01   3.4004637e-01   4.7996375e-01  -2.8602539e-01   3.7773164e-01  -3.1692863e-01   5.4367515e-01   7.9070008e-01   2.6987649e-01  -8.8251583e-02  -9.1316690e-01   8.1851093e-01   7.9663999e-01  -5.5193616e-01  -2.6594083e-02  -6.7831191e-01   5.3359879e-02  -7.5211550e-01   9.8996385e-01  -6.4057513e-01   4.6798540e-01  -2.5881577e-01   5.4952144e-01   2.4052221e-01   5.5738677e-01   6.8228056e-01  -4.4644992e-01   9.8888937e-01  -4.4936597e-01  -5.4069085e-01  -9.1591915e-01   5.1217675e-01  -5.2043493e-01  -8.6619097e-01  -6.2642435e-01   5.6774922e-01   2.6823963e-01  -2.2639871e-01   8.5979612e-01   1.2656173e-01  -2.1408369e-02  -7.1872552e-01   4.5370357e-01   4.6870244e-01   2.4359326e-01  -4.4836392e-01   7.1834816e-01   7.8187513e-01  -3.8734151e-01   2.9546571e-01   3.9762907e-01   1.4640611e-01  -6.2293037e-01  -5.0698905e-01   1.5402866e-01  -6.5358926e-01   6.2047357e-01  -3.7480029e-01   1.8530803e-01   7.4116646e-03  -5.2290410e-01  -8.0368493e-01   6.9170537e-01  -4.4681666e-01  -3.9196535e-01   1.0137966e-01  -9.0050971e-01  -4.7999995e-01  -3.3279216e-01   5.6173096e-01  -5.7558972e-02  -4.2585446e-01   4.2178015e-01  -8.6328090e-01   3.0038139e-01   3.3871948e-01  -4.9462189e-01  -6.7229995e-02   5.5383943e-01   7.1770419e-02  -9.0946199e-01   6.2666771e-01  -2.0343499e-01  -2.2241195e-01  -2.3400338e-01  -9.6194208e-01  -1.0118582e-01  -2.1368803e-01  -1.5934320e-01   3.1390371e-01  -4.4381568e-01   7.4698259e-01  -4.8435020e-01  -2.3148779e-01   9.6212668e-01  -3.0248244e-01   6.6187718e-01   1.6595750e-01  -6.5743605e-01  -7.4710564e-01  -7.4649142e-01  -2.0016352e-01  -5.3955337e-01   9.3150242e-01   8.2686475e-02  -8.4876710e-01  -5.2758937e-01  -4.1036871e-01  -9.4834065e-01  -4.9603452e-01  -5.9368890e-01   1.9486212e-01   4.2532477e-01  -9.8098483e-01   6.3858196e-01  -3.2300296e-01   8.7637412e-01   1.4828316e-01   4.7137884e-01   9.9094048e-01  -8.1676779e-01  -3.5993244e-01   9.4462268e-01   8.0066656e-01  -2.8471901e-01  -7.3259253e-01  -4.5642752e-01   5.1254337e-01   5.2646257e-01  -3.0697006e-01   8.1842139e-01   8.9231557e-01   4.0356440e-01   6.7326464e-01   4.5141209e-01  -8.1858640e-02  -2.5896113e-01   7.1007190e-01   2.2520088e-01   6.0361689e-01   6.3294037e-01   7.5511430e-01  -8.5814331e-01  -9.3591858e-01   9.6168230e-01   4.2236575e-01  -2.4812003e-01  -6.9426946e-01   9.4714282e-01   2.8666254e-01  -3.3898017e-01  -5.1624816e-01   9.5665387e-01   4.0409341e-01   8.9609346e-01   3.9766131e-01  -4.5867860e-01  -9.5131591e-01   8.0126554e-01   3.8245020e-03  -4.7882001e-01   5.9595204e-01  -8.4494252e-01   3.2485950e-01   5.8530217e-01  -2.9781042e-01  -1.3980929e-01   7.3894826e-02  -2.7537358e-01   5.1669119e-01   1.6586414e-01   6.1529808e-01   9.0450555e-01   1.6219305e-02   7.4382098e-01  -4.6538418e-01  -7.0178927e-01   9.6935030e-01  -1.2746168e-01  -9.6545873e-01   1.5051927e-01  -9.4057509e-01   4.3514790e-01  -6.7704103e-01  -9.1017199e-01  -9.6643704e-01   5.2073110e-01  -2.2724005e-01  -8.0309298e-01   2.5690272e-01   4.0717550e-01   2.5680873e-01   9.6253561e-01   8.8451271e-01  -1.3538188e-01   9.2007838e-01   4.4776679e-01   5.4791636e-01  -3.2618197e-01  -6.2804844e-01   1.0970101e-02   8.7160108e-01  -1.4872781e-01  -1.8369115e-01  -9.1099691e-01   8.1792494e-01  -2.2967956e-01  -9.8234631e-02  -7.3083293e-01   8.0903178e-02   3.5934797e-01   2.0566273e-01   7.6104377e-01  -6.0650498e-01   8.0328102e-01   7.5215544e-01  -9.8473027e-01   5.7440644e-01  -9.9180459e-01   4.7453676e-01   4.5500296e-01  -1.5644212e-01   8.4832485e-02  -6.6975292e-01   9.7311611e-01   9.2833348e-01   5.0189866e-01  -6.4894100e-01  -4.6886307e-01  -8.2817016e-02   5.8218774e-01  -4.7793499e-02   8.3138938e-01  -7.8697578e-01  -4.4887971e-01  -4.9480563e-01   1.3338498e-03  -5.4379631e-01   5.0249821e-01  -1.4829042e-01   8.5319016e-01  -6.1774518e-01   4.1190073e-01  -8.5450943e-01  -7.5057042e-01  -6.4043518e-01  -5.1866825e-01  -4.9485038e-02   3.6683298e-01  -4.8850325e-01  -7.9033907e-01   2.4149835e-01   7.9293780e-01   3.5105235e-01  -3.4991960e-01  -3.3725608e-01  -9.4883404e-01  -2.1513255e-01   2.9456390e-01   8.6732370e-01   5.9687277e-01  -6.2517826e-01   8.9041421e-01   4.7566385e-01  -2.9955977e-01  -5.1956302e-01  -8.6147220e-01  -2.3516612e-01  -6.4791431e-01   9.0690806e-01   8.0584418e-01   8.3845267e-01   2.7627908e-01  -4.8364474e-01   7.4971188e-03   4.2728335e-01  -1.8077758e-01  -4.1198432e-01   6.4381891e-01   5.0891807e-01  -7.8498677e-02   1.5279417e-02   5.9336471e-01  -2.7909353e-01   3.4085007e-01  -1.3566269e-01  -4.8663186e-01   1.8664802e-01  -5.8047629e-02  -2.8144365e-01  -5.5487259e-01   1.9947290e-01  -8.1732323e-01   9.5567162e-01   1.1194343e-01   3.0629141e-01   1.2974637e-01   6.7509511e-01  -9.1518284e-01   6.7189048e-01  -8.3397981e-01   3.0475953e-01   9.1353293e-01  -7.6818260e-01   9.8095397e-01   2.7647739e-01  -1.7227439e-01   4.8390542e-01   1.8602435e-01   1.4412484e-01  -8.6594721e-01   1.4073190e-01  -2.4300675e-01  -1.2179648e-01   3.8031246e-01   4.6291427e-01  -6.5371845e-01  -5.7899718e-01  -8.1298973e-01  -7.5575343e-01   7.6575363e-01  -6.7810689e-01  -8.5969887e-01   9.4597761e-02   6.7033333e-01   9.4111732e-01  -3.9414550e-01   1.4398567e-01  -2.6546158e-02   5.2778482e-01  -6.9820651e-01   6.9736654e-01  -1.3053807e-01  -8.9990220e-01   3.6202682e-01  -3.9927655e-01   5.0294744e-01   2.3924034e-01   2.9031775e-02  -5.6833532e-01   2.8287129e-01   2.7979701e-01   9.3143978e-01   8.5045999e-01   7.8168642e-01  -8.5407214e-01   6.5411233e-01   4.7978893e-01  -3.0427367e-01  -8.1555069e-01  -3.2753171e-01   5.3001823e-01   4.1896326e-01   3.1943662e-01   1.4286504e-01  -5.0509199e-01  -2.8476340e-01   7.8765093e-01  -5.5364086e-01  -6.2715437e-01  -1.2524027e-01  -8.0627813e-02  -4.0904700e-01   7.4870875e-02  -4.2860574e-03  -3.1245341e-01  -9.7425987e-01   9.5815835e-01  -1.5322995e-02  -8.2072598e-01  -7.8671764e-01   1.4106347e-02  -3.0920774e-01  -2.6295800e-01   9.2227521e-01   8.3734577e-01   2.1651257e-01  -3.4105820e-01   1.3333200e-01  -3.7200537e-01   2.4512087e-01   9.1140481e-01   1.7126554e-01   9.3925992e-01  -4.2909079e-01  -5.5004395e-01  -7.5370437e-02   9.5936906e-01   9.8601429e-01  -6.1320175e-01  -2.5103464e-01   9.5838035e-02  -7.9539356e-01   4.8050246e-02  -2.6473034e-01   6.4301025e-01  -5.6002987e-01   1.3626334e-01   1.9156259e-02  -5.2984078e-01   1.5557762e-01   3.9497794e-01  -3.3215184e-01  -4.2542446e-01  -9.4386196e-01  -3.1949204e-01  -7.1361823e-01   8.1866722e-01  -6.4814272e-01  -9.3398053e-01   5.5505829e-01  -6.8287940e-02   6.3693275e-01  -3.1286020e-01  -9.0218500e-01  -9.7824706e-01   2.2375316e-01   7.0346471e-01   8.1527943e-01  -9.5749164e-01   8.8468537e-01   6.8861138e-01   8.1860901e-01   8.9567999e-01  -6.8860513e-01  -1.9878468e-03   8.3855450e-01   3.0551775e-01   8.1463219e-01  -3.8263687e-01  -7.1099472e-01  -1.9065129e-01   1.7271572e-01  -2.9687589e-01  -1.7619438e-01  -5.2887141e-01  -7.1978733e-01   5.4098923e-01  -2.0159207e-01  -7.9356963e-01  -3.5460945e-01   2.2134232e-01  -5.2529470e-01   2.3989387e-01  -5.1199813e-01   8.6356058e-01   7.0331475e-01   4.9995849e-03  -1.0682280e-01  -3.0633454e-01   6.2764721e-02  -1.8837913e-01   9.2812221e-01   2.7221388e-02   8.2211005e-01  -7.3175091e-01  -3.8903450e-01   4.6053538e-01   7.6495066e-01  -1.3374069e-01  -8.7479773e-03   1.6812611e-01  -7.2960995e-01   5.9570332e-01   3.3821611e-01  -7.4963759e-02  -1.7650572e-01   9.8311628e-01  -8.7176550e-01  -8.2884356e-01  -4.9129384e-01   6.7900414e-01  -9.4950373e-01   6.3322266e-03  -9.9577180e-01  -3.3258277e-01  -7.5156686e-01  -7.6689662e-01   1.7715597e-01   1.4251964e-01   6.7777092e-01   3.8000044e-01  -9.0450211e-01   5.0277044e-01  -1.8361628e-01  -3.8143830e-01   7.7051861e-01   5.8591014e-01   9.5058661e-01  -1.3785681e-01  -4.7197657e-01   2.8822092e-01   2.0511585e-01  -9.2510049e-01  -3.3839690e-01   5.4100280e-01   4.3821474e-01   7.5387463e-01  -2.8093132e-01  -7.4680443e-01  -8.7045631e-01  -8.2551753e-01  -4.3887953e-01   2.3501806e-01   1.2654465e-01   8.8674372e-01  -8.3789034e-01  -8.7070903e-01  -6.9239565e-01   9.8004830e-01  -5.0954161e-01  -4.1840457e-01   3.6038767e-01   1.0119975e-01   7.2069432e-01   3.5796815e-01   1.4919946e-01  -9.8072139e-01  -4.8941740e-02  -4.1231130e-01  -5.8832538e-01   8.6664092e-01  -1.9801139e-01  -9.0266410e-01   2.5645708e-01   9.0232863e-01  -8.4211051e-01   5.6253751e-01  -8.0510891e-02  -2.1867858e-01   2.3952853e-01   1.3235916e-01  -3.6489729e-01   3.3709959e-01  -7.4084064e-01   5.7436248e-01   2.0016295e-01  -4.6487891e-02   7.0285026e-01  -4.6150299e-01  -7.1079727e-01   3.9260463e-01   1.7065449e-01   4.4262140e-01   9.6634693e-01  -7.4375859e-01  -1.1263881e-01   9.9194949e-02  -9.0726881e-01   8.3980664e-01  -7.2002606e-01  -6.9469739e-01   3.8654803e-01  -9.4036099e-01   7.2837411e-01   3.4451757e-01  -5.2462357e-01   2.6402351e-01  -7.1524299e-01  -9.3764181e-01   6.6745347e-01  -5.0687487e-01  -1.5438759e-01   4.3637682e-01  -1.3448104e-01   9.6324823e-01   8.2979563e-01  -1.2530363e-01  -2.4966719e-01   8.0059548e-01  -1.4296389e-01   8.6577426e-01  -3.5333837e-01   5.2534354e-01  -1.2865666e-01  -2.6534432e-01  -4.3592517e-01  -5.7132219e-01   6.6224013e-01  -4.6916675e-01  -7.3439976e-01   3.9381889e-02   9.7764028e-01  -9.1165673e-01   4.0686806e-01  -7.6783332e-01  -1.5862352e-01  -7.4362262e-01   3.2545092e-01   4.7075043e-01  -3.7770678e-01   5.7256910e-01   3.1372134e-01   8.1262317e-01   4.0511189e-01  -1.4010506e-01   7.6801587e-01  -7.0695657e-01  -3.9002830e-01   6.5430473e-01   6.5711199e-01  -7.3958151e-01  -3.3079489e-01   4.7617732e-01  -9.6209102e-01  -8.4135551e-01   4.5509658e-01   9.0877766e-01   1.3425278e-01  -5.7057353e-01   9.4541231e-01   3.6066752e-03  -1.3723662e-01  -9.6709885e-01  -9.5878515e-01   1.4267018e-01  -5.4817564e-02  -8.2483813e-01  -3.6349992e-01  -4.3022399e-01   4.1049744e-02   4.8645149e-01   2.2825697e-01   8.7516253e-01   2.1773916e-01   4.2372147e-01  -5.2396587e-01   3.3894631e-01   5.4969784e-01   4.1692414e-02   1.2360809e-01   1.1695708e-01  -8.1663265e-01   2.9548604e-01  -3.7843251e-01  -6.2039902e-01   5.8614598e-01   9.8619285e-01   6.1707238e-01   1.4771923e-02   2.8405210e-01  -8.3403878e-01   6.1451049e-01  -5.6690658e-01   9.4302506e-01   6.1369856e-01  -5.4515397e-01  -1.7947083e-02   4.9080054e-01   1.0336378e-01  -1.3850748e-01  -2.3495015e-01  -4.8624919e-01  -3.6508366e-01   1.7990641e-01  -2.5004488e-01  -8.8168876e-01  -3.3287403e-01   9.7892345e-01   1.6253135e-01   5.1532400e-01   8.6280169e-01   4.4394246e-01   8.3186662e-01   9.9065990e-01   1.5265034e-01  -9.9310507e-01   2.5433283e-02   8.8954355e-01  -9.6747473e-01  -6.8960040e-01   6.8232141e-01  -2.5167984e-01  -9.4069838e-01  -9.7319119e-01  -8.2559833e-02  -7.6592141e-01   9.9390472e-01  -9.5015999e-01   9.9640771e-01   7.9652752e-01  -5.0637467e-01  -8.4542247e-01   9.0401941e-01   8.3450919e-01  -2.0123859e-01  -4.3177502e-01   6.9440468e-01   1.1069745e-01   6.1477946e-01  -5.4949014e-01  -3.7072714e-01  -5.3902018e-01  -5.1718770e-01  -9.4685442e-01  -8.2991833e-01   7.5659329e-01  -5.3092431e-01   5.2060785e-01  -4.0810416e-01   1.2018501e-01   9.8226971e-01  -4.2154851e-01   7.9521037e-01   7.4584126e-01   5.2365805e-01  -4.0007141e-01  -1.6706366e-02  -8.6316495e-01   7.4856231e-01   6.1016221e-02   9.6333531e-01  -3.7957961e-02   8.1633472e-01  -1.3347527e-01   9.7097614e-01  -9.4858391e-01  -2.6118321e-01  -5.4388871e-02  -4.8626046e-01  -6.6191431e-01   4.3433275e-01   3.6373340e-01  -3.6177096e-01  -9.5307461e-01  -2.5122378e-01   6.9110086e-02   3.2599268e-01  -4.0530521e-02   8.6909856e-01  -1.0247627e-01  -1.0916880e-01   4.8476732e-01  -9.8951803e-01  -7.3042611e-01   7.3198635e-01  -5.2819451e-01  -3.7744877e-01  -4.5345654e-01   7.0630495e-01  -3.1327208e-01   3.9208201e-01  -8.9902984e-01   8.0855900e-01   2.6946347e-01   2.4340244e-01   3.5300600e-01   7.9811693e-02  -5.5919053e-01   6.1695906e-01  -2.6389284e-01  -9.9770500e-01  -9.4465870e-01   1.6638052e-01   2.6119545e-01  -6.0021517e-01   9.0215088e-01   4.4676985e-01  -1.3903705e-01  -7.6188822e-01  -5.6441029e-01  -3.9512433e-01   1.0662010e-01   4.9555852e-01  -5.6236461e-01   5.4586820e-01   8.6002051e-01   2.8895209e-01  -3.4895717e-01  -4.1819721e-01  -4.9164780e-01  -2.8407823e-01  -5.4298346e-01  -8.7608172e-01   2.6601034e-01  -8.3679700e-01   2.2599921e-01   9.1681138e-02  -8.7756497e-01  -3.4726847e-01   3.9492608e-01  -3.8730118e-01  -4.6614896e-01  -6.4822336e-01  -1.3100024e-01  -3.1747135e-01   3.9256761e-01  -2.9291874e-01   5.3252896e-02  -6.8060782e-01   5.2926722e-01   2.8354717e-01   7.8940424e-01  -1.9432064e-01   2.9370261e-01  -1.0859342e-01  -4.9320648e-01  -1.7882120e-01  -2.5677967e-01  -2.4266731e-01  -1.3048698e-01  -3.3202800e-01   9.4782301e-01   9.4472792e-01   6.1143901e-01  -1.7942957e-03  -6.6214161e-01   9.3633156e-01  -2.8771243e-01  -8.2944973e-02   2.5940519e-01  -9.5095119e-01  -4.8493240e-01  -4.3649984e-01  -5.6934256e-01   3.7498894e-01  -2.3845867e-01  -3.9104927e-01  -9.9631985e-01  -5.9380627e-01  -9.6400367e-01   6.7219930e-01  -2.2442248e-01  -3.2460481e-01  -9.3549025e-01  -1.4203130e-01  -5.0285151e-01  -2.0890111e-01  -8.1177437e-02  -6.2681041e-01  -2.1659677e-01   8.3810963e-01  -1.7455396e-02   6.2125766e-01  -7.9644278e-01  -6.9506169e-01  -1.3307997e-01  -8.6262680e-01  -4.5224826e-01  -6.2338807e-01  -2.8377984e-01  -1.9916404e-01  -1.5999949e-01  -5.2523500e-01  -1.7197039e-01  -7.4129767e-01   6.1681037e-01   8.6038790e-01   7.3363790e-01   6.2772898e-01  -6.3640194e-01  -5.9177107e-03  -5.4840169e-03  -6.6941464e-01   4.3500174e-01   7.3115806e-01   7.5657202e-01  -2.5389278e-01   5.8654579e-01   7.0272074e-02  -6.1289370e-01   5.2367560e-01  -9.0033212e-01  -7.8516744e-01  -7.2474881e-01   2.4010580e-02  -2.2644558e-01  -5.0899869e-01   8.2388199e-01  -7.3612343e-01  -3.6663867e-01  -8.3545274e-01  -9.6695589e-01  -2.4506997e-01   8.9824809e-01   3.4987279e-01   9.5827157e-03   2.8081932e-01  -5.9152475e-01  -4.4628224e-02   5.6434268e-02  -2.8235525e-01  -5.8640070e-01   5.3801840e-01   7.4626364e-01   7.0468824e-01   3.7729060e-01   4.7468028e-01  -5.0231491e-01  -5.6246696e-01  -3.1084597e-01
   7.2574729e-01   6.4586368e-01   6.5081492e-01  -4.6050875e-01   6.6388501e-01  -2.9306761e-01  -6.1243719e-01  -2.1073341e-01   6.8653900e-01   8.1036978e-01  -4.5688202e-01   3.8889577e-02   5.1990425e-02  -1.9737572e-01   2.1788842e-01   9.0123021e-01   4.6645780e-01   7.7230536e-01  -1.8325928e-01  -7.4910259e-01   2.9075396e-01   7.7299511e-01  -1.4624579e-01  -3.3352007e-01   6.5526725e-01  -7.1180193e-01   5.1283908e-01  -1.8256242e-01  -5.9944588e-01  -4.3567589e-02   3.5513136e-01  -5.7893273e-01   9.1118482e-01   8.1918498e-01  -1.2125124e-01   7.5523077e-01  -1.8684703e-01   9.5492596e-01  -7.2774138e-01   4.5326123e-01  -8.2667718e-01   4.2676602e-01   8.8145041e-01   7.0008253e-01   4.9565959e-01   7.1987445e-01  -3.6373690e-01  -9.3969792e-01   1.5748959e-01  -5.5318705e-01   2.0116769e-01  -1.0496658e-01   4.3361245e-01   3.1033912e-01   8.4768971e-01   6.9572161e-02  -3.2265944e-01  -3.9762690e-01  -7.4488317e-01  -2.4857766e-01  -4.9400960e-01  -7.1866040e-01   7.9491825e-01   1.5206023e-01  -1.5419581e-01   9.8776537e-01   8.7415148e-01  -3.1523679e-01   8.6179502e-02   3.8519511e-01  -2.4405277e-02   7.6299751e-01   3.3754612e-02  -6.8297899e-01  -6.2022219e-01   4.6111247e-01   4.4152512e-01   1.7689063e-01   8.3796919e-01  -6.0879704e-03  -4.8236146e-01  -3.9523822e-01   9.1207101e-01  -9.2130444e-01  -6.5307296e-01   5.5685699e-01   2.1361436e-01   7.5681578e-01  -5.0007390e-01   8.9067138e-01   4.2524759e-02  -2.4535362e-01  -1.0855203e-01  -1.2903872e-01   9.1268336e-01   4.3000705e-01   9.5314279e-01   9.1249918e-01   8.3066059e-01   8.0122704e-01   5.4255782e-01  -5.5603566e-01  -4.5254200e-02  -4.5637331e-01  -9.4202476e-01  -5.3145250e-01  -3.8476926e-01  -7.9857912e-02   4.2905613e-01  -1.9982532e-01  -6.3070650e-01   3.9133129e-02   5.8310979e-01   9.0003742e-01   2.8772211e-01   3.4394516e-01   6.9596352e-01   2.5012294e-01  -1.4645688e-01  -1.2707864e-01   3.5910336e-01  -1.1114987e-02   2.2134448e-02   4.1182885e-01   9.1509472e-01  -7.3182140e-01   3.8548602e-01  -8.0180192e-01  -3.9065281e-01  -1.7577474e-02  -3.9674198e-01  -2.4402303e-01  -1.3995886e-01   7.1252123e-01  -3.8081043e-02   2.1862391e-01   3.0883116e-01   4.4466882e-01   7.5375069e-01  -4.1032370e-01  -4.7709733e-01  -3.6386763e-01  -2.0356885e-01  -8.5359295e-01   7.9057375e-01   9.1890131e-01   6.4373149e-01  -2.9049879e-01  -3.8571444e-01  -2.9824511e-02   6.6182144e-01   5.3466923e-01  -7.2707900e-01   5.6340123e-01  -1.8346704e-01  -5.3604698e-01   9.2868579e-01   5.4352327e-01   2.3768041e-01  -9.3873280e-01   3.0373937e-01  -5.3398553e-01   3.2515763e-01  -1.6708359e-01  -7.8536151e-01  -9.7204639e-01  -4.3190586e-01   5.9980475e-01   4.8638983e-01   4.9476007e-01  -9.0973265e-01  -1.9771350e-01  -1.2569011e-01   1.6703857e-01   9.6099968e-01   4.5426274e-01   4.2947230e-01  -8.4162403e-01   1.4019554e-01  -3.4256687e-01   1.8640890e-01   4.8925534e-01   7.5557075e-02  -1.8701900e-01  -8.0742059e-01  -3.3620947e-01  -5.7036393e-01   5.4838388e-01   3.2854828e-01   1.7778619e-01  -4.3031024e-01  -7.7169671e-01  -5.7438073e-02  -8.3213287e-01   1.1628487e-01  -5.8360247e-01   6.8578338e-01   9.6210438e-02   9.8645048e-01   9.6387825e-01  -3.9377640e-01  -8.0053869e-01   8.5886511e-01  -5.9685735e-02  -8.9830979e-01   3.6825480e-01   7.6897444e-01  -9.8351637e-01   9.1253319e-01  -9.9087981e-01  -5.6416286e-01  -9.4323473e-01   4.3361396e-01   2.4413855e-01   4.8654786e-01   8.1528820e-01   9.1149169e-01  -9.5757069e-01  -2.2846613e-01  -2.9993353e-01  -1.3865868e-02  -2.9217210e-01   4.7745039e-01  -5.7297023e-01  -5.7991501e-01  -1.9210086e-01   7.6427611e-01   8.8543242e-01  -5.8355973e-01   3.5367616e-01   6.5739652e-01   5.6947665e-01   7.5550134e-01  -6.0407454e-01  -6.0740905e-01  -4.0695097e-01  -9.9884950e-01  -2.3127271e-02  -4.8627192e-01   1.7798121e-01  -1.5542134e-01  -8.5796413e-01   9.2792828e-01   2.3072708e-01  -3.9825976e-01   1.2563038e-01   7.8966645e-01   4.7455945e-01   8.5218096e-01  -1.1939117e-01  -1.1371992e-01   9.3667786e-01   8.6193744e-01  -7.5159564e-01  -4.9244261e-01   5.6344918e-01   9.5066245e-01  -9.2336793e-01  -5.6251665e-01   3.4480588e-03   7.2017375e-01  -4.2041719e-01   7.7533892e-01  -1.4759239e-02   6.4208158e-01   8.6560195e-01  -7.6224804e-01   1.9724774e-01   3.0513769e-02  -2.5206452e-01   6.6364666e-01  -4.4475459e-01   8.3267531e-01   4.3650629e-01   2.7567298e-01  -4.4649478e-01  -4.6926873e-01  -2.4466159e-01   9.3773872e-01  -6.7173737e-01   9.5051047e-01   6.0473897e-01  -6.2384731e-01  -9.3980978e-01   5.4061315e-01  -1.5451196e-01   2.2596868e-01  -3.6056323e-01   5.3025918e-01  -1.3091694e-01   9.3400146e-01  -3.3691366e-01   8.5103649e-01  -3.1210497e-01   6.6514553e-01   3.4109857e-01   4.9603607e-01  -4.3641931e-01  -2.2900440e-01  -3.3113483e-01   5.9885638e-01   2.6769594e-01   9.9318445e-01   5.3428570e-01  -7.8219172e-01   5.4339338e-01   1.3240574e-01  -9.9387881e-01   5.5496384e-01  -1.6733860e-01  -9.6019387e-01  -9.8499844e-02   4.2363299e-01  -1.2996023e-01   8.2725010e-01   5.4697831e-02  -5.3275516e-01  -4.4188520e-01   2.6072534e-01  -7.6631605e-01  -2.2069018e-01   9.6073215e-01   5.8496721e-01   4.8861137e-01  -2.9740404e-01   7.6964687e-01   9.7091583e-01   8.6027513e-01   9.5640458e-01  -7.2565894e-01  -3.4780394e-01   5.9458543e-01  -4.5550076e-01  -3.5425028e-01  -6.3329505e-01   3.3021707e-01   4.4085815e-01  -7.9262774e-01  -6.5569046e-01  -5.3907501e-01   6.2081367e-01   1.6073378e-01  -6.5689955e-01  -1.8703418e-01  -5.9075980e-01  -6.1283660e-01   3.5958786e-01  -7.7127821e-01   4.9555651e-01  -4.7139755e-01  -8.3235350e-01   3.1821966e-01  -3.4464618e-01   9.4630199e-01   6.3723192e-01   4.3105449e-01  -3.7128480e-01   2.3095571e-01   1.0549185e-02   5.4693542e-01  -3.0974767e-01  -9.7609734e-01  -4.2761850e-01   3.0601785e-01   2.3506638e-01  -8.9845140e-01  -7.6844384e-01   7.1156548e-01   5.5864529e-01  -4.0962318e-01  -2.1406828e-01   8.1640933e-01  -9.3740424e-01  -4.2267809e-01   7.6696904e-01  -9.5925418e-02  -9.3063148e-01  -9.2795220e-01   1.7472830e-02  -7.6266224e-01   7.0314806e-01  -1.2556468e-01  -1.1424113e-01  -2.8694834e-02   6.3426505e-01  -6.3507137e-01   4.7931402e-01   9.7816063e-02  -7.3528304e-01   6.2066659e-01   5.7040188e-02  -1.6338978e-01  -8.4843093e-01   9.8982122e-01  -8.4356525e-01   7.8646171e-01   9.9162111e-01  -2.8243370e-01   5.3580480e-01   6.1753463e-01  -4.1079007e-01   8.1465327e-01   6.8225197e-01  -3.8147460e-01   2.6315681e-01  -9.5799237e-01  -8.5963673e-02  -1.4037379e-01   8.4740416e-01  -8.0216467e-01   3.4672945e-02  -4.9813982e-01  -3.8733398e-01  -1.3054194e-01   9.7887291e-01   3.2000722e-01   1.3405193e-01   5.8000224e-01  -5.4538941e-01   3.6266187e-01  -9.5268244e-01   8.7241947e-01  -3.1914971e-01   3.9435894e-02  -5.8921065e-01  -1.1014016e-01   8.2745386e-01  -3.7331225e-01   3.7526667e-01  -8.2890355e-01   6.2797824e-01  -7.0460176e-01  -7.3316017e-01   4.3154947e-01   5.4472581e-01  -3.8539107e-01  -2.8890526e-01   1.2387628e-01  -4.2200116e-01   9.9257642e-01   3.3613409e-01   1.7830483e-01   2.1221970e-01  -6.5913761e-01  -3.8259819e-01   6.3443154e-01  -2.8040925e-01   2.8841542e-01   7.8770973e-02  -6.8929703e-01   8.7211343e-01  -9.1873575e-01  -4.0674127e-01  -4.8468260e-01   6.2454762e-01  -8.3098485e-01  -3.2114046e-01   3.3397640e-01  -4.9275639e-01  -3.9620014e-01  -8.7520683e-01  -5.1164954e-01  -4.5809222e-01  -1.8054193e-01  -8.0050207e-02  -2.7924163e-01   8.7680689e-01  -1.0821535e-01  -7.5906496e-01   9.1779397e-01   7.3830416e-03  -9.9112780e-01   7.0276203e-01  -9.3284361e-01   2.8241678e-01  -5.5207499e-01  -6.8450899e-01  -9.6178673e-01   3.1281615e-02   7.1841826e-01  -7.4237045e-01   2.3276081e-02   8.2911565e-01   3.2118220e-01  -7.4781304e-01   8.5767140e-01   1.2168134e-01   3.2418672e-01  -3.6782094e-01   5.6615682e-01  -8.3496938e-01   3.0060006e-01  -2.2326150e-01  -7.2404148e-01   1.5537158e-01   7.3559091e-01  -3.8958088e-01   4.6727695e-01   5.2062546e-01  -6.3438662e-01  -4.0980370e-01  -3.1033093e-01  -2.8613020e-02  -2.5572213e-01   6.5762098e-01   9.5957469e-01   6.1660926e-01   2.0607442e-01  -6.8986484e-01  -1.6673341e-01   3.8427539e-01   7.1707501e-02  -4.6961396e-01  -1.0304072e-01  -1.0381008e-01  -7.2811298e-01  -9.4099400e-01  -3.6896111e-01   8.6783706e-01  -8.3881465e-01   6.3815641e-03   4.1879749e-02  -9.0658227e-01   1.3510089e-01  -7.0530355e-02   4.6907129e-01   7.1695213e-01  -2.9180586e-01   1.5248912e-01   2.1216814e-01  -4.8863392e-01   1.8477625e-01  -6.4435251e-01   8.6541443e-01   7.8430465e-01  -6.1497786e-01  -6.4739548e-01  -6.5541405e-01  -1.4485491e-01   6.8226733e-01  -1.4123526e-01   4.0352373e-01   9.8225048e-01   2.9049233e-01  -8.2917776e-01   7.7857265e-01   1.7098882e-03  -2.0037630e-01  -9.5102690e-01  -2.8634423e-01  -7.8000943e-01  -1.8631471e-01   1.4231879e-02  -2.0255697e-01  -1.2663560e-01   1.4612732e-01   3.7882321e-01  -1.5027425e-01  -4.2776164e-01  -4.4460167e-01   5.6763799e-01  -4.4066987e-01  -1.7992286e-01  -4.7247948e-01   5.0839179e-01  -3.7992293e-01   8.4268378e-01  -9.1659049e-01   6.6555671e-01   3.4777392e-01  -1.6774657e-01  -9.7061282e-01  -6.8733326e-01  -7.8891652e-01   4.2891404e-01  -5.9097926e-01  -6.5054997e-01  -4.2470369e-01   4.4901640e-01   2.3794728e-01   6.5184435e-01   1.5894803e-01   3.0490856e-01  -6.4628712e-01  -9.9272410e-03   2.5711271e-01   5.4777389e-01  -9.6402021e-01   6.9039949e-01   1.7459669e-01  -2.2300880e-02  -5.6801998e-01  -7.0651573e-02  -4.0800550e-01  -8.4361937e-01   8.7127192e-01   5.7424450e-01  -7.5055248e-01   5.4361534e-01  -5.6870545e-01  -1.6949160e-01  -7.3337488e-01   9.5985353e-01  -7.0197086e-01  -2.5857562e-01   3.1361290e-02  -1.3648994e-02  -4.7492860e-01  -7.5800899e-02  -6.5907197e-01   3.3868906e-01  -4.3536742e-01   1.9407614e-02   5.6960605e-01  -2.0327871e-01   7.6501590e-02  -8.6298191e-01  -9.5064050e-02   6.4944527e-01   2.5875109e-01   8.2788639e-03   3.4108174e-01  -3.1259894e-01   7.3165198e-01   4.1989404e-01  -8.4796988e-01   8.5859728e-01   9.3411962e-01  -8.2735180e-01   2.9006537e-01  -4.9855602e-01  -8.7693019e-01  -5.6853181e-01  -9.0718765e-01   3.3508297e-01  -5.0409748e-01  -3.3133141e-01  -8.0493267e-01  -8.4268944e-01  -4.9284226e-01   7.0578778e-01  -9.0395638e-01   7.7742446e-01  -3.3228990e-01  -9.8399162e-01  -9.9623710e-01  -7.4518963e-01   3.5869365e-01   9.9353894e-01   5.5233540e-01  -4.1628918e-01   9.7156494e-01  -9.7505141e-02  -2.0591711e-01  -1.6710874e-01   6.7657092e-01   5.7890922e-01  -1.7876365e-01   6.9519320e-01   1.9405075e-01   6.7642562e-01   6.4318131e-01  -9.4774812e-01  -6.7372192e-01  -6.5375927e-01  -4.2153826e-02  -4.2472514e-01   2.7715760e-01   6.9632493e-01   6.1666764e-01   1.9543673e-01   5.0932755e-01   4.5493002e-01  -1.0125995e-02  -2.9755715e-01  -3.9833108e-01   5.3313574e-01   6.0651951e-01  -6.6855728e-01  -8.3295585e-01  -5.8277024e-01  -3.5072891e-01  -7.5490739e-01   7.8812304e-01   5.0123594e-01   9.7125652e-01  -2.3643293e-01   8.1363739e-01   6.8405950e-01  -5.2446493e-02   6.8633214e-01   1.1220018e-03  -3.4205748e-01  -6.4899003e-02   4.0145792e-01   8.0190919e-01   6.3229686e-01  -6.4984753e-01   8.0253089e-01   4.0111062e-02  -3.8201325e-01   5.0458036e-01  -6.1979666e-01   5.3735564e-01  -7.9838408e-03   5.3941587e-01   8.7371345e-01  -5.0661582e-01   1.2781024e-01  -8.4889629e-01  -6.8708178e-01  -5.0781710e-01  -1.4504705e-01  -3.6640043e-01   5.3425542e-01   5.0825702e-01  -8.8429217e-01   2.4349013e-01  -9.7304538e-01  -1.3535481e-01  -3.4172426e-01  -5.8964091e-01  -9.7854466e-01   5.6176172e-01  -5.6283034e-01   7.7349589e-01   5.2127609e-01   4.7885778e-01  -7.3430592e-01  -6.7395067e-01  -7.8670658e-01   9.5276240e-01   9.2000006e-01   9.7447021e-01  -2.0011281e-01  -4.4237929e-01   9.3941829e-01  -3.6510852e-01  -4.3597562e-01  -1.6037924e-01   5.6083512e-02  -6.4758972e-01  -1.7130990e-01  -5.9025610e-01   7.7850195e-01  -3.0152235e-01   9.8229299e-01   1.8593732e-01   5.0687745e-01  -6.4058686e-01   6.1831152e-01  -2.0609780e-01  -7.7345499e-01  -6.3802189e-01  -1.9586008e-01   5.4558602e-01   3.1300551e-01   7.7034289e-02   8.4573452e-02  -2.3426856e-01  -3.9040100e-01   8.1266115e-02  -2.2282288e-01   7.6492648e-02  -2.7120713e-01   7.0065813e-01   1.0553426e-01   6.7274994e-01  -9.8219401e-01  -5.3880240e-01   8.2477092e-01  -7.7933620e-01   1.8168709e-01  -4.2734908e-01   6.6189187e-01   6.5925752e-01  -1.1621768e-01   6.1755591e-01   8.5412277e-01  -9.1533216e-01   9.0377178e-01  -2.5272255e-01   1.7121528e-01   8.3263458e-01  -1.8997027e-01  -2.6945931e-01  -3.4176651e-01   1.7873564e-01  -8.2307236e-01  -5.2016092e-01   1.0722411e-01   5.7868317e-01   8.8023578e-01  -8.8558594e-02  -4.7531910e-01   5.4707017e-02  -9.3601395e-01   8.6811788e-01   4.1621233e-01   8.6268989e-01   9.9519273e-01   5.9579354e-01   5.3254941e-01  -4.4276559e-01  -6.3253528e-01  -9.3885059e-01  -3.5844869e-01   5.3744471e-01   6.1172137e-01  -1.0346865e-01  -5.0124222e-01  -7.1746102e-01  -9.6394255e-01  -9.5646125e-01  -1.9491581e-02   8.3884604e-01   3.0220739e-01   5.6225756e-01   3.1665403e-01   5.8793396e-01  -1.5003456e-01   3.5136775e-01   3.3624879e-01  -9.9885843e-02  -3.5617203e-01   7.5866376e-02  -7.3676407e-01  -8.5765418e-01   9.3288048e-01  -1.6789963e-01  -2.1838205e-01   5.2349060e-01  -9.2011570e-02   9.3302239e-01   3.5290228e-01  -2.7954432e-01  -4.1813239e-01   8.4000861e-01  -2.8097401e-02  -9.9820194e-01  -8.6208427e-01   3.8417483e-01   4.3141828e-01   2.9896026e-01   6.3470912e-01   5.5701745e-01   4.3981796e-01  -6.9526714e-01   6.1848113e-01   5.9595268e-01   4.1810808e-02   8.1057771e-01   2.1140404e-01  -8.7320525e-02  -1.0199638e-01  -7.8452828e-01   8.5178667e-01  -8.3823177e-01   6.1464148e-01   6.6805547e-01   4.8427565e-02   9.5262723e-02   1.1192753e-02   9.3693053e-01   9.6787986e-01  -2.4000790e-01   2.4133470e-02  -1.2301420e-01   3.5684358e-01  -4.5670672e-01   7.9589371e-01  -5.8414676e-01  -8.5114152e-01  -8.3284934e-02   6.6097002e-01   3.7993994e-01  -2.5183959e-01  -9.2561449e-01  -9.5362314e-01   9.6770063e-02  -9.2815745e-01  -6.4258573e-01   3.9583276e-01   6.8374006e-01  -8.0904437e-01  -4.2834080e-01  -9.4873918e-01   6.3930774e-01   1.7739166e-01   7.0996307e-01   6.1801033e-01  -5.8251744e-01  -4.3908178e-01  -1.8369012e-01  -1.6426412e-01   9.0958283e-01  -5.2286781e-01  -2.1112564e-01   6.3168123e-01   1.1596231e-01  -4.6309896e-01  -3.8664233e-01  -6.7024694e-01  -3.3044919e-01   2.4791484e-02   2.6106390e-01   5.6189871e-02  -2.0468598e-01   2.3422616e-01   9.1689958e-01   9.1560591e-01   7.1701279e-02   8.0222285e-01   9.2738518e-01   3.8249689e-01   7.6569916e-01   6.0637534e-01  -9.7513493e-01   7.3111819e-01  -1.5409660e-01   9.0786772e-01  -6.9992782e-02   3.0379322e-01   7.5130851e-01  -8.4248705e-01  -5.1853789e-01   3.5581024e-01  -5.5208759e-01   5.7575611e-01   7.3612108e-01  -4.7237057e-01   6.0816432e-01  -9.4285455e-01  -9.9810821e-01   7.7773704e-01   6.4928568e-01  -3.7708786e-02   3.4503286e-01   1.5326223e-01  -3.2555677e-01   3.1397669e-01   4.7077955e-02   5.8396469e-01  -2.0904674e-01   7.0267132e-01  -2.1241955e-01  -6.2219847e-01   8.5908189e-01  -8.2141847e-01   5.0858022e-01   5.6520750e-01   8.6157531e-01  -8.6731224e-01  -9.2986170e-01  -1.3672366e-01   4.2713843e-02  -5.5262014e-01  -8.5981117e-01   7.3672081e-01   1.9085888e-03   6.3510710e-01  -7.1985694e-01   8.1907872e-01   4.3477811e-01   3.0706134e-01  -7.4585202e-01  -8.7623118e-01  -3.7704673e-01  -9.4835617e-01   5.7421373e-02  -2.0090546e-01  -8.7459403e-01  -9.4538303e-01   8.7727330e-01  -4.3789683e-01  -9.7971448e-01  -5.2534810e-01  -7.4691690e-02  -6.6656101e-01  -7.6877058e-01  -1.7265957e-01  -6.1136435e-01   5.6828993e-01  -9.0402716e-01  -3.8777962e-01   8.7041663e-01   1.2569837e-01  -9.9071842e-01   7.1670525e-01   1.4318754e-01   6.5520971e-01  -8.1760429e-01  -9.9744035e-01  -6.4866353e-01   4.7046929e-01   9.4469981e-01  -2.8752357e-01  -4.5750028e-01   8.1684627e-01   7.6584763e-01
   1.8860147e-01   5.5673259e-01  -9.8648051e-01  -9.9643599e-01   5.2895817e-02  -4.4013183e-01  -2.3854385e-01   7.3219133e-01  -9.0220683e-01   3.3706030e-01  -3.3868654e-01   1.8251212e-01   9.4582682e-01  -7.2910630e-01  -1.0774253e-01   9.8830746e-01  -8.0376478e-01   3.1978566e-01   6.3865832e-01  -7.6261588e-01  -3.2267594e-01   5.8339098e-01  -5.1019547e-01  -1.9010951e-01   6.3706588e-01  -5.4630640e-01   7.6606791e-01  -3.2444939e-01   3.7480170e-01  -1.4403238e-02  -3.8838670e-01   7.4791448e-01   7.8687059e-01   4.0181839e-01   1.6743934e-01  -9.7338212e-01   2.1144656e-01  -6.4949020e-01  -8.2166153e-01   3.2272822e-01   1.3183876e-01   5.6655755e-01   1.1286434e-01   4.2828690e-02   5.4465670e-01  -6.3733035e-01  -9.5292021e-01   7.8214511e-01  -7.7986327e-01   5.1437508e-01   2.4987237e-01   1.7151231e-01   9.2874113e-01   4.7995338e-01  -1.9120998e-01   1.4869103e-01   5.6190108e-01   6.6013466e-01  -7.7311943e-02  -3.8183086e-02  -6.6207347e-01   6.9682015e-01   8.7853294e-01   6.7490586e-01  -7.2150604e-01  -1.9913558e-02   7.9410255e-01   9.0346338e-01   7.5091040e-01  -7.5916536e-01   9.3853577e-01  -4.7493703e-01   1.5741729e-01  -7.5315087e-01   4.2355023e-01   2.4699618e-01  -6.6814778e-01   9.5855936e-01   1.1378580e-01   5.8533210e-01   8.0418365e-01   9.0599435e-01   9.0614481e-01  -6.2178583e-01  -1.4887943e-01   9.2197559e-01  -3.8865142e-01  -8.4479782e-01  -6.9439721e-01   6.5823449e-01  -5.3441250e-01  -5.0917289e-02   6.0085283e-01  -8.6059124e-01  -8.6371583e-01   9.0144934e-01   4.2240422e-01   1.8496988e-01   3.0249654e-01  -5.3581595e-01   5.9934962e-01  -8.9029999e-01   5.8577703e-01   4.6500249e-02  -8.8387796e-01  -1.0307419e-01   8.8619317e-01  -4.7591670e-01  -4.1129286e-01   4.3336989e-01  -4.4386823e-01  -8.2599500e-01  -2.4814692e-01   2.1915366e-01  -3.2514007e-01   2.1904189e-01  -3.5605870e-01   2.8050654e-01  -3.0828962e-01   5.3703382e-01   6.2946399e-01   3.4424783e-01   9.7791218e-03  -5.2006324e-01   9.8771547e-01   5.1834377e-01   4.7707886e-01  -3.9367459e-01   9.8782208e-01   5.1705359e-02   2.8217249e-01   3.5721598e-01   9.4348306e-01  -5.1419431e-01  -3.6454457e-01   8.1388094e-01   9.9167397e-01   8.2296044e-01   4.8811693e-01   8.1596413e-01   3.7118894e-01   6.9517438e-01   4.6267472e-01  -2.2184474e-01  -1.3068446e-01   4.1688014e-02   3.6008295e-01   9.5480699e-01   8.4332502e-01  -3.8761711e-01   4.8802198e-01  -6.3737084e-01  -3.9407803e-01  -6.1122115e-01   5.3242640e-01  -6.3640338e-01   4.5476397e-01   5.9484492e-02   8.2398286e-01  -9.1680051e-01   5.5371868e-01  -1.7012696e-01   6.0590757e-01  -8.4303143e-01   2.4226071e-02   7.4712171e-01  -7.6365206e-01  -1.4683134e-01   9.6815227e-01   1.9331974e-01  -8.3889180e-01   2.6223152e-01   8.2582912e-02  -6.5505253e-01  -6.0203733e-01   1.8032781e-01  -7.1683187e-02   7.1998105e-01  -5.1284312e-01  -6.0415526e-02  -1.6896190e-01  -2.4719703e-01  -5.7294280e-01  -8.2251330e-01  -7.2425065e-01  -2.1184571e-01   5.3763233e-01   2.2037412e-01  -6.3069370e-01  -5.2853718e-01  -7.8107566e-01   6.7399376e-01   6.8765081e-01  -2.0832615e-01  -9.2810921e-01   3.4511505e-01   1.2623234e-03  -4.3916271e-01  -2.0307136e-01   5.4295047e-01   7.2504139e-01  -7.7468680e-01   3.4606213e-01  -5.8024685e-01  -2.0199297e-01  -9.7188911e-01   3.7448526e-01   6.4468184e-02   7.5360978e-01   6.7691853e-01   7.7176042e-01   9.3101916e-01   7.6295587e-01   3.3185019e-01  -7.1325262e-01   7.8328032e-01  -4.9880052e-01   8.2942394e-01   8.0277492e-01   5.1338865e-01   3.6520423e-01  -4.8913142e-02   7.3853054e-01   8.0475588e-01  -1.3671263e-01   7.3138882e-02   9.2081220e-01  -8.3597234e-01   5.3728164e-01  -9.7229726e-01  -4.1549860e-01  -2.7825495e-01   5.6281376e-02  -9.8441609e-01  -5.8866764e-01   5.7971997e-01  -2.1912754e-01   2.8691011e-01   2.5322397e-01   6.1578932e-01  -1.0548200e-01  -2.5428485e-01   5.4045137e-01   4.9725000e-01  -2.5780999e-01   9.1345119e-01   4.2755456e-01   2.1991333e-02  -8.7440892e-01  -5.1543076e-01  -5.2269632e-01   5.3290182e-01  -1.5819204e-01   1.4065971e-01   4.3378612e-01  -7.2345341e-01  -2.8651529e-01   7.8133996e-01   6.1781232e-01   9.9523243e-01  -2.6439496e-01  -6.5946540e-01   6.1488640e-01  -9.7188358e-01  -6.7787771e-01   4.8499889e-01  -8.5400931e-01  -5.1687680e-01  -7.9975256e-01  -7.9967357e-01   9.2349549e-01   7.5103227e-01   1.4610410e-01  -5.1596703e-01  -7.2697214e-01  -4.5735385e-01   3.5439523e-01  -3.8756879e-01  -9.2957338e-01  -9.1891225e-01  -9.7940491e-02  -8.0139869e-01   4.7282997e-01   6.4286830e-01  -1.8552147e-01  -1.1573809e-01  -4.1258435e-01   4.0904596e-02   5.1793338e-01  -9.6528005e-01   7.8001032e-01   1.9826115e-01  -1.8202218e-02  -1.2281071e-01   6.3895130e-01  -9.4621220e-01   1.7906459e-01   8.5212255e-01   4.0394067e-01   5.2593917e-01   6.9587231e-01   9.0659905e-02   4.3494700e-01   6.8523522e-01  -5.3703295e-01  -2.9634103e-01  -7.8595847e-01   1.7783472e-01   3.3131316e-02  -6.6668544e-01  -3.7382347e-01   6.6717235e-01  -7.8458986e-01   6.7369457e-01   5.0427882e-01   3.7732603e-01  -4.6959734e-01  -6.3452035e-01   8.0850079e-01   1.9188730e-01   7.8486671e-01  -7.5548755e-01   5.3348331e-01   4.3562113e-01  -4.3946568e-01  -3.7880293e-01   1.6523840e-01   2.5581905e-01  -3.7231129e-01  -6.3101381e-01   6.2414545e-01  -8.0455702e-01  -5.8299395e-01  -4.7851468e-01  -4.6304007e-01  -9.2764993e-01   2.7146712e-01  -8.7437310e-01  -4.0214375e-01   4.1917490e-01  -3.4139650e-01  -1.7920944e-01   7.5156526e-01  -4.5156793e-01   3.2940234e-01  -4.3698441e-01  -6.5832501e-02  -1.8083190e-01   7.4335871e-01  -2.6210803e-01  -7.9990667e-01  -7.2143803e-01  -1.5377011e-01  -9.4264884e-01  -9.3675822e-01   6.4735406e-01   4.5042379e-01   1.9386208e-01  -1.5731517e-01  -9.0082087e-01  -2.3369509e-01  -8.7044175e-01   9.2669744e-01  -1.7846349e-01  -2.3110149e-01   9.5744492e-01  -3.5384224e-01  -8.1709640e-01  -7.1669390e-02   6.9787177e-03   8.5258919e-01   2.3617881e-01  -8.6553427e-01  -2.7125675e-01  -9.0099669e-01  -7.4740489e-01  -4.5231901e-01   7.0109956e-01  -4.9095680e-01  -2.5865740e-01   4.9106025e-01  -9.5895209e-01   3.6957107e-01  -3.0875386e-01   2.9605089e-01  -6.4641340e-01   3.0596056e-01  -1.7100976e-01  -7.5565758e-01   2.0168209e-02   7.7615675e-01   9.5219205e-01   8.1476265e-02   6.4862852e-01  -9.3027729e-01   3.5082826e-01  -1.4816584e-01   3.5147159e-01   9.4142064e-01   5.4798086e-01   5.7049499e-02  -2.7776991e-01  -1.2372855e-01   7.9154091e-01   9.7790135e-01  -7.1738684e-01  -1.6593127e-01   5.9793566e-01  -9.7488800e-01  -8.3656444e-01   8.4843116e-01   9.4464635e-01  -1.4313172e-02   3.2681272e-02  -5.6361564e-01  -4.4260787e-02   6.9660652e-02   3.5533526e-01  -8.6447223e-01   2.2750085e-02   4.4680576e-01  -8.9576659e-01   6.2599595e-01   1.3551533e-02  -3.1531246e-01  -5.9815093e-01   8.3725749e-01  -8.2099898e-01   2.5670368e-01  -3.6348907e-01  -3.7518042e-01  -9.2017282e-02   2.6005491e-01  -1.7073225e-01  -1.5826566e-01   4.5293460e-01   7.7842164e-01  -4.3562878e-01   1.4024824e-01   7.7634081e-01   6.8814547e-01   2.6843925e-01   2.8108416e-01   7.9672778e-01  -6.4172162e-01  -5.6469038e-01  -4.5995046e-01   9.4818210e-02   8.2417722e-01  -3.5058193e-01   4.5531811e-03   2.3754057e-01  -3.6833715e-01  -1.3974802e-02   2.0823146e-01   9.5014190e-02   5.4450444e-01  -5.7666795e-01  -8.8205098e-01  -8.0329420e-01   4.2742845e-01   3.0956498e-02   7.5884637e-01  -9.3910232e-01  -1.4379491e-02  -5.9796075e-01  -8.7392362e-01  -8.5920225e-01   9.7965251e-01   5.9341130e-01   3.3051916e-01   5.0980843e-01  -8.5235125e-01   5.4025639e-01   7.4266718e-01   5.7191972e-01  -5.4278119e-01  -8.8549036e-01   5.0989091e-01   3.9851254e-01   8.8300734e-02  -5.9841096e-01   4.3860884e-01  -4.4780092e-02   9.6321026e-01   8.7142999e-01  -7.4302804e-01  -3.8290051e-01   1.3314608e-01  -7.6954431e-02   6.8479895e-01  -7.2038728e-01  -7.0272809e-01   3.4872534e-01   5.9345492e-01  -4.6089377e-01  -5.7549719e-01   8.2662810e-01  -3.4713059e-01  -5.3461919e-01  -2.6097326e-02  -4.9256663e-01  -7.6766213e-01   4.7960692e-01  -7.2927743e-02   7.0363200e-01   5.5948675e-02   7.0759866e-01   9.8369470e-03  -4.9349921e-01   5.9629669e-01  -7.3639823e-01   4.4758415e-01  -3.5102531e-01  -9.0080817e-01   7.1111049e-01  -2.5953580e-01  -6.7487035e-01  -5.6880564e-01   4.6872879e-01   5.0627306e-01  -7.0805767e-01  -4.4003935e-01  -3.1957486e-01   5.3847458e-01   6.8956405e-01   8.5938278e-01  -5.0642756e-01  -4.4345356e-01   7.3214992e-01  -1.6972409e-01   7.1146579e-03   5.7035833e-01   7.9022511e-01  -4.7008547e-01   1.3273538e-01  -3.0416159e-01   9.5916413e-01  -7.6811555e-01  -2.4608993e-01  -4.2287517e-01  -4.0210004e-03   9.0955746e-01  -8.2828235e-01  -3.7651591e-01   9.3438177e-01   4.0664470e-01   3.8819598e-01  -7.1316771e-01  -4.7582601e-01  -7.7106180e-02  -2.5842754e-01  -8.7008886e-01  -7.8535972e-01   8.8937809e-01  -6.0221713e-01   4.6269917e-01  -9.6639207e-01   6.9396620e-01   8.3118975e-02  -9.9707993e-01   4.0175665e-01   3.7296936e-02   4.3190935e-01  -4.8097687e-01  -8.1360324e-01  -6.6457996e-01   7.4533661e-02   1.7753237e-01   8.9734121e-01   7.1685648e-01  -4.0283823e-01   7.1561706e-01   8.1902339e-01  -5.1888514e-01   9.1561148e-01   9.6080527e-02   8.4854252e-01   1.4096607e-01   6.3708297e-01   5.0175692e-01   6.5712057e-01  -4.9706778e-01   6.9605537e-01   7.2637768e-02  -9.0103715e-01  -1.0376549e-01  -2.8421826e-01   9.6375327e-01   2.0352750e-01  -1.1233383e-01  -6.5314936e-01  -2.3477614e-01   7.6305483e-01   3.5775764e-01   6.6432982e-01  -7.3759651e-01  -1.4324641e-01  -6.7699781e-01   4.2520888e-01   1.8718797e-01  -6.6559974e-01   9.8411387e-01   9.5817420e-01   1.5575774e-01  -1.1979392e-01   2.0031188e-01  -7.6048452e-01  -4.7098220e-01   1.8277406e-01  -3.6241623e-01   1.1210199e-01  -7.4607242e-02  -1.4839638e-01   7.7630430e-01   7.0081534e-01  -4.2362478e-01   6.1950422e-01  -5.9765193e-01  -2.8988025e-01  -5.9963612e-01  -4.0977849e-01  -8.5599898e-01   4.6006832e-01  -9.7058555e-01   7.7897038e-01  -7.2737409e-01   9.2739277e-01  -4.4518937e-01   1.5539758e-02  -3.8520753e-02  -4.3519211e-02  -1.3447949e-01  -7.3320770e-01   8.7473621e-01   4.1619142e-01   1.6358358e-01  -9.2446079e-01  -6.5652782e-01  -5.1926580e-01   6.5102910e-01  -3.4781544e-01  -5.2139091e-01   5.1826188e-01  -7.2160189e-01  -1.2394719e-01   6.7550605e-01  -1.0141945e-01   2.9288757e-01  -9.9730978e-01   1.5191616e-01   9.7232352e-01   9.7061749e-01  -7.1246539e-01  -5.0898198e-01   9.9619950e-01   5.0646003e-02  -6.8461942e-01   9.6690841e-01  -7.7086468e-01  -7.7579607e-01   2.6564395e-01   7.2581119e-01  -8.0949252e-01   8.2910233e-01   7.3491545e-01  -2.2085460e-01  -5.9637324e-02   2.6249970e-01  -9.1680160e-01   2.7946764e-01   4.8575839e-01  -3.8190101e-01   8.1244010e-01  -4.5041732e-01   5.2264248e-01   9.0893673e-01  -2.6601543e-01   9.4540911e-01  -5.2250298e-01   1.1402331e-01  -1.5469175e-01   3.1939177e-01  -4.9031195e-01   1.7019833e-01   4.4410683e-01  -3.3423964e-01   6.6667878e-01  -9.4816384e-01  -9.6623269e-01  -4.4525550e-01  -3.1764215e-01   9.8904324e-01  -8.0004200e-01  -8.0621071e-01  -7.6403988e-01  -9.9514780e-01   6.9183464e-01   4.4247126e-01   7.6026006e-01   5.3020053e-01  -7.3854123e-01  -8.8076466e-01   9.3248413e-01  -7.5785252e-01   1.6710498e-01  -7.5350662e-01   4.6426086e-01   9.2444061e-01   1.0951809e-02   4.8839863e-01   8.0047929e-01  -1.4730819e-01   8.2071429e-02   3.4599833e-01   2.7971715e-01   3.5668676e-01   2.8329361e-01  -9.8815491e-01   1.3663426e-01  -9.9349023e-01  -2.2452044e-01   8.1037482e-01   7.8282313e-01   8.5475297e-01   8.3605909e-01  -5.1781282e-01  -3.4461987e-01   1.2164584e-01  -8.0437317e-01  -7.8898928e-02   2.1627792e-01  -3.2928959e-01  -5.6286788e-01  -7.0835708e-01  -5.9780849e-01  -9.3964191e-01  -5.2059996e-01   7.5677151e-01  -7.4738452e-01   2.1747000e-02   7.7588448e-02  -3.4378868e-01  -9.5674025e-01  -2.4946568e-01   9.8626073e-01  -3.3253297e-01  -6.9914594e-01  -8.6939452e-01  -5.9787749e-01   1.7226512e-01   8.1593674e-01  -7.6994790e-01   5.2692017e-01  -6.9192199e-01  -2.0165136e-01  -5.0116216e-01  -1.7560961e-01   2.3341236e-01  -8.0757736e-01  -2.4839558e-01  -4.4578760e-01  -1.9274016e-01  -6.2329337e-01   2.5949120e-01   3.8730328e-01  -2.2972628e-01  -5.5244817e-01   1.8433956e-01  -9.9682109e-01  -7.4275354e-01   7.3960685e-01   9.1048724e-01  -9.7301112e-01   4.9486310e-01   2.8972940e-01   1.4088816e-01  -4.5653261e-01  -3.5389530e-01  -1.7533082e-01  -9.8676803e-01  -9.0045727e-01  -2.4728651e-01  -3.9424227e-01   7.7354179e-01   8.7202702e-01   4.7800253e-01   9.8194143e-01   6.1855717e-01  -4.5530590e-01   4.1795366e-01  -4.6965121e-01   7.6395528e-01  -7.2676385e-01   5.0969572e-01   4.2256067e-01  -7.1245682e-01   2.8194702e-01   1.2959419e-01   2.3392397e-01   6.4763152e-01  -2.4694196e-01   1.0008637e-01  -6.9925870e-01  -7.9741587e-01   8.2090264e-01  -6.6831044e-01   6.2337280e-01   9.8244349e-01  -8.9568634e-01  -2.4027385e-01   8.1316382e-01   8.5443153e-01  -2.2947529e-01  -5.9090885e-01   5.4591860e-01  -9.7647552e-01  -9.9455061e-01  -7.7997437e-03  -9.2791296e-03  -4.4384596e-01  -1.2021118e-01   6.2500588e-01  -6.8198368e-02   6.5026217e-01   2.9351646e-01  -9.8069640e-01  -1.6787816e-01   2.2200808e-01  -1.7489536e-01   6.3796989e-01   7.6977619e-01  -8.2295330e-02   1.9857108e-02   3.0797839e-01  -8.5942326e-01  -4.6173663e-01  -6.9861575e-01   7.2325895e-01   3.6377016e-01   2.3480373e-01  -3.8227894e-01   4.7331597e-01  -3.0817040e-01   8.0222193e-01  -9.5601988e-01  -5.1830348e-02   7.6454773e-01   5.6215422e-01   1.6629956e-01  -2.0609263e-01   3.7982963e-01   6.0931339e-01  -1.5924753e-01   7.0531053e-01  -3.2773912e-01  -8.0154394e-01   8.0576479e-01  -9.6814831e-01   1.9620491e-02  -3.9075240e-02  -8.6828880e-01  -9.7905180e-01  -3.0888359e-01   4.0369203e-02  -3.8964613e-02  -1.9010903e-01  -7.1068701e-01   4.8324099e-01   8.6278714e-01   8.0383931e-01  -7.5006404e-01  -7.1729755e-01   7.7460805e-01  -7.8707871e-01  -3.7196863e-01  -5.6621245e-01  -8.7320389e-01  -4.7562562e-01  -6.0038194e-01  -1.5711334e-01   1.7795328e-01   8.6875689e-01  -8.1282598e-01   6.6326029e-02   4.7915154e-01   8.8141203e-02  -5.6519738e-01  -6.8962429e-01   8.5621271e-01  -3.6288763e-01   3.5158880e-01  -2.8496523e-01  -1.9209725e-01  -3.1665665e-02   3.3432364e-01  -6.3761768e-01  -2.5536017e-01  -2.4825858e-01   1.2430046e-01   9.2307104e-02  -6.3799007e-01  -8.5799608e-01  -1.9256850e-01   6.3617186e-01  -5.9198069e-01  -1.9320589e-02   7.9993094e-01  -1.3138004e-01   6.9163863e-01  -4.1201857e-01  -2.6187138e-01  -3.4883565e-01  -2.3234357e-01  -7.6360592e-01   6.3579058e-01   5.0034074e-01  -2.2247419e-01   3.6731544e-01  -3.6402030e-01  -5.5874138e-01  -5.6074636e-01  -4.4674432e-01  -3.2920649e-01   9.0046391e-01  -5.3500565e-01  -8.6876565e-01  -5.5625178e-01  -7.0257320e-01   6.2777834e-01  -6.4200777e-01   6.7534785e-01  -9.4988326e-02   8.3344164e-01   3.7292936e-01   3.0224491e-01   1.6198991e-01  -3.7491288e-01  -2.8338228e-01   3.4232987e-01   3.7871026e-01  -1.5517478e-02  -4.6169102e-01   2.6154032e-01   7.4649989e-01  -9.1743247e-01  -9.4632220e-01   8.1260629e-01   6.9099501e-01  -7.2270415e-01  -5.0655457e-02  -8.4409927e-01   1.3511425e-01  -9.3130532e-01  -9.5482300e-01   9.3106964e-01  -3.3442596e-01   6.0774450e-01   6.5145464e-01  -1.4079657e-01   4.8480508e-01   1.2871415e-01   2.0658749e-01  -4.5463214e-01   5.9131703e-01   9.0118562e-01  -8.1581115e-01  -3.2996633e-02  -5.0459743e-01  -9.9716721e-02  -3.7723667e-01   6.7382853e-02  -8.1637668e-02   7.7427064e-01   8.3057269e-01  -8.6480490e-01  -1.7067034e-02   8.2936627e-01  -4.7426826e-01  -6.6873379e-01  -2.4422779e-01  -9.1498037e-01  -5.6151360e-01  -5.1353486e-01   8.3487631e-01   4.6183078e-01   8.9499627e-01   1.0927882e-01  -5.8756354e-01  -9.3899333e-01  -1.0559235e-01  -9.0940999e-01  -3.0984663e-01   5.2314334e-01  -9.9789404e-01  -2.1349556e-01  -1.3796855e-01  -3.8968043e-01   2.1539149e-01   3.0715128e-02
  -6.8637191e-01  -1.2896223e-01  -8.0243186e-01   9.5630781e-01   6.3449404e-01  -4.3635709e-01  -3.8438056e-01   6.4910271e-01  -1.9154523e-01  -1.1998545e-01  -6.6223551e-01   2.3125942e-01   4.8110651e-01  -5.3455717e-01   3.2038811e-01   6.1141535e-01   4.8130547e-01   4.6246439e-01   8.4957087e-01   7.7074423e-01  -1.0360148e-01   1.0262817e-01  -9.3231737e-01  -9.1809900e-01   5.8208390e-01  -4.9880714e-02   3.2168612e-01  -9.6219902e-01  -1.1010568e-01  -8.2608879e-01   7.4654813e-01  -6.1125936e-02  -1.5428126e-01   2.8878832e-01   6.4784469e-01  -5.9359827e-01   2.6103085e-01   5.8509568e-01   1.8173833e-01  -9.1742235e-01  -8.1988229e-01   7.1723861e-01   1.2043489e-01   2.8374289e-01  -2.3648305e-01   8.8983092e-01  -5.9060876e-01   4.2316995e-01  -8.4599703e-01  -6.1160869e-01   4.9837120e-01   5.5428272e-01   1.1734922e-01  -9.4732386e-01   8.1008185e-01  -7.3667089e-01   7.7946349e-01  -3.5154568e-01  -2.5719556e-01   9.9325399e-01   9.6611175e-01   5.0058134e-01   7.3612122e-01  -8.0479072e-01  -7.2266217e-01   5.9655417e-01   3.7291837e-01  -3.2157078e-01   3.8947168e-01  -7.0267846e-01  -3.6715094e-01  -6.9411282e-01  -6.0990762e-01   2.4428944e-01  -6.8826738e-01   9.9036823e-01  -8.3442074e-01  -8.1892561e-01   8.4210118e-03  -4.8474064e-01  -3.4355274e-01  -9.2817361e-01  -6.6411999e-01   5.8080570e-01  -6.5720017e-01   4.5502598e-01   4.3106488e-01   5.3186478e-01   1.6247784e-01   3.3026882e-01  -5.0979545e-01   6.7028436e-02  -1.0285895e-01   9.9292916e-01  -8.7448749e-01  -2.8828546e-01   5.6599205e-01  -4.8894563e-01   4.0568303e-01   9.7844487e-01   6.3928505e-02   5.9462025e-01   8.3452382e-01  -3.2481769e-02  -4.7851609e-01  -4.9329119e-01  -6.6314080e-01  -3.0471381e-01   5.0217290e-01  -1.5550803e-01   3.3495474e-01  -9.5256234e-01   2.3193855e-01   9.5473315e-02  -8.9026034e-01   3.8470535e-01  -8.4531712e-01  -5.3512578e-01  -2.3948288e-01   3.5126949e-01  -6.9375724e-01   8.2981896e-01   8.6087582e-01   5.6049982e-01  -3.5511961e-01   7.2392275e-01  -5.2452209e-01   8.2936470e-01   9.9228015e-01  -3.9702507e-01   3.4647598e-01  -4.6677741e-01  -8.0911769e-01   5.0464501e-01   5.5625124e-01  -1.5413255e-01   3.4684877e-01   7.9871956e-01  -9.5430078e-01   7.4673148e-01   9.3741667e-01  -2.6904778e-01  -9.8546847e-01   7.7078054e-01   5.4816659e-01  -5.2474284e-01  -4.7462863e-01  -5.4837061e-01  -5.3036565e-01  -4.0926706e-01  -9.6052962e-01   7.8654120e-01   8.6537148e-02   6.7398926e-02  -3.7652118e-01   2.8535641e-01   7.0362457e-01  -8.4269120e-01  -9.2022214e-01   6.7680177e-02  -7.4680208e-01  -9.8174970e-01  -5.8404993e-01   4.5900375e-01   2.9564777e-01  -6.4426937e-01   4.5334190e-01  -7.2878959e-01   5.4119140e-01  -8.5013665e-01  -6.1833565e-01   9.4658367e-03   9.6495051e-01   5.3895735e-01  -8.2877104e-01   8.7217206e-01  -8.4787437e-02   4.3011455e-01  -9.5836509e-01   9.0258023e-01  -2.2873203e-01  -9.0322314e-01  -1.0066399e-01   4.8270316e-01  -9.2096666e-01  -2.9350004e-01   7.8913375e-01   9.8556472e-01  -4.3055384e-01   2.0278272e-01   2.5312460e-01   8.1396960e-01   2.8152154e-01   2.7524000e-01   8.8862552e-01   4.4560874e-01  -3.9999920e-02   5.3623921e-01  -4.4863012e-01   8.8142125e-01  -6.7617546e-01   7.8512722e-01   5.8806845e-01  -8.8947290e-01  -2.3187661e-01   5.6656476e-01   8.0350271e-01   5.0115844e-01   4.5557248e-01  -9.1274810e-01  -5.1282435e-01   9.9141410e-01   9.5636044e-01  -4.5800815e-01   4.3619257e-01   6.8677795e-01   1.2672290e-01  -3.4035684e-01   2.9999694e-01  -4.8960039e-01  -9.1186910e-01   9.7517651e-01   3.8192954e-01   6.3542566e-01  -4.9765182e-01  -8.2551078e-01   1.2278209e-01   5.1603644e-01   9.9462282e-01   3.6223272e-01   9.9099230e-01   1.9403211e-01   1.9197957e-01  -8.1710803e-01   6.7120160e-01   8.0715302e-01   9.9039977e-01  -4.4792058e-01  -5.8258516e-01   3.9145689e-01  -1.5925852e-01  -6.0142783e-01  -2.4159095e-02   6.5506890e-01   6.8814416e-03  -9.6470282e-01   3.3189254e-01   2.3954397e-01   3.7785135e-01   4.5194380e-01   3.6594423e-03   8.9474744e-01  -8.3011348e-01   3.6229125e-01  -7.7749351e-01   9.8453309e-01   8.7839578e-01   2.4574017e-01  -3.4510431e-01   3.0671941e-01  -6.7766965e-01   5.5903663e-02  -4.6223673e-01  -1.4011348e-01   9.1836200e-01  -8.8646546e-01  -5.7245169e-02  -7.6036312e-01  -7.4184443e-01   3.1453684e-01   5.2437977e-02  -3.3601630e-01  -8.5145730e-01  -8.5559579e-01   8.3320235e-01   2.0555391e-01  -9.5535654e-01   4.3980372e-01  -4.4522191e-01   8.9938047e-01   1.3988147e-01   5.7534324e-01  -3.1601854e-01   9.1951683e-01   5.2718155e-01  -4.6205092e-01   9.0763822e-01  -8.2437990e-01   4.8971914e-01  -4.7899378e-01  -1.8812188e-01  -1.8539852e-01  -3.8632558e-01   3.9091256e-01  -1.0143923e-01  -3.3895653e-01  -5.7258976e-01   9.8121036e-01  -2.3208202e-01  -6.3707927e-01   2.3452215e-01   2.7084287e-01  -3.3869877e-01   9.4632464e-01   4.2528989e-01   5.7734665e-01  -1.2227260e-01   5.9904507e-01  -4.7882279e-01   6.8493683e-01  -8.4263106e-01  -7.5651201e-02  -7.7409845e-01   6.4100933e-01   1.1545678e-01  -1.8216194e-01  -1.7875284e-01   9.5482202e-01  -3.2726764e-01   9.8928199e-01   9.8643061e-01  -2.8964558e-01   3.5125024e-01  -9.4040768e-01  -8.7152210e-01  -6.6852174e-01   8.0311329e-02  -2.8708313e-01   2.9308364e-01   9.4669983e-01  -7.2906715e-01  -5.6321190e-01   4.9711332e-01  -5.3992331e-01  -9.3026785e-01  -4.1099891e-01   9.2951241e-01  -8.7222357e-01   6.5642211e-01   7.0028685e-01  -4.7116841e-01   5.5170856e-01  -4.2971649e-01  -7.3589429e-01  -7.0765275e-02  -1.2616376e-01   3.4095631e-02   1.2042211e-02  -6.4360311e-01  -8.1279299e-01  -3.8271198e-01   3.7104237e-01   9.5115157e-01  -9.7521001e-01   7.7330061e-01  -2.8537383e-01  -7.0502305e-01   5.3969991e-01   2.8511386e-01   7.4537707e-01  -4.9515341e-01   9.5267052e-01  -7.1468966e-01  -5.8688324e-02  -7.5740969e-01   2.9987997e-01  -7.6732800e-01   9.0078245e-02   9.8123090e-01  -6.3524083e-01  -6.6142631e-01   2.7856276e-01   8.7711910e-01  -8.7584930e-01   8.9571882e-01  -8.9548614e-01  -8.7521574e-01   1.5215311e-01  -5.1458433e-01   6.4822899e-01   9.9262843e-01   7.8808074e-01   4.3400397e-01  -1.3267964e-02  -2.5357422e-01  -8.5266841e-01  -8.1698330e-01  -6.4824519e-01  -3.1484043e-01   2.9985908e-01  -9.1516094e-01   7.8910041e-01   9.8046593e-01  -9.7034292e-02   7.7239608e-01  -7.8902276e-01  -4.3999859e-01  -9.0424304e-01   3.8476238e-01   1.9800896e-01   3.4386486e-02   2.1764940e-01   9.4239151e-01  -1.8665532e-02  -6.5711629e-01   3.0947973e-01   4.4716177e-01  -2.5983396e-01   8.4647348e-01   9.8026740e-01   7.2709356e-01  -1.5574196e-01  -1.7326968e-01  -2.1225395e-01  -9.4942849e-01   5.1700951e-01  -5.4062249e-01   1.0809941e-01  -4.2580494e-01   5.6652983e-01  -2.6621900e-01  -4.8203778e-01  -8.1947882e-01  -6.4676682e-01  -9.2150648e-01   3.5979603e-01   7.8948543e-01  -1.3253998e-01   7.0713495e-01  -2.4018115e-01  -5.4355348e-01   9.6923383e-01  -1.7322382e-01   4.4087218e-01   8.8175277e-01   8.4015253e-01   7.4446484e-02   5.2547481e-01  -6.3805900e-01   7.9554620e-01   5.4765917e-01  -6.5691621e-01  -8.7627839e-01   1.9151413e-01   3.4421235e-01   3.5763812e-01  -3.2616622e-01  -2.9855814e-01   5.1310216e-01   8.3582573e-01   8.4840029e-01  -1.0609396e-01  -2.5598596e-01   2.6244241e-01  -9.4804765e-01   2.0466422e-01  -3.4051139e-01   9.1369533e-01  -6.6270480e-01   2.6053452e-01  -3.4600011e-01   2.7922456e-01   2.4315559e-01  -6.5359189e-01  -9.4581188e-01  -6.1046601e-01  -5.8448780e-01   9.8969390e-01  -6.7406887e-01   2.7937030e-01   7.7750349e-01  -1.6157447e-01  -2.2517840e-01   8.3988072e-01   7.6978002e-01   9.2190440e-01   7.2995433e-01   2.8631233e-01  -7.6552202e-01   8.5488147e-01  -3.8490265e-01  -4.4066763e-01   1.5326730e-01   5.6545840e-01  -2.3578308e-01   1.8233312e-01  -3.9464882e-01   6.8722804e-01  -1.8804329e-01  -3.8042712e-01   8.3229504e-01  -5.6323023e-01   6.4119091e-01  -9.7000842e-01   7.8910130e-01   9.0062207e-02   1.5802257e-01   8.8729518e-01   4.3836177e-01  -5.1139795e-01   3.1159963e-01   6.8862370e-01  -9.9448696e-01  -9.5044713e-01   9.5298561e-01  -9.3843937e-02   8.6307814e-01  -9.2759394e-01   4.4199970e-01   4.7847306e-01   9.4791930e-01  -1.4321339e-01  -3.7953406e-03  -3.6073892e-01   4.4894241e-01   3.9620607e-01   4.8979572e-01   9.2426249e-01   3.3799721e-01   1.7486370e-01  -8.7857754e-01   9.7249854e-01   3.9698693e-01   2.4513006e-01  -2.8964641e-01  -2.1709504e-01  -7.8100598e-01   2.5343405e-02   1.8865235e-01  -2.9322782e-01  -9.1182821e-02   3.3496715e-01   4.8014505e-01  -9.2141449e-01  -1.6014297e-01  -1.3674046e-01  -2.4028269e-01   5.4499882e-01   8.9066455e-01  -2.7660109e-01  -9.5719233e-01   8.8682695e-01  -8.1297205e-01  -5.6831485e-02   3.0662363e-01  -3.6618193e-01  -8.2437158e-01   4.5836581e-01   8.1796622e-02   6.9979190e-01   7.4209052e-01  -9.1896995e-01  -3.1991968e-01   5.5475060e-01   8.3753002e-01   5.4579492e-01  -3.4164755e-01   4.8219083e-01   4.1157196e-01   7.1290378e-01   6.0050031e-01   3.5943239e-01   9.5385479e-01  -8.2035576e-01   9.2896274e-01  -5.1871043e-01   9.3300606e-01   7.0539736e-01  -1.4805153e-01  -8.4906461e-01  -1.8944319e-03  -5.9793113e-01   8.0275103e-01  -1.9108853e-01   2.6706106e-02   2.5774158e-01  -2.5085115e-02   3.6593281e-01   8.3630507e-01  -3.7924151e-01   4.6383029e-01   7.8648322e-02  -4.6217397e-01   5.7118042e-01  -4.8921778e-01  -9.6645673e-01  -2.8084169e-01  -9.7233477e-01  -9.5788222e-01  -3.1117352e-01   5.7271575e-01  -4.9770676e-01   2.4757551e-01   1.4612957e-01  -2.2403540e-01   1.2032446e-01  -4.0586905e-01  -2.9815176e-02   8.1408749e-01   8.8687006e-01   8.4871800e-01   4.8047014e-01  -7.8710500e-01  -1.7379002e-01  -5.5454790e-01  -8.3335412e-01  -4.0782517e-01   8.8807881e-02   4.7780169e-01   1.6201998e-01  -6.5843331e-01  -9.1101979e-01   9.7532671e-01   3.1967772e-01  -4.5732962e-01   3.1155217e-01   8.3029369e-01  -8.8416882e-01   7.0116980e-01  -2.3599882e-01  -3.2599827e-01  -3.6412927e-01   5.1601770e-01   3.8143282e-01   4.7695017e-02  -7.3092098e-01  -2.9073455e-01  -7.0940051e-01   7.9378335e-01  -4.3703677e-01  -5.8667442e-01   8.4997362e-01   2.3982156e-02  -3.3025819e-02   5.8451618e-01  -2.4256117e-01  -6.0231066e-01  -1.4407362e-01   4.3541376e-01  -9.4890596e-01  -7.2280258e-01  -1.6741850e-01  -8.7268312e-01   6.7851596e-01  -6.1230924e-01   9.5370977e-02  -1.9487743e-01  -7.8436506e-02  -5.0166197e-01  -8.0726852e-01   3.9354678e-01   8.9226317e-01  -9.0212442e-01   4.2329440e-01  -8.6993406e-01  -4.6748672e-01  -8.1422723e-01   9.2333480e-01  -2.8293517e-01  -5.1854285e-01  -6.3028274e-01   8.0736210e-01  -5.4356513e-01   7.4473053e-01   6.3237222e-01   4.6415687e-01  -5.2052199e-01  -8.5905790e-01   5.1849839e-01  -1.3821722e-01   8.3526610e-01   7.1890233e-01   1.9534758e-01   8.3901304e-01   8.4402452e-01   9.1654656e-01   7.9489432e-01  -5.3724005e-01   9.0225467e-01  -2.4973810e-01   1.7073428e-01   5.4513616e-01   6.6783101e-01   1.5139293e-01   1.8562935e-01  -6.7138148e-01   8.4468593e-01  -3.5880068e-01   8.9483603e-02  -3.6300858e-01   3.0608068e-01   5.5321538e-01  -4.4189980e-01  -2.4883165e-01  -9.0664026e-02   4.3875251e-01   7.7241059e-01  -1.7270977e-01   9.5351366e-02   5.5643680e-01   7.8294491e-03  -7.5003254e-01  -6.5659527e-01   2.0859009e-01   6.9735134e-01  -1.6409527e-02  -4.6056336e-01  -4.4565259e-01  -6.4285004e-01   6.9592000e-01   2.0192313e-01  -8.2454228e-03  -6.6090728e-01   4.9177394e-01  -9.5466431e-01   1.2589179e-01   2.0105347e-01   4.1635532e-01  -3.8578548e-01  -6.7786369e-01  -8.9530148e-01   9.1908040e-01   3.1779222e-01  -6.6047874e-01   6.5040550e-01   5.8427230e-01  -7.5618196e-01   3.9380544e-02  -2.2780533e-01   1.7073060e-01  -2.2661463e-01  -9.3658634e-01  -5.5732744e-01   8.9417158e-01   5.4222643e-01   2.9243275e-01  -8.1700698e-01   8.2257995e-01  -8.4909292e-01  -9.8909949e-01   1.9252963e-01   1.1881787e-01   4.2226772e-01  -1.8170938e-01   5.0357291e-01   2.1124110e-01  -5.3484415e-01   6.6096317e-02   7.0388165e-01   5.7398363e-01   5.3921318e-02   2.7907310e-01   7.4011966e-01   7.1333603e-01   3.6250309e-01  -4.4875416e-01  -4.2272515e-01  -7.5543029e-01  -8.0625807e-02  -1.1160300e-01  -1.2390349e-01   3.0008350e-02  -6.3082012e-01   7.2148060e-01   6.2792722e-01  -4.6042791e-01   1.3936649e-01   9.5255287e-01  -8.1601683e-01  -7.1570368e-01   8.0394276e-01   3.0933053e-01  -6.1515630e-02   1.4062699e-01   8.1142907e-01  -4.1606015e-01  -3.9083951e-01  -1.6065310e-01  -7.8707198e-01   7.9025704e-02  -7.5265518e-01  -9.5950665e-01  -5.1978073e-01  -9.4304227e-01  -5.3746494e-01  -4.7063876e-01  -2.8765656e-01  -1.2234566e-01   3.8132378e-01  -9.1339612e-01  -1.3784595e-01   7.7720169e-01   9.6389202e-01   1.5986951e-01  -6.3472399e-01   4.6232178e-01   4.0248647e-01  -8.8609245e-01   3.2029694e-01  -4.3925461e-01  -6.6177680e-01   3.0021625e-01  -7.5401270e-01   8.0756903e-01  -9.3631895e-01   8.6541159e-01   5.4074994e-01   4.0925799e-01  -5.1061413e-01  -6.9678121e-01  -7.0526659e-01   8.7026435e-01   6.6799197e-01   5.8736973e-01  -5.4759789e-01   8.4107284e-01  -7.4883275e-01  -7.8367676e-02   2.0695681e-02   7.9274203e-01   3.9461528e-01   8.5709393e-01   1.5016977e-01  -6.7530277e-01   9.6331859e-01  -1.3532465e-01  -8.1460032e-01   6.8919495e-01  -7.0036205e-01   1.0137205e-01  -3.5217476e-01   6.8858502e-01  -7.5071698e-01   1.4548266e-01   4.8954189e-02   8.8956037e-01  -3.4334827e-02  -4.1561047e-01  -9.0084998e-01  -3.1477201e-01  -7.7470490e-02  -8.7963130e-01  -8.4589356e-01   5.6611165e-01  -4.3553802e-01  -8.6075469e-01   7.9753241e-01  -3.3478676e-01  -4.2294898e-01   4.7083351e-01  -6.9834000e-03  -6.4276821e-01   8.8166530e-01   8.6653304e-01  -3.8675284e-01   8.3544820e-01  -1.9046353e-01   6.9107314e-01   9.1258129e-01   7.7794673e-01   5.2444511e-01  -9.4562355e-03   7.8992125e-01   7.8914742e-01  -9.9316016e-01   2.3417249e-01  -4.9100193e-01  -2.6265629e-01  -5.6558939e-01   5.5708942e-01  -6.3025593e-01  -9.4926278e-01  -4.1996695e-01  -9.5134064e-01  -4.3943133e-01   5.1712982e-02  -5.2814475e-01   8.4986827e-01   7.1127478e-01   4.8365256e-01  -1.3421326e-01  -3.6762299e-01  -3.4606439e-01  -2.0476599e-01   1.0538554e-02   2.6265887e-01  -8.5349990e-01  -4.8331324e-01  -7.0145000e-01  -6.4471062e-01  -8.2105171e-01  -9.6022378e-01  -8.8278360e-01   7.2041873e-01   5.5400662e-01  -6.4965657e-01  -3.8794039e-01  -2.3673780e-01  -4.4888067e-01   9.8047498e-02   3.1173461e-01   7.8913440e-01   9.5389929e-01   1.0467480e-01  -4.1762231e-01  -5.6202655e-01   1.2215793e-01  -1.9450382e-01  -4.0680825e-01  -9.2377624e-01  -2.3979467e-01   7.9645489e-01  -4.4958110e-01  -4.6127961e-01   8.1430011e-01   8.8770221e-01   4.3447338e-01  -3.9875713e-01   2.8988083e-01   9.5253773e-01   6.2475669e-01   5.5933326e-01   5.5850967e-01  -2.6511832e-01  -1.9434863e-01  -6.4147999e-01   9.1279660e-01   1.8850399e-03   4.0138212e-01  -7.6216696e-01  -4.7141606e-02   5.4732994e-01  -8.6812528e-01   7.5491367e-01   9.6096255e-01   7.0326834e-01   8.2540076e-01   3.8784616e-01   9.1755599e-01  -7.6496906e-01   1.2219762e-01  -3.9008701e-01  -8.2345022e-01  -5.1954320e-01  -5.5463017e-01   8.3827645e-01   8.4895099e-01  -4.0566190e-01  -8.1394568e-01  -8.6699899e-01  -4.3687055e-01   8.4941018e-02   5.5300482e-01   9.8936245e-01  -9.0292107e-01  -8.1093391e-01  -1.4790350e-01   5.3245921e-01   7.0101998e-02   4.6722188e-01   8.7648405e-01  -6.5738631e-01   6.6549994e-01  -1.2471039e-01  -9.6269599e-01   1.0548424e-01   7.0045175e-01  -3.0277086e-01  -9.7645195e-01   5.3950936e-01  -6.3542974e-01   9.2790603e-01  -8.1843527e-01  -1.8412663e-01   9.7852738e-01  -6.3312053e-01  -7.2694137e-01  -1.2386049e-01  -3.7862858e-01  -1.6978197e-01   3.2434377e-01   5.5651380e-01   4.1172814e-01  -5.3134532e-01  -3.3650034e-02  -8.8956578e-01  -3.5217479e-02   9.7589955e-01   4.0462257e-01   7.0846150e-01  -8.4131494e-01  -4.4845215e-02   2.8293981e-02   1.7629056e-01  -6.0376594e-01  -2.1224499e-01  -3.8210309e-01  -6.6951688e-01   7.2740981e-01   7.2296718e-01
  -3.3639499e-01   1.6648663e-01  -1.2664484e-01   9.2088953e-01   5.0087469e-01   5.1120078e-01   2.2669888e-02  -8.5003869e-01   9.6597153e-01   5.0581814e-02  -7.0336854e-02   3.3420161e-01  -2.9396338e-01  -6.7467236e-01  -2.3624924e-03   4.9411939e-01  -4.7852019e-01   9.9315805e-01   6.8983233e-01   1.5141184e-01  -9.2981219e-02  -2.6062713e-01   7.1859226e-01   6.8601785e-02   3.0324342e-01   8.0511418e-01  -7.9361297e-01  -2.9087543e-01   9.2542026e-01   7.4617005e-01   6.7111661e-01   4.8957266e-01   1.6125827e-01  -2.9697303e-01  -5.2451148e-01   5.5220776e-01   7.7238666e-01   4.2995961e-01  -5.4763950e-01  -3.3335387e-01  -8.2221042e-01  -8.6324001e-01   2.8888851e-01   3.7056680e-02   1.0379771e-01  -3.5982389e-01   4.4251494e-01  -8.6914394e-01   5.2184272e-01  -4.3789597e-01  -1.9458787e-01   7.6199322e-01   6.2091236e-01  -5.2546388e-01  -5.2405304e-01  -8.3392442e-01   2.7990181e-01   9.2264250e-01  -2.9075827e-01  -4.4087234e-01   7.6033293e-01  -3.5230618e-01   3.2579342e-01  -2.7798833e-01   8.8935118e-01   8.1565604e-01   2.4278911e-01  -4.8548532e-02   9.0801267e-01  -5.2500708e-01   8.1134961e-01   9.9131110e-01   7.9754142e-01  -2.8359162e-02  -4.5527579e-01  -7.6124419e-01   7.4213986e-02   8.8716309e-01   9.9604744e-01   4.8126993e-01   3.9848488e-01   9.4739108e-01   9.8901131e-01   5.5266084e-01  -7.3750053e-01  -2.4525801e-01   8.6754352e-01  -3.2739478e-01   8.0112302e-01  -9.8792378e-01   8.7848486e-01   1.4712913e-01   1.2240742e-01   5.7294475e-01   8.9643518e-01   9.4644889e-01  -5.5919296e-01   9.2045254e-01   9.7530748e-02  -5.2103212e-01   9.2363449e-01   8.0155016e-01   6.8998929e-01   2.4320645e-01   1.9418526e-01  -1.3042647e-01   2.2697016e-01  -8.7325750e-01  -7.5592510e-01   4.8499785e-02  -5.0804846e-01   3.4430131e-02   2.8097220e-01  -8.9026529e-01  -9.6820383e-01  -1.1869733e-02  -2.7913776e-01   5.6703503e-01  -4.1069041e-01  -5.3197913e-01  -9.3509222e-01  -4.6837252e-01  -3.7195128e-01  -8.5359666e-01   1.4973340e-01   1.0994319e-01  -7.5697263e-01   7.5967940e-01   9.9219682e-01  -6.9873228e-01   2.6963806e-01   3.9328229e-01   2.0314390e-01  -9.0068100e-02   8.0124780e-01   9.2143749e-01   7.7421692e-01  -3.0145994e-01  -8.5751405e-01   1.1431377e-01   7.1380906e-01  -4.5032745e-01  -6.7352995e-01   3.9435194e-01   7.0226456e-01  -7.7141910e-01   1.2602782e-01  -1.4469247e-01  -6.5980096e-01   9.2792212e-01  -5.7622375e-01   8.1667789e-01  -8.9547786e-02   3.8172325e-01   4.6602103e-02  -2.7852837e-01  -4.3317612e-01   7.0119292e-01   1.1797719e-01  -1.0464611e-01   2.1448959e-01   2.7663374e-01   1.3201912e-01   3.2999954e-01   8.2642495e-01   4.1740137e-01   1.9249615e-02  -2.1062551e-01  -5.6681152e-01   2.5846612e-01   4.0511166e-01  -3.2290021e-01  -9.4654318e-01   2.2243719e-01   6.5475437e-01   1.3226569e-01   2.9916718e-01  -8.3045279e-01   4.7849261e-01   4.1202214e-01  -4.9658957e-01  -9.7643423e-01   1.1503900e-01  -6.4140152e-01   2.8388393e-01  -4.0178455e-01  -1.6543867e-02  -1.2461786e-01   3.8490630e-01   3.2276059e-01   8.2478768e-01  -7.3359071e-03  -7.7263983e-01  -5.6554467e-01  -2.9942092e-01  -5.3475103e-02   3.6259569e-01   9.0009840e-01  -9.7746448e-01   7.5131763e-01   2.7746818e-01   9.8872611e-01  -6.6235556e-01   1.9007606e-01  -3.3941544e-01   7.0952923e-01  -4.1229529e-01   7.4439163e-01  -1.2454166e-01  -2.1378229e-01   2.0553002e-01  -9.3922449e-01   9.8680497e-01  -8.7675689e-01  -1.1918194e-01  -1.8593654e-01   5.1059999e-01  -2.0044332e-01  -6.1698235e-01  -7.8981165e-01   8.3232046e-01  -5.4430404e-01   5.3968404e-02   3.0746457e-02   8.1952924e-01  -2.0830209e-01   7.7920503e-01   2.4241671e-01  -4.1103201e-01  -1.8082704e-01   5.1542056e-01  -5.4223052e-01   2.2397457e-01  -1.3669250e-01   6.9513377e-03   6.9518499e-01  -6.5379614e-01  -7.0628053e-01  -6.1950166e-01   8.2313344e-01  -4.8459281e-01   9.5155771e-01  -2.2028441e-01   4.1692793e-01  -5.6709401e-01  -3.3724570e-01  -5.9920513e-01  -7.4064799e-01  -8.3735609e-01   2.0321310e-01  -7.6089982e-01   8.9986452e-04  -7.5499442e-01   5.4709190e-03  -2.7944860e-01  -2.8910265e-01  -2.3534163e-01   6.6914463e-01  -6.8633003e-01  -3.5849426e-02  -8.1320491e-01  -7.8472251e-01  -5.0042697e-01  -1.0270687e-01  -1.6237364e-01  -3.3141180e-01   5.3158108e-01   9.9690320e-01  -8.9741137e-01  -3.9507463e-01  -2.2553825e-01  -5.5453284e-01  -9.6278491e-01   6.6855243e-01   5.3976472e-01   5.1394434e-01   6.3249850e-01  -6.2006490e-01   6.5769896e-01   7.3987843e-01   4.2017939e-01   1.5099072e-01   9.2366881e-02  -8.3194202e-01   7.2061553e-01  -5.2483096e-01  -3.7526069e-01  -5.6257924e-03  -3.8348991e-01   9.2046069e-01  -6.2567969e-01  -1.0693901e-01   4.7139449e-01   4.6257656e-01  -2.9201633e-01  -6.1938854e-01  -2.2241407e-01   1.0988374e-01  -2.5877051e-01  -9.9697255e-01   2.6349269e-01  -7.0403203e-01  -4.2675372e-01  -6.6589081e-01   5.1510231e-01   4.8287839e-01  -3.8231763e-02  -9.0857144e-01   4.5622517e-01   3.8862738e-01   5.0141629e-01  -1.0649437e-02   8.7363636e-01  -9.7820442e-01  -6.4329577e-01   4.8733512e-01   2.6574158e-01  -6.8866053e-01   9.3325732e-02   5.9553063e-01  -2.0982678e-01   3.0491305e-01   9.7455279e-01  -7.1669693e-01  -9.4049526e-01   5.0108830e-01  -3.1494580e-01  -8.7093448e-01  -4.3552957e-01  -1.6859770e-01   5.6370767e-01   4.4126800e-01  -9.4628450e-01   9.8850735e-01  -2.7585420e-02  -4.3472965e-01   6.9833606e-01  -4.2905297e-01  -6.0919729e-01   7.7195259e-01  -3.2832039e-01  -4.0690836e-01   7.5059973e-01   6.0905277e-01   1.0268884e-01   7.2655806e-01   1.3351727e-01  -6.9238115e-01   9.9465679e-02   8.5750585e-01   4.0144877e-01  -4.6619486e-01  -4.5812967e-02  -9.8506326e-02   4.6545544e-01  -6.3291625e-01  -8.9129350e-02   8.8775894e-01  -3.5647922e-02  -4.2174583e-01   5.4308635e-01  -8.7626074e-02  -8.7178993e-01   9.7252490e-02  -4.0430312e-01   8.4978436e-01   9.9549791e-01  -7.9412372e-01  -9.1531389e-01   1.5061132e-01  -8.8777693e-01  -6.4992066e-01  -7.0518947e-01  -7.8202636e-01  -9.4792974e-02   5.9219838e-01   4.3685529e-01  -5.9319344e-01  -7.1964824e-02   4.0368711e-01   6.9312296e-01   5.9667792e-01   5.9133877e-01  -1.8243645e-01   9.0057884e-01  -4.4139388e-01   4.7358387e-01   6.1627392e-01  -4.9535520e-01  -6.6832552e-01   8.4358413e-01  -3.6080372e-02   5.3979980e-02   1.5581911e-01   7.9520012e-01  -4.4270790e-01   3.9241821e-01   4.1195671e-01  -8.9002633e-01   4.3638560e-01   1.0054618e-01  -5.6441733e-01  -8.2672731e-03  -7.7644606e-01   7.8042354e-01   4.0594120e-01  -7.1360666e-01  -2.9724677e-01  -4.5072153e-01  -7.8316559e-01  -7.4446327e-01   2.0572012e-01   1.8047111e-01  -4.6906895e-01  -2.8010640e-01  -5.1319084e-01   4.8382816e-01   5.0913821e-01  -7.7152108e-03  -8.9762529e-01   2.0870576e-01   7.0596887e-02  -1.6058273e-01   8.3925648e-01  -5.6551189e-01   5.2014725e-01   6.7016456e-01  -6.4242681e-01  -9.0872018e-01  -7.2757020e-01  -4.6405365e-01   8.7821239e-01  -3.1182227e-01  -4.0188075e-01   6.1380135e-01  -2.0440495e-01  -4.4044123e-01   3.8764606e-01   5.4229667e-01   7.8427476e-01   8.2774155e-02  -2.9280979e-01  -1.6303470e-01  -3.2965749e-02  -3.5580571e-01  -8.6657337e-01  -7.9669384e-01  -9.1472237e-01   8.5079699e-01   9.1196786e-01   4.1122308e-01   5.9235138e-01  -7.9667271e-01  -7.1827222e-01  -9.0466811e-01   9.2668463e-01  -5.2171955e-01   5.0373886e-01   5.8618995e-01  -8.6270974e-01   6.0211652e-01  -4.3602733e-01  -5.1281663e-02  -9.5504277e-01   5.5481168e-01   8.0473421e-01  -3.7800023e-02  -1.4126170e-01  -4.5527325e-01   9.0554845e-01   4.3530745e-01  -5.9403508e-01  -1.7909330e-01  -7.1282071e-01   8.3540672e-01  -7.7804814e-02   1.2632523e-01   8.7102444e-01  -6.8056671e-01  -7.8735152e-01   3.4005178e-01  -3.6665398e-02  -1.3239104e-01  -2.5389246e-01   1.1802907e-01   9.3166788e-01   2.2556520e-02  -2.9183193e-03  -6.1319598e-01   8.8238841e-01   5.9792224e-01   4.8179181e-01   3.6445751e-01   2.4021091e-01   4.2215839e-01  -5.8277219e-01   9.9313582e-01  -8.6362881e-01   3.2541832e-01  -7.6266123e-01   8.8805568e-01   8.1869214e-01   9.2682898e-01   6.6317262e-01  -5.0620702e-01   2.8721212e-01   7.3334394e-01  -4.7522590e-01   6.1011423e-01  -6.9975993e-01   7.5003409e-02   2.2920117e-01   2.0817251e-01   5.6612777e-01   7.3282610e-01  -8.5329300e-01  -1.9667807e-01   5.8963713e-01  -2.6516809e-01  -7.9072513e-01  -7.7599258e-01  -3.9595421e-01   7.5892861e-01  -1.2533237e-02  -9.5553029e-01  -4.0598318e-01  -2.9080221e-01  -3.2633940e-01   6.8531201e-01   3.1238484e-01  -7.3388334e-01   7.7169405e-01   3.8665709e-01   9.4023870e-03  -7.1608501e-01  -9.3979588e-01  -7.3421611e-01   1.9852878e-01  -8.0780417e-01   4.5936192e-01  -5.2201351e-01   3.5887831e-01  -7.3129424e-01  -5.3834168e-01   3.0996863e-01  -5.2391824e-01   3.6076873e-01  -6.2623542e-01   6.7188401e-01  -1.7914811e-01   6.8707788e-01   2.2498691e-01  -3.6755884e-01  -6.2953871e-01   5.8542672e-01  -8.7373287e-01   4.3533687e-01   7.6843257e-01   4.4003750e-01  -8.2687964e-02   7.0184825e-01  -6.1744218e-01  -8.6504544e-01  -8.9670722e-01   7.5269569e-01  -7.7419023e-02  -9.7275675e-01   4.4750655e-01  -3.6086779e-02   5.8489691e-01   6.4718586e-02   1.5669355e-01  -5.5335671e-01  -8.1033688e-01  -1.3001733e-01  -1.2576577e-01  -9.0631286e-01   9.5670960e-01   6.4479859e-01   4.7803360e-01  -3.3025997e-01   3.3312276e-01   9.2034760e-01  -8.6051991e-01   5.9949941e-01  -4.4584023e-01   2.6186775e-01  -8.1453151e-01   6.7010187e-01  -7.7364182e-01  -8.4280360e-01   2.8016052e-01   6.5391451e-01  -9.0702217e-01  -8.2239904e-01   5.6715057e-01  -6.1589222e-01   4.8116444e-01  -8.7309649e-01  -3.6817669e-01   6.7053415e-01  -5.7578469e-01  -2.1043179e-01  -5.3251835e-01  -7.2023172e-01  -3.9062668e-01  -4.8940284e-01  -4.1514511e-01   7.5441210e-01   2.0662861e-01   4.0861993e-01   5.0434525e-01  -2.3504561e-01   7.4542482e-02   5.1006659e-02   4.2949046e-01  -3.2230049e-01   5.9739953e-01  -8.4527101e-01  -7.6857759e-01  -4.4932787e-01   9.0390804e-01  -5.1715636e-01   7.7226066e-01  -1.6124322e-01  -2.8106903e-01   6.1510115e-01   6.7314108e-01  -7.4081596e-02   1.3274969e-01  -1.1243007e-01  -6.9944093e-01  -5.0850168e-01  -8.9009576e-01  -1.8877132e-01   3.8952933e-01  -5.8328481e-01   5.1704786e-01  -8.4026646e-01   6.0944570e-01  -1.3115625e-01   3.3524182e-01  -7.0749941e-01   1.0197763e-01   4.3834097e-01  -6.3227874e-01  -9.3795086e-01   1.3843846e-01  -9.5729806e-02  -2.1198444e-01   9.8995391e-01   6.5328060e-01   2.5439731e-01   3.2723036e-01   6.8535219e-01  -7.2522354e-01   1.5245148e-01   7.5264971e-01   2.5307692e-01  -3.2551761e-01  -3.6331750e-01   8.0922549e-01   3.5396438e-01  -2.5119209e-01   3.2408478e-01  -8.8391296e-01  -9.3187023e-01  -1.6325663e-01   7.8364719e-01   4.9235289e-01  -8.4690511e-01   7.6484678e-01  -8.0666142e-01   4.4193269e-01  -4.3113951e-01  -3.5780816e-01   9.8877599e-01  -9.1037436e-02   5.8041659e-01  -3.0287113e-02   1.1821819e-01   4.6311569e-01   2.7723528e-01   3.2530848e-01  -2.0558427e-01   4.5481595e-01   7.9175733e-03   5.2983593e-01   8.7678626e-01   5.8457608e-01   9.2989813e-01  -2.8506379e-01   4.6076191e-01   7.9186402e-01   1.0919605e-01  -4.0525906e-01  -4.0242539e-01   6.6484838e-01  -1.7679877e-01  -6.5628807e-01   8.4621299e-01  -3.2456253e-01  -3.2610689e-01   3.2795910e-01   7.2628648e-01   7.6092349e-01   2.9893217e-01   3.9677803e-01   9.7704562e-01   1.3171820e-01  -5.0177582e-01   7.1218443e-01   4.1521433e-03  -5.5236811e-01   2.9977423e-01   8.6403943e-01  -3.2953426e-01   1.8690948e-02   8.8843751e-01   4.3698695e-01  -9.1108570e-01  -9.4121832e-01  -9.2127403e-01   9.2469023e-01  -8.9334265e-01  -8.1714297e-01   2.6489743e-01  -4.5873649e-01   4.8365491e-01   8.5046281e-01  -4.4267172e-01   2.2787708e-01  -7.9048882e-01   2.3363667e-01   9.7649133e-01  -7.2143396e-01  -9.4896754e-01  -7.7013820e-01  -6.2696640e-01   4.0745295e-02  -1.2464696e-01  -4.8798165e-01   8.8355634e-01   3.6007439e-01  -6.0013978e-01  -6.6964910e-01   2.6904861e-01   6.3176655e-01  -4.3169949e-02  -8.0381372e-01   8.2871673e-02   2.8221449e-01   4.5113349e-01   5.4451893e-01  -6.4549937e-01  -8.3028679e-01   9.5396143e-01  -9.6486155e-01   9.3554301e-01  -8.7485904e-01  -9.8235780e-01   8.6694782e-02   3.0137232e-01   7.6377204e-01   4.3926201e-01   7.5621105e-01   7.9059875e-01  -4.6089345e-02  -4.4044786e-01   6.6460031e-01   2.9587399e-01   8.1637192e-01   7.7353448e-01  -4.0520725e-01   4.0385710e-01   3.5917272e-01  -8.2000274e-01  -6.8575121e-02   3.1676883e-02  -7.6145615e-01   5.2452718e-01   4.1646939e-01   9.2598011e-01   9.9613198e-01   2.6933408e-01   3.9843767e-01  -6.8593375e-01   1.8654759e-01   5.3789528e-01  -6.1274617e-01  -2.8699826e-01  -2.8106110e-01  -4.8492670e-01   2.5616003e-01   3.1713756e-03   4.8119771e-02   3.7908595e-01  -7.7580839e-02  -3.9803521e-01  -4.8918707e-01   1.2215244e-01  -2.6774414e-01  -5.4915978e-02  -5.3584082e-01  -4.8747131e-01  -7.0323288e-01   4.4247833e-01  -9.0698671e-01   6.5150010e-01  -3.4330214e-01   7.9881817e-01  -1.3094057e-01  -8.5459623e-01  -9.7971503e-01  -5.1277739e-01  -7.1925684e-01  -7.2261736e-01   8.7512158e-02  -7.0122434e-01   2.5726136e-01  -4.6269359e-01   4.5894569e-01   3.1992600e-01   6.4869243e-01   8.4613860e-01   4.4723437e-01  -2.3304228e-01   9.0603881e-01   6.6138924e-01   6.5252147e-03   6.0666848e-01  -3.9618028e-01   5.1676700e-01  -5.5511499e-02   4.2261968e-01  -9.1553861e-01   4.7976719e-01   4.9205422e-01  -4.2637367e-01  -8.9589508e-01  -5.5538787e-01   5.4205083e-01   2.5002617e-01   6.2669444e-02   7.8481881e-01  -6.0482090e-02  -1.8658892e-01   5.3802012e-01  -9.9348156e-01  -3.2196062e-01  -5.9627122e-01   5.9447225e-01  -8.4676541e-01   1.7505144e-01   1.6817398e-01   1.7059467e-01   1.5352768e-01   2.0510453e-01  -1.1641269e-01   4.5811736e-01   8.4668675e-01   7.2109021e-01  -9.4999899e-01  -8.7127373e-01  -6.9463754e-01   8.0149633e-01   5.8807330e-01   8.3740554e-01  -1.8433171e-01  -3.8265736e-01  -4.5551154e-01  -4.3284579e-01   8.6599292e-01  -1.2566570e-01   7.9947046e-01   1.2075473e-01   9.7034512e-01   9.3404391e-01  -3.8062213e-01   3.8928712e-01  -4.0631919e-01   7.7206897e-01   1.1949440e-01   4.3976446e-01  -5.6607975e-01   3.6223830e-01   5.0655873e-01  -8.4174112e-01  -5.7807717e-02  -8.0795447e-01   5.2538178e-01  -2.3453723e-01  -4.8118420e-04  -5.9339939e-01   3.8011179e-02  -1.7353361e-01  -3.4798503e-01   2.9592812e-02  -4.2324611e-01   9.3978642e-01  -3.7662491e-01  -4.2800630e-02   8.6183120e-01  -3.2492045e-01  -6.1058144e-01   6.0692748e-01   8.4289159e-01   6.4138040e-01  -9.4341866e-01   1.2615596e-01  -2.2072783e-01   7.0119650e-01   9.5358107e-02   8.6853595e-01   7.1025728e-01  -5.9479345e-01  -9.8971751e-01  -8.0563255e-01   7.3516630e-01   7.4579211e-02   9.7863583e-01  -5.5530049e-01   4.1291616e-01   9.9829431e-01   1.3141393e-01  -4.2536129e-01  -3.8372828e-01   3.8488429e-01   7.8071698e-01  -1.8980608e-01  -3.4062439e-01   4.1529095e-01  -4.2722190e-01   2.4022862e-02   5.8533042e-01   4.5220081e-01  -3.4268553e-01  -2.2463124e-01  -4.8795293e-01  -7.5996226e-01  -7.8125719e-01   3.4667142e-01  -9.6158071e-01  -3.2217215e-01  -3.7344972e-01  -4.6073707e-01   4.8541835e-01   8.6749467e-01  -7.4408334e-01  -9.3703340e-02   1.0973229e-01   3.9446278e-01  -1.6152516e-01  -9.8328798e-01  -6.5187253e-01   9.6619417e-01   1.6020548e-01  -1.8839535e-01  -5.7616251e-01  -7.3075317e-02   9.8598957e-01   4.8633294e-01  -8.1802395e-01   4.7256924e-01  -1.4958905e-01  -5.4500516e-01  -4.7669020e-01   3.8277786e-01   3.5170642e-01  -6.5493739e-01   8.2449301e-01   3.3099022e-01   4.6496269e-01   1.4855569e-01   6.0538088e-01  -2.0761069e-01   3.8035403e-01  -7.6966364e-01  -9.2057917e-01   7.8631895e-01   3.7549796e-01  -4.3101821e-02  -4.8044453e-01  -4.2665681e-01   1.0390421e-01   9.7678719e-01   8.8508714e-01  -2.9673851e-01   4.3245497e-01  -2.2032026e-01  -3.1167136e-01  -7.9499029e-02   9.5540545e-01  -2.2068479e-01   1.8990358e-01  -8.3974993e-01   1.8147388e-01  -9.8553990e-01  -6.8170650e-01   4.9243781e-01
