   5.4493148e-01  -8.6648017e-01   4.5801870e-01   1.8150439e-01   2.2466219e-01  -7.7027344e-01   2.4127437e-01  -7.1300572e-01   8.3139648e-01  -6.2005466e-01  -7.0373403e-01   6.2431492e-01   2.2069538e-01  -7.5883118e-01  -8.8281564e-01   8.5541559e-01  -8.7653151e-01  -7.3305979e-01  -4.7598435e-01   5.4451169e-01   9.4106949e-01  -7.0414834e-01   8.7901760e-01  -6.3705180e-01   8.6942121e-01   3.2433663e-02  -9.7528657e-01   2.2641121e-01  -6.8364986e-02  -3.2743030e-01   2.0626675e-01  -1.1479786e-01   3.0102010e-01   6.6056865e-02  -4.8519146e-01   3.1636860e-01   6.4211819e-02  -3.6165636e-01   7.4875191e-01  -6.5685675e-02  -9.8782579e-01  -8.3704773e-01  -3.8790084e-01  -8.3843678e-01  -3.2126481e-01  -3.8409165e-01   4.1416650e-01  -1.1528757e-01   6.4286703e-01  -5.7281175e-01   5.9970243e-01   9.9121173e-01  -7.3189318e-01   5.5827060e-01   8.1124360e-01   2.9131456e-01  -4.7954351e-01   6.0509934e-01   8.3368496e-01  -6.9095727e-01   2.9858513e-01  -1.1360115e-01   1.4577748e-02  -1.9294865e-01  -4.8153008e-02  -6.5997502e-01   6.5954368e-02  -7.1098979e-01   3.5624447e-01   9.7909300e-01  -4.8056531e-01   6.9793451e-01   4.9189223e-01  -2.5698133e-01  -7.3782636e-01   3.0727527e-01   8.6481725e-01  -8.6450260e-02   8.1927822e-01   3.6237805e-01  -7.2334356e-01   5.8541591e-01  -9.7671906e-02  -5.6506355e-01  -7.2289180e-01  -8.8676171e-01   1.6224246e-01  -9.1690153e-01  -6.8933869e-01   7.6888914e-01  -2.2784723e-01  -5.1820071e-01  -1.2359306e-01   7.8829687e-01   1.0651715e-01   1.5512172e-01   9.8019863e-01   4.1172980e-01  -4.7045801e-01  -7.6074552e-01   3.4145937e-01  -6.9177525e-01  -4.7683170e-01  -2.4484814e-01  -3.8518839e-01  -8.5093270e-01   3.5670245e-01  -2.3564900e-01   5.7303097e-01   1.1456185e-01  -4.1612785e-01   1.8453378e-01   7.2799071e-01  -4.4707487e-01  -3.0917734e-01   8.4591814e-01   2.1103728e-01  -8.6580451e-01   5.1459372e-01  -3.8254466e-01  -1.9611360e-01   7.3069334e-03  -1.8668987e-01   5.8489062e-01  -6.1691489e-02   4.5215284e-01   5.8121095e-01   8.2848214e-01  -9.4986091e-01   3.7729802e-01   8.9685391e-01  -3.4961765e-02   6.8975284e-01   1.2477793e-01  -4.7990810e-01  -8.4628653e-01  -7.7350354e-01  -1.5718981e-02  -8.9423489e-01   7.7434596e-01   2.9186777e-01   5.5775484e-02  -8.1114715e-01   6.8607976e-01  -6.8066451e-01  -5.8033645e-01   7.1091138e-01  -9.4899259e-01  -3.9856724e-01   3.4579130e-01   8.0782493e-01  -5.8500956e-01   1.7369630e-02  -3.6414859e-01  -8.7151381e-01   1.2142959e-01  -7.8288272e-02  -6.9699095e-01   1.8274191e-01  -3.3759709e-01   9.4243555e-01  -9.1658395e-01   1.2386977e-01   1.9178960e-01   7.5279888e-01   3.5475768e-01  -6.1237926e-01   4.8211840e-01   9.6874112e-01  -7.3428138e-01  -4.8077391e-01   2.1589620e-01  -5.5784154e-01  -3.5885409e-01  -5.6462097e-02   5.0793736e-01  -5.7080107e-01   7.1692694e-01   9.9832839e-01   2.9560242e-01   8.3896995e-01  -3.3178657e-01   9.6048251e-01  -4.8806354e-01   1.1993131e-01   5.9259681e-01   1.7931716e-01   3.6778941e-01  -1.9249456e-01   3.9565643e-01   8.6761206e-01  -3.6500749e-01   6.3683668e-01   8.0362321e-02  -7.0942690e-01  -6.1519448e-01   3.4230688e-01  -1.4947648e-01  -8.1628003e-01  -3.8798711e-02  -2.5248428e-01   1.8790726e-01  -1.9021741e-01  -1.6421666e-01  -8.2652952e-01  -4.6444073e-01  -6.4316112e-01   7.0308810e-01  -2.0730751e-01   5.8482478e-01   9.0214120e-01  -6.4442833e-01   9.5683043e-01  -3.6467470e-01   1.6259159e-01  -4.1160847e-01   8.0750670e-01   9.9380959e-01  -4.4700873e-01   3.4714265e-01   3.9468970e-01   7.0455490e-01   3.1383459e-01  -8.5702851e-02   6.5547849e-01  -6.7287675e-01   2.2061979e-02  -7.5120757e-02   5.9595065e-02  -5.9169473e-01  -1.1840946e-01   9.2342457e-01   6.4222526e-02   4.5490984e-01  -7.1052152e-01   5.8461668e-01  -2.3633199e-01  -1.7596897e-01   2.6573823e-01  -5.4547812e-01  -1.8110479e-01  -7.4677970e-01  -5.7251265e-01  -6.8028137e-01   6.3265203e-01   2.2549973e-01   8.7522463e-02   8.0695554e-01   2.7607621e-01  -8.4502171e-01   3.2116051e-01  -8.9378546e-01  -6.6021539e-01   7.4237195e-01  -9.3189161e-02   1.1108325e-01   8.1044712e-01  -7.2787543e-01   4.9747505e-01  -2.9963980e-01   5.9700935e-01   4.6862945e-01  -6.0369028e-01   1.8000062e-01  -6.1218059e-02  -5.4932021e-01  -4.6132033e-01   1.3366984e-01  -3.1855430e-01   5.9620900e-01   1.7959580e-02  -8.6981496e-01   9.8319145e-01   8.2112418e-01   5.6447078e-01   6.6807200e-01   9.2669480e-01  -4.9962059e-01  -2.6075893e-01  -7.2248421e-01   1.3217058e-01  -1.5358282e-01  -5.9233550e-01   7.1299019e-01  -2.2634058e-01  -2.9567019e-01   5.4827417e-01   1.0351859e-01   6.9458180e-01   9.8656432e-02   5.8233892e-01   3.3990009e-01  -1.3812849e-01  -8.0926168e-02   6.6612975e-01   6.0422154e-01   5.7024578e-01   3.1804607e-02   2.8011829e-01   5.5716678e-02   9.8642369e-01  -8.5526274e-01   1.5706509e-01   9.3761810e-01  -7.5004570e-01   1.4621167e-01  -1.5495111e-01   1.0854750e-01  -7.0962825e-01   8.0892759e-01  -6.3041569e-01   6.9656064e-01   9.2367496e-02   8.9935412e-01  -2.0376191e-01  -4.4348534e-03  -5.2337672e-01  -7.9037730e-02  -8.9910114e-01   8.8011806e-03  -2.4580457e-01   3.0957544e-01  -5.9752539e-01   4.5008406e-01  -8.3445838e-01   7.2217700e-01   1.4257008e-01   9.8052136e-02   5.9781556e-01  -5.4649360e-02   3.9044231e-03   3.6387376e-01  -1.0361501e-01   9.3014913e-01   9.9460449e-01  -1.1471338e-01  -7.0325734e-01  -5.5265457e-01   1.2699270e-01   8.6011204e-01   5.4961699e-01   4.4407306e-01  -6.7267715e-01   7.8272119e-01   5.6063533e-02  -2.6702029e-01   1.1625485e-01  -5.7577236e-01  -2.4327500e-01   5.1773103e-02   7.6745147e-01  -4.5426049e-01   9.7312565e-03  -4.8633019e-01  -8.2217077e-01   7.8032737e-01  -3.7780764e-01   8.9911524e-01  -8.3218806e-01  -8.9127564e-01   3.9630244e-01   3.6801195e-01   6.2981623e-01  -3.6378522e-02  -3.9423744e-01  -2.2709908e-01   8.6582865e-01  -1.6994195e-02  -8.7093199e-02  -8.9221272e-01  -2.2286740e-01  -8.7379460e-01  -9.1018046e-01  -4.5288036e-01  -8.2978409e-01  -3.3963848e-01   5.9224593e-01   9.1711764e-01   6.9667695e-02  -5.4707223e-01  -8.0853611e-01  -8.3531876e-01  -1.6724789e-01   4.7218252e-01  -8.4335671e-01  -4.3571321e-01   4.0938451e-01   1.3833321e-01  -2.1207686e-01  -5.5764480e-01  -7.2078292e-01  -1.9322281e-01   1.2011645e-01  -3.2102110e-02  -8.9634317e-01   5.6182380e-01   4.0730048e-01   5.8963221e-01  -2.9757263e-01   5.5657175e-01   6.0159746e-01  -6.7609600e-01  -1.7781388e-01   7.9255471e-01   7.9845442e-02   6.6317787e-01  -4.3957501e-01  -2.8128489e-02   1.6421325e-01  -4.4284212e-01  -4.6130355e-01   4.0635336e-01  -6.9306810e-01   2.5918577e-01   2.2750530e-01   8.4478965e-01  -1.6518864e-03  -5.0995200e-02  -5.3446343e-01   8.9929377e-01  -7.9070320e-02  -6.9590875e-01   7.9093177e-02   9.7776548e-01  -5.7427070e-01   9.2832469e-01  -5.4158767e-01  -7.4367599e-01  -1.0444115e-01   3.0045993e-01  -8.9118772e-01   8.7602459e-01   1.4671704e-01   5.5421233e-01  -2.3047195e-01  -7.2289538e-01  -5.4442969e-01  -9.6159649e-01   2.0319157e-01  -5.3439428e-02   5.8555284e-01  -8.2000196e-01  -5.0139562e-01  -6.4563269e-01  -6.5272689e-01  -7.1652829e-01   3.7064114e-01  -2.6494463e-01   4.3326158e-01  -9.8856297e-01  -2.2508316e-01   6.2264541e-01  -5.1554870e-01  -3.3182415e-01  -5.3097395e-01   8.0123956e-01  -3.5886560e-01   8.5318796e-01   7.9283385e-01  -1.3147060e-01   8.5837888e-01   5.5534014e-01   9.7755654e-01  -3.6664068e-01  -2.6138599e-01   7.1894764e-01   9.2368515e-01  -9.4592779e-01   4.2103459e-01  -2.5600964e-01   5.5549298e-01  -2.4499250e-01  -6.3100498e-01  -1.0443487e-01  -7.9012049e-01  -8.0601521e-01   1.0812776e-01   8.8770702e-01   5.9988738e-01   9.8268804e-01  -8.0087410e-01  -7.3621253e-02  -5.3858251e-01  -2.6137831e-01   9.8690798e-01  -4.9065797e-01   8.0003937e-01  -9.5738583e-01  -8.8992630e-01  -4.9388108e-01  -3.6863664e-01  -7.5499978e-01   2.9099891e-01   6.2239542e-01  -5.1472399e-01  -9.6415121e-01   6.2594101e-01  -3.3903686e-01  -3.2716206e-01  -5.9199316e-01  -3.0757809e-01   7.6411644e-01   3.9190419e-01   7.0487003e-01  -1.9860195e-01   8.3383242e-01   1.2255631e-01   4.3372060e-01   2.9243704e-01   2.2923188e-01  -9.4355193e-01   2.9558442e-01   2.4897421e-01  -6.7319057e-01   1.5378958e-02   7.7687142e-01   3.1798764e-01   2.7947412e-01   2.3233274e-01  -2.5583772e-01  -3.4789506e-01  -5.2481975e-01   6.2003306e-01  -3.5589192e-01   2.8369530e-02  -9.6490029e-01   3.6977031e-01   7.1413896e-01  -3.6012930e-01   6.1705997e-01   9.0592843e-01  -7.4888503e-01  -6.4692243e-01   3.7784481e-01   7.1110253e-01   9.4891120e-01   8.8584361e-01  -2.5958549e-02   6.8241282e-01   3.2607940e-01  -7.1757475e-01  -4.8612341e-01  -1.1048943e-01   7.7491710e-01   1.1233157e-01  -7.1716869e-01   5.2113241e-01   6.9383204e-01  -6.0821617e-01   4.3471076e-01  -8.7507881e-01  -7.0730324e-01   3.3990932e-01  -6.9935418e-01  -2.7686080e-02  -6.4137496e-01  -5.9314701e-01  -8.5341330e-01   4.6696910e-01  -8.5606057e-01  -1.1712530e-01  -5.0975408e-01  -4.0090986e-01   2.6788956e-01   4.7443595e-02  -2.8404899e-01   7.0766858e-01   9.2711024e-01   7.5306801e-01   9.5030354e-01   6.4234587e-01   8.8480059e-02  -7.2459266e-01   2.8122301e-01  -9.9085906e-01   6.5951255e-01   6.7398269e-01  -2.8430126e-01   5.4602834e-01  -1.0981501e-01  -8.8886507e-01   9.6320717e-01   7.4005014e-01  -8.2067292e-01   1.7968018e-01  -5.4695073e-01   4.9956804e-01  -3.2104416e-01   1.6317290e-02  -6.5015267e-01   2.6171500e-01   1.9776978e-01   7.9228257e-01  -9.4770990e-01  -9.1761667e-01   1.3220288e-01  -3.6461356e-01   2.8019040e-01   6.9037387e-01   1.1538953e-01   5.6501179e-01  -2.2436252e-01   1.6803815e-01   6.7661032e-01   2.0304883e-01   3.3337391e-01  -7.0800509e-01   5.3001478e-01   6.1150775e-01  -4.7361323e-01  -6.3617062e-01  -7.1266920e-01   2.5662869e-01   2.0274271e-01   2.1281503e-01   4.6835379e-01   4.3455703e-01   4.4451984e-01   6.0245437e-01   1.7916785e-01   5.6619483e-01   6.9639756e-01   9.2281180e-01   2.1383503e-01   3.8130560e-01   7.6399565e-01   2.6913461e-01   3.0877498e-02   6.0736253e-02   6.3798732e-01   1.9794841e-02  -9.6495047e-01  -4.8549218e-01   3.2375956e-01  -4.0889224e-01  -2.3239143e-01  -1.1341663e-02   9.3057557e-01   9.1769947e-01   4.7850348e-01   7.5337434e-02   1.5654950e-01  -3.1852282e-02   9.0493260e-02  -9.3770127e-01   8.0818112e-01  -8.3816593e-02  -6.9187786e-01   8.9947415e-01  -1.9687827e-01   4.4151121e-01   6.4390004e-01   1.2963021e-01   9.5320246e-01  -6.5209304e-01   4.8649531e-01  -3.2925499e-01  -1.6554119e-01  -3.5717264e-02   6.3999420e-01   3.5878711e-01   5.7431232e-01  -7.5185346e-02   5.6695317e-01  -8.9770198e-01  -2.2297608e-01  -6.1249797e-01  -2.0483633e-01  -2.8462533e-01   9.7661424e-01   8.3404782e-01  -2.1642545e-01  -6.0564377e-01   4.5176343e-01   1.5035949e-01   1.4859949e-01   5.6462738e-01   7.5423383e-01   5.7260781e-01  -9.0616252e-01   9.7554963e-01  -7.2750533e-01   5.6935673e-01   7.2346790e-01  -5.9003871e-01   2.1603214e-01  -4.2323347e-01  -2.9053092e-02  -3.9123948e-02  -7.1605731e-01   1.9881051e-01   6.8938736e-01  -6.8933398e-01   6.2234416e-01  -2.1539464e-02   9.0212143e-01   1.8005197e-01  -6.4462564e-01   1.7635466e-01   6.0665317e-01  -6.6869641e-01  -2.7340386e-01   8.5878332e-01  -9.9141607e-01   1.0987203e-01  -5.1316437e-01   7.8044286e-01   9.0485458e-01   1.3858847e-01  -8.2079416e-01  -5.8894786e-01   4.6795334e-01   8.1728164e-02  -4.1961186e-01  -6.2635560e-01  -9.2866767e-01  -1.6172941e-01  -9.5732066e-01   9.7252201e-01   9.6668881e-01   6.0209916e-01   9.2078082e-03  -3.1110042e-01   7.7573027e-01  -3.5250622e-01  -7.5659934e-02   7.0374448e-01  -2.1977638e-01   8.8400752e-01   1.7628924e-01   7.8291915e-02  -2.0556149e-01   1.1385326e-01   5.9032975e-01   4.0931164e-01   1.3845818e-02   6.7320089e-01   5.6768774e-01  -5.3638404e-01   5.0111293e-01  -9.7815920e-01  -2.2311195e-01   5.7944373e-01  -7.3167167e-01   3.6767660e-01   1.0684751e-01  -1.1164622e-01   4.1628273e-01   7.7709993e-01  -3.6117420e-01   3.1306912e-01   8.9073614e-01   8.6477877e-01  -9.6501737e-01  -8.9083073e-01  -2.1363979e-01   1.7132365e-01  -5.7463042e-01  -8.5723385e-01   3.8308575e-01   6.0242609e-01   1.4311539e-01   8.2720500e-01   1.4324601e-01   5.1588317e-02  -2.7994917e-01  -7.6182215e-01  -9.8666508e-01   3.6649207e-01   7.2482579e-01   2.0838923e-01  -2.3777044e-01  -2.9508226e-01  -3.9889819e-01  -4.5014179e-01   9.3500103e-01  -1.3875863e-03   5.3615811e-01  -4.8556420e-01  -6.0345521e-01  -5.8001363e-01   1.4088158e-01  -5.7509066e-03  -1.6896192e-01   2.1271314e-01   4.5057295e-01  -5.7785158e-01   2.8573056e-01  -8.9369844e-01  -7.2921665e-01  -6.3056570e-01  -5.9228579e-01  -1.2601138e-01   5.9641692e-01  -7.5123693e-01   1.2946776e-01  -2.4750861e-01   7.2745747e-01   3.6005542e-01  -4.8356899e-01   8.7249073e-01  -3.0230348e-01   5.4671102e-01   1.7674494e-01   8.4478876e-02  -2.1144178e-02  -4.1876962e-01   9.6935792e-01  -7.4733280e-01  -7.3339439e-01  -4.7915318e-01  -1.7013145e-01   8.6545117e-01   2.2374689e-01   1.1989934e-02   2.7593311e-01   8.6666504e-01  -1.8840522e-01  -1.3724541e-01   1.8316519e-01  -7.7098544e-01   4.0797812e-01   4.9522797e-01  -2.3546048e-01   7.4447005e-01  -9.3094722e-02   4.9276641e-01  -3.8682870e-01   5.3732235e-01  -4.9456447e-01   1.5710568e-01  -2.8973583e-02  -7.0224918e-01   8.4586858e-01   2.3143084e-01  -4.4814917e-01  -3.8976379e-01  -1.8941899e-01   6.8370604e-01   4.5776832e-01  -8.5647467e-01  -9.6859241e-01   8.8856663e-01   9.2296667e-01  -9.6291258e-01   4.9554473e-02  -9.1484943e-01   2.7758000e-01  -2.5014646e-01   7.4219087e-01  -3.1217805e-01  -3.6572684e-01   6.8869398e-01   1.3677724e-02  -7.2830095e-01  -7.5490967e-01  -8.7649559e-01   9.3064268e-01  -6.2676251e-01  -4.4202172e-01   4.7465078e-01  -2.2908719e-01  -4.2860823e-01  -8.0274470e-01  -2.1055482e-01  -9.8505439e-01  -2.0823379e-01  -8.7118587e-01  -8.7503418e-01  -9.4934339e-03  -2.3959367e-01  -9.4120345e-01  -6.6168107e-01   1.2762415e-01   5.7446117e-02  -7.7023143e-01   2.3683954e-02   2.5134259e-01   8.1004943e-01  -5.2939165e-01  -1.1867356e-01  -2.8236571e-01   7.2286630e-02   3.4744204e-02   4.8918708e-01  -7.5198795e-01  -9.5695548e-01   1.6408169e-01   2.6601252e-01  -5.4534645e-01  -4.2210948e-01   2.5233526e-01  -2.2087311e-01   1.8641952e-01  -6.6506090e-01   7.2502656e-02   8.0098094e-01  -5.3983258e-01   1.1897475e-01   2.8443358e-01  -2.8544500e-01  -1.4812245e-01  -8.0056630e-01  -6.2888528e-01   7.3091733e-01  -8.9787097e-01  -3.6852981e-01   3.7025492e-01  -6.2258846e-01  -9.6013937e-01   6.1084198e-01  -7.4069687e-01  -5.9390379e-01   8.7601637e-01   7.7084938e-02  -5.5530760e-02   6.9611529e-01  -8.8973083e-01  -4.2206188e-01   5.1186967e-01  -7.7123094e-01   7.0427541e-01  -9.0309561e-02  -4.9224053e-01  -9.6080563e-01  -6.6193423e-03   6.3597824e-01   8.9240111e-01  -5.5432565e-01  -8.6607495e-02   2.4743011e-01   8.7657111e-01   1.0281760e-02  -5.8808597e-01   3.8346527e-01   5.5464878e-01   9.2104636e-01   8.3277761e-01  -1.9015005e-01  -1.9867689e-01  -8.9396092e-02  -6.0499292e-01  -9.0806028e-01  -7.6382584e-01   3.7809577e-01   9.0890723e-01   9.1196110e-01   5.2359114e-01  -8.6225884e-01  -3.8962842e-01   2.6578757e-01   5.1475291e-01   8.6811808e-01  -3.9097234e-01   1.9834381e-02   2.7623242e-01   7.6948253e-02   3.4141243e-01   7.5969238e-02   2.3484862e-01   6.5263410e-01   2.8815605e-01  -5.7658220e-01   4.0738798e-01  -5.8360919e-01  -3.1284646e-01  -7.3965441e-01   6.1587640e-01   9.1103241e-01   6.7536678e-01   3.7090134e-01   2.6828034e-01   6.3530081e-01  -8.1904597e-02   8.1425246e-01  -9.3319646e-01  -3.8872793e-01  -3.8791474e-01  -3.6252142e-01  -2.2065654e-01   5.2957130e-01  -6.1591461e-01   3.8420506e-02   7.8313226e-01  -4.4111479e-01   8.8789891e-01   4.1555968e-01  -5.5419706e-01  -6.8670984e-01   5.4044378e-01   5.5987471e-01  -2.9513963e-01   6.8137316e-01   8.2452017e-01  -4.5137248e-01  -2.6191235e-02   8.2925532e-01   1.1821888e-01   4.4833792e-01   2.0382630e-01
