  -1.5021733e-01  -9.9986960e-01  -9.9377927e-02   5.9492953e-01   2.7624664e-01  -3.6778972e-01   9.3337167e-01  -2.3915635e-01  -8.2489455e-01  -6.3401557e-01  -4.5394878e-01  -4.6412658e-01   7.0201430e-01   1.2460780e-01   9.4591377e-01   4.5683459e-02   6.9436582e-01   6.6409848e-03   4.9628047e-01   2.9137843e-01   4.9658350e-01  -5.4881545e-01  -3.2604300e-01   4.9293547e-01  -1.4843064e-01   4.6904432e-01   7.0270536e-01  -4.6069636e-01   4.2695098e-01  -4.0124722e-01   5.1931966e-02   7.7395921e-02  -2.0382037e-01  -7.4770814e-01  -7.1469541e-01   3.6482014e-01  -7.0671499e-01  -7.1602147e-02   2.0257370e-01   4.3402864e-02   9.7168805e-01  -7.5026051e-02  -3.9126517e-01  -8.2505285e-01  -8.2437026e-01  -2.9832136e-01   7.6577504e-01  -7.1724055e-01   4.6236579e-01   2.6500509e-02   7.7073091e-01  -3.7579459e-01   8.6360042e-01   1.0953518e-01  -7.1242535e-01   4.2851026e-01  -7.5595538e-01   1.0850192e-01  -9.5903129e-01   8.6557892e-02   4.0191964e-02   4.2564527e-01   8.3873173e-02  -9.0849482e-02  -7.5028791e-01   4.1817519e-02   7.4160932e-01  -7.0591454e-01  -9.0916189e-01   8.8230516e-01  -8.5671807e-02   3.1685936e-01   8.2333582e-01  -7.6026384e-01   3.4721867e-01  -8.5664174e-01  -7.0011285e-01  -7.9447808e-01  -4.5395551e-01  -9.9230093e-01   7.8654051e-01  -5.4340343e-01   2.9369398e-01  -2.9173588e-01   6.0708082e-01   5.1937980e-01  -1.2092925e-01  -1.6816801e-01   7.3022923e-01   1.3801242e-01  -9.2830318e-01   5.5494124e-01   5.2277536e-01  -4.3961805e-01  -4.7385788e-01  -1.6510924e-01   2.7774468e-01   2.4780166e-02  -9.8976099e-01  -2.4125897e-01  -4.2792965e-02  -6.6160061e-01  -6.5315594e-01  -1.9180560e-02   7.3617119e-01   9.5945123e-01   5.6219382e-01  -5.0761381e-01   3.0207569e-01  -2.4834486e-01   3.8620305e-01  -8.0694922e-01   7.5671830e-01  -6.3089628e-01  -6.4421571e-01  -1.9226646e-01  -7.0861285e-01   6.3487582e-02  -9.2703600e-01  -7.1193740e-01   7.0548539e-01   1.8644889e-01  -7.8513220e-01  -6.9885764e-01   8.9537186e-03   5.7519109e-01   8.9190763e-01  -7.8445526e-01   6.4877234e-01   4.4161599e-01   8.5514829e-01   3.6882792e-01  -6.8496406e-01   8.9406539e-01   3.0984859e-01  -3.5386512e-03   4.0145126e-01   1.9207155e-01  -2.0113915e-01  -6.4415761e-01   1.1300569e-01   2.6451935e-01  -3.3724883e-01  -2.5730301e-01  -7.9768356e-01   3.0127075e-01  -8.6231479e-01   3.4530089e-01   3.5784928e-01   2.3482404e-02  -5.3976745e-01  -6.9563122e-01  -1.8487452e-01  -1.6410038e-02   6.1446102e-01  -6.5989758e-01  -8.2260801e-01   8.7677225e-01   3.2107652e-01   1.9585538e-02  -5.1022439e-01   7.9752263e-01  -5.0217455e-01   7.2318724e-01  -2.4234574e-01   8.3619181e-01   2.8999364e-01  -2.4641900e-01  -5.3542481e-02  -8.3513218e-01  -7.6328241e-01   6.8843834e-01  -2.4581330e-02   8.8743549e-01   1.6453395e-03   2.1189400e-01   8.4770224e-01  -6.2735524e-01   7.3260695e-02  -2.3744395e-01   7.8320064e-01  -2.0124362e-01  -7.1264209e-01   8.2887749e-01   9.7898025e-01  -5.9908320e-01  -3.7289783e-01  -7.0342744e-01  -8.0869587e-01  -2.2429557e-01   2.9920636e-01  -4.5105864e-01   3.1141890e-01  -6.0086825e-01   1.4311579e-01   4.3418435e-01   9.7777558e-01   3.5382680e-01  -1.2414649e-01   6.4868267e-01   5.2782982e-01  -9.7002496e-01  -5.0354697e-02  -8.3987503e-01  -2.5484578e-01   6.2167846e-01  -7.1924430e-01   9.6231281e-01  -6.4267067e-01   9.3093514e-01  -3.2938606e-01   7.9944576e-01   9.9498109e-01   4.7206397e-01  -4.5958669e-01  -5.9600158e-01   6.4348724e-01  -8.1056397e-01  -6.7993973e-01  -4.0449042e-01   5.0302715e-01  -7.3535215e-02  -4.5710705e-01  -9.0350947e-01   5.7109560e-01  -4.4660224e-01   1.7250517e-01   4.9099872e-01   9.8184501e-01  -6.1945509e-02   5.7886255e-02  -6.0818424e-01  -5.5471369e-01  -6.6039360e-01   1.8488061e-01  -5.5733036e-02  -1.7459293e-01   5.1020264e-01   8.8968027e-01  -3.3427208e-01   8.3006708e-01   1.6024977e-01  -9.7957064e-01   6.2499133e-01   4.3999919e-01  -8.4572628e-01  -8.8907203e-01  -5.9556961e-01  -8.2565391e-01  -4.1500001e-01   8.7143090e-01   5.4316180e-01  -7.8695940e-01   4.7489965e-01   2.0786756e-01   8.3456434e-01  -5.1912909e-01   8.8237627e-03  -1.7331241e-01  -9.5814804e-02   3.8390537e-01   2.2181000e-01  -1.4354039e-01  -3.1913083e-01   6.1492500e-01  -8.8642541e-01  -7.8661041e-01   7.7585450e-01   8.5473717e-01  -1.2173206e-02   2.0049755e-01   8.6017916e-01   4.1883347e-01  -7.4911154e-01  -7.6601766e-01  -2.0436183e-01   6.7628243e-01  -6.5715705e-01  -2.1464823e-01   4.7713722e-01   2.7718765e-01  -3.6045419e-01   2.1865235e-01  -9.3302066e-01   4.0716969e-01   9.1256770e-03   6.6766764e-01  -3.3993285e-01   8.0371526e-01  -4.9406468e-01   6.7799887e-01   9.2380396e-01  -3.1954122e-01   2.7498884e-02   2.4204889e-01   9.2557439e-01   2.3963237e-02  -5.1505612e-01  -4.2650036e-01   6.5990888e-01  -6.2883385e-01  -8.0257645e-01   1.2061685e-01  -4.9314853e-01  -2.5774756e-01  -4.8232722e-01   2.5550824e-01  -1.3752997e-01  -9.0247913e-01  -6.4331097e-01  -1.9860084e-01   1.6462066e-01   2.1407316e-01   2.1426671e-01  -9.5847759e-01   7.7347138e-01  -9.3060447e-01  -8.1156953e-01  -7.1063632e-01  -8.6108615e-01   5.9804036e-01  -7.0541390e-01   3.1307429e-01   2.3910169e-01  -3.4133603e-02  -8.0151424e-01   6.2218030e-01  -4.1984507e-01   9.7215427e-01   4.2841572e-01   6.5405528e-01  -4.3816204e-02  -6.9760745e-01  -1.2522299e-01   6.6794620e-01   1.5742107e-01   7.7082213e-01  -1.8066760e-02   8.1792898e-01  -8.1573163e-01   5.9691052e-01   5.9609971e-01  -7.6477859e-01   3.6390683e-01   6.4596958e-01  -2.8737916e-01   4.8504169e-01  -7.1745097e-01  -5.5409908e-01  -6.9879275e-01   5.3450211e-01   5.1829794e-01  -2.8864192e-01  -2.9668617e-01   7.4844499e-01   2.4447434e-01  -1.4120584e-01   2.2101117e-01  -6.3251500e-01  -4.4396429e-01  -5.0827218e-01   9.8326449e-01   4.0533832e-01   5.3075199e-01   5.9329644e-01  -5.5467453e-01   5.5979165e-01  -6.1748866e-01  -9.0783409e-01  -8.0647858e-01   6.7096073e-01  -2.7808652e-03   2.6177118e-02   4.1471356e-01  -8.9667164e-01   5.4159990e-02  -6.0055775e-02   4.9039017e-01   4.5607847e-01   7.1491195e-02  -5.2796589e-01   3.4033532e-01   5.3238889e-01  -2.0940417e-01   3.5825151e-01   8.5645679e-01   5.0947709e-01  -3.3232837e-01  -5.8228658e-01  -3.9382188e-01  -5.1843277e-01   3.1752243e-01   6.5849775e-01  -4.6626030e-01  -6.5846256e-01   6.9969385e-01  -8.6207193e-01  -1.9407935e-01   9.0808613e-01  -8.8039264e-02  -4.1161261e-01  -9.4003119e-01  -6.6631781e-01  -6.6617211e-01  -7.2135772e-01  -1.1864607e-01  -5.1958196e-01   1.4411492e-01  -1.2939376e-01   9.5115234e-01   1.7255953e-01   2.5470584e-01   3.4073357e-01  -7.1020132e-01   2.1259319e-02   6.8425131e-02   7.2013067e-01   5.4458495e-01  -4.2270605e-01   1.1730173e-01  -9.1247868e-01  -4.0874938e-01   6.3296712e-01  -5.0639231e-01   6.4739355e-01   6.7081853e-01   2.6829895e-01   2.0272531e-01   8.7876339e-01  -5.1092073e-01   7.3544107e-01  -8.8875227e-01   2.1648254e-01  -2.9672063e-02  -3.6015931e-01   6.5851389e-01  -3.1392648e-01  -3.1173245e-01   1.7426480e-01  -2.4763867e-01  -6.4915048e-01  -9.5206618e-01   1.0373366e-02  -8.2971757e-02   2.2487003e-01  -9.2542559e-01  -1.2320477e-01   7.6829408e-01  -5.8310704e-01  -6.3265982e-01  -8.7314333e-01   2.4873499e-01  -4.9604754e-01   4.3619787e-01  -3.8789775e-01   5.4163568e-01   4.4183161e-01  -3.6519120e-01  -8.9496777e-01   7.1270969e-01   5.1768140e-01  -9.7548733e-01   5.9468993e-01   2.4881013e-01  -3.9613263e-01  -2.6272464e-01  -2.8282965e-01   2.6205259e-01  -3.5878955e-01  -7.9651212e-01   7.1591014e-01  -8.5974065e-02  -4.1043750e-01   6.6089456e-01  -6.9195951e-01   9.2552635e-01   4.1391599e-01   3.5703421e-01  -9.1635660e-01  -5.8483702e-01   2.3893608e-01   9.3438734e-01  -4.4686588e-01  -6.0294532e-01  -9.4362033e-01   6.7768320e-01  -7.3767265e-01   5.1737189e-01  -8.5310856e-01  -6.2237715e-01   4.1589236e-01   6.8345922e-01  -5.4910573e-01  -2.3068850e-01  -6.5427993e-01  -5.1552482e-01  -2.1136244e-01  -9.8054704e-01  -5.2094746e-01   9.2136902e-01   3.6350291e-01   9.2105125e-01  -3.7234107e-01  -5.4897313e-01   5.6848982e-01  -9.3939411e-01  -9.6457056e-02  -3.7777027e-01   4.2261642e-01   6.3248005e-01  -6.1138275e-01  -2.6038303e-01  -5.1715719e-02  -7.4355756e-01   2.7215993e-01  -9.4970045e-01   1.4820707e-01  -8.8121975e-01  -1.7115247e-01  -6.3297757e-01   9.8041182e-01  -6.1897482e-01  -1.4616870e-01  -2.3237487e-01  -3.5376056e-01   1.7467561e-01  -7.4369361e-01  -2.5375398e-02  -6.5293260e-01  -2.3795282e-01   7.4215864e-01   4.4371743e-01  -2.1333354e-01   4.6621373e-01   8.5106454e-02  -3.7376118e-01   6.8496322e-01   3.7640449e-01  -1.6940290e-02   1.3246125e-01   9.5295382e-01  -5.7802016e-01   8.9951345e-01   9.7989850e-01   3.0073384e-01  -2.2126552e-01  -7.7467826e-01   3.3657721e-01   5.4100655e-01  -2.2698826e-01   7.1191182e-01  -5.6378997e-01  -2.9513184e-01   2.7133128e-01   2.3870151e-01  -7.2466603e-01  -9.0667679e-01   8.6378334e-01  -4.8987900e-01   5.2075090e-01   1.2823009e-01   4.6722173e-01   9.3720073e-01  -2.4181224e-01   2.9067701e-01  -3.3798174e-01   5.1856777e-02  -7.1946681e-01   2.6421684e-03  -3.4626198e-01   5.5722010e-01  -3.5408439e-01  -1.8082920e-01  -3.3434001e-01   5.7031129e-01   3.1137946e-01  -8.9880099e-01   1.6950201e-01  -4.5757953e-01  -2.1142604e-01   9.1868538e-01  -3.5740949e-01  -8.2514070e-01  -9.2454012e-01   9.8932176e-01   4.4852196e-02   1.3265664e-01   4.0736114e-01  -2.2873016e-01   4.4545944e-01   2.5816923e-01   6.4829653e-01  -3.0683514e-01  -8.6027553e-01   9.2623488e-01   8.2448321e-01  -1.4568753e-01  -8.4103674e-01   4.2271974e-01   1.9369436e-01   6.2411635e-01  -4.9553272e-01  -6.7195022e-01  -7.9191898e-01   9.4546076e-01   9.7945917e-01   9.9674547e-01   1.8651900e-01   8.1640347e-01   4.3388806e-01   1.6674987e-01  -7.6749949e-01   8.2643379e-01   1.6028889e-01  -1.7228714e-01   5.7526164e-01   9.9774675e-01   5.8579723e-01   4.1692232e-01  -8.7291433e-01   8.8575592e-01   1.8928019e-01  -6.2728659e-01   1.6112386e-01  -1.8746181e-01  -8.1644684e-02   8.1137684e-01  -2.6140346e-02   9.1414198e-01   7.3186033e-01  -7.5171484e-01   9.2493282e-01  -6.2508310e-01   8.8615973e-01   8.7213202e-01  -1.3911289e-02  -6.2137606e-01  -1.3373273e-01   1.8450350e-01  -1.6384061e-01  -5.5200942e-01  -6.4731113e-01   1.2048262e-01   9.6259290e-01  -9.2123618e-01  -1.5000260e-02  -5.8959098e-02  -7.7256675e-01  -6.4355487e-01   8.9467050e-01   1.7741355e-01   7.4384770e-02  -7.7735276e-01  -6.9573068e-01  -2.9368571e-02  -3.2586692e-01  -5.4446367e-01   9.8600721e-01  -3.5597525e-01  -8.3171118e-01   5.0968882e-02  -6.0194402e-01   3.9085797e-01   4.5992039e-02  -6.0204553e-01  -8.5189930e-01   4.2361589e-01  -1.5767643e-01  -6.8685463e-01  -6.4412693e-01   9.6788737e-01   9.0725526e-01   7.8209136e-01   1.7975410e-01  -2.7396216e-01   3.8308689e-01  -6.8645061e-01  -5.4705140e-02  -1.1685041e-01   7.9362283e-01   2.9175753e-01   4.1224013e-02   1.1967642e-01   3.0913024e-01   8.0859529e-01   1.2716409e-01  -7.2123764e-01  -9.0183274e-01   5.5438889e-01   8.9531318e-02   9.0329940e-01  -3.9995388e-01   1.1019627e-01  -2.9050186e-01   2.6449681e-01  -7.0862280e-01   3.9525091e-01  -4.0312973e-01  -4.5010518e-01  -8.3785071e-01   3.6731082e-01   5.9806023e-01   8.9397347e-01  -7.3118564e-01  -2.1553549e-01  -6.8311182e-01  -8.5863807e-01   1.4308245e-01   6.7888092e-01   7.3895795e-01   3.6030729e-01   6.1433425e-01  -6.7676175e-01  -8.0563112e-02   4.2312950e-01  -6.0337016e-01  -9.7507758e-01  -7.3666129e-01   4.4429017e-01   5.4484941e-01  -7.4228789e-02   3.9044571e-01   9.7168216e-01   3.7387975e-01   5.2496017e-01  -1.1379830e-01  -2.3175856e-01   1.1085472e-01   1.4309531e-01   1.6332683e-01  -4.8420285e-01  -9.2855663e-01   6.7286023e-01   9.2753489e-01  -8.4336838e-01   2.6077197e-01   9.9492801e-01   6.9120082e-01  -8.5809643e-01  -4.2122856e-01  -2.0726895e-02   4.5592131e-01   4.8598545e-01   5.5124051e-01  -8.0913149e-02  -4.3189288e-01   5.6691383e-01   2.1653284e-01   1.5284281e-01  -6.8345223e-01   9.1988846e-01   3.1060496e-01   6.1442663e-01  -1.3457231e-01   5.8126963e-02  -3.8339680e-01  -8.7156956e-01   8.0232922e-01  -9.4456280e-02   6.8338897e-01  -6.9468546e-01  -2.5089709e-01  -9.8931087e-01   4.5995728e-01   1.6888637e-01  -8.9221564e-01   4.5953815e-01  -6.2289060e-01   3.2520072e-01   8.1253607e-01  -5.5310760e-01   8.9678118e-01   5.3345111e-01  -2.3324200e-01  -8.5813130e-01   1.0565053e-01   5.8589802e-01   4.4752175e-01   6.7571558e-01  -2.7795923e-01  -3.8694819e-01  -4.2328910e-02  -4.8112679e-01  -7.4787197e-01  -3.4324024e-01   5.3462622e-02  -4.9314322e-01  -5.5073685e-01  -8.4031107e-01   8.3797619e-02   6.4484911e-01   6.8767948e-01  -7.2768819e-01   4.1632290e-01  -4.2229738e-01  -7.0874691e-01  -6.3343139e-01  -1.0325320e-01  -6.3874252e-01  -5.5008258e-01   6.8822144e-01   5.9962452e-01  -7.5388811e-01  -1.6616240e-01   5.0031154e-01   3.1714359e-01  -5.6248438e-02  -3.1299048e-01  -8.7126720e-01   3.5230728e-01   9.1042474e-01  -5.9549375e-01   8.5069323e-01   8.8811013e-01   9.2771438e-01  -6.8324017e-01   6.3089257e-01  -2.4958692e-01  -8.0032410e-01  -1.3913893e-01   4.6238248e-01  -8.5459184e-01  -6.1577394e-01   9.3834265e-01   4.6976826e-01  -3.9241889e-01  -9.7626231e-01  -7.9584979e-01  -4.6838881e-01  -5.4098625e-01   4.0957526e-01  -2.1890850e-02   4.7542416e-01   7.9360971e-01   7.1401590e-01  -6.3353523e-01  -5.2631450e-01  -2.4487031e-01   3.2365099e-01   2.2923367e-01   6.3894795e-01  -7.8380915e-01   1.7885476e-01   7.9664620e-01  -4.1740256e-01  -8.7749719e-01  -2.9373391e-01  -8.6671573e-01   2.1456797e-01  -9.3010234e-01  -6.2377863e-01  -3.1040585e-01   6.1039454e-01  -2.3940616e-01   4.6132233e-01   5.6085723e-01   6.0721800e-01   4.3421469e-01   2.9322769e-01   4.9334482e-01  -6.2151746e-02  -2.4497573e-01   9.2693642e-01  -4.2222576e-01   9.5082950e-01   6.7450928e-01   8.5594942e-01  -5.5811484e-01  -7.3964511e-01   1.0028044e-01  -3.0798423e-01   7.1604580e-01  -8.8847995e-01   4.3774785e-01  -3.9741061e-01   1.6642318e-01   2.0805099e-01  -7.0385106e-01  -6.7255754e-01   7.6732905e-01   2.2201153e-01  -2.9558160e-01   3.4329515e-01  -6.5292788e-01  -5.1222253e-01  -5.3917725e-03   9.8141912e-01  -1.9111970e-01   6.6252017e-01   9.1435244e-02   7.7838762e-01  -7.4828873e-01  -9.0336482e-01   9.0020524e-02   3.7194576e-01   9.1787617e-01   1.5708773e-01  -2.4678359e-01   8.7322546e-01  -1.7933841e-01   8.6275650e-01   9.7523960e-01  -5.5620490e-01  -6.1091207e-01   3.8529466e-02  -1.7340768e-01  -3.0391882e-01   5.5483892e-02  -4.9432959e-01  -7.8956123e-01  -5.9353973e-02  -1.9921832e-03   3.5911710e-01   2.1791124e-01  -8.6466516e-01   8.3937219e-02   2.9274945e-01   3.7919002e-01  -8.3272702e-01   7.3722901e-01  -1.7203168e-01   5.3070456e-01  -5.4757375e-01   9.8578114e-02   9.2811807e-01  -9.3786781e-01  -7.3533383e-01  -7.0966538e-02  -6.0247945e-01  -1.1326304e-01  -2.3214412e-01  -9.6193585e-01   1.8525331e-01  -9.5280795e-01   6.5557373e-01  -1.9946298e-01  -2.9755492e-01  -6.0584105e-01  -7.2678173e-01  -7.9379065e-01  -3.3028809e-01  -3.4858510e-01   7.8187461e-01   3.5078337e-01  -2.1103505e-01  -6.7416084e-01  -5.8211986e-01   2.2236541e-01  -5.1168698e-01   7.8344519e-02  -4.1828083e-03   9.4754992e-01   8.6068578e-01  -7.3872782e-01  -1.8200686e-01   5.5530347e-01   6.8367701e-01  -5.3158785e-01   3.5573768e-01  -5.1933370e-01   3.0664729e-01   8.3770680e-01  -6.8961901e-01  -9.6355611e-01   9.6843116e-01  -8.2858335e-01  -4.9825243e-01   8.0743292e-01  -4.6485805e-01   1.3191747e-01   9.0379519e-01  -8.6888848e-01  -9.1813287e-01  -2.8137067e-01  -1.0696315e-01  -7.6129062e-01   7.0564783e-01  -2.0488761e-01  -4.7400812e-01  -2.2117463e-01  -2.6735938e-01  -8.9582112e-01   1.1323748e-01   9.7438554e-01  -6.7814230e-01  -6.3520346e-01  -5.8032626e-01   4.6453176e-01   9.4988646e-01  -8.9650716e-01  -8.4374409e-01  -7.0343796e-01  -1.9310763e-01   8.7122684e-01   4.1729231e-01   3.6809083e-01   9.2904743e-03  -4.1619278e-01   3.5015093e-01   5.2576505e-01
   4.0090631e-02  -1.4250835e-01   3.4711784e-01   9.4869580e-02   9.4662200e-01  -7.1022167e-01   1.5228242e-01   6.2950886e-01  -4.8413706e-01   6.5982746e-01   7.0618327e-01  -4.6697392e-01  -3.0560063e-01   6.9385477e-01  -1.5086144e-01   5.0801282e-01   8.6870885e-01  -5.5029866e-01  -4.8940364e-01  -1.9441868e-01   2.7058376e-01   4.5977971e-01   8.6240415e-02  -4.5268779e-01   6.1520917e-01   3.7675262e-01  -7.9215670e-02  -2.5754661e-01   1.5116905e-01  -3.2058978e-01  -8.0884910e-02   7.2699790e-02   7.0575409e-01  -3.1433216e-01  -2.3767217e-01  -7.0594562e-01  -1.5246129e-01  -1.9000323e-01  -4.8560363e-01  -2.2389900e-01   8.1384143e-01  -5.4943138e-01   4.7897187e-01  -5.0253805e-01  -2.7921706e-01  -4.4903655e-01   2.7586851e-01   7.6864950e-01   3.6251202e-01   3.8147123e-01  -4.6353141e-01  -8.1249380e-01   1.1330679e-01   3.6480854e-01   3.0911327e-01  -2.2189675e-02  -9.0826729e-01   5.6483003e-01   6.8005896e-02   1.1905783e-02   6.1974667e-01   6.9438885e-01  -2.4553378e-01   7.7274053e-01  -4.6377112e-01   5.6731330e-01   1.4415538e-01  -9.4782762e-01  -4.7741965e-02   2.2726971e-01   6.6250563e-01  -9.6044528e-01  -7.7698013e-01   6.9540904e-01  -2.1477091e-01  -3.3465329e-01   7.0875209e-01   8.6810656e-02   6.7444261e-01  -2.5710385e-01   5.9626866e-01   7.2885601e-01   7.4302974e-01   5.6016043e-01  -3.1601127e-01   7.8888784e-01  -8.4319712e-01   7.7412787e-01   2.7821402e-01   4.4985192e-01   7.4714912e-01   3.4214677e-01  -1.1065096e-01  -6.9310864e-01   6.6449958e-01  -8.0266578e-01  -7.4744361e-01  -5.0411932e-01  -8.7420162e-01  -5.8926997e-01   1.9523672e-01   2.2298190e-01   8.7577075e-01   4.6073675e-01  -7.4322257e-01   3.7057808e-01   4.8069472e-01  -4.1625401e-01  -9.0055076e-02  -2.4693354e-01   3.9063504e-02   4.7176673e-01  -5.1874191e-01  -6.9023594e-01  -4.7068659e-01   3.8956482e-01   1.6038796e-01  -3.1097173e-01  -7.1099800e-01  -7.1331136e-01  -2.9672830e-01   7.0916913e-01   9.8677127e-01  -8.6083869e-01   1.1108372e-01  -9.1199444e-01  -6.3892075e-01   3.3708048e-01  -4.9174039e-01  -8.9603135e-01   2.1137730e-01  -6.8474474e-01   5.2392753e-01   8.2349336e-01  -1.8961128e-01  -4.9748271e-01   7.7256286e-01   3.1501618e-01  -1.5021797e-01  -9.0884389e-01   6.5355128e-01   1.3845562e-01  -3.3622663e-01  -7.1541986e-01  -2.9073241e-01   8.1616528e-01  -7.8436100e-01  -2.3155170e-01  -7.1092903e-02  -1.7177782e-01   5.0077788e-01   9.9685240e-01  -2.1490260e-01  -5.3922026e-01  -4.8564961e-01  -6.2603281e-01  -8.1510305e-01  -8.5662002e-01   2.6775505e-01  -8.4804983e-01  -8.9850821e-01   4.5139443e-01  -9.4100629e-02  -4.1402630e-01  -3.9461261e-01  -8.8866152e-01  -6.4351008e-04  -4.7942867e-01  -3.1054829e-01   4.8421044e-01  -4.7428045e-01   1.4275317e-01  -7.5933057e-01  -6.1223104e-01   9.2186319e-01  -7.3018403e-01   7.4183287e-01  -8.2324403e-01   3.5028031e-01   4.1516596e-01  -4.4002837e-01  -7.5247509e-01  -8.0178709e-01   7.4736933e-01  -8.2428515e-01   8.2052211e-02   4.1022379e-02  -4.4245454e-01  -4.2078765e-01   1.1781460e-01   4.2735444e-01   3.9732851e-01   4.5221036e-01   1.2848403e-01   9.1286053e-01  -5.4631080e-01  -7.5410000e-01  -3.8633000e-01  -1.2178366e-02   4.5262950e-01  -4.8674814e-01   2.9491689e-01   9.1248446e-01  -5.5074288e-01  -9.8189953e-01  -1.1191902e-01   8.5967612e-01   6.8959577e-01   4.7812177e-01  -2.1973187e-01  -8.2959229e-01   9.1073241e-01   4.6478107e-01  -5.0990116e-01  -7.0195483e-01   8.7037766e-01   7.7618933e-01  -7.7322899e-01  -6.8787848e-01  -8.5630078e-01   9.6227174e-01  -6.5474673e-01   1.8474663e-01   5.8743691e-01   2.5839107e-01   9.9690747e-01  -7.1722955e-01  -9.0407936e-01   3.4093446e-01   3.2363276e-01   3.5313254e-01  -4.8756905e-01   2.0615625e-01   4.9869915e-01  -8.6478678e-01  -3.2083177e-01   6.6290154e-01   1.1927615e-01  -8.5078006e-01  -1.7173279e-01   6.1921630e-01  -1.1108797e-01   1.3795927e-02  -6.9226216e-01   3.0557718e-01   3.5901433e-01  -6.6204220e-01  -5.6864442e-01   3.7152591e-01   8.3971729e-01  -3.6407349e-01  -6.1448837e-01  -3.3263764e-02  -7.2265505e-02  -7.5575032e-02   3.2304464e-01   8.2628937e-02  -3.6988008e-01   7.5745698e-01  -4.1431352e-01   3.8579262e-01  -1.1637077e-01  -1.1701551e-01   3.0180495e-01   5.5531137e-01   5.3749458e-01  -9.9833528e-01  -7.5607415e-01   3.1236214e-01  -9.0687614e-01   6.9643550e-01   4.2064330e-01   7.0669897e-01   3.8266461e-01   6.4401162e-01   1.9345971e-01   6.8360529e-01  -5.2469024e-01   6.6164533e-01  -6.9167221e-02  -8.3766506e-01  -8.5790525e-01  -1.1247514e-01  -7.4570771e-01   7.3431377e-02   4.6431826e-01   5.0281425e-01  -5.6294858e-02   3.8820343e-01  -6.8901732e-01  -6.0645913e-01   6.9267612e-01  -9.9945827e-01   5.5988412e-01   7.5634180e-01  -8.0791900e-01  -2.3371718e-01   9.0295397e-01  -6.1650905e-01   4.8423322e-01   4.6121654e-01  -5.8673278e-01   1.6348919e-01   4.3002975e-01  -9.5692011e-01   9.6659411e-01   1.7270203e-01   5.4046800e-01   8.4835357e-01   6.7615376e-01  -7.3188271e-01  -3.8636786e-02  -1.4465894e-02  -8.9363943e-01  -1.8791391e-01   9.6619444e-01  -7.9390771e-01  -5.5074466e-01   1.6718040e-01   6.2556293e-01  -4.4468334e-01   6.4606806e-01   1.1654808e-01  -6.3217045e-01  -4.6334537e-02   6.8211858e-01  -7.2945618e-01   4.1633723e-01   1.4968434e-01   8.8304875e-01  -4.7761870e-01  -3.3356326e-02  -7.4512744e-01   6.4774093e-01  -6.2510381e-01   8.6778904e-02   2.6847546e-01   5.8695379e-01  -9.2931151e-01   8.0568319e-01   6.1071639e-01  -8.9392209e-01   8.4654483e-01   9.1275060e-01   9.5456498e-01  -5.8765323e-01   7.1633434e-01  -4.0631082e-01  -9.8107590e-01   1.3031809e-02  -5.3910660e-02  -4.0369673e-01   7.8210053e-03   5.1786606e-01   6.8382406e-01   7.4946461e-01  -8.1982235e-01  -2.9123820e-01   2.0009611e-02  -2.6414191e-01   7.9671159e-01  -6.3641954e-01  -7.1110102e-01  -8.9692060e-01  -7.1724723e-01  -5.6913048e-01   4.7866332e-01   4.4700915e-02   5.9341042e-01  -7.7364013e-01  -7.0679661e-02  -1.3458330e-01  -2.0287498e-01   9.6218162e-01   3.3647309e-01   7.7286839e-02   7.8805151e-01  -6.0472913e-01   3.5251885e-01  -2.1253093e-02   7.4871327e-01   4.5923108e-01   6.2757918e-01  -9.3129381e-01   9.8670645e-01   1.5066285e-01  -3.7349738e-01   8.0105115e-01   1.4902375e-01   9.6600314e-01   3.2803893e-02   1.7225974e-01   5.0397791e-01  -1.3689599e-01  -5.7965901e-01   1.4933001e-01  -8.1808460e-01   8.6115299e-01   3.5080597e-01  -2.1717311e-01  -4.9932280e-01  -1.4276187e-01   9.4530247e-01   1.9882563e-01  -4.3707841e-02   7.7688402e-01  -2.3833779e-01  -9.6121925e-01   2.9817000e-01  -3.0910676e-01   9.2806754e-01   4.6299116e-01   3.5165000e-01  -1.5327375e-01  -5.9621243e-01   8.1560688e-02   9.6531950e-01  -8.1844211e-01   3.6536075e-01   5.2709820e-01  -5.8913947e-01  -4.7110110e-01  -1.2286641e-01  -4.9834166e-01   3.2260872e-01  -7.7206361e-01  -4.6241508e-01  -8.8514004e-01  -7.2975299e-01  -4.4164277e-01   2.5648688e-01   6.3052138e-01   3.8278189e-01  -3.1157255e-01  -2.0354467e-01  -3.6464241e-01  -5.9388350e-01  -9.9831757e-01  -9.7912857e-01   7.9203523e-01  -3.1477672e-01  -4.0618742e-01   4.8922483e-01  -8.4299371e-01   5.1503170e-01  -3.4848603e-01  -9.8474147e-02  -8.4269275e-02   7.7323232e-01   4.5614475e-01   6.4183920e-02   7.2944851e-01  -7.6628430e-02   6.9991891e-01  -4.2740244e-01   2.3741323e-01   5.0829007e-01   1.2518150e-01  -9.5729780e-01  -7.2618140e-02   6.2859864e-01   8.3692276e-01  -4.3278766e-01  -3.1513257e-01   2.5372796e-01   8.8047170e-01   6.5804972e-01  -1.5512852e-01  -6.2547440e-01  -9.8466158e-01  -8.4488232e-01  -1.9783250e-01   1.5445157e-01   2.2966702e-02  -4.4262665e-01  -6.8747924e-01  -1.4449608e-01   4.2239722e-02   1.6974942e-01  -6.3506874e-01  -9.1489261e-01  -8.0243978e-02  -5.0284189e-01  -3.8719970e-01  -5.5935745e-01   9.0937987e-01  -8.3046480e-01   5.2116041e-01  -4.5873024e-01   8.1690850e-01  -7.2981375e-01   9.2464353e-01   8.5499360e-01   8.7016460e-01  -4.7167246e-01   6.6259901e-01   1.5790806e-01   1.2580753e-01  -4.2611684e-01  -2.4961348e-01   8.6671919e-01   8.9890543e-02   8.9264258e-01  -8.9400439e-01   9.1671105e-01   5.6680587e-01   7.8291620e-01  -2.6782142e-01  -9.1171138e-01   5.1034103e-02  -9.9432404e-01  -1.3895426e-01  -9.1783963e-01   2.3828750e-01   4.0787680e-01   1.4615849e-01  -7.0767429e-01   8.5325065e-01   4.6097818e-01   1.0913219e-01  -8.4047498e-01   7.6134836e-01  -4.8772406e-02  -2.7649846e-01  -3.2270975e-01  -7.3120917e-02  -5.6408285e-01  -3.2753884e-01   3.0237849e-01  -5.0778472e-01  -7.6757490e-01  -4.2704053e-01  -1.2311918e-01  -4.5225325e-01   2.4458030e-01   2.2349376e-01  -6.6908483e-01  -4.0172721e-01  -2.8393789e-01  -5.0584701e-01  -7.4726757e-01  -1.0501607e-01  -5.3822713e-03  -2.5322704e-02   9.7104880e-01   8.3698733e-01   4.8523133e-02  -8.3063953e-01   9.1036363e-01  -2.4260381e-01  -8.9023176e-01   3.1052209e-01   1.2940250e-01  -6.5202052e-01   5.9968208e-01   5.6118382e-01  -5.8419374e-01   2.6035201e-01   1.9132274e-01  -6.2725467e-01  -1.6831641e-02  -6.7553187e-01  -5.7493185e-01   6.6062943e-01  -3.5026769e-02   1.7227758e-01   7.9064701e-01  -4.0131753e-02  -9.4693082e-01  -6.4709539e-01  -7.0472547e-01  -4.6688100e-01   8.1919034e-01  -7.1034128e-01  -1.8197169e-02   3.2525093e-01   5.1808368e-01   3.5202874e-01   5.5701845e-01  -5.8891581e-01   9.1505097e-02   7.1220556e-01  -5.1703050e-01   4.2666463e-01   3.3055129e-01   4.2932099e-01   9.7822852e-01   1.8051639e-01   1.2841296e-01  -5.6544608e-01   7.5032413e-01  -1.5102157e-01  -6.9250503e-01  -2.3759980e-02   2.9957703e-02  -6.0830997e-01  -5.0259904e-01  -1.9338841e-01  -4.6782017e-01  -4.8497751e-01   7.7686635e-01   5.8632508e-01   6.9508481e-02  -2.0367781e-01  -6.7092048e-01   4.6151039e-01   2.3929475e-01  -2.1095924e-01  -7.9561704e-01  -5.1409622e-02   9.4861034e-01   6.3590676e-01  -6.8060770e-01  -3.5237450e-01  -8.0696403e-01  -3.9927700e-01  -6.7177695e-01   2.0565179e-01   1.8760097e-01  -3.9186339e-01  -5.6384901e-01   1.4691173e-01  -5.8958783e-02   3.6368568e-01   8.4021324e-01  -8.2324441e-01  -9.1231715e-01   7.6720629e-01   2.4829883e-01   1.6296494e-01  -7.2947330e-01   3.8409923e-01  -6.9129727e-02  -3.3043183e-01   3.5814453e-01   2.4806061e-01  -8.2249368e-01   9.7406693e-01   1.2984370e-01  -8.2338081e-01   4.6827082e-01   2.3338220e-01   7.3331986e-01   2.9703205e-01  -1.1176191e-01  -3.7806024e-02  -8.2930427e-01   5.3158921e-01  -5.2020102e-01   2.8343534e-01   3.3699029e-01   3.6216802e-01   5.6195172e-01  -2.1305500e-01  -2.6826829e-01   9.5002426e-01   5.3551610e-01   2.3358458e-01  -7.1277038e-01  -1.7829465e-01  -3.5099493e-01  -4.3469504e-02  -2.4677624e-01  -8.0097496e-01  -1.8794912e-01  -3.3805746e-01   6.2588599e-01   2.6181131e-01   3.0709063e-01   5.1817591e-01  -4.4254591e-01  -2.3849737e-01  -6.9789628e-01  -6.7907823e-01  -8.6536845e-01  -3.3716837e-01   1.5811905e-01  -4.7563375e-01  -9.6323550e-01  -9.4989713e-01  -4.4485032e-01   6.2509652e-01   9.9783538e-01  -5.1009432e-01   4.1793228e-01   8.2234999e-01  -6.5574761e-01   9.7102082e-01   7.2950326e-01  -8.8464464e-01   3.1529960e-01  -5.2640552e-01   5.8652259e-01   1.3174302e-01   9.6391165e-01   9.0474659e-01  -2.5817280e-01  -1.4254010e-01  -7.7986349e-01   2.8711642e-02  -6.5621573e-01  -5.0208680e-01   6.9088571e-01   2.8741754e-01   3.0797077e-01  -1.0849904e-01   5.5140184e-01   7.7144034e-02  -3.2897219e-01  -4.1008322e-01  -6.2614102e-01  -5.3377144e-01  -2.4813121e-01   4.8013891e-02  -6.8448232e-02  -9.2410949e-01   7.7999520e-01  -1.2203884e-01   4.4249382e-01   3.2104985e-01  -7.1783751e-01   9.4067207e-01  -9.4523100e-01   3.0414762e-01   2.6025064e-01  -5.9197795e-01   6.8396610e-01  -1.2513464e-01   8.7440644e-01   3.2669529e-01  -5.9738895e-01  -3.1942113e-01   2.5471333e-01   7.1276764e-01  -9.0621386e-01   3.1693927e-01  -3.0041375e-01   6.6817313e-01   9.8039986e-01  -1.4908608e-01  -4.0780007e-01   7.3206251e-01  -1.0914705e-02   5.2058294e-01  -9.4342025e-01  -3.6916288e-01   8.4779626e-01  -6.8115324e-01  -9.0066230e-01  -3.7394344e-01  -4.5945766e-01  -6.3684709e-01   1.2939516e-01  -7.3040050e-01   1.7838586e-01  -6.7452054e-01   6.4503155e-01   2.6699189e-01   1.3925698e-01  -1.2153911e-01  -9.0733301e-02  -9.7506378e-01   5.0650998e-01  -2.1325866e-01  -7.5971903e-01  -7.4328307e-01  -1.6124080e-01   9.2874808e-01  -4.1030372e-02   9.1255452e-01   4.1287471e-01   3.8986162e-01  -8.2607003e-01  -4.6508247e-01   5.3108442e-01  -8.3138210e-01  -4.2533126e-01   2.5592383e-01   9.6599509e-01   2.2457291e-01   1.9226484e-01   9.0641277e-01   6.5116169e-01   1.7430649e-01   1.6761592e-01  -6.6607827e-01  -6.5459961e-01   8.8841120e-01  -7.8309517e-01  -6.3577261e-01  -5.7031785e-01  -8.0514676e-01  -7.6837759e-02   9.5487082e-01  -8.4856172e-01  -3.4682880e-01   5.5503158e-01  -4.3707600e-01  -8.9899761e-01   4.5100800e-01  -6.4525942e-01  -1.2480039e-01  -1.5140978e-01  -1.2567283e-01  -8.8881431e-01  -7.9695852e-01  -1.6070899e-01   5.9388469e-01  -8.4043482e-01   4.7688578e-01  -1.9491340e-01  -3.3844082e-02   7.1475239e-01   7.4649392e-01  -8.8810351e-01   6.6626675e-01   7.1747016e-01   3.9511365e-01   8.5727405e-01   4.5548887e-01   2.6825782e-01   6.5041005e-01  -5.5907031e-01  -5.6493470e-01  -5.2849789e-01  -2.0617704e-01   1.0677390e-01   6.7433908e-01   8.3483331e-01   9.1608473e-01  -8.0744240e-01   6.8451928e-01  -9.5361027e-01   6.9775544e-01  -8.7946080e-01  -1.8905385e-01  -6.6270648e-01   1.9540595e-01   4.8502135e-01   6.4623012e-01   8.2105178e-01  -9.7777988e-01  -1.1123040e-01  -5.6311423e-01  -5.2451775e-01   5.3598984e-01  -2.7039687e-01  -4.1308934e-01  -1.7277453e-01   3.5705258e-01  -3.9250597e-01  -2.4040573e-01  -8.9928582e-01  -4.3223354e-01  -8.6447188e-01   9.4673841e-02   6.5557141e-01  -7.9161265e-01   2.9742680e-02  -8.4024929e-01  -8.5904072e-01   5.4500165e-01   1.6324699e-01  -3.7233123e-01   9.1899855e-01   8.0469421e-01   7.4690586e-01  -5.8764243e-03  -8.9611478e-01  -2.4774041e-01   3.0832664e-01   4.8231271e-01   1.1391412e-01  -1.0177552e-01   7.8200311e-01  -6.7188216e-01  -1.3771729e-01  -2.5127536e-01   7.1953392e-01   2.3916058e-01   4.0121226e-01  -9.1341693e-01   3.1145041e-01   6.3634882e-02   8.2875801e-01  -2.7968078e-01   8.2085560e-01  -9.9581827e-01   7.0584865e-01  -5.8440585e-02  -7.1871048e-02  -4.7290367e-01   8.5519800e-01   3.7714533e-02   8.5937070e-02   4.3213449e-01   2.8583208e-02   6.8535038e-01  -1.3748608e-01  -9.6917010e-01   3.4646514e-01   7.0031324e-01   4.3159844e-01  -4.8303616e-01   3.9683370e-01   7.5686036e-01   6.5622149e-01   9.0963326e-01   1.9206714e-01   4.0649926e-02  -1.1531471e-01   8.5022634e-01  -1.7870610e-01   8.2692241e-01   1.1763663e-01   8.7083226e-01  -9.4142800e-01  -3.3672703e-01  -1.2323774e-01  -7.5969593e-01  -2.0801361e-01   8.6488109e-01  -8.2338372e-01  -5.3924275e-01   1.6134046e-01  -8.1486140e-01   8.9818980e-01  -7.8594676e-02  -6.2979034e-01  -6.8321222e-01   2.1598527e-01   3.5825569e-01   2.3290666e-01  -9.9026769e-01   6.1773249e-01   4.0765226e-01  -9.6100037e-01  -4.5084706e-01   8.0989853e-01   7.9393434e-03   4.1279750e-01  -3.9995718e-02   8.6415853e-01   5.4887553e-01  -2.8354737e-01  -3.9228911e-01  -3.9679782e-01   7.0585710e-02   6.2361872e-01   8.1241990e-01   7.7102777e-01   1.5090137e-01   2.9256928e-01  -1.4812632e-01   5.7526941e-01  -6.2889056e-01  -9.1463469e-01  -9.7721271e-01   6.7758261e-01  -5.4582413e-01  -3.9926276e-02  -4.5977119e-01  -1.1497001e-01   3.7425942e-01  -8.9685286e-01   3.0716193e-03  -5.9879674e-03  -3.3503912e-01  -6.2408104e-01  -8.7784971e-01  -5.5055640e-01   1.9377465e-01   5.3965546e-02   1.4720250e-01  -4.9527865e-02  -1.6913509e-01   6.9308623e-02  -2.9266302e-01   8.0672464e-01   7.0203140e-01  -9.4697865e-01   6.6910338e-01  -3.2453980e-01  -1.7305496e-01  -7.7422684e-02   1.6365661e-01  -7.8566359e-01  -5.1455766e-01  -6.0946406e-01  -9.4237589e-01  -5.2243771e-01  -8.2937227e-01  -9.4765273e-01   5.9959712e-01  -7.1938524e-01   8.3334401e-01  -2.2881606e-01  -3.5370938e-01  -7.9557059e-02   4.5403837e-01
  -9.0767232e-01   5.7207276e-01  -9.0748108e-01  -4.4788233e-01   1.9703703e-01  -2.5928920e-01  -8.8132656e-01   5.3696024e-01   6.3576365e-01   7.7369911e-01   4.2974155e-01   4.2530423e-01  -3.7929864e-01  -6.1513161e-01   7.9731414e-01  -4.2568524e-01   4.9380962e-01  -8.2124830e-01  -6.8514323e-01   6.2879322e-01   6.1051510e-01  -7.8029631e-01  -8.4836879e-01  -4.3840909e-01  -4.4567998e-03   9.5126151e-01  -3.6878734e-01   5.7821389e-01   4.0612625e-01   5.4350584e-01  -2.0068457e-01  -4.0286946e-01   8.6255139e-01   4.4737385e-01   2.5627046e-01  -1.5520193e-01  -2.2264392e-01   3.4742974e-01   9.0168679e-01  -8.6219331e-01   4.9897328e-01  -5.2121152e-01  -1.0750460e-01  -7.5625092e-02  -5.6493164e-01  -3.6304686e-01   8.8372189e-01  -1.8986316e-01  -3.6722450e-01  -9.0878643e-01  -5.7766530e-01  -6.1535193e-01   9.4142317e-01  -2.7320435e-01   6.5441443e-01   5.8051350e-01   8.7099733e-01  -6.9490362e-01  -8.6212396e-01   9.8532388e-01  -8.1015532e-01  -3.2777271e-01   9.3906180e-01   8.9194857e-01   5.8881558e-01   6.1939607e-01   9.4814314e-01  -4.1573397e-01  -1.0355614e-02  -9.0916785e-01   1.5691609e-01   8.7550398e-01   7.4230132e-01   7.4156096e-01  -9.3432321e-02  -2.2686256e-01   2.3057031e-02   9.5513617e-01   3.3886384e-01   8.5173192e-01   9.7535194e-01   7.7688319e-01   6.8571643e-01  -2.4802461e-02  -3.1512800e-01  -3.7485007e-01   8.5732249e-01  -7.2650118e-01   9.3405034e-01   5.4882104e-01   4.1958284e-01   8.3788528e-01  -6.3923131e-01   8.5761951e-01  -5.9221503e-01  -4.9641534e-01  -5.7666373e-01   1.8454259e-01   3.3789874e-01   1.8696103e-01   6.9284422e-01  -3.5538495e-01  -8.8760454e-01   7.6247057e-01  -8.0759745e-01  -5.8692153e-01   1.3117772e-01  -1.7586766e-01   3.8345256e-01  -7.2752350e-01  -8.2680544e-01   7.3614674e-01  -9.3914134e-01  -4.2848943e-01  -9.2178035e-01   2.2366818e-01  -1.6112970e-01   1.9677384e-01   4.3475897e-01  -6.4655394e-01  -2.3874126e-01   5.2311707e-01  -4.5730951e-02  -8.8570393e-01  -9.8209796e-01   5.0009641e-01   2.6729883e-01   2.1831944e-01   1.8008334e-01   5.3037535e-01  -8.6629891e-01   2.3173537e-01  -1.6465055e-01  -7.0249281e-01  -9.9026664e-01  -8.4898969e-01  -4.0061277e-01  -2.7545719e-01  -6.5856070e-01  -4.2423709e-01   7.6427632e-01   4.3635703e-01   3.9921475e-02   1.3581031e-01   4.2218283e-01  -7.8070102e-01  -4.3292801e-01   7.4543131e-01  -5.3831199e-01  -8.8843306e-01  -5.4684483e-02  -1.4149558e-01   5.8017012e-01  -8.3505941e-01  -6.9261702e-02  -2.3595149e-02  -8.1442529e-01  -4.1627537e-01   1.9948703e-01  -2.8751894e-01   6.9836203e-02  -1.7447610e-01  -2.8310199e-01  -5.2823123e-01   5.5234920e-01   2.8419820e-01   7.7571330e-01   7.8814033e-02   1.7756200e-01  -6.2318812e-01   6.2013952e-01  -9.4963022e-01   8.2973884e-01   2.1431000e-01   7.0716110e-01  -6.7131952e-01  -9.0792388e-01   3.2841689e-01   3.2711024e-01  -9.3472097e-01   9.2043374e-01   7.2573837e-01  -6.6054237e-01   5.3911772e-01   7.4807803e-01   3.7517224e-01  -1.5982324e-01  -8.1079807e-01   8.3711085e-01  -8.9184173e-01  -5.7923473e-01  -7.0945037e-01  -4.7858678e-01  -4.1174290e-01   9.4094334e-02   7.3366848e-01   3.6543972e-01   2.1997437e-01   6.3092144e-01  -5.5968764e-01  -9.7879191e-01  -7.4280959e-01  -1.4214506e-01  -6.3976856e-01  -6.5843661e-01   9.0718800e-01  -9.3433751e-01  -5.1969022e-01   1.9017283e-03   9.6223465e-01   7.9617835e-01   8.8025597e-01  -4.0468498e-01  -2.9578131e-01   7.8093759e-01   4.1829698e-01  -7.4166298e-02   8.0815135e-01  -2.3704645e-02  -4.6610778e-02   4.1316915e-01   5.2356696e-01  -2.7021202e-01   7.8738194e-01  -4.4844390e-01  -3.0684382e-01   8.3053221e-01   7.0219553e-01   1.1907894e-01   2.1073907e-01   5.8997865e-01   4.3780784e-01   3.2921421e-02  -4.6381447e-01  -8.3930969e-01   6.6765848e-01   9.4282461e-01  -7.1585795e-01   7.2848206e-01  -8.8373801e-01   3.7924880e-02  -4.0861257e-01   9.9971367e-01  -4.3878735e-01  -6.5372408e-01   9.2507461e-01   6.4785357e-01   3.7273034e-01   1.4932355e-01  -1.2125185e-01   9.8652038e-01   6.5218252e-01   2.8487080e-01   8.9123776e-01  -3.3207091e-01  -7.5190960e-01  -9.3193110e-01   5.3017864e-01   4.7189254e-01  -6.6866083e-01  -2.8811697e-01   5.1311747e-01  -3.7875897e-01  -9.3086057e-01   6.3539066e-01   6.1164585e-01  -2.6443587e-01   5.3885096e-01   3.9569814e-01  -1.7250895e-02   7.7588483e-01   5.7879410e-01  -8.9890803e-01   4.3553382e-01  -2.9779862e-01   9.4594155e-01  -4.5554270e-01  -1.5109631e-01   5.1869671e-02   6.0423376e-01   9.9337562e-01   3.3830099e-01  -2.5480198e-01  -8.9879973e-01   5.3873647e-01   8.3677816e-01   8.0216664e-01  -1.5635270e-02   6.0176787e-01   5.1098287e-01  -3.0840275e-01   4.3444693e-01  -2.9508169e-01  -2.6454005e-01   9.7316175e-01   5.5360320e-01  -5.4131617e-01   8.6307415e-01  -9.6335360e-01   2.7125032e-01  -5.8968513e-01  -6.5954154e-01   2.6564585e-01  -1.8722026e-01   8.7748022e-01   2.6498238e-01   8.7188316e-01  -5.8698648e-01   5.2195673e-01  -2.3828394e-01  -3.7380823e-01   5.1749976e-01  -5.8059937e-01   9.9053432e-01   8.6931311e-01  -9.0009997e-01  -4.7501506e-01   3.5452101e-01  -4.6003671e-01   7.1321124e-01  -6.9711929e-01  -8.5206678e-01   8.7190376e-01  -5.3613250e-01   9.9967431e-01   5.5520883e-01   8.7571380e-02  -4.4006844e-02   7.5961826e-01   1.3982304e-03   8.2734603e-01   9.7826735e-02   5.7816602e-01   2.3977410e-01   8.2954900e-01  -4.5283420e-02  -7.9685403e-01   6.4602439e-02   9.7174648e-01  -8.6475684e-01   2.0538703e-01   8.9029949e-01   5.1183919e-01  -4.7566489e-01  -5.3630288e-01   6.0403536e-01  -4.0962036e-01   4.4841032e-01   2.7990735e-01   5.6399842e-01  -8.7485554e-01  -2.2395983e-01  -1.4765129e-01   2.1026083e-01  -1.0142161e-02   3.0983453e-01  -5.3271845e-01  -5.9116265e-01  -6.9032501e-01   7.3529730e-01  -5.5414600e-01  -6.6007397e-02   9.0581288e-01   1.0136290e-01   5.6853327e-01   6.7732127e-02  -2.1082040e-01  -1.4499908e-03   9.3039826e-01   6.2076452e-01  -9.2743154e-01  -3.2177877e-01  -1.2698414e-02   1.7759489e-01  -9.4081497e-01  -2.4777309e-01   8.1776806e-01   1.0749755e-01  -2.4840861e-01  -6.2283288e-01   3.1855019e-01   3.1008188e-01   9.0877421e-01   1.8552839e-01  -6.9574386e-01   2.3948877e-01   1.0138826e-01   4.6321201e-01  -3.4872010e-01  -4.3504120e-01  -5.9263834e-01   4.7725834e-02  -6.6941031e-02   5.4705330e-02  -2.5911235e-01  -1.7833861e-01   7.7068566e-01   1.6423577e-01  -1.5721841e-01   8.1532186e-02  -6.9820116e-01  -2.0881819e-01  -1.5065494e-01  -2.4870372e-01   4.2904110e-01  -7.5195992e-01  -1.8060452e-01   2.9474659e-02   9.3846616e-01  -2.5371042e-01   5.6912187e-01  -3.3883940e-01   2.2527619e-01   9.4973983e-01   4.5129325e-01   2.8302612e-01  -9.1101893e-01   7.4940129e-01  -2.8521655e-01  -6.8204917e-01   5.5394519e-01  -4.0291484e-03  -9.6438590e-01   3.8877502e-02   1.9531110e-01   3.1596552e-01   7.7036409e-01   1.5722753e-01   7.4502453e-01   3.3166052e-01  -5.4334657e-01  -9.7519530e-01   8.3008290e-01  -1.7862361e-01   2.2599667e-01  -9.8232316e-01   4.1194395e-01  -8.1619812e-01  -8.9942315e-01   8.5802555e-01  -6.1016161e-01   3.5102327e-02   7.2930424e-01   3.4269603e-01   6.8796872e-01   3.3826023e-01   2.6686930e-01   4.2079410e-01  -4.3774563e-01   2.6100805e-01  -4.3548190e-01   4.6582140e-01   7.3533417e-01   6.9028212e-01   9.7620704e-01   3.7403474e-01   7.7501844e-01  -2.9332328e-02   9.3249482e-01  -5.9638171e-01   8.7933554e-01   7.0219463e-01  -6.4847204e-01   1.4644142e-01   7.7454510e-01  -8.4629672e-01  -6.8213280e-01   5.7802447e-01  -7.4000587e-01   4.8456503e-01   6.4483082e-01   7.4870803e-01  -9.3465648e-01   2.1808187e-01  -2.5083222e-02  -7.0205137e-02   9.9898263e-01  -6.9673024e-01   8.8479692e-01  -9.0913491e-01  -6.2705197e-01   7.2764982e-01   9.0341371e-01  -8.7093722e-01  -4.3619178e-01  -5.5552397e-01  -1.0272353e-01  -6.1598331e-01  -7.6117031e-01  -6.8183620e-01  -8.2636419e-01  -5.4449466e-01   7.0755260e-02   1.6519012e-01  -5.2094796e-01   9.4744067e-01  -7.3734266e-01  -4.0590549e-01  -3.0689776e-02  -4.8419074e-01   5.0179874e-03   4.2903298e-01   3.9182104e-01   8.7888455e-01   4.9684777e-03   6.7131251e-02  -9.4338909e-02  -9.5284557e-01   9.7736338e-01  -4.6817796e-01  -2.6171483e-01   4.2872601e-01  -8.2250233e-01   4.9884143e-01   2.6905776e-01   8.7855051e-01   5.7164978e-01  -8.1659696e-01  -8.6971988e-01  -1.5022279e-01   8.0589082e-01  -5.5756225e-01  -6.5287836e-01   5.8362515e-01   3.1404334e-01  -1.0586136e-01  -8.6892463e-01   8.9751924e-02   4.0574695e-01  -9.9469889e-01   5.2980091e-01   9.7882436e-01  -7.4997786e-02   2.9385987e-01  -2.6535739e-01  -1.5756345e-01  -1.5593501e-01  -4.3450870e-01   5.7948123e-02   5.1167958e-01  -5.3315844e-01  -8.5500659e-01  -7.7726556e-02  -4.0354937e-01   9.6617191e-01   8.6965784e-01  -4.9967198e-01  -4.3565730e-01   8.1275343e-02   5.0149895e-01   2.6016514e-02  -8.2522246e-01  -7.9598255e-01   8.7950355e-02   2.2124958e-01   5.2677790e-01  -7.9471424e-01   1.7533050e-01   2.8709681e-01  -1.3106823e-01  -6.1334947e-01   3.1660193e-01  -5.1610936e-01   2.5868140e-01   5.5842660e-01   1.0689862e-01  -3.4619732e-01  -3.7410026e-01   4.0346238e-01   8.4330280e-01  -8.0399924e-01  -5.6415535e-01  -4.2190936e-01  -8.7966036e-01   8.4630826e-01   7.3001037e-01  -2.7919501e-01  -1.9715306e-01  -8.7703189e-01  -3.2894796e-01  -7.2213593e-01   7.9384739e-02  -3.5266109e-02   3.0347327e-01  -2.3136856e-01   4.3096308e-01   4.4530140e-01   9.4337106e-01  -4.6549606e-01   9.8353894e-01  -3.4587216e-02   8.5474592e-01   7.8537288e-01  -4.9131821e-01  -8.8238135e-01   7.6430428e-02   8.9701890e-01   6.8562702e-01  -9.3171873e-01   8.8545962e-01   4.2417909e-02  -9.1115627e-01   9.3140975e-01   2.0024876e-01   4.6211463e-01   6.3493187e-02  -7.0942549e-01  -7.8559157e-01  -2.9272568e-01  -8.6127505e-01   7.8054755e-01  -7.2566922e-01  -9.2405329e-01   3.7666373e-01  -5.2670519e-01   4.2385386e-01  -1.1459728e-02  -8.3343911e-01  -4.7031558e-01   7.6553697e-01   9.4747568e-01   3.8193416e-01   1.7546622e-01   6.2296543e-01   8.8407943e-01   2.0344341e-01   3.0741925e-01   7.3017640e-01  -9.2535626e-01   7.1372699e-01  -1.1673077e-01   1.2627334e-01  -8.8392770e-01  -1.2205468e-01  -6.6684674e-01  -2.9484767e-01   9.5901748e-01   2.6567408e-01   9.6933948e-01  -5.7768250e-01  -7.8681349e-01   4.9558318e-01   3.1249029e-01   5.4399589e-02   3.3640939e-01  -4.9142865e-01  -9.5828761e-01  -7.9293365e-01  -9.9864341e-01  -1.8428550e-01   9.0657101e-01  -1.7898785e-01   2.5501931e-01   6.9240068e-01  -1.2656973e-01   5.4702087e-01  -5.6486839e-01   7.0519243e-01  -8.4501972e-01  -5.7831822e-02   9.7703826e-01   6.4897932e-01  -2.8719589e-01   4.8915174e-01   4.1187395e-01   7.6416241e-01   4.2939971e-01  -6.1306871e-01  -3.1187364e-01  -2.9955164e-01  -9.3074964e-01  -2.0803339e-01   4.7495799e-02   3.0504747e-01   2.8061755e-01   7.1782993e-01  -7.3659478e-02  -4.1935453e-01  -9.2022107e-01   3.5557539e-01   6.6240926e-01   7.9938766e-01   6.9843788e-01  -7.7558959e-01  -2.0895882e-01  -9.1240432e-01  -4.4516174e-02  -3.4004739e-01  -8.5331520e-01  -8.3236118e-02   8.1018402e-03   9.4013008e-01   1.1361566e-01  -6.9493765e-01  -5.9475063e-01  -3.7995863e-01   6.4426260e-02  -7.9072192e-01  -8.0611471e-01  -8.3655726e-01  -6.8549813e-01   4.2003520e-01  -6.2380689e-01   7.9288953e-01  -7.4234576e-01   9.7078795e-01  -5.0234294e-01   5.3189843e-01   1.5355641e-01  -2.0014425e-01  -9.4191626e-01  -7.6579138e-02  -1.8793609e-01  -9.2383114e-01  -3.1105287e-01   6.4208848e-02   9.1218313e-01   1.4286549e-01   4.3072064e-01   3.8023320e-01   2.3420626e-01  -9.5622715e-01  -2.4524164e-01   7.0565177e-01  -5.4793090e-01   5.8021357e-01  -3.1001142e-01  -8.9128138e-01   1.9694776e-01   4.4031888e-01   5.4575426e-01  -1.5234504e-01  -3.7546320e-01  -1.1678804e-01   5.9702491e-01  -6.2713424e-01   2.2258484e-01   1.1690625e-01   7.7790234e-01   6.4233682e-01   5.9388754e-01  -1.5262566e-01  -4.9108670e-01   1.0835313e-01  -1.7438859e-01   6.0428319e-01   9.5822395e-01  -9.2973228e-02   1.9532256e-01  -9.3789237e-01  -2.4526021e-01   4.2405707e-02   5.5113119e-02  -4.9507005e-01  -9.8997393e-01  -3.3004743e-02   8.7910228e-01  -9.7181966e-01   6.9614672e-01   9.1867566e-01   6.1007662e-01   3.1635446e-01   6.1552206e-02  -9.2998726e-02   7.8070126e-01   5.9721574e-01   3.4184528e-01   9.4779077e-01   4.9537471e-01  -9.6277498e-01   4.8508763e-01   7.8368891e-02   7.1142944e-01   3.0195105e-01   1.5638216e-02   3.6989598e-01   4.9790908e-02   4.3072842e-01   9.2021581e-01  -4.1721907e-01  -5.1839737e-01  -3.7506805e-01   1.3201283e-01   2.0442996e-01   9.6223562e-01   3.3875096e-02   5.6893116e-01   8.8573480e-01   2.3459382e-01  -9.7153659e-01  -3.3314346e-01  -1.0360243e-01  -5.9290999e-01  -6.7191233e-02   2.0759368e-02  -3.8947756e-01  -1.0255683e-02   2.5598070e-01  -4.1687762e-02   8.6290192e-02  -1.2646065e-02  -6.6119660e-03  -4.0949263e-01   5.6373593e-01  -1.4460667e-01   4.3415937e-01  -6.5396150e-01  -6.0970017e-02  -9.3479589e-01  -1.0788085e-01  -4.2204820e-02   9.0801439e-01  -3.9119706e-01  -6.5706945e-01   7.9792913e-02  -8.9129464e-01  -8.2842941e-01   7.1926730e-01  -7.9082875e-01  -1.7687626e-01  -6.9475667e-01   7.5779656e-02  -7.6908234e-02  -3.2473905e-01  -9.6828945e-02  -8.7783675e-01   1.0808869e-01  -5.2835982e-01  -7.3014343e-01   7.6077869e-01  -5.9965796e-01   7.6499285e-01   1.6396597e-01  -3.4930063e-01   1.4150999e-01   5.0712684e-01   1.0701751e-01   9.2730752e-02  -6.5561298e-01   2.5716969e-01  -8.1961518e-02   3.4753863e-01  -6.2456539e-01   6.8906828e-01   9.7145677e-01  -3.9640254e-02  -8.4677416e-01   2.6903035e-01  -5.6535912e-01   2.4878051e-01  -8.2698151e-01  -2.0783802e-02  -2.9905205e-01  -4.8285962e-01  -1.6044953e-01   7.2616727e-01  -5.8007445e-01   3.5482475e-01   9.9716640e-01  -3.3187996e-01  -5.3249842e-01  -5.5507727e-01   5.4737488e-02   5.7344769e-01   1.0088076e-01   5.0317375e-02  -8.6555694e-01   9.5366870e-01  -8.3040285e-01  -9.6354149e-02   9.8949880e-01   7.4599122e-01  -6.8479897e-01   1.5908234e-01  -4.8947507e-01  -7.5675263e-01  -2.2286664e-01  -7.9585189e-01  -1.8934093e-01  -4.4947451e-01   1.7328485e-01  -3.6523615e-02  -8.2715380e-01   4.9087021e-02   9.1051124e-01   8.0169919e-01   6.2080911e-01   3.8019628e-01   5.6345891e-01  -2.3902201e-01  -8.1306025e-01  -1.6769785e-01  -6.4190188e-01  -3.3768812e-01  -1.4333651e-01  -6.5084198e-01   6.0521013e-01  -6.3039221e-01   9.1220106e-01  -6.4323590e-01  -5.7458386e-01   7.1571538e-01   8.4708419e-01  -5.5905822e-01   5.1842499e-01   3.6826277e-01   4.5002768e-01  -2.8960398e-01  -4.9256618e-01   5.5444461e-02  -7.6216678e-01   1.5917792e-01   2.3209065e-01   4.5721263e-01   1.1847590e-02  -2.9883581e-01  -4.2153077e-01  -3.7330614e-02  -9.6561947e-01   6.6224377e-02   7.1127602e-01  -9.6079811e-01  -1.6007901e-01  -1.3967006e-01  -3.1620404e-01   6.2955949e-01  -6.3079780e-01   2.9235998e-01  -7.9481052e-01   3.3030550e-01   5.7111953e-01   5.9282147e-01  -8.1612405e-01   1.6107562e-01   4.0924488e-01   1.5383162e-01   9.3280097e-01  -3.3153433e-01   9.4361379e-01   2.5662721e-01  -9.9870871e-01   1.7284082e-01  -1.6240744e-01  -3.7797793e-01  -1.1778745e-01   6.9769309e-01   9.5352806e-01   8.5792486e-01  -6.2672538e-01  -5.0356881e-01   3.7269032e-01   9.1120704e-02   9.0791117e-01   9.0209556e-01  -8.9572708e-01   7.0556903e-01  -4.0884371e-01  -5.3691970e-01   2.8833699e-02  -5.0523188e-01  -3.6074579e-02  -8.2702801e-02  -9.8523093e-01  -2.7784397e-01   6.6134455e-01  -5.4693458e-01  -8.7678640e-02   2.7867805e-01  -3.1424137e-01  -2.4150189e-01  -7.7005915e-01   8.1830561e-01   5.7382292e-01   1.3047485e-01   9.6307089e-01  -3.9723601e-02   2.0612635e-01  -4.5406213e-01   7.6292847e-01   4.0345944e-01  -9.6290219e-01   2.8772994e-01   8.0665498e-01   3.4020181e-01  -4.5933698e-01   5.7825736e-01   2.2411858e-01   3.8582616e-02  -9.7518100e-02   8.3896570e-01  -5.9804949e-02   3.4622561e-01   5.4467889e-01  -1.1612021e-01  -7.3612559e-01   6.4349108e-01  -8.8218242e-01  -1.3442417e-01   1.6215023e-01  -2.2759556e-01
  -2.6837169e-01  -6.7248823e-01  -9.0645751e-01   5.4531691e-01   4.2960282e-03   2.1157945e-02   9.3463111e-01   2.2426223e-01   4.5719745e-01   5.6653183e-01  -3.3029116e-01   9.8149509e-01   9.4970023e-01  -3.0866855e-01   6.2740448e-01  -1.2739186e-01  -5.7159926e-01   6.2439551e-02   7.3220071e-01  -3.1377758e-01   4.0587033e-01  -9.3247203e-01  -6.7826453e-01  -7.5060111e-01  -9.8442336e-01  -8.8365216e-01   7.6295893e-01   4.3415876e-01  -6.3374965e-01   5.8349993e-01  -4.5573151e-01  -8.6684913e-01   4.3417304e-01   2.1838592e-01   1.1864330e-01   2.6678759e-01  -7.3918249e-01   8.9694865e-01   9.6434412e-01  -1.7056013e-01  -3.1939739e-03  -6.3898111e-01  -1.2062748e-01  -4.1271040e-01   6.4296624e-01   3.4625223e-01   1.3594472e-01   6.3598586e-01   4.1613494e-01  -3.8601678e-01   1.5785268e-01  -4.1194622e-01   3.7444886e-01   2.1247512e-01   7.5272205e-01   7.6190506e-01   5.3795990e-01  -7.2442182e-01   1.0307279e-01   1.9790920e-01  -5.2697793e-01  -9.6181843e-01   6.3679568e-01  -4.3845384e-01  -2.4671429e-01   1.4940818e-01   4.5588899e-01  -5.3141290e-01   3.1211466e-01   4.5125019e-01  -5.5291368e-01  -7.1109411e-01   4.9103429e-02  -1.9813639e-01   8.8197911e-01   8.3777463e-01   9.7225566e-01   1.1377545e-01  -3.2781616e-02  -9.3368524e-01  -4.2236974e-02  -8.3480731e-01  -5.9423976e-01  -4.7094533e-01  -6.8379371e-01   1.9056066e-01  -9.3623386e-01  -2.3276141e-01  -8.3564069e-01  -7.5658469e-01  -7.1217708e-01   1.8549001e-01  -1.7195091e-01  -8.4339481e-02   5.4272210e-01   6.8053363e-01   3.6810207e-01   9.7152983e-02   5.6523877e-02   6.8331565e-01  -5.2291878e-01   7.8937903e-01  -6.6028710e-01  -9.3482859e-01   9.4900663e-01  -7.3584093e-01   9.7302833e-01  -4.0151371e-01   9.2521466e-01  -9.4789098e-01   1.5985971e-01   5.5999379e-01   5.8800382e-01  -8.1269904e-01   8.1536803e-01   2.5825400e-01   9.6726687e-01   6.8141983e-01  -3.7149762e-01  -4.5226230e-01  -6.6873697e-01  -1.8158570e-01   7.2070637e-01  -6.5585023e-01   6.4369483e-01  -3.3502741e-01   8.4549400e-01  -5.1891832e-01  -5.4747164e-01   3.8250435e-01   8.0799925e-01  -3.0648627e-01  -8.3639184e-01   2.2427917e-02   5.7751374e-01  -8.2298416e-01  -3.8760913e-01  -5.5722417e-01   2.7748081e-01  -9.3287314e-01   6.0566636e-01  -3.6940758e-01   7.7030910e-01  -1.5725210e-01   2.9155570e-01  -9.4086444e-01   3.1913120e-01   6.1388696e-01   4.6810283e-01  -1.4388476e-01  -1.2454791e-01   8.3065323e-01  -3.4210880e-01   8.7469522e-01  -1.1749207e-01  -5.0455127e-01   3.6118435e-01  -6.4471035e-01  -4.5108300e-01   2.9045123e-01  -7.9535130e-01   9.5459511e-01   3.0430963e-01  -5.2135189e-01  -1.3528050e-01  -5.4153115e-02   6.2217091e-01   7.0644302e-01   8.7604401e-01   4.9411710e-01   6.2780078e-01  -4.3750131e-01  -1.3190221e-01  -1.2970517e-01  -4.7626477e-01   9.1037881e-01  -2.9321374e-01  -1.8224064e-01   4.8364754e-02   7.2907164e-01   3.3627941e-01  -2.6972156e-01  -9.7973336e-01   9.5329094e-01  -4.9208525e-01  -2.4048232e-01   7.6948231e-01   2.1116904e-01  -6.3679772e-01  -9.5678297e-01  -7.4189842e-01   4.9810288e-01  -2.2820847e-01   4.4869843e-01  -5.4689206e-01   5.2455958e-01  -1.3898026e-02   7.6190424e-01   8.3111927e-01   6.0578886e-01  -2.6248329e-01  -3.3250194e-01  -1.5330511e-02  -4.2517902e-01   1.0539062e-01   8.9481778e-01   6.6244822e-01  -1.7522256e-02   3.8392882e-01   7.5693291e-01  -8.8417105e-01  -6.2856308e-02  -1.0604464e-01  -3.3667590e-01  -6.3551455e-01   5.1492353e-01   2.6055088e-01  -5.5296924e-01  -7.7252846e-01   6.9525794e-01  -3.3527587e-01  -9.8432330e-01   7.4472274e-02  -4.0499603e-01   2.9201638e-01   3.5167858e-01   2.7458082e-01  -6.1061397e-01   2.5533051e-01   6.5950380e-01  -1.8000704e-02   2.1001118e-01  -7.6917692e-01  -8.1632814e-02  -8.4331647e-01   9.9322109e-01   7.8428371e-02  -2.2966456e-01   3.1202681e-01   8.2336055e-01  -3.7915887e-01  -7.6515070e-01   7.4298364e-01  -8.5969630e-01  -3.5878789e-01   3.3775811e-01   5.9709565e-01   5.7120308e-01   6.8402851e-01  -7.1270776e-01   5.1969888e-01  -4.4680277e-01  -4.2454909e-01   1.2625633e-01   6.7056977e-01  -7.5736883e-01   1.8938035e-01   6.6499687e-01  -1.4808626e-02   7.8353032e-01   5.8452433e-01  -4.6566464e-01  -1.9109828e-01  -3.7298835e-01  -7.7480008e-01   7.3881530e-01   1.4280927e-01   4.0678452e-01   4.1939778e-01   2.7799746e-01  -4.2369096e-01   3.1783423e-01  -2.3126552e-01  -9.4833414e-01   6.3779575e-01   8.3541577e-01  -2.4947470e-02  -6.1130881e-01   1.5760019e-01   2.6376296e-01   7.6004186e-01  -8.1318968e-01  -9.7324750e-01  -7.4630258e-01   3.3988649e-01  -4.2525122e-01   8.7429138e-01   5.8198503e-01  -4.7567106e-01  -2.3067185e-01   9.0100310e-01  -4.2957271e-01   8.8205383e-01   4.7608193e-01   4.2987238e-01  -9.1433931e-02  -1.1500511e-01   9.9469471e-01   4.2675137e-01   7.5446940e-01   4.8601888e-01   2.5530963e-01   1.3954553e-01   7.2352953e-01   1.7554621e-01   5.7462019e-01   7.8701620e-01  -9.3135152e-01  -2.8228049e-02   7.7730937e-01   2.1488946e-01   7.2636813e-01  -9.1746730e-02   9.7348394e-01   8.9662712e-01   9.1027365e-01   1.3440618e-01   8.6108166e-01   8.7443525e-01  -7.1457044e-01   7.8624591e-01  -5.2546383e-01   7.7155372e-01   2.6278359e-01   2.2287793e-01   9.9617572e-01   6.1971083e-01  -1.4795612e-01  -3.8733946e-01  -6.1594024e-01  -3.7080529e-01   1.9531175e-01   5.5953508e-01  -4.9636846e-03   8.7119686e-02  -5.2453174e-01   9.9276778e-01   5.7385216e-01   1.8501449e-01  -5.5989023e-01  -5.8299997e-01   9.6962563e-01   5.1286465e-02  -4.9299476e-01   1.5304442e-01   5.6941497e-01  -8.5193094e-02   4.1089236e-01   7.1597838e-01   6.7441812e-01  -1.4752387e-01  -2.7898940e-01   4.8571254e-01  -2.1299943e-01   4.7402796e-01   4.0146401e-01   9.9264746e-01  -7.9126738e-01   2.4084601e-01  -4.4498373e-01   8.8042046e-01  -7.2196775e-01   3.4139182e-01  -8.9695765e-01   7.7487904e-01  -6.9388088e-01  -6.7506372e-01   7.1971817e-01   6.1977233e-01  -7.1931126e-01  -3.7821041e-01  -5.2805877e-01  -4.7622835e-01  -9.8402689e-01  -5.6332083e-01   1.5848629e-01  -5.1521334e-01  -1.2141494e-01  -4.0451943e-03   7.0233167e-01   8.5396110e-02  -6.7052047e-01   6.7650178e-01  -7.7562805e-01   9.0782066e-01  -4.3115424e-01  -9.5721719e-01   8.2579619e-01  -2.9049708e-01  -8.4830926e-02   4.6336289e-01   9.4235288e-01  -7.8709662e-01   5.7702892e-01   9.4886310e-01   8.5931001e-01   9.9377824e-02   6.8158710e-01  -5.4355176e-01   8.1175612e-01   5.0774312e-01   4.8090478e-01   1.3502523e-01  -6.4740955e-01  -3.0240900e-01  -8.8871615e-01  -1.2587508e-01   4.9008304e-01   3.3110469e-01  -3.7670816e-01   2.1193359e-01   1.7974370e-02   4.9342773e-01  -2.0556670e-01  -3.6172155e-01   7.1308664e-02  -8.2993711e-01  -1.1616237e-01  -5.8534176e-01  -9.7712279e-01  -5.1474944e-01  -8.9245714e-01   2.0086078e-01  -1.5011188e-01   4.2244712e-01  -6.2297228e-01  -9.2539875e-01  -7.0025844e-02  -9.1807415e-01  -2.0781523e-01   1.3213414e-02  -9.5102182e-01  -2.6739907e-01  -3.7027561e-01  -7.5882728e-01   5.5402888e-01   8.4568662e-01  -2.0237907e-01   9.5225255e-01   5.0860598e-01   3.2470154e-01  -7.2563302e-01  -7.1170521e-01   7.6503986e-01   7.2331939e-01  -6.8838281e-01  -6.0684087e-01  -1.0493223e-01   2.9554191e-02  -8.5563363e-01  -5.7706759e-01   3.0014839e-01  -9.6967632e-01   8.1623917e-02   1.5466877e-01  -7.6308225e-01   6.9854522e-01   3.3548278e-01   1.3407049e-01  -4.2423915e-01   3.1580101e-02  -2.3801423e-01   4.1978751e-01  -3.2697718e-01  -3.9071376e-01  -5.9396987e-01   5.0482594e-01  -7.8360207e-01  -4.5899198e-01   3.9421124e-01  -9.8273714e-01  -8.3742130e-01   7.2141326e-01  -2.1707893e-01  -1.3134673e-01   1.0778352e-01   5.6121309e-01  -4.2048302e-01   2.6887088e-01   8.4350086e-01   2.2178848e-01  -5.6594272e-01  -8.7509506e-01   2.4750950e-01   1.2947931e-01  -8.1473022e-01  -9.8419126e-01  -6.6183784e-01   6.7719119e-01  -8.7511831e-01  -9.3082982e-01   9.2133743e-01   5.9413637e-01   2.3108618e-01   5.5501421e-01  -3.3579089e-01   7.3335711e-01  -3.2213160e-01   5.0616003e-01  -2.0821539e-01   7.2732116e-01  -3.5235590e-01   6.0324447e-01   3.2606830e-01  -3.9692615e-01   8.2270445e-01  -9.7679715e-01  -6.8580021e-01   4.8599360e-01   8.4028689e-01   6.4063783e-01   9.2924613e-01   8.5440345e-01   9.9559953e-01  -3.1385246e-01   7.1538795e-01   8.7132508e-01   1.7338480e-01  -8.9941013e-01   5.2699934e-01   5.9822731e-01   5.5124912e-01   3.5497660e-01  -3.6484964e-01  -6.3008594e-01   1.7138739e-01  -2.6146075e-04  -4.0409400e-01  -2.5540022e-01   5.4332742e-01  -8.5339292e-01   7.7814980e-01  -7.2547452e-01   2.7184849e-01   1.9930634e-01   9.7985703e-01   4.4439457e-01   2.1312611e-01   1.1841905e-01   6.9052683e-02  -8.5388217e-01  -3.5786865e-01   3.6437757e-01   7.9307919e-01  -2.4222431e-01   2.3462881e-01   7.4872134e-01   4.0240597e-01  -9.2335728e-01   4.5780075e-01   8.9352667e-01  -4.0610562e-01   6.8764199e-01  -1.7180344e-01  -3.5516844e-01   1.4601203e-01   5.9294772e-01  -1.9451343e-01  -8.9327623e-01  -2.9574986e-01  -1.7944613e-01   1.3677813e-01  -8.7740191e-02  -3.9527994e-01   4.7996723e-01   4.5374497e-01   1.8059001e-01  -6.2638450e-01   4.6293352e-01   2.7589889e-02   6.0835764e-01   7.9804660e-01   3.7168029e-02  -1.1660868e-01   5.4357113e-01   6.1087047e-01   1.5339946e-02  -8.9895583e-01  -3.4219917e-01  -1.6644645e-01  -3.5783284e-01  -5.7539123e-01  -5.6827420e-02   5.2421920e-02   2.3982344e-03  -9.1414409e-01  -5.9882408e-02  -7.2483763e-02  -6.3014799e-01  -6.4279559e-01  -4.0477135e-01   4.3159254e-01  -6.2100857e-01   1.2306545e-01  -5.9635887e-01  -5.3105217e-01   4.7334797e-01  -4.7717624e-01   2.8135901e-01  -6.5407711e-01   6.4005224e-01   8.8742281e-01   3.4711370e-01   1.7365113e-01  -1.2895790e-01  -6.5250054e-01  -9.0590885e-01   6.8555588e-01   9.6350127e-01  -4.1279939e-01  -6.8224264e-01  -6.3710904e-01  -3.6878182e-01  -3.7983859e-01   9.5893786e-01   5.8957266e-01  -6.0207155e-01  -4.8867070e-01   3.0587964e-01  -9.3189704e-01  -6.5616279e-02  -2.6866686e-01  -8.8273309e-01  -6.7490909e-01   3.0068372e-02  -2.2912735e-02  -2.6500174e-01  -5.5006305e-01   5.4791297e-02  -4.2419274e-01  -6.3844370e-01   5.1411669e-01   2.0430337e-01   5.0602458e-01  -4.0295919e-01  -1.4587623e-01  -5.5042371e-01  -3.4871765e-01  -5.4895283e-01   1.8851295e-01   9.3066908e-01   9.4860334e-01  -5.3300278e-01  -7.7709655e-02   4.5723522e-01  -7.8042588e-01   5.9090912e-01  -1.9423511e-02  -5.6744436e-01   6.9525875e-01  -2.7359275e-01   2.3889759e-01  -5.3626141e-01   8.0131495e-01   6.7953059e-01   3.8235460e-01   3.3295586e-01  -4.3517490e-01  -9.0232423e-01   7.1893058e-01  -6.0279854e-01   2.1496255e-01   8.8106460e-01  -5.1357435e-01   9.6705837e-01   1.1024577e-01   7.4709573e-01  -3.8267189e-01   1.7710678e-01   9.0086513e-01   1.3090322e-01   7.1331342e-01  -8.5297512e-01  -1.2777796e-01   9.9513078e-01   6.1451552e-01  -2.5391089e-01   1.5621881e-02   5.5933862e-02  -7.3698816e-01  -5.0498906e-01   9.4552115e-01   1.8477488e-01   3.2895015e-01  -4.2803232e-03   3.4536400e-01  -8.9358570e-01   9.6752663e-01   6.7278873e-01   2.6948884e-01  -3.0950260e-01  -7.5299239e-01  -5.6609219e-01  -3.3168367e-01   3.9106118e-01   6.7498371e-02   2.3404236e-01   2.9596580e-01  -7.3620706e-01   4.8595174e-01  -6.5965995e-01  -5.4418908e-01   4.6388801e-01   1.6942613e-01   8.0135322e-01  -2.0091186e-01   9.0058361e-01  -1.9065341e-01   2.4974546e-02   9.0534431e-01  -7.7466042e-01  -4.8496070e-01   9.3197234e-01   3.5586951e-03  -7.8012339e-01  -6.4838769e-01  -4.5609778e-01   6.2349969e-01  -8.6095883e-02  -1.2542596e-01  -9.9502188e-01   6.3703020e-01   9.3821355e-02   6.1360898e-02   7.0953184e-02  -2.2705767e-01   1.9236978e-01  -7.4721093e-01  -2.6548176e-01  -1.9655071e-01   2.4514125e-01   9.5428593e-01   2.5564678e-02   2.6472441e-01  -1.5084897e-01  -9.6953265e-01   1.4662146e-01  -6.8872770e-01   8.2706313e-01   7.7448546e-01   4.9084360e-01  -2.6630333e-01  -2.6115678e-01  -6.7874508e-01  -8.7049630e-01  -9.3763926e-01  -9.8887317e-01   8.9753494e-01  -1.0690380e-01   7.2011044e-01   7.9329214e-01   1.3399445e-02   6.0376861e-01   3.3436849e-02  -6.0223885e-01   3.4598380e-01  -2.0422638e-01   5.6428259e-01  -9.2094986e-01   9.9384736e-01  -2.6312966e-01   8.7746777e-01   6.3765125e-01  -1.7917731e-01   2.8204315e-02  -5.2912245e-01   3.9556018e-01  -6.0556339e-01  -8.6791060e-01  -2.1650468e-01  -3.3057772e-01  -6.0679131e-01   4.6275517e-01   8.8241554e-01   8.4810431e-01  -2.2111864e-03   1.5275221e-01  -7.2000566e-01   7.7826441e-02  -5.5589823e-01  -8.6751540e-01   8.9764110e-01  -3.1305069e-01   5.3154716e-01   8.3332590e-01   9.1873938e-01  -4.2777903e-01   4.1136572e-01   3.3296046e-01   8.1645668e-01   2.4334376e-02  -7.8032212e-01  -6.8801357e-01   5.7635640e-01   9.8812365e-01   9.2760430e-01  -4.0337157e-01   7.6041019e-01   9.8328101e-01   9.6960211e-01  -7.5478989e-01  -1.1846907e-01  -2.2308483e-01  -6.5652635e-01   2.1073484e-02  -1.2006918e-01   6.6178729e-01  -1.5617948e-01  -7.9217719e-01   6.8099493e-01   1.0068299e-01  -2.5408963e-01   9.3620793e-01  -9.8460509e-01  -3.7400588e-01  -8.5974084e-01  -4.9206573e-01  -7.8800459e-03  -1.5406408e-02  -3.6592931e-01  -4.2554213e-01   3.6913747e-01  -5.5871114e-01  -5.1148297e-01  -4.5415722e-01   3.7841585e-01  -5.2949308e-01   2.9795386e-02  -5.0742764e-01   6.1554203e-01  -4.4440037e-01  -3.7314651e-01  -3.2392772e-01  -5.9274782e-01   6.3677167e-01   6.2024637e-01   2.3628193e-01  -8.3441426e-01  -5.5833010e-02   3.4950816e-01   7.7319451e-01   1.7150035e-01  -8.1322287e-01  -5.1689260e-01   1.9883248e-01   9.2356227e-01  -8.3846907e-01  -7.5846641e-01   8.1656561e-01   3.8887131e-01   1.3088457e-01   5.3484290e-03   6.7187863e-01  -2.4905814e-02   2.1205933e-01   7.3319127e-02  -9.6339932e-01   9.1335638e-01  -9.8234865e-01  -3.8277670e-01  -5.9989223e-01  -9.5326489e-01  -8.4876176e-01   8.8194286e-01   1.0804890e-01  -5.1370083e-01   9.3529020e-01  -5.8556089e-01  -4.2658701e-02  -2.8606111e-01   6.4229272e-01   2.1724062e-01   7.8984016e-01   8.1888261e-01  -6.3528582e-01   6.8170550e-01   3.1812417e-01   2.6263607e-01  -3.5876827e-01   2.0380847e-01  -4.7232628e-01   8.1692588e-01   1.5964902e-01  -5.0417334e-01  -3.0611430e-01  -1.6874404e-01   3.0499038e-01  -2.8718378e-01  -4.1921426e-01  -6.9424362e-01  -4.3780174e-01  -1.8482079e-01  -6.8148186e-01   7.6563155e-01  -4.9338589e-01  -4.9186836e-01   8.0372194e-01  -1.2102390e-01   3.2581602e-01  -9.3061662e-01  -5.1070024e-01  -1.0521830e-01   4.2304388e-01  -4.9122024e-01  -3.7447032e-01  -3.1571715e-01   6.9661863e-01  -1.3511219e-02  -8.3792439e-01   2.1088459e-01  -9.6935818e-01   8.5700825e-02  -8.8321511e-01   6.4028159e-01  -2.0314288e-01   1.4094980e-01  -4.5653027e-01  -8.5362724e-01   3.3072835e-01  -9.1048184e-01   2.3274892e-01  -1.5605601e-01  -1.8783818e-01  -5.5054561e-02   9.6192769e-01  -8.0959389e-01  -2.1862453e-01   2.6316383e-02   7.9748539e-01   3.0690749e-01   6.1693775e-01   4.9643924e-02   9.4699995e-01  -4.9733411e-01  -9.5139847e-01   8.3899521e-02   3.0922393e-01   6.8454003e-01  -4.9162793e-01   6.8794993e-01   7.0036007e-01  -8.0569743e-01  -6.0409316e-01  -3.2273949e-01  -5.3636762e-01  -7.9259069e-01   2.2587588e-02  -2.2584370e-01  -4.6993089e-02  -8.3016471e-01   6.7246409e-01   8.4495412e-01  -8.0899898e-01  -5.6492031e-01   9.1641577e-01  -1.2671315e-01   9.3462102e-01  -1.8296466e-01  -2.4425520e-01  -2.4553926e-02   4.1913724e-01  -2.6538436e-02   5.4795727e-01  -3.4136297e-01   6.8492007e-01  -4.3026204e-01  -3.8658357e-01   1.3823505e-02  -7.6015369e-01   9.5718146e-01   2.9153252e-01   6.9451569e-01   1.3304881e-01  -3.7043416e-01  -8.9444357e-02  -8.2568579e-01  -6.8812826e-02   5.3253609e-01   3.2317560e-01  -9.9330576e-01   4.7924687e-01  -1.5033707e-01   3.0810090e-01  -2.2982214e-01  -5.1238484e-02  -2.4261330e-01   3.8225035e-01   2.3095048e-01  -9.2889382e-01   2.5737947e-01  -3.6925492e-01  -7.9798882e-01  -1.9491078e-01  -8.3104041e-01   8.0278865e-01  -9.8304941e-01   9.2961244e-01   4.8948405e-01   9.5985502e-01  -1.8992822e-01
  -4.3901719e-01  -9.6825818e-01   9.0684174e-01   2.6787367e-01   4.7241136e-01  -7.0544490e-02   8.2894354e-02  -6.0247076e-01  -9.7655943e-01  -3.0701176e-01   8.8627428e-02   5.3092927e-01   2.1948137e-01   5.6207642e-01   9.4944232e-01  -7.4792741e-01   1.6713161e-01  -3.5955560e-01   7.3805854e-01  -4.5945970e-01   5.9497417e-01   8.0137868e-01   7.8262451e-01  -3.7393076e-01  -3.8638916e-01  -3.2669595e-02  -1.9110117e-02   6.9011717e-01   2.5100980e-01  -8.1484882e-01   8.4631622e-01  -8.8625420e-01   8.3769171e-01   5.3682472e-01   9.3823497e-01   7.4323181e-01   9.9214730e-01  -9.7778488e-01  -7.3298950e-01   8.6789681e-01  -1.7192219e-02   4.9991563e-01   5.8147133e-01   9.6398867e-01   8.2412014e-01  -8.2846364e-01   3.4425942e-01   4.7913798e-01   5.2322000e-01   1.5622418e-01   6.0859178e-01  -6.2618526e-01   6.6028632e-01  -2.2994437e-01  -4.7734032e-01   9.4803784e-01  -1.4382970e-01  -4.0312972e-02   4.4345529e-01   6.6279390e-02   4.3657319e-01  -8.8983295e-01   9.8300420e-01   8.4673737e-01   1.3067971e-01   2.4171415e-01   5.6887859e-01  -1.7070156e-01   6.1208239e-01  -4.8625045e-01   4.6078700e-01   5.3856763e-01  -1.2514736e-01   1.4398343e-01   9.3556190e-01  -4.6366316e-01   9.2786763e-01  -5.8262582e-01  -8.8627125e-01  -2.7701603e-01  -3.8151690e-01  -9.5563925e-01  -3.9577039e-01  -6.9318151e-01   3.4970532e-01   9.0817778e-01   9.7958926e-01  -1.6612477e-01  -9.2680665e-01   7.7779466e-02   5.1275715e-01   7.7989669e-01  -8.5949389e-01   5.7992265e-01   2.9543054e-01  -1.9186561e-01   7.9138709e-01  -7.1221647e-01   1.7233380e-01  -6.1483463e-01   4.0821144e-01   4.0288443e-01  -7.3286139e-01  -4.7018153e-01   8.7258956e-01   8.7573586e-02   9.7180237e-01  -1.4083379e-01   4.9426716e-01   8.1010415e-01  -9.7804749e-02  -3.1300231e-02  -8.4553407e-01  -7.8633760e-02  -3.7731131e-01   6.2178859e-02   5.5561495e-01   5.5041389e-02  -4.5945333e-01   1.8622810e-01   7.8607583e-01  -6.7653140e-01  -9.7368635e-01   3.6995085e-01  -8.6087875e-01  -8.8058770e-01  -5.0270787e-01  -5.6001242e-01  -4.3625006e-01  -2.5385053e-01  -3.4314367e-01   2.3866874e-01  -5.7273458e-01  -5.0735581e-01   2.1386869e-01  -2.3599552e-01  -1.7815109e-02   3.0511023e-01   3.0942398e-01   6.7832908e-01   2.4821030e-01  -9.0592550e-01   4.9723461e-01  -7.7642596e-01  -9.8075174e-01   9.4037807e-01   8.0088628e-01   1.0381493e-01   6.7367982e-01  -2.5194869e-01  -9.6290656e-01  -7.2256404e-01   4.4134055e-01   3.8096771e-01  -3.6076611e-01   2.5939272e-01   6.1312719e-01  -1.9318220e-01  -8.7840135e-01  -8.0737695e-02   8.9332885e-01   6.6521439e-01  -7.0733004e-01   9.8791669e-01  -1.6890250e-01  -5.0962368e-01  -5.3001446e-01   8.3213381e-01   1.0039091e-01  -2.5475094e-01   4.2273140e-01  -5.3809043e-02   6.3421426e-01   4.4488368e-02  -7.1066579e-01  -8.7135717e-01  -8.1098878e-01  -1.9458094e-01  -9.1070002e-02  -9.2171759e-01   5.0174901e-01  -1.2188479e-01   5.8358861e-01  -4.1557428e-01  -8.5039190e-01  -8.8042698e-01  -3.0329648e-01  -4.6780665e-01  -6.8846652e-01  -8.1671924e-01  -3.2519989e-01   2.9601203e-01   9.4297285e-01  -6.9915057e-01   1.4830386e-01   8.8506800e-02   9.8263902e-01  -9.0282241e-01  -4.5452780e-01  -9.9818208e-01   4.6240326e-01  -6.6768594e-01  -1.3190144e-01   4.4462127e-01   5.5694314e-01   3.9293054e-01  -6.1104701e-01   1.8347231e-01  -6.1418334e-01   4.9267648e-01   5.9891712e-03  -1.3819371e-01  -2.5812811e-01  -8.0802045e-01  -9.6938517e-01   7.3201558e-01   9.0476345e-02   4.0412889e-01  -1.7486969e-01  -7.6021773e-01  -3.2620835e-01   7.2833895e-01  -7.6343678e-01   9.4118533e-01  -8.2458309e-02  -2.6009293e-01   1.2342542e-01  -3.5434020e-01   1.8311303e-01   1.8437047e-01  -9.2710018e-01   3.4690665e-01  -5.4506400e-01   2.9241576e-03  -2.7342471e-01   2.1770966e-01  -1.3976731e-01   1.2831311e-01  -6.0012715e-01   7.0007511e-01  -1.8644432e-01   5.1801653e-01   4.2295064e-01   8.6057480e-01   4.3199761e-01  -4.8127562e-01   7.7927235e-01  -4.1963309e-01   7.4720272e-01  -9.7115759e-01  -2.1227996e-01  -2.7129397e-01  -7.5819842e-01   6.1192675e-01  -9.3341637e-01   4.0688143e-01  -2.6608179e-01  -6.0043067e-01  -7.3494119e-01  -2.6427323e-01   7.5931343e-01   8.5230809e-01  -8.0249923e-01  -3.7191274e-01  -4.0473181e-03   1.3955424e-02  -6.9671576e-01   5.0600853e-01   2.7355612e-01   1.9406096e-01   6.4105691e-01  -2.8623269e-01   1.1047292e-01   5.6298124e-02   3.5042655e-01   3.8490873e-01  -6.8665455e-01  -1.0936502e-01   9.5121748e-01  -9.4905233e-01  -8.4800700e-01   9.5575570e-01   9.5459677e-01  -4.2421870e-01  -2.2006836e-01   4.8824815e-01  -4.1435421e-01   6.6549290e-01   9.7753806e-01   2.1648132e-01   7.7864396e-01   4.7833166e-01  -3.1877750e-01  -2.0752189e-01   2.8953736e-01  -3.4173624e-02   5.5344150e-01   2.8191813e-02  -5.7560771e-01  -8.2600810e-01  -8.0406395e-01   5.5132777e-01   5.4947969e-02  -5.4511338e-01   5.0948153e-02   4.1105083e-01   5.6115479e-02   2.4385513e-01  -8.1795987e-01   5.4074280e-01   8.4329458e-01   6.9718027e-01   9.3171987e-01  -8.6151096e-01   8.2584832e-01   5.5300328e-01  -6.0047509e-01   6.7275457e-01   6.8977030e-01   1.8443045e-01  -4.6669790e-01  -6.7247088e-01   9.8621277e-01   2.5826161e-01  -2.7250566e-01  -1.9875965e-01   6.6560146e-02  -2.7557661e-01  -8.3708663e-01   3.2870199e-01  -3.7171132e-02  -2.1081864e-01  -2.2411436e-01   3.0314571e-01  -1.8202999e-01  -9.6113328e-01  -2.6123735e-01  -5.5128433e-02  -5.1769039e-02   8.1937964e-01   2.0170139e-01   6.2891935e-01  -9.1900099e-01   2.9084208e-01   3.5854104e-01   1.6754572e-02  -2.8622090e-02  -3.3656143e-01  -9.6994647e-01   4.6948245e-01   2.6938760e-01   5.5681585e-01  -9.8825965e-01  -2.1245305e-01   7.9232770e-01  -1.1304131e-01   5.2355381e-01   6.8567197e-01  -2.9299613e-01  -3.2407887e-01  -8.0844562e-01  -9.7777216e-01   9.6840592e-01  -1.6284479e-01   8.4328637e-01   9.8327770e-03   3.0722990e-02  -8.1277486e-01  -9.9775900e-01  -9.6036560e-01  -1.0822099e-01   5.6939156e-01   6.1309867e-02  -1.1972268e-01   6.7554182e-01   7.9156820e-01   1.1101582e-01   5.9512839e-01  -4.4194150e-01  -9.7050471e-01  -4.2704389e-01   9.6444951e-02   1.2212837e-01  -8.3944799e-01   2.7685508e-01   8.5146014e-01  -7.2604573e-01   4.2089907e-01  -5.1704152e-01   2.7521949e-01  -2.6661464e-01  -3.6127260e-01   7.6818551e-01  -9.2085117e-01  -6.4141679e-01   3.5154953e-01  -4.5026718e-01  -6.2461005e-01   3.9556002e-01   1.4573825e-01   3.0737752e-01  -7.3090652e-01   7.2217394e-01  -3.2408728e-01   5.3286146e-01  -3.9835594e-01   6.9529782e-01  -8.4910855e-01   4.2175585e-01   9.4047218e-01  -2.7118883e-01  -4.8819574e-02  -2.3545329e-01   1.9633328e-01   2.3322508e-01  -6.6876679e-01  -8.2934176e-01   9.1106538e-01   8.9096396e-01   4.9071325e-01   5.5215129e-01   1.2229944e-01   8.4996428e-01  -8.1396998e-01  -6.8748980e-01   5.4598534e-01  -8.1737381e-02   2.9484537e-01  -8.9697661e-01  -2.6994447e-02   1.4886342e-01  -5.5426841e-01  -8.1490370e-01  -1.6678040e-01   9.4684087e-01   5.8861154e-01   6.8953391e-01  -2.8671953e-01  -4.9956031e-01  -8.2900375e-02  -1.4429130e-01   8.5395265e-01   9.6297442e-01   8.5102639e-01  -5.3931481e-01   8.5599931e-01  -3.3781772e-01  -1.3419851e-01  -5.0247008e-01   7.8535230e-01   8.7386966e-01   7.8987811e-01  -4.5156108e-01  -5.3340952e-01   5.8768633e-01   3.1076632e-01  -4.7171497e-02  -5.8227044e-01   8.0749641e-01  -2.0673885e-02  -8.3959600e-01  -3.9728530e-01   2.6641540e-01  -8.4863096e-02   5.8796915e-02  -6.2083500e-02   1.6835655e-01  -5.9877722e-01   7.9287577e-01   9.9296279e-01   8.8290192e-01   6.7473018e-03   3.2594713e-01   8.9703405e-01   5.3361089e-01  -4.9822388e-01  -9.6111200e-01  -3.3298855e-01  -4.2293987e-01  -2.3045561e-02  -8.3643973e-01  -7.6974420e-01  -9.6319020e-01  -4.5653792e-01  -7.9937788e-01   5.9820283e-01  -8.9243073e-01   2.2982955e-01  -7.0317531e-01  -2.9967758e-02   9.7632153e-01  -8.2705664e-01  -4.4889243e-01  -2.5009542e-01   5.3280121e-01  -8.4634588e-02  -6.3940017e-01  -3.9760084e-01   3.1210678e-01  -5.7437928e-01   5.1698656e-01   4.8663240e-01  -6.9064148e-01  -4.3534841e-01   6.5491781e-02   7.3599288e-01   9.8629053e-01   5.7650260e-01  -2.4346044e-01   6.1908680e-01   8.2891226e-02  -4.9459666e-01   2.5828769e-01  -7.3522098e-02  -7.9237833e-02  -8.4047637e-01   1.5369601e-01  -5.6880664e-01   1.9040514e-01   7.4829358e-01   7.0216669e-01  -6.9924933e-01  -1.4644491e-01   8.9237260e-01   4.0053574e-01  -4.6998155e-01   8.2479385e-01   1.3912388e-01   7.8187811e-01  -9.8229346e-01  -4.4645681e-01  -4.2484982e-01   2.9677705e-02   1.2269986e-01  -5.3320824e-01  -9.3243687e-01   3.7975640e-02  -6.3013982e-01   2.2517102e-02   9.1675991e-01   2.3379427e-01  -8.1630399e-01   2.7653535e-01   6.6763454e-01   1.2240767e-01  -9.5664069e-01   8.0449509e-01   4.2349641e-01   9.1862031e-01   7.7348623e-01   8.9036341e-01  -4.6536814e-03  -9.1862483e-01   6.1403094e-01   1.5063331e-01  -7.1137418e-01   2.3430548e-01  -9.9979884e-01   6.7478501e-01  -7.1394522e-01   2.9790816e-01   8.7239175e-01  -5.9310658e-01  -5.8736744e-01  -2.8978817e-02  -1.0514279e-01   6.3297189e-01  -1.7088932e-01   5.8598269e-01   8.9359304e-01  -2.3346542e-01  -9.4868826e-01   7.7924855e-01   5.8083405e-02  -2.8661182e-01  -5.1910929e-01   5.4468264e-01   5.5700167e-02  -6.4855926e-01   2.7033816e-01   1.9125016e-01   3.3769039e-01   5.5482083e-01  -1.9461382e-01  -3.1631148e-01  -5.1641514e-01  -5.9933867e-01  -6.5300766e-01   4.4007834e-01  -8.6798094e-01   4.3810130e-01   8.0639230e-01  -8.5228399e-01  -4.8851763e-01   7.3655359e-01  -7.2572300e-01  -5.5524042e-01   9.2021796e-01   2.5227076e-01  -9.3836746e-01  -6.7874185e-01  -9.8619333e-01   7.6879463e-01   5.0535456e-01   8.6724039e-01   3.6704333e-01   7.7301438e-01   5.5434566e-01   4.6505402e-01  -2.7049388e-01  -5.1592669e-01   7.5980569e-01  -9.6341852e-01   4.6036543e-01   6.7391026e-01  -5.7310360e-01  -8.6963720e-01   6.0549829e-01   1.4743109e-01   9.5685868e-01   2.5293865e-01  -2.0669564e-01  -7.4327585e-01  -4.0685565e-01   9.8232214e-01   6.7955993e-01  -7.3840200e-01   9.1880864e-01  -3.2563184e-01   6.9117289e-01  -9.8888934e-01  -2.7728054e-01  -6.3280724e-01  -9.8587262e-01  -8.3442431e-01   2.8526678e-01  -1.1107064e-01   1.9281047e-02   6.0252639e-01   4.6092563e-01  -6.5326409e-01  -2.6038687e-01  -9.2406027e-01  -1.5940338e-01  -7.0985005e-01   7.9772523e-01   6.8868551e-01   1.2082191e-01  -6.6714993e-01   6.5523810e-01   9.4117079e-01  -2.3709175e-01   7.9057628e-01  -5.5146741e-01  -1.5655354e-01  -2.3261380e-01   8.0535422e-01  -3.3639923e-01  -9.4353464e-01  -4.5215999e-01   3.3878759e-01   3.7768114e-01  -3.9765773e-01   5.5810862e-01   1.8693113e-01  -9.9600415e-02   8.7362989e-01  -2.7011494e-01  -3.1324532e-01  -1.9894061e-01  -1.5654789e-01  -9.6720766e-01   5.2203316e-01  -9.7584808e-01   4.2514611e-01  -8.8194594e-01  -4.8334234e-01   1.3204390e-01   2.6694423e-01   1.9587061e-01  -5.7923430e-01   7.1852748e-02  -8.2134510e-01   1.7094966e-01  -5.3729716e-01   9.3337393e-01  -9.9583068e-01  -1.5578778e-01   5.6847798e-01  -6.6151908e-01  -4.2239267e-01   5.9726349e-01   9.6619857e-01   8.1760539e-01  -3.9314916e-01   8.8951604e-01   7.1785148e-01   3.7695985e-01   1.3340182e-01   9.1813384e-01   1.1206906e-01  -4.1795041e-01   1.0018327e-01   3.7206519e-02  -7.2024098e-01  -4.5474631e-03   2.2978706e-01   6.4940916e-01   4.8580905e-01   2.5653319e-01  -4.7769217e-01   6.3317019e-02   6.9112720e-01  -6.7000701e-02  -7.1570147e-01  -1.2922050e-02  -6.6443693e-01  -7.8644247e-01  -1.4452152e-01   1.0471971e-01  -1.5060678e-01  -5.8108711e-01   7.1879060e-01   8.5314251e-01   1.3503737e-01  -1.0845791e-01  -1.2715988e-01   1.3443467e-01  -6.5093769e-01   7.9080754e-01   4.8251622e-01   4.5197866e-01   2.8296202e-02  -5.7701294e-01   9.4848907e-01  -9.4058079e-01   4.6750592e-01   9.7049849e-01  -4.4185116e-01  -1.3563846e-01   4.9584285e-01   6.7382287e-01   6.3487666e-01  -6.2876713e-01   7.5770036e-01   8.7616528e-01  -7.0596577e-01   4.2136386e-01   2.7089894e-01  -5.0318071e-01  -7.7963631e-01   6.7603597e-01   9.4057006e-01   9.7904584e-02  -7.3025757e-01  -1.9058839e-01  -3.8135744e-01  -1.2212952e-01  -9.4977283e-01  -9.3993368e-01  -4.1224468e-01   8.9951982e-02  -8.7144108e-01   7.1484763e-01  -9.6374602e-02   3.4108531e-01  -8.0821268e-01  -9.8765497e-02   4.3411239e-01   3.7769821e-02  -2.7177411e-01   1.6198298e-01  -3.6825204e-01  -7.7281349e-01   8.3623513e-01   1.9469894e-01  -3.4904636e-01  -7.3367299e-01  -3.6258674e-01   2.7470240e-01  -6.4967921e-01  -4.2856095e-01   4.6948687e-01  -4.1670701e-01   8.3425740e-01  -8.7387571e-01  -8.6670925e-01   1.5549032e-01  -3.6497683e-01   2.0067648e-01   4.9488054e-01  -9.1374347e-01  -4.3658749e-02   8.5909359e-01  -1.6605720e-01  -8.4971986e-01  -9.7769013e-01  -2.4973748e-01  -8.7644654e-01   7.8707686e-01   7.4031744e-01   9.4204939e-01   6.3333911e-01   4.5962317e-01  -5.8996772e-01   1.9234443e-01   4.7099003e-01   2.7854487e-01   8.9415057e-01   1.3899475e-01  -5.2427201e-01  -3.6571695e-01  -6.4380684e-01   7.7215258e-01  -6.8283594e-01   2.6924080e-01  -5.1167039e-01   8.7606125e-01   8.2124866e-01   5.9518655e-01  -2.4289976e-01   3.8156495e-01   9.4924786e-01   6.6340739e-01  -4.3417161e-01  -5.8211948e-01  -6.9797437e-01   2.1398143e-01  -5.1439453e-01   7.9816876e-01   5.8795843e-01  -4.6332389e-01   8.4466963e-01   4.2032040e-01   2.0132520e-01   3.9803631e-01   1.6435077e-01   1.4386940e-01  -9.2650505e-01   3.6621166e-01   2.8547777e-01   6.8354063e-01   6.0242613e-01  -7.9127200e-01   1.5865940e-01  -2.1082959e-02   7.2631895e-01   4.9757660e-01  -9.1473880e-01  -3.9898358e-01  -6.1315725e-01  -1.6886058e-01  -1.9022983e-02  -4.1525882e-01  -6.2822029e-01  -4.0978429e-01   4.8523488e-01   9.6117550e-01   1.0085325e-01  -8.6159410e-01  -1.8234637e-01  -1.2153070e-01   4.6348282e-01  -8.7340661e-01  -2.1452177e-01  -6.9872666e-01   5.3249165e-02   9.5582333e-01  -4.7447451e-01   5.7879269e-01   7.5233024e-01  -1.2814938e-01   4.7337121e-01   9.7941421e-02  -5.3846911e-02   9.8248623e-02  -6.3801689e-01   8.7405303e-01  -1.5732983e-01  -5.6232874e-01   1.0486264e-01  -1.2719082e-01  -9.2220095e-01  -3.7231648e-01  -3.1882909e-01  -8.7594919e-01  -5.4571278e-01   1.8180646e-01  -7.3877916e-01  -7.1015153e-01   8.6744932e-01   2.0541704e-01  -4.3239754e-01  -6.0445603e-01   4.1989617e-01   3.8215593e-01  -9.5273540e-01  -1.0152751e-01  -8.9633134e-01   5.4073764e-01   4.6569206e-01   2.5231887e-01   5.6578507e-01  -8.0277484e-01   3.4520080e-01  -2.3978166e-01  -8.0829596e-01   6.2043847e-01  -6.5234703e-02  -7.7842350e-01   4.6879316e-01   5.2641457e-01  -6.2393174e-01  -2.1109264e-01  -5.6141357e-01  -5.8509494e-02  -8.6753621e-01  -8.3908362e-01  -8.1765441e-01   7.9528787e-01   4.9681929e-01   3.3557322e-01  -9.7218344e-01  -8.3776602e-01  -2.1222884e-01  -2.5270377e-01   1.7853417e-01  -3.5541621e-01  -1.5458744e-01  -4.3329307e-01  -6.0188046e-02  -2.7990376e-01   3.9694657e-01   8.5594330e-01  -5.1397509e-01   6.7667692e-01   5.4590129e-03   8.0101718e-01  -6.3111464e-01  -2.0635073e-01  -7.6148296e-01   7.0754961e-02  -5.5703948e-01   8.8572701e-01   2.7682039e-01  -5.6369732e-01  -6.1572863e-01  -8.7165006e-01   4.9779377e-01   8.0762683e-01   1.4801170e-01  -7.1484784e-01   7.3542568e-01  -3.3388157e-01   4.1455913e-02   3.6362745e-01   1.5567021e-01  -9.6441717e-01   8.7391638e-01   3.3166364e-01   7.2615737e-01   7.7294112e-02  -1.6060983e-01   1.7483075e-01  -5.9093680e-01   7.7157374e-01  -6.0383885e-01  -7.8054206e-01   5.1482987e-01   9.3748395e-01   2.9312049e-01   5.2498830e-01   4.2029282e-01   8.3660147e-01  -9.2322111e-02   1.3349875e-01   8.7597825e-01  -8.9092724e-01   1.7907590e-01  -1.1984239e-01  -9.5581451e-01   6.6003652e-01   2.1073765e-03   4.5792115e-01  -3.5460653e-01   7.0666275e-01  -5.5706081e-01  -7.4801146e-01  -8.1480252e-01  -7.5304700e-01  -7.6460302e-01  -3.1265028e-01  -3.1219610e-01  -4.5030051e-01  -1.1424649e-01  -4.1728859e-02  -2.4681974e-01  -8.6998228e-02  -2.8686016e-01   3.5396555e-01
  -3.9130358e-01   9.2765272e-01   9.8889213e-01  -6.4614361e-01  -3.9295289e-01  -7.5353632e-02  -2.9185422e-01   2.4916907e-02  -2.8637375e-01   8.4489317e-01   7.6488098e-01   4.6329006e-02   1.5014135e-02  -8.4988356e-01   8.6741991e-01   5.5372072e-01   7.7365218e-01   3.9900776e-01  -3.8567853e-01  -4.0486246e-01  -3.8019833e-01   8.0521727e-01   3.6904431e-01   9.1388750e-01  -4.8178293e-01  -3.7142329e-01  -9.2209748e-01   8.2460769e-01   6.0736202e-01  -4.4940518e-01  -7.5373012e-02   8.8611782e-01   9.3258685e-01   5.0117753e-01  -3.7778661e-01   4.6009790e-03  -3.0971724e-01   4.8812075e-01   5.1884589e-01   6.2063273e-01   9.7852191e-01  -8.5408323e-01   1.3878303e-01   2.2840427e-02   9.2969152e-02  -1.7623187e-02   8.0622285e-01   3.1050809e-01  -4.2254787e-01   4.4339537e-01   4.7802437e-01  -3.5447254e-01   1.2783690e-01   1.3469582e-01  -7.0467028e-01   9.8142047e-01  -8.3724799e-01   2.8813641e-01  -3.4500983e-01   1.4294242e-04  -4.4827397e-01  -9.2068671e-01   9.2753192e-01   1.1169373e-01   1.9107166e-01  -1.7932008e-01   9.8858941e-01  -4.7545932e-01  -9.4655314e-02  -4.1329919e-01  -3.8128920e-01   1.3324857e-01  -6.2256422e-01  -1.6082597e-01   3.9069106e-01  -4.6903513e-01  -3.3312708e-01   5.0173748e-02  -4.0203209e-01   9.4606566e-01   9.1372845e-01   1.4853287e-01   6.6764785e-01  -4.4258337e-01  -7.5877185e-02   1.5938545e-01  -8.3629721e-02  -9.7553204e-01  -2.3244933e-01   5.9895074e-01  -9.4641199e-01   3.1421149e-02  -2.2039297e-01  -6.3946143e-01  -2.2308451e-01   4.8385444e-02  -6.8237677e-02  -4.4696962e-01   7.1393414e-02  -4.9250011e-01  -1.3267967e-01  -8.7597496e-01  -1.7401508e-01   5.7458505e-01  -3.8144752e-01  -3.0123885e-01   3.9054158e-01   1.3450445e-01  -2.7151823e-01  -5.1750663e-01  -3.1803152e-01   5.9549860e-01  -5.1193702e-01   7.6662678e-01   5.8163592e-01   3.0187450e-01  -3.4637115e-01   1.2181588e-01   6.0691079e-01   6.4444976e-01  -7.3707653e-01  -4.3136116e-01  -9.3249721e-01   5.5090156e-01   5.8269479e-01   4.0263536e-01  -1.2303432e-01   3.7370369e-01   4.5057852e-01  -6.9150784e-02  -4.6479460e-01   5.1815185e-01   3.9171112e-01  -1.5946138e-01  -5.3152711e-01   6.8737610e-01  -5.9872251e-01  -2.1374293e-01  -5.2828834e-01   3.0715414e-01  -6.0373233e-01  -7.5708732e-01  -2.0388328e-02   1.9686552e-01   9.2565525e-01  -6.5777960e-01   8.6349310e-01  -2.2564236e-01   7.6826961e-01  -6.3668899e-01  -2.1506937e-02  -2.5932791e-01  -9.2584543e-01   9.3674770e-01  -4.2004781e-01   2.4020632e-01   2.7989719e-01   3.6130769e-01   2.0532380e-01  -9.0346814e-01   2.4099015e-01  -8.2354442e-01   1.5147388e-01   8.1699399e-01   3.2386995e-01   1.3823712e-01  -1.3738779e-02  -1.8060931e-01  -6.5168206e-01   8.6320768e-02  -7.5831813e-01  -9.6360390e-01   1.3644868e-01  -5.9391085e-01  -6.8223515e-01   3.9905108e-02  -4.0771771e-01  -5.9764991e-01   1.7306905e-01  -2.8352625e-01   1.8756288e-01   8.2882018e-01  -1.5050211e-01   8.6052760e-03   1.1003300e-01  -1.0233665e-01  -5.3001729e-01   3.4902863e-01   5.6646958e-01  -1.0766036e-02  -4.3277557e-01  -1.9148108e-01   1.3883212e-01  -4.1020538e-01   6.7856581e-02  -9.9319398e-01  -8.0557639e-01   5.2000150e-02  -6.0852891e-01  -7.3745437e-01  -6.8280577e-01  -2.3761132e-01   4.1966211e-01  -7.4411890e-01   9.2448069e-01  -4.1822117e-01   6.6430383e-01   5.6135639e-02  -5.3888604e-02  -3.9642904e-01  -6.4437465e-01   5.0698675e-01  -2.9094034e-01   1.9271744e-01  -7.5392170e-01   9.6045640e-01   8.4920553e-01  -4.8381021e-01  -7.1779518e-01   2.3217219e-01   1.9951465e-01   7.2207741e-01  -4.0201600e-01   5.6101383e-01   3.1393678e-01   1.0979034e-01   7.8511236e-01   5.3581247e-01  -6.2001992e-01   1.2874067e-02   2.6852016e-02   1.3673174e-01   1.1101114e-01  -2.5820928e-01  -1.9943993e-01  -9.2836004e-01  -3.9358303e-01   7.2529493e-02   2.6562991e-01   5.6176118e-02  -1.4186445e-01   3.3464654e-01   2.2473201e-01   8.8825949e-01  -7.2110740e-01   3.0275555e-01  -1.5636125e-01   1.5666481e-01  -5.9832789e-01  -9.2719255e-01   6.5386567e-01   7.2294732e-01   5.6233461e-01   8.7911768e-01  -9.2743430e-01   6.3189984e-01   3.4593607e-01   6.7130711e-01  -4.5945753e-01   4.1071206e-01  -5.4671136e-02  -9.1385435e-01   1.1102453e-01   2.8961809e-01  -8.8352747e-01  -1.1731679e-01  -7.8912868e-01  -8.5582742e-01  -8.5259763e-02   1.3036582e-01  -7.6087265e-02  -4.4994506e-01  -8.9464809e-01   2.5348013e-01   8.8448090e-01  -8.3104043e-01   4.4442829e-01  -9.5199699e-01   7.7044478e-01   6.1729069e-01  -2.7706386e-01   3.1341416e-01  -5.9727168e-01   2.4435013e-01   3.2587980e-01  -7.0943407e-01  -8.1735492e-01  -6.4246493e-02   7.1051925e-01   4.8396960e-01  -2.3658013e-01   3.5485984e-01  -3.7086620e-01  -5.5416526e-01  -6.5162586e-01   7.0944304e-01   3.5071712e-01   1.2295961e-01  -9.6099098e-01   4.9243545e-01   6.3862053e-01   1.5817725e-01   9.1524600e-01   9.4585200e-01  -4.1430213e-01  -9.8641504e-01  -1.9819209e-01   9.4762494e-01  -5.4086577e-01  -5.1690756e-01   3.8806822e-01   3.4784623e-01   2.0699382e-01   3.1583889e-01   3.9378010e-01   9.7239047e-01  -1.8147174e-01   6.8441224e-01  -3.3720757e-01  -8.2181623e-01  -1.3042260e-01   2.3533338e-01   7.1643732e-01   1.1991239e-01   8.7247457e-01   7.0231032e-01  -7.9748890e-01   1.9578771e-02   4.0672219e-01  -1.6435089e-01   2.1760217e-01   6.1589792e-01  -9.6611927e-01   5.1403783e-01  -8.6628541e-01   5.7660492e-02  -8.3668046e-01   2.4401829e-01   7.3009134e-02  -3.5105559e-02  -6.4156393e-01  -2.2717320e-01   7.2337974e-01   3.1726877e-01   3.2399062e-01  -4.0573243e-01   6.6012498e-01   3.9966950e-01   2.6198580e-01   2.4616894e-01  -6.8356449e-01   1.4697415e-01  -4.3371151e-01  -5.2107351e-01  -4.7810339e-01  -2.2465544e-01  -7.9481512e-01  -6.9446227e-01   1.7608753e-01   1.0675865e-02   4.8400210e-01   8.5776908e-01   5.8911530e-01  -8.5556479e-01   4.3995761e-01   2.7767752e-01  -6.7787189e-01   2.1933481e-05   5.1593257e-01   4.9958311e-02  -5.2704837e-01   3.6312532e-01   1.5381590e-01  -3.5447793e-01  -7.3587866e-01  -9.7808424e-01   9.7897254e-02   3.5525437e-01   8.8269358e-01   3.6468218e-01  -6.1280249e-01  -8.8331344e-01  -2.2252704e-01   5.4384702e-01   1.8565928e-01   7.9008916e-01   6.2009766e-01   5.5211432e-01  -7.3878934e-01   4.8121571e-02  -6.2468409e-01   2.7073997e-01  -6.9756224e-01  -8.4115179e-01  -2.2294427e-01   5.4906411e-01   6.1740534e-01   9.0136046e-01   6.8154702e-01  -7.3593291e-01   3.4281014e-01  -7.6661809e-02  -1.6828694e-01   4.4965254e-01  -4.0123537e-01  -2.9874122e-01   8.4069220e-01  -4.1644614e-01  -1.9239095e-01   6.2821630e-01  -6.6125061e-01  -7.0791749e-01  -9.9799782e-01   2.3666352e-03  -9.3159190e-02  -3.3415495e-01  -9.2232313e-01  -2.9328356e-01   3.4139065e-01   5.9972257e-01  -8.9301041e-02  -1.7995777e-01  -7.3793125e-01  -5.7717893e-01   8.7637770e-01  -7.4043833e-01  -5.9799409e-01   1.5511755e-01  -2.7439892e-01   1.2145293e-01  -1.0859919e-01  -5.5935271e-01  -1.8227382e-01   7.5123490e-01  -2.9027357e-02  -2.9472786e-01  -8.7091380e-01  -8.0226681e-01   2.7773630e-02   7.1628770e-01  -1.6667931e-01   9.6960898e-01   6.9465235e-01  -1.2186963e-01   2.4503547e-01  -4.6979748e-01   2.2587248e-01  -2.8563144e-01   2.6310324e-01  -8.3953186e-01   5.0879805e-01   4.1509056e-01  -8.4657857e-01   7.6960373e-01   8.1876532e-01  -4.9934038e-01   9.6175129e-01   4.3701371e-01  -4.4793397e-01  -4.1405701e-01  -9.1798295e-02   4.5638345e-01  -9.7129567e-01   6.4502145e-02  -5.1975402e-01  -7.3300501e-01  -5.8374603e-02  -7.3117432e-01  -8.6272678e-03  -2.9220249e-01   7.7598930e-01  -6.4385382e-01   7.0398342e-01   7.9319272e-01   5.8312943e-02  -9.1864266e-01   6.3324884e-01  -6.4814388e-01  -3.7392624e-01   9.4388473e-01  -6.6507382e-01   1.2469356e-01   8.6428435e-01   6.7240876e-01   9.9373518e-01   1.2948605e-01  -3.5530151e-01   3.5410020e-01  -4.6564079e-02  -8.6382206e-01  -5.5407681e-01   9.6553803e-02  -4.1830022e-01   7.3521923e-01  -6.0337186e-01  -9.1077894e-01  -7.3668227e-01  -3.0807587e-01  -4.2914078e-01  -4.8186860e-01   1.0650798e-01   3.3177668e-01   5.3473685e-02  -1.0470704e-01  -7.7959075e-02   5.7778890e-01  -6.7868070e-01   7.1355791e-01  -2.1522789e-01   5.6917973e-02  -1.8068779e-01   3.1682678e-01   4.2652521e-01   9.5527338e-01  -4.7849460e-01   5.5440631e-01  -6.9515717e-01   7.2008454e-01  -3.6034568e-01  -2.7223688e-01   1.2728956e-01  -8.4642762e-01  -6.8316842e-01  -7.4988703e-01   4.5415196e-01   2.6879313e-01   7.7245938e-01   3.8183483e-01   3.3186388e-01   4.7430299e-01   3.4702428e-01   2.3339045e-01   4.6888838e-01  -4.4455202e-01  -3.3631030e-01   9.5799894e-02  -8.9638287e-01   6.7563053e-01   3.4638831e-01  -4.8794817e-03  -1.5223647e-01  -4.6657208e-01  -8.3306921e-01   4.8252027e-01   2.5133484e-01  -3.9120073e-02   3.6381384e-01  -1.2800769e-01  -9.6695322e-01  -7.2446891e-01  -3.4099061e-01   4.0779170e-01  -7.5891504e-01   2.4227436e-01   2.1597215e-01  -6.0742950e-01   4.2372113e-01   4.5349947e-01  -7.4918337e-01  -3.5118536e-01  -9.6668374e-01  -9.0465730e-01  -5.4598553e-01  -1.6542765e-01  -7.6274066e-01   8.4282494e-01  -7.0103230e-01   8.3918624e-01   9.3009377e-01   9.1377434e-01   7.5974337e-01   3.6443758e-01   9.2330271e-01   2.0982718e-01   5.7196956e-01  -9.8229678e-01   7.6590294e-01   8.2332114e-01  -7.2748277e-01   5.1780487e-01   4.3538811e-01  -8.8210740e-01  -1.4168185e-01   2.3750380e-01   8.4667997e-01   7.9671712e-01   1.7775658e-01   4.4487261e-01  -7.4469018e-01   3.1919279e-01   1.0740848e-01   6.7565288e-01  -9.3304590e-01   1.8612704e-01  -8.3339197e-01  -1.2795123e-01   7.0595494e-01   8.7036151e-01  -6.0367705e-01   1.2185053e-01  -5.9425029e-01   1.7286316e-01  -8.8003156e-01  -9.2493500e-01  -7.6559389e-01   8.1597737e-01  -5.3281803e-01  -7.8625323e-01  -6.4896174e-01   6.0445785e-01  -6.1437696e-01  -4.1429050e-01   4.3138092e-01  -1.8527226e-01   1.0713529e-01  -7.8467929e-01   3.9399239e-01  -2.0866912e-01  -5.1157082e-01  -5.0912692e-01   5.6240458e-01  -7.7838662e-01   4.4220171e-01  -3.2444805e-01  -6.8523193e-02  -7.8753356e-01  -2.7790693e-01  -2.3859654e-01  -3.3983692e-02  -7.3778355e-01   3.1764879e-02   2.4011183e-01   8.1454357e-01   5.6902688e-01  -8.3920350e-01  -1.2254840e-01  -4.1130064e-01   3.6661966e-01  -6.1930127e-01  -5.9939167e-01  -3.4519477e-01   6.1960722e-01   5.8199392e-01   2.9080851e-01   9.6958515e-01  -1.2608375e-01  -7.1441963e-01  -3.3491767e-02   1.9177440e-01  -6.4744090e-01  -2.2088689e-01  -4.9820642e-01  -2.3795623e-01  -6.9850794e-01   3.5951377e-01   8.2549332e-01   5.3360202e-02   8.2489955e-01   9.3702523e-02  -3.2027547e-01   8.7445214e-01  -1.2140721e-01   5.4733489e-04   6.1846566e-01   4.1801880e-01   7.9680469e-01   8.0366867e-01   4.1083807e-01  -2.6204976e-01   8.5134780e-01  -3.9241889e-01  -8.0414743e-01  -2.1876242e-01   2.7113876e-01  -8.9660853e-02   9.2672423e-01   8.4451479e-01   3.6617906e-02   1.4112949e-01   9.5294917e-02   9.0943270e-01   7.1824047e-01   7.0778870e-01  -1.9532003e-01  -5.7207513e-01  -2.2365261e-01   6.5991547e-01   6.9139731e-01  -5.0638818e-01  -9.6523422e-01   8.1786315e-01  -4.7038887e-01  -4.1309808e-01  -1.7013968e-01   7.4139022e-01   8.8726817e-01  -9.3727195e-01  -2.5371165e-03   8.4260644e-01  -8.0754029e-01  -3.8044850e-01   6.9045880e-02  -4.8198144e-01  -3.1230179e-01  -6.4909297e-01   4.2445977e-01  -9.9157564e-01   4.3478900e-01   9.2564417e-01   3.0053185e-01  -2.1309304e-01  -5.9037267e-03  -5.0190438e-01  -4.0602400e-01  -9.8952778e-01   1.8472472e-01  -6.6959817e-01   9.1288704e-02  -5.8296390e-01   6.9715331e-01  -7.5361444e-01   7.7525682e-01  -4.0491536e-01   3.7926830e-01   4.3482738e-01   6.7868260e-01  -8.3396382e-02  -7.2270142e-02  -5.9053756e-01  -5.2107022e-01   5.3874701e-01  -3.5929469e-02   1.1700694e-01   8.1927934e-02  -5.4295622e-01  -3.5839949e-01   7.3933003e-01   2.3694341e-01   3.2797657e-01   1.7698584e-01  -4.7300962e-01  -1.7664974e-01   6.5891250e-01  -9.3531560e-01  -3.5013556e-01   6.8082041e-01  -7.5376366e-01   1.2080300e-01   2.4845348e-01  -3.4662688e-01  -6.5236499e-01  -7.9208476e-01   7.1472310e-01   6.9016581e-01   9.2493384e-01  -9.0252805e-01   4.5594302e-01  -8.4366443e-01  -1.5283938e-01   6.7537768e-01   9.7795292e-01  -3.2296985e-01  -8.2549629e-01  -8.2616026e-01   5.7477231e-02  -3.6598932e-01   3.8581914e-01   4.2006271e-02   1.4022617e-01   7.3141422e-01  -8.7521658e-01  -2.5385438e-01   4.1197493e-01   3.4711704e-01   5.8105481e-01   6.4116067e-01  -4.9988855e-01  -4.7586381e-01  -7.3166090e-01  -3.3199625e-01  -4.6298504e-01   3.8505157e-01  -2.2257564e-02   7.7624203e-01   4.7435076e-01  -1.6975100e-01  -3.3913452e-01  -8.4964612e-01   6.1006185e-01   2.2442389e-01  -3.8920650e-01   9.0048935e-01  -9.3026888e-01   1.9354274e-01   9.1662876e-01  -3.4510400e-01  -4.6665372e-01  -3.0749276e-02   6.4134097e-01  -3.1039667e-01  -4.3765842e-01  -8.9527710e-01  -2.1857411e-02  -1.6063537e-01   6.6170440e-01   3.2356901e-01   1.7009281e-01   9.0719817e-01   7.8978239e-01   9.0471358e-02  -1.7460243e-01   6.2494644e-01   1.1490278e-01  -8.3568096e-01   9.0932489e-01   8.3243489e-01  -8.5411908e-02   8.6614843e-01   7.2624760e-01  -8.7079566e-01  -9.2946364e-01  -1.6367441e-01   5.9208742e-01  -7.8511191e-01   1.1941641e-01   3.4617550e-01   6.6863294e-01  -9.2909144e-01   8.3388863e-01  -8.6135514e-01  -1.5377233e-01  -7.2346962e-01   5.7518197e-01  -7.3578182e-01  -5.2744671e-01   1.9982454e-02  -9.6458919e-01  -8.0249422e-01  -2.5775998e-01   8.6349287e-01   2.4281130e-01  -8.0506464e-01  -8.0181363e-01   1.3233760e-01  -3.8099611e-01   4.4854064e-01   6.6842519e-01   8.5467991e-01  -5.2437277e-01  -3.4192405e-01   6.3147538e-01  -3.5561908e-01  -6.0918218e-01  -5.1427011e-01  -4.4894014e-01   5.6395829e-01  -9.0357865e-01  -6.4494667e-01   2.9526993e-01   6.2856171e-01   6.4829102e-01   9.1191452e-01   6.0585839e-01   3.9284448e-01   8.6222865e-01  -2.9219582e-02  -5.8593450e-01   2.9529651e-01  -7.4315492e-01  -1.4958054e-01  -8.7048499e-01  -2.2837237e-01  -5.9640190e-01  -7.1654905e-01   5.9904454e-01  -4.0649850e-02  -3.9721271e-01   1.4438383e-01  -3.0517990e-01  -5.1738100e-01  -4.8855126e-02   6.1998394e-01   9.4088470e-01   5.5539354e-02  -2.2355078e-01  -3.1072597e-01   3.1996320e-02   6.0375288e-01  -3.5642365e-02   2.1122458e-01  -4.4257567e-01   5.5982545e-01  -5.1304037e-01   8.6012486e-01  -4.1011234e-02   1.8498723e-01   5.7586579e-01   7.6219941e-01   9.1259539e-02  -8.5958292e-01   3.7154655e-01  -7.8478014e-01   5.9995930e-01  -4.1129534e-01   4.9353916e-01  -6.7612707e-01   7.6979139e-01  -1.8282270e-02   4.3510926e-02   3.6464693e-01  -1.0655498e-01   8.9957291e-01  -7.3916772e-01  -7.4289011e-01   8.6524544e-01   6.1881861e-01   3.5994412e-01  -2.7215225e-01   7.7202927e-01   2.9939920e-01  -3.3671819e-01  -9.3369727e-01  -3.1549824e-02   4.5090625e-01  -8.2107099e-01   2.6687397e-01  -5.7772649e-01  -5.3583056e-01  -5.0307432e-01  -1.2520214e-01   7.6081271e-01  -3.6121059e-01   6.5736090e-01  -3.5408850e-02  -7.8683995e-01   4.0524261e-01  -9.5647176e-01   6.2244509e-01   9.9429801e-01  -7.8673770e-01   5.0815767e-01   4.4339208e-01  -1.1372124e-01   7.3525417e-01  -6.9174374e-01   8.8502993e-01  -4.5189208e-01   8.2421465e-01  -8.7034141e-01  -5.1472780e-05   8.2477108e-01  -5.2643544e-01  -2.7659808e-01   8.6541153e-01  -8.4646948e-01   1.5915362e-01  -9.4350027e-01  -1.4952124e-01   8.3988199e-01   7.7568766e-01  -7.3084101e-01  -4.2375711e-01  -1.6427902e-01   5.7995980e-01   6.7542340e-01  -2.6406503e-01   5.7411452e-01  -4.8184785e-01  -7.1870516e-01  -8.4563904e-01   7.1503545e-01   3.0222888e-01   9.6536221e-02   4.9671985e-01  -3.5452814e-01   8.8470570e-01   2.4113605e-01  -3.5430587e-01  -2.6143928e-02  -5.0483686e-01   1.2156455e-01  -3.1191674e-01  -6.4226108e-01   5.7176978e-01  -2.6457983e-01   9.6821300e-01   4.2945665e-01  -5.2378352e-01   8.4235047e-01  -7.0921075e-01  -7.4519445e-01  -2.8544767e-01   6.1297254e-01   6.0912745e-01   8.8844142e-01  -9.4901441e-01   2.0993414e-01  -8.2073275e-01   2.5994044e-01  -9.0075581e-01
   2.8862689e-01  -2.1402683e-02  -7.0979780e-01   7.7651997e-01  -8.0672456e-01  -4.6809190e-01   6.8020880e-01   4.6736543e-01  -6.6202518e-01  -3.2449827e-02   8.1067461e-01  -7.5220444e-01  -7.7181512e-01  -3.8786465e-01   8.8272333e-01  -1.2881302e-01   9.9467740e-01  -2.4170368e-01   2.9530904e-01  -7.0592928e-01   4.7197857e-01   4.0831907e-01   4.7549243e-01  -6.8158843e-01   1.2154332e-02  -4.0297206e-01   5.4023090e-01   1.0440381e-01  -8.8394492e-02  -5.9837121e-01  -9.1352312e-01  -1.7563854e-01  -1.2820245e-01   2.9209089e-01  -4.7032239e-01  -1.7986234e-01  -4.4587372e-01   2.6786305e-01  -7.7376301e-01   4.4785811e-01   2.3085517e-01  -4.3807343e-01   9.0377898e-01  -3.0607599e-01  -9.1461190e-01   1.7429329e-01  -5.1596763e-01   4.6365701e-01   9.2185916e-01  -1.3289464e-01  -3.4855330e-01  -7.3808997e-01  -8.4746924e-01   9.5719608e-01  -2.7550980e-01   5.6195601e-01   3.9106146e-01  -6.1577591e-01  -9.3833181e-01  -8.1713782e-02  -6.0540611e-01   2.0815201e-01   2.0804300e-01  -4.0977996e-01  -2.1039862e-02  -8.1269465e-01   8.8285405e-02  -1.1126626e-02   3.6467163e-01   1.3386284e-02   9.1204932e-01  -4.7417272e-01   9.6996733e-01  -1.4481920e-01   5.4226784e-01   8.4140886e-02  -9.8883287e-01  -6.6719039e-01   8.2568022e-01  -6.8200213e-01   3.0447506e-01   6.0928341e-01   3.6260780e-02   5.6311233e-01  -1.9771675e-01  -5.5786911e-01  -5.2830359e-01   5.3988225e-02  -8.1447781e-01   9.6851841e-01   5.6941688e-01   4.0692172e-01  -8.3361788e-01   6.1449203e-01   5.1190131e-01  -9.9086570e-01   8.4429703e-01   5.7348423e-01   4.8993594e-01  -1.1278090e-01  -3.3818987e-01   6.6569902e-01   4.1269558e-01   5.4801637e-01   7.1982714e-01   1.3940196e-01  -6.9467807e-01   4.5449639e-01   8.8790417e-02   9.4350930e-02  -7.7727072e-01  -9.8888265e-01   2.3665210e-01   4.7981932e-01   6.4906105e-01   4.5889699e-01   6.4326632e-01  -6.0004145e-01  -3.1869036e-02  -1.7414222e-01  -5.5224745e-01  -6.6869376e-02   7.2404150e-01   4.5010138e-01   3.9987033e-01  -1.5985134e-01   1.1090738e-01  -2.4530847e-01  -9.2276614e-02  -4.3543624e-01  -2.2600651e-01  -4.0276199e-01  -2.3720499e-01  -1.3153680e-01  -8.5002071e-01   8.7002098e-02  -4.6460408e-02   3.5402541e-01  -1.5751030e-01  -6.1881022e-01  -9.8139778e-01  -6.2011740e-01  -9.1635234e-01  -8.0517710e-01   7.5125605e-02   1.6995783e-01   9.6420291e-01   2.8615007e-01   6.7434494e-01   9.6864867e-02  -6.5178760e-01  -9.4729115e-01  -5.7189561e-02  -3.3385442e-01   7.5532076e-01   2.8642121e-01   2.4192658e-01  -3.5234530e-01   1.9677958e-01  -5.2804784e-01  -8.6028836e-01   7.0261629e-02   1.2723646e-01  -1.3668151e-03   9.1793888e-01  -5.6197217e-01   4.4606780e-01   5.8592999e-01  -8.1621960e-01   6.8885148e-01   2.6538665e-01  -1.5794557e-01   5.0428122e-01  -3.4279781e-01  -9.9851486e-01   4.9762757e-01  -8.5717814e-01  -6.7214925e-01   7.4475333e-01   1.4273096e-01  -6.7625314e-01   5.1321824e-02   6.4411190e-01   6.0273059e-01   5.4679219e-01  -8.8300658e-01   5.0115591e-01   8.3158346e-01  -4.3862308e-01  -4.5297369e-01  -3.9954516e-01  -2.2718840e-01  -1.0175101e-01  -1.6839823e-01   2.0945184e-01  -6.8055512e-02  -7.5590918e-01   5.5869046e-01  -4.9296863e-01   5.3606268e-01  -6.8774204e-01  -3.7411663e-01  -9.6281493e-01   1.5264645e-01  -6.8967060e-01   1.9008391e-01  -4.1696253e-01   1.9998432e-01   6.3145114e-01  -2.4016306e-01   3.2842163e-02  -9.0406521e-01   4.5377261e-01   4.7084998e-01   1.4953002e-01   6.9844012e-01   1.9811112e-01  -2.8087983e-01  -1.5501707e-01   4.6673717e-01   4.4386651e-01  -4.1330110e-01  -6.8339778e-02  -9.3546814e-01   6.4565451e-01  -1.1608895e-01  -7.3954197e-01  -6.6018330e-01  -4.3613025e-01   4.4190856e-01   8.1846674e-01  -4.7833823e-01   7.1045059e-02  -8.2513404e-01  -8.5713441e-01  -2.6718189e-01   2.8808976e-01   6.2356809e-01  -5.3523554e-02   6.0750666e-01   5.6881541e-01   3.4033263e-01   8.8210511e-01   2.4389309e-01  -6.5930640e-01  -3.7450215e-01  -4.9476905e-01  -5.4474959e-01   3.0067656e-01   5.3139686e-01   5.4193731e-03   9.5033064e-01  -5.4462852e-01  -3.9578598e-01  -6.5297286e-01   6.2967964e-01   3.7551461e-01  -4.5647748e-01  -8.2803565e-01  -5.2629199e-01   6.2248482e-01  -8.2453748e-01   1.3088401e-01   6.1016416e-01   9.0734794e-01   2.8439303e-01  -8.2057479e-02  -2.4839413e-01  -5.6768417e-01  -5.0354051e-01   6.0960172e-01   6.1271883e-01   5.7891975e-01   3.2544169e-01   4.2722836e-01  -6.7188809e-01  -8.3003266e-01   9.5655123e-01   8.2752694e-01   6.9638036e-01   4.9845348e-01   5.6232578e-01   6.2915973e-01  -8.1631679e-02  -7.6684677e-01   3.3196607e-01   2.4520285e-01  -3.1181423e-01  -4.0974122e-01  -6.4412708e-01   4.1033933e-01   9.1236103e-01  -1.4400838e-01  -7.5421710e-01  -5.3500723e-01  -6.1055603e-01   8.5841006e-01  -6.8748609e-01   5.8731798e-02   1.5234164e-01  -8.8519338e-01   4.5769352e-01  -6.4545783e-01  -7.1747793e-01  -6.6250634e-01   8.1202745e-01  -8.8681762e-01   1.9808783e-01  -8.8391006e-01  -7.1062273e-01   8.3353564e-01   8.5617036e-01  -4.2869638e-01   7.9494756e-01   6.0097061e-01   1.0563810e-01   3.9160876e-01   4.5885423e-01  -8.5125446e-01  -1.4028875e-01   4.1825619e-01   9.6560393e-02  -3.3252229e-01  -8.1257407e-01  -6.7079834e-01   4.7040745e-01  -2.4221457e-02   4.1025860e-01   6.8785638e-02  -6.9820537e-01  -6.1497836e-01  -1.1792452e-01  -1.3207694e-01   7.3356828e-01  -6.8290471e-01   1.6872300e-01  -1.3826751e-01   4.7465180e-01   4.2251787e-01  -7.6203185e-02   4.3608116e-01   8.9003875e-01   3.2782799e-01  -3.6901702e-01  -3.4700157e-01   3.7085745e-01   3.9705178e-02  -1.2703033e-01  -6.4582414e-01   3.0733570e-01  -3.4044520e-03   3.7346926e-01   7.2157396e-01  -3.1665989e-01  -3.5694303e-01   3.3971462e-01   7.4823608e-01   3.7402564e-01  -4.6827972e-01  -5.9164947e-01  -4.6970491e-02  -8.1120542e-01   5.7141534e-01   1.1661328e-01  -3.2813661e-01   1.2818860e-01  -6.8115171e-01  -4.8595422e-01  -6.9646326e-01   7.8805551e-01  -7.1619978e-01   6.6501694e-01  -7.8193240e-01   5.4329272e-01  -3.9479518e-01  -9.9325244e-01   3.9728955e-01   2.8405455e-01  -2.7929132e-01   5.5993013e-01   8.7745839e-01   7.2755355e-01  -5.5554488e-01  -5.6446978e-01  -8.0716097e-01  -3.3569465e-01   2.2078382e-01   3.6081412e-02   4.6107297e-02  -3.5955191e-02   7.7065273e-01   3.5789420e-02   6.3566027e-01   5.1408229e-01  -8.6778903e-01   3.0004505e-01  -1.6070922e-01   8.1803025e-02  -5.3824146e-01  -9.4540556e-01  -7.6602171e-01   3.5973583e-01   2.6884582e-01   3.5934900e-01   4.8326058e-01  -9.9818465e-01  -7.2897822e-02  -7.5219795e-01   8.6535059e-01   9.7185072e-01   2.2278025e-01  -1.9537435e-01  -7.4083705e-01   7.1878217e-02   3.5049669e-01  -7.8643926e-01   4.0053163e-01  -1.3415063e-01   9.6002660e-01   6.1984551e-01   5.4812327e-01  -9.5194137e-01  -2.9663559e-01  -5.8252936e-01   3.8400995e-01   7.0024872e-01  -4.8798586e-01   1.9992069e-02  -2.3954182e-01  -6.0415385e-01  -7.5447650e-01  -7.0118702e-01   2.1264684e-01  -1.1372288e-01   3.2218498e-01   6.2455617e-01   9.0734885e-01  -5.9286730e-01   5.5128265e-01  -9.3956110e-01   2.9821321e-01  -4.1360003e-01  -2.1070099e-01  -9.8466162e-01   3.1549362e-01  -7.3898736e-01  -4.4255402e-01   8.4184857e-02   9.4498960e-01   9.3830512e-01   9.1927172e-01  -7.5078875e-01  -6.0911345e-01  -6.3094433e-01   4.2459379e-01  -2.6822814e-01   7.5699519e-01  -8.3204200e-01  -9.8764310e-01   5.0427353e-02  -8.6617157e-01   4.3315894e-01  -4.4565926e-01   3.0688213e-01   3.7789966e-01  -1.1860665e-01  -5.8116267e-01   6.0541932e-02  -4.8973897e-01   1.4678304e-01  -6.7127935e-01   3.8993070e-01   8.8296885e-01  -8.4013287e-01   5.6700578e-01  -6.3013030e-02   2.9069544e-02   8.0280931e-01   6.4462215e-01  -3.5112096e-01  -8.0790601e-01  -2.6223017e-01  -7.0554188e-01  -4.0970087e-01   7.1538696e-01   4.3749853e-01   1.7174157e-01   5.3955895e-01   2.9660857e-01  -4.8923437e-01   2.7536675e-01   4.6298594e-01  -8.8634588e-01   8.9809312e-01   7.3623118e-01  -4.7098127e-01   5.4953861e-02   3.2763163e-01  -5.8911452e-01  -7.2656344e-01   2.2563437e-01  -9.6025616e-02  -1.1772500e-01  -7.6271946e-01   7.0655091e-02  -9.7322756e-01   6.7285901e-01   7.3741879e-01   9.3641385e-01   6.1223478e-01  -6.8629325e-01   4.0484431e-01  -5.2384900e-01  -3.5308488e-01   1.8381991e-01  -7.8703075e-01  -6.4746594e-01   8.4570690e-01  -6.6292034e-02  -7.9249038e-02  -7.4091655e-01  -7.8793387e-01   1.5853012e-01   8.4646372e-01  -1.0343779e-01  -3.7118302e-01   2.6999669e-01   4.2435511e-01  -8.4549341e-01  -5.1698250e-01   4.6638936e-01  -1.7778952e-01  -6.7201916e-01   4.3485559e-01  -5.5565070e-01   5.2055941e-01  -9.8288007e-01   8.0595575e-01   8.0238056e-01   6.9064236e-01   2.9839882e-02   9.6313401e-01  -8.9926006e-01  -7.8016597e-01   2.3251765e-01  -2.3089279e-01  -9.1712901e-01   2.1001090e-01   2.0028282e-01   1.5804506e-01   2.4887890e-01   1.9274548e-01  -6.6170210e-01  -1.6916171e-02  -4.1668912e-01  -7.7524372e-01   8.1840433e-02  -8.7354000e-01   5.8233534e-01  -8.4035947e-01   1.4889773e-01   7.0530243e-01   9.2906532e-01   3.9397828e-01   3.8876360e-01  -1.9285823e-01  -6.0054989e-02   8.4624455e-01   8.4876917e-01   2.9194485e-01  -8.5736311e-01   7.0153725e-01  -8.7406843e-01   8.3716701e-01   7.6502157e-01   2.8175108e-01  -8.3949465e-01  -1.0475593e-01   5.6831387e-01  -5.0364797e-01   6.5541817e-01   5.9338924e-01   7.0576639e-01   1.4478554e-01   6.3627184e-01   1.1593733e-01   8.6212610e-01  -2.8239160e-02   5.0938762e-01   6.4701540e-01   9.4451351e-01   1.3469766e-01  -5.1018503e-01  -5.6835007e-01   5.2187774e-01   9.4788049e-01   9.4482272e-01  -9.9769178e-01   2.1120789e-01  -9.6033300e-01  -8.7404448e-01   9.6481552e-01  -1.5650999e-01   7.8364023e-01  -4.9873858e-01  -4.4673870e-01  -1.1217741e-01  -8.5917148e-01  -2.7857907e-01  -2.2753775e-01   2.3371390e-01   5.4536821e-01   7.4246998e-01   4.7205087e-01   3.0585053e-01   7.7009935e-01  -2.7683170e-01   2.3026571e-01  -8.0325419e-01  -1.9055528e-01   9.8694100e-01  -1.3412224e-01   1.1009201e-01   7.1462161e-01   6.8679296e-01  -7.2280668e-01  -5.1162757e-01   8.7961061e-01   6.9381298e-01  -8.1253270e-02   3.3964466e-01   7.9302400e-01   6.7671221e-01  -5.1829753e-02   6.1865274e-02  -9.3410695e-01   6.7985009e-01  -7.6297875e-01  -6.5249958e-01  -1.0671879e-01  -7.7732723e-03  -9.0681779e-01   5.5128470e-02   6.7889747e-01   9.3850700e-01   5.9646594e-01   2.2052566e-01   2.8045165e-01   9.5691718e-01   3.9084740e-01   9.6334725e-01  -3.8359519e-01  -7.8491851e-02  -8.2243845e-02  -4.6049677e-01   4.8653387e-01  -2.1343150e-01  -6.8448482e-01   5.8986792e-01   6.2777327e-01   4.5779352e-01   8.2308593e-01  -1.6650864e-01   3.2125823e-01  -9.9820917e-01  -8.2942661e-01   8.8786425e-01   3.8100066e-01   1.9460555e-01   2.8221805e-01  -1.4174076e-02   1.5010588e-01   7.7967331e-01   3.9064507e-01   6.3406030e-01   5.0943928e-01   9.7369444e-01  -3.3005592e-01   7.4870947e-01   7.1889566e-01  -2.2617614e-01  -4.5176992e-01   6.2176235e-01   3.2405362e-01   7.3479071e-01   6.4844844e-01  -9.5302395e-01  -6.0611311e-01  -6.6906194e-01   8.6957512e-01  -7.4303351e-01   5.3388121e-01  -7.2180708e-01  -2.7466667e-01   5.1332985e-01   8.4258541e-01  -7.5364782e-01   4.9460582e-01  -8.9362332e-03   7.8829107e-01  -5.8658931e-01   7.1700348e-01  -3.2238056e-01   9.0292693e-01  -7.7470691e-01   1.0143242e-01   7.9207323e-01  -7.2760000e-01   2.9768490e-01   6.4342441e-01   9.1278643e-01   1.2257727e-01  -7.5643956e-01  -3.3676174e-01   2.9021344e-01   9.0813008e-02   4.1798399e-01   4.9281280e-01   9.4487862e-01  -5.0990788e-01  -5.7659193e-01   8.6598653e-01  -4.9397332e-01  -3.5311549e-01  -4.3293047e-01  -1.0836385e-01   5.2193575e-01  -9.2453339e-01   3.3183168e-01  -9.6679569e-01   7.4367832e-01  -6.3813681e-01  -7.5429707e-01  -1.4573356e-01   3.0636138e-01   2.3099660e-01  -8.6176186e-01  -9.9834034e-01   3.1323069e-01  -9.3498592e-01   3.3883221e-01   6.7563292e-02   8.8130452e-01   2.3336889e-01  -8.5939917e-01  -7.3621455e-01   2.1438237e-01   1.3946976e-01  -3.4882033e-01   6.9793413e-01  -6.3565441e-01  -9.9948613e-01  -3.0240103e-01  -9.3556734e-01   8.5044640e-01   6.1991513e-01   1.7846735e-01  -9.4934433e-01   3.7669791e-02   3.6399912e-02  -5.2378330e-01  -8.8726527e-02  -8.8618943e-01  -6.5133978e-01   8.3063555e-01   9.5264958e-01  -9.5014103e-01  -5.2636193e-01  -4.0346103e-01  -7.9382580e-01  -2.1300353e-01  -5.8586117e-01  -6.8017775e-01   3.2551990e-01  -8.4098908e-01   8.9725321e-01  -4.1315224e-01   9.0557501e-01   9.4989063e-01  -5.2364426e-01  -2.5223253e-01  -4.3635256e-01  -1.8331019e-01   7.0176587e-01  -1.2806556e-01  -6.9505899e-01   6.1476720e-01  -3.8929582e-01   5.3403426e-01  -7.7500595e-01  -6.7242059e-01  -8.1912593e-01   6.0217987e-01  -4.2199656e-01   9.8271355e-01   6.6186955e-01   5.3540664e-01   4.3247997e-01  -1.6481692e-01  -8.6220052e-01   9.2928716e-01   1.4607920e-01   9.2503929e-01   6.8595104e-01   7.6886228e-01   4.7679613e-01  -2.4300448e-01  -5.9897927e-01   1.4760873e-02  -4.7476219e-01   2.4472857e-01   7.3635796e-01   8.7025893e-01  -1.6254867e-01   4.9339259e-02   3.9078311e-02   9.5764445e-01  -8.6155149e-01   1.3327218e-01   7.3677209e-01  -6.3337483e-01  -4.8069622e-01  -4.5203445e-01   7.3267118e-01  -2.5993196e-01  -1.6522327e-01   1.7050377e-03   5.2459584e-01  -2.4234286e-01   2.1797686e-03  -5.9074485e-01   4.8134297e-01   9.5680733e-01   6.5534501e-01  -4.0854566e-01   8.8871854e-01   4.6660409e-01  -4.8102943e-01   2.1237442e-01   1.3814127e-01  -3.3894055e-01   6.2779321e-01   7.0379446e-01   8.9806329e-01  -9.6383330e-01   1.6686407e-01   6.6370637e-01  -2.1249542e-01   8.6902169e-01  -7.9643384e-01  -6.0379956e-02  -8.6578855e-01  -9.2403129e-01   1.9630431e-01   5.0929913e-01  -3.0606524e-01   7.1023730e-02   5.1820547e-01   4.0179138e-01   3.3778691e-01   2.6168936e-01  -3.1691814e-02  -8.0698508e-01   1.0404380e-01  -9.5971562e-01   8.2263888e-01   6.1701812e-01  -8.6010887e-01   7.7622277e-01  -5.5792683e-01   6.1325115e-01   6.2827248e-01   9.8460024e-01   1.8448843e-01  -8.1885746e-01  -1.9554055e-01   3.9416830e-01  -5.9200561e-01   8.8713507e-01  -1.0443110e-01   5.4033323e-01  -9.5334866e-01  -5.8816437e-01   4.1054333e-01  -8.6910899e-01   1.3938044e-01  -6.4352608e-01  -5.6323048e-01   2.9378859e-01  -5.7778984e-01   1.4185583e-01  -8.6768776e-02  -6.2812956e-01  -5.2742517e-01   9.2320981e-01  -8.6126159e-01   2.4785235e-01   7.4781326e-01  -3.3935625e-01   9.8043628e-01  -4.0879375e-01  -2.0739741e-01  -9.5824034e-01  -2.9488388e-01   1.6218603e-01   5.8516907e-01   8.6333018e-01  -7.5382166e-01  -6.5566172e-01   5.4753160e-01  -5.2719483e-01   9.5554149e-01   3.3649837e-01   8.6767152e-01   2.2430509e-01  -4.2549899e-01   4.5177251e-01   8.7496347e-01  -6.3512135e-01   7.0458099e-01  -2.3127773e-01  -8.2882699e-01   6.8818394e-01  -3.2870501e-01  -8.3302992e-01  -9.0978689e-01   3.4923447e-01   2.4500350e-01   2.8515027e-01   3.5991631e-01   8.1873282e-01  -9.8325865e-01  -9.8889934e-01  -2.8261297e-01   7.9412266e-01  -5.3830157e-01  -4.7156834e-01   9.0417659e-01   5.6537135e-02   4.0758190e-01   1.7827089e-01   6.4806057e-01   7.4632274e-01  -1.1175743e-01  -3.1002025e-01   3.5432996e-01  -7.6247828e-01  -7.8689220e-01  -3.2809390e-01   6.7847031e-02  -3.3778999e-01  -1.1247264e-01  -2.3060469e-01  -1.3665702e-01  -1.2103196e-01  -5.9286898e-01  -6.4725045e-02  -2.7647583e-01  -8.2998592e-01  -3.6347525e-01  -4.8134290e-01  -8.8148529e-01   8.5615796e-01  -5.5657203e-01  -2.4177368e-01  -2.0927995e-01   8.3185930e-01  -2.0177620e-01  -5.2673559e-01  -2.4877781e-01   1.5062663e-01   8.9564497e-01  -5.2848768e-01   1.7973208e-01   6.2836477e-01  -9.8531709e-01   8.5640822e-01  -9.3723226e-02   2.4282296e-03   5.4614087e-01   7.0007159e-01  -5.2494749e-01  -5.9650085e-01   9.0207448e-01   2.6740027e-01  -4.7000442e-01   5.7329644e-01  -3.0993599e-02  -2.0150306e-01   5.0763683e-01  -2.2163315e-01  -1.5879227e-01  -2.1286113e-01  -7.1783470e-01   1.5004129e-01   4.6174711e-01   7.8869439e-01  -5.8010407e-01   5.8920995e-01   1.4547143e-01
