   2.0835597e-01  -9.2514446e-01  -2.7369862e-01  -2.9438364e-01  -4.8443591e-01  -5.6711987e-01  -7.4270614e-01   3.8090939e-01  -9.0247271e-01  -8.7297232e-01   3.4542722e-01  -8.3306943e-01   1.9396377e-01   5.1215658e-01   7.6553462e-01  -2.9973883e-01   8.7895749e-01  -3.4419176e-01  -8.6112619e-01   7.1319498e-01   5.2380187e-01  -5.0297246e-01   8.0672624e-01   1.6415807e-01  -8.9223740e-01  -3.7106090e-01   4.9296028e-01  -1.2640660e-02   3.3060628e-01   9.5491243e-01   3.9214839e-01   5.8421686e-01   4.2606605e-01  -3.1078298e-01  -6.6817947e-01   9.4365858e-01   6.3429475e-01  -8.4130439e-01  -6.0655991e-01   3.0007483e-01   5.3090199e-01   9.8548707e-01   8.4517085e-01  -8.7291717e-01  -2.5499787e-01   8.1012825e-01   5.8122292e-01   7.4421364e-01  -3.1088252e-01  -8.4824152e-01   8.9811097e-01  -3.6156905e-01  -1.7139005e-02   1.7315272e-01  -1.8259057e-02   6.9710288e-01  -4.1218137e-01  -2.2674310e-01   8.9812861e-02  -3.3838073e-01  -6.0477093e-01  -6.8339194e-01  -4.7386864e-01  -2.4077326e-01   1.3527130e-02   2.0418418e-01  -7.7322275e-01  -8.5589000e-01   7.8041234e-01   8.7677258e-01  -4.1980978e-01   7.2455045e-01  -2.8535113e-02   5.6713175e-01   2.2950837e-01  -8.2820165e-01   3.6130865e-01  -4.6667567e-01   7.1991299e-01   3.7903224e-01   4.8733879e-01   6.6741256e-01  -7.1453083e-01  -4.0210454e-01   3.4387267e-01   2.9890700e-01   5.6660058e-01  -2.1262391e-01   7.8379120e-02  -9.8538439e-01   6.7728831e-01   8.6844044e-01  -1.5313045e-01   4.2134245e-01   8.5508114e-01   5.1192879e-01  -3.8642033e-01   6.8855924e-01   4.1233632e-01   5.8799463e-01  -1.9774104e-01   2.6031389e-01  -2.9077784e-01   1.1464663e-01   9.2190715e-01   7.9198257e-01   2.7833242e-01  -8.7496346e-01  -7.9778935e-01  -5.3140014e-02   8.9294460e-01  -9.6190398e-01   4.8085106e-01   7.5050053e-01   1.6765342e-01  -7.3481282e-01  -6.0089004e-01  -3.8732435e-01   1.0395867e-01   5.5223362e-01   9.7943962e-01   2.2092069e-01  -6.3879303e-01   2.3814392e-01   8.2514374e-02  -2.0145043e-01   7.8835576e-01  -6.5593990e-01   4.0134148e-01  -4.6609857e-01   8.5932532e-01   3.2149221e-01   2.5567293e-01  -8.9031058e-01  -8.4610253e-01  -3.2166327e-01   1.2771485e-01   8.1655119e-01  -8.2732531e-01   4.9743727e-01  -1.3826798e-01  -5.5464849e-01  -1.3688928e-01  -6.6115441e-02  -6.2169720e-02   1.1126885e-01  -5.6978614e-01  -2.2831180e-01   7.0516809e-01  -4.3880785e-01  -7.8417213e-01   5.6795780e-01   2.7420427e-01  -4.5613733e-01  -5.2988842e-01  -7.1166300e-01   1.7699563e-03  -6.0794033e-01  -7.3220828e-01  -4.0344425e-01   2.3080990e-01   4.7908213e-01   8.1554344e-01   2.0866843e-01   9.2407069e-01   7.3265538e-01  -1.7388642e-01  -1.4784712e-01  -6.4203293e-01   1.0765077e-01  -2.8442129e-01   2.6361414e-01   8.4928991e-01   1.2358269e-01  -2.1863664e-02  -5.2350590e-01  -8.7089461e-01   6.0993323e-01  -8.8365513e-01   9.7595974e-01   6.6264792e-01  -4.9073469e-01   5.2618979e-01   8.1451322e-01  -8.9568191e-01   7.1395560e-01  -1.2843624e-01  -6.6561221e-02  -1.6947136e-02   1.5760309e-01  -4.4015137e-01  -6.5269330e-02  -9.2652101e-01   4.7141522e-01  -5.7260470e-01   3.7394182e-02   9.5749882e-01  -1.3768568e-01  -8.3518752e-02   4.9248016e-01  -6.8774708e-01  -1.6175531e-01  -6.6869470e-01  -2.7677033e-01   1.5717963e-01   8.8873400e-01   6.6716195e-01  -1.3052278e-02  -8.9443494e-01   9.4732411e-04   6.5783812e-01   4.0590565e-01   2.7591780e-01   8.9201698e-02   4.9941619e-03  -8.6326426e-01  -9.2385140e-01  -5.9341007e-01   8.2754392e-01  -8.1749717e-01   1.0595473e-01   1.1980050e-01  -3.2306910e-01   2.7303268e-01   9.0500519e-01   1.1527165e-01  -8.9501762e-01  -2.7737474e-01   8.7004670e-01   1.4136290e-01  -8.8263604e-02  -5.2752690e-03  -8.2405947e-01   7.7379585e-01  -5.2547894e-01   7.9663547e-01  -2.0323510e-01  -4.3462434e-01   2.4490640e-01   3.1897526e-01  -5.7035250e-01   6.9218724e-01   4.4102635e-01   5.7153420e-01  -3.6313595e-01   3.8120335e-01   9.8785519e-01  -2.2850812e-01   6.7370081e-01   7.9961622e-01  -8.5840595e-01  -7.9342241e-01   3.8919303e-02   5.2655799e-01  -2.5697401e-01  -3.6274267e-01   8.1640286e-01   6.9981932e-01  -3.8383556e-01  -8.5983996e-01   3.7221790e-01  -6.4335279e-01  -8.9832467e-01   8.4408364e-01   7.3503872e-01   9.1994308e-01  -1.6463298e-02  -7.3888907e-01  -5.6726647e-01   8.8058153e-01  -8.2525599e-01  -7.0454922e-01  -4.5757497e-01  -7.0374773e-01  -3.9049962e-01   2.1495944e-01   8.5299552e-01  -3.4250464e-02  -2.3679146e-01   2.1939778e-01   7.4009820e-01   5.1903029e-01  -1.1177909e-01   2.3324956e-01   9.6956877e-01  -5.1239561e-01   5.7438844e-01   3.1180287e-01   5.1877676e-01   7.9177011e-01   7.7352539e-01  -4.7574563e-01  -5.9207074e-01  -2.7556977e-02  -8.8436751e-01  -3.2008770e-01  -2.5532734e-01  -7.1667912e-01   1.3449492e-01  -4.8032176e-03  -9.7708401e-01   8.0559599e-01  -4.7455360e-01   4.8976200e-02  -6.3015079e-01  -8.9949486e-01  -4.1827807e-01   6.2773078e-05  -7.4821913e-01  -7.1537352e-01   3.6705883e-01   5.9444205e-01   7.6554735e-01  -5.5090839e-01   5.1147674e-01  -5.4061246e-01   2.2004920e-01   7.3981973e-02  -2.6460296e-01   2.1408837e-01  -2.4627789e-01  -1.4920542e-01   4.9544657e-01   4.3511366e-01  -8.5996631e-01  -2.3570474e-01  -6.0229291e-01  -1.3361766e-01   4.8136913e-01   3.8372536e-01   6.8423088e-02  -3.1307961e-01  -5.5647140e-01   9.3341485e-01   3.0502628e-01   6.5349436e-01   3.4343602e-01  -4.0397496e-01  -9.1383308e-01  -7.8557742e-01   8.0440964e-01   4.4382583e-01   1.8457303e-01   2.2755009e-02   7.2634138e-01  -6.6630029e-01   9.7391001e-01   5.2717005e-01  -7.1159419e-01   1.8980872e-01   9.1245311e-01  -4.9425299e-02  -3.1368269e-01  -8.5147695e-01   4.4738484e-01   3.9175597e-01   1.1557534e-01   3.6601318e-01   4.3908422e-01  -4.1124590e-02   2.0492984e-01  -4.6302546e-02  -7.1633024e-01   9.6851050e-01  -5.4730134e-01  -7.2525083e-01  -6.3537510e-03  -8.1128976e-01   1.1963292e-01   3.1861351e-01  -9.0020268e-01   7.3049949e-01  -7.9304507e-01   1.2154703e-01   5.8699620e-01  -5.3944709e-01   5.7291287e-01  -9.1471314e-01  -8.2028933e-01  -8.7796991e-01  -7.7035883e-01  -5.6177671e-01  -7.2328724e-01  -6.8725709e-01  -9.4264940e-03  -5.0621954e-01   7.0483237e-01   4.3233142e-01  -2.9520185e-01   3.0580555e-01  -9.7504762e-01  -1.9746196e-01   8.7895529e-01   1.8594007e-01  -3.2368000e-01  -8.9070554e-01   3.1522032e-01  -5.8273057e-01   2.9144000e-01  -7.2518364e-01  -4.2225918e-01  -3.2596200e-02  -3.9222296e-01   5.6546744e-01   4.8872890e-01  -5.0131350e-01   7.9720741e-01  -9.0355890e-01   1.5891068e-02  -7.0137441e-01  -8.9485949e-01  -6.5785191e-01  -1.6443797e-01   8.2613946e-01  -3.4290008e-02  -2.0066675e-01  -3.3082950e-01  -6.3527450e-01   1.1254778e-01  -6.9454103e-03   3.8010946e-01   5.2171470e-01  -4.9292825e-01   3.4295604e-01  -3.4728394e-02  -7.1690446e-01  -5.4636085e-01   3.7011002e-01  -6.4357270e-01  -6.1167881e-01   6.8388721e-01   1.1685597e-01  -6.3007130e-02   4.8505705e-01  -2.0900779e-01  -4.0059043e-01   4.7832053e-01  -2.2970240e-01   3.3954433e-01   2.8137817e-01   2.6899679e-01   1.5892292e-01  -3.8711065e-01  -5.5579768e-01  -3.1004628e-01   6.2244395e-03   7.2347954e-01  -3.0557329e-01  -7.0316895e-01  -3.5125029e-01   5.6940319e-01  -9.4434005e-01  -9.0703282e-01   8.8185791e-01   6.2304777e-01   4.9589409e-01   7.6424870e-01  -3.5208412e-01   7.5120489e-01  -2.5559604e-01   4.1269986e-01  -9.3565770e-01   5.4721061e-01   4.1528242e-01   3.6073778e-01  -7.9051021e-01  -2.8990844e-01   3.8384691e-01   8.2203084e-01   5.5883948e-03   3.6694810e-01  -5.0902940e-01  -2.5974392e-01  -1.6158803e-01   4.6393739e-01  -4.1219504e-01  -7.8461039e-01  -7.8812250e-01  -7.1066533e-01  -1.8366395e-01   9.6351005e-01  -5.5086598e-01   3.7113817e-01  -9.6625650e-01   7.8135476e-01   3.2539504e-01  -7.0767427e-01   9.5746884e-02   7.1362982e-01   5.0829214e-01   7.3525346e-01  -6.9922689e-01   3.4252555e-02   2.1963122e-01  -5.8729333e-01  -7.9397089e-01   6.5186287e-01   2.2842345e-01  -1.6156290e-01  -1.6234074e-03  -6.9497665e-01  -9.0774638e-01   1.4715646e-01   6.8724898e-01  -5.2327912e-01  -4.9583816e-01   2.7831501e-01   5.7906883e-01  -5.7996770e-01  -5.5945161e-01   4.9227350e-01  -9.5432334e-01  -9.5158159e-01  -3.3802775e-01   4.4692428e-01  -4.7448254e-01  -5.3351765e-01  -4.0524845e-01  -8.6882449e-01   3.6198488e-01  -2.5375267e-01  -5.3957360e-01   2.4512189e-01   1.3963900e-01   4.4082800e-01  -1.1632498e-01  -4.5638284e-01  -7.8321684e-01  -4.5419123e-01   8.8697485e-01   8.5308939e-01  -9.6169403e-01  -1.4689070e-01   9.9906115e-01   4.5827688e-01   8.3618589e-01   9.4115256e-01  -3.8179612e-01   7.4860772e-01  -4.8816216e-01  -3.8699203e-01  -1.0503627e-01   7.3633721e-01   4.9591750e-01   8.0972922e-01   6.2891769e-01  -3.3874210e-01  -6.3671351e-01  -6.7195638e-01  -9.6820401e-01   4.1140841e-01   4.3396337e-01   6.8457515e-01   2.6309097e-01  -1.0765095e-01   5.1642614e-01   9.4941527e-01   1.8394836e-01  -9.1143158e-01  -7.7939904e-01   9.3420240e-01  -8.1045500e-01  -6.1652861e-01   4.8140839e-01   3.3999657e-01  -7.0127622e-01  -7.0930065e-01   5.9036625e-01   2.7206398e-01  -6.3177994e-01  -1.4029110e-01   9.1722323e-01  -9.8624736e-01  -4.1483773e-01  -7.0227265e-01  -6.3366806e-01  -3.6624605e-02   1.5032006e-01  -6.7369386e-02   1.4754278e-01   3.9065267e-01  -6.1769275e-01   1.7067149e-01  -6.7070814e-01   9.5540450e-01   3.0066194e-01  -1.1107966e-01  -3.6126973e-01  -7.2770373e-01  -5.9955301e-01   3.2060927e-01   3.6768342e-02  -8.7717273e-01  -9.0429202e-01   5.5736551e-01  -6.4555614e-02   7.0099609e-01   9.6503354e-01  -2.1089659e-01   7.7591738e-01   9.1380115e-01   5.8259368e-01  -3.6275528e-01   1.0954205e-01  -1.2790714e-01  -1.1067395e-02   2.2782500e-01   4.6166055e-01  -9.5565273e-01   1.3990112e-01  -9.9333662e-01  -4.8343777e-01  -3.0530590e-01   8.7648288e-01  -5.4447559e-01   9.9712834e-01   7.0641428e-01  -8.5993120e-01  -1.0002225e-01   2.4287362e-01   4.2798695e-01  -1.4234765e-01   4.6467839e-01   8.2165587e-01  -9.6813722e-01  -9.0547366e-01   6.4386774e-01   4.7651664e-01  -4.5960553e-01  -2.7193810e-01   6.1043421e-01  -3.1478937e-01  -5.5135624e-01  -3.6607537e-01   2.5520071e-01   6.7985268e-01   7.0687688e-02   9.7101996e-01  -5.5504288e-01   6.2426360e-01  -3.5085823e-01  -8.5616526e-01   1.9322804e-01   1.1301604e-01  -4.6916762e-02   8.8153137e-01   4.7411706e-01   9.4535924e-01  -7.7571141e-01   3.9272015e-01  -5.3845486e-02   3.2461998e-01  -6.8808579e-01   6.0302869e-01  -9.8709479e-01  -1.6897731e-02  -6.9980581e-01  -2.2808478e-01   9.3055794e-01   2.7890099e-01   6.3185407e-01   3.4612232e-01  -9.2134619e-01  -5.9470959e-01   9.2058536e-01   9.6463467e-01   2.3203526e-01   1.5342039e-02   3.3139265e-01  -4.6632520e-01  -3.2356228e-01  -4.7581306e-01  -7.7404508e-01   3.2509982e-01  -9.0904078e-01  -9.7931316e-02   5.8961624e-01   3.8878147e-01   3.3910744e-01   2.6488039e-01  -2.3132784e-01  -2.1625610e-01   5.4374650e-01  -6.4190212e-02  -6.4648934e-03   3.1109469e-01   7.7701762e-01   5.3685229e-01   9.4433772e-01   4.1493827e-01   1.2346200e-01  -4.1190147e-01  -7.9490143e-01  -5.8219593e-01  -6.5391385e-01   1.3711362e-01   1.9082853e-01   9.2341792e-01  -2.8582465e-01  -4.7536719e-01   2.5116913e-01  -4.2812744e-01   5.3306113e-01   2.6579254e-01  -6.9575367e-01  -3.7524971e-01  -1.1401798e-01  -3.9781503e-02  -6.4375266e-01  -7.6655899e-01   4.5027702e-01  -9.0743937e-01   1.9160274e-01  -2.6282411e-01  -2.3394585e-01  -8.6508768e-01   9.3016496e-01  -5.3753547e-01   8.1943020e-01   1.4016215e-01  -4.4803332e-01   4.7461781e-01  -8.3760369e-01  -5.1079388e-01   8.6475563e-01  -6.2330287e-01   3.4863797e-01  -1.7667933e-02  -1.2832301e-01  -9.3482508e-01   6.1841198e-01  -1.2947382e-01   4.7266659e-03  -9.1267724e-01  -9.8594599e-01  -6.9608627e-01   4.5616733e-01  -1.7535485e-01  -6.1040359e-01   6.6204614e-01   8.9894338e-01   2.4546800e-01  -1.2737605e-01   6.4744314e-02  -6.5796013e-01   9.5904587e-01   4.6842421e-01  -7.3441235e-01   8.4074382e-01   7.6222230e-01  -4.4899372e-01  -8.0806682e-01   5.3784816e-01   8.3203154e-01   4.8378630e-01   8.0575324e-01  -4.4905761e-01   8.6482557e-02   5.4773035e-01   4.7502826e-02   8.3763373e-01  -3.4711438e-01   1.0056035e-01   5.7779527e-01   3.3159662e-01  -8.1797531e-01  -2.2626834e-01   2.2628179e-01  -2.7528029e-01  -3.8622263e-01   8.0540036e-01   1.0773220e-01  -5.0761672e-01  -3.0195091e-01  -9.8644629e-01  -7.8668019e-01  -6.0350214e-01  -7.2794023e-01  -6.9968110e-01   8.3295221e-01  -4.1469384e-01   3.3021814e-01  -4.7779197e-01   1.2682743e-01  -1.2468660e-02  -2.1015214e-01  -1.4816973e-01  -8.9021348e-01   6.6739432e-01  -4.3682919e-01   8.0491542e-01   2.4979573e-01  -6.6579231e-01  -8.3095545e-01   7.6791939e-01   3.5340362e-01   3.0165857e-01   5.8256498e-01   4.4566845e-01   1.4865890e-01  -9.7275832e-01  -1.0953330e-01   3.7120872e-01   3.2136156e-01  -8.0474576e-01  -9.0783907e-01   7.6577799e-01   1.1164387e-01  -8.6902440e-01   5.7916504e-01  -1.6993757e-01  -5.1307790e-01  -1.8624955e-02  -7.5998048e-01   8.4630515e-01  -6.4847420e-01  -3.4219049e-01  -2.4262220e-01  -6.4377196e-01   3.8871716e-01  -6.4393842e-02  -4.2739215e-01  -2.5113844e-01  -6.0532705e-01  -4.0169030e-01  -8.6971846e-01  -9.5818064e-01  -1.3556661e-01   1.2283710e-01  -4.4462066e-02   6.1547770e-01  -5.1656531e-01   6.6465844e-01   1.8152282e-01   1.4575459e-01  -8.8478642e-01   6.0456545e-01  -4.5226570e-01  -7.5106728e-01   7.6152724e-01   6.6360627e-02  -5.5473977e-01   2.6394732e-01   1.4385130e-01   2.5110646e-01   6.0613763e-01  -5.5942821e-01  -3.9538939e-01   3.6456667e-01  -7.8523610e-01   1.7801489e-01  -2.1956792e-01  -5.1749723e-01  -4.4536465e-01  -3.6921041e-01  -9.6639211e-01  -6.2537858e-01  -6.2050947e-01   6.5316075e-02   3.6318038e-01  -7.9354789e-01  -6.6845157e-01  -2.0617900e-01   7.2307601e-01   2.4922594e-01  -5.6782015e-01  -6.4083610e-01  -3.0261866e-01   1.6419718e-01   6.3075895e-01  -4.2787595e-02  -5.4146593e-01   9.3777002e-01   8.3126811e-01  -8.1990643e-01   5.9607264e-01  -8.5732362e-01  -1.2105413e-01   6.5922036e-01  -6.5373753e-01  -5.4611085e-01   5.2454336e-02  -2.7791782e-01  -2.6640464e-02  -7.6011032e-01  -1.8560521e-01   7.5851270e-02  -3.0007565e-01  -8.2340937e-02  -7.4933974e-01  -7.1545137e-01   4.1149913e-01  -8.2405074e-02  -5.6967230e-01   9.2620539e-01   5.6101858e-01   8.9841596e-01  -8.2848324e-01  -5.7121088e-01   5.7670545e-01   3.0785842e-01  -8.3911030e-01  -2.4050254e-02   8.3472242e-03   1.2829015e-01  -7.6944506e-01  -5.0171209e-01  -6.5189519e-01   8.5274568e-02   1.5087013e-01  -5.0408929e-01   6.0535441e-01  -6.9407405e-01   9.5023620e-01   2.3181059e-01   2.0166570e-01   9.2825140e-01   5.0163732e-01  -1.8699134e-01   1.1583933e-01  -5.2290973e-01   8.1924976e-01  -1.8380416e-01   2.6679973e-01  -5.5358515e-01   7.9715746e-01  -4.3978598e-01  -6.4394810e-01   5.3872377e-01  -1.4590392e-01  -5.2542374e-01   8.4774296e-01   3.4767556e-01   4.5146239e-01   6.9146650e-01  -6.0574724e-01   1.8401903e-01  -6.3181898e-01   6.3242529e-01   2.0415825e-01  -4.4598986e-01   2.0487807e-01  -5.1247178e-01  -9.2873947e-01   3.9455346e-01  -1.0967728e-02   5.2228747e-01   1.7847772e-01   8.8450859e-01   9.2732129e-01   5.3758733e-02  -7.1882726e-01   7.6178031e-01   4.0924944e-01   4.3738021e-02  -3.7311381e-01   3.9279030e-02   8.2437570e-01  -5.7336410e-01   8.4771302e-01   1.8651545e-01  -4.4668632e-01  -4.3459925e-01   3.0930260e-02  -6.8626557e-01   5.9758396e-01   6.9720623e-01  -7.4556551e-01  -4.9404697e-01   4.6761058e-01   1.1696568e-01  -3.0699184e-02   6.6621760e-03   6.3445015e-01   3.9262128e-02  -7.1262446e-01   8.6276784e-01  -3.4371530e-01   8.7758513e-01   3.2957945e-01  -4.9608809e-01  -8.9832619e-01   1.8256385e-01  -8.7098294e-01   9.6946368e-01  -2.4455767e-02  -8.4542500e-01   5.1374045e-01   6.6469270e-02   4.5443095e-01   9.9586631e-01   4.1753493e-01   2.5572149e-01   7.1953626e-01   4.7513530e-01  -1.0171304e-01  -2.0029427e-01  -9.4130032e-01  -4.8419904e-01  -7.3703432e-01
   3.4323590e-01  -5.5798526e-01  -4.7499159e-01   4.5480505e-01  -3.9720706e-01   3.3033767e-01  -9.3613698e-01  -1.4055760e-01  -2.9363593e-01   5.4378691e-01  -4.5155517e-01  -6.7131965e-01  -1.0923450e-01   9.7598386e-02  -2.0703135e-01   5.9788833e-01   2.7289358e-01   8.5712579e-01   5.0337019e-01  -1.4045452e-01   5.6714468e-01   6.9504552e-01  -8.5285105e-01   8.6303642e-01  -1.0555959e-01  -8.0415651e-01   2.9107978e-01  -2.5040648e-01   4.4702647e-01   1.7945501e-01  -4.0270430e-01   8.7784591e-01  -6.0855526e-01  -4.7333463e-01  -5.4883400e-02  -5.5485727e-01  -6.9788743e-01   7.6696368e-01  -7.1256485e-01   9.5827885e-01   1.5397776e-02  -4.7434958e-01  -5.7815815e-01  -1.6386612e-01   7.9008935e-02   5.2260155e-01  -8.4209882e-01   6.4549699e-01  -5.4114687e-01   5.4584376e-02  -9.5125774e-02   2.9423743e-01  -6.2328387e-01   5.6041437e-01   8.7635857e-01  -5.2722352e-01   6.5220472e-01  -3.9675448e-01   9.8248480e-01   2.1422655e-01   4.2817321e-01  -3.6502240e-01   6.7147854e-01   4.2252476e-01   5.7266399e-01  -3.0125420e-02   1.5819421e-01   2.2156708e-01   9.7226736e-01  -3.4850303e-01   9.2360872e-01  -4.4937069e-01  -3.2274596e-01  -5.7747651e-01   5.4409997e-01  -5.3871775e-01  -5.4153914e-01  -9.3287478e-01  -5.9586992e-01   5.1354981e-01  -7.7408913e-01  -9.5453578e-01   9.7056922e-01   5.6215055e-01  -6.9068059e-01  -6.3505910e-01   9.5837530e-01  -7.5638726e-02  -6.9667739e-01  -3.1547041e-01   8.8874774e-01  -1.3450554e-01   4.3207727e-02  -9.1806302e-01   2.9385808e-01   9.2296759e-01   3.9045847e-01   4.8837370e-01  -6.2234930e-01  -6.8888017e-01  -9.1257878e-01  -1.6610058e-01  -6.0525846e-01   9.1743023e-01   2.9033493e-01  -8.0469945e-01   7.2269956e-02   6.4564348e-01   9.3714527e-01   9.4600536e-01  -7.2236525e-01  -4.8167413e-01  -2.9169847e-01  -3.5612543e-01  -6.2760869e-01   1.2853555e-01  -6.0688518e-01   7.5470912e-01   9.5571624e-01   9.0295277e-01   8.2673500e-01  -8.0749358e-01   1.1540733e-03  -1.0763785e-01  -4.4228258e-01   8.0342120e-01   3.2945936e-02   7.7525079e-01   1.9051336e-01  -6.6782242e-01   5.7093717e-01   8.1441161e-01   2.8062653e-01  -3.4110839e-01  -6.1085627e-01   1.2799314e-02   1.7100276e-02   8.4137292e-01  -2.1044989e-01   2.2206884e-01  -7.4421218e-01   2.0535470e-01   9.9204022e-01  -4.3600437e-01  -9.8711074e-01   5.2696947e-01   5.9757259e-01   7.9613999e-01  -6.0017626e-01   3.3108108e-01   6.4000388e-01  -5.7420081e-01  -9.8016035e-01   9.4712141e-01   9.1473676e-01   6.8227087e-01  -7.0247829e-01  -9.6894455e-01  -4.0518328e-01   2.0620341e-01   8.0328298e-01   8.8992146e-01  -1.4571879e-01  -1.2136119e-01  -4.3067717e-02  -6.4378654e-01   4.0623203e-01  -9.1097289e-01   3.4273562e-01  -5.9579115e-01  -6.6215956e-01   7.9613877e-01   4.3192869e-01   2.4611871e-01  -6.8325264e-01   9.6567472e-01  -8.9008237e-01   9.6060191e-01  -2.0265686e-01   3.4796547e-01  -4.5232502e-01   2.6918535e-01   6.0514705e-01   6.2536843e-01   7.0258772e-01  -4.8262769e-02   2.8782896e-01   5.1539545e-01  -5.5792829e-02  -7.2417053e-01   5.0477941e-01   4.8117642e-01  -6.9529192e-01  -4.8839119e-01  -3.1596649e-01   7.9827419e-01   5.3963198e-02   2.5822342e-02   9.4996851e-01  -8.1769606e-01   1.1808924e-01  -8.8169391e-02  -6.7916113e-01   1.5858102e-02  -7.6708311e-01   4.4454201e-01  -2.5690994e-01   7.3055259e-01  -6.7686804e-01  -2.0355381e-01   8.7364869e-01   8.6876505e-01  -4.7279716e-01   4.0346778e-01   4.0729671e-01   8.0437490e-01   1.4526600e-01  -9.6779100e-02   6.7026374e-01   5.7290445e-01   5.3637593e-01   3.4756234e-01  -9.7174098e-01  -1.0521657e-01  -4.1683364e-01  -9.4235948e-01   9.8358677e-01  -7.5709975e-01   6.4396495e-01   1.5218329e-01  -3.8542002e-03  -8.8879832e-01  -2.6301468e-01   7.4239324e-01   8.3489023e-01   2.5177183e-01   8.6769221e-01  -7.2846239e-01   2.9648989e-01  -3.4336718e-01   9.7697766e-01  -5.6605597e-01   4.7327949e-01  -5.9174366e-01   7.3658096e-01   4.9122326e-02   6.4695962e-01   4.6712148e-01  -9.5309427e-01   6.7243359e-01   2.3225348e-01  -2.4390669e-01   4.5400418e-01   7.4471950e-01   3.2527479e-01  -6.9380598e-02  -1.5630219e-01   9.0616867e-01   7.4590641e-01  -4.4557536e-01   3.3380301e-01  -4.7468421e-01  -2.3112198e-02   6.7242164e-02  -8.3242605e-01   9.5146681e-01  -8.4564797e-01   5.1990763e-01  -7.4407425e-01  -3.5991273e-01  -4.2782921e-01   1.3339680e-01   9.8768603e-01  -2.2240339e-01   2.4516517e-02   4.6883292e-01  -6.0707527e-01  -3.2057560e-01   1.0414206e-01   9.9394907e-01   7.7758004e-01  -4.8670738e-02   2.5419002e-01   1.1934488e-01  -4.1833106e-01   9.4969329e-01  -1.3822865e-01  -7.0226883e-01   3.6585886e-01   5.2777534e-01   1.0986266e-01  -5.4250454e-01  -7.4150918e-01  -2.4782154e-01  -5.1305990e-01   3.5437914e-01   1.0493610e-01   5.2143732e-01  -4.8002896e-02   2.5638725e-01  -9.4313081e-01  -8.5193148e-01   9.1811765e-01  -3.7025669e-01  -5.9473478e-01   2.8791298e-01   9.0100940e-01   9.1096143e-01  -8.8383603e-01   5.5681036e-01  -9.4218897e-01  -7.7703992e-01   6.0614719e-01  -4.7182670e-01   5.4778896e-01   9.2785891e-03  -3.8689634e-01   7.3615986e-01  -2.1836728e-01  -8.5188759e-01   1.0185093e-01   3.9734456e-01   3.3817216e-02   5.2573645e-01   1.2222506e-01  -3.6940653e-01  -1.8345252e-01   2.1301462e-01  -7.8538248e-01   1.8985214e-01   7.0628852e-01   8.9340903e-01  -2.9988286e-01  -2.0301134e-02  -6.1684794e-01   3.2525506e-01  -8.1302705e-01   1.9039326e-02  -6.1739580e-02   3.6283467e-01   1.3845008e-01   9.3527066e-01  -8.9957808e-01   3.8766689e-01  -6.1315870e-01   7.7929728e-01  -5.0391138e-01  -5.1362787e-01   4.7041488e-01  -9.0036687e-01  -7.1633017e-01   2.2922358e-01  -2.3878504e-01  -5.1885213e-02   8.5153292e-01   9.4450193e-01   3.0974965e-01   9.2456001e-01   6.1148267e-01   5.2172259e-01   3.0678885e-01  -8.2265625e-01   6.4811407e-01   2.3199179e-01   9.9845319e-01   8.9381314e-01  -7.4735375e-01  -9.4270058e-01   2.3540888e-01  -9.2047289e-01   5.0033986e-01   2.6013847e-01  -3.1805277e-01  -1.5048182e-02  -7.2243477e-01  -3.4421686e-01   7.6393120e-01  -1.8273907e-01  -9.7768198e-01   4.8999827e-01  -4.7631353e-01  -7.1623160e-01   1.4048256e-01   2.6529511e-01  -9.4719101e-01  -3.5395576e-01   1.8543806e-01  -5.9207134e-01   2.0219232e-01   8.8548300e-02   2.8307762e-01   7.5710996e-01   2.9051273e-01  -3.7531387e-01   3.9423741e-01  -5.4754793e-01   7.0645209e-01   8.9897158e-01   7.4433888e-01   5.3555150e-01  -5.5861444e-01  -7.0605678e-01  -2.3231008e-01   1.4461844e-01  -4.9696395e-01   3.2573995e-01  -7.1145171e-01  -1.9324744e-01   8.9920826e-01  -1.9872531e-01  -4.3266432e-01  -4.9317507e-01  -5.0798807e-01   8.5633438e-01  -2.7339760e-01   9.2372865e-01  -3.2316100e-01   1.2802671e-01   2.5404948e-01   4.7111715e-01   8.9690706e-01  -7.6331123e-01   4.2972336e-01   5.2621538e-01   8.8957562e-01  -5.2819006e-01  -8.7188981e-01   6.2357349e-01   2.0911350e-01  -6.0759420e-01  -3.5794114e-01  -9.9538029e-01   6.9326477e-01  -2.8995447e-01  -5.5187733e-01   8.7567380e-01   5.1404008e-01  -9.6892778e-01  -7.8965547e-01   2.3666218e-01   6.0855581e-01   7.5617896e-03   7.4085260e-01   6.9743035e-02   4.7967487e-01   9.3660871e-01   1.6715744e-01   9.7657685e-01  -7.3361362e-01  -6.4643070e-01  -7.9207506e-01  -3.1326585e-01   5.8096558e-01  -2.7324062e-02  -3.5688907e-01  -3.1795734e-01  -4.2963665e-01  -3.7689434e-01   7.3033837e-01  -9.3580166e-01  -2.1089105e-04   8.4177061e-01   5.0801283e-01  -5.5401174e-01   8.5983293e-01  -3.2480388e-01   4.3174473e-01  -8.2951009e-01   3.9148356e-01   2.2340879e-01   8.5972568e-01   9.4652392e-01  -8.3269757e-01   3.6941223e-01   7.3092987e-02  -4.7881253e-01  -4.2358334e-01   8.6370919e-01  -6.0508569e-02  -4.5063557e-01   2.6251838e-01   4.3093230e-01  -4.3514171e-01   6.7152109e-01  -5.9035421e-01   3.5728793e-01   7.8782623e-01  -6.3467189e-01   8.1302410e-01   5.8043934e-01  -9.4664095e-01  -3.4222611e-01   9.4518699e-01  -3.0107203e-01   5.1350583e-01  -2.2269598e-01   5.0380139e-01   1.2251095e-01  -6.4615928e-03  -1.2602326e-01  -6.3406150e-01   6.4362127e-01   5.5133974e-02  -2.9226058e-01   6.1811581e-01   3.3070905e-01  -5.1280546e-01  -1.4780521e-01  -4.2674883e-01   4.5579059e-02   7.3518601e-01   3.7396141e-01   9.2274014e-01  -1.1912834e-01   5.1618799e-01  -3.2862706e-01   6.1979034e-01   5.5547607e-01   3.2480312e-01  -4.7449067e-01  -5.6939186e-02   7.5538658e-01  -9.9384964e-01   5.1215095e-01   5.2807696e-01  -3.1486930e-01  -1.2763949e-01   3.9064948e-01   2.1963077e-01   4.2416841e-01   8.7030397e-01  -9.2490451e-01  -3.9145738e-01  -2.6288313e-01  -7.6208466e-01  -6.0598760e-01  -9.4384783e-01  -4.0628483e-01  -3.3369216e-01   4.2171477e-01   7.8364426e-01   3.5279281e-01   8.5054935e-01   9.5217381e-01   8.1847813e-01   1.1994034e-01   7.9900644e-01  -6.6946094e-01   3.7418556e-01   9.9815604e-01  -1.4029175e-01  -4.5908902e-01  -2.8630720e-01   8.5831489e-01   7.2990448e-01   4.9341674e-01  -5.2123031e-01  -8.2326611e-01   7.6606432e-01  -3.8442822e-01   2.5868102e-01   4.4638770e-01   4.3982134e-01   6.1270401e-01  -7.6216745e-01   3.6203860e-01   2.8340292e-01   9.7691472e-01  -4.4369748e-01  -4.7826639e-01   4.8695814e-01   4.7947269e-01   8.6008176e-01   7.8376476e-01   9.8395377e-01   8.0762536e-01   5.0235547e-01  -6.1480643e-01   2.2819123e-01   2.9724441e-02  -4.5853073e-01  -3.9285358e-02   8.6870223e-02  -5.5979138e-01  -5.4574110e-01  -7.4334423e-01   3.1004456e-01  -9.5522063e-01  -1.7171184e-01   9.1106269e-01   3.8763081e-01   4.6218032e-01   5.7784111e-01  -9.2763855e-01   1.8597567e-01  -1.1562064e-01  -5.9419584e-01  -8.5449256e-01  -8.9388036e-01   4.4119873e-01  -2.9246994e-01  -3.3566034e-01  -1.2407442e-01   5.3785829e-01  -8.2361300e-01   9.3695623e-02  -1.7301539e-01   2.9560589e-03  -3.7485396e-02  -3.4217239e-01  -6.3221707e-01  -2.6559169e-01  -2.9701680e-01   2.7653657e-01  -8.2864499e-01   6.4445229e-01   7.0510297e-01   9.6314308e-01   6.3942545e-01   2.8984525e-01  -4.5837036e-02   5.8282534e-01  -5.2297223e-01   1.8381561e-01  -4.8417966e-01   9.1294047e-01  -9.2742074e-02  -9.3295881e-01   8.4999492e-01  -7.4061300e-01  -1.8433365e-01  -6.3058732e-01   7.7338445e-01  -7.5417666e-01   9.6011248e-01   9.2954077e-02   2.7763492e-01  -4.2938526e-01   7.1005460e-01   5.0072068e-01   5.7533091e-01   4.9499908e-02   6.5947467e-01  -3.6079476e-01   7.8266515e-01   9.8189799e-01   8.2588659e-01   4.3959621e-02   2.3597806e-01  -9.3262255e-01   5.6337209e-01  -6.7781612e-01   3.6022502e-01  -1.4776624e-01  -1.5331292e-01   3.7114112e-01   9.3731024e-01  -5.0828042e-01   3.2582582e-01  -8.3161436e-01   3.9285169e-01  -4.9153875e-01  -2.6787763e-01   8.2429552e-01   6.0565586e-01   8.5440312e-01   2.9562592e-01   4.9158199e-01   6.8621709e-01  -9.7777385e-02  -5.3449843e-01   5.9503666e-01  -7.6265230e-01   4.9957263e-01  -9.6746851e-01  -6.7064408e-02  -8.6350773e-01  -6.6992467e-01   4.5003994e-02   1.2084179e-01   3.5040546e-01   4.7998793e-01   5.9380437e-01  -4.9042399e-01   1.0735716e-03  -5.6019647e-01  -9.2651643e-01  -2.1448410e-01  -6.4408054e-01  -5.2571236e-01  -8.5179397e-01  -1.6743578e-01  -4.1646521e-01  -1.5798323e-01  -2.1268330e-01   9.7011537e-01  -7.9771519e-01  -8.2114334e-01  -4.5943824e-01  -4.4376527e-01   4.0664449e-01   2.1268310e-02  -1.5162491e-02   9.4938372e-01   7.4160659e-02  -9.9340128e-01   9.7452104e-01   4.2298941e-01  -6.8864339e-01   6.9553206e-01  -3.8994627e-01  -9.9287521e-01   2.9420775e-01  -3.6438908e-01  -6.7391956e-01   3.2759405e-02   2.2667460e-01   7.3669382e-01   6.3019962e-01  -3.3158923e-02  -1.1869326e-01  -2.1471128e-01  -3.3929064e-01   8.5822639e-01  -6.6077706e-01   2.0253842e-01  -4.8336152e-01   7.2108918e-01   5.6292999e-01   2.2362626e-03   6.7723204e-01   3.2891896e-02   3.1524302e-01  -6.5132614e-02  -1.6364948e-01  -1.6466626e-01   6.9829082e-01   2.3183237e-01   8.3082350e-01  -7.1817318e-01  -6.4854659e-01   8.5920876e-01   9.7949157e-01   2.6337458e-01  -9.9158365e-01  -4.5345104e-01  -6.2460954e-02   5.6582467e-01  -4.7420395e-01  -3.5501811e-01   4.0522044e-02  -2.9555444e-01  -5.1640460e-01   3.6991382e-01  -5.2618170e-01  -7.0975991e-01   1.4687951e-01  -2.4803265e-01  -5.2634137e-01  -1.0648650e-01   7.3086563e-01  -5.9770828e-01   2.6695593e-01   9.6359781e-01  -6.5206891e-01  -3.4446455e-01   8.4276126e-01   6.6952139e-01   2.8490323e-01   1.1142464e-01   4.7144938e-01   5.8588181e-01  -3.2312726e-01  -1.5056524e-01  -1.7934666e-01  -3.1869816e-01   4.5088675e-01   3.7042798e-01   8.2044127e-01   5.4760016e-01   9.2948786e-01  -3.2895789e-02  -6.8993375e-01  -4.0861275e-01   8.1417727e-01   8.4837560e-01  -1.4190526e-01  -9.7984560e-01  -7.4941897e-02   7.5467571e-01   2.4936097e-01  -3.6431488e-01   7.2295385e-02   8.3965959e-01  -4.6950699e-01  -3.8404260e-01  -1.1425428e-02  -8.3049684e-01  -6.6727090e-02  -8.8421044e-01   9.2478437e-01  -8.8214558e-01  -3.3308532e-01  -3.6147389e-01   7.9033768e-01   9.0221686e-01  -2.4431759e-01   2.1233839e-01   3.0931501e-01  -3.4466440e-01   2.2004276e-01  -5.5154316e-01  -1.6719946e-02  -7.2724410e-01  -3.6267775e-01  -9.0412702e-01   6.2385078e-01   2.0651550e-01  -3.8911994e-01  -4.8328410e-01  -1.1150636e-01  -3.9858229e-01  -8.2041971e-02  -5.6583542e-01   9.3735132e-01   6.5264310e-01  -5.6286984e-01  -2.2915677e-02   1.1542160e-01  -4.5561463e-01   7.5905958e-01   4.3891030e-01   7.5038358e-01   1.8163338e-01  -7.4132743e-01   1.9921553e-01   6.4950252e-01  -6.6500905e-01  -7.0950747e-01  -8.4298409e-01   7.7818802e-01  -5.4437003e-02  -9.6235558e-01  -9.2235526e-01   8.2043596e-01   3.2219191e-01   2.6870665e-01   9.5779538e-01   8.5372708e-01   4.8872726e-02  -7.2435394e-01  -4.3998434e-01  -3.4090446e-01  -4.2233824e-03  -2.0247194e-01   4.4848313e-01  -1.0069091e-01   1.2342999e-01  -7.9563861e-01  -3.6301582e-01   3.1189800e-01   9.0179307e-01  -1.2596532e-01  -4.5744636e-01  -6.8091330e-01  -9.0485975e-01   6.1459383e-01  -9.6529660e-01  -5.4021951e-01  -3.0759154e-01   7.4476166e-01  -1.4693349e-01   7.6263859e-01   1.2777851e-01  -5.4957580e-01  -7.2720713e-02  -5.7846736e-02   6.9792642e-01  -8.2001241e-01  -7.8427059e-01   1.1083501e-01   2.4603561e-01   3.5216880e-01   1.7879313e-01  -9.5033730e-01   8.3722191e-01   3.9260210e-02   7.2160020e-01  -5.6174986e-01  -2.2066670e-01  -2.3055893e-01   8.6924756e-01  -9.9464564e-01  -8.5648585e-01  -8.9439015e-01  -3.6465339e-01  -3.4879014e-01  -7.4285185e-02   8.2863549e-02   1.7792731e-01   7.2998815e-01   5.3519204e-01  -2.8391157e-01  -6.8564101e-01   6.0456778e-01  -8.1640667e-01   4.9411920e-01  -2.9210977e-01   6.4282540e-01   1.1933208e-01   7.4482234e-01  -8.9897038e-02   9.0519745e-01  -1.0779851e-01  -2.6160546e-01   3.1253217e-01   7.6599170e-01   6.1589508e-01   1.4062444e-02   4.7544559e-01   9.1393581e-01   7.2888519e-01   1.3579942e-01  -2.7683172e-01  -2.3691474e-01  -8.8634431e-01  -7.8058097e-02  -6.7933454e-01  -9.9993541e-01   8.0442731e-01   3.0411867e-01  -2.4852944e-01  -9.3824767e-02   7.6613868e-01   9.4094868e-01   1.4054559e-01   5.1369031e-01  -9.3370460e-01   7.4853613e-01   5.4735286e-01   2.2646439e-01   8.0253002e-02   1.4212203e-01   2.9695743e-01   8.6013209e-01   3.8010825e-01  -3.4052780e-01  -7.3652481e-01  -5.4768594e-01  -4.6761590e-01  -4.8006910e-01  -1.1876508e-02  -2.0048333e-01  -8.1031042e-01  -5.9310991e-02  -9.6775794e-01  -6.0709390e-01   1.4908301e-01   2.4232898e-01  -4.8645730e-01   1.6718734e-01  -5.0462758e-02   2.8664502e-01  -9.1212518e-01   8.3261101e-01   7.2291000e-01   6.9561839e-01   4.7003923e-01  -1.1012522e-01  -2.2342436e-01   2.2088652e-01   2.5973845e-02  -7.2638133e-01   6.4908006e-02   5.7309080e-01  -6.0757679e-01  -7.3461776e-01   7.7557784e-01  -3.6415034e-02  -9.1666673e-02   6.6767502e-02   9.1084426e-01  -4.0917152e-01  -1.0296423e-01   5.9629202e-01  -2.0517015e-01  -7.2187787e-01   7.1061424e-01  -2.1003710e-02   2.5359325e-01   3.8374517e-01  -7.1892859e-01   8.2014699e-01   8.8541153e-01  -3.4042323e-01  -1.0815769e-01  -8.3339711e-01  -6.9767851e-01  -1.3769627e-01   1.9577702e-01
   3.9190029e-01  -2.8132333e-01   9.6152187e-01   4.5974356e-01  -4.1742976e-01   1.4346668e-01   6.5892606e-01  -3.5034508e-01   6.2219976e-01  -5.6184001e-01  -9.8946161e-03   9.7794646e-01  -8.5720640e-01   2.5460022e-01  -3.4530002e-01   3.4308826e-01  -8.9282516e-01   9.5435794e-01   6.0247566e-02  -8.6181335e-01  -4.2572902e-03   8.2597601e-01   7.9308909e-01   1.1342011e-01  -1.5563439e-01  -2.9930688e-02   1.0858732e-01  -2.8790686e-01  -1.7528672e-01   1.3854936e-01  -9.9296841e-01   7.5641432e-01  -3.5093957e-01  -4.7643624e-01   6.6754551e-01   5.3086556e-01  -1.2845826e-01  -3.7821642e-01  -5.2634701e-01  -1.7318638e-02  -5.5574068e-02   3.3090807e-01  -9.9708797e-01   2.8616648e-01  -9.3013479e-01  -4.4753865e-01  -2.3858167e-01  -2.8180216e-01   4.7571856e-01  -2.5446057e-01   4.0389192e-01  -8.1249564e-01  -2.0965351e-01   8.6695282e-01   2.9550795e-01  -8.4119015e-01   7.6634900e-01  -9.6574709e-01  -8.6893485e-02  -5.9571111e-01   6.4456595e-01  -9.8358772e-01   5.6324030e-01   4.4837601e-02  -2.3083011e-01   1.4740464e-01   8.7579399e-01   1.2558063e-01   1.4874005e-02  -8.9129761e-01   1.4410807e-01  -8.8909719e-01   2.5118820e-01  -1.4449172e-01   4.7876554e-01  -8.8145095e-02   9.5693186e-01  -1.4076276e-01  -4.1853309e-01   9.9519754e-01  -9.4355429e-01   8.7118771e-01   1.9445408e-01   8.3157086e-01   5.2901447e-01   8.9995034e-01   6.5852899e-01  -8.4286330e-01  -5.4299054e-01  -5.2313131e-02   8.4913397e-01   6.8180180e-01  -7.2251858e-01   6.2107089e-01  -2.3226647e-01  -8.1987393e-01  -7.9136387e-01   1.0394011e-01  -6.7984884e-01   6.6676835e-01  -8.5716293e-01  -6.9307186e-01  -8.1063410e-01  -8.0647863e-02  -2.7059705e-01   9.2732000e-02   3.2303043e-01  -4.5474814e-01   7.0747489e-01   6.2259517e-01   1.5641723e-01   1.0741161e-01   6.7333886e-01  -1.7125545e-01  -8.6939869e-02  -6.8447561e-01   9.2604195e-01   4.0481690e-01  -4.9234862e-01   6.3770971e-01   2.6941809e-01  -5.8651894e-01  -1.8970756e-01   1.1780499e-01   5.9997337e-01  -5.0694643e-01  -8.6928583e-02  -9.0859585e-01  -3.2884900e-01   3.2133825e-01   2.3803909e-01  -6.2220603e-01   3.9623985e-01   3.8834119e-01  -9.2453668e-01  -1.6333814e-01  -3.1203468e-01  -1.8770306e-03  -3.7186584e-01   1.5061603e-01  -6.0060560e-01  -1.3272280e-01   5.8093187e-01   6.3907469e-01   7.6901608e-01  -5.8649444e-01   6.4860761e-01   1.8902848e-01  -7.3075723e-01   9.2841928e-01  -9.8259374e-01   6.8819817e-01   4.2809112e-01  -8.8921535e-01  -1.6425758e-01  -9.8846979e-01  -9.6285071e-01  -4.4628957e-02  -8.8371063e-01   3.3387510e-01  -9.2699479e-02   1.9994626e-01   2.2107358e-02  -7.2656032e-01   8.5213594e-01   1.6101253e-01  -1.3260545e-01  -1.7762079e-01   1.8704119e-01  -8.8894396e-01  -4.4579372e-01   5.1540976e-01  -6.0788851e-01  -6.6355875e-02  -8.0731806e-01   9.4864003e-01  -5.8727844e-01  -6.2533907e-01   4.1813254e-01   6.6002299e-01   8.1353362e-01   6.0366685e-01   8.3073975e-01  -7.1764303e-01  -9.2119728e-01  -5.3234732e-01   2.0937067e-01  -8.0720253e-01   3.0714818e-01   3.6280836e-01  -3.6976279e-01  -2.2294297e-01  -3.6495961e-01  -3.2299901e-01  -1.7398975e-01  -6.8060313e-01   2.9399780e-01   7.4062444e-01   1.2836327e-01  -1.7045665e-01  -3.3632939e-01  -5.4532645e-01   1.9450898e-01  -8.1734190e-01   5.8228128e-01  -6.4905591e-01   2.4253887e-01   3.7631566e-01  -9.8927385e-01   5.0015400e-01   8.9469535e-02   2.1818266e-01   9.3622452e-01  -8.5891532e-01   5.1113153e-01   2.4171166e-02  -1.3203581e-01   3.8570319e-01   9.9121568e-01  -6.9311544e-01   2.9838721e-01   6.9845639e-01   5.7864475e-01  -7.5985923e-01  -7.0400879e-01   1.1243980e-01  -7.5421900e-01  -2.1641080e-01   9.9792090e-01   3.2304337e-01  -6.6526690e-01   2.3797140e-01  -5.5700028e-01   3.2790231e-01   5.5735177e-01  -8.6085904e-01   7.9691101e-01   8.5229403e-01  -8.7559739e-01  -5.9723725e-01  -9.6904792e-02  -8.3403552e-01   8.4614145e-02   4.5723444e-01   1.3511079e-01   7.8375715e-01  -4.9988963e-02   1.1878775e-01   6.1415568e-01   9.0147366e-02  -4.2220825e-01   6.1950167e-01  -2.4261624e-01  -2.7423204e-02   3.0546318e-01   8.9604612e-01  -2.0529867e-01   9.0252797e-01  -8.0793321e-01   9.7171964e-01   3.4833725e-01  -4.0568085e-01   6.2241937e-01   2.6827656e-01   9.0875056e-01  -2.6418630e-02   5.6022668e-02  -8.7997330e-01  -4.2291551e-02  -9.2595480e-01  -1.9549248e-01   3.2043593e-01   9.3534401e-01   9.9500938e-01   3.0082046e-01   7.5211047e-01   6.4448382e-01   6.9489327e-01  -6.7199160e-01  -3.9503350e-01  -7.9992433e-01  -7.0894775e-02   1.7032919e-01  -1.5821641e-01   4.7140240e-01   2.2717288e-01   8.1428911e-01  -8.5589043e-01  -4.3171009e-01   7.5197028e-01  -2.9273267e-01  -9.7988073e-01  -7.8728674e-01   2.5370550e-01   6.1629928e-01  -2.0906558e-01   4.4213935e-01  -8.6471689e-01  -5.7629859e-01  -4.1130140e-01  -4.9732810e-01   4.2826872e-01   5.5289571e-01   2.3073406e-01  -7.8106448e-02   3.9572142e-01  -9.6272024e-01  -6.0543200e-01  -2.0430636e-01  -1.2841537e-01   1.5313189e-01   2.6026657e-01   2.3589008e-01  -4.0296098e-01  -8.6700427e-01  -6.9159231e-01  -8.3765890e-01   4.5288053e-01  -1.9526519e-01   1.7045003e-01   5.1107463e-01  -7.6875823e-01   5.3963480e-01  -8.1813867e-01  -1.1385325e-02   1.9725911e-01   2.5735087e-01   1.8873488e-01   6.0339315e-01  -4.8284418e-01  -8.8913802e-01  -2.8833579e-01   4.3439053e-01   4.5604190e-01  -3.0646670e-01  -9.4975707e-01  -9.5722132e-01  -5.2624080e-01   4.7581651e-01   9.4781830e-01   3.0399522e-01   1.2301132e-01  -3.2030369e-01  -8.5288273e-01   7.7416838e-01   9.4592329e-01   8.9274330e-01  -1.4118556e-01  -2.8987834e-01  -7.2218079e-01   3.1560679e-02   5.8351140e-01   1.8029540e-01  -5.0080758e-01   2.7715525e-01   4.8641286e-01  -3.7040106e-01  -7.0022897e-01  -2.1461609e-01  -3.4723104e-01   1.0188026e-02   1.0954982e-01  -9.7531268e-01   3.8231380e-01  -9.0011046e-01   1.9550613e-01  -5.4192877e-01  -6.1409753e-01  -6.9031414e-01  -4.5167770e-01   1.3412309e-01  -7.0334267e-01   1.0002192e-01  -3.6258918e-01   3.1774895e-01   2.5440037e-01   5.4720400e-01  -7.4809070e-01  -7.0103560e-01  -7.0361108e-01  -3.5273649e-02  -4.4202852e-01   3.2959275e-01   5.4902367e-01  -2.3915758e-01   1.1926352e-01   5.3754207e-01   5.2274501e-01   5.1730143e-01  -8.0800911e-01   5.6599168e-01  -5.3775223e-02  -5.8365857e-01   4.9795997e-01   1.6201716e-01   6.6103462e-01  -5.8144996e-01   8.4317194e-01   4.4879521e-01   2.8742700e-01   5.5225534e-01   3.4680253e-01  -7.8795845e-01  -6.3427053e-01   7.0705997e-01  -2.1420529e-02  -1.0448132e-01  -8.2279091e-01  -6.7634484e-01  -7.9001360e-01  -2.5346387e-01   9.9534282e-01  -2.4187273e-01  -3.5239450e-01  -1.4803467e-01  -5.4181679e-03   1.1645409e-01  -5.2153920e-01  -6.8494581e-01   7.0609916e-01  -4.8008658e-01   9.4565234e-01  -8.8594458e-01   3.5757850e-01   1.5468630e-02   8.8553221e-01  -7.0402789e-01  -3.4445453e-01   7.0144499e-01   8.1331077e-01   3.0472231e-01  -5.1078209e-01  -2.8432863e-01   6.9976384e-01   6.6242834e-01  -5.4627394e-01  -4.3761708e-01   1.6468278e-01  -8.3059651e-01  -3.5414351e-01   3.7072594e-01   7.5619793e-01  -7.6285872e-01  -6.1820710e-01   7.2924033e-01  -3.6529552e-02  -8.5112966e-01   9.4273023e-01   7.6420344e-01  -9.4037314e-02  -7.4500187e-01   6.7286648e-01  -8.2954288e-01   6.7669702e-01   4.2497398e-04  -4.8593614e-01   4.5182097e-01   7.6721777e-01   7.2617286e-01   9.0718054e-01  -7.1680438e-01  -2.0987388e-01   5.5545851e-01   6.5388996e-01  -8.1670269e-01   4.8996158e-01   7.3300025e-01   1.8458860e-02   1.4836310e-01   3.2267063e-01   8.0934544e-01   5.3396050e-01  -1.6197805e-01   7.7418452e-01   5.7090475e-01  -6.7277936e-01   2.7719629e-01   9.7820860e-01   6.7301438e-01   7.5585011e-01  -6.4145764e-01   8.7003966e-01   7.9904345e-01   3.7553229e-01  -2.1382927e-02   5.2643197e-01  -7.4678553e-01   3.3705904e-01   6.7933361e-01  -9.8526453e-01  -6.6479105e-01   2.1940656e-01  -1.7869073e-02   7.0344447e-01  -2.7430207e-01  -8.3081045e-01  -3.3171819e-01   3.3415879e-01   6.0063769e-01   9.4612770e-02  -4.7527560e-01  -7.3791002e-01  -6.2943992e-01  -3.0629289e-01   3.9345575e-01  -6.4536096e-01  -3.4600853e-01  -1.8014664e-01   5.0639240e-01   3.2647404e-01   6.0002710e-01  -2.3090309e-01   6.1663913e-01  -4.1408055e-01   9.2946655e-01   8.8784064e-01  -9.9864670e-01  -5.7250476e-01   3.6511079e-01  -2.2831756e-01  -6.3742699e-01  -6.8721540e-01   6.4319666e-01  -2.4163501e-01  -3.7200397e-01   9.3067658e-01   7.1401158e-01  -8.4703990e-01   6.3796723e-01  -2.9791632e-01   9.5216253e-01   5.9398655e-01   7.5645351e-01   2.1520012e-01  -6.9164254e-01   2.3598711e-01   9.8888453e-01  -2.9592172e-01   5.9428194e-01   9.3864790e-01  -4.8380376e-01   3.9836819e-01  -2.0785716e-01   8.4046906e-01  -6.4256855e-01  -7.0614576e-01   6.3964505e-01   8.8596077e-02  -1.3756180e-01   2.0716028e-01  -3.3301218e-01   8.7405028e-01   4.0128448e-01  -5.5479735e-02  -4.5996118e-01  -1.0939070e-01  -8.5859785e-02  -5.5425063e-01  -3.2079615e-01  -3.5462555e-02  -4.7600974e-01   6.5164273e-01  -5.4118446e-01  -5.3585201e-01   4.2490056e-02  -3.3252802e-01   6.7585629e-01  -3.0850728e-01   9.5984694e-01  -9.7938955e-01  -8.5360529e-01   9.7003248e-01   1.1141234e-01  -5.8877781e-01   2.0289020e-01  -7.7418564e-01  -8.6141118e-01   8.8029914e-01   8.7268103e-01   9.1877219e-02  -1.0811969e-02  -9.2560192e-01  -1.7948505e-01   2.4891438e-01  -3.7455115e-01  -9.6440939e-01   6.5694496e-02   4.2613966e-01   6.7170389e-01  -9.0536734e-01  -2.0234802e-01  -2.9884146e-01   6.7022684e-01  -6.6925319e-02  -4.3575911e-01  -1.2512587e-01  -2.9807040e-01   6.5270658e-01   5.4986311e-01  -1.8613599e-03  -5.8676819e-01   5.0198764e-01  -5.9122775e-01  -9.9588536e-01  -5.2671956e-01  -7.0137824e-01   7.1991147e-02   6.3562297e-01  -1.5619841e-01  -9.3150719e-01   1.8542776e-01  -8.4679891e-01   2.7994532e-02   1.4971007e-01   7.4590007e-01  -1.2237868e-01  -3.4256592e-01   2.6400939e-01   4.4552703e-01   6.2774604e-02  -8.0398432e-01  -2.0656135e-01   3.5076078e-01   4.9502029e-01  -1.1094778e-01  -6.5073457e-01   3.7271244e-01  -5.2826575e-01  -4.6308806e-01   6.4274617e-01  -7.4569381e-01   9.5930526e-01  -8.1503971e-01   6.6652250e-01  -4.6843086e-01   5.4781731e-01   6.6698973e-01  -9.5704710e-01  -8.1295692e-01  -9.6021930e-01   8.8794470e-01   7.2416176e-01  -7.5560897e-01   2.6625658e-01  -5.9394620e-01  -3.6712147e-01   6.4858007e-01   4.7029309e-01   6.9647981e-01  -5.9297908e-01  -5.4326503e-01  -8.7803367e-01   9.8420750e-02  -2.4572304e-01  -9.7854640e-01  -2.3544979e-01  -5.4804175e-01  -7.8196265e-01   4.7589029e-01  -6.0745319e-01  -2.6335794e-01  -4.2753379e-01   7.0373919e-01   5.4632963e-01  -2.5055212e-01   5.1876078e-01   6.7107587e-01  -5.2795489e-01   7.3352256e-01   5.7510229e-01  -4.3279827e-01   9.7500966e-01   8.2603989e-01  -4.5897292e-01   9.3930828e-01  -8.7364645e-01   2.5596458e-01  -9.8650754e-01   3.8489817e-01   5.9195503e-01   9.7466780e-01  -3.9661790e-01  -3.2316053e-01   5.0801630e-01  -4.8065318e-01  -3.4810488e-01   2.8330337e-01   7.7468070e-01  -1.0615203e-01   5.6607814e-01   8.7894372e-02  -8.3590585e-01  -6.7145758e-01   4.6897528e-01  -7.1179690e-01   7.8889551e-01  -8.9228751e-01   6.8205910e-01   9.6935024e-01   4.0715962e-02   6.3219903e-01  -2.3403865e-01   6.4555489e-01  -4.5332597e-01  -1.8436655e-01   1.0625881e-01   4.8262653e-01   1.3839324e-02   6.5239222e-01  -3.9132779e-01   6.9302984e-01  -7.0035353e-01   4.6487348e-02   5.1605367e-01  -5.8628736e-01   6.2909465e-01   7.4632172e-01   8.6628831e-02   1.7049367e-01  -6.3814202e-01  -1.2988236e-01   9.6988586e-01   3.4315025e-01  -8.1688517e-01  -2.4558898e-01   3.7017209e-01   7.3096999e-01  -4.0678399e-01   7.8197768e-01  -4.3440309e-01   9.3285941e-01   6.0042287e-01  -5.3559102e-01   6.0380531e-01  -2.9481771e-01   4.2672527e-01   8.6469030e-01   8.4577190e-02  -3.4095856e-01   8.0057416e-01   5.9796914e-01   4.2087967e-01   1.4129596e-01   7.7741744e-01   1.6324150e-01  -7.7787137e-01  -3.1236369e-01   8.9277564e-01   3.7497168e-01  -2.1639508e-01   5.3831357e-01  -3.6554955e-01   4.9849440e-01   6.4658480e-01   6.2300321e-01   4.4376046e-01  -2.4759519e-01   3.7316738e-01  -6.9491606e-01  -2.2724477e-01   5.4566183e-01  -4.0834116e-02  -7.4068879e-01  -3.9696181e-01  -8.5494090e-01   4.6170451e-01   5.4400638e-01  -2.6524515e-01  -5.8409192e-01   8.9871188e-01  -8.2948821e-01  -3.2758165e-01   3.9251223e-01   1.8687906e-01  -5.5842952e-01   3.1928803e-01  -4.6486517e-01   1.5198985e-01   1.4913660e-01   7.3901259e-02   8.8677392e-01  -2.4303365e-01  -7.7926149e-01   5.4468228e-01  -7.3475125e-01   9.0377577e-01  -7.9090047e-01  -3.8671166e-01   8.8106468e-01   6.8459822e-01   2.1773488e-01  -1.4506680e-01   6.0992213e-01  -8.6447291e-01  -5.0027813e-01  -6.9708609e-01   2.8383974e-01   3.1002613e-01  -2.1903499e-01  -7.9538881e-01   3.1549828e-01  -9.4949658e-01  -9.9073938e-01  -1.4005775e-01   9.9230561e-01   2.2407263e-01   3.6898016e-02  -5.8199216e-01   8.9878896e-01   4.4622016e-01   1.4417118e-01   2.4586024e-01  -1.8192554e-02   5.4212717e-01   5.4283987e-01  -6.8977250e-01   5.7562130e-01  -9.9951874e-01  -6.9054247e-01  -9.2786232e-01   1.2391068e-01  -1.1307501e-01  -1.2814776e-01  -6.9784943e-01  -4.5558796e-01  -6.2190115e-01  -3.0977560e-01   6.5829292e-01  -5.7880956e-01  -3.9982600e-01   4.9770210e-01  -2.1684353e-01  -2.6292967e-01   6.8635115e-01  -9.0988054e-01  -1.8893277e-01  -9.2430056e-02  -7.1484091e-01   9.3858188e-01  -9.0361061e-01  -9.2483544e-01   7.5076052e-02  -3.9790441e-01   7.6036483e-01   9.9764086e-01  -5.8239007e-01  -8.1685982e-01   9.9821464e-01  -6.3766591e-01   1.2157239e-02  -9.7644741e-01  -2.7314129e-01   4.0605404e-01  -4.6194357e-02  -5.1602057e-01   7.1177688e-01   4.2238657e-01  -4.7876762e-01   2.3524958e-01   1.2450540e-01   7.5990432e-01  -9.4221102e-01   8.2016087e-01  -2.2780329e-01  -9.0868424e-01   6.6907313e-01   8.0788487e-01   4.5091584e-01   8.1943659e-01  -1.3995052e-01  -5.7081118e-01  -5.7504185e-01  -4.1149460e-02  -3.9008165e-01  -5.5270227e-01   8.3532718e-01   4.6654425e-01   3.7744472e-01   6.9048952e-01   6.9316207e-01  -7.6646984e-01  -9.8500952e-01  -9.6627300e-01   6.0988753e-01   6.3771851e-01  -7.4717693e-01   2.5640022e-01  -9.8696772e-02  -3.0838559e-01  -2.5822261e-01  -9.1098245e-01  -6.8541719e-02  -2.9324869e-01  -8.3478995e-01  -6.6361651e-01  -9.1315933e-01   3.6264647e-01  -2.7872621e-01  -7.0856124e-01  -8.8540349e-01   2.2159065e-02   4.7469537e-03  -4.1358156e-01  -5.5870515e-01   2.5276619e-02  -2.1187105e-01   6.1816649e-01   4.7593087e-01   1.2256655e-01  -9.8366889e-01  -9.5292976e-01  -6.3697638e-01   9.8333674e-02  -9.8694546e-01  -1.5485154e-01   5.8332554e-01  -5.6221027e-01  -1.9178823e-02  -8.9089014e-01   2.4286692e-01   4.8254371e-01  -8.3869013e-01   7.4200557e-01   5.4418045e-01   7.4410249e-02   3.6989292e-02   5.6878899e-01  -1.8298218e-01  -7.6155153e-02  -6.2363064e-01  -5.2058966e-01  -2.9194412e-01   9.6148756e-01   3.2313405e-01   5.7184720e-01   6.0444485e-01  -5.2390697e-01  -8.2519416e-01   9.6466453e-01  -4.1247124e-01   5.3688354e-01  -7.7951701e-01  -1.1360020e-01  -2.7983712e-01   6.8567203e-01   4.3578383e-01   9.1869093e-01  -1.3169236e-01  -4.8756519e-01  -4.4246506e-02   1.6891951e-01  -8.1327830e-01  -7.4471570e-01  -1.5099689e-01  -3.4318374e-01  -6.6898166e-01  -1.1956668e-01  -7.4770909e-01   3.1008289e-01  -9.7820189e-01  -8.6457153e-03   9.7664566e-01  -3.2805510e-01  -6.5468781e-01   5.3169662e-01  -9.4404217e-01   4.7390283e-02  -7.3945134e-01  -5.8606546e-01  -2.2117172e-01  -2.4002767e-01  -7.2984716e-02  -4.5729485e-01   3.2043924e-01   2.9216012e-01   4.2914212e-01   3.8056199e-01  -9.4050235e-01   6.2748225e-01   7.3373238e-01  -4.7104254e-01   3.8437178e-01  -2.6376203e-01  -1.2071243e-02  -3.6290646e-02  -5.6278683e-01   1.1661490e-01  -7.5508516e-01  -1.1805901e-01  -6.5384275e-01  -4.6645421e-01   4.0871333e-02   3.4974256e-01   5.2487178e-01  -5.0829511e-01   5.7888213e-01   4.0506197e-01   5.0985104e-03  -9.2362616e-01  -3.7080896e-02
  -1.8964786e-01   9.2476525e-01  -6.2634197e-01   9.7540497e-01  -9.6855088e-01   1.3190411e-01   3.4564170e-01  -1.9360565e-02  -6.0814585e-02  -1.5013407e-01   6.0100072e-01  -7.3594921e-01   1.4259858e-01  -3.1803356e-01   5.7261536e-01  -9.1919037e-01  -1.9004471e-01  -2.4838925e-03   4.2890174e-01  -7.7883479e-01   4.8865174e-02   7.5794426e-01   4.8154289e-01   8.3229382e-01  -9.1598466e-01   9.6984567e-01  -7.8293891e-01   5.9691352e-01   6.7791026e-01  -9.7408419e-01  -8.2877906e-01  -3.4176150e-01   3.5919827e-01  -8.8360064e-01  -6.9711741e-02   5.1554510e-01  -1.6540202e-01  -9.1252178e-01   5.5910088e-01   6.2895158e-01   2.0973846e-01   5.7004653e-01  -5.9305770e-01   1.0964011e-01   5.8435706e-01   6.1239068e-02  -8.1971931e-01  -2.6356970e-01  -5.5508413e-01  -1.7609895e-01  -2.2228127e-01  -4.2567791e-01  -4.1829846e-01   3.9006114e-01   1.4349256e-01  -9.8364284e-01  -5.6529519e-01  -3.9317436e-01   7.1581120e-01   5.3787262e-01  -6.0219300e-02  -1.2816008e-01  -5.0926577e-01   2.9420380e-01   3.2834598e-01   9.3613016e-03  -4.0447888e-01   3.6569958e-01  -9.6203536e-01   3.4232127e-01  -1.8578144e-02  -6.4752016e-03   7.5149191e-01  -3.4471515e-01   5.1869035e-01   3.0961537e-01  -4.0130388e-01  -2.9349284e-01   6.0122275e-01  -7.0057336e-01  -4.1434986e-01   9.5114137e-01   1.4531143e-01   3.3633775e-01   7.8265820e-01  -5.4851320e-01  -8.9017417e-01  -6.0354040e-01  -9.2080153e-01   7.2001926e-01  -6.1618006e-01  -1.2457247e-01  -8.6595819e-01  -8.2881687e-01   2.7124182e-01  -6.4773436e-01   6.4561285e-01  -4.9734468e-01  -4.9158913e-01   3.8866179e-01   9.0758173e-02   1.7781360e-01   4.8362990e-01   7.5417667e-01  -7.8793029e-01   5.2207645e-01   5.8966332e-02   8.6691196e-01  -1.9261412e-01   3.0378423e-01   1.4944656e-01   9.0020086e-01   1.3382276e-01  -2.3515349e-01  -9.9436716e-01   5.2838308e-01   3.9416551e-01   3.6644314e-01  -6.4937813e-01   4.5291328e-01  -3.2373512e-01  -6.8684233e-01   1.5091697e-01   6.8969052e-01   3.4520180e-02   3.6555350e-01   5.4579474e-01  -8.6386550e-01   9.5744185e-01  -2.6228320e-01   2.4895396e-01   2.3277990e-01   7.3529854e-01   1.2322355e-01  -1.5160444e-02  -1.6043051e-01  -5.9953739e-01   2.4086039e-01   5.5554848e-01   2.2717058e-01   5.7852241e-01   2.4991723e-01   7.8133742e-01  -2.6427494e-01   6.3732537e-01   4.2590990e-01   4.6632473e-01  -6.6429174e-01   8.3851108e-01   2.8545266e-01   1.0677962e-01  -9.1773947e-01  -3.9898281e-01  -7.7730406e-01   7.6853339e-01  -3.8219192e-02   4.4734630e-01  -2.7338547e-01  -6.7289970e-01   9.9508827e-01  -9.6267945e-02   5.4423609e-01   2.6882832e-01   3.6945422e-01   8.1781860e-02  -6.9218905e-01   3.2254761e-01  -7.6718504e-01   1.2358577e-01  -6.2745821e-02   1.7103815e-01   8.5063900e-01   2.5639590e-01   8.0819567e-01   5.9904615e-01  -4.1664045e-01   2.5860652e-01  -3.1284646e-01  -6.9605776e-01  -6.4634283e-01   2.7971932e-01  -8.9189087e-01  -4.1289480e-01  -3.7871343e-01   3.3122326e-01  -3.6035285e-01  -5.7773835e-01  -7.6467025e-01  -3.3416706e-01   7.6679156e-01  -9.0378737e-01   9.0820713e-01   6.3450765e-01  -3.2494086e-01   1.0487441e-01  -7.6962548e-01   9.6670193e-02  -9.5793613e-01  -6.0715754e-01  -1.6388179e-01  -7.3444477e-01   6.6486947e-01  -4.7882405e-01   2.6223099e-01   2.0914532e-01  -9.2794078e-01   9.4640615e-01   5.9147078e-01  -2.4685513e-01   6.2751259e-01   9.8741248e-02  -5.3685193e-01   7.9360268e-01   5.2063935e-01   7.6774593e-02  -3.4951411e-01   9.6025802e-01   5.9295340e-01   1.4476023e-01  -9.7046769e-01  -1.7214120e-01  -6.5120313e-01  -1.9449228e-01   6.8639987e-01  -3.2803100e-01  -3.0257753e-01   9.2141590e-01  -7.1288872e-01   1.4965274e-01  -8.9826723e-01   6.0950239e-01  -6.6228322e-02   4.1493554e-01   4.8149735e-01   3.2235058e-01  -5.8622860e-01  -1.7242042e-01   8.7122952e-01   2.2476595e-01  -1.8870530e-01   9.6823958e-01  -8.4934763e-01   2.0576932e-02  -9.1470984e-01  -2.3734774e-01   7.6273584e-01   3.1350273e-01   2.9632406e-01   1.3704481e-01   8.5605996e-01  -7.3062989e-01  -6.9369253e-02  -1.5977308e-01  -1.0797293e-01   8.3486651e-01   1.0297961e-01  -9.7737701e-01  -9.9125415e-01  -7.9047503e-01   5.9342174e-01   6.8563789e-01   9.0220935e-01  -2.3744397e-01   6.6982587e-01   5.7783558e-01   2.9159999e-01  -6.0548122e-01   9.0860440e-02  -5.5818991e-01  -8.5250287e-01   5.8353209e-01  -1.8120225e-01   3.1689983e-01  -9.2375329e-01   6.4976915e-01  -6.8643983e-03  -3.2066349e-01   4.2485836e-01  -4.5007480e-01   6.6366814e-01   2.6605326e-01   9.9474849e-02   5.0239728e-01  -7.7854936e-01   8.5448310e-01   8.1796644e-01   4.1166289e-02   6.1976301e-01   6.5133877e-01   4.9589987e-01   1.8689197e-01   6.8557125e-01  -2.6975659e-01   2.2493374e-01   2.1597880e-01  -2.1740232e-01  -9.4680067e-01  -9.5871529e-01   9.0641922e-01   4.9626120e-01  -1.4481695e-01   1.5221414e-01   4.9967889e-01   9.3183536e-01  -9.8951938e-01   2.4707808e-01  -5.4082254e-01  -8.0374920e-01   4.6760227e-01   9.8418626e-01  -6.0044468e-01  -4.1032105e-01  -2.9153851e-01   9.1164891e-01   1.1345044e-04   3.3401035e-01  -6.0289110e-01  -1.2000816e-01  -2.2279426e-01  -2.9061683e-01   3.7535804e-02  -4.3315781e-01   5.2152645e-01  -9.1045157e-01   8.9683899e-01  -4.7880954e-01   1.7691789e-01  -3.2300350e-01   4.8949957e-02   6.1366454e-01   8.7122178e-01   5.6527700e-01  -5.2280990e-01  -2.9354256e-01   7.0857810e-01  -9.1405874e-01  -3.7357999e-01  -1.8668700e-01  -4.0540053e-01   6.6723544e-01  -9.1889474e-01  -1.6676897e-01   4.0439343e-01  -5.5100455e-01  -3.3163476e-01   1.2470388e-01   5.3735308e-01  -2.5961760e-01  -4.0133208e-01  -3.8154020e-01   8.0091761e-01  -7.0790294e-01  -2.7483411e-02  -4.8355158e-01   8.7649601e-01   8.1637635e-01  -7.7963143e-01   7.3761649e-01   7.2563127e-01   7.1856525e-03   7.9805109e-01   2.9054436e-01   9.4106688e-01   7.3585748e-01   6.3796401e-01  -1.1266538e-01   5.9990008e-01   9.9775551e-01   2.4597214e-02   2.3071161e-01   5.1148988e-01  -6.7442560e-01  -7.4648023e-02  -2.5780742e-03   7.3649461e-01   2.7871296e-01  -1.1941768e-01   8.9320085e-01   7.8770302e-01  -5.2137796e-01   8.8460230e-01  -4.6799201e-01  -4.2724464e-01  -9.7864147e-02  -8.2492763e-01   3.1043880e-01   4.5289892e-01   8.9926765e-01   4.8028068e-01   6.8527465e-01   5.0527779e-01  -8.5353117e-03   8.1494563e-01   1.8853773e-01  -6.2017614e-01   4.1575151e-01  -3.8921127e-01  -2.4629897e-01  -6.5910896e-01  -8.6281242e-02  -8.0131778e-02  -4.6736887e-01  -5.0321641e-01   9.4561521e-01   2.4057366e-01  -5.3621372e-01   6.1378214e-01   4.1940045e-01  -4.3543228e-02   5.1521064e-01   4.1611443e-01   9.6142410e-01  -8.0164785e-01  -3.6431209e-01   1.2545987e-01   6.2214735e-01  -3.5470273e-01  -7.6169236e-01   4.9377963e-01  -9.0343734e-03  -1.1314363e-01  -3.6020160e-01   7.4900077e-01   3.1004366e-01   5.0651795e-02   3.7757741e-01   9.9266358e-01  -7.5699893e-01   5.7001147e-01   7.5156192e-01  -5.5749554e-01  -4.6556805e-01   3.8554188e-01   9.7677543e-01  -9.5365062e-01   8.8597723e-01  -9.8173361e-02   1.3917689e-01   2.2149163e-01   3.9062116e-01   6.9356797e-01   8.5298866e-01   4.9854693e-01   6.9513679e-01  -1.6624859e-01   9.6057377e-01   9.7073460e-02   2.6302322e-01  -6.8551642e-02  -7.4408010e-01  -4.1176742e-02   4.1563887e-01  -7.5293725e-01  -8.1672380e-01   8.4639865e-01  -6.7134848e-02  -8.0801838e-01  -8.5278007e-02  -8.3239886e-01   2.4622974e-01  -9.6029851e-01   2.8065257e-01   5.7618190e-01   8.1948166e-01   4.9440019e-01  -7.1944420e-01   6.6535735e-01   3.0650142e-01  -7.3863697e-01  -9.2124996e-01  -4.5992803e-01   6.4765076e-01  -8.4900188e-01  -8.7165866e-01   4.4961437e-01   4.0825767e-01  -8.4567599e-01  -9.1334898e-01   4.5207376e-01  -6.4354904e-01   9.3230736e-01   5.1378687e-01  -8.6137458e-02   2.9533331e-01   4.1080821e-01  -2.2102767e-01   5.3153473e-01  -3.0217098e-01  -7.7485056e-01  -3.9720114e-01   1.8187511e-01   8.0959001e-01  -5.9257146e-01  -4.2684279e-01  -8.0196133e-02   2.2011551e-01  -5.9233666e-01  -4.4769246e-01   1.4700722e-01  -7.8413130e-01   7.5711553e-01  -9.0809751e-01   1.5051603e-01  -8.2685978e-01   8.3320252e-01  -5.0802663e-01  -9.2455961e-01  -1.3115994e-01   9.8445136e-01   4.2598242e-01  -7.7577054e-01  -1.1413355e-01   5.7666465e-01   4.0855557e-01  -3.4017344e-01  -2.4606246e-01  -5.4109837e-01   2.2393043e-01  -6.3937764e-01   7.3927272e-01  -1.9380468e-01   7.6980874e-01  -1.8530474e-01  -7.8598374e-01  -6.2333199e-01  -6.7006073e-02   4.3437316e-01   7.8875802e-01  -3.7248895e-01  -9.1748340e-01  -7.0234677e-01  -6.2296381e-01   9.6827813e-01   4.2114400e-01  -1.7126794e-01   8.9376518e-01   3.8852246e-01  -1.7223912e-02  -1.4069831e-01   1.2058705e-01   9.3900716e-02   5.2363530e-01   4.5095440e-01  -8.3475555e-01  -4.0685545e-01   7.5286725e-01   8.9973706e-01  -1.3286256e-01   5.8175113e-01   4.4665040e-01  -2.0872428e-01   9.4755329e-01   4.6869194e-01   5.4797913e-01  -7.7600974e-01   2.4551140e-01   3.7710648e-01  -2.1011197e-01  -3.7022454e-01  -4.6933959e-01  -1.0310048e-01   8.9604666e-01  -3.9719181e-01  -1.2266411e-01  -7.5685654e-01   5.1902199e-01   3.1085193e-01   1.6076532e-02   2.0084519e-01  -2.1215688e-01   1.7732261e-01  -1.7317051e-01  -6.8313302e-01  -9.2007695e-01   3.0113547e-02   1.1731764e-01   5.6309897e-01   8.5881005e-01   1.0621580e-01   5.5801485e-01  -6.2795152e-02   1.0169233e-01   1.3925049e-01  -4.4916273e-01  -1.2097168e-01  -9.1325666e-01  -3.4513915e-01  -4.2390100e-01  -9.0283044e-02  -6.0082892e-01   3.9686967e-01  -5.0216197e-01  -9.6566465e-01   1.7464348e-01   3.2311636e-01  -3.2857511e-01   7.3419350e-02  -5.6466794e-01   5.6326927e-01  -8.0195019e-01  -1.8056515e-01  -4.9180228e-01   8.3670896e-01   1.6843626e-01   4.5811221e-01  -7.2051659e-01  -6.3002692e-02  -1.8383652e-01  -1.8602616e-01   2.4427980e-01  -9.7072425e-01   4.7742039e-01  -1.6381619e-01  -7.3372979e-01   8.6464607e-01  -9.4603807e-01   2.7214817e-01   2.6227301e-01  -4.6627564e-01   9.4599783e-01  -7.4409519e-01   1.1630873e-01   4.5881382e-02  -6.8440593e-01   1.7266300e-01  -9.3714999e-01  -1.1947851e-01  -1.1431022e-01  -5.1928213e-01   7.8001998e-01  -4.9987944e-01   9.9250624e-01  -6.0195489e-01   3.0327433e-01   6.6152130e-01   5.4060628e-01  -1.7105629e-01   1.5439009e-01  -4.5205308e-01   7.9721274e-01   9.7739900e-01   8.9898562e-01  -3.0917472e-01   9.7988549e-01  -1.4638989e-01   9.6355129e-01  -1.4505499e-01  -1.3388146e-01  -4.4491996e-01  -6.2177662e-01   8.6457935e-02   3.2586042e-01   5.6651453e-01   4.2273369e-01   2.3718614e-01  -5.8639902e-01   8.1807434e-01   7.9186353e-01  -9.1874779e-01  -8.2389056e-01  -4.2285999e-01   7.7239629e-01   5.3145676e-01   7.2953452e-01  -2.5995150e-01   7.8470318e-01  -9.1508778e-01  -7.2743274e-01   8.7920280e-01   6.9080801e-02  -6.5055196e-01  -1.7327427e-01   2.1775135e-01   6.3311959e-02  -6.4000300e-01  -1.6593837e-01  -6.3974322e-01  -6.1199351e-01   6.0649876e-01  -8.7288659e-01  -2.3103033e-02   6.8661049e-01   4.3043962e-02   8.4500347e-01   5.4179809e-01   1.5474077e-01  -3.4553406e-01  -3.4069844e-01  -4.6218007e-01   7.3189255e-01   7.3405315e-01  -2.3586911e-02   6.4778481e-01   5.2450374e-01   8.4747272e-01   5.7507994e-01  -2.0556769e-01  -7.3721672e-01   4.4225276e-01   1.8592588e-01  -9.3206499e-01  -9.3626777e-01   9.8939575e-01   1.0326606e-01   2.3553386e-01   8.2432856e-02  -4.6887650e-01  -5.3506453e-01  -6.0381685e-01  -5.7862887e-01   4.1848827e-01  -9.7737577e-01   7.7230178e-01   6.1275108e-01  -9.0593894e-01  -7.4281810e-01   8.9878703e-01  -6.7308410e-01  -4.6991296e-01   3.3588982e-01  -6.5731517e-01   2.7301073e-01   9.6786030e-01   5.6091303e-01  -4.5809556e-01   9.1223503e-01   5.5820034e-01  -8.8301453e-01  -1.0172791e-01   3.6579150e-01   6.1154278e-01  -5.8573133e-01  -5.7750525e-01  -2.9436227e-01  -1.1074837e-01  -6.8224822e-01   3.4138503e-01  -5.4538414e-01   3.8167946e-01   7.7894437e-01  -8.9036724e-01  -4.9590122e-01   5.6228134e-01   4.0069916e-01  -2.9345295e-01  -5.9704818e-01  -3.5918205e-02  -9.3712674e-01  -1.7865579e-01  -9.6626251e-01  -5.7676824e-01  -9.9907701e-01  -4.7224673e-01  -9.1910260e-02  -3.5015568e-01   6.7319003e-02  -7.1505970e-01  -7.5772789e-01  -9.9651069e-01  -5.6623260e-01  -1.8108955e-01   6.4414013e-01   9.5416989e-01  -7.5669310e-01   8.9704449e-01  -9.7477461e-01   4.1601534e-01   3.8980909e-01   2.6300546e-01  -7.5257660e-01   3.7478795e-01   9.0305614e-01  -7.5057736e-01  -2.5434327e-01   7.7735796e-01  -9.2546398e-02  -3.5394197e-01   1.4688208e-01   7.1471765e-01   3.9104363e-01   8.5227242e-01   1.0427319e-01   3.6797301e-01   2.6043202e-01  -3.8794818e-01   7.2926595e-01  -9.3586847e-01  -7.3807239e-01   6.9451077e-01  -6.7444865e-01   5.0215664e-01  -2.1852793e-01   3.4758656e-01  -7.9541193e-01   1.6712775e-01   3.6432359e-02   5.1659764e-01   3.7261538e-01  -2.2566032e-01   7.0734584e-01   3.9361892e-01   4.8024894e-01  -3.4977460e-01  -8.4264216e-01   3.8496529e-01   9.0826836e-01   8.9391510e-01   9.6660891e-01   6.9955710e-02  -3.5495287e-01   9.1572084e-01   4.5667212e-02   5.4633454e-01  -9.0045926e-01   3.5226765e-01   8.6758015e-01  -4.0176033e-01  -2.2735278e-01  -9.8372662e-01   2.0199333e-02  -2.7641047e-01  -5.0411887e-01  -2.6250080e-01   3.6850211e-02  -5.8581754e-01   8.6549327e-01   3.6435338e-01   9.2703707e-01  -2.7945555e-01   7.1848528e-01  -6.3847907e-01  -7.5997243e-01  -5.6760157e-01  -6.8153215e-01   4.5519764e-01  -6.4983126e-01   8.8218902e-01  -6.4401667e-01  -1.9015586e-01   5.3318144e-01   2.0134842e-02   7.1086624e-01   6.2722018e-02  -5.0098579e-01   8.5562792e-01  -8.9101516e-02  -7.9884626e-01   2.4009217e-01  -5.6552479e-01  -2.5335109e-01   1.4222650e-01   8.7081376e-01   9.6947618e-01   2.9174491e-01  -3.4341759e-01  -3.9110487e-01   8.3190202e-01  -3.7384830e-01   8.2118107e-01  -7.8965445e-01   5.7887800e-01  -4.7282584e-01   8.3829619e-01  -7.2775927e-01  -4.4391065e-01  -1.8974082e-01  -5.9181728e-01   7.1775633e-02  -4.3141464e-01  -5.8779920e-02  -3.0085472e-01  -5.1171071e-01  -7.3185397e-01  -7.3217658e-01  -5.6165479e-01   5.3897335e-01  -4.4655702e-02   6.0691795e-01   1.3696315e-02   8.1310455e-01   3.8883568e-01   3.2163052e-01   2.5904668e-01  -3.6096035e-01   3.7732167e-01   1.9292497e-01  -1.1989736e-01   4.2156229e-01   7.9151944e-01  -5.7520088e-01   6.6228285e-01   6.4210488e-02   5.3737488e-01   9.8542397e-01   7.3278274e-01   7.2998310e-02  -1.7094860e-01  -3.3370348e-01  -7.7548867e-02  -9.9635331e-01   1.0368561e-01   3.5935723e-01   7.7416885e-01  -1.9875237e-01   5.1438411e-01  -5.4933096e-01   1.9743996e-01   2.6385164e-02   4.3269522e-01   1.7198935e-01   6.3105335e-01   1.1551923e-01  -7.9340113e-01   4.1953587e-01   6.3413965e-01  -5.6961782e-01  -2.2087300e-01   5.1571542e-01  -2.3422424e-01  -3.9563007e-01  -7.2296928e-01   6.5558881e-01  -6.1571269e-03  -7.3427140e-01  -2.2911387e-01  -4.7636596e-01  -4.7907498e-01   1.9314019e-01  -5.8668616e-01  -5.7061584e-01  -5.5325716e-01  -4.1064900e-02  -9.2211627e-01  -5.5389679e-01  -6.9011517e-01   1.3601688e-01   8.9645684e-01  -9.4255509e-01  -3.4364870e-01  -1.1616600e-01   2.2726956e-01  -6.2934369e-01  -9.2550727e-01  -9.1850152e-01  -3.4875938e-01   6.3406718e-01   8.5160329e-01   4.6490829e-01  -4.2557141e-01   9.0316705e-01   9.7101536e-01   5.2522801e-01   3.3538369e-02  -2.5423667e-01   4.5944875e-02  -6.0996587e-01   7.4306248e-01   1.1075941e-01  -2.9214010e-02   2.5444904e-01   3.3094908e-01  -6.6104078e-01   8.4597889e-01  -2.4736649e-01   8.8931571e-02   2.1205512e-01  -2.3462183e-01   1.5458208e-01   7.3320437e-01   4.0883301e-01   5.0110753e-01   9.4032242e-01  -4.0758420e-01  -2.4474316e-02  -1.5275433e-01   8.2010539e-01  -9.4216624e-01  -4.1123541e-01  -5.2345306e-01   8.1344811e-01   6.8134746e-01   1.6984832e-01  -6.5820970e-01  -9.0128858e-01   5.9661392e-01  -8.5384406e-01   5.1029174e-01  -1.1299103e-01  -8.9096420e-01  -7.4822841e-01   7.2155487e-01   4.6252547e-01  -9.0357595e-01  -6.7341249e-01  -6.2719060e-01   7.4663399e-01  -2.4193832e-01   1.3765626e-02   9.2723286e-01  -6.5858038e-01
   9.0219877e-01   9.0642457e-02  -7.9228415e-01   8.5317508e-01   7.6609911e-01  -3.3133933e-01  -4.9187255e-01  -6.7239291e-01  -1.4939950e-03  -1.8817330e-01   1.6588359e-01   1.9106911e-01   3.7868213e-01   6.1569861e-01   4.4501439e-02  -1.2002030e-01  -1.3887173e-01  -1.3034617e-01   7.7035975e-01  -1.7361640e-01   7.3364059e-01  -5.4081344e-01   9.0704840e-01  -5.3036212e-01   4.2693181e-01   9.9600960e-01   2.5646156e-01  -7.0391032e-01   9.9467612e-01  -6.7780818e-02  -8.4362748e-01  -9.9649474e-01   7.1653522e-01   3.4174339e-01  -3.3512423e-01   4.7848980e-01   3.6873560e-01  -4.6787694e-01   8.0726289e-01  -3.2187455e-01   7.3084464e-01  -5.9388891e-01  -6.1510510e-01  -9.6105846e-01  -8.8159789e-01  -1.5049686e-01  -5.0991252e-01   9.9968758e-01   6.2835602e-01  -3.1958551e-01  -4.3613024e-01  -3.4627394e-01  -7.8739085e-02  -3.4920043e-01   1.4360831e-01  -5.1386973e-01   7.8417763e-01  -7.1714659e-01   4.1848651e-01  -2.4716220e-01  -8.8126127e-01  -2.8833131e-01   5.4689032e-01   6.3664793e-02   5.4526640e-01  -7.1279524e-01   9.7276688e-01   8.6265528e-01   9.3406588e-01  -6.3067814e-01   2.7320798e-01  -9.0413425e-01  -9.9180580e-01   1.3933797e-01  -1.0091962e-01   3.2160974e-01   6.0996380e-01  -9.2690040e-01   2.4700626e-01  -6.2345517e-01   9.4019133e-01   6.1583861e-02  -8.2613851e-02  -7.2306357e-01  -9.2094446e-01  -3.9456198e-01   3.6952818e-01   7.8795869e-01  -9.3492555e-01  -1.8275960e-02  -4.9377163e-02   2.8188180e-01   1.3583139e-01   7.5590445e-01  -5.0770957e-01   4.5523603e-01  -6.1612537e-01   5.3397978e-02  -7.6611710e-02  -7.7789621e-01  -3.3249903e-01   6.4659226e-02   7.7105278e-01   3.9531420e-01  -9.9514523e-01  -4.5196229e-01  -7.3790643e-01  -2.0038444e-01  -4.7567412e-01  -8.2007569e-01  -4.7489592e-01  -5.4312372e-01  -3.1563248e-01  -6.4274039e-02  -7.0134388e-01   5.4177223e-01   2.6249566e-01   7.2756306e-01   2.0230303e-03  -8.9328734e-01  -8.2983505e-01  -6.2218907e-01   9.9366786e-01   2.2921511e-01  -4.8280461e-01  -7.7186692e-01  -8.1302672e-01   7.1476010e-02   5.2998941e-01   9.1961123e-02   2.0753217e-01   4.8989374e-02   7.5245084e-01   4.7107764e-01  -7.8015060e-01  -7.6045488e-01  -5.6539096e-01   4.2026740e-02  -1.9680133e-01   9.4494951e-01  -1.8468946e-01  -2.4666592e-01   6.1231136e-01  -4.8296386e-01   1.2537409e-01  -1.3587818e-01   6.0662146e-01   5.9971809e-01   9.3045650e-01  -6.9046661e-01   5.9784623e-01  -5.0932416e-01   8.8820097e-03   1.6326315e-01   1.0651899e-01   1.5388823e-01   5.1955932e-01   5.4141700e-01   9.3327127e-01  -4.9684490e-01  -8.7946916e-01  -8.4124614e-01  -8.5300643e-01   6.9498145e-01  -9.2438624e-01   2.0117730e-01   6.9245157e-01  -4.5104350e-01  -5.3651837e-01   7.3511661e-02   5.3799493e-01   3.2281822e-01   4.6732436e-01  -3.2457692e-01   5.0366057e-01   9.5125488e-01   9.8958598e-01  -6.9561342e-01  -9.6641483e-01   1.8216765e-03  -9.9522099e-01   2.4966824e-01  -1.0577110e-02   2.9361401e-01  -4.9430020e-01   6.5251462e-01  -9.9083651e-01   2.5107593e-01   2.6626634e-01   2.8713852e-01  -3.2472192e-01   5.7401332e-01  -1.0187708e-01   4.2104424e-01   5.9162095e-01   7.2985856e-01   8.3159534e-01   5.9694380e-01  -1.2869373e-01  -1.5340333e-01  -3.8966319e-01  -8.7319388e-01  -2.3364533e-01  -4.3094175e-01   5.0675494e-01  -3.8448655e-02   3.2715924e-01   6.6257285e-01  -1.0701028e-01   4.4165434e-01  -4.9955159e-01  -6.3217134e-01  -8.1261753e-01   1.3498120e-01   9.8466424e-01   7.1371089e-02  -6.7869773e-01  -8.7093353e-01  -2.3879734e-01  -4.6329800e-01   5.2569654e-01  -1.0687830e-01   3.0029611e-01  -5.2648376e-01   2.9004859e-01  -4.6662792e-02  -2.7317400e-02  -6.1935276e-01   2.9248849e-02  -6.1662858e-01  -6.9155771e-01   6.7468964e-01   9.3599452e-01  -8.4586927e-01  -6.5592148e-01   9.4249850e-01  -9.0812320e-01   3.3868423e-01  -8.7318492e-01  -7.0124222e-01  -2.2697909e-01   8.8582051e-01   1.7523749e-01  -3.9579516e-01   5.6310098e-01   2.1130166e-01   9.6565559e-01   1.9155174e-01   6.6925372e-02   1.0330952e-01  -6.7484459e-01   6.3419335e-01  -1.1900417e-01   6.0320857e-01   6.7588876e-01  -2.9982123e-01   9.5583188e-01  -3.5254141e-01   7.9316927e-01   6.8380786e-02  -2.0483974e-01  -7.7594782e-02   9.3073270e-01  -9.5185569e-01  -6.4023234e-02  -7.4996037e-01   1.6624620e-01  -4.5352498e-01  -9.3074898e-01  -7.9184685e-01   6.4964801e-01  -5.3438679e-02   9.4889729e-01  -6.5196281e-01  -1.8736441e-01   3.2289734e-01  -9.8228934e-02  -7.4834502e-01   3.7016688e-01  -9.1850660e-01  -1.0268622e-01   9.3130159e-01  -8.2493028e-01   3.2674954e-02   9.8319257e-01  -1.1064386e-03  -2.1998970e-01   6.6433920e-01   9.7841200e-01  -5.4511984e-02   4.2651596e-01   3.6427798e-01   7.3341763e-01   4.7033268e-01   9.4859928e-01   1.3045445e-02   9.5249351e-01   3.6200964e-01   4.2199528e-01   5.6234800e-01  -4.4391306e-01   8.1858594e-01   6.1175554e-01  -4.7378200e-01   2.4101442e-01   6.1167854e-01   9.6966264e-01  -9.9700053e-01   6.2699137e-01  -1.0794779e-01   1.6060563e-01   5.1513295e-01   9.9738345e-01   3.5994463e-02  -1.5819874e-01   9.4971691e-02   9.3965148e-01  -5.7179813e-01   4.5492801e-01   8.7415408e-01  -1.8004264e-01   6.7852788e-01  -4.6830862e-01   5.9428176e-01  -2.1268814e-01   2.3957229e-01   2.9473342e-01   4.0436280e-01   4.1466183e-01   8.8780226e-01   1.8825532e-01  -6.5855328e-01   5.4213476e-01  -2.2555717e-01  -6.0444742e-01   1.0806144e-01   5.0934129e-01   1.0031374e-01   8.7841284e-01   1.3391042e-01  -9.9299356e-01   7.3552693e-01  -1.6395589e-01  -2.5358861e-03  -6.6587934e-01  -6.5996275e-01   4.8241763e-01  -5.1097295e-01  -2.6201053e-01  -1.1520965e-01  -8.0187795e-01  -1.5592057e-01   7.7548685e-01   9.2967279e-01   7.5552993e-01  -5.2249037e-01   4.3162138e-01  -5.2163805e-01   9.3543273e-01  -6.6035617e-01  -7.9372527e-01   8.5636277e-01  -2.1619216e-01  -6.3149275e-01   8.9633984e-01   1.8709610e-01  -2.0798684e-01   7.6977673e-01   8.9270690e-01  -6.6600597e-01  -7.8994881e-01  -3.2033876e-01  -2.9596531e-01  -8.4490307e-01   7.2505154e-01   4.0237306e-01  -6.1456566e-01  -6.0497655e-01  -9.1009320e-02  -7.7862378e-01  -3.2892946e-02  -3.7447538e-01  -4.9059552e-01   3.5331568e-01  -1.2856558e-01   4.1071815e-01   5.9926398e-01   7.3012571e-01   3.3341595e-01   1.1926505e-01  -3.6997800e-01   4.7643808e-01  -4.1291871e-01   8.0087201e-01   7.2850391e-01   3.8320474e-01   9.3792471e-01   2.1609161e-01   9.9772080e-01  -1.2803863e-01  -1.4735228e-01   4.5057029e-01  -5.8972121e-01   6.9300350e-01  -4.8051243e-01   5.9113707e-01  -1.5248234e-01  -5.9460596e-01   7.2234562e-01  -4.2346322e-01  -8.8349450e-01   2.0123529e-01   2.8328809e-01  -8.4395828e-01   5.7639333e-01  -7.9500344e-01  -9.6593641e-01   1.6848416e-01  -5.7359852e-02  -3.9858028e-01   8.6391563e-02  -2.4849066e-01  -3.7669686e-01   1.3065984e-01   8.6594954e-01  -5.7827432e-01  -1.5808551e-01   9.1192514e-01   2.1090606e-01   7.5854183e-01   9.8560603e-01  -8.7880239e-01  -8.5017490e-01   7.5422535e-01  -8.9957401e-01   7.3085398e-01   1.0517473e-01   7.1444777e-01  -4.2056997e-01   5.7249523e-01   6.9579472e-01  -7.3053046e-01  -6.5974806e-01   5.2551884e-01  -9.6908455e-01  -8.5605351e-01   2.4748935e-01   5.5304222e-01  -5.9948928e-02  -8.8763797e-01  -6.6325697e-01  -7.2237680e-02  -9.8844445e-01  -5.1078164e-01   3.8476731e-01   9.3633061e-01   9.0449047e-01   1.6925303e-01   1.8405698e-01  -6.1826072e-01  -9.0546924e-01  -4.3737093e-01   1.0292623e-01   4.9262778e-01  -2.2442591e-01   4.7083490e-01  -5.4886274e-01   8.5870912e-01  -9.7434037e-01   9.5982776e-01   5.6223341e-01  -6.3674286e-01  -5.1830104e-01  -6.6759111e-01  -7.8300115e-01  -7.5045920e-01   1.8006161e-01   9.5321918e-01  -4.0024584e-02  -8.6200792e-01   7.9051789e-01   5.0778917e-02  -2.3392844e-01   6.0029782e-01   2.1057621e-01  -2.5190700e-01   1.1096973e-01   2.2249371e-01  -9.0805311e-01  -2.6118205e-01   4.4181566e-01  -4.7547600e-02  -3.1190256e-01   8.4624088e-01  -9.8186454e-01   1.4039407e-02  -2.9999656e-02  -9.1778550e-01   3.7703707e-01   2.0304739e-01  -4.2298558e-02  -4.6012196e-01  -1.3311541e-01  -2.2139362e-01   5.0727219e-01  -7.7619351e-01  -6.3931668e-01   8.7245743e-01   3.9758488e-01  -3.5851970e-02   8.6296723e-01   1.7662600e-01   4.2645189e-02   6.5609404e-01   7.0543378e-01  -7.6273295e-01   2.0919323e-01   3.8952434e-01  -5.6206750e-01  -6.9259052e-01  -5.5843912e-01   2.8110822e-02   5.2398309e-01  -3.0088343e-01  -1.2361178e-01   6.1427285e-01   3.2801540e-01  -2.7743186e-01  -8.8598655e-01   1.3524420e-01   7.7624030e-01   7.0845322e-01   5.3186270e-01   1.8996682e-01  -4.7526966e-01  -7.6084212e-01   3.2137765e-01   3.4395677e-01   9.0902190e-01   6.4833607e-01   1.6072723e-01  -8.2072698e-01  -2.8066577e-01  -6.4431139e-01   4.2862730e-01   5.2159018e-01   2.6243600e-01  -2.6801504e-01   9.4943110e-01   3.8160226e-02  -3.9460548e-01   8.1606274e-01   6.2752401e-01   1.5211575e-01   4.5674498e-02   3.8138328e-01   2.3960823e-01  -2.7705277e-01  -8.7449643e-01   1.1849289e-01   5.5792785e-01   3.6955724e-02   5.9347016e-01  -2.9004566e-01  -5.3152627e-01  -8.1032951e-01  -3.7292151e-01  -4.0635433e-01   8.3122450e-01   9.5302638e-01  -5.6119068e-01   6.0336895e-01   4.4227237e-01  -6.9007121e-01  -7.4602879e-02   5.6842091e-01  -3.2315179e-01  -6.6592743e-01  -7.7965834e-01   4.2093553e-01   4.1947405e-01  -7.8051827e-01   6.9165819e-01  -2.0351288e-02  -1.4692840e-03  -1.5476637e-01  -2.6790892e-01   8.9154651e-01  -9.1976823e-01  -7.1848626e-01   7.5352679e-01  -9.0298929e-01   6.6785630e-01   3.5665770e-01   1.3046990e-01  -7.3328443e-01  -7.2622299e-01  -6.0086258e-01   2.9348551e-01  -5.5354505e-01   3.3179848e-01   6.0023304e-01  -9.0735328e-02  -8.8954061e-01  -3.6672502e-01   1.9838303e-01   7.2054284e-02  -7.7175180e-01  -2.4704949e-01  -4.9313335e-01  -6.2250858e-01  -6.5367736e-01  -1.3692361e-01   2.5426795e-01   1.9461322e-01  -1.8573945e-01   3.8640040e-01  -7.2116551e-01   8.5991853e-01   5.4025923e-01   1.4364664e-01  -3.6910551e-02  -3.3715516e-01   5.5934584e-01   6.4807142e-01   5.1040703e-01   9.5882171e-01   4.4655370e-01   8.6186009e-01  -1.4526517e-01  -2.4196058e-02  -8.4277756e-01  -8.7801791e-01   8.2374876e-01   4.3162277e-02  -2.5645768e-02  -2.2008315e-01  -5.7270780e-01   9.2615602e-02   7.0734524e-01   3.3325860e-01   8.6921152e-01  -9.1592918e-01   7.7587469e-01  -8.1717169e-01   6.4527456e-01   3.2307614e-02  -7.7892687e-01   1.1868160e-01  -2.1213805e-01  -6.3292621e-02   4.5522580e-01   7.9423159e-01  -2.4724579e-01   1.4117045e-02  -2.1353734e-01  -4.5600288e-01  -5.5373537e-01  -4.3277095e-01   3.5181141e-01  -4.1767855e-01   3.7687160e-01  -5.1631912e-02   6.8739267e-01   5.5171502e-01   8.5109086e-01  -9.7218723e-03  -9.5866373e-01   7.7598787e-01  -6.1858020e-01   2.2810854e-02   7.1651706e-01  -1.7241285e-01   3.3870135e-01   1.9862056e-01  -4.1895267e-02  -4.2979520e-01   3.4543894e-01   3.6135438e-01  -4.4445192e-01  -5.9643230e-01   1.9282091e-01  -4.7595895e-01   5.8457910e-01   3.9850145e-01   1.0953569e-01  -7.3455341e-01  -8.7488078e-01  -7.6846220e-01  -2.3029543e-01   2.0653052e-03   8.2650240e-01  -7.5867750e-01  -1.1044195e-01  -7.6696208e-01  -8.4050642e-01  -9.0229910e-02   7.0099066e-01   4.6337803e-01  -3.4385205e-01   2.1441584e-01  -7.9472233e-01   5.0758880e-01  -7.3780538e-01  -2.7354416e-01   9.4952310e-01   2.9358139e-01   6.2654528e-01  -9.1690821e-01   8.7313004e-01   3.1008473e-02   1.3957831e-03  -7.8215238e-01   6.3832376e-01  -6.2391191e-02  -7.4246088e-01  -1.0315467e-01   2.2058713e-01   6.2508570e-01   9.4307843e-01  -5.5296522e-01   8.6633069e-01  -8.9946055e-01  -2.6058275e-01  -1.3188272e-01   6.4529626e-01  -5.6760113e-01   2.3163095e-01   5.1707361e-01  -5.3308526e-01  -2.6963133e-01  -7.1280526e-01  -6.9595840e-02  -1.3310745e-01   3.2381286e-01   9.3557488e-01  -9.6868548e-01  -3.9456708e-01  -4.8676349e-01  -8.2444053e-01   8.8375330e-01  -7.2236876e-01  -7.8430654e-01  -6.4199724e-01  -1.6322449e-02  -5.5494446e-01  -3.9023312e-01  -6.4659492e-01  -1.3661231e-02   8.7297882e-01   3.3365715e-01   7.2533987e-01  -6.6851813e-01   8.1820363e-02   5.8312316e-01  -5.9092808e-01  -4.6616084e-01   6.5519800e-01   6.7342364e-01   3.8111965e-01  -1.7322649e-01  -3.2819845e-01  -8.9859361e-01  -2.6553931e-01  -8.9008480e-01  -7.0351638e-01  -3.1515605e-01   6.1915329e-02  -5.0280247e-01   5.7684138e-01  -4.7386885e-01  -2.4657529e-01   1.3013557e-01  -2.2820595e-01  -7.1132420e-01  -3.0953540e-01  -4.9060578e-01  -3.4451226e-01   8.7054277e-01   7.3974261e-01  -2.8873678e-01   8.9018539e-01  -8.5880514e-01  -5.5390961e-01  -1.7462511e-01  -6.5179587e-01   5.4489951e-01  -2.2100748e-01  -7.5596494e-02   5.8424820e-01  -5.0217455e-01  -3.9255307e-02  -6.6883286e-01   1.9018722e-01  -4.1724884e-02   3.7740424e-02   8.9718896e-01  -7.6562909e-01  -2.2400455e-01  -4.4055659e-01  -1.6988928e-01   4.0303285e-01  -9.9722633e-01  -3.1938340e-01   6.3645257e-01  -9.2157066e-01   2.8315528e-01  -7.3308591e-01   9.1044985e-01   1.1469878e-01   8.8280593e-01   9.2268085e-01  -7.5670306e-01   7.5882781e-01   1.1889013e-01   9.2682098e-01   4.3104599e-01   8.8999332e-01   7.7473284e-01  -6.7910332e-01  -7.5155845e-01   9.4830862e-01  -1.7941842e-01  -5.7735326e-01  -4.7353838e-01   8.1220847e-01  -1.7515272e-01   9.0109940e-01  -1.6702577e-02   4.4098489e-01   2.5520171e-01   4.2416155e-01  -8.9782397e-01   7.9703503e-01  -5.3832782e-02   2.2804874e-01   8.1393003e-01   4.3796073e-01  -1.9540357e-01  -5.5562047e-01   7.8889766e-01  -9.1877366e-01  -7.3392661e-01   9.1019044e-01   5.2875407e-02   5.2704575e-01  -1.1217357e-01   4.6997700e-01   3.8700647e-01  -5.7550613e-01  -4.7794254e-01  -6.2627993e-01   9.3884002e-01  -7.1979968e-02  -5.0632344e-01   1.5163966e-01  -7.6597399e-01  -6.3577278e-01  -4.4695505e-01  -5.8472310e-01   9.2527238e-01   6.7660497e-01   1.0322042e-01  -3.0246134e-01  -1.0155218e-01   5.5451298e-02  -2.3105050e-01   9.9870857e-01  -7.5274243e-01   8.3186434e-01  -8.0139482e-01  -3.0828661e-01  -5.0465302e-01   3.5704319e-01  -5.8671778e-01   7.6112732e-02   1.5235778e-01   2.4554605e-01   5.7473259e-01   3.1342187e-01   4.1707061e-01   3.6760278e-01  -6.2988554e-01  -5.0850210e-01  -9.3871618e-01  -8.9726327e-01  -4.5810851e-01   8.3319026e-01  -7.6759615e-01  -1.2520850e-01   8.5858747e-01  -5.9030431e-01   8.8630140e-01   5.0117314e-01   9.7592337e-01   8.3807611e-01   8.5282865e-01   1.7073821e-01  -1.4128739e-01   3.6169044e-01   5.0789061e-02   2.9956846e-01   2.7959015e-01  -2.7085238e-01  -8.8819949e-01  -1.9012357e-01  -3.1636694e-01  -8.5081344e-01   8.6406427e-01  -8.9535200e-01   9.1472031e-01  -3.9881826e-01   9.5109548e-01  -7.5388456e-01  -8.4884336e-01  -8.7450129e-02   9.3320822e-01  -3.2140641e-01   4.5947513e-01  -7.4645939e-01  -9.2655916e-01  -1.7472969e-01  -3.2024733e-02   7.4879515e-01  -8.5300145e-01  -5.4306992e-01   9.3812024e-01   8.0805558e-01   1.1593652e-02  -6.2761777e-01  -9.0896231e-01   9.2865015e-01   8.1218420e-01   6.0842358e-02  -5.2792332e-01  -9.1672898e-01  -6.7889355e-01   9.5514526e-01  -4.7786811e-02   3.0411959e-01   6.3781900e-01   8.7822212e-01  -9.4397747e-01  -8.8154997e-01   5.2812298e-01  -4.0504329e-01   9.0193108e-01   5.3220560e-02   8.5101390e-01  -2.2182128e-01  -6.3767148e-01  -9.7994450e-01   6.1409361e-01  -9.3457155e-01  -4.5574508e-01   7.2755165e-01   4.5799831e-01  -8.0165128e-01  -5.1631443e-01   7.2649041e-01  -4.5699654e-01  -4.1566747e-01  -6.6895236e-02  -1.4243355e-01  -8.8051235e-01   8.9483588e-01   4.6499178e-01   9.6526849e-01  -2.6635297e-02  -7.0245440e-01   3.0241671e-02   8.2443544e-01  -8.7811858e-01  -4.0259882e-01  -1.7850693e-02  -3.0519536e-01   1.2078959e-01   1.7533540e-01   7.3850897e-01  -2.9632620e-01   9.5010562e-01  -4.3847319e-01  -4.5549655e-01   5.3918279e-01   3.2833264e-01  -4.5537074e-02  -6.1193786e-01   8.0947584e-01   6.3470556e-02  -6.4585619e-01   1.6871480e-01  -8.3130220e-01  -9.1490420e-01   2.0523309e-01   8.5244202e-01  -6.7435627e-01   4.9163984e-01  -3.2408227e-01   5.9938039e-02   8.7424767e-01
  -6.4147479e-01   8.4191801e-01   3.0534935e-01  -3.1896310e-01   3.2592732e-01  -6.6455735e-01  -6.1940022e-01   1.7940003e-01  -2.3010964e-01  -4.2307745e-01  -2.7561395e-01   6.1726779e-01  -7.4776660e-02   5.4456766e-01   7.0108682e-01   3.0429558e-01   8.0470656e-01  -2.9452789e-01   8.3907220e-01   8.7915667e-01   3.0894127e-01  -9.2345277e-01  -4.2359268e-01   6.5079666e-01   7.1204139e-01  -8.2485774e-01   8.4735801e-01  -3.9855320e-01   2.1713890e-01  -1.1134685e-01   1.1392829e-01   6.6204897e-01  -1.0173953e-01   8.6034202e-01  -8.9717408e-01  -9.6662858e-01  -2.1792220e-01  -6.3288365e-01  -4.9282342e-01   7.6778107e-01  -6.1864478e-01   9.6065085e-01   9.8971563e-01   6.5756379e-01   3.6857514e-02   6.1925909e-01   7.5952528e-01  -2.3938865e-01  -4.0963918e-01  -9.0768208e-01   4.1049938e-01  -7.4256496e-01  -5.1971452e-01   1.9495135e-01  -6.6120484e-01  -4.4306106e-01  -6.7455383e-01   9.9065838e-01  -3.4452005e-01  -4.8296193e-01  -6.5314319e-01   9.6839432e-01  -5.0860128e-01   7.2598532e-02   6.8007694e-01  -6.5454108e-01   5.7091818e-01   8.2353936e-01  -8.7867303e-01  -5.1081551e-01   3.5566753e-01   2.4537652e-01   2.6117668e-01   7.4241498e-01   7.9055337e-01   7.0796744e-01  -9.5884835e-01  -1.8195458e-01  -9.9670062e-01   8.6049195e-01   2.1288206e-01   6.8113507e-01  -4.5327168e-01  -2.0762725e-01  -3.0909856e-01   6.2867360e-01   8.5294188e-01  -5.0902911e-01  -4.0076483e-01   5.8871660e-01  -9.8422283e-01   2.3965343e-01   2.8244116e-01  -1.7882270e-01   9.1459938e-01   7.1275980e-01   9.1276301e-01  -1.6011534e-01   8.8716903e-01  -1.5041450e-01   5.7414924e-02   8.6480990e-01  -6.7249178e-01  -3.4154869e-01   9.8587491e-01   2.5600805e-01   8.8778661e-01   1.5159060e-01   3.3438768e-01   1.2805988e-01  -8.9433828e-01   6.7892388e-01  -3.3214718e-01  -3.2168662e-01   9.9637825e-01  -7.4809552e-01  -8.4257809e-02   4.9300328e-01  -1.7772702e-01  -5.0389455e-02  -8.6596581e-01   6.1035521e-01  -6.9930402e-01   8.1915090e-01  -5.8520649e-01  -2.8058817e-01   2.9403333e-01   9.2865566e-01   9.8380021e-01   1.4495328e-01   5.3431030e-01  -3.7316421e-01  -3.0860678e-01   6.9219502e-01  -1.7041173e-01   6.8859620e-01   4.3884150e-01  -6.2106104e-01  -3.6448523e-01  -6.7320492e-01   9.5901863e-01  -8.9441405e-01   3.7326378e-01   9.4932265e-02   9.2522701e-01   4.7260644e-01   4.3946699e-01   4.1647857e-01   3.3523471e-01   8.4907361e-01   9.4932427e-01   6.4794258e-01  -7.2459968e-01   9.1869758e-01  -6.0427487e-01  -1.4097310e-01  -5.2327703e-01   9.4154603e-01   1.5476520e-01  -1.2190993e-02  -4.0734442e-01  -2.0083286e-01   6.8370055e-01  -6.0844540e-01   3.3229901e-01  -4.1792230e-03  -9.5305906e-01  -3.3279956e-01   6.3878284e-01  -3.0268786e-01  -9.4159271e-01   9.6778217e-01  -2.5195068e-01   1.2494671e-01  -4.4231623e-01  -3.4763007e-01   9.4462860e-01   7.6376003e-01   8.7888940e-01  -7.5842858e-01   2.7615223e-01  -7.2696941e-01   4.8439889e-01  -7.3066315e-01   6.6950537e-01   7.0816240e-01  -7.9211020e-01  -8.1374502e-01  -6.1647859e-01   5.5115182e-01   6.5133381e-01  -6.7980058e-01  -4.7778677e-01  -7.3605902e-01  -7.5268497e-02   3.3960580e-01  -3.3458005e-01  -9.5420863e-01   9.8037850e-01   7.4533009e-01  -1.2901731e-01  -7.9410508e-02  -7.3369658e-01  -8.0176494e-01  -6.1542590e-01  -7.4672874e-01   7.1249484e-01   6.1407430e-01   6.8460476e-01   6.4828768e-01   7.3559004e-01   8.6161205e-01   8.5702387e-01  -2.3350476e-01  -8.6995305e-01  -1.1661590e-01   9.6551855e-01  -1.3221680e-01   8.2311728e-02  -1.2776628e-01  -8.0175665e-01   4.4338722e-01  -3.4558936e-01   4.9151490e-01  -3.3723040e-01  -3.1797806e-01  -5.2459534e-01   8.2997129e-01  -1.3532100e-01   8.6448553e-01  -7.5374544e-04  -3.0251974e-01  -1.7045320e-01  -7.9917240e-01  -6.6514367e-01  -6.1718220e-01   4.8907585e-01  -9.1804183e-01   2.4097803e-01   2.5307335e-01   4.4077370e-01   3.2875866e-01  -4.7927469e-01   6.9789334e-01   9.5238725e-01   5.6552586e-01   7.1778206e-01   3.8606926e-01   7.5469071e-01  -6.7911611e-01  -1.9533472e-01   4.9635944e-01  -1.1035657e-01  -1.2105791e-01   7.2172816e-01  -6.4425252e-01  -1.8313750e-02  -9.9622077e-01   8.9829599e-01  -3.0964494e-01   5.4895328e-01  -6.1142471e-01   2.1750786e-01  -9.7024288e-01   8.8654708e-02  -1.1463478e-01  -4.2609939e-01  -6.8108941e-01   1.6039109e-01  -9.3577368e-01  -3.7802125e-01  -6.7283915e-01   3.3184074e-01   7.2234264e-01  -4.4951432e-02  -1.7548926e-01   6.8912400e-02   7.2765630e-01   1.2494994e-01   8.5723320e-01  -6.3966505e-02   5.7005307e-02  -6.8728702e-01   2.0189721e-01   8.9631713e-01  -5.4133450e-01  -2.5995466e-01  -2.4896870e-01   3.7935945e-01   1.1074577e-01   4.2897379e-02   1.5071280e-01   9.4304683e-01   2.2815890e-02  -8.5337251e-01   6.1344143e-01  -8.0018835e-01   4.0692895e-01   3.6357388e-01   7.6612872e-01   4.9189065e-01   6.6085865e-02   7.4615955e-01  -2.4506994e-01   1.6385567e-01   6.5432432e-01  -6.9981628e-01  -9.7314881e-01  -3.0231018e-01  -7.1254298e-01  -6.1881371e-01   7.2670509e-01  -5.3524869e-01  -5.9044434e-01   4.7144752e-02   7.7700341e-01   6.1652210e-02   2.5803764e-01   2.7631721e-01  -6.6244993e-02  -8.8467921e-01  -8.2037475e-01   5.2288394e-01  -8.0698326e-02   8.0426720e-01   8.5014795e-01   9.8890231e-01   8.8476128e-01   9.2837503e-01  -1.6980601e-01   6.4630505e-01  -4.2957123e-01   7.7261188e-01   6.0714959e-01   7.6511417e-01  -3.8781312e-01  -8.7521570e-01   4.0428952e-01   7.4244072e-01   7.1822262e-01  -1.6891262e-02   4.2681244e-01  -4.8120880e-01  -4.0492916e-01  -4.5674633e-01   4.4425993e-01   2.5723605e-01  -2.0882138e-01   3.9701949e-01   7.9649599e-01  -3.0210935e-01  -6.9624863e-01   3.8521258e-01   8.7032790e-01  -2.4161085e-01   5.9821489e-01  -3.5128250e-01  -2.5440253e-01  -1.4042325e-01  -4.6401651e-03   8.8541515e-01  -1.3821822e-02   1.3114787e-01  -1.7350278e-01  -1.3293397e-01  -5.6999739e-01  -3.6837296e-02   5.6064765e-02  -6.9752318e-01   1.2848156e-01  -1.2271274e-01  -8.6651661e-01   8.6451908e-01   6.4175924e-01   3.8760097e-01   3.9847651e-01   9.6927226e-01   2.7581971e-01  -1.4602831e-01   8.0252152e-01   5.1055601e-02  -9.8653443e-01   5.2367285e-01   5.0820594e-02  -3.4101291e-01   8.0163926e-01   1.7940815e-01   9.3320215e-01   8.6912376e-01  -9.8860806e-02   3.3890957e-01  -9.7176527e-01   7.9576510e-01  -1.2872683e-01   2.9485794e-01  -6.9635207e-01  -5.8044124e-01  -9.1988370e-01   1.0283369e-01  -1.9584884e-02   4.7778520e-01  -1.0304965e-01   2.6531120e-01   6.8226877e-01  -8.5147996e-02   1.6208770e-01  -3.0137512e-01  -7.8255615e-01   6.8199553e-01   7.3338461e-01  -7.5526941e-02   5.9852740e-01   2.7214960e-02  -8.2920078e-01  -2.2715363e-01   2.4183592e-01   2.3863874e-01   2.8596884e-01  -6.4429444e-01  -9.9690822e-01  -4.0352307e-01  -9.3385154e-02   3.5450159e-01   3.6021479e-01  -6.9428956e-01  -5.8887219e-01   4.1950177e-01   4.1235770e-02  -8.7288756e-01  -3.3721143e-01   1.8204120e-01  -6.3347623e-01  -6.5061803e-01  -9.7762809e-01  -9.1511792e-01   3.5109404e-01  -9.6155877e-01  -6.9407866e-01   1.1899750e-01  -9.4482159e-01   2.6953283e-01   5.6298554e-01  -7.2524460e-01   8.2013514e-02   3.3117851e-01  -5.8291742e-01   5.0991615e-02   5.8049134e-01  -8.1288703e-01   2.1064324e-02  -2.2095711e-01   7.6933035e-01  -6.2783476e-01  -7.4051367e-02   7.5226393e-01   7.9406075e-01  -9.1171028e-01  -1.0818926e-01   2.8929619e-01   1.3285174e-01   2.9207260e-02  -1.4466044e-01   4.6944779e-01  -1.3032457e-01  -1.5590396e-01   1.7756634e-01  -2.4972957e-01  -4.9215246e-01   5.7463734e-01  -9.6391978e-01   8.6309278e-01  -2.3767267e-01   9.7229724e-01   8.0179631e-01  -8.2570077e-01  -1.1990340e-01   4.6591056e-02   9.9733779e-01  -8.1049972e-01   8.5466409e-01   8.2967480e-01   5.2226260e-01  -3.5515144e-01   8.3912828e-01   5.1652951e-01  -4.5951294e-01  -7.9478091e-01  -1.5047179e-01   6.3408944e-01   3.8511438e-01  -6.4540224e-01  -3.7802092e-01  -5.0598524e-01  -5.6040239e-01  -1.1175611e-01  -9.7453997e-01  -7.6110097e-01   5.5946185e-01   1.0430920e-01  -5.0244518e-01  -3.8709312e-02  -5.6166498e-01   8.6879446e-01  -6.3615939e-01  -7.2123124e-01  -2.5878814e-01  -1.8781136e-01  -9.5463691e-01  -2.6154417e-01   7.1004720e-01  -7.3747541e-01   9.9160691e-01  -1.5457500e-01  -2.2125221e-01  -7.3114833e-01  -5.8965290e-01  -2.1037773e-02   6.2380706e-01  -2.6458949e-01  -4.4791009e-01   6.2192399e-01   7.6980418e-01  -5.0856381e-01   1.8575657e-02  -3.8824697e-01  -4.8445674e-01   7.6559761e-01   3.0257352e-01  -6.8992189e-01  -5.3631604e-01  -1.8825242e-01  -9.0324805e-01   5.6447891e-02  -5.2108738e-01   2.4665291e-01  -3.9219421e-01  -8.0475487e-01   5.3153084e-01  -3.5337635e-01  -1.0628476e-01   1.5427590e-01   1.2641723e-01  -4.7211721e-01  -3.2275826e-01   3.4740787e-01  -4.0633965e-01   1.7693322e-01  -6.0385286e-01   2.3228033e-01   4.9124416e-01   1.0999298e-01  -5.3784662e-01  -8.0140603e-01  -7.0242049e-01   3.9356222e-01  -7.1950883e-02   5.4500543e-01  -6.8713148e-02  -3.3557858e-02  -5.9881052e-01   5.5231671e-01  -1.9990235e-01   6.1737199e-01  -5.6860868e-01  -5.8375426e-01   3.5955689e-01  -9.1486237e-01   4.1221434e-01   8.9472077e-01   2.3801433e-01  -1.3000590e-01  -7.2031791e-01  -9.4839723e-01  -8.1411172e-01   2.1010604e-02   9.8819516e-01   8.3892709e-01  -8.2081579e-01   3.0052247e-01   2.2579258e-01   1.3000733e-02   8.9251118e-01  -4.2808492e-01  -9.2078163e-01  -2.1443842e-01  -3.1797337e-01   8.9876885e-01  -3.9609508e-01  -3.7911718e-02   5.6651432e-01  -3.7728365e-02   3.1383770e-01   3.2565098e-01   2.3777836e-01  -6.6820831e-01   9.5401058e-01   6.3213647e-01  -8.8460657e-01   9.9328294e-01  -7.7487859e-01  -3.5238751e-01  -4.4417847e-01  -7.6687518e-01  -3.9091232e-01  -1.4696272e-01   8.8246757e-01  -7.8550383e-01  -1.2842471e-02  -1.1184946e-01  -8.1562947e-01   7.5389437e-01  -1.0514429e-01  -4.6962329e-01  -7.5093004e-02  -1.4620029e-01   9.4153579e-02  -8.1221705e-01  -8.7995732e-02   1.5649627e-01  -8.0494915e-02   8.1637223e-01   9.7306254e-01   2.9713622e-01   2.8100672e-01  -8.7232081e-01  -7.6513149e-02  -6.0512071e-01   3.4706718e-01   5.7404057e-01   8.8595327e-01   3.8297996e-01  -2.3001116e-01  -5.0421777e-01  -8.3921322e-01  -1.5583560e-01  -8.6406720e-01  -4.4472315e-02  -2.5297750e-01   1.4146165e-01   7.0160269e-01  -3.9627580e-01   8.0958590e-01   5.1984250e-01   2.7592696e-01  -5.3916553e-01  -6.1666110e-01   3.7985485e-01  -1.6635517e-01   4.2064710e-01   2.4191773e-01   6.1243265e-01   6.9180162e-01   2.1884939e-01   9.9676374e-01  -1.1753106e-01  -7.4922814e-01  -2.6606908e-01   1.1043949e-01   2.6196427e-01  -6.0623431e-01   4.9296601e-01  -5.2418796e-01  -8.0517189e-01   1.7363455e-01  -3.3015248e-01  -5.8867189e-01   7.9211265e-01   1.5685002e-01  -6.5137600e-01  -6.3332360e-01   4.1296962e-01   3.7073300e-01   2.1672299e-01  -5.3483152e-02  -7.3159058e-01  -7.3806863e-01  -2.2841724e-01  -4.0224420e-01  -3.2270986e-03   1.7128554e-01  -7.6064989e-01  -6.1933340e-01  -7.1087775e-01  -8.2082997e-01  -2.5255514e-02   8.9605354e-01   8.0497260e-02  -8.7376448e-02  -6.6817644e-04  -3.4633987e-01  -5.5757984e-01   9.4990189e-01   9.2884042e-01   8.2298119e-01  -1.1982930e-01   8.1930549e-01   2.4841325e-01  -4.9639542e-01  -1.9186915e-01  -6.8730463e-01   4.3730723e-01  -5.5166145e-01  -4.8628460e-01   9.3874908e-01  -2.4354779e-01  -2.3240031e-01   2.6173550e-01   1.8404091e-01  -2.9915216e-01   6.8043852e-01  -6.4889541e-02  -5.7447267e-01   1.4322384e-01  -7.7510472e-01  -4.3535204e-01   9.2942797e-01  -1.6865755e-01   3.1853766e-01   9.4499359e-01   8.9881310e-01  -2.4653503e-01  -5.6737174e-01  -9.3576019e-01   1.8886536e-02   1.7152208e-01  -6.4986350e-01   5.6047883e-01  -8.0007802e-02  -1.7382297e-01   5.8987380e-01   3.1970365e-01   2.9178870e-01  -7.8648695e-01  -5.6901169e-01   9.2426987e-01  -7.9562094e-01  -3.0909522e-01  -1.1108208e-01   5.1823757e-01  -1.1226442e-01   3.0729345e-01   3.3498993e-01  -3.3147757e-01   4.0867570e-03  -2.3227849e-01  -3.8303806e-01  -3.8455169e-01  -8.7790060e-01  -1.3713245e-01  -2.1927617e-01   6.5499943e-01  -7.1998614e-01  -5.1517297e-01   4.5461317e-01  -4.7752642e-02   6.1218403e-02  -3.7598909e-01  -8.0782256e-01  -4.8248083e-01   1.8310466e-01  -1.4687366e-01   7.2728318e-01  -3.1627130e-01  -5.9976471e-01  -5.0148918e-02  -3.7069435e-01   9.8150717e-01   9.6977619e-01   7.6713276e-02   8.2133984e-01   3.2952502e-01  -5.9774386e-01   5.1490455e-01  -4.8253441e-01  -2.2413145e-01   4.7938154e-01   1.9859694e-01   3.9458499e-01   7.0972586e-02   8.4516417e-01   6.0824152e-01   9.4924087e-01  -2.0187548e-01  -9.8528137e-01   6.7437347e-01   9.0868004e-01   2.8131277e-01   3.5727661e-02  -4.8407603e-01   2.0406590e-01  -9.8490418e-01   4.5609327e-01   8.8769686e-01   3.5287525e-01  -5.9733921e-01   6.1097075e-01   5.7744813e-01   8.9347973e-01  -4.5840519e-02  -3.4616346e-01  -6.3793045e-01  -5.9370277e-01  -8.7793253e-01   5.0699984e-01   1.7054461e-01   5.3792214e-01   5.4305500e-01  -7.1224611e-01  -8.2646969e-02  -5.3717104e-01   7.2345056e-01   1.5524045e-01   3.7491704e-01   7.3528155e-01  -2.4582189e-01  -6.6947693e-01   7.1041762e-01   4.9704916e-01   3.4867579e-01  -2.6778134e-01  -4.7250966e-01   6.2928857e-01   5.4871645e-01  -9.9359320e-01   3.8777894e-01   9.6278206e-01   1.1723445e-01   3.6221076e-01   5.1376833e-01  -4.6990918e-01   2.0033154e-01  -5.9988215e-02  -1.5108696e-01   3.0922748e-01  -2.5627614e-01   8.4668841e-01   3.8750567e-02   8.2412640e-01  -5.7386202e-01  -4.2046374e-01  -5.6968041e-01   6.1054793e-01  -7.2156794e-01   2.0689843e-01  -3.0674817e-01  -5.4657846e-02   7.5111440e-01  -1.1504599e-01   2.2472031e-02  -3.3642852e-01   9.0858452e-01  -7.5829327e-03   8.3041043e-01   7.5124180e-02   4.0092915e-01  -3.7769521e-01   8.0288345e-01  -9.7920281e-01   7.1955496e-01   8.8140559e-01  -3.8375986e-01  -2.8533798e-02  -6.4433623e-01  -8.5860306e-01  -9.6873864e-01   2.1987164e-02  -7.9555974e-01   7.0803178e-01   1.3664097e-01   7.6348298e-01  -2.4013228e-01   2.4886576e-01   2.6706103e-01   9.2610918e-01  -7.5653400e-01   2.0526166e-01  -9.7310425e-01   7.0729861e-01  -4.0951476e-01  -9.2970490e-01   3.1143090e-01  -3.8252205e-01  -5.7537414e-01   6.1300461e-01   2.9384584e-03   4.6898324e-01   9.5384355e-01  -9.4726661e-02   9.4223860e-01  -3.2211554e-01  -4.5766514e-02  -9.8959453e-02   7.0639025e-01   4.7833754e-01  -8.6587411e-01  -7.7856877e-01   4.0190719e-01  -7.5426013e-01   7.8650860e-01  -2.6509417e-01  -7.9296933e-01  -5.1418259e-01  -8.0139287e-01  -7.2455485e-01   9.5108027e-01   8.3810079e-03   9.4876252e-01  -5.4960862e-02   6.8468031e-01  -5.3306427e-01  -4.2414865e-01  -8.2251500e-01   7.0178361e-01   3.3668183e-02   8.0072809e-01  -9.4220185e-01  -9.1028809e-01   5.6094135e-01  -4.4202086e-01   4.3605337e-01   2.7941383e-03   7.3919625e-01   3.1796622e-01   7.2008215e-02   4.6068701e-01   8.9993233e-01   1.9057538e-01  -4.7638071e-01   3.0562347e-01  -1.2433248e-01  -7.7891320e-01   6.4590089e-01   4.1018461e-01   8.2337298e-01   1.1155910e-01   3.6603596e-01   9.2486087e-01   2.5382900e-01  -9.1046706e-01   3.7143979e-01  -9.0401291e-02   8.3041436e-01  -7.0610041e-01   4.2546974e-02   1.4305982e-01  -7.6220785e-01   7.8690906e-01   4.9533877e-01  -3.9230589e-01   9.3587211e-01   2.5893295e-01   9.8749040e-01  -2.1416655e-01   9.2432510e-01   1.5617899e-01  -3.2287447e-01  -5.9696386e-01  -4.1607446e-01   5.4226991e-02  -6.6524347e-01   4.4913552e-01  -4.2627764e-02   5.2498029e-01  -9.5641041e-01   5.5140910e-01  -9.1061368e-01   5.3312600e-01  -2.4240907e-01   7.4292762e-01  -8.4577153e-01   6.3822295e-01   7.2419980e-01  -3.7810896e-01  -9.6231713e-01  -7.1091147e-01   7.8928566e-01  -7.9967209e-02  -9.9112345e-01  -5.6981845e-01  -3.0950976e-02   5.5116340e-01   2.6108622e-02  -4.2259739e-01   1.2112617e-01   5.0356717e-01  -2.1300928e-01  -3.2251692e-01   6.2279087e-01   6.4820678e-01  -5.2075749e-01   6.6875359e-01   5.1200686e-01   2.5611860e-01   6.6025676e-01   2.5257012e-01  -2.2260752e-01   5.6511717e-02   6.2318368e-01   5.2522849e-01   4.8680685e-01
  -7.6736407e-01   4.5816505e-01   6.2529995e-01  -3.0401371e-01   7.5845509e-01   7.8380506e-01  -1.2891661e-01  -1.2457556e-01   1.9894929e-02  -9.2146835e-01   8.2550094e-01   7.2880809e-01   7.2614503e-01  -2.0611178e-01  -6.4580254e-01   4.8336222e-01  -1.3516547e-01   6.7401843e-01   5.0726224e-02   5.4019667e-01   7.6323851e-02   2.4317635e-01   1.9863167e-01  -2.7857534e-01  -4.8710081e-01  -1.0484746e-01  -8.6513549e-02   3.0799651e-01  -5.0250919e-01   2.5175316e-01   2.1486674e-01   1.6497981e-01   5.0188313e-01   1.6493180e-01  -1.5340310e-01  -9.9813600e-02   7.6191516e-01   1.7467993e-01  -4.1097227e-01   6.7625737e-01   2.7069784e-01   9.5136482e-02   4.0127290e-01  -8.3272001e-01   1.7360786e-01  -5.3546442e-01   3.1301879e-02   7.1492721e-01  -2.1374466e-01   1.5576173e-01   3.5912865e-01   5.6248560e-01  -3.8949916e-01   8.4567298e-01   6.6751453e-01  -6.9364266e-01   6.8001871e-01   5.5326305e-01   9.3087010e-01   1.9958942e-01   2.4345822e-01  -4.2734466e-01  -8.1843474e-01  -9.4918396e-01  -3.0196541e-01   9.5549963e-01   2.8854856e-01  -6.8468516e-01  -9.8326451e-01   8.8069553e-01   2.0015439e-01  -1.8551393e-01   2.5690953e-01  -3.7522394e-01   1.9952765e-02  -6.4394904e-01   1.3472700e-01  -1.2122001e-01   8.3921172e-01   6.9151323e-01   6.6502688e-01  -9.4882455e-01   3.8411448e-01   4.3967887e-01  -4.0819143e-01   4.0401925e-01   7.5830152e-01  -7.6468553e-01  -8.9708724e-01  -3.8265317e-01   5.8239033e-01   9.5799727e-01  -2.3181858e-01  -5.5892754e-01  -3.6782939e-03   5.6861108e-01  -9.4031926e-01   9.1158448e-02   6.3370412e-01  -2.3057721e-01   1.7164202e-01  -8.9889797e-02   5.6647459e-01  -4.6646617e-01   2.7561184e-01  -2.5952585e-01   8.0087794e-01   9.2400842e-01   9.4978214e-01  -3.7010246e-01   7.2652815e-01  -6.7969828e-01   8.2294942e-01   3.8990037e-01  -3.0956459e-02  -6.1389786e-01  -9.3884408e-01  -9.0180283e-01   7.6682450e-01  -7.7002187e-01  -3.4160565e-01   5.0566542e-01   7.7769204e-01  -4.9860777e-01  -2.9092494e-01  -9.9307452e-01  -3.8127476e-01  -1.1173210e-01  -4.4652824e-01  -2.0415302e-01   8.9249489e-01  -6.6059785e-01  -1.8111786e-01   5.4350281e-01  -7.3127666e-03   8.2648284e-01   3.5604626e-01   8.1642629e-02  -9.3086088e-01   8.7746807e-01  -8.8688767e-02  -2.2076921e-02  -7.8442034e-01  -8.9572163e-01  -2.0567718e-01  -4.3311450e-01  -3.1679968e-01   1.4395229e-01   9.0182282e-01  -5.4929558e-01  -7.2479809e-01  -1.2213736e-01  -9.9866484e-01  -3.8456859e-01  -5.6109183e-01   9.0988357e-01  -1.3880381e-01   3.7739891e-01   7.8647090e-01   1.4441413e-01  -6.8060845e-01   1.9980223e-01  -7.3167760e-01  -2.0981894e-01   6.9971571e-01   3.5708511e-01   8.7586752e-01   7.5128412e-01   3.1317295e-02   7.5896159e-01   2.8204460e-01   6.0848750e-01   3.9143240e-01   6.8789943e-01  -4.8794093e-01   5.4486647e-01  -8.4610901e-01   3.6696408e-01  -9.1768876e-01  -8.9498029e-01   2.8498540e-01   6.2244606e-01   7.5318043e-01  -5.5292943e-01  -8.5242579e-01   6.7894234e-01  -8.4003809e-01   1.1904483e-01   1.8554789e-02  -6.8953739e-01  -3.2775517e-02  -9.8802362e-01   9.1147895e-01   6.6009381e-01  -2.8113495e-01   7.3369731e-01  -3.2570430e-01  -8.2939836e-01  -8.5298774e-01  -4.9791340e-01   9.9606897e-01  -5.3170629e-02  -2.7892952e-01  -4.8372668e-01  -6.1625343e-01   1.0959061e-01   8.6997745e-02   9.2762317e-01   4.9569233e-01  -2.3672347e-01   4.3776741e-01  -9.1540199e-01  -4.2641665e-01   6.8177146e-01   4.2537927e-02  -1.6943680e-01   5.2506981e-01   2.2172441e-01   1.8946988e-01   6.2775104e-01   1.5807935e-02   7.6336065e-01  -1.3688232e-01   9.6257136e-02  -3.3074032e-02  -2.9593971e-02  -4.7344563e-01  -1.9745740e-01   5.5290488e-02  -5.4037222e-01   3.9669116e-01   3.7907421e-01  -2.2222891e-01  -3.4633117e-02   8.8274050e-01   5.2383853e-01  -1.7092902e-01  -7.0959404e-01  -3.2770520e-01  -7.8325859e-01  -7.6032669e-01  -6.9077081e-01  -5.7829670e-01   1.2709244e-01   8.3947361e-02   6.7574643e-01  -8.6531400e-01   3.4414871e-01  -1.3419320e-01  -2.8132256e-01   6.8799812e-01  -6.9023487e-01  -3.4851921e-01   3.1014758e-01  -1.9154975e-02   6.9154593e-01   3.4425099e-01   1.0544748e-01  -6.9656417e-01  -4.9393409e-01   3.0549190e-01   7.9200092e-01  -6.3096948e-01  -4.7937467e-01  -5.4989815e-02   2.3159969e-01  -3.6407218e-01   7.0150864e-01   2.0194478e-01  -9.0470634e-01  -1.4945235e-01  -4.3307468e-01  -3.2424298e-01  -1.2901386e-01  -7.7758648e-01  -1.7489502e-02  -1.6317009e-01   1.8043212e-01   7.4530941e-01  -4.9145693e-01  -8.5669603e-01   7.1781031e-01  -3.6313626e-01  -1.8854030e-01   4.8570330e-02  -4.7280771e-01  -1.9301516e-01  -1.2278292e-01   8.0171132e-01  -9.3112510e-01  -7.4518495e-01  -8.2168673e-01  -5.0353432e-01   5.0357866e-01  -1.9503887e-01   3.3278810e-01  -8.2244443e-01  -8.4206495e-01   5.3459408e-01   4.1518300e-01   3.6357340e-01  -7.5275883e-01   2.3129722e-02  -6.3269996e-01  -9.4582943e-01   2.7681867e-01   4.9454948e-02   3.5404666e-01   6.4542521e-01  -5.3726216e-01  -7.2856015e-01  -5.0251846e-01  -7.8802885e-01  -9.9222409e-02   1.8981581e-02  -3.8612988e-01  -5.6617274e-01  -2.6485506e-01  -3.1979534e-01   3.1688714e-01  -6.6538415e-01   1.7917294e-01  -1.4109619e-02   8.6973344e-01  -9.4258381e-01   6.7572625e-01   1.6989231e-01  -4.9245427e-01   9.3334570e-01  -3.7451196e-01  -3.2200844e-01   5.6361594e-01   1.8314150e-01   6.7409978e-01  -2.4711234e-01  -4.7281951e-01  -2.4113505e-01  -1.2925366e-01  -2.3677202e-01   1.9901234e-01   3.9714929e-01  -7.8852528e-01   5.3637908e-01   6.7836560e-01   8.1019602e-01   4.3959080e-01   3.3807158e-01  -2.6400205e-01   3.6184991e-02   7.9499515e-01   6.0669196e-01   9.2443965e-01  -7.1128343e-01   7.7521232e-02   7.0749669e-01   6.0335311e-01  -9.5666258e-02   4.7335578e-01  -4.7420853e-01  -1.4269164e-01   4.0099536e-02  -3.1969424e-01  -1.3677223e-01  -1.8405581e-01  -9.8679744e-02  -8.3924412e-01  -3.2084936e-01   8.5108453e-01  -6.3863069e-01  -2.1064107e-01   9.7359319e-01   7.4869296e-02   8.8733968e-01  -3.8297657e-01   4.4634147e-01   4.0098305e-01   2.9419642e-01  -1.0122176e-01   9.3678500e-01   1.1976186e-01   4.7455006e-02  -1.1170316e-01  -7.7561924e-01  -7.3605517e-01   3.4743548e-01  -1.7945460e-01   2.2218475e-01   4.5524761e-01   6.8271262e-01  -5.2336400e-01   2.9530438e-01  -1.4164454e-01   9.2225501e-01  -6.2401432e-01   6.0048242e-01  -5.0918954e-01   7.5324355e-01   6.1374106e-01  -7.1866706e-01  -3.8907143e-01   4.2361966e-01   3.8646073e-01   6.1267756e-01  -9.3270350e-03   2.9473231e-01  -4.6509826e-01   1.3473279e-01  -8.9950517e-01  -8.0478738e-01   1.0946146e-01  -7.6440867e-01  -1.9877330e-01   7.4259411e-01  -8.3218805e-01   6.9689018e-01   6.3602525e-01  -2.1614751e-01  -4.4599842e-01  -3.1595831e-01   9.8796940e-01   1.9020968e-02  -3.3930346e-01   6.6017121e-01  -8.3789328e-01  -2.8455816e-01   8.9984941e-03   4.5353957e-03  -2.9211323e-02  -2.2426862e-02  -7.3133274e-01   2.1604323e-01   9.3603180e-01   2.1503551e-01  -7.1047147e-01   9.2513951e-01   1.6392720e-01   9.1620358e-01  -1.3399335e-01  -2.4676796e-01   2.8312256e-01   2.2225144e-01  -6.5571144e-01   4.5139733e-01   6.1074780e-01  -5.4419868e-01   4.4002346e-01   5.1694444e-01  -2.4350922e-01   5.9497882e-02   1.4726306e-02  -6.1383302e-01  -4.8104995e-01  -8.7896998e-01  -8.8545292e-01   4.6147624e-01   9.0523673e-01  -1.8417227e-01   4.3417617e-01  -5.9690119e-01  -8.3519779e-01   5.9461588e-01   9.7763846e-01  -2.1621937e-02   5.3343857e-01  -6.5303388e-01  -7.7559237e-01  -2.6511827e-01  -7.7903314e-01   9.5705963e-01  -3.1987168e-01   3.1812442e-01  -3.4919393e-01  -3.9633942e-01  -9.0560939e-01  -4.8150503e-01   5.8445321e-01   2.6265102e-01  -4.1898023e-01  -3.5441674e-01  -8.2584716e-01  -1.0622645e-01  -9.6442704e-01  -1.4029095e-01  -4.7098707e-01   3.5473084e-01   2.7098254e-01   8.4859927e-02  -1.5844386e-01   2.4315450e-01   6.2531999e-01  -5.4267454e-01  -1.0489306e-01   3.8856768e-01  -2.5519727e-01   2.4261374e-01   4.8896987e-01  -6.9947196e-01   2.4853512e-02   3.6641160e-01   4.3898253e-01  -4.8491334e-01   1.4215365e-01   1.2190346e-01   5.8321709e-01   7.8270835e-02  -4.6612157e-02   4.8060914e-01  -9.9546355e-01   5.0187020e-01   2.9738449e-01  -5.8256043e-01   6.2956922e-01  -9.7159327e-01   7.1926532e-01   7.9912192e-01   3.5708983e-01  -5.1719957e-01   2.2545176e-01   1.9227419e-01  -8.3628487e-02   7.5056401e-01  -3.7431878e-01   3.2543743e-01  -5.3203081e-01  -9.0591173e-01   7.7072949e-01   3.8758618e-01  -7.3505161e-01  -9.3655486e-01  -3.0636987e-01   4.9442773e-01   6.8825629e-01   2.9077549e-01  -7.2443530e-01   7.5039627e-01  -6.9670017e-01   7.1193403e-01   2.2510651e-01   4.5803536e-01   7.0812533e-01  -5.2821078e-01  -1.9931900e-01  -4.4738423e-01   7.3875100e-01   3.5301844e-01   2.1919387e-01  -3.3386335e-01  -8.9972948e-01  -3.9923253e-01  -8.9869563e-01  -3.8575953e-01   5.7616810e-01  -9.4678189e-01  -1.1630832e-02  -6.5974096e-01  -9.6697953e-01   6.0794934e-01  -7.2461212e-01  -7.1267436e-01  -1.1350065e-01   8.7065226e-01  -9.7885137e-01   4.7581445e-01   3.6288438e-01  -4.9891121e-01   5.1770940e-01   8.3145254e-01  -3.4740188e-01  -1.0993929e-01   2.1395098e-01  -3.7629752e-01  -4.4782884e-01   6.7414027e-01   5.1601247e-01   6.6583560e-01   6.7684267e-01   6.3372386e-01  -4.0873638e-01  -7.1019786e-01   2.2789383e-01   4.4805366e-01   1.1159160e-01   7.3319448e-01  -9.7316355e-01   2.8562096e-02   5.4065902e-01  -6.4431501e-01  -5.8118210e-01   3.4796876e-01   7.3500514e-01   5.0274114e-01  -3.6725353e-01   7.2008741e-01  -2.4313621e-02  -4.8306604e-01  -4.3208113e-01   2.8608329e-03  -5.7723047e-02  -8.4286309e-01   6.2421610e-01  -8.5822729e-01  -1.6065536e-01  -9.4638985e-01  -2.3548344e-01   4.6715437e-01  -6.3133177e-01   1.0580245e-01   6.9367010e-01   3.9956778e-01  -8.4882229e-01  -2.4034152e-01  -1.4264930e-01  -7.0575056e-01  -5.9868413e-03  -5.2203172e-01   8.1502612e-01   6.0040678e-02   1.6457023e-01  -9.8929187e-01   8.7038323e-01  -1.2989739e-02  -9.1216833e-01  -8.6387651e-01  -2.3524140e-01  -4.1008638e-01   8.9312730e-01  -1.3932764e-02   1.5869705e-01  -3.5889236e-01  -7.0111517e-01   1.7615286e-01   2.7539088e-01   3.4743793e-01   9.2699309e-01   9.1378860e-01   2.6424754e-01  -2.2340942e-01   5.8691087e-01  -4.5591533e-01   1.5528395e-01  -1.0934497e-01  -7.4693078e-01  -9.6114620e-01   4.6451486e-01   7.7012002e-01   7.1834389e-01   9.5088174e-01  -4.1108857e-01   8.7548714e-01   6.7348573e-01   3.3226334e-01  -4.0787425e-01  -4.7739779e-01   3.7575052e-01  -7.3011826e-02   6.8581554e-01   6.2055331e-02  -2.9782238e-01  -9.3708923e-01  -3.8958028e-02  -1.6320283e-01  -6.9606334e-01  -4.9279129e-01  -5.2930088e-01   8.3648991e-01  -3.9460748e-01  -7.6795334e-01   8.3509527e-01   2.5189725e-01  -7.2130509e-01   7.1716074e-01   3.9110611e-01   2.3070669e-01  -4.9681050e-01  -4.8432927e-01   9.9708422e-01   6.1990255e-01  -8.8819142e-01  -2.2538768e-01   8.3578393e-01   3.9328324e-01   3.8316366e-01   8.3116562e-01  -6.5328931e-01  -4.3882420e-01   1.3592887e-01   4.9719191e-01   3.0970557e-01  -1.8367759e-01   4.6360119e-01   1.0091832e-01   3.4715672e-01   6.7323579e-01   5.3166045e-01  -7.6521683e-01  -8.2783233e-01  -8.3778379e-01   9.5408697e-01  -7.4245000e-01  -7.8521435e-01  -5.2389965e-01  -2.2851221e-01   6.8415180e-01  -6.7251355e-01  -2.4216810e-01   9.9765479e-01   6.9787502e-01  -4.8185435e-01  -8.2589545e-01  -4.8558603e-01  -7.0715061e-01   5.7542206e-01  -7.9444852e-02  -2.5684610e-01  -8.8083938e-01  -1.3125033e-01   8.3024924e-01  -8.3126949e-01  -7.5592455e-01  -4.9759812e-01  -1.2971359e-01   3.8555310e-01   7.6799499e-01  -5.1208824e-01  -5.5641133e-01   8.7090518e-01   1.2009365e-01   8.9922949e-01  -8.8024385e-01  -1.1006732e-01   1.9986029e-01  -9.8890372e-01   6.6967913e-02   9.5996756e-01  -2.9740487e-01   9.8055619e-01  -7.8594746e-01  -7.1516601e-01  -5.9388002e-01   9.8153676e-01  -5.4761946e-01   6.6487263e-01   2.9345632e-02   4.7223186e-01  -4.9021347e-01   9.6004523e-01   5.3462756e-01  -2.9703324e-01   2.7767377e-01  -9.1963783e-01  -7.0587430e-01   4.2252214e-01   4.2294602e-01  -7.0642623e-01  -4.3032068e-01   9.6164502e-01  -5.5666109e-01  -6.3549543e-01   5.8700997e-01  -8.4695973e-01   2.5529893e-01  -3.2626388e-01   4.3203836e-01   5.1944126e-01   6.1533227e-01   6.4928884e-01  -8.0108834e-01   3.6403137e-01  -5.9883958e-01  -5.6214428e-01   8.9260071e-01  -5.5045972e-01   3.9982775e-01   8.8756576e-01  -8.3666736e-01  -8.8101941e-01  -2.7217601e-01   6.4348689e-01  -2.9032871e-01   6.8828892e-01   6.0929596e-01  -2.7063121e-01  -4.8656896e-02  -6.3186958e-01   5.1151246e-01   2.0921177e-01   6.2886350e-01  -4.4291701e-01   4.9538291e-01  -4.2645890e-01   4.1452286e-01   5.7618803e-01   4.4612071e-02   3.6655474e-01   5.0903913e-01  -5.4392787e-01   5.0150852e-01  -6.7838718e-01   3.9883501e-01  -2.0962648e-01  -1.3143314e-01   3.5732166e-01  -9.6188217e-01  -3.6686590e-01  -8.9159160e-01  -5.3216646e-01  -3.8625694e-01   2.6109990e-01  -5.7649822e-01   6.6719684e-01  -5.4822271e-02  -1.8244701e-01  -1.2328843e-01   2.6369513e-01  -3.8738898e-01  -8.1501927e-01   5.8415372e-01   5.9431909e-01  -8.2571335e-01  -6.6344377e-01  -2.5505317e-02  -7.0316423e-01  -8.0775205e-01  -9.7045966e-01  -8.2453311e-01   3.7292692e-01   6.3623513e-01  -2.6440006e-01  -8.0549196e-01   9.4813678e-01   8.4474216e-01   9.9946208e-01   7.3006096e-01  -1.8869957e-01  -2.7008484e-01  -5.8576706e-01   6.1369664e-01   8.0131049e-01  -9.3346501e-01  -6.0792630e-01   9.6787888e-01   4.6557532e-01  -5.9832503e-02   2.1012446e-02  -5.0468706e-01   5.9921770e-01  -4.0793154e-01  -5.3707639e-01  -9.5774000e-01   1.2777713e-01   9.2269030e-01  -1.1110555e-02   6.4384501e-01   8.3773996e-02  -7.4560892e-01   9.0035225e-01  -7.6547155e-01   7.3661741e-01  -1.3081259e-01   3.2466518e-01   9.6622243e-01   7.9259777e-01  -6.0888726e-01  -9.1351459e-01  -7.3423152e-01  -8.3243485e-01  -8.3954873e-01   1.5472796e-01  -9.4637733e-01   8.8417392e-01  -4.4939931e-01   7.0709825e-02  -6.4453619e-01  -4.7264188e-01   9.3371685e-02  -3.3527737e-01   1.7444313e-01   6.9337274e-01   5.8029028e-01  -7.4253792e-01  -1.5622286e-01  -8.0009487e-01   7.5102673e-01   8.3208676e-01  -2.1160953e-01   1.5380336e-01   9.6615971e-01  -2.6583714e-01   8.8224328e-01   1.5085783e-01   6.2899207e-01  -9.7905558e-01  -8.5972033e-01   5.4039461e-01  -3.6971438e-01  -5.2421623e-01  -4.1800396e-01   3.1315259e-01  -1.7212368e-01  -8.3607112e-01   4.5588035e-01   9.0415078e-01   9.5224284e-01   7.8167975e-01   5.4701188e-01   4.3999378e-01  -9.7328969e-01   4.3586260e-01  -6.8412720e-02  -7.0139698e-01   4.8087483e-01   2.8174276e-02   4.5303088e-01  -3.9747365e-01  -6.6656728e-01  -2.3704779e-01  -5.4154172e-02  -1.2763968e-01   8.0778384e-01   8.7721659e-01  -6.1280370e-02   5.1253083e-01   3.1435494e-01  -7.2004312e-01   3.9213223e-01  -3.4822956e-01   8.3997917e-02   2.8985614e-01   7.4035348e-01   1.6573883e-01  -5.2999603e-01   4.3130514e-01  -3.6633579e-01  -4.5956234e-01   8.1674807e-01   6.1078230e-01   6.2907656e-01  -1.2375758e-01  -2.7818049e-01   3.8797747e-01   1.4059981e-01   1.4026483e-01  -5.4737214e-01   7.6094035e-01   9.2328400e-01  -3.6721326e-01  -3.5847812e-01  -7.4005709e-01   8.3500901e-01  -5.2003494e-01   3.0240393e-01   9.4231224e-01  -4.5935853e-01   3.9479370e-01   2.4947541e-01  -3.3644054e-01  -1.2838840e-01  -9.2968697e-01  -9.2503383e-01  -8.4778290e-01  -5.8615009e-02  -1.3489925e-01  -3.2319215e-01   2.4755136e-01   8.1555819e-01   6.9372284e-01   7.7730427e-01  -1.1528146e-01   1.5622460e-01   3.0402888e-01   6.0835699e-01  -6.7993854e-01  -5.5563069e-01  -9.1645718e-01  -8.7859593e-02  -3.7325656e-01   8.0208233e-01   7.2110809e-01   6.7969390e-01  -5.6214661e-01   4.1599023e-01   7.0580248e-01  -7.1196306e-01   3.7277381e-01   8.1939543e-01  -1.4310816e-01  -7.5161401e-01   7.1795455e-01   8.7700283e-01  -1.5466969e-01   8.1158133e-02  -9.3687914e-01  -3.2770506e-01   4.8024510e-02  -8.3524405e-01   6.6130572e-01  -1.6473776e-01   4.7415322e-01  -9.3233790e-01   7.9717867e-01
