  -3.7896118e-01  -8.4040896e-01  -1.2910991e-01   2.7318559e-01  -2.4402649e-01  -2.0764302e-01  -5.5602410e-01   6.5957206e-01  -1.3046286e-01   8.9630534e-01  -7.7452562e-01   2.9704950e-01   2.7347624e-01   2.4496891e-01   1.9789283e-01  -9.0240253e-01  -7.0718127e-01  -6.9337281e-01   7.9669264e-01   9.5422432e-01  -9.3825235e-01  -5.7840219e-01  -2.7711126e-01   2.7169079e-01  -8.0002422e-01   5.6339981e-01   8.9166799e-01   8.1389870e-03  -5.1327632e-01   9.3631399e-01  -7.4797873e-02  -3.9889089e-01  -3.4895341e-01  -8.4149348e-01  -8.0523029e-01  -4.0578668e-01  -4.8395988e-01  -5.6248666e-01   2.6653100e-01   7.5432099e-01  -9.8437118e-01  -9.5637180e-01   1.8184327e-01   3.7942324e-01  -4.5651251e-02   9.9927634e-02   8.5078414e-01  -2.5320178e-01   9.6427000e-01  -3.0016753e-01  -1.5130879e-01   2.8484993e-01   7.3394156e-01  -3.1339308e-02  -7.5520300e-01   9.2005844e-01   8.0167535e-01  -6.8285454e-02   5.8972354e-01   5.4074030e-01  -4.4700479e-01  -6.1518498e-01   8.1628993e-01  -2.7673423e-01  -4.4741863e-01  -4.4906803e-01   4.9202081e-01   8.1047789e-01   1.3977839e-01  -6.3366196e-01  -1.3930394e-01  -6.5251677e-01  -2.6273552e-02   7.3406946e-03   6.3325244e-01   9.5190279e-01  -2.4198043e-01  -3.3955468e-01   1.4321880e-02  -2.9715722e-01  -1.0758178e-01   5.9262607e-01  -8.2096984e-02   9.4958510e-01   5.5351344e-01  -9.6138703e-01  -1.6488939e-01   2.3106994e-01  -5.2852808e-01  -7.0079634e-01  -8.8305839e-01   2.8171338e-01  -9.1907680e-01  -9.8849690e-01   6.7834224e-01  -4.0412910e-01  -4.1828072e-01   2.7998281e-01   6.4400520e-02  -3.1053194e-01  -6.9287004e-01  -1.0760432e-01  -1.5540219e-01  -7.0605178e-03   1.7889873e-01   2.0168969e-02   4.5501196e-01   3.1342533e-01   2.8935054e-01  -3.8232425e-01   8.4229218e-01   6.8272194e-01  -5.4807699e-01  -7.1311967e-01  -5.1165638e-01   8.7231767e-01  -1.8802907e-01  -2.0907079e-01  -3.0124988e-01   5.0982508e-01  -6.3904117e-01  -7.2971388e-01   4.7100994e-01  -9.1428232e-02  -4.5179622e-01  -1.6482791e-02  -5.7257874e-01  -2.2032347e-01   3.7256430e-01   8.7682349e-01  -2.3007751e-01  -6.7117934e-01  -6.6782277e-01  -3.3465905e-01  -6.7718979e-01  -5.3258364e-01  -3.1910749e-01   7.8523114e-01  -4.5644686e-01  -5.6227711e-01  -3.3595492e-01  -8.3893720e-01  -1.5468214e-01   5.6626103e-01   6.3785192e-01   6.3549338e-02  -5.7599861e-01   5.7005142e-01   8.2145088e-01  -8.0476403e-01   7.4340183e-01  -4.6973214e-01   8.4851117e-01   8.7025715e-01   8.8848300e-01  -9.0966882e-01   8.1719146e-01   3.1585411e-01  -9.7502284e-01  -5.6291223e-02   7.6120974e-01   5.8799618e-01   9.7047549e-01   4.4015464e-01  -1.9505564e-01  -8.0212733e-01   8.7932420e-01   7.4969859e-02  -8.1874818e-01  -3.5290005e-01   6.5122177e-01  -9.0500364e-01   4.1306899e-01  -5.4071510e-01  -9.7987200e-01  -4.9979776e-01  -5.9515388e-02  -7.9049138e-03   7.8329869e-01  -6.7546425e-01   3.3404076e-01  -4.0034923e-01  -1.8150412e-01   9.5123081e-01  -8.8625022e-01  -1.3294214e-01  -6.0311577e-01   3.0043886e-01  -6.6170000e-01   9.3963929e-01  -2.6097035e-02   1.3813444e-01  -9.9131356e-01   6.9132476e-01   9.5948329e-01  -8.4893031e-01  -2.4496685e-01   9.9955392e-01  -8.9508243e-01  -1.2982124e-01   5.8115330e-02  -9.9312208e-01   3.4735548e-01   8.2214389e-01  -2.8361264e-01   5.0112026e-01  -5.5845183e-01   8.8461035e-02   5.6744661e-01   1.9328601e-01   7.0680391e-02  -9.1083154e-01   6.7394180e-01   7.6444154e-01   5.7266771e-01  -6.3692761e-01   1.3281763e-01  -9.5926698e-01   6.5180672e-01  -1.3778463e-01  -1.0112008e-01  -9.3519879e-01  -8.8700360e-01   3.9403799e-01   7.4819608e-01  -5.0032508e-01  -2.4741182e-01   6.1870156e-03  -9.9070776e-01   2.3066618e-01  -3.4782577e-01  -4.4396490e-01   7.3363658e-01   1.9521210e-01   5.1347822e-01   3.7066189e-01  -9.8406100e-01   2.1860990e-01  -2.5224829e-01   2.8345825e-01  -4.6570442e-01   2.8501620e-01  -9.4227219e-01  -9.2105362e-01   9.1030530e-01  -8.6482125e-01  -8.1388938e-01  -2.8958923e-01  -7.5969674e-01  -5.9684905e-01  -1.7130073e-02   4.7991979e-01   5.1600611e-01   3.2242450e-01  -3.4092840e-01  -3.2115091e-01   4.4142373e-01   9.7929142e-01   6.1889915e-01   9.5212983e-01   2.5678294e-01  -6.9619221e-01   9.8326093e-01  -2.0438399e-01  -3.8156125e-01  -8.7967665e-01   5.9871915e-01   1.9240371e-02  -4.9567329e-01  -5.3913862e-01   7.3431133e-01  -4.5233112e-01   2.0187866e-01   5.1558277e-01   6.1893757e-01   8.3994447e-01   8.9364973e-01   3.2431266e-01  -8.6613054e-02   1.8160731e-01  -6.0755561e-01  -1.3158030e-01   5.4320118e-01   9.0416109e-01   9.5095112e-01  -3.8357686e-01  -9.2040950e-02  -6.1389765e-01  -2.6619705e-01  -8.2582697e-01   3.4847546e-01   3.9756321e-01   9.9500019e-01  -1.9248359e-01   4.9037067e-01  -5.0854778e-01  -5.8883263e-01   2.0126921e-01  -3.7548593e-01   6.1426673e-02   9.6287839e-01   9.1366317e-01   9.6474463e-01  -4.4527192e-01  -5.9419379e-01   3.2859346e-01  -5.1472868e-02  -7.8253161e-02  -8.5442240e-01   2.6114022e-01   1.5100145e-01   4.9922500e-01  -8.5948418e-01   7.5161583e-01   8.4361627e-01  -3.2136732e-01   4.4891060e-01  -9.5494800e-01  -1.7456706e-02   8.8762010e-01   7.4828027e-01   1.9202582e-01  -9.8093695e-01   6.3357948e-01   3.4303727e-01   3.9808801e-01  -2.9855893e-01   6.3192905e-01  -6.5776180e-01  -7.9678032e-02   7.1570119e-02   5.4731501e-01   5.1762294e-01  -4.1653331e-01   6.3930036e-01   8.3156070e-01   5.4496181e-01  -5.1287627e-01   2.1626690e-01  -2.0703190e-01   2.0624033e-02  -9.3741650e-01   3.3156129e-01   8.1282952e-01   5.8261180e-01  -2.6013657e-01  -6.2841631e-01  -5.7342165e-01   2.0995222e-01  -6.4157536e-01  -6.4419478e-01   9.5578848e-02   2.7221781e-01  -9.3110351e-01  -5.4670234e-01  -4.2406672e-03  -4.0861505e-01   7.7662068e-01   6.8201216e-01   5.8345589e-02   1.5172434e-01   5.7221301e-01   1.8123184e-01   7.8568463e-01  -8.7812002e-01   1.1574371e-01  -9.5712298e-01  -9.0716634e-01   5.5868565e-02  -4.2425883e-01   6.6138579e-01   2.2160973e-01  -8.1437921e-01   2.8744695e-01   1.9537069e-01   8.9336807e-02  -5.9080342e-01   2.8469112e-01   3.4819408e-01  -4.8765948e-01   7.6341259e-01  -6.5425648e-01  -6.2739385e-01   7.1193097e-01  -8.6396828e-01   3.8066817e-01   6.2071197e-01   3.7919522e-01   9.7672580e-02   7.2164587e-01   1.0432803e-01   4.6475106e-01  -6.3172623e-01  -4.2317681e-01  -1.7652366e-01   9.2850690e-01  -2.7184249e-01  -3.2831893e-01  -6.9966144e-01  -4.6625830e-02   7.1543325e-01   4.9943380e-02  -6.5340056e-01  -4.5723795e-01   1.5178657e-01  -6.8023072e-01  -4.5522499e-01   1.9079401e-01  -3.2039914e-02   1.3222300e-01  -4.4624072e-01  -3.3097486e-02  -9.8188022e-01  -5.3593236e-01  -6.2399257e-01   1.7904705e-01   3.6368299e-01   3.3808137e-01   2.8360608e-01  -7.6188301e-01   7.7438572e-01  -1.2188037e-01   9.5479441e-02  -1.8035579e-01  -1.3617905e-01   8.3019728e-01  -2.7185247e-01   2.6900066e-01  -2.1655768e-01  -8.8848019e-01  -4.4127932e-01   9.0932049e-01   1.7756460e-01  -5.4282296e-01   9.0104719e-01   1.9348462e-02  -3.7328817e-01   4.8439455e-01   7.8685699e-01  -1.0829054e-01   6.6686396e-01  -1.7577789e-01  -6.7615760e-01   7.4112597e-01   8.1702704e-01   6.6442755e-01   8.6375122e-01  -5.6874492e-01  -1.0854251e-01   9.8943312e-01  -8.6450698e-02  -3.6622245e-01  -6.5389160e-01  -7.4664373e-01  -2.1124527e-01   1.1074684e-01   4.1949640e-01  -5.9788271e-01  -2.4379396e-01  -3.5514876e-01   4.2809150e-01  -5.8507829e-01   1.0099427e-01   1.4536068e-01   7.2221731e-01   7.5124512e-01   7.3984465e-01  -6.0119406e-01   3.8046122e-01   9.6335864e-01   7.6244757e-01   9.9014828e-01  -8.4414989e-01   8.6513107e-01  -3.0341103e-01  -1.1784972e-01   4.5385939e-02  -5.8188128e-01  -6.4286451e-01   3.7226473e-01  -9.7011434e-01  -9.5120327e-01  -6.6650121e-01   5.7002856e-01   4.7240331e-01   1.8015288e-01  -4.3394158e-01   7.1024726e-01  -6.0252782e-01  -2.9172052e-01  -5.1501046e-01   6.0456621e-01  -2.7081144e-01   5.9920607e-01   2.0125800e-01  -7.8192799e-01   6.5843026e-01   6.1800405e-01   3.7479074e-01   7.2321141e-01   4.1645575e-01  -2.0633755e-01  -4.9822437e-01  -3.8078835e-01   3.2162945e-01   2.0600454e-01   8.5733319e-01  -3.7153768e-01  -3.5759857e-01  -6.9514893e-01   3.7014852e-01  -3.7899464e-01   4.1409699e-02   6.7952573e-01  -9.9675620e-01   1.6197321e-01  -7.4896909e-01  -5.3877166e-01   1.5396084e-01   5.1979565e-01  -3.1242155e-01   8.0599481e-01  -9.7265991e-01  -7.5804227e-01  -6.8475888e-02   9.3681781e-01  -8.0622201e-01  -4.0219723e-01   1.0607669e-01  -3.7335921e-02  -6.3510120e-01  -1.8805949e-01  -3.5263216e-02   6.6546440e-01   9.2260284e-01   8.4985331e-01  -8.2496577e-01  -9.5478570e-01  -9.7667849e-01  -6.2841330e-01  -4.0913810e-01  -3.9993845e-01  -7.0469634e-01  -9.9510329e-01  -4.7686987e-01   4.2505605e-01  -4.1592534e-01  -9.0070606e-02  -6.4118938e-01  -2.7054814e-01  -5.9796599e-01   1.7739908e-01   7.3794130e-01   7.5404815e-01  -6.9294939e-02   5.8100513e-01   7.8899683e-01   4.2001269e-01   1.5821695e-01   5.1553126e-01  -6.3727185e-01  -9.5393563e-01  -5.3489883e-01  -7.9126478e-01   8.9715079e-01  -9.2618652e-01  -4.0297763e-01   9.1377570e-01  -9.3907800e-01  -2.4413074e-01   5.5582210e-01   5.5566372e-01  -7.7923339e-01   8.4188368e-01  -5.4815785e-01   3.5898395e-01   3.9995408e-01   3.1324185e-01  -2.8335678e-01   5.8205934e-01  -9.1807397e-01  -8.9535026e-01   5.2779837e-01   5.0455332e-03  -5.7539932e-01  -4.4343802e-01  -3.4309352e-01   2.4732412e-01  -5.6054739e-01  -1.1978805e-01   1.4449433e-01  -4.6250372e-01   1.2541328e-01   2.8337273e-01   3.6018090e-01   3.7355084e-01  -8.8916139e-02   2.5976025e-01  -8.5378957e-01   6.0938959e-01  -9.7106889e-01   1.6441346e-01  -1.3124821e-01   1.2067369e-01  -9.3269360e-01   2.7424677e-01   7.2825709e-02   4.2525057e-01  -2.0141098e-01  -3.4486336e-01   7.5339596e-02   7.2173766e-01  -6.9598708e-01   5.1069787e-01   8.4482591e-01   2.7703878e-02  -7.0966945e-01   2.6512583e-01   8.8107567e-01  -7.1027875e-01   8.0374230e-02   6.2422342e-01  -1.8261288e-01   3.1378970e-02   8.1357176e-01  -1.5922783e-01   7.0883479e-01  -1.9271108e-01   4.8774485e-01   1.6502952e-01  -6.3205685e-01   5.7963248e-01  -5.4744938e-01   1.7715102e-01   3.6684993e-01  -4.3352174e-01   3.8988916e-02   1.4114008e-01  -7.6742033e-01   1.6816092e-01   7.6250765e-01  -3.4885897e-01  -4.6592769e-01  -4.2587957e-01   4.6462020e-01   3.3233514e-01  -5.2158386e-01  -4.6179701e-01  -8.5897734e-01   1.2372325e-02  -2.9646064e-01  -6.0304477e-01  -6.7446611e-01   7.0210939e-01   8.7235449e-01  -4.7772539e-01   9.5857293e-01  -6.5097173e-01   3.5350241e-01   3.1687111e-02  -4.0111499e-01  -2.5307798e-01   8.6495432e-01   1.8207423e-01   5.7111943e-01   8.0204017e-01  -7.0226256e-01   7.5402674e-01  -5.1938926e-01  -2.3725362e-01   5.4675396e-01  -3.9301656e-01   4.5174871e-01  -3.5306688e-01  -1.2872451e-01  -9.2622759e-01  -6.4119073e-03   8.6993872e-01   4.0912568e-01  -1.6994858e-01   8.6722458e-01   8.0174313e-01  -5.7690949e-01  -5.5653380e-01   6.8335511e-02   7.5018861e-01  -8.3788401e-01   5.4708228e-01  -2.5356766e-01   5.0442014e-02   9.5627591e-01  -9.2539438e-01   5.5417467e-01   4.7897256e-01  -4.3238882e-01  -9.7695180e-02   1.1271630e-02  -3.6300233e-01   3.1490725e-01  -8.3688061e-01   2.0713504e-01  -8.3728723e-01   7.5229291e-01   8.0578631e-01   2.0134169e-01  -6.6161171e-01  -8.5596153e-01  -9.5096533e-01  -8.5953571e-02   1.0023363e-01  -3.0141226e-01  -4.3878754e-01  -9.8586123e-01  -1.3437688e-01  -9.1362341e-01   2.3252109e-01  -1.1981360e-01  -1.2620666e-01  -1.1047758e-01  -7.4847928e-01   4.0478866e-01  -2.0842005e-01  -9.1870238e-01   2.7657666e-01  -3.0089895e-02   3.6080746e-01  -3.5578911e-01   9.3208068e-01  -5.0980738e-02  -4.9216700e-01   6.4041750e-01   9.5749404e-01   2.4481886e-01   5.4512875e-01   2.3768126e-01   7.2524655e-01  -2.0676110e-01  -4.8776695e-01   1.1328018e-02  -9.8709013e-02   4.6238588e-01  -5.6532125e-01   5.3437477e-01   1.2629015e-01  -7.5908492e-01  -5.4341123e-01  -4.8098275e-01   3.7408945e-01  -9.3776124e-03  -4.9183021e-02   2.7885892e-01   7.4071498e-01  -5.7475443e-01  -9.4037095e-01  -4.3658359e-02  -6.9855438e-01   8.4140754e-01  -4.8172820e-02  -3.5179681e-01  -9.8844980e-01  -7.9413693e-01  -4.4328917e-01  -5.5084522e-01   2.0696146e-01  -9.2755472e-01   9.6043293e-01  -8.8591940e-01  -1.2792645e-01   8.8218369e-01   3.5389491e-01   8.8935445e-01  -7.6725713e-01  -8.6620775e-01  -9.0041492e-01  -9.8737632e-01  -4.3724311e-01   7.5057741e-01   2.2177996e-01   2.0228326e-01   7.7667251e-01   3.8778799e-01   5.8250618e-01   4.3136935e-01  -5.3554333e-01  -7.8170311e-01   5.1046559e-01  -3.6902662e-01  -9.5432206e-01  -2.3671163e-01  -4.1358059e-02  -4.5226547e-01   3.4588073e-01  -5.3079414e-01   7.1377386e-02   2.2591627e-01   7.3946019e-02   9.4324901e-02  -1.1558096e-01   1.4176826e-01  -9.6545462e-01  -6.8095057e-01  -2.0098577e-01   1.8151046e-01   1.0043433e-01  -7.4212498e-01   7.2073747e-01   5.5697374e-02  -7.4174572e-01  -2.1309788e-01   1.7055624e-01   2.9304859e-02   2.0234613e-01  -9.3568396e-01   2.7016204e-01  -7.2544852e-01   2.4450291e-01   2.1762472e-01   1.8412710e-01   6.9479318e-01   9.5424284e-01   4.3853427e-01   5.2368827e-01  -3.4988398e-02  -7.9219605e-02  -9.8484931e-01  -6.4162421e-02  -2.9102690e-01  -8.6873078e-01   1.9971316e-01  -5.4414001e-01   2.8269262e-01  -5.4380978e-01  -2.8241098e-01   4.3517188e-01   8.5994815e-01   6.8552997e-01  -7.3190977e-01   2.4477773e-01   2.1940291e-01  -3.5781531e-01   1.0639078e-01  -6.5220164e-01   3.0020012e-01   2.5885569e-01   8.0095483e-01   7.1746229e-01  -6.5682462e-01  -4.3508725e-01  -2.8967683e-02   3.7082061e-01  -2.1687882e-01   6.9618708e-01  -9.7603855e-01   3.4224198e-01   4.8175205e-01   7.8470914e-01   2.1163120e-01   1.6996383e-01  -9.2583845e-01   5.6959111e-01   8.4426681e-01   9.2218709e-01   1.9280150e-01   1.3611106e-01   9.7876532e-01   8.1548459e-01  -2.6123848e-01  -3.0191492e-01  -5.1510978e-01  -4.5216117e-01   3.4840383e-01   3.4710459e-01   4.0113933e-01   4.3093239e-01  -4.6332985e-01   6.7719948e-01  -8.3106714e-01  -2.2870898e-01  -3.1071361e-01  -7.4022485e-01  -7.6804838e-02  -9.2726631e-01   5.7321674e-01   7.5018149e-01  -5.5669964e-01  -8.5377740e-01  -1.1009795e-01  -8.5887408e-01   2.1776176e-01  -2.7837728e-02  -5.0653332e-01   8.7234205e-01  -5.5045592e-01   3.2499983e-01   1.3885744e-01  -6.6845799e-03  -1.2851119e-01   6.1868747e-01  -5.4460135e-01  -9.9967320e-01  -9.0224375e-01  -4.9908538e-01   5.0906887e-01   6.4328865e-01  -2.6080191e-01   7.9067364e-01   4.0203070e-01   8.9486879e-01   8.8931804e-01  -7.1206341e-01   9.8358640e-01   3.6982223e-01   5.7549084e-01   9.4519487e-01   9.3439314e-01  -4.9798342e-01  -3.3357260e-01  -1.9243475e-01  -7.0921535e-01   7.3958872e-01   1.5742207e-01  -7.2194814e-01   5.3020822e-01   2.7115470e-01  -4.9361961e-01   4.8356096e-01  -7.7176085e-01   7.8162096e-01   5.4680514e-01   8.5092458e-01   9.0914364e-01   2.7141679e-01   8.3737142e-01  -3.4489975e-01  -1.8530754e-01   2.1635010e-01   1.5309681e-01  -1.8325325e-01   8.4473801e-01   1.4359865e-02  -1.0626151e-01  -9.7145866e-01  -9.9940108e-01  -2.7982764e-01  -6.4172099e-01  -5.9987920e-01  -1.6423973e-01   8.6147818e-01  -2.8958798e-01   4.8739387e-01   5.7243001e-01   5.0063683e-01  -4.6350259e-01  -6.6962479e-01   7.5417782e-01   7.9463113e-01  -3.0267391e-01  -6.5023385e-01  -7.1732296e-01   9.2868574e-01   3.2416916e-01  -4.9650563e-01  -7.0251206e-01  -5.4332283e-01   6.3078002e-01  -6.5618008e-01  -2.6443354e-01  -8.5458211e-01  -3.9511871e-02  -9.1535198e-02   2.2160999e-01  -9.2184489e-01   7.9338723e-01  -8.4552744e-02   1.8082991e-01  -6.8660985e-01   4.6066086e-01   7.4787362e-01   1.2736371e-01   7.6075140e-01  -1.1774858e-01   9.5950702e-02  -3.8458934e-01  -9.5673108e-01  -9.7678305e-01  -2.0388433e-01  -7.4148791e-01  -5.2914701e-01  -4.6210433e-01   5.9236174e-01  -6.4308127e-01   1.9762516e-01   9.5228267e-02   6.7051343e-02  -6.5791519e-01   5.1084102e-01   4.8558587e-01  -4.9605160e-01  -2.5012053e-01   5.9809792e-01
   7.5220527e-01   9.1448744e-01  -2.4992156e-01   7.0521308e-01   1.5532287e-02  -4.6256235e-01  -4.1788964e-01   1.0861433e-01  -6.6436683e-01  -9.5929762e-01   8.0918482e-01  -3.2487797e-01  -2.3065212e-01  -1.6733894e-01  -4.5218816e-01   5.9629723e-01  -3.2050397e-01  -3.7592129e-01  -8.2937160e-01   5.3325877e-01   9.8463117e-01   7.7498343e-02  -8.7041464e-01  -3.0565598e-02   4.0458289e-01   1.5531813e-01  -5.8160678e-01  -4.6750979e-01  -6.7661423e-01   3.5102790e-01  -5.7831465e-01   5.8108397e-01  -4.3347622e-01   2.0734812e-01  -1.5494932e-01   5.0876768e-01  -5.5932735e-01   5.6885793e-01  -6.6449478e-01  -3.4445275e-01  -9.8310582e-01  -1.3825646e-01  -7.0958331e-01  -5.4439749e-01   5.4631100e-01  -6.1127981e-01  -9.4303427e-01  -9.5207043e-01  -9.8043921e-01   1.4213183e-01  -8.4799917e-01   1.5095752e-01   9.3322173e-01   1.6150556e-01   5.8557684e-01  -9.5916721e-01   8.2010090e-01   4.3135213e-01  -4.8892510e-01   9.4491067e-02   1.6746846e-01  -1.2003073e-02  -4.2689339e-02  -6.8608429e-01  -7.8402421e-01  -1.1693985e-01   9.1040155e-01  -6.3119871e-01  -6.2252733e-03  -2.0261743e-02  -1.8553394e-01   2.6554067e-01  -1.3135549e-01   2.1319322e-01   2.4748773e-01   4.5797329e-01   9.7779917e-01   2.3436081e-01   3.1880857e-01   1.3355040e-01   2.7511004e-01  -1.9584203e-01  -4.9573775e-01   4.7297356e-01  -3.3831506e-01  -9.8538450e-01   1.8049771e-01  -4.6769273e-01  -2.4315852e-01   8.2215108e-01   1.8047787e-01  -6.3371986e-01  -5.0336455e-01   1.9582763e-01   8.3019694e-01  -6.7988266e-01  -7.3660589e-01  -9.9346925e-02   6.6010505e-01  -2.6643182e-01   7.4618784e-02   2.2733736e-01   9.9415240e-01   8.6303185e-01  -9.4904795e-01  -9.2433865e-01  -7.0961990e-01   5.0575569e-01  -5.9660738e-01   5.1336664e-02  -5.9682024e-01  -6.0524661e-01  -8.9003756e-01   5.1067193e-02   9.4479464e-01   5.0485466e-01   8.0001137e-01  -9.4409309e-01   9.3048912e-01  -3.1947320e-01  -2.3191166e-01   9.6957841e-01  -3.7455660e-01   5.1272215e-01  -7.1209196e-03   2.5058208e-01   2.3305854e-01  -2.0726634e-01   7.0677631e-01   6.4399017e-02   4.9493613e-01  -8.7880450e-02   6.9109144e-01  -1.4724560e-02  -7.3299527e-01   4.0524970e-01   7.8691571e-02  -2.5569780e-01   9.7943970e-01  -8.9126847e-01  -4.2372256e-01  -9.2908663e-01   8.2936910e-01   5.6725121e-01   3.8805077e-01   4.6622886e-01  -7.1813918e-01   9.2474694e-01  -7.5708392e-01  -3.6481520e-01   3.0400135e-01   1.9172401e-02  -3.5076849e-01  -6.4779602e-02   9.0349082e-01   5.2079991e-02   2.9426659e-01  -4.9614605e-01   2.1805706e-02   3.4176124e-01   5.2817419e-03   1.6830370e-01  -8.5396951e-01   8.7811371e-01   9.2178561e-01  -3.5397183e-01   6.9721898e-03  -7.5453924e-01   2.7646301e-01  -9.5690562e-01   1.7727123e-01  -5.0953717e-01  -3.2142373e-01  -5.5720229e-01  -5.6930174e-01  -4.4808627e-01  -2.5365777e-02  -4.8048162e-03  -4.0057691e-01  -6.8217323e-01   2.5335054e-01   9.3864706e-01  -9.1645068e-01  -2.8298278e-01   3.4067804e-01   2.1446220e-01   5.9887934e-01   2.1429142e-01   7.0723193e-01   4.1094528e-01  -6.7376795e-01  -1.3787329e-01   6.9641001e-01  -7.2613066e-01   9.9324637e-01  -8.0229003e-01   3.8425604e-01   4.7399053e-01   2.0075758e-01   4.1278175e-01  -4.6613936e-01  -1.6697589e-01  -9.7266460e-01  -2.8633167e-01  -6.6344730e-02   9.7584581e-02  -6.7144853e-01   5.2851041e-01  -4.7571744e-01  -7.6046526e-01   7.8735223e-01   2.7200967e-02   8.8893583e-01   2.5175080e-01   4.1560313e-01   1.7770399e-01   1.0999597e-01   9.9613613e-01  -6.7052790e-01   8.4721785e-01   9.0285220e-01   2.9435541e-01   6.5173592e-01  -7.1222999e-01   7.9557345e-01   1.9641213e-01  -3.3516916e-01  -1.6412113e-03  -4.3818039e-01  -9.9372805e-01  -7.7213573e-01   9.7038449e-01  -2.5377800e-01   3.0908166e-01  -9.7508630e-02  -4.1135034e-01   5.5617009e-01  -8.8009951e-01  -9.9755735e-01  -1.9028937e-01  -5.1650113e-01   3.2316005e-01   3.9474362e-01   9.6434746e-01  -2.4361647e-01  -9.7725640e-02   8.7665859e-02  -1.6832544e-01  -9.2470804e-01   6.9657185e-01   3.2650970e-01   2.9887716e-01   6.9946176e-01   1.7564386e-02  -7.4817306e-01  -1.6695560e-01   3.4238209e-01  -2.4767935e-01  -8.3236751e-01  -5.6245729e-01  -7.7676919e-01  -8.3974592e-01  -7.0494768e-02   7.1205841e-01   3.8400770e-02  -2.5299285e-01  -6.7538007e-01  -4.5036732e-01   4.9519545e-01   8.1370932e-01   8.3931315e-01  -4.7256735e-01   1.3490103e-01   1.0348427e-03   4.0583427e-01   1.0903638e-02  -4.6214598e-01  -8.1862190e-01   6.1572434e-01  -5.5785166e-02  -1.2795615e-01  -5.7727283e-01   6.0625927e-01   6.6514381e-02  -1.8871892e-02   2.2876443e-01   5.4415693e-01   8.7228207e-01  -4.3393716e-01   3.2982493e-01  -3.6906659e-01   1.8331545e-02   5.9585301e-02  -2.3718856e-01   8.2496048e-01   3.8519267e-01   5.7217061e-01   9.5304130e-01  -6.0373404e-01   8.7835582e-01   9.6289732e-01  -5.9099787e-01   8.8154258e-01   4.5649059e-01   1.6705975e-01   8.8507346e-01   7.0343367e-01   6.4139476e-01  -7.7988829e-01   8.0690720e-01  -7.3917231e-01   1.9409718e-01   2.2212808e-01   6.0649049e-01   9.8652454e-01  -9.4003982e-02   5.1064424e-01   1.7503306e-01   4.1726345e-01  -7.7130903e-01   4.1603329e-01  -7.1630683e-01   6.6257655e-01  -5.8040445e-01   7.1939515e-01  -1.0700412e-01   2.3468206e-01  -1.3154274e-01  -5.7267500e-01   6.3570928e-02   4.2348144e-01  -6.4499714e-01   8.2356033e-01   6.9168670e-01  -7.1686606e-01   6.1593246e-01  -1.3912309e-01   3.3578708e-01  -8.6854882e-01   6.2649232e-02  -8.1311345e-01   5.1054577e-01  -3.4826059e-01   8.7539567e-01   1.7342502e-01  -3.7049652e-01  -8.9855751e-02  -5.3298463e-01  -7.2816811e-01   2.7451544e-02  -6.8180326e-01   3.9130352e-01  -4.5185358e-01  -3.1131924e-01  -9.7726227e-01   1.3962122e-02  -1.1877682e-01  -8.8078599e-01  -6.4530655e-01  -5.8136397e-01   7.8052664e-01  -5.4607721e-01   8.4559254e-01  -5.6149559e-02   3.1471128e-02   1.1547645e-01   5.3273097e-01   6.7201233e-01   1.3391442e-01   5.8110005e-01   5.0687424e-01  -9.1500770e-01  -5.7803256e-02   5.4927046e-01   3.1389393e-02  -7.9045047e-02  -8.6353427e-01   5.0550426e-01  -7.8007588e-01   5.0556732e-02   5.6033947e-01   2.9682273e-01  -1.5013760e-01  -9.4936167e-01   2.9535520e-01   9.4993697e-02  -6.1336010e-01  -9.8171996e-01  -5.0574465e-01  -7.1801216e-01  -5.3798536e-01  -3.4022473e-01   8.7585965e-01  -5.9137961e-02   4.2698977e-01  -4.2347177e-01   7.5930393e-01   4.9244906e-01  -5.4574606e-01  -8.5209098e-01   7.7515646e-01  -2.1271576e-01  -8.8865124e-01  -3.2490770e-02   7.5328107e-01  -6.1065245e-01   3.4858877e-01  -8.5400072e-01   7.0704901e-01  -5.8955666e-01  -9.0673260e-01  -5.5526708e-01  -3.9158179e-01   9.2311919e-01   4.6183850e-01  -5.2377293e-01  -4.4447045e-02  -9.7382210e-01   2.8888092e-01  -1.1947894e-02   7.1117663e-01   3.5188091e-01   6.5215107e-01   6.9508636e-01   1.3982566e-01  -6.4716652e-02  -2.2977738e-01  -6.9329170e-01   6.7078069e-01  -7.8836205e-01   6.0252442e-01  -9.8706962e-01   3.7703430e-02  -9.9046158e-01  -5.0017510e-01  -3.9807491e-01  -7.9086532e-01   7.0169914e-01   5.8003467e-01   3.1098178e-01   4.3939847e-01   8.2928598e-01   2.9536278e-01   9.3596609e-01  -4.3782893e-01  -5.0279540e-01   7.2957318e-01  -5.1842904e-01  -5.7788485e-01  -1.9673771e-01  -6.0078478e-01  -5.3767726e-01  -5.9196675e-01   2.9498657e-01  -5.7800596e-01   5.5399119e-01  -8.4324910e-01  -9.6291923e-01  -2.8993599e-01  -9.7897409e-01  -9.6139908e-02  -1.6824975e-01  -4.5262836e-01   5.1144399e-01   8.4131118e-03  -6.8934275e-01  -7.5194059e-01   4.1406463e-01  -5.9578612e-01  -1.1941224e-01  -4.3481592e-01   6.4688317e-01   6.1804651e-01  -3.2441457e-01   7.9711443e-01   2.4625744e-01  -9.2764494e-01   2.3305104e-01   8.0167370e-01   7.4827590e-02  -3.8594811e-01   4.6657348e-01   5.7472497e-01   8.1905170e-01  -9.7930521e-02   7.5491053e-01   2.8225545e-01  -6.5803578e-01   2.9099465e-01  -3.5021073e-01   4.5626645e-01   1.1678639e-01   3.5116146e-01   6.9137296e-01   4.4338641e-01  -4.3505421e-01   8.0352345e-01  -5.7629323e-01  -9.7475104e-01   5.8594022e-01   2.7668979e-01  -4.9308316e-01   1.1981638e-01   9.3950365e-01  -1.2878205e-01  -9.5052536e-01   6.6906554e-01  -1.6230186e-01   8.3469569e-01   3.9421854e-01  -2.9358271e-01   6.8511650e-01   1.7678265e-02  -8.5553835e-02  -4.8853627e-02   1.4204499e-01  -5.7449786e-01  -1.1801348e-01  -7.0142220e-01   1.8562058e-01  -5.5654709e-01  -5.8044406e-02   9.8276922e-01   7.2008513e-01  -8.9479770e-02   9.2691853e-01  -2.2312891e-01  -8.2797563e-01  -1.2424748e-01   7.5813320e-01   1.8856057e-01  -8.4890310e-01  -8.6944292e-01   7.0299356e-01  -4.2892323e-01   7.9357278e-01  -4.9605094e-01  -6.3310742e-01  -4.4653118e-02  -5.2451034e-01   7.9447012e-01  -3.2822640e-02   3.5026878e-01   5.4094173e-01   2.3040765e-01  -2.1359598e-01  -2.2890527e-01  -1.4266207e-02  -8.6243707e-01   2.0861485e-01  -4.0301202e-01   9.3839462e-02  -5.7072124e-01   1.0116312e-01   9.1572120e-01  -3.4708658e-01  -6.5969119e-01  -9.3203224e-01  -8.2225340e-01   4.5303333e-01   6.5900030e-01   3.1984238e-01   8.9158668e-01   7.9223251e-01   4.3142011e-01   9.6116403e-02   1.5100423e-01   4.9733739e-02  -8.3229186e-01   6.3995182e-01  -2.1196669e-02  -5.2286847e-01   2.2839345e-01   4.5153770e-01   6.1974700e-01  -3.6314315e-01   6.4440823e-01  -5.1351338e-01  -9.8473673e-01  -7.8053443e-01   9.4906895e-01   3.7756636e-01  -5.1246307e-01  -8.2253910e-02   4.3531957e-01  -7.6368246e-01   5.6784171e-01   6.5895253e-02   2.0719507e-01  -4.8952582e-01   1.9869717e-01   5.9229486e-01   9.9580460e-01   3.4463034e-01   5.9380521e-01   2.9186937e-01  -1.8671554e-02   6.9086775e-01  -8.5435909e-01   5.7062955e-01   8.0802178e-02   8.4130118e-01   2.6212905e-01   2.8665957e-01   3.2984116e-01  -5.5759996e-02   9.2589456e-01   6.7456889e-01   4.9917432e-01  -9.2626422e-01   2.6721820e-01  -5.9582108e-01   7.2255545e-01   2.9532031e-01   5.5033392e-01  -9.5683448e-01   2.6079324e-01   6.8436439e-01   7.7960286e-01   8.4869921e-01  -4.1293330e-02   3.6511065e-01   6.3678597e-01   9.3720460e-01   5.7556279e-01  -1.9482774e-01   9.2968304e-01   6.8947742e-01   1.6322542e-01   5.0888719e-01  -8.7583510e-01  -3.2300232e-01  -3.7861027e-01   5.1770881e-01   6.8960004e-01  -6.6981273e-01   7.7646333e-01  -7.3277090e-01  -6.2433080e-01  -1.8346114e-01   3.0822574e-01   3.6940951e-01  -9.1924998e-01  -4.4705424e-01  -1.2722986e-01   5.4458406e-01  -5.8929670e-01  -1.1750693e-01   4.3361475e-01  -6.8389384e-01   6.0419509e-01   4.9845180e-02   5.2807976e-01  -4.0365539e-01   9.2401985e-01   8.9220715e-01  -2.7096898e-01  -8.5763004e-01   1.2529425e-01   9.8481904e-01  -3.7033673e-01  -6.3907489e-01  -8.4758559e-01   6.7310096e-01  -4.5111140e-01  -9.8207178e-01   5.8174150e-01  -7.5469939e-01   9.8500741e-01   1.4542254e-02  -9.2731926e-01  -9.0866291e-01   6.3223129e-01  -4.4652431e-01  -1.3264239e-01  -4.2635896e-01   3.9357755e-01   2.3579486e-01   8.4276611e-01  -4.6074431e-02   3.3757065e-02  -3.3125490e-01   5.1841687e-01   2.6382883e-01  -7.2081050e-01  -2.5672142e-01  -9.1358641e-02   7.3675419e-01   9.7518578e-01  -7.9910361e-01   4.9004197e-01   1.1684893e-01   8.0330136e-01  -7.7578200e-01   3.2678851e-01  -6.2597066e-01  -9.4233337e-01  -4.8300263e-01  -9.8010041e-01  -7.0629872e-01   7.4021518e-01   7.4133225e-01  -4.1869529e-01  -1.2806396e-01  -3.8636293e-02   5.6729235e-01  -3.1629072e-01  -7.1778930e-01   7.3686667e-01   3.5205504e-01   2.1220269e-01   9.2713417e-02  -9.4351018e-01   3.1170467e-01  -8.2378666e-01   4.2689889e-01   7.5028531e-01  -9.4657686e-01   9.7316602e-01  -6.9149431e-01  -1.5198298e-01  -1.1341023e-01  -5.3627797e-01  -5.6868916e-01  -3.5642681e-01  -6.1712456e-01  -4.2559712e-01   3.1506751e-01   7.9792120e-01   7.2304072e-01  -3.3141091e-01  -1.3617005e-01  -8.0423106e-01  -8.1100377e-01   9.7078098e-01  -1.1016503e-01   1.5359795e-01   3.7171044e-01  -5.6483865e-01   1.3369272e-01   6.3913810e-01  -5.9832147e-01   5.0266885e-01  -6.4230643e-01  -3.6937344e-01   9.9829654e-02   4.9666906e-01   9.0500770e-01   9.7919773e-01   4.3763528e-01   5.4205391e-01  -7.9225088e-01   7.6253793e-01  -6.5541525e-01  -5.0595280e-01  -1.8708332e-01   6.8290999e-01   1.2202276e-02  -1.8834515e-01   4.1482633e-01  -7.0752618e-01   6.2782641e-01  -9.6544381e-01   3.6136365e-01  -6.1112906e-01  -9.8084822e-01  -9.9737491e-01  -9.5141819e-01   8.5640019e-01  -4.1857175e-01  -6.4410123e-01   4.9566054e-01  -2.0809192e-01   3.1378285e-01  -8.8389035e-01   4.9005267e-01   9.4173152e-01  -3.8741499e-01   3.0474440e-01  -4.3133244e-01   2.7218759e-01   2.4455174e-01   8.2635713e-01  -3.2021830e-01  -5.4791283e-01  -2.0149725e-02   7.2712468e-01  -2.0451055e-01  -6.7357752e-01  -7.0080842e-01   9.1084856e-01  -1.8668644e-01  -9.9028073e-01   5.1836710e-01   1.6086896e-01   8.8899480e-01   9.9342537e-01  -5.2237138e-01  -2.8956831e-01  -6.2575272e-01   8.3767004e-01  -2.0795055e-01  -6.6487193e-01   3.4834772e-01   9.3301611e-01   6.2494336e-01   5.8068307e-01   9.1663836e-01   7.4271490e-01   2.9819382e-01  -1.5206830e-01  -6.1801501e-01   1.7331048e-01   7.0602211e-01  -6.6652217e-01   6.0491852e-01   2.4684272e-02  -6.6380559e-01  -8.6994032e-01  -4.0682172e-01   9.6782877e-01  -2.7665287e-01  -7.6820547e-01  -1.7749605e-01  -6.1380514e-01   4.7617467e-01  -9.8531417e-01  -7.1631755e-01  -7.1464100e-01   7.8076241e-01  -3.0883850e-01  -3.1800161e-02   6.7005249e-01  -8.2823121e-01   8.2220381e-01  -9.1650583e-01   5.1454521e-01   9.4172388e-01  -3.2332401e-01  -9.4217031e-01   5.6434816e-01  -6.9667988e-01   2.8750441e-01  -7.1811316e-01   8.7634807e-01   6.1270126e-01   8.6265468e-01  -5.8258864e-01  -6.2578737e-01   5.9325753e-01  -3.9775057e-01  -6.8715793e-01   2.0433804e-01   3.6920833e-02   7.9834932e-01   7.3578628e-01  -4.5032103e-01  -3.7691153e-01   7.3372436e-01   7.2940582e-01   4.3329884e-01  -5.1121904e-01   2.9151193e-01  -5.5883940e-02   4.8657964e-01  -5.2281594e-02  -7.2355214e-02  -4.1856967e-01   1.8077924e-01   3.9965093e-02   7.5799110e-01  -9.0097683e-02   4.3146114e-01   9.7582944e-02   7.8007859e-01   2.2450921e-01   3.4037019e-01   1.8052842e-01   4.4505680e-01  -9.1312407e-01   8.9300795e-01   1.7661471e-02   8.3058446e-01  -9.7521591e-01   8.7654059e-02  -1.3604217e-01  -9.9055600e-01   2.1486710e-01   6.0890308e-01  -5.7207676e-01  -9.6708604e-01  -2.8231078e-01   7.0631055e-01  -3.0436286e-01   8.0418132e-01   5.7344116e-01  -6.0888407e-01  -2.2341743e-01   2.0047415e-01   7.6923741e-01   8.7521686e-01  -6.8109130e-01  -7.1863396e-01   4.6721075e-01  -8.7484595e-02   3.9763769e-01   4.4812964e-01   6.6532434e-01  -1.3810794e-02   3.4091073e-01   9.6917642e-01   5.6276739e-01   6.5896215e-01  -4.9428429e-01  -6.3759636e-01  -4.5062549e-01  -8.2527049e-01  -1.3152333e-01  -2.5250447e-01  -2.1501742e-01  -9.6112515e-01  -4.0450918e-01   8.8363762e-01   9.4722602e-01   3.6018508e-01  -7.8794943e-02   6.5149686e-01   4.4140698e-01  -6.6449032e-01  -8.9416068e-01  -4.8632795e-01  -8.5620402e-01  -8.5694543e-01   8.8007589e-01   9.9160821e-01  -5.6410990e-01   3.8607560e-01  -9.2218091e-01  -4.5220506e-01  -7.2911557e-01   3.7038951e-01   3.9802226e-01   8.0520226e-01  -3.4887611e-01   5.9768878e-01   3.6342171e-01   1.3551453e-01   6.2803911e-01   6.4869036e-01   5.2919487e-01   3.0496490e-02   3.2239410e-01  -9.7308108e-01   4.4532449e-01  -4.4599667e-01  -2.9671054e-01  -3.8280374e-01   7.2483768e-01   3.5206046e-01  -3.3631156e-01   1.3713750e-01   4.8039471e-01   3.9606725e-01  -4.0500798e-01   4.3835504e-02  -7.1912574e-01  -8.2068007e-01   3.3543072e-01  -3.8333532e-01   5.6794361e-01   8.0878490e-01  -4.2150064e-01   2.5181401e-01   7.8597868e-01   1.3623048e-01  -2.3496974e-01   8.7481948e-01  -5.3474150e-01  -5.5836649e-01   7.9014655e-01  -4.5033229e-01   6.5554243e-01   4.8263533e-02  -6.5321241e-01   5.3789863e-01  -9.0091281e-01  -5.8468927e-01   7.8716738e-03   6.2598123e-01  -8.4735691e-01   8.2860147e-01   1.7876462e-01   8.4744131e-01  -7.3319593e-01  -4.7082816e-01  -6.2074744e-01  -3.3206277e-01  -7.1535088e-01   8.5533854e-01   6.4151212e-01
   5.6223208e-01  -8.7895300e-01  -3.9137592e-01  -3.8929578e-01   2.5211671e-01  -6.5312530e-01   2.0217814e-01   7.4948033e-01   4.3343618e-02  -7.9568348e-01  -5.0978318e-01  -1.0230486e-01  -6.2639934e-01   7.5919168e-01   3.1570042e-01  -6.2420581e-01   1.9142471e-01  -7.4576652e-01   7.5390462e-01   9.2878754e-01   7.7469756e-02   4.8391286e-01   8.1883978e-01  -7.7669922e-01   1.0101825e-02  -4.7713497e-01   2.0581466e-01   6.0874996e-01   2.0234368e-01  -9.3600431e-02  -4.9620659e-01  -5.8823783e-01  -9.0056328e-01  -1.0954352e-01  -6.9534435e-01  -3.8353607e-01  -7.4736180e-01  -8.5658653e-01   4.6137948e-01   6.7961884e-01  -4.4833139e-01  -6.7793529e-01  -3.0693498e-01  -6.0105965e-02   7.5109127e-02   6.3970902e-01  -6.5679087e-01  -8.2853404e-01   4.7388671e-01  -1.9559779e-01   6.5076867e-01   9.9827758e-01   6.0420879e-02   4.7213988e-01  -2.3407641e-01  -4.9016837e-01  -7.9506705e-01   4.0475843e-01   5.4846457e-01  -3.5947598e-01  -7.1991834e-01   5.2098923e-01   5.8775948e-01  -1.8940157e-01  -6.2649258e-01   8.7024346e-01   6.9793672e-01  -1.2028524e-01   5.9705762e-01  -7.6488066e-02   2.2871527e-01   9.1356928e-01  -1.4095730e-01  -1.4199891e-02   7.8077890e-01  -8.8034062e-02   1.7432781e-01   4.4707701e-02   2.4735183e-01   2.2263005e-01  -9.3901021e-01   1.2490268e-01  -9.9594805e-01  -9.2527703e-02   7.7190809e-01   7.8301139e-01  -1.7385164e-01   5.4347457e-03   8.7176667e-01  -5.5847210e-01   4.1434793e-02   7.2757741e-01   4.6874000e-01  -3.8928408e-01   9.1236059e-01   5.3329849e-01  -4.7517249e-01  -1.8410646e-01  -7.5540676e-01   8.3844016e-01   2.2130404e-01   1.8530011e-01  -4.4381332e-01   7.9242768e-01   7.0206671e-01   4.2777657e-01   2.5454967e-01   3.5386328e-01   1.0731868e-02   3.5851163e-01   9.9030295e-01  -7.9187308e-01  -4.4290344e-01  -5.2630883e-01  -4.1243701e-01   6.8852262e-01  -7.1445145e-01  -6.9942572e-01   1.9810415e-01   6.6405461e-01  -8.8978743e-01  -1.1350174e-01   1.7661383e-02   9.3444717e-02   5.5221110e-01  -7.5401596e-02  -8.2729089e-01  -8.3837511e-01   9.4679617e-01  -9.9923406e-01   8.8194268e-02   6.7935232e-01   8.7233212e-01  -1.3581219e-01  -4.9233885e-01  -1.5436043e-01  -5.0367272e-02   6.7560890e-01   4.6157491e-01   7.5354508e-01  -7.0436292e-01   8.7530489e-01  -7.8496882e-01   3.5137845e-01   1.7646812e-02   3.1423484e-01  -7.0116443e-01   2.6685435e-01   4.2847456e-01  -5.6268159e-01   8.7193487e-01  -2.0180357e-01   6.0240477e-01  -2.4905386e-01   6.5037291e-01  -9.5359013e-01   1.7163924e-01   6.3504881e-01  -3.0854314e-01  -9.3933884e-03  -6.3827329e-01   9.8962239e-01   3.2303760e-01  -2.5394692e-01  -7.5357111e-01  -3.4040721e-01  -4.7779815e-02   5.1371184e-01   8.5221010e-01   8.6087650e-01  -7.8152833e-01   8.0871517e-01   1.3536088e-01   4.1918688e-01  -3.4593090e-02   5.3088451e-01  -9.9919212e-01  -1.0804656e-03  -8.6972759e-01   8.8031530e-01   5.8731991e-01  -5.3389385e-01  -1.6994610e-01   9.4074368e-01   5.1661744e-01   5.9703256e-01  -2.9736465e-01   7.1469212e-01  -4.4707471e-02   5.1477747e-01   3.7063531e-01  -2.9527701e-02   8.5707536e-01   5.5870193e-01  -3.7949805e-01   6.7239972e-02  -4.6825077e-01   8.2060337e-01  -6.9031138e-01  -7.5519282e-01  -9.7170703e-01   3.9060247e-01   6.7805532e-01  -3.5483795e-01   1.7864891e-01  -4.3052303e-01   6.3641597e-02   4.9982727e-01  -9.5329112e-01   5.7236988e-01  -4.5862861e-02  -3.1038980e-01   3.4641225e-01  -9.1964201e-01   9.2673893e-01  -8.0411487e-01  -4.1482735e-03  -2.0560801e-01  -1.6282877e-01  -8.7360638e-01  -3.8608564e-01   4.5072310e-01   9.1004196e-01  -8.2526473e-01  -5.5144050e-01   5.0636966e-01   3.3296077e-01  -6.0923015e-02   4.4406352e-01   9.1565079e-01   4.4138918e-01  -6.6486304e-01  -4.5012898e-02  -1.4235734e-01   2.1167906e-02   3.5983229e-01   8.7784874e-01  -7.8086863e-01   6.5849378e-01   3.5378472e-01  -9.2638030e-01   5.5249365e-01  -3.2961535e-01  -8.9944219e-01   6.0458159e-01  -3.9865209e-01   8.5009658e-01  -8.0319636e-01   3.1853928e-01  -2.0414402e-02  -6.2561218e-01  -1.8627503e-02   1.0726621e-01   3.1342594e-01   5.3592291e-01  -9.7171267e-01  -3.3205906e-02  -8.3916577e-01   7.5197870e-01   1.7245614e-01   9.5376245e-01  -6.9628034e-01   8.3919977e-01   4.1566044e-01  -2.1086181e-01  -9.6646286e-01  -2.7170333e-01   7.2753787e-01  -9.1401089e-01  -4.9620546e-01  -4.2463039e-01  -9.5096000e-01  -7.8968644e-02  -5.7903163e-01  -7.8983642e-01   1.1838692e-01  -3.6473948e-01  -7.5699107e-01   9.0242758e-01   4.0738608e-01   9.9451068e-01   6.0132863e-01   2.9877855e-01  -3.5263677e-01   2.4547500e-02  -5.5196748e-01  -7.4160210e-01   1.7320466e-01  -5.0946776e-01  -7.4705228e-01   9.9041835e-02  -3.9344589e-01  -4.0481743e-01  -3.2989276e-01   1.1833986e-01   3.0812850e-01  -8.2604247e-02  -1.0079491e-01   7.0802659e-01  -9.8268198e-01  -3.7843597e-01  -8.6488921e-01   8.6997176e-01   2.9848837e-01  -7.1776866e-01  -8.5555942e-01   9.5181727e-01   5.9731736e-01   6.7964910e-01  -7.9098647e-01   4.2684173e-01  -5.7408522e-01   7.3340269e-02   6.0273996e-02  -9.4865979e-01  -8.7134032e-01  -1.2385229e-03  -3.7457004e-01  -1.5866491e-01  -5.1669138e-01  -4.6657008e-01   3.0055148e-01   8.4606773e-02  -9.6684510e-01   4.8753408e-01  -2.5440714e-01   3.8303322e-01   3.8117871e-01  -4.1985477e-01   6.3303978e-01  -5.5342986e-02   1.5533012e-01  -4.7004053e-01  -3.9754712e-01  -8.5652845e-01   1.1442222e-01  -3.8293614e-02  -3.6829892e-01  -2.2038224e-01   1.1307673e-01  -3.0144343e-01   8.4719421e-01   9.0273832e-01  -5.6567406e-01   1.8837463e-01   4.7172492e-01   8.9882951e-01   7.4553823e-01  -7.5613261e-01  -4.9803803e-01   1.1080705e-02   7.4662566e-01   8.1631398e-01  -1.8242237e-01   1.2059549e-02  -4.7097027e-01  -9.8695452e-01  -1.5937283e-01  -3.8024479e-01  -4.1412359e-01  -1.1631522e-01  -8.2185519e-01  -6.5714363e-01  -6.5671189e-02   1.7983245e-01  -9.3113537e-01   9.5029940e-01  -8.8124043e-02  -8.9192859e-01  -8.2714782e-01   3.8567045e-01   4.8132490e-01  -5.8578569e-01   9.6167301e-01   4.0457089e-01  -1.5182007e-01   7.2258830e-01  -6.2469174e-01   6.6795481e-01   7.0917490e-01   1.5752701e-01  -6.2902211e-01  -9.6932441e-02   8.2727318e-01  -6.7078937e-01   9.8522423e-01   8.1202548e-01   5.0168021e-01   2.1921827e-01  -9.3453451e-01  -7.8087740e-01   7.5565202e-01   2.1540062e-01   5.9256076e-01  -7.7466141e-01  -8.8987421e-02  -4.1060313e-01  -9.7875568e-01  -6.6368548e-01  -2.2701870e-01  -8.3271800e-01  -2.9265177e-02  -5.4915938e-01  -1.5022978e-01  -4.9465432e-01   6.2973756e-01   4.3164931e-01   8.8285656e-01   6.1398831e-03  -6.5465585e-01  -5.7321214e-01   2.2766785e-01  -9.5812944e-01  -4.4058422e-01   4.7041799e-01   4.6713204e-02   1.3074464e-01  -8.6650096e-01   3.2067796e-01   9.4478980e-01  -9.0017310e-01  -7.9360854e-01  -2.3386362e-01  -5.3780938e-02   8.9181405e-01  -1.6557937e-01  -5.5347183e-01   6.1754814e-01  -6.1552621e-01  -6.2753616e-01  -9.1624689e-01   3.0766794e-01  -7.7361688e-01  -4.4276634e-01   4.0106643e-01   7.8599195e-01  -6.1632359e-01  -8.8371667e-02   2.4301269e-01  -2.1652939e-01  -3.6869934e-01  -9.0607029e-02   2.7949934e-01  -1.5664779e-01   6.0443987e-01  -2.5200898e-01  -7.1598467e-01  -1.4972905e-01  -2.6304142e-01  -2.5111025e-02  -7.0941464e-01  -1.2329607e-01   9.4519416e-01   6.2735900e-01  -2.6675822e-01  -3.1388488e-01   1.2762631e-01  -3.1212969e-02   3.9577871e-01   3.6763278e-01   3.6144120e-01   7.9638678e-01   7.3483550e-01  -5.6008361e-01   7.0001331e-01  -6.2527526e-01   8.7600230e-01  -5.0191903e-01   6.7641440e-01   9.6352140e-01  -2.6912745e-01   5.9897746e-01  -6.8831335e-01  -2.8495346e-01   4.4712859e-01  -8.0256135e-01   1.1649621e-01   3.5645796e-01  -9.8068926e-01  -6.4037113e-01  -4.0506230e-01   4.2581991e-01  -8.0507055e-01   8.4213656e-01   7.3034626e-01   9.9483392e-01  -4.5355654e-01  -1.3517907e-01   9.9981669e-01   8.7927226e-01  -9.3939431e-01  -3.1663392e-01   1.1043168e-01  -2.4561350e-01   8.0727618e-01  -6.8108289e-01  -4.0490249e-01   5.9724254e-02   5.6570599e-01  -2.8585678e-01   1.8484076e-01   1.1770004e-01   4.9230898e-01  -3.9355329e-01   8.7534163e-01  -6.7084656e-01   6.5909928e-01  -3.7442696e-01   8.7182550e-01  -5.4770523e-01  -2.0711268e-01   6.6418990e-01  -7.2263590e-01   9.4622071e-01  -2.8680221e-01  -4.8191884e-01  -2.9369449e-01  -3.1416851e-01  -7.3744882e-03   1.9354750e-01  -9.1054173e-01   4.6681054e-01   5.2718213e-02   2.0143940e-01   4.4504222e-01  -1.7138699e-01   7.4942040e-02   1.0108088e-01   8.5370003e-01   1.2180899e-01  -7.8942194e-01   3.5191442e-01  -3.2486869e-01  -5.7247914e-01   2.7112512e-01  -5.5249680e-01  -1.7308960e-01  -8.5859321e-01  -3.9240239e-01   6.8580499e-01  -8.6510618e-01   9.5531660e-01   3.3578385e-01   6.1463693e-01   8.3181514e-01   3.7461102e-01  -5.1151192e-01   3.9756777e-02   4.2243568e-01   3.7050546e-01  -2.3486619e-01   9.4712329e-01   8.3234176e-01   3.8783584e-01  -5.5925237e-01  -7.9131931e-01   5.6997468e-01  -2.5780495e-01   8.9300096e-01  -7.2748275e-02  -1.5359126e-03  -5.4263888e-01   4.1281700e-01   9.8160443e-01  -3.2136735e-01   8.6550511e-01   9.4900431e-01   4.3169051e-01  -2.8568533e-01   4.6783444e-01  -7.4538057e-01   4.1204772e-01  -9.2240951e-01  -7.3796466e-01   6.4814330e-01  -6.0787610e-01   6.1074420e-01  -3.1073275e-01  -7.7361024e-01   7.8853247e-01  -2.7085314e-01   1.7489874e-01  -4.4388040e-01  -8.0946764e-01  -1.2905996e-01   6.3142580e-01  -2.8078960e-01   7.1137942e-01   9.6322082e-01   7.5327199e-01  -7.7256115e-01   8.9254360e-01  -8.1290746e-01  -7.1801737e-01   8.2092222e-01  -7.1086666e-01   5.1469781e-01   4.9331243e-01  -2.9281561e-01  -6.7786026e-01  -1.8070564e-01   4.9562090e-02  -9.1323416e-02  -9.5579689e-01   7.8432337e-01  -4.4101796e-01  -8.9321869e-01  -5.9441381e-01  -4.7083405e-01  -3.3980064e-01   1.7600596e-01   2.4598691e-01  -4.1182107e-01   7.5976592e-01   4.8855465e-01  -1.5128336e-01   5.3997517e-01   9.2847418e-01  -7.0168616e-01  -5.9744065e-01   4.0412274e-01  -9.5835602e-01  -4.3422544e-01   6.3454476e-01  -6.7716104e-01   1.0735795e-01  -1.8001143e-01  -6.4219504e-01   7.1084800e-01  -3.4991396e-01   1.6141067e-01   7.5303925e-01  -9.0976315e-01   9.9061820e-01  -7.8368315e-01  -3.6227807e-01   6.2777308e-02  -3.4968024e-01   1.5540189e-01  -1.2247623e-02   9.1727098e-01  -1.9233304e-01  -8.4360689e-02   6.9206434e-01  -8.4065523e-01   4.8179769e-01  -6.0102537e-02  -1.8098464e-01   5.8972464e-01  -1.9377770e-03  -1.2037347e-02   5.6156397e-01  -1.2526948e-01   6.0078660e-01  -4.5617953e-01  -2.6319363e-01  -2.0126982e-01   2.6647123e-01   2.8803031e-01   2.6302088e-01   6.9832465e-01   2.3364244e-01   6.9436822e-01   7.9099762e-01   8.8685668e-01  -7.8230264e-01   7.9551455e-01   7.2499644e-01  -9.1743137e-01  -2.2662179e-01   7.6806759e-02   2.5817930e-01   5.9078913e-01  -4.2623830e-01   8.9260826e-01  -5.1580700e-01   2.3920817e-01   9.6601032e-01  -9.7965653e-01   2.5224673e-01   6.6031110e-02   5.0951212e-01  -2.2639570e-01   5.8076569e-01   6.0011152e-02  -9.9639067e-01   3.3758094e-01   9.3237201e-01  -4.9184070e-01  -7.9047899e-01  -1.4206874e-01   8.3914818e-01   1.7039093e-01   9.8175290e-01  -2.9126569e-01  -9.3089664e-01  -4.4309501e-01  -2.0684317e-01  -1.0963588e-01  -3.9704616e-02  -4.1590133e-01  -2.4589119e-01   7.9101350e-01  -7.9261775e-02  -4.3455881e-01   8.9341848e-01  -9.1535250e-01  -5.9446038e-01  -5.6388585e-01   2.3595868e-01   7.9697571e-01  -9.8116524e-01   7.6058456e-01  -7.4418149e-01  -3.8421143e-02   2.1811480e-01   4.7140139e-01   5.8888171e-01  -6.1086961e-02  -4.7478174e-01  -7.3394097e-02  -8.5956619e-01  -8.2204454e-01  -4.7556902e-02  -9.7813055e-01   1.3907376e-01   5.5709720e-01  -4.2523176e-02   9.3173043e-01   6.0254910e-01   1.2882864e-01   9.7162387e-01   5.3022047e-01  -5.6434951e-01  -3.3195890e-01   4.0179850e-01  -4.9397382e-01   5.2007205e-01   2.1224214e-01   9.3565310e-01   5.7097942e-01  -7.2572915e-01   7.3223424e-01  -2.9398239e-01   7.7899138e-01  -5.3832397e-02  -8.4780008e-01  -5.3358564e-01   8.8533778e-01  -7.8221372e-01  -6.1486180e-01   6.6950007e-01   6.9152900e-01   6.1268560e-01   9.1138346e-02   9.0864669e-01   9.5948940e-01   1.4142064e-01  -3.5013681e-01   8.9738796e-01   6.0364523e-01  -7.5858926e-02   5.7263139e-01  -5.1207189e-01  -1.3391662e-01   8.5454242e-01   1.5708934e-01  -4.0343858e-01  -2.9814734e-01   4.6014119e-01   2.6274051e-01   9.8090924e-01   4.1309132e-01  -2.5183002e-01   5.8070235e-01   4.5616055e-03  -5.6446351e-01  -9.5293085e-01  -9.9968150e-01   3.4713038e-01  -5.7774467e-01  -6.2479714e-01   4.5089145e-01  -9.4348698e-01   2.4567941e-01  -7.4773129e-01  -4.1955110e-01  -3.0210206e-01   2.9576181e-01  -9.4015150e-01  -2.6694663e-01   7.8926435e-02   9.2724128e-01   2.4871173e-02   9.6928334e-01  -8.1166320e-01   4.3439608e-01   9.8429499e-01   5.6647292e-01  -3.7754285e-01   6.3876623e-01   8.1591708e-01  -7.9155667e-01   1.0529082e-01  -7.6910070e-01   9.7859245e-01  -7.0967139e-01  -7.9500753e-01   2.2169786e-01   9.4464706e-01  -8.3506232e-01   7.4696005e-01   5.7632410e-01  -5.8784221e-01   3.7225010e-01  -5.9830243e-01  -1.4665699e-01   4.1336457e-01  -2.7273079e-01  -3.8478760e-01   2.1117716e-01  -7.1680037e-01   6.0608301e-01   9.4942732e-01   1.5041363e-01  -3.8136866e-01  -3.6882719e-01   9.6741285e-01   8.7508365e-01  -3.6256956e-01   5.4923419e-01  -8.8870436e-01   4.5771909e-01   4.3203192e-01  -3.6158794e-02   5.5034890e-01   7.5362118e-01   8.6910704e-01  -5.8249379e-01  -4.0942147e-02   5.6264623e-01   4.0551591e-01   3.6619881e-01   1.3785398e-01  -7.7861892e-01   3.8959601e-01  -1.1417963e-01  -2.2914761e-01   3.1987160e-01   8.5918255e-01   8.8430924e-01  -8.4856690e-01   3.7009182e-01   2.3023998e-01   3.9812666e-01  -6.7794547e-02   9.8187925e-01   5.1322087e-01   3.2876285e-01   1.0956404e-01   9.0527511e-01   6.8818948e-01  -3.6805025e-01  -6.3106175e-01   1.3715976e-01  -5.8159402e-01   3.0071280e-01   5.3742156e-01  -6.3658902e-01   3.0905093e-01   4.8620883e-01   9.0771056e-01  -5.1106074e-01  -1.6405736e-01   9.3622526e-02   7.7865764e-01   3.6575597e-01  -8.6594689e-01   8.4226612e-01  -1.6775411e-01   6.7605653e-01  -2.6858908e-01   2.1730618e-01   3.3198037e-01   4.7376481e-01   9.4939373e-01  -3.5569513e-01  -8.5074794e-01   2.4524825e-01  -9.1866378e-01   4.2475875e-01  -3.9144493e-01   7.2222994e-01   7.3151925e-02   5.1195402e-03  -4.9117495e-01  -4.3909903e-01   1.0351291e-02  -6.1973309e-02  -4.2573308e-01  -2.1647427e-01  -1.4417349e-01  -5.5006489e-01  -6.5821490e-02   8.7674576e-01   1.2521020e-01  -5.2079278e-01  -2.9161488e-01   8.3681746e-01  -3.3929268e-01   8.7403744e-01  -7.5087340e-01  -2.0950729e-01  -4.1866035e-01  -5.7062337e-02  -6.5867668e-01  -8.8811410e-01  -5.7946100e-01  -2.8954654e-01  -8.8452640e-01   7.2604981e-01   2.3902598e-01  -7.0079952e-01   4.6962401e-01   4.6732914e-01   5.1699766e-01  -9.9508682e-02  -8.8796354e-01   8.4506318e-01  -2.1170506e-01   5.6275146e-01   6.1113590e-01   3.5401999e-01  -5.3101049e-03   3.2514619e-01   6.2994110e-01   1.4089162e-01  -6.0073025e-01   5.7005981e-01  -9.4324339e-01  -4.6061267e-01   3.7607776e-01   1.6783664e-01  -1.6008754e-01   4.7353550e-01   2.8499159e-01  -6.9934156e-01  -6.6564661e-01  -4.2128169e-01  -8.7649783e-01  -5.2430469e-01   6.4701607e-01   7.7217164e-01  -6.5981345e-01   1.9769952e-01  -4.3927899e-01   3.4518869e-01   1.4806459e-01   5.4482146e-01  -4.7223351e-01  -5.1704448e-02   7.0611008e-02  -2.0512193e-01  -4.9165474e-02   8.0028079e-01  -4.0883666e-01   1.9155985e-01  -5.8595952e-01   6.3128722e-01  -3.0498217e-01   1.7150365e-01  -8.9564516e-01   8.5424927e-01   5.3567229e-01   5.0963653e-01  -6.7645100e-01   9.0803431e-04   3.0381167e-01  -5.7945554e-01  -8.3505369e-01   6.9728706e-01   4.1456510e-01   5.0512651e-01   1.6087421e-01   1.2162485e-01  -2.4171898e-01  -2.5299183e-01   7.8846326e-01   4.2882287e-01   9.1719862e-01  -6.2471345e-01   5.4454138e-01   5.2798152e-01  -8.9541027e-01   2.2370493e-01   5.4487245e-01   9.2812133e-01   5.7429586e-01  -4.5684595e-01   9.3637765e-01
   5.6371130e-01  -8.2290779e-03  -2.8053462e-01   8.4980558e-01  -7.7099049e-01   9.2385602e-01   7.7811715e-01  -4.4142813e-01   3.3683651e-01   6.7420398e-01   4.7517771e-01   9.6199394e-01   9.5029142e-01   2.4049465e-01   4.6387995e-02  -5.9928089e-02  -8.1500219e-01   8.6272200e-01   2.1097099e-01   7.1010361e-02   3.3981942e-01   3.0021008e-01  -3.7213290e-01  -5.1802256e-01   5.3323893e-01   6.9918654e-01   8.6432118e-01  -8.7116215e-01   7.7403720e-02   5.0608081e-01  -7.6815900e-01  -6.1150135e-01   9.6330629e-01  -6.0680927e-01   8.5640379e-01   2.7130967e-02   4.7951901e-01  -7.9449891e-01  -2.6472176e-01  -2.7258436e-01  -5.9009420e-01  -9.7329772e-02  -9.3050085e-01  -7.7578643e-01   3.3686371e-01   6.3150478e-01  -5.9759425e-01   4.0742020e-02   9.9433279e-01   1.4668377e-01  -1.0452345e-01  -5.2718174e-01   9.1222226e-01   4.6521160e-01  -2.5305001e-01  -9.3534810e-01  -7.0006984e-02  -9.0064802e-01   3.0379836e-01  -2.4530270e-01  -5.4499184e-01  -3.8779478e-01  -2.8644713e-01  -3.1622009e-01   2.0481477e-01  -9.2090890e-01   3.0993356e-01  -9.1535200e-01   2.5723711e-01   4.1678340e-01   4.0881455e-01   2.5486965e-03  -2.1204454e-01  -3.3099192e-01   5.4418809e-01  -4.8654564e-01  -3.7732851e-01  -3.5570131e-01   4.0539690e-02  -4.3061650e-01  -9.4929131e-01   7.8596801e-01   7.0754056e-01   3.8222678e-01  -5.0399406e-01   6.6276962e-01  -5.8900292e-01   8.6566752e-01  -8.6077417e-01   2.4464811e-01  -8.7823774e-01   6.2414776e-01   4.7458594e-01  -1.6738379e-01   7.4271072e-01  -8.9374462e-01   3.6983419e-01   1.8493453e-01   5.3705001e-01   4.0652094e-01   1.7398455e-01   7.8539410e-01   3.1161774e-01   2.2868135e-02   8.6710129e-01  -1.8409058e-01   2.2384623e-01   1.4403195e-01  -2.3475767e-01   4.9131339e-01   9.1048410e-01   5.8955260e-01  -9.1719444e-02  -1.9714366e-01  -2.6670847e-01  -9.5661762e-01   9.4106855e-02   7.5504705e-01   8.9704940e-01   5.2778830e-02  -8.3412334e-01   9.3322294e-01  -3.9683768e-01  -9.4851918e-01  -1.9818296e-01  -5.0007112e-01   2.6464655e-01  -4.2880222e-01  -7.3589434e-01  -3.8161785e-03  -6.1439517e-02  -3.2478696e-01  -3.4347870e-01  -8.4301399e-01   5.2036251e-01  -2.4334638e-01  -7.0883123e-01  -6.7526955e-01  -9.9789667e-01   8.8906813e-01  -4.6493709e-01   3.2238418e-01  -1.1908825e-01  -3.7309522e-01   2.6597751e-01  -9.2876649e-01  -5.7289900e-01   7.3988487e-01  -3.9451537e-01  -2.5995106e-01   9.7851888e-03  -7.7148495e-01  -3.9087409e-01   5.1340720e-02   9.9108815e-02  -9.3848873e-01  -8.8308927e-01   5.2067251e-01   6.4117884e-01   1.6591388e-01  -5.7938515e-01  -1.7412552e-02   6.5532679e-02   6.3358999e-01   7.5137330e-01  -9.7538880e-01  -3.5493649e-01   9.8655214e-01  -6.2184444e-01   2.4937436e-01  -2.2355205e-01  -1.0837499e-03  -8.6731061e-01   9.8348359e-02   5.8884430e-01  -6.9841358e-01   9.5411152e-01  -1.4337002e-01   3.1309513e-01   1.2788363e-02   3.5053872e-01   9.9219723e-01   5.4946571e-01  -4.4176434e-01  -9.5080312e-01   4.1167035e-01  -1.7478944e-01  -4.7524668e-01  -5.5897640e-01  -5.9147168e-02  -9.1506724e-01  -6.4691239e-01  -3.6064684e-01   9.6107517e-01   3.7092566e-01   2.6439549e-01  -2.4135048e-01  -7.4545481e-01   6.8867691e-01  -3.1481526e-01  -8.7574436e-01   7.3909560e-01  -5.6711642e-01  -5.5504758e-01  -9.1076432e-01   9.7525724e-01  -6.0169745e-01   9.7578934e-01   5.7536585e-01   5.6314368e-02  -5.2253820e-01   7.1802655e-02  -2.6546082e-01  -4.3418034e-01   5.3071170e-01   6.9563565e-01  -5.0764156e-01  -1.8589312e-01  -3.2712885e-01   5.9360888e-01  -9.7604542e-01  -7.0006770e-02  -2.8964736e-01   1.5023319e-02   4.8268750e-01   8.0793084e-01   4.4533099e-01   7.7329094e-01  -5.6554889e-01   5.4221640e-01  -1.9775477e-01   8.3978400e-01  -3.6628345e-01   8.8645323e-01   4.1536099e-01   2.3121208e-01  -9.1955734e-01  -9.1840190e-01   7.2838260e-02  -4.3543927e-01  -8.7458015e-01   4.1494125e-01  -8.1973562e-01  -9.8756988e-01   7.7109016e-01  -4.6280755e-01   8.8895577e-02   8.6214193e-01  -2.8357691e-01  -4.2173071e-01  -9.4297285e-01   9.2389089e-01   4.9017024e-01   3.5967318e-01  -8.8972539e-02   5.1698944e-01  -8.9638867e-01   6.2406838e-01  -6.8188062e-01  -8.6576904e-01   1.4220625e-01   2.4989843e-01  -2.0508804e-01  -2.6419131e-01  -7.3016396e-01  -1.4608964e-02  -3.8642985e-01  -8.1546978e-01  -2.8734165e-01   3.0140299e-01   7.5018215e-01  -1.9481084e-01  -6.2007114e-01   4.8876061e-01  -4.9065422e-01  -7.9391492e-01   3.2656843e-01  -2.9291876e-01   9.9717014e-01  -3.4546853e-01  -6.4011187e-01  -4.0299569e-01  -7.7565027e-01  -9.4393339e-01   1.2721513e-01  -6.3289385e-01  -4.8673142e-01  -7.1926900e-01  -1.3920640e-01  -1.6675957e-01   2.0306213e-01  -9.7081702e-01  -3.5768836e-01  -3.1253570e-01  -9.9237910e-01   8.6329185e-01   3.3832976e-01   9.7293862e-01  -4.0383907e-01   6.8241266e-01   8.4761174e-01  -4.7708210e-01   2.1783005e-01  -5.6517682e-01  -2.5887202e-01   4.8042832e-01  -6.2318555e-01   5.8865844e-01   9.6860858e-01  -9.4314511e-01  -9.5096491e-01  -3.5575969e-01   3.0069633e-01   6.2461690e-01  -9.0071036e-01   8.3909846e-01   9.7010051e-01  -4.5855649e-01   3.4530808e-01   4.6883727e-01   5.9372567e-01  -4.9228430e-02   9.7697905e-01  -1.3531685e-01   1.5250677e-02  -7.2484499e-01  -8.5010893e-01   5.7517984e-02  -1.1869545e-01   1.5523966e-01  -2.5364494e-01  -7.7846115e-01  -9.1464293e-01  -9.3896240e-01   3.9335417e-01  -5.1943207e-01  -9.2539343e-01  -1.5358025e-01   8.1029261e-01  -5.5055021e-01   3.5863080e-01  -3.8509686e-01   3.4470486e-01   1.4236811e-01   6.1134379e-01  -4.7692683e-01  -9.7296523e-01   8.5463761e-01  -7.6007027e-02  -7.1613197e-01  -3.3872764e-01  -1.6850967e-01   7.7338239e-03  -9.3198518e-01   5.6104224e-01   1.4552029e-01  -5.5944190e-01   6.2513597e-01   5.0955567e-01   1.0675052e-01   6.4773077e-01  -7.0995954e-01  -5.0142271e-01  -3.2057341e-01   7.5796054e-01   8.5566600e-01  -5.3395595e-01  -6.3676125e-01  -9.0479362e-01  -3.9568735e-01   4.3883181e-01   5.6009758e-01  -2.7234991e-01   3.2879535e-01  -6.5897187e-01   7.8693817e-02   4.6834664e-01  -8.8655193e-01  -3.9076060e-01  -4.2357516e-01  -7.8786344e-01  -1.9011561e-01   7.1141700e-01  -6.1631705e-01  -4.0317535e-01   2.8423194e-01   3.4237522e-01   5.6565723e-01   2.5219209e-01   2.2861824e-01  -5.5350517e-01   8.3305376e-01  -2.0439416e-01  -9.2143189e-02   3.9148610e-01   5.2187325e-01  -7.9075145e-01  -6.8390652e-01  -9.6233374e-01   5.2288364e-01   2.7572317e-01   5.9691600e-01  -2.4680511e-01  -2.8189989e-01  -8.4729097e-01   6.5883050e-01   8.8566878e-02   4.1218294e-01  -8.0843713e-01  -2.1135377e-01  -1.3516789e-01   2.3248737e-01   8.0358942e-01  -8.4968695e-01  -8.2515694e-01   2.7313302e-01   8.0044383e-01   7.3652434e-02   1.2151907e-01   9.5074421e-01   3.9709788e-02   8.6051792e-01   3.1473116e-01   7.7135261e-01   5.8894924e-01   5.6280365e-01  -5.4361250e-01   1.3818033e-01  -1.2479678e-01  -3.9850336e-01  -6.0422369e-01   7.3182691e-01  -1.9084298e-01   4.1569258e-01   6.1590226e-01  -2.9274026e-01  -7.1786418e-01   6.8126593e-01   5.1850696e-01   9.4174557e-01  -8.7232500e-01   3.8060904e-01  -4.8452546e-01   8.2921117e-01   4.9955301e-01  -9.2368476e-01   6.8180725e-01  -9.7866817e-01  -7.7003909e-01  -9.0274605e-01   9.6850499e-02  -1.2207655e-01  -2.9741604e-01  -6.9507640e-01  -3.1042869e-02   4.6336906e-02  -2.3779519e-01   1.5881180e-01  -9.9307311e-01  -5.1816064e-01  -3.2662809e-01  -6.9255230e-01   5.4471580e-01  -6.7541672e-02   5.2496688e-01   4.8867906e-01   6.3818713e-01   6.3366402e-01   7.2683506e-01  -8.8813645e-01   5.8869582e-01   5.2587325e-01  -8.9681657e-01  -4.2613335e-01   9.6103309e-01  -6.2265034e-01   8.8402490e-01   7.7405391e-01   6.0653813e-02   9.9393203e-01   4.5577224e-01   9.8898237e-01  -8.0227640e-01   2.8410330e-01   7.6834530e-01  -7.1656244e-01   1.5833983e-01  -1.2687430e-01  -7.6440083e-01   4.6945639e-01   2.1151934e-01  -4.2212447e-01  -3.6554753e-02   1.4743786e-01   6.0186783e-01  -1.2199755e-01  -6.7055979e-01  -6.5614072e-01  -7.0589744e-01  -3.1606463e-01   7.8197628e-01  -3.4123773e-01  -4.5447219e-01   6.8564064e-02   3.9076543e-01  -4.4065403e-01  -7.6010275e-01   9.5472206e-01  -9.7613111e-01  -9.0455373e-01   5.5393476e-01   9.8168275e-01   7.4414674e-01  -7.6724361e-01   5.1724001e-01  -7.0534434e-01  -4.3613011e-01  -2.2132398e-02  -2.7194180e-01  -3.9719477e-01  -2.0416828e-01  -3.6629626e-01   8.7418164e-01   4.9579133e-01   2.7319674e-01  -4.5622258e-01   3.5416790e-02  -4.3222159e-01  -8.5052468e-01   8.9082049e-01  -9.7982596e-01   1.0383720e-01   4.0598028e-01  -4.7250149e-01   3.5311357e-01   8.3864672e-01   4.0047925e-01  -2.2515914e-01   7.0005916e-01   7.8383726e-01  -1.8709173e-02  -6.0817665e-01   4.0755788e-01  -3.1733541e-01   1.7530867e-01   2.0569782e-01   3.4582082e-01  -6.9911533e-01  -3.0058499e-01  -3.5244569e-01   1.1819254e-01  -5.7949161e-01  -2.7223212e-01  -3.6145973e-01   6.8237418e-02   7.4359551e-01  -9.6616029e-01   2.4260426e-01   6.2414940e-02  -4.5466391e-01   9.6266498e-01   1.9170074e-01  -4.3375811e-01  -6.4550478e-01   3.3983771e-01  -6.3390854e-01  -7.3810337e-01   8.9472573e-02  -5.8680630e-01  -4.1606066e-01   1.3843394e-01   2.4224274e-01   8.6574988e-01   2.0948396e-01   3.1276982e-01   9.9514007e-01   4.6223825e-02   2.5645641e-01  -4.1037444e-01   7.1041755e-01  -2.4330663e-01   1.2661038e-01  -2.8302721e-01   4.9804701e-01  -2.5907451e-01  -4.4705707e-02  -1.4267577e-01  -2.9216684e-01  -1.4471401e-01   3.4222069e-01   4.5610836e-01  -6.9787197e-02   2.7009058e-01   8.7621299e-01   4.0370078e-01   5.7395617e-01   2.3500269e-01  -6.8677469e-01   1.0827442e-01  -8.4499640e-01   1.8970319e-01  -6.8282027e-01   7.3027157e-01  -2.2851952e-01   4.3267124e-01  -2.1065073e-01   7.8752077e-01  -8.2503637e-01  -8.6398692e-01  -6.5403180e-01   4.3542881e-01  -9.7216828e-01   2.3046843e-01  -9.4735424e-02  -3.7120274e-01  -9.3933896e-01  -9.3912175e-01   9.7939278e-01   1.1565504e-01  -3.6562375e-01   8.3427421e-01   8.6034030e-01  -5.1960199e-01   4.8960846e-01  -8.7479415e-01  -4.1554084e-01  -5.2475419e-01  -9.8856079e-01  -4.0666113e-01   5.5736848e-01  -6.7499155e-01  -1.0138919e-01  -3.4099643e-01   5.9795907e-01  -7.7910869e-01   3.5023536e-01  -9.6812435e-01  -9.0823398e-01  -5.4429014e-01  -6.3772720e-01   7.2829516e-01   4.9832850e-01   6.8824361e-01  -1.1468501e-01   5.0753961e-01  -7.9440235e-01  -9.6611703e-02  -4.1078027e-01   6.8513692e-01  -6.8826433e-02  -3.3697410e-01   1.3728666e-01   7.4459305e-01  -9.3929637e-01   3.0452595e-01  -1.2643480e-01   1.5839797e-01  -6.4361519e-01  -4.9252514e-01  -3.8693977e-01   6.0677873e-01   8.5375656e-01   5.3873900e-01   8.8078470e-02  -1.7659628e-01   5.9320873e-01   8.5276354e-02   8.9551998e-01  -7.3853990e-01   9.8401285e-01   9.4914897e-01   7.1093940e-01   1.9130701e-01   6.1303378e-01  -3.7004002e-01  -3.5106546e-01  -9.2084110e-01  -7.1463385e-01  -5.1564534e-01  -9.8612460e-01   6.2659203e-01  -4.6134756e-01   5.9830233e-01  -3.7924063e-01   6.1063496e-01  -3.1018600e-01   6.7472662e-01  -2.4929630e-01   8.2330638e-01  -5.9689427e-01  -7.2566164e-01   2.7854885e-01   3.7754847e-01   7.3068200e-01   2.9676808e-01  -4.4046228e-01   4.7170268e-01   4.7197713e-01  -4.6505098e-01   6.5860910e-01   4.5351076e-01   7.5103213e-01   1.6086622e-01  -9.1425109e-02  -4.2941949e-01  -3.2957558e-01  -2.5510363e-01   1.0648090e-01   5.1727470e-01   2.3623063e-01  -1.3215130e-01   3.1984811e-01  -5.0518994e-01   7.7041853e-01  -5.1902779e-01  -7.4965322e-01  -7.1945791e-01   9.3246915e-01   3.1094315e-02   9.1136564e-01   3.2631269e-01   3.5269456e-01   7.3128743e-02   5.5695676e-01  -7.3367124e-01   5.9548059e-01   3.8042050e-01   4.1757379e-01   1.3799433e-01   6.5485816e-01  -8.6300200e-01  -1.3502882e-01  -8.7196815e-01   8.6909934e-01  -7.2973144e-01   8.7206843e-02   6.6209049e-01   3.3927910e-01  -9.8884826e-02   7.9335435e-01   5.0962559e-01   9.0112034e-01  -1.4655754e-01  -2.2278251e-01  -4.2362861e-02   3.3042379e-01   1.0373477e-01   2.1445853e-01  -9.3786465e-01   3.2808478e-01  -5.8616934e-01  -9.2610577e-01   5.8050957e-01  -6.3930396e-01   5.3389780e-02  -8.0714913e-01   4.5200289e-01  -7.8380193e-01   3.7476045e-01   1.1461368e-01  -1.1470581e-01  -6.7417284e-01   4.2068792e-01   5.8988293e-01  -8.5299591e-01  -2.0043776e-01  -9.8414370e-01   6.9388765e-01   4.1075322e-01   7.1288920e-01  -8.8382052e-01  -8.9169961e-01   7.0534524e-01  -1.1438621e-01  -9.7285998e-01   6.6361073e-01   4.5996561e-01   1.1517472e-01   3.5551968e-01  -2.4351089e-01   6.4312686e-01   9.3321523e-01   7.4818075e-01   2.1286645e-01  -4.7607353e-01  -8.7342399e-01   6.9910063e-01   8.2243756e-02   1.7809093e-01  -5.1411265e-01   8.5993266e-01  -4.9837118e-01   4.3018049e-01   3.6336744e-01   4.4023890e-01  -3.8920622e-01  -2.7038122e-01  -4.6757212e-01  -4.1695006e-01   8.8072959e-01   1.2299620e-01  -2.6613180e-01   1.4374921e-01   4.9050811e-01  -4.8023103e-01  -9.3596796e-01  -5.2079234e-01   3.2940834e-01  -5.0605813e-01   1.9367539e-01  -3.5435912e-01  -9.4837041e-01  -5.0458561e-01  -2.6359121e-01  -6.7741545e-01  -8.2656438e-01   1.7911665e-02   3.5000066e-01   7.2159468e-01   8.0913296e-01  -5.9657993e-01  -6.7171588e-02   7.7756633e-01  -3.0589235e-01   8.5854433e-01  -8.3555998e-01   1.0215230e-01  -8.9628210e-02  -1.4991854e-01   7.9210726e-01  -6.8710878e-01   9.5306279e-01  -1.3718026e-01   4.8496114e-01  -2.2620341e-01  -3.2267008e-01   3.5199034e-01   5.6976475e-01   8.4766170e-02  -3.8797821e-01  -2.6995931e-01   6.5620041e-01  -9.6815146e-01   4.5720639e-01   7.2001302e-01  -6.3287660e-01  -7.0008899e-01   6.3314087e-02   8.7551439e-03   6.9661670e-01  -8.5879544e-02   1.0597819e-01  -5.0970132e-01   5.9925178e-01   8.5603271e-01  -4.0414842e-01  -9.2719641e-01  -3.7939512e-01  -3.3807399e-01   5.9119047e-02   1.5727681e-01   7.4757520e-01  -4.1055255e-01  -3.3332625e-01   7.7287358e-01  -5.6540729e-01  -8.6561571e-01  -6.4816616e-01   6.7143297e-01   9.1413780e-01   3.1158087e-01   3.6046305e-01  -9.3207273e-01  -7.4764923e-01  -6.7673880e-01   1.0237261e-01   6.5149390e-01   3.1450256e-01  -7.7434804e-01  -8.8793869e-01  -2.5560281e-01  -4.5969788e-01   8.8900805e-02   3.1136313e-01   2.7699591e-01   3.3058947e-01  -9.2529181e-01   1.2221600e-01   2.0891846e-01   4.2399357e-01  -1.9928332e-01   9.3335940e-01  -2.9589591e-01   5.8203588e-01   2.2811341e-01  -3.6502440e-02   7.0611308e-01   6.8172498e-01   9.8581898e-01  -5.1614847e-02  -5.3274120e-01   8.9043994e-01   9.6078118e-01  -1.2339679e-01   4.9512808e-01   5.7808232e-01  -6.9486668e-01  -4.2379305e-01  -4.5532106e-01   1.0414775e-01  -3.2618965e-01   3.1042451e-01  -6.2043104e-01  -2.5666494e-01   2.9652879e-01  -6.7744335e-01  -3.0153918e-01  -3.3124831e-02  -9.8294578e-01  -4.5873311e-01   2.3836904e-01  -2.9928906e-01  -6.7652389e-01   9.4572812e-02   8.7484334e-01  -7.7027142e-03   9.0711784e-01   6.3826236e-01   8.4753811e-01  -9.4551022e-01  -9.7378043e-01   6.2136597e-01   8.7056665e-01  -8.2401958e-01  -5.0655571e-01  -2.3428953e-01  -8.2594520e-01  -7.9645731e-01   2.5636865e-01   2.5031322e-01   1.4569475e-01   1.2591377e-01   3.2795363e-01  -9.6793891e-01  -9.7434302e-01  -5.4499382e-02  -7.0225447e-01  -5.0887591e-01  -1.8300367e-01   6.9005397e-01  -2.1341987e-01  -3.3964403e-01   9.8397800e-01  -2.4463938e-01  -6.3209314e-01  -5.9069092e-01  -8.4043917e-01   2.5257909e-01  -3.5106742e-01   8.7337922e-01  -9.3733800e-01  -4.4494691e-01   1.3493770e-01  -7.3755394e-01   2.1389362e-01  -8.5431766e-01  -9.4320870e-01   9.7479356e-01  -7.8043713e-01  -4.0104259e-01   6.2300913e-01   4.7531567e-01  -1.9853152e-01   3.0774528e-02  -3.0618088e-01  -9.5557257e-01  -4.5878199e-01   1.3736460e-01  -4.6673243e-01   3.4388415e-01  -8.3471398e-01   6.9285047e-01   2.2449478e-01   6.5946519e-01  -9.1307618e-01  -8.7723621e-01   5.4860791e-02   4.9507278e-01   9.6729415e-01  -8.1169125e-01  -5.3404184e-01  -5.5164852e-01   9.1694928e-01   7.8199127e-01   3.7499428e-01  -7.2678660e-01   8.6733866e-02   9.8938117e-01   1.9486176e-01   9.6351288e-01
  -8.5775003e-03   5.0787214e-01   8.4338400e-01   8.2694536e-01  -3.3483827e-01  -4.7631803e-01   9.7329446e-01  -1.1009921e-01   4.8491602e-01  -8.0504370e-02  -3.9633711e-01   3.4159182e-01   8.1268364e-01   1.2576642e-01  -8.4287487e-01   8.9408952e-02   6.4460391e-01   7.1898009e-01   8.8732830e-01   2.8779234e-01  -5.2072222e-01  -9.0936291e-01  -5.8828415e-01   8.0453534e-01  -8.8098656e-01  -3.6139587e-01   8.2357300e-01   2.1525781e-01  -7.1281234e-01  -6.5046396e-01  -5.6768445e-02   7.6746604e-01   7.7190882e-01  -5.8085942e-01   4.1488142e-01   5.5332193e-01   8.8571442e-01   7.1189189e-01  -2.5307915e-01  -9.1407897e-01  -1.4462081e-01  -4.5056374e-01  -8.7874590e-01   3.2670868e-01   5.9066136e-01   1.7506593e-01   4.8352707e-01   4.2882411e-01   5.0196589e-01   6.4697746e-01  -1.4192011e-01   3.8792528e-01  -4.1142267e-02  -8.8668653e-01   3.3241303e-03  -5.0549176e-01   8.0003561e-01  -8.9580874e-01  -7.0762119e-01   3.8160373e-01  -3.5652322e-01  -2.3922200e-01   2.7455254e-01   4.5074880e-01  -5.0483682e-01  -6.7743355e-01  -5.1934561e-01   2.9309901e-01  -2.2809891e-01  -9.7526063e-01   4.3226202e-01   9.4318772e-02  -2.8440926e-01   4.2134543e-01   1.8860306e-01   4.7592034e-01   8.5653288e-01  -6.0074157e-01  -8.5943653e-01  -2.6635614e-01  -5.4396073e-01   3.2404758e-01  -2.4701140e-01   7.8043215e-01   4.1371149e-01  -1.0464774e-01  -9.3754657e-01  -9.7699208e-01  -7.9377598e-01   3.8401356e-01  -8.5711587e-01   2.2080748e-01  -3.5857270e-01  -3.6203525e-02  -5.8821896e-01   9.7395662e-01  -2.6073766e-01   1.7404893e-01  -6.5089207e-01  -7.1151570e-01  -8.8776970e-01   7.7824474e-01   5.3620252e-01   4.8999013e-01  -7.8532412e-01  -9.4231339e-01   7.4057329e-01  -7.1530846e-01   6.4578716e-02  -2.5956588e-01   1.6371273e-01  -6.7564215e-01   2.4054548e-01  -2.8899342e-01  -3.8917222e-01  -5.7307624e-01   2.6851361e-01  -6.5224945e-03   7.2703347e-01   2.0414351e-01  -9.4571722e-01  -6.7638740e-01  -4.4568011e-01   7.1630956e-01  -1.9184652e-01   6.6170923e-01  -5.4134034e-01  -1.6353476e-01  -2.5381936e-03   4.8281354e-01  -6.8770692e-02   4.5149518e-01  -2.0610232e-01  -1.4924794e-01  -8.2319730e-02   1.8805837e-01   8.6379465e-01  -2.3194666e-01  -4.1882096e-01  -5.7747366e-01   6.3605652e-02  -7.4845652e-01  -8.3746025e-01   4.5196616e-01   6.1088508e-01  -3.2567195e-01  -6.2167173e-01  -3.1151847e-01   4.2042673e-01  -1.5444525e-01  -9.5534605e-01  -2.7761419e-01  -4.1677530e-01  -7.2435035e-01  -5.4585807e-01  -6.8395192e-01  -6.3158432e-01   6.1115172e-01   2.7623400e-02  -3.6429430e-01   9.9554149e-01   1.3499330e-01  -1.5209545e-01   1.8833110e-01  -2.3971152e-01   8.3642940e-01  -8.5581179e-01  -8.3409793e-02  -3.1257003e-01  -3.5990739e-01   7.6894218e-01  -3.1014607e-01  -1.3602295e-01  -8.5827936e-02   1.8112417e-01  -1.2964249e-01   6.8520661e-01   3.5697462e-01  -7.5338741e-03  -4.4300805e-01   1.0897625e-01   5.3971177e-01   3.3860014e-01   8.6662685e-01   7.5005592e-01  -3.4550230e-01  -1.2130442e-01   8.4864814e-01   1.1933257e-01   9.6903705e-01   5.8957800e-01   4.1588593e-02  -5.1628934e-01   4.0609745e-01   9.5713787e-01  -3.8823387e-01  -8.1972759e-01   8.6188767e-01  -6.9337232e-01   8.0523205e-02  -1.2964118e-01  -1.9577106e-01  -1.6954216e-01   2.0199660e-01   3.2473042e-01   6.8368821e-01  -3.3217760e-01   3.4492826e-01  -7.0947915e-01  -5.2254588e-01  -3.2139366e-01   3.3941820e-01   9.2178259e-01  -2.1918954e-01  -3.6335112e-01  -6.5341632e-01   5.0001520e-01  -3.1166229e-01  -4.1369320e-01   6.0257008e-01   8.5595451e-01   3.1693523e-01  -5.3917233e-02   5.1193354e-02  -6.9507471e-01   8.5381033e-01   4.4404951e-01  -7.1554171e-01  -7.4746662e-01  -7.3143177e-01   5.1568450e-01  -1.9699110e-01  -5.3620287e-01  -7.5179043e-01  -6.8387474e-01   1.6343726e-01  -7.8539177e-01   5.6386052e-01   2.0560378e-01   5.7906860e-01  -5.9296827e-01  -1.4992752e-01  -3.1291227e-01  -5.2234207e-01   3.3864064e-01   3.1799899e-01  -7.7795406e-01  -2.6950835e-02  -8.2579558e-01  -7.4804924e-01  -3.1307957e-01  -4.4818839e-01  -3.0080115e-01  -5.1127322e-01  -5.1061045e-01  -6.0099269e-01  -1.3905215e-01   5.1423278e-01   3.9553837e-01  -3.2408224e-01   1.3665314e-01   5.1766054e-01  -7.9016964e-01  -2.2129230e-01   2.8326459e-01   8.9678303e-02  -5.2583143e-02  -4.7410795e-01  -3.2927700e-01  -8.7928309e-01  -1.1834742e-01   7.5700941e-01  -8.2643979e-01  -2.8858088e-02   3.7840991e-01  -6.2619967e-01   4.5408328e-01  -9.6099236e-01   4.6958820e-01  -1.4542246e-01   2.4438347e-03  -1.4968902e-01  -1.0336490e-01  -2.2085299e-01  -1.1904780e-01   1.5656746e-01  -8.3389324e-01  -5.4684904e-01  -8.1388906e-01  -3.7262656e-01   7.4454749e-01  -7.5511240e-01  -7.3350365e-01  -1.7316368e-01  -4.8393464e-01  -8.4886310e-01   8.5727972e-01  -4.6798331e-01  -5.0516985e-01  -3.3132390e-01   4.1843036e-01   3.9161033e-01   3.3178092e-01  -6.6571658e-01   2.7005826e-01   5.2075804e-01   7.0296705e-01   7.0489555e-01  -8.4090339e-01   5.1723175e-02  -6.1840827e-02  -2.4642773e-01  -9.6590652e-01  -9.0836204e-01  -4.1715500e-01  -8.3405020e-01  -1.7889659e-01   8.4346360e-01  -8.9258181e-01   6.7133516e-01   5.1370127e-01   3.9087858e-01  -6.7103872e-01   3.9077541e-01  -8.5647526e-01  -3.4883584e-01   8.3589110e-01  -3.0184180e-01  -9.9739132e-01   2.3117430e-01  -4.9672526e-01   7.9099051e-03  -2.8928865e-02   8.6001338e-01   6.2655860e-01   1.4567313e-01   3.8418507e-01  -1.4144744e-01   4.6877966e-03  -3.6452884e-02  -5.1126659e-01  -6.5289169e-01  -3.6345281e-01  -7.3612472e-01  -6.5900670e-01  -8.8816584e-01   5.9226216e-01  -4.1069029e-02   7.7648505e-01   7.4891474e-01  -8.5464106e-01   5.3297250e-01  -4.8091347e-01   2.0493466e-01   5.9314262e-01  -8.1662707e-01   6.7723867e-01   5.4120122e-02   4.7223067e-01  -6.4540512e-01  -5.1322198e-01  -5.2969946e-01   7.2935107e-02  -6.8689992e-01   7.6409757e-01   9.9234441e-01   8.7241100e-01  -2.0145163e-01  -1.0302682e-01  -2.1086350e-01   4.6539165e-01   5.6780130e-01  -2.8422839e-01   2.1637889e-03  -3.9585452e-01  -3.6032860e-01  -4.5642960e-01   4.2640650e-03  -8.9760483e-01   2.8031425e-01   9.6059935e-01   8.4418738e-01  -5.9433954e-01  -1.5928040e-01   3.7981771e-01  -5.1309433e-04   5.6613760e-01   4.1865813e-01  -1.9011934e-01   9.7268059e-02   3.6216438e-01   4.7659369e-01   6.5283698e-01   4.2733831e-01  -8.7589695e-01   3.6183790e-01  -8.5880796e-01  -1.2031845e-01   3.8863922e-01   5.2754088e-01   9.0489880e-01   3.6296066e-02  -7.8273564e-01  -2.2600551e-01   9.2385368e-02   4.0188471e-01   6.7066577e-01  -5.5734333e-01   9.4872574e-01  -1.8259503e-01   8.7246944e-02   4.0859926e-01   5.1415938e-01   5.2289997e-01   2.8305931e-01  -1.8583092e-01   4.0499714e-01  -6.1417428e-01   3.7494301e-01   9.6455294e-01  -8.9620834e-01  -1.2707558e-01  -4.8135149e-01  -3.4079260e-01   7.5994949e-01   1.6658239e-01   5.0857488e-01   4.0650643e-01  -8.7813090e-01   6.6746903e-01   7.2445867e-01   8.8827943e-01  -8.7986228e-01  -4.8704914e-01   1.1763291e-01   6.4339325e-01  -9.6320446e-01  -2.8482551e-01   8.5679524e-01  -5.0861856e-01  -9.3079244e-01  -8.1794528e-01   8.1300399e-02   9.3689578e-01  -7.7588336e-01  -7.2312892e-02  -1.2061725e-03  -6.6939677e-01   6.6304276e-01  -2.0659739e-01   1.8438064e-01  -3.0741587e-01   9.9950398e-02  -2.7180086e-01   2.6396787e-01  -7.2444558e-01  -5.8061420e-01  -5.4738120e-01   6.9894780e-01  -9.8630745e-01   2.6264569e-01  -2.9461138e-01  -2.8309689e-01   4.8798526e-01   3.7078965e-02  -2.1931505e-01   2.5287638e-02  -4.9983960e-01   6.5437337e-01  -8.2947556e-01  -7.0755805e-01  -8.0791480e-01  -8.7144385e-01   2.8276612e-01   2.7341437e-01  -9.2960218e-01   6.5774095e-01  -5.1741274e-02   5.6085883e-01  -8.0578715e-01   6.7548139e-01   3.6457901e-01  -6.7220468e-01   2.3247728e-01  -9.6818012e-01   7.0233627e-02   5.5518100e-01   1.1476197e-01   7.0484919e-01  -7.7199486e-01  -5.4760409e-01   2.0946937e-01   9.9154808e-01   3.0946749e-01  -4.7419085e-01   5.0236077e-01   9.9397669e-01   8.4698104e-01  -3.4266206e-01  -9.6589169e-01  -2.7614138e-01   3.4960160e-01   1.5528542e-01   7.1004579e-01  -6.2150717e-01   2.2267356e-01   9.6123898e-01  -9.2592778e-01   9.1590701e-01  -2.1926391e-01   6.8448988e-01   6.0468449e-01  -1.2971532e-01  -7.7602786e-01   1.4712319e-01  -5.3545744e-01   8.2522406e-01   7.1458767e-01   4.6999128e-01   8.1055674e-01  -3.5598130e-01  -4.7958205e-01   4.2687296e-01   2.5316395e-01   8.7053940e-01  -4.1806056e-01   2.2446708e-01   9.3865552e-01   2.2523378e-01  -4.6535912e-01  -2.6310061e-01   5.3002820e-02   2.9544828e-01  -5.2241044e-01  -6.4239112e-02   3.1712903e-01   4.4345790e-01   1.5005645e-01  -2.0295451e-01   5.0010375e-01   9.9149550e-01  -5.0096408e-01   9.7987894e-03   6.0154239e-01  -4.6559378e-01  -1.1140416e-01  -8.8502984e-01   8.5022367e-01   2.4237129e-01  -6.1373870e-01  -7.0701555e-01   1.6582109e-01   9.4532459e-01  -4.3714401e-01  -3.3168234e-01   9.8107244e-01  -4.3249750e-01   5.1856993e-01   3.2766926e-01   3.1353149e-01   3.9880789e-01  -7.1475273e-02  -7.2595349e-02  -1.6242489e-01  -1.7835234e-01  -4.5869803e-02  -2.0150865e-01   2.4613086e-01  -3.0752948e-02  -9.1357143e-01   4.8572264e-01   8.3528493e-01  -7.9925801e-01   1.7579721e-01   5.1359738e-01   3.7041333e-01  -3.9368268e-01  -1.1713272e-02   9.2304450e-01  -7.5400911e-01  -5.3860080e-01   5.5927139e-01   2.1270276e-01  -4.0293255e-01   4.1027152e-01   5.8484304e-01   6.7334644e-01  -7.7739546e-01  -8.5156588e-01  -8.6750125e-01  -9.2952436e-01  -4.5879861e-01  -9.6255792e-01   6.4490289e-01   2.2355399e-01   5.0328945e-01   3.3305662e-01   5.8708749e-01   4.8723539e-02  -7.1758880e-01  -4.4465608e-01   6.6491038e-01  -2.0625903e-01   8.6670512e-01  -3.9290384e-01   7.6983034e-01  -8.3109360e-02  -1.1098453e-01   7.4384891e-01  -4.3951914e-01  -9.5345888e-01   2.9396366e-01  -2.9619582e-01  -8.0635021e-01   3.7609566e-01   9.0144069e-01   3.2743562e-01   8.9883391e-01   8.0706704e-01  -3.2295630e-01   7.7170492e-01  -4.1579517e-01  -8.2315257e-01  -4.9116970e-01   3.6591998e-01  -7.3986402e-01   5.9320359e-01  -4.1707042e-01   9.1545956e-01   7.4116995e-01   2.8012715e-01  -1.9124178e-01   3.3366479e-01  -4.2288280e-02   3.3168274e-01   7.4067320e-02  -2.9873688e-01  -4.2380762e-01  -6.8059845e-01   8.7844921e-01  -4.7847085e-01  -3.3629108e-01   1.4186224e-01   7.8510498e-01  -5.1313682e-01   4.2804076e-01   7.2986461e-01   6.2627148e-02   9.5334795e-01   2.7770215e-01   4.8409818e-01   2.4682348e-01   3.8560863e-01   3.7867756e-01   6.7570454e-01  -2.3508031e-01   6.5500533e-01   8.2658349e-01  -2.4723895e-01  -6.6131301e-01  -8.4907544e-01  -2.0975579e-01   6.8744585e-02   1.0034482e-02  -5.2593946e-01  -5.8143376e-01   2.6323405e-01   7.7367238e-01  -2.0525818e-01  -1.3895050e-01   3.7430252e-01   9.1415890e-01  -5.8500792e-01  -2.0753068e-01  -3.3598091e-01   5.1648125e-02   7.1450123e-02   6.9143921e-02  -4.5799116e-01  -1.6184674e-01  -1.9926729e-01   5.4314237e-01  -1.6496313e-01  -9.5574715e-01  -9.4111400e-01   9.2168597e-01  -9.1053745e-01  -2.3495374e-01  -7.3989298e-01  -2.5551245e-01   9.4683325e-01   9.6494880e-02   9.3466319e-01  -4.7403873e-01   3.7863247e-02  -8.4456481e-01   6.1088375e-01   8.0981956e-01  -3.6036507e-02  -1.6122513e-01   7.9645341e-01   5.2759760e-01   8.0147597e-01   3.0956971e-01  -4.8827753e-01   8.6382296e-01  -1.5865489e-01  -2.9191000e-01   6.6124783e-01  -4.9802119e-01  -2.0938596e-01   5.4823844e-01   3.2414399e-01  -5.4406696e-02   4.9794378e-01  -1.6332635e-01   6.5147376e-01  -3.6376230e-01   6.3160044e-01   1.3235897e-01  -9.2525842e-01  -2.0357199e-01   3.9484234e-01   1.9157872e-03   2.6045940e-01   9.9921215e-01  -8.5694981e-01   7.0947805e-01   7.1050376e-02  -3.8408581e-01  -9.3253791e-01   1.6610292e-01   4.0839155e-01   1.9937653e-01   5.9811917e-01   6.6667886e-01  -8.3744681e-01   8.0882040e-01  -3.9903981e-01   2.8138447e-01   4.7666674e-01  -3.8495659e-03   5.7733217e-01  -3.0100441e-01  -6.6785862e-01   5.8770933e-01   1.7403518e-01   1.1581635e-01   2.4772426e-01  -4.0581291e-01  -8.5461317e-01  -3.1172770e-01  -8.1938622e-01   6.8663160e-01  -3.4148522e-01  -8.5403226e-01   6.4704986e-01   4.3155898e-01  -5.6673801e-01  -3.3292695e-02  -2.7228460e-01   5.8933469e-01   7.4693910e-02   9.6486141e-01  -4.5729683e-01  -1.6629843e-01  -7.7712002e-01  -5.1909182e-01   7.2138593e-01  -5.6492501e-01  -7.1815290e-01   4.6298771e-01  -9.0812575e-01  -2.8112340e-02   2.9153084e-01   9.4524429e-03  -6.1535152e-02   1.1384933e-01   5.5611522e-01   6.9236455e-01  -7.0476319e-01   1.6899878e-01   9.3961987e-01   4.2620621e-01  -2.2307856e-01   9.1082556e-01   9.7354771e-01   1.8341400e-01   7.9330024e-01   4.1009726e-01   5.0450005e-01   3.9659521e-01   8.9361775e-01  -6.7434662e-02  -6.0673043e-01  -4.0581398e-01   6.7878194e-01  -7.8758897e-01   1.9674424e-01  -7.2284220e-01  -1.5800658e-01  -1.7381967e-02   1.5231336e-01  -2.1831840e-01  -6.6747783e-01  -5.6334135e-01   2.8669963e-01  -4.9180309e-01   5.2556038e-01   7.8095711e-01   4.8255319e-01  -1.6761663e-01  -2.3151651e-01   6.8105489e-02  -1.0128265e-01   7.0414324e-02   3.0396854e-01  -6.0014528e-01   8.9058491e-01   1.1331163e-01   7.9197214e-01   2.9455758e-01  -3.6571982e-01  -3.4066157e-01   2.6223450e-01   6.6623623e-01  -5.0401934e-01   3.7582458e-01  -5.1787582e-01  -5.1001276e-01  -1.9034623e-01   4.5789698e-01   2.9421339e-01   2.9942765e-01   7.0393179e-01   4.3214350e-02  -7.6673066e-01  -4.3807150e-01   7.5101107e-01  -3.5673491e-01   1.3277056e-01   1.0622638e-02  -6.3220064e-01   5.3152571e-01  -2.8960370e-01  -1.8999272e-01  -9.3805975e-01   2.2412742e-01   3.1551752e-01  -9.3186683e-02  -3.1133108e-01  -7.7723172e-01  -6.0752752e-01  -7.6354569e-01   3.5038944e-01   2.5845252e-01  -9.5243486e-01  -5.2706882e-01   3.4001445e-01   5.8936947e-01  -3.3908976e-01  -2.1787690e-02   1.7362967e-01   8.7437665e-01  -3.9288694e-01  -8.8430541e-01   1.9522958e-01  -2.6882469e-01   6.9003218e-01  -5.8462894e-01  -2.6275444e-01  -1.8878481e-01  -5.2379550e-01   9.9597578e-01  -4.2443688e-01   7.7153660e-01   9.5737711e-01   7.8182346e-01  -7.7027133e-01   6.7627846e-01   2.7280324e-01   1.0551767e-01   6.9770926e-01   5.3561905e-01   2.0517270e-01   7.1595421e-02   3.0252548e-01  -1.8061958e-01  -4.5123233e-01  -7.6419681e-01  -1.9068216e-01   8.7726382e-01  -1.1018158e-02   7.2526506e-01  -7.0480631e-01  -8.1311523e-01  -5.4174191e-01  -4.2356778e-02  -9.7770609e-02  -4.0632709e-01   7.7874351e-01  -8.1593401e-01   8.9053286e-01   6.9707598e-01   6.1892607e-02  -7.0203664e-01   7.3623001e-01   8.3008002e-01   1.3876041e-01   7.6751219e-01   1.3275098e-01  -8.0289512e-01  -5.0696435e-01  -5.9113210e-02  -1.6022200e-01   2.8986141e-01   2.5966732e-01   2.5649241e-01   1.6900604e-01  -7.5335719e-01   6.4259767e-01  -1.1545100e-01  -3.6289466e-01   3.5516398e-01   9.0924361e-01  -6.5495279e-01  -5.5747826e-01   8.6241586e-01  -4.3872142e-01  -1.2419354e-01   9.4245848e-01   7.3708110e-01  -1.0881519e-01   2.2205993e-01   9.5656097e-01  -6.7985873e-01   8.9950785e-01  -1.4067771e-01   6.0513386e-01  -4.6281792e-02  -8.0033583e-01  -7.2960745e-01  -3.9135217e-01   3.6651259e-01  -6.0033014e-01   4.5495197e-01   7.9160006e-01  -1.4210625e-01  -7.4310843e-01   2.5392563e-01   8.1948152e-01  -4.2577045e-01  -8.5729828e-01  -1.7725168e-01  -4.7450205e-01   8.3809308e-01   2.4222750e-01   6.6983293e-01  -9.6077851e-01  -1.2892649e-01   1.8843892e-02  -4.1281319e-01   1.9695219e-01   8.9855422e-01  -6.9873948e-01  -9.5767796e-02   9.7247622e-01   8.5046468e-01   9.9496208e-01  -8.9248592e-01   3.1391890e-01  -2.6607022e-01   2.5895775e-01   8.3844083e-01   9.8340916e-01  -2.9145293e-02   2.0263534e-01  -9.2340125e-01  -1.5790964e-01   5.0123943e-01   3.2024408e-01  -9.4506633e-01  -4.0684673e-01   2.0191212e-03   4.9017317e-01   6.1613238e-01   4.6349365e-01  -6.9903027e-01  -7.5315793e-01   2.3093219e-01  -1.0995070e-01   9.6547970e-01  -1.9234542e-02  -4.8294911e-02   3.9904537e-01   5.4981191e-01  -9.5288303e-01  -8.2957993e-01   1.7424458e-01   3.8249752e-01
   5.5322957e-01  -6.2827588e-01  -6.2470406e-01  -5.0502107e-01   1.0470801e-01  -7.6228092e-01   7.4816657e-01   5.3088371e-01  -3.5161604e-03  -5.8518511e-01   3.3711673e-01  -1.8292116e-01   6.4556870e-01  -3.0936803e-01  -8.3239300e-01  -7.3359787e-01   4.7156379e-01  -7.6917259e-01   8.7056052e-01   6.4102365e-01  -8.5443656e-02   7.1918973e-01   1.2074793e-01   1.6546574e-01   4.3423588e-01  -7.7862498e-01   3.8530462e-01   9.0467722e-01   5.6908574e-02  -5.6030272e-01  -8.2487526e-01   7.9478647e-01  -3.2984243e-01   7.0306037e-01   6.5936072e-01  -6.3164442e-01  -3.7918025e-01   3.3021464e-01  -9.5250050e-01  -6.9061216e-01   6.0500135e-01   9.7829738e-01  -3.3110869e-01  -5.0356461e-01  -3.0271480e-01   8.8550017e-01  -1.8780863e-01  -3.1178800e-01  -6.6875111e-02  -6.8537316e-01  -5.8417031e-01  -7.5770961e-01  -5.9362552e-01  -2.9011345e-01  -2.6801557e-02  -9.0268895e-01   8.5350258e-01  -4.4104835e-01  -5.2876527e-01   8.2529776e-01  -3.2220007e-01  -7.3838788e-02   2.9255851e-01  -8.4831083e-01   7.4184467e-01  -8.1115082e-02  -9.2446672e-02  -4.3594854e-01   3.4188895e-01   5.3420428e-01  -5.9898660e-01  -5.5381442e-01   1.8500445e-02   1.4424044e-02   8.5627432e-01   7.9350221e-02  -5.7704783e-01   3.4415524e-01  -8.3220882e-01   7.9176907e-01   3.9183612e-01   4.2891145e-01  -3.3798570e-01  -2.2386551e-01   1.5664106e-01   6.4002378e-01  -9.3564640e-01   3.0001064e-01   9.8441744e-01   9.8311156e-01  -6.7608196e-01  -8.4227747e-01  -5.4427774e-01   7.7216334e-01   6.1675847e-02   4.3915340e-01   1.8861395e-01   1.9346342e-02  -4.1577971e-01  -2.3975816e-01  -1.6225760e-01  -3.7200763e-01  -8.0556067e-01  -9.8214627e-01   7.0343649e-01   2.9414339e-01  -4.7927602e-01   3.5380864e-01  -6.6941043e-01   3.6877553e-03  -8.2088522e-02  -2.5523058e-02   4.1239572e-01   2.5161473e-01   5.2366054e-01  -1.5288799e-01  -6.0542982e-01   1.9627010e-01  -4.1775742e-02   8.6761650e-01  -5.5629775e-01   7.9588192e-01  -2.6244591e-01  -8.1074345e-01   6.4007524e-01   8.7956514e-01  -2.8713979e-01   6.9255467e-01   9.2443324e-01   5.1160087e-01  -1.0518257e-01  -8.4071367e-01  -9.7148491e-01  -5.6081330e-01  -9.5686494e-01  -8.5697708e-01   4.8685725e-01  -5.9876509e-01  -4.4996858e-01  -4.4323159e-01  -3.3999108e-02  -2.2937626e-01   7.1837916e-01   9.5872421e-01  -1.4897388e-01   8.4111158e-01  -1.3266607e-01  -8.1445840e-01  -9.7054434e-02   8.9879234e-01   6.8372517e-01  -1.4759802e-01  -2.4239064e-01  -5.3651907e-01   2.7004455e-01   8.0812508e-01  -8.3674628e-01  -6.0349504e-01  -4.6023930e-01   3.2067548e-01  -2.6872276e-01   2.9029045e-02   8.1020992e-01   6.2226892e-01  -9.0301846e-01   5.8951416e-02   4.7231882e-04  -8.6764942e-01  -5.8592433e-01   2.3565637e-02   9.9423580e-01   5.7460402e-01   5.7060800e-01  -7.0280742e-01  -3.6295359e-01  -9.7713748e-01  -2.2404454e-02  -3.7248804e-01   4.2691911e-01   8.5088269e-02   2.2081320e-01   1.2818117e-01   3.9709343e-01   5.0131764e-01  -9.1331009e-01   3.5972940e-01   8.4151772e-03   8.0417493e-01   1.9004931e-01  -7.2455384e-01   3.4723558e-01  -9.3736918e-01   1.8483470e-02  -8.3140925e-01   9.2181926e-02   6.0530560e-01   5.5108655e-01   8.8083385e-01  -6.5511059e-01   2.8304195e-01  -4.8700072e-02  -8.2712364e-02   5.8847832e-01   1.8867635e-01  -4.1727837e-01  -8.7846936e-01   8.9644132e-01   8.8719747e-01  -6.4931787e-01   7.1018381e-01   2.3000908e-01  -4.2758226e-01  -3.2449958e-01   1.9277899e-01   9.2121168e-01  -3.9793586e-01  -4.6101688e-01  -8.4611609e-01  -2.5818210e-01   4.2234638e-01   2.6996610e-01   5.7955700e-01  -6.7972580e-01   3.1217009e-01   5.8417974e-01  -1.8217581e-01  -4.1257735e-02   5.0219422e-01  -5.2795283e-01  -8.4139401e-01   2.3340372e-01   1.8333418e-02   9.9332718e-01   9.9093852e-01  -4.4298940e-01   9.9268645e-01  -7.0829431e-01  -2.6131183e-02  -6.8289565e-01   9.5999716e-01  -7.2185802e-01   7.6506429e-01  -7.0755609e-01  -8.0272887e-01   2.0931912e-01   6.7228962e-01   1.4492539e-01  -4.4286438e-01   2.5360688e-01  -3.5301840e-01   8.3337441e-01  -3.5314198e-01  -4.5288406e-01   3.7352146e-01   5.9347458e-01   9.0788560e-01  -7.4370716e-01   7.2344918e-01   7.2018669e-01   3.9203038e-02   3.9885153e-01  -4.5836223e-01   7.4061978e-01   3.8388136e-01  -5.5995552e-01  -7.1833797e-02  -7.0841717e-01   2.3092025e-01   2.4254913e-01   8.9969293e-01  -4.4215408e-01  -4.9609575e-01  -6.4433607e-01  -5.0351814e-01   6.0969500e-01  -3.5625754e-01  -8.0512680e-01  -6.7787137e-01  -1.8529104e-01   9.5349116e-01   9.3318894e-01   9.5055997e-01   2.3091337e-01   9.7965640e-02   4.2235819e-01  -5.2823092e-01  -8.2412546e-01   4.9369121e-01   5.1350393e-01  -5.9734346e-01  -3.8607251e-01  -9.9519076e-01  -4.8742747e-01   9.4290897e-01   3.1869069e-01  -9.3254866e-01  -6.0860582e-01  -2.5893799e-01  -3.6015755e-01   7.7383754e-01   1.4263465e-01  -1.6892428e-01  -7.6424874e-01  -7.8879451e-01  -3.2584714e-01  -1.8755855e-01   3.8652832e-01   8.6034800e-01   4.5736293e-01  -6.7436220e-01   4.4886362e-01  -4.0010270e-01  -9.3182194e-01   8.8387590e-02   1.2855760e-01   9.7603094e-01   9.6128657e-01  -9.0382080e-01  -2.6667224e-01  -2.5900858e-01   9.2101502e-01  -3.2078745e-01   5.6526224e-01   4.4796092e-01  -6.2527220e-01  -7.0145734e-01  -1.0347509e-01   4.0116852e-01   2.2557550e-01  -3.5847568e-01  -5.9726716e-01   9.9078973e-01   9.3272549e-01  -3.3924689e-02  -3.0477501e-02   6.0181972e-02   3.7714112e-01  -8.3213766e-01  -7.7923915e-01   2.8189760e-01   4.7568793e-01   1.8855207e-01  -1.1973083e-01  -1.2917052e-01  -9.9578226e-01  -8.2911085e-01   3.6256338e-01  -7.2547795e-01   4.5026051e-01   9.9325564e-01  -6.6161734e-01  -2.1059582e-01   1.0141132e-01   1.4519023e-01  -6.4073152e-01   9.4537807e-01  -7.7654390e-01  -2.5258398e-01  -5.0114373e-01   3.7602020e-01  -6.3904657e-01  -4.1172286e-01   5.0559921e-01  -1.6153140e-01  -4.2609150e-01   1.7958923e-01  -2.8013804e-01  -5.0004025e-01   5.4879740e-01  -1.7994564e-01  -7.4145076e-01  -3.0419751e-01  -5.1676529e-01  -7.1931579e-01  -9.6141820e-01   4.1139085e-01  -9.1577243e-02  -8.4648402e-01  -9.7224527e-01   6.8259805e-01   4.7499262e-01  -6.2641573e-01  -2.5813214e-01  -3.7454307e-01  -9.3546484e-01   6.9558813e-01  -8.3854904e-01   5.1207861e-01  -3.0764046e-01  -4.7610055e-01  -3.6753186e-02  -2.3597222e-01  -9.5628897e-01   2.3021095e-01   1.8895021e-02  -6.1298602e-03  -3.9910172e-01   2.7314971e-01  -7.7976942e-01   9.3037651e-01   6.7231309e-01  -8.2368596e-01   1.4648327e-01  -9.1389176e-01   2.1200512e-01   9.6363885e-01  -1.2778232e-01  -7.4128572e-02   2.8731271e-01   6.3133051e-01   4.2686535e-01  -6.9038172e-01  -7.8860830e-01  -7.0802824e-01  -9.5042721e-03   2.8878818e-01  -6.6633255e-01   3.5591252e-01  -7.6330460e-01   3.8445905e-01   7.4490631e-01   5.3858466e-01  -1.1340056e-01  -4.0386296e-01   5.3718531e-01   7.7304501e-01  -4.3458934e-01  -4.4121495e-01   5.9595383e-02   2.2235312e-01  -3.1181030e-01  -6.6122865e-01   2.7800761e-01  -6.2052949e-01   8.9589799e-01  -7.6163904e-01  -5.3021484e-01  -7.9371256e-01   1.1378219e-01  -2.8887053e-01  -4.4078318e-01  -6.4796783e-01   1.0662980e-01   2.7497713e-01   8.6770204e-01   1.7620101e-01   9.0417746e-01   5.4685498e-02   5.6715700e-01  -6.8565073e-01   3.3556949e-01  -7.7145066e-01   5.7037576e-01  -5.6969189e-01   4.9878438e-02  -1.5787590e-01  -7.4472008e-01  -3.0472363e-01  -1.0458125e-01  -3.1556845e-01  -1.0168324e-02  -4.7919461e-01   8.5879381e-01  -2.3736905e-01  -7.5607167e-01   3.7412423e-01   2.0817684e-01   1.9805711e-01   4.8850470e-01  -1.3733495e-01  -6.3836902e-01   8.5014489e-01   8.4983147e-01  -8.7578535e-01   2.1822440e-01  -3.0610528e-01   5.5833681e-01  -2.7222970e-01  -2.7099578e-02  -1.2891194e-01  -8.8477882e-01  -6.9174304e-01  -6.9351958e-01  -7.6942867e-01  -8.5002617e-03   5.3937675e-01  -4.1974974e-01  -4.4405514e-01  -4.6751481e-01   1.1276186e-01   4.9743594e-02  -3.6344879e-02  -7.1760417e-01  -3.6246702e-02   8.2503180e-01  -7.1922711e-01  -5.2532749e-01  -7.9152688e-01   2.0399539e-01  -7.9611476e-01   8.1294341e-02   3.7713557e-01   3.9037953e-01   1.8855065e-01  -5.5916942e-01   9.5684663e-01  -3.1684337e-01   5.6767943e-01  -6.2167819e-01   5.8528627e-01  -1.4393848e-01  -4.7305971e-01  -8.4442974e-01   5.5467648e-01   5.5651062e-03   1.0732240e-01  -9.0912874e-01   7.4710215e-01  -5.7163347e-01  -9.7551220e-01   7.0936422e-01   9.2929423e-01   7.0193047e-01  -2.3721691e-01  -3.5605465e-01   4.8442121e-01   3.9106413e-01  -5.3905046e-01  -9.2876384e-01  -3.5092906e-01   7.0601807e-01  -3.8095154e-01   7.6941913e-01  -6.2242955e-01  -6.2358362e-01   6.8057378e-01  -8.5536030e-01  -1.2631749e-01   1.6841811e-01   2.2199669e-01   9.7884185e-01   8.2213088e-01  -7.1443252e-01  -9.7403265e-01  -2.4006338e-01  -9.5151785e-01   6.4645437e-01   1.6547313e-01  -3.8258723e-01  -9.4380567e-01  -3.4370802e-01  -4.4875451e-01  -5.1246841e-01  -4.7949940e-01  -1.2460872e-01   4.7492800e-01  -4.5205900e-01   3.0143819e-01  -3.1371453e-01  -7.1943544e-01   3.1690615e-01  -2.4566150e-02   5.3630846e-01  -2.7390808e-01   7.2980107e-01   5.4028293e-01   2.1458794e-01   6.6638889e-01   2.9445264e-02   6.2682552e-01   7.0080298e-01  -4.5519919e-01  -4.6057182e-01  -9.8419434e-01   1.3247525e-01   8.9753746e-01  -4.2962731e-01   4.2719321e-01   6.9678875e-01   7.1973905e-01   9.4883141e-01   6.7715472e-01  -4.0986874e-01   5.1070388e-01   1.5775132e-01   4.0029236e-01  -8.2853375e-01  -3.7061413e-01  -7.3114184e-01   8.0515254e-01   3.0338500e-01   6.3758813e-01   6.7972626e-01   5.7944092e-01  -8.2499888e-01   6.5633384e-01  -7.8881005e-01   9.0517947e-01   6.3116957e-02  -6.9082221e-01   8.0629069e-02   8.2618415e-01  -9.2344158e-01  -2.8080370e-01  -5.8992028e-01  -9.5360668e-01   6.6194419e-01   5.7939488e-01   9.2219375e-01  -8.8275915e-01   2.4832587e-01   3.9872352e-01   5.1432782e-01  -8.2412696e-01   7.1487580e-01  -7.8865596e-01  -4.9151318e-01   8.6491946e-01   7.6731425e-02  -4.4238380e-01   9.5451264e-01  -7.2560874e-01  -8.3767821e-01   9.0744161e-01   5.7360863e-01   7.5282497e-01  -7.7143118e-01  -7.9619608e-01  -2.0017219e-01  -2.5543439e-01   3.3554372e-01  -4.2893915e-01   5.1698298e-01  -6.3449735e-01  -6.7671624e-01   4.7750376e-01   8.8346988e-01   5.4742751e-01  -6.1617045e-01   3.3418723e-01  -8.2494565e-01  -4.0708572e-01   1.8488032e-01  -4.5475276e-01   9.0066592e-01  -6.8794615e-01  -1.6520835e-01   2.8606906e-02  -6.0818797e-01  -4.1883450e-01   8.9513499e-01   8.4216070e-01   6.3308978e-01  -8.7279806e-01  -8.4452195e-01   1.7686210e-02   4.6808361e-01   4.1755228e-01  -5.0155116e-01  -9.8648984e-03   6.7361780e-01  -2.0331906e-01   7.1990961e-01  -3.5707916e-01  -2.8788018e-02   7.9283731e-01  -8.1371196e-01  -6.1425605e-01   7.2807873e-01   6.1797172e-01  -9.1159358e-02  -2.7226093e-01  -4.0514949e-01  -6.0127112e-01  -6.8769844e-01   5.7048722e-01  -9.4029939e-01  -8.8637545e-01  -7.1409342e-01   2.3587292e-01   2.6992522e-01  -7.9516679e-01   5.0133365e-01   3.7805226e-01  -2.4616070e-01   8.5269591e-02  -7.5082716e-01  -3.8915142e-01  -6.9950542e-01  -3.9590977e-01   2.5445139e-01  -9.1728350e-01   6.1023200e-01  -9.8885881e-01  -5.2886186e-01   2.4456274e-01  -4.9770550e-01   6.4887279e-02  -6.3467642e-02  -5.2493284e-01  -6.1200820e-01   2.3920347e-01  -2.4232821e-01   7.0240780e-01  -5.8560994e-02  -9.9299677e-01  -5.1236574e-01   6.1001428e-01  -5.4687477e-01  -8.5683668e-01   3.5102179e-01  -1.1219368e-01  -9.3158113e-01   4.2255653e-01   6.4742538e-01  -1.5207276e-02  -1.7450818e-01   6.6529605e-01  -6.2439470e-02   2.4614838e-01  -1.2325758e-01   3.7032633e-01   4.0281455e-02   3.5652494e-01   9.7301946e-01   9.3816562e-02  -9.4379596e-01   5.3735837e-01   6.9231767e-01  -3.1029620e-02  -1.4418188e-01   3.7367750e-01  -4.6611076e-01  -6.0421324e-02  -9.1150206e-01   1.4568024e-01   1.0049417e-01  -8.0805752e-01  -7.6782699e-02  -6.0194151e-01  -7.8949571e-01   9.3006926e-01   9.8166908e-01  -4.4121967e-01   7.1407256e-01   1.3990862e-01  -1.9350029e-01   9.8058849e-01  -4.5544860e-01  -2.0690254e-01   5.6098502e-01  -4.2997246e-02  -5.0627103e-02  -3.8865733e-01   4.8092457e-02  -3.9830191e-01  -3.7923337e-01  -9.1220671e-01   1.5447367e-02   1.4564401e-01   1.6617222e-01  -5.3661271e-01   3.9168041e-01   7.2631347e-02  -5.5362491e-01  -8.9119143e-01  -8.6843977e-01   8.3465210e-01  -5.4405021e-01  -7.8448744e-01   6.1925825e-02   9.2447150e-01  -8.0904644e-01   2.7628417e-01  -7.3209675e-01  -8.3586162e-01   1.4609278e-01   3.8010524e-01   7.8904782e-01   6.5457444e-01  -3.7242886e-01  -7.2345249e-01  -2.1165391e-01  -5.5558557e-01  -1.4773730e-01   2.7256183e-01   3.8532816e-01   2.3490050e-01  -8.0894616e-01  -2.9595094e-01  -5.8553704e-01  -2.5911162e-01  -4.4460291e-01   6.6530653e-01  -5.5801589e-01  -8.8571248e-01  -4.3246846e-01  -2.7903634e-01   7.7713143e-01  -7.1713691e-01  -5.1286309e-01  -7.7742013e-01  -1.9200942e-01  -7.3388702e-01   2.9412308e-02  -5.0224920e-01  -7.1246223e-01  -1.3096544e-01   9.6512794e-01  -3.6054445e-01  -9.9616234e-01   9.7798085e-02  -5.1608788e-01  -5.9619400e-01  -8.1177944e-01  -5.5268291e-01   1.4439996e-01   5.7037959e-01  -5.9531702e-01   2.8212817e-01  -4.9115422e-01   3.0387409e-03  -3.6441008e-02  -4.0028471e-01  -4.6990317e-01  -3.9205392e-01  -6.7347664e-01   5.5272580e-02   6.4836070e-01   3.5295443e-01  -6.8673728e-01   5.0299675e-01   5.7798973e-01   3.9014533e-01   8.3737357e-01   1.8759856e-01   5.5876904e-01  -7.2802933e-01  -7.8463161e-01   8.3960946e-01   7.6373835e-01  -9.2163047e-01  -9.8882078e-01   9.8368240e-01  -2.2333187e-01   9.2816438e-01   8.4441900e-01  -4.8334690e-01  -5.1718149e-01   7.6714493e-03   1.4178553e-01  -7.2925333e-01   9.1163628e-01   4.6670965e-01   6.4322927e-01   7.1100981e-01  -5.8783563e-01  -5.3767229e-01  -5.2571655e-01   4.6763096e-01   2.2448967e-01   2.2402301e-01  -5.1227035e-01  -1.0472620e-01  -2.5383249e-01  -1.8421697e-01  -5.8895372e-01  -3.0024877e-01  -2.7362474e-01   1.7792497e-01   4.7068224e-02  -2.2361880e-01   6.2861637e-01   1.8003658e-01   1.1864545e-01  -4.0672950e-01   6.0061570e-01   1.5449739e-02  -3.1763280e-01  -9.5223681e-01   2.4878151e-01   9.0846421e-01  -5.9500196e-01  -8.3475574e-02   3.9907847e-01  -1.3897541e-01  -2.3239893e-01   5.1950760e-01   2.2409146e-01   6.3317629e-01   6.1442745e-01  -3.2049289e-01   6.6206885e-01   5.4033417e-01  -9.1415262e-01   4.4118852e-02   9.2596275e-01   7.2037573e-02   2.0342974e-01  -6.8851797e-01   7.1058321e-01  -4.0957925e-01  -3.6875272e-01  -8.3611590e-02   7.9443239e-01   8.5921235e-01   1.8583079e-01   8.0600751e-01  -3.3083106e-01   8.8726894e-01  -4.7220555e-01   7.5372575e-01   3.3179779e-02  -4.4621591e-01  -6.5129945e-01  -7.9948689e-01  -1.4488923e-01   2.5918023e-01  -7.6829359e-01  -5.5895243e-01  -8.7677490e-01   7.3281099e-01  -5.6340957e-02  -3.4797798e-01  -8.9534686e-01   7.6107774e-01  -5.8051917e-01  -9.7611427e-01   5.2037293e-01   3.7028367e-01   5.7368857e-01   7.4560396e-01   4.2464906e-01   3.0391767e-01   1.6906313e-01   1.5741645e-01   3.5939258e-01   8.4408065e-01   3.1025396e-01   9.2295755e-01   4.9477677e-01  -8.9978761e-01  -7.8321260e-01  -3.0810464e-01  -6.2404312e-01  -2.7623223e-01   4.2632425e-01  -9.1292192e-01   9.9562095e-01   2.6701562e-01   3.5041365e-01  -6.2628842e-01  -1.8807743e-01   6.4492338e-01  -4.5801564e-01   6.8126931e-01  -2.7241683e-02   7.1705781e-01   4.0593193e-02  -9.7823157e-01  -8.1321400e-01   5.4863672e-01  -6.6651503e-02  -9.9129770e-01  -3.0854112e-01  -8.1221043e-01  -9.9675447e-01   9.5869015e-01  -8.8339169e-01  -5.4856685e-01   3.1068473e-02   9.6668992e-01  -9.9122044e-01  -9.9286175e-01   5.5856027e-01  -1.4191249e-02  -9.7673605e-02   3.6424611e-01  -9.1483260e-01  -7.1134603e-01   8.6761440e-01   1.0202519e-01  -7.5801760e-01   2.1598183e-01   4.9266556e-01   8.2373629e-01   2.5940454e-01   3.6886960e-01  -5.4324476e-01  -9.1149717e-01   4.7413713e-02  -1.5291102e-01  -3.5934309e-01   8.9976948e-01   9.8127128e-01   1.4327927e-01  -2.3832467e-02  -7.2785998e-02   7.7613981e-01  -3.1505208e-01
  -4.1675979e-01  -5.0020808e-01  -4.7127345e-01   1.6841636e-01  -1.0100909e-01  -9.8240439e-02  -2.5954606e-01   5.8309148e-01  -4.5528337e-01   8.0282069e-01   2.4079922e-01   9.8132520e-01  -5.8313251e-01  -2.7449257e-01   7.2769233e-01   4.3056083e-01   1.7529835e-01  -7.9918716e-01   9.2377325e-02   9.3692129e-02   3.5868384e-01   3.3063634e-01  -3.0511874e-01  -3.2432340e-01   4.6859453e-01   7.8832453e-01   4.6773486e-01   3.0449193e-01  -3.3717360e-01   6.5711640e-01  -6.6599975e-01  -4.5900531e-01   2.5925413e-01  -7.9956497e-01   5.5533745e-01  -7.8476615e-01  -4.6453773e-03  -4.3632913e-01  -2.5875313e-01  -3.9622319e-01   7.9939495e-01   3.6487731e-01   8.4906040e-02   2.5002552e-01   2.4158941e-01   7.0818781e-01   5.5053885e-01  -3.8942555e-02   8.6897339e-02  -2.6363916e-01  -4.6636971e-01  -7.8032125e-01  -3.9887926e-01  -9.1000335e-01  -8.4329770e-01  -3.0202068e-01  -4.5493767e-01  -6.6784337e-01  -2.8448215e-01  -5.1156274e-01  -7.0498920e-01   8.1313682e-02   1.7127069e-03  -9.5105773e-01  -5.0981215e-01   8.4455364e-01  -7.3217956e-01  -6.0825015e-02   2.4774832e-02   8.6768301e-02  -2.9356455e-01   1.0350563e-01  -3.9096462e-01   6.5115656e-01  -6.1912373e-01   6.0504447e-01   7.2886389e-01  -9.1139626e-01  -1.1231029e-01   2.1202212e-01   7.8784394e-01   2.3744450e-01   9.9664108e-01  -2.3533553e-01  -9.0992427e-01  -9.5106591e-01   4.9730380e-01  -1.6609601e-01   3.9550146e-01   3.8933989e-01   6.4497307e-01   4.4820322e-01   3.9655775e-01  -5.5712542e-01  -7.1524833e-01  -1.1231404e-02  -5.3764981e-01   5.6107869e-01  -1.6741539e-01   2.8089651e-01  -7.7167462e-01   3.8171141e-01  -4.8516240e-01   6.9763155e-01   8.5610886e-01   2.3793906e-01  -7.6716357e-01   6.9338946e-01   6.4108405e-01  -8.2651853e-02   6.6775535e-01  -8.7043975e-01  -6.2075804e-01   7.1811360e-01   1.2800058e-01  -3.3100608e-01  -2.9633605e-03  -6.8714489e-01  -7.3846893e-01  -8.5996034e-01   4.4078018e-01   7.6900913e-01  -6.1201186e-01   8.0366708e-02  -8.0703551e-01  -6.2348162e-01   7.7939496e-01   8.5861857e-01   1.9152059e-01   9.2144412e-02   5.0849606e-02  -3.9342904e-01   7.8870252e-02  -5.6262065e-01  -4.5628788e-01   1.5898019e-01   1.9387074e-01  -1.8342463e-01  -4.6761843e-01   5.0430272e-01   7.5919840e-02   5.0340285e-01   8.7599560e-02   9.6877946e-01   8.8451365e-01   3.8969348e-01   3.2779443e-01   7.2222700e-01   1.2263653e-01   3.8422808e-01   3.8458941e-01  -8.7671057e-01   7.8971720e-01   3.3936232e-01  -3.7894246e-01   6.8033009e-01   4.5180130e-01  -5.7881283e-01  -3.9627708e-01   1.0097630e-01   5.9044645e-01  -3.3083751e-01   7.9331107e-01  -8.9569717e-01  -8.2155686e-01  -2.4204350e-01  -3.8634045e-01  -6.7236655e-01   6.4487425e-01   4.5218397e-01   1.8473159e-01   6.5094313e-01  -2.7551011e-01   7.9649689e-01   9.3760966e-02  -8.2302602e-01  -9.6350831e-01   1.4575797e-01  -7.3841860e-02  -7.8861297e-01   8.9693939e-02  -2.6533372e-01   1.9248790e-01   6.3949242e-01   1.3388199e-02  -8.2394268e-01   8.9378831e-01  -4.2326051e-01  -4.0530135e-03  -2.9288061e-01  -1.1862019e-01   3.0832527e-02   6.7905273e-01  -7.8676414e-01   6.8616618e-01  -1.1186903e-01  -6.9295790e-02  -8.8556842e-01  -7.6596053e-01   7.7048282e-02   2.5862151e-01  -2.5566793e-02  -9.7724713e-01  -6.6501595e-01  -7.9255510e-02   2.6438957e-01   3.8733015e-01   2.6698583e-01   5.6968855e-01   4.5253421e-01  -8.8535907e-01  -7.3795862e-01   2.0090070e-02   7.3469713e-01  -4.4825064e-01   9.3375439e-01   6.4811098e-01   7.1230796e-01  -5.7158094e-02  -5.3073010e-01  -5.9820349e-01   1.9632466e-03   4.7525865e-01   9.8859981e-01  -8.2681444e-01  -8.7757538e-01   6.5618890e-01   2.9345001e-01  -6.8450231e-02  -1.4158230e-01   7.5572114e-01  -3.7427375e-01   5.0040555e-01  -1.0249632e-01  -3.1295774e-01   4.1640530e-01  -1.6511435e-01  -8.0110729e-02  -1.8055577e-01   7.8168964e-01  -3.2102511e-01  -6.2093137e-01   7.8587615e-01  -7.9727490e-01   8.8946349e-01   4.7169042e-01   1.7384742e-03   8.8121947e-01   5.4848129e-01   2.1398196e-01  -2.8137424e-01   7.3411827e-01  -4.8755205e-02   9.9796792e-01  -4.0693052e-01   1.3278957e-01   2.0291210e-01  -8.8427508e-02   3.8879656e-02  -2.7549040e-02   2.6967607e-01   6.4738387e-01  -2.4836419e-01  -4.4945349e-01  -7.8069045e-01  -3.1839244e-01   2.8530723e-02  -7.0082579e-01  -4.0496656e-01  -4.7314454e-01   5.4179022e-01  -3.2669412e-01   1.6215275e-01  -1.7659981e-03  -2.1228995e-01  -2.5098148e-01   6.8436004e-03   3.0720279e-01  -4.5656601e-01  -6.0770689e-01   5.8007768e-01   2.4026971e-01   2.1452749e-01   1.6554999e-01  -9.4311276e-01   6.7136916e-01   5.3535681e-01   9.8654752e-01  -3.6642534e-02   9.0533666e-01   2.3920750e-01   4.3509560e-01  -8.2211758e-01  -3.6902645e-02  -6.9083373e-01  -2.5088100e-01   3.0977262e-01  -4.2326353e-01   3.3288795e-01   2.1906931e-02   1.9441827e-01  -6.5601220e-01   5.1311561e-01   7.1702200e-01  -4.0252295e-01   6.7461360e-01  -5.6562990e-01   5.4007516e-01   7.7983192e-01   4.6189963e-01   5.1959581e-01  -3.1572507e-01  -5.5266108e-02   5.0312742e-01   3.2798114e-01  -6.1924915e-02  -3.1021374e-01  -1.0347500e-01   4.6296586e-01  -1.6271814e-01  -9.8994069e-01  -5.1759704e-01   2.4125518e-01  -3.0799331e-01  -2.9205556e-01   8.6915140e-01  -5.0938658e-01   2.3350024e-02   6.2921963e-01  -9.2158265e-01   5.2899055e-01  -2.7092000e-02  -3.5312305e-01  -5.0899759e-01  -1.4566378e-01   1.2899340e-01  -1.6297033e-01   9.5482268e-01   6.5252109e-01   2.0153701e-01   5.5814128e-02  -3.7045163e-01  -5.5080234e-01   8.7924568e-01  -1.0426124e-01   4.0359870e-01   4.0989895e-02   2.4020077e-02   9.0380531e-01   2.7852991e-01  -6.8956282e-01  -8.7160459e-01   7.8985756e-01   9.1180584e-01   5.1611306e-01  -3.8868884e-01   1.3592124e-01   5.1456696e-01   2.5710337e-01  -8.2528477e-01  -7.6715699e-01   2.1159781e-01  -6.0712930e-01  -6.5622110e-01  -4.9115440e-02  -2.7494609e-01   8.8017752e-01  -9.3707225e-01   3.5152178e-01   9.4756363e-01  -3.0107849e-01  -7.9306987e-02  -9.6193567e-01   5.1793139e-01  -9.2648128e-01  -8.9425128e-01   2.1120288e-01  -1.8050198e-01   5.2207524e-01   5.4937801e-02  -4.5096729e-01   6.1334483e-01  -9.8722908e-01   6.9073165e-01  -1.9709058e-01  -7.0326556e-01  -1.2388274e-01  -7.1953514e-01   8.9266929e-01  -9.3497330e-01   6.5391010e-01  -5.2599335e-01  -5.8161040e-01   1.1261246e-02  -8.6505771e-01  -4.7602113e-01   6.5077135e-01  -6.7406761e-01  -9.0879387e-01  -1.4019600e-01   5.1189609e-01   8.2228529e-01  -7.0255145e-02   8.0603927e-01  -9.7357084e-02  -2.2864514e-01   8.4382837e-01   1.4775965e-01  -9.5884729e-02  -3.9152171e-01   5.3906351e-01   5.4700765e-01  -3.9185341e-01  -2.8395307e-03   4.4829736e-02  -9.0965524e-01  -3.9985129e-01   7.3619919e-01   2.1922584e-02   5.1563924e-01  -3.0420925e-01   8.8477244e-01   9.2006293e-01  -5.4827362e-01  -4.5942120e-01  -9.5729251e-01   6.7182138e-02   5.6370149e-01  -1.9106323e-01  -1.6787633e-01  -1.6627687e-01  -3.2255929e-01   6.0503712e-01   2.1024412e-01   5.2004007e-01  -2.7435935e-01   4.1627655e-01  -8.9004072e-02  -4.3856555e-01  -2.3645335e-01   2.6518075e-02   7.5564136e-01   4.1912173e-01  -5.3019794e-01  -6.0247484e-01   3.2596716e-01  -2.1173786e-01   1.8906045e-01   8.6570877e-01  -6.8940327e-01   6.1341943e-01  -6.7323923e-01  -6.0585788e-02   3.2103100e-01   5.7438442e-01  -4.8378848e-01  -1.4359795e-01   9.3478596e-01   7.1196954e-01  -7.4875923e-01  -7.5789499e-03  -4.7772002e-01  -5.6862214e-01   7.1044902e-03  -9.1260020e-01  -2.7494975e-01  -6.0427454e-01   4.7349877e-01   4.5805360e-01   8.4562363e-01  -1.2246024e-01  -1.9674523e-01  -2.0777289e-01   2.2420294e-01  -4.4667432e-01   1.5193608e-01   4.8612345e-01   4.0815189e-01  -2.1674289e-01   5.5928960e-02   6.4490919e-01   9.1907043e-01   1.8466196e-02   2.3638867e-02  -2.6109962e-01   8.8029326e-01  -6.6217649e-01   3.5594715e-01   2.9915683e-01  -4.6133560e-01  -4.0184837e-01  -5.7996589e-01  -7.3790745e-01  -3.3954400e-01  -5.4605064e-01  -2.3320358e-01  -4.1023227e-01  -7.9937718e-01  -9.4815106e-01  -1.9472278e-01   1.2646899e-01  -7.2148122e-01  -7.0660009e-01   8.6461489e-01   4.6790798e-01   8.5849083e-01  -3.0441766e-01   2.7603349e-01   8.3259459e-02  -6.4801827e-01   9.2055843e-01   2.6463353e-01   1.3635425e-01  -3.6806510e-01  -5.0111241e-01   4.5854540e-01  -1.6641290e-01  -7.5117719e-01   5.6438024e-01   1.2046917e-01   6.3476800e-04   9.0957419e-01   7.8652695e-01   7.5875885e-01   5.6276048e-01   4.1542077e-01  -2.5477457e-01  -1.8684150e-01  -4.3135489e-01   3.8589016e-01  -9.9243944e-01  -3.7939231e-01  -6.5725024e-01  -7.9914958e-01  -4.5471878e-01  -3.4638843e-01   7.7398079e-01   9.5814580e-01  -9.5349845e-01   4.0839528e-02  -5.7024534e-01   2.5513111e-01   3.4784550e-01   1.9507969e-02   2.9492946e-01  -4.0197890e-01  -3.8363316e-01  -9.2214373e-02  -1.1870480e-01  -9.8912559e-01  -9.1171056e-01   4.3373889e-01   3.3110764e-02  -3.9648421e-01  -1.8553907e-01  -9.6297954e-01   6.2829835e-01   2.2568662e-01  -4.6292283e-02   4.3058763e-01  -5.3464173e-01  -3.2578512e-01   8.0574571e-01   9.1629512e-01   8.6809332e-01   5.4066299e-01   2.5510843e-01   8.7464548e-01   4.8638740e-01   6.2194377e-01   5.2384279e-01   8.1601983e-01  -4.5137473e-01   3.6464667e-01  -4.2918139e-01   1.2329025e-02  -7.3354540e-01  -5.5166295e-01   6.8864594e-02   6.1090949e-01   7.2692545e-01  -4.2872227e-01   3.8806738e-01   6.7509197e-01   2.1422352e-01   5.1588361e-01  -6.3567510e-01  -8.1355171e-03   1.4335735e-01  -3.2464811e-01   4.9894161e-01  -2.9627750e-01  -7.5523577e-01  -2.5778339e-01  -1.3491624e-01  -1.4762530e-02  -9.3413028e-01   7.7196827e-01  -9.6280984e-01  -8.1686343e-01  -2.4397820e-01   5.8248341e-01  -2.8550310e-02  -5.4954263e-01  -5.8880886e-01  -2.8436407e-01  -1.1552167e-01   7.7881943e-01  -7.6296452e-01  -3.3189659e-02  -9.3559942e-01  -6.9374584e-01   1.0631977e-01   6.7313938e-01   5.0212202e-01  -9.1251456e-01   1.7085095e-01  -9.7805536e-02  -6.3861626e-01  -1.9722168e-01  -3.3646167e-01   2.0573970e-01   7.7995516e-01   6.9297283e-01  -7.0441349e-02  -5.8846674e-01   2.3145539e-01  -9.6211510e-01   6.1067781e-01  -9.9861515e-01  -2.5280883e-01   9.2621975e-02  -5.6496017e-01   3.9210654e-01  -8.2292904e-01   3.9690092e-01   4.2822740e-01   2.9904414e-02  -5.4202508e-01  -8.8119590e-01  -5.0532111e-01  -7.9314210e-01  -9.8535166e-01   1.4944804e-01  -4.8087675e-01  -4.7996773e-01  -2.9461773e-01  -9.4670383e-01  -3.4897466e-01  -7.9712331e-01  -7.6034737e-01  -5.8440605e-01  -8.4537532e-01  -8.0369056e-01  -8.1674480e-01   8.5334233e-01   4.4162036e-01   4.3374153e-01   1.1406842e-01   4.4185459e-01   4.5288332e-01   6.6220570e-01  -9.2559622e-01   6.4226073e-01  -7.9144043e-01   4.3655721e-01  -7.3177682e-01   2.4571452e-01  -7.2629858e-01  -2.1267743e-01   8.5543621e-01   8.3014079e-01   4.2697661e-01  -8.3655013e-01  -7.9484844e-01  -2.8445281e-01   4.6509733e-01   3.7469079e-01   7.9718427e-02   9.5474436e-01   5.3825481e-01   7.7329512e-01  -6.3953239e-01   7.1939885e-01   3.5979755e-01  -7.9566866e-01   6.5167362e-01  -1.7960876e-01   8.6454185e-01   6.5887032e-02  -8.8378879e-01   2.9699436e-01  -2.4286852e-01   5.9124041e-01  -4.1988387e-01  -2.3483568e-01   8.9149827e-01   4.0857236e-01  -9.6158077e-02   3.4294256e-01   5.6428280e-01   4.0080877e-01  -2.6847970e-01  -5.5820760e-01   5.8332017e-01  -7.4460106e-01   5.4818855e-01  -4.2599331e-01   2.9950117e-01  -4.0474480e-01   5.9519098e-01  -4.5221307e-01   2.6347875e-01  -7.3432865e-01  -1.3499294e-01   5.6077307e-01   9.1362030e-01  -1.0165970e-01  -8.9241802e-01   2.6509100e-01   8.9319864e-01  -9.0919211e-01   8.9754458e-01  -6.0040012e-01  -8.2566324e-01  -7.6827495e-01  -4.2355545e-01  -1.5972822e-01   1.5905812e-01   2.9822081e-01  -1.3694695e-01  -4.0580315e-01  -1.4044446e-01  -4.0480245e-03  -1.4206003e-01  -7.0466345e-01  -6.9616396e-01   8.2719787e-01   2.1370604e-01  -7.5845880e-01   8.4167345e-01  -4.1057718e-01   2.6853068e-02  -1.5194439e-01   9.8537060e-01   2.3317762e-02   2.3382301e-01   2.1810723e-01   9.9587943e-01  -9.2411301e-01   1.6702023e-01  -3.0171302e-01   3.1292501e-01   2.9202000e-01  -8.5715639e-01   4.4912704e-01   1.8094412e-03  -8.4697553e-02  -6.7788804e-01  -2.3052673e-01  -6.2104393e-01  -5.1352094e-01   8.3091054e-01   5.8548121e-01   3.2551503e-01  -6.5321312e-01  -3.8799040e-01  -7.2012873e-02   2.2295688e-01   2.2420436e-01   5.3184261e-01  -9.8094970e-01   2.9908109e-01   7.3038287e-01  -5.3591561e-01  -4.2850508e-01   8.3547034e-01   7.3468080e-02  -1.1153787e-01  -4.3287053e-01   7.5826160e-01   8.9397240e-01  -5.9056993e-01  -3.6986195e-02  -9.8748442e-01   5.2104847e-01   2.9829680e-01   7.5034732e-01   9.3950367e-01  -5.6058699e-01  -4.4711447e-01   2.2783169e-01   9.9276378e-02  -3.7853756e-01  -6.4251884e-02  -9.8093019e-01   7.8401934e-01  -1.4396326e-01  -9.7304880e-01  -1.5639872e-01  -4.8484196e-01   2.9524534e-01   5.3957902e-01   6.4679900e-01   7.9458421e-01  -3.9794717e-01   4.1127798e-01   1.3262304e-01   7.4289170e-02  -4.7010289e-01   4.8317519e-01   1.9023009e-01  -5.0118810e-01  -1.0170048e-01  -4.8556725e-01   8.9618348e-01  -5.1818355e-01  -3.4654664e-01   5.5252444e-01  -5.8246863e-01  -9.6757588e-01  -3.1784307e-01   9.2302582e-01   3.8913926e-01  -2.9021958e-01  -1.3623132e-01   4.5456343e-01   8.7403250e-01   1.1503654e-01  -1.4918517e-01  -6.3005488e-01  -6.3531820e-01   9.5477978e-01  -7.9555307e-01   2.7196245e-01   7.6869137e-01   5.8773044e-01  -1.4302669e-01   4.2280845e-01   5.3485329e-01   7.6143102e-01  -8.7181407e-02  -2.7235175e-01   4.9994798e-01  -2.3418712e-01   4.7627666e-01   5.8505111e-01  -1.1881180e-01   1.1147589e-01  -5.9462907e-01  -9.0611417e-01  -7.4994261e-01   5.9133853e-01  -7.7695905e-01  -9.8893470e-01   8.9495454e-01  -8.6143711e-01   5.9376035e-01   2.4491870e-01   9.9592293e-01   6.6195871e-01  -6.1554358e-01  -9.6520914e-01   6.2709303e-01  -6.3135722e-01   7.0005995e-01  -4.3783804e-02   6.6203998e-01  -6.5073514e-01  -5.1235301e-01   2.6505972e-01  -5.5032772e-01  -6.6611610e-01  -8.0090848e-01   4.4709425e-01   6.4848417e-01  -1.3735752e-01  -8.1825960e-01  -1.6092350e-01  -1.9649103e-01  -3.0672749e-01  -6.2076746e-02   9.5692209e-01   7.5589610e-01   3.5234415e-01  -8.1509992e-01   6.7561494e-01  -7.8300605e-01  -5.4578349e-01   8.2082238e-01  -9.1443127e-01  -8.3290187e-01  -8.7283838e-01  -8.1317735e-01  -2.7014405e-01   5.0450844e-01   3.3259021e-01  -6.8353282e-01  -4.6360561e-01   3.0009750e-01  -3.8030677e-01   2.4891540e-01   7.1307839e-01   9.4908897e-01   4.6267853e-01  -8.8016464e-01  -4.9788591e-02  -5.4006979e-01   4.3419385e-01   9.4546078e-01  -1.0378142e-01  -6.4508419e-01  -6.0355316e-01   4.8630061e-02  -1.2576847e-01  -2.1320315e-01  -8.4093711e-01   7.1548024e-01   4.1652679e-01   2.5565300e-01  -4.3254441e-01   4.7444723e-01  -4.8815116e-01   6.6011336e-01   1.1674283e-01  -2.5875735e-01  -3.3135605e-01  -4.8549406e-01  -8.1422424e-01  -7.5785307e-01  -8.4501656e-01  -7.6442152e-01  -3.5194666e-01  -9.8498101e-01  -4.7458662e-01   3.9687294e-01   9.9596468e-01   3.8049005e-01   9.2103117e-01  -3.9162008e-01  -3.1373332e-01   4.4290043e-03   7.2538888e-01  -2.5366764e-02   5.7167761e-01   2.2349752e-01   4.2706040e-01   6.5254588e-01  -7.4135440e-03   2.8672332e-01  -2.4750055e-02   9.2356709e-02  -3.7019277e-01   1.9898007e-01   7.5573777e-01  -4.3379186e-02   3.1894510e-01   3.3094203e-01   5.2302556e-01   3.4451287e-01   3.1741045e-01  -9.5973168e-01   4.4354651e-01   9.0608122e-01  -9.8937316e-01  -5.1358153e-01   6.4373940e-01   7.7711813e-01  -4.5179001e-01  -1.2645203e-02  -9.6320640e-01   7.5373851e-01   7.9759963e-01  -1.6632307e-01  -2.6356395e-01  -8.2744662e-01   4.4625042e-01   8.1667808e-01  -8.9144258e-01   4.8859785e-01  -1.1693196e-01   3.5172667e-01   8.0522969e-01  -4.0717861e-01  -1.7029282e-01   9.7288504e-02  -1.5870453e-01   3.0853491e-01  -2.4019129e-01   1.0278695e-01  -7.7185339e-01  -6.9053584e-01   7.6816665e-01   8.4586729e-01   7.6596726e-01   8.3670444e-01   3.5049716e-01   5.9089690e-01   8.7648052e-01   2.6166801e-01
