   1.7010316e-01   4.9781326e-02  -1.8202735e-01  -2.3942483e-01   9.9576147e-01  -5.4769229e-02  -3.6496636e-01   7.9131594e-01   4.7285286e-01   2.1128559e-01   8.9516722e-01  -2.5390975e-01  -3.1422534e-01  -5.6893640e-02  -6.2832847e-02   2.3865302e-02   7.8897551e-01  -6.3088190e-01  -6.6428112e-01  -3.5966908e-01  -5.4284011e-01   9.1846447e-01  -1.2049975e-01   1.5729411e-01  -3.7995032e-01  -2.7969437e-01  -6.2714910e-01  -5.0930148e-01  -3.7762329e-02  -9.7197313e-01  -3.9053867e-01  -2.2217412e-01  -9.3792065e-01   7.1431025e-01  -8.0034492e-01   6.1197070e-01   6.4862950e-01   7.7951715e-01  -2.2204446e-02   2.6670062e-01  -6.8054541e-01  -6.3038847e-01  -6.8064994e-01   8.3241178e-01   7.2085590e-01  -6.8461787e-02   3.9231107e-01  -9.5162398e-01  -5.2026641e-01  -6.4393662e-01  -5.2322585e-01   3.2730408e-01  -2.1296079e-02  -4.3435800e-01  -3.8274055e-01  -2.2130924e-01   8.6033657e-01  -6.6210931e-01  -2.5682381e-01   3.0029136e-02  -2.4693630e-01  -6.6610249e-01   7.0289427e-01   6.9553061e-01  -7.8169166e-01  -4.7901750e-01   7.0016136e-01  -9.7804700e-01   7.3901845e-01   6.7655766e-01  -5.9282346e-01  -1.3951777e-01   6.8483157e-01  -6.0842874e-01   8.4545158e-01   8.1881134e-01   1.9347477e-01   2.2884109e-01   4.2886109e-01  -8.4940811e-01   9.3403827e-01  -9.1824099e-01   8.7895643e-01   2.0612847e-01   6.8607902e-01  -9.4874438e-01   6.0212871e-01  -8.9386212e-01  -1.6490608e-01  -3.7767183e-01   2.8082450e-01  -6.7950177e-01   1.2440694e-01   1.8933395e-01   4.3608294e-01   6.6242123e-01   2.5447110e-01  -2.8672799e-01   7.5251959e-01   2.9158258e-01   4.9380924e-01   2.1302397e-01  -6.4341540e-01   7.2035378e-01  -2.3256379e-01  -9.5754889e-02   6.3037979e-01  -7.1607042e-01  -5.1261449e-01   2.9621526e-01   1.6512705e-01  -1.9450287e-01   8.7386452e-01   5.5020297e-02  -9.6986557e-01  -7.8376013e-01  -5.7425604e-01   9.2078681e-01   8.4794765e-01  -4.3547237e-01  -5.7228807e-01  -2.6067793e-01  -9.8733547e-01   2.8721006e-01   1.4497681e-01   1.4627106e-01  -2.3699912e-01   6.8736986e-01  -2.0681910e-02   3.3449491e-01   1.2825433e-01   4.5484566e-01  -4.3399200e-01  -5.7497248e-02   9.8863459e-01   9.3411459e-01   7.7974464e-01   8.9327959e-01   1.5764033e-01   8.9505878e-01  -8.3696085e-01   1.1299757e-01   5.1594428e-01   4.9976684e-01   1.4018845e-02   4.3516557e-01  -8.5205188e-01  -9.2842635e-01  -9.5080361e-01  -5.6340012e-01   8.1693225e-01   1.7069760e-01   5.1341324e-01  -8.0750729e-01  -2.5327556e-01  -3.5910909e-01   1.2241002e-01  -9.0844134e-01  -3.5528700e-01   3.8964851e-01   2.6329106e-01   3.6817807e-01  -5.5528772e-01  -7.8394288e-01  -1.2164872e-01   3.2522556e-01  -8.8776892e-02   1.3255351e-01   1.6077268e-02   3.9866493e-01   9.8656640e-01   6.1432781e-01  -1.3595783e-01  -2.8066413e-01  -8.1749931e-01   4.7920360e-01   8.3230613e-01   5.4703081e-01   7.4729348e-01   1.0706972e-01   2.6744989e-01  -6.6877924e-01   9.6469556e-01   3.7230049e-01  -6.3640232e-01   9.3733656e-01   6.8520625e-01   6.6663480e-02   1.3278870e-01   8.4237562e-01  -6.9346992e-01   5.7567933e-01  -7.8980656e-01   6.2861161e-01  -7.1317038e-01  -5.5142952e-02   7.0036623e-01  -4.9188021e-01  -6.1322541e-01   4.6049246e-01   4.6685377e-01  -2.1741139e-02   9.6976404e-02   9.6239000e-01   8.4496143e-01   5.6855238e-01   7.3390689e-01   9.8405813e-01  -1.8856505e-01  -1.5966822e-01   6.8704052e-02   3.7411358e-01   9.8788203e-01  -6.2326310e-01   5.2075009e-01  -3.9274518e-01   2.2914730e-01   5.2275101e-01   5.3641060e-01  -9.2179971e-02  -7.3052665e-03   4.0666217e-01  -6.0879515e-01   4.3127200e-01  -1.6900520e-01   7.4602255e-01  -9.7298624e-01   6.4015798e-01  -8.2539590e-03  -2.1993040e-02   8.7705400e-01  -7.6534762e-01   3.6401948e-01  -5.5427050e-01   9.3640558e-01  -8.2949907e-01  -6.5987984e-01  -7.8094919e-01   4.8656089e-01  -1.3031883e-01   2.5082570e-01   2.1815286e-01   7.7291734e-02  -8.1694438e-01   5.6711544e-01  -7.7646774e-01  -9.2287421e-01  -8.0555363e-01   1.4544758e-01   6.9773933e-01   6.2280648e-01   5.7258833e-01   9.9857342e-01   7.2750248e-01  -9.3280350e-02  -2.1574333e-01   2.3906645e-01  -4.1304153e-01   4.4789409e-01  -3.1315288e-01  -8.9433423e-01  -9.4299300e-01  -4.9443717e-01   3.3373512e-01   7.1801266e-01   6.1061469e-01   4.7718849e-01  -1.7959878e-01  -7.1155770e-01  -3.2925858e-01   5.3070102e-01   2.5924652e-01  -2.3046263e-01   7.9796713e-01  -8.8054731e-01   9.1046579e-01   1.4673104e-01  -6.0919552e-01  -3.4474495e-01   3.5030809e-01  -7.6938402e-01  -3.1759564e-01  -9.3286193e-01   1.6339423e-01   3.0324242e-01  -5.1536021e-01   4.5153933e-01   5.2916105e-01   7.7330910e-01   5.6359703e-01   3.0941592e-01  -9.1268190e-01   4.6658817e-01  -3.3514324e-01   5.1661826e-01  -8.9536593e-01  -5.2549512e-01  -6.9556981e-01   3.1597951e-01  -8.1703454e-02  -9.5654577e-01   5.2787671e-01  -2.1132658e-01  -9.0459652e-01  -8.9669517e-01  -3.3697579e-01   8.7116070e-01  -7.6524046e-01   2.5052394e-01   2.7857013e-01   8.8311753e-01  -6.5378373e-01   9.5232486e-01   8.9120246e-01  -4.4624869e-01  -9.2435639e-01   5.7781868e-01  -3.7619603e-01  -9.3416930e-01   4.2684730e-01   9.3502777e-01  -7.5638944e-01  -9.5307363e-01  -3.4034971e-02  -3.9677699e-01  -1.2891789e-01  -2.4644678e-01  -2.9201182e-01  -7.9603796e-01   7.5921821e-01   9.7372745e-01  -2.2716937e-01  -6.8768642e-01   1.4239974e-01  -6.3130637e-01   8.4459987e-01   7.8518441e-01  -7.6051298e-01  -3.1088525e-01  -6.2405820e-02   5.9299380e-01   1.3967325e-01   6.1362350e-01  -9.5027367e-01   2.5348063e-01  -2.9254308e-01   4.1686791e-01  -8.4874683e-01  -5.3985480e-01  -9.8562212e-01   1.8130506e-01  -5.0082712e-01  -1.7093965e-01  -7.3972652e-01   8.6814825e-01   8.8135044e-01   3.1969635e-01  -7.4922859e-01  -7.2462664e-01   6.1809470e-01   5.8894436e-01   8.6472817e-01  -2.9254326e-01   2.5907885e-01  -4.2848829e-01  -3.7517252e-01  -7.2035051e-01  -7.3611304e-02   5.3342936e-01   7.1330708e-01  -3.0651877e-01   5.0752977e-01   9.8019735e-01  -5.2838886e-02  -9.8506026e-01   6.5078508e-01   2.1936553e-01  -8.1487269e-01   2.7165064e-01  -7.2474488e-01   2.8824731e-02   2.0666280e-01   5.9577653e-01   8.2361666e-01   5.5959098e-01   6.9859544e-01   8.5058964e-01  -3.7573789e-01  -9.9595915e-01   2.7215722e-01  -1.4155894e-01   4.5118932e-01   5.5864915e-01  -7.8173691e-01   8.3725549e-01  -2.0570514e-01  -6.1283875e-01   8.2644120e-01  -2.5307867e-01   5.8755518e-01   3.5641982e-01  -6.9561078e-01   6.2518177e-01  -4.0200423e-01   6.0792296e-01  -3.7717308e-01  -3.9355510e-01  -5.5651853e-01   7.6791146e-02   1.6183353e-01  -8.5172555e-01   6.5022124e-01   1.2477216e-01   6.1544820e-01  -7.7935449e-01  -8.9497978e-01   4.4160459e-01   8.2008801e-01  -3.5264305e-01  -9.1558523e-01  -1.3311114e-02  -3.0637837e-01   8.9364686e-01  -7.8003358e-04   9.9817025e-01   7.3687932e-01  -2.8736116e-01   5.5732681e-01   4.6988251e-01   9.1484931e-01   7.9067170e-01   9.8850927e-01   7.8239224e-01  -3.3175565e-01  -5.0247731e-01   7.8865296e-01  -6.7297572e-01   5.1553573e-01   3.0431748e-01  -7.1742644e-01  -2.1817990e-01   6.9055871e-02  -9.1868809e-02  -9.4624146e-01  -9.3812966e-01  -9.3654854e-01   3.7286023e-01  -1.0233104e-01   5.2310889e-01   4.3723298e-01  -6.6469284e-01  -7.6834789e-01   3.7517867e-01   2.0307179e-01  -3.1801944e-01   7.6162410e-01   9.3220264e-01   4.3033746e-01  -4.6426013e-01   3.6994917e-01   7.9081912e-02  -7.8565434e-02  -5.1044792e-01   7.0150105e-01  -1.2831950e-01  -7.3405531e-01   6.2841489e-01  -7.6724376e-01   8.4408506e-01  -7.0355454e-01   6.3073954e-01   4.1942738e-01  -5.3792376e-01  -2.7638097e-01  -5.2879786e-01   2.5049326e-01   9.7286973e-01  -3.2033429e-01   7.3771981e-01  -5.3380694e-01   6.6690695e-02   8.8078310e-01  -3.8904536e-01   5.3971958e-01   5.4242315e-01  -6.2137665e-01  -8.6834691e-01   9.2746667e-01  -3.1292483e-01  -1.5960698e-01   5.9970838e-01  -3.8683483e-01   8.1332260e-01  -9.7616001e-01   9.5582084e-02  -6.3861984e-02   2.2402155e-01   9.2980747e-01  -1.1618744e-01   3.9324453e-01  -5.0595030e-01  -1.1593248e-01  -7.8247592e-01   6.7099697e-01  -2.9133351e-01  -1.6287214e-02  -5.0719691e-01   4.2149032e-01  -7.1740440e-01   2.3722928e-01  -6.8200121e-01  -9.4067502e-01   2.6022932e-01   4.1202644e-01  -5.6502117e-01   1.5049494e-01  -7.3006708e-01  -1.6682075e-02   4.3676512e-01   2.4199589e-01  -7.1627413e-01   7.2858563e-01  -6.6156212e-01  -7.7881419e-01   3.2764526e-01  -4.9177927e-01   4.8161916e-01  -7.8817042e-01   9.7349482e-02  -1.4389393e-01  -2.1897034e-01  -4.9923606e-01  -1.5650859e-01  -3.1935111e-01   6.2998275e-01  -7.6957573e-01   5.1721699e-01  -9.0316491e-01   1.3175071e-01  -1.0977953e-01  -7.1014689e-01  -9.9966327e-01  -2.5380920e-01   7.6880628e-02   2.3608589e-01  -8.6241059e-01  -3.4571816e-01  -6.5704561e-01  -4.2423383e-01   2.7030658e-01  -6.8411985e-01  -9.7506672e-01   3.3758474e-02   6.0168954e-01   1.3771129e-01   3.1042910e-01   4.0043728e-01   2.4898833e-01  -6.5954247e-01   6.1166034e-01  -6.3195097e-02  -8.8404737e-01   3.1001700e-01  -2.6470808e-01   1.4916143e-01  -4.5367783e-01   1.4714956e-03  -7.1235767e-03  -4.8187020e-01  -8.9721476e-01   6.3731358e-01   8.3147932e-02  -4.0462755e-01   7.9028850e-01  -2.3516019e-01   7.3792949e-01   9.7920954e-02   2.6740758e-01   8.8468938e-01   7.3200436e-01  -1.3485168e-01  -4.1107077e-01  -4.4758850e-01   1.6080695e-01   3.2745352e-01  -2.4073890e-01  -6.9632650e-01  -9.6599372e-01   2.3395809e-01   9.8800883e-01  -3.7426079e-01   7.6093177e-01  -7.9603571e-01   5.7504106e-01  -9.8851001e-01  -7.3725930e-01   9.6991840e-01   7.6229703e-01   5.5159061e-01   6.4127874e-01   3.8393023e-01   9.5749190e-01  -9.0561075e-01   4.3506330e-01  -8.9060681e-01   4.6048592e-01  -2.0403630e-01   7.2825519e-01   2.7934533e-01  -3.5180592e-01   7.1446597e-01   6.9805503e-01  -8.4456525e-01   1.6204882e-01   2.4508323e-01   4.1829093e-01  -1.0967547e-02   5.0080775e-01  -5.6791639e-01   2.9938141e-01  -6.6313524e-01  -4.7625063e-01  -3.8895502e-01  -9.8735567e-01  -3.2891399e-02   6.6391106e-01  -1.1309520e-01   2.9843461e-01  -9.7388653e-01  -7.2400624e-01   8.3126398e-01  -5.5118736e-01  -9.6087185e-01  -3.5814508e-01  -5.5462991e-01   7.3315753e-01   9.0067329e-01  -7.3152988e-01  -8.4100004e-01   3.0331996e-01  -4.8108687e-01   7.3717019e-01   4.2651968e-01   4.0726539e-01   7.5924131e-01  -5.9896934e-01   5.2747860e-01  -2.0435470e-01  -1.5422672e-01  -9.4901139e-01   8.6244715e-01   1.7032646e-01   7.7017606e-02   1.4678280e-01   2.6945264e-01   5.1587741e-01  -6.0949149e-01   4.4967009e-01   7.8410993e-01   4.2211694e-01  -3.3756351e-01   9.2209759e-01   3.5859303e-01  -4.5818138e-01   9.1645898e-01  -8.4521083e-01   1.0349085e-01  -2.0910840e-01   3.8875054e-01  -4.1980275e-01  -9.5479307e-02  -3.3593644e-01  -4.7419842e-01   3.3163362e-01  -4.0136829e-01  -1.1120551e-01  -4.2984065e-02  -7.8092252e-01  -8.2015103e-01  -9.5568282e-02   4.9846264e-02   5.9785107e-02  -2.0989970e-01  -1.4754830e-01   7.4904039e-01  -9.9361840e-01  -9.1652752e-01   4.8359984e-01   1.4845800e-01   5.7954153e-01   9.8469678e-01   7.3298953e-01  -9.0623936e-01  -9.6141895e-01  -7.7410820e-01  -6.1655068e-01   9.7764007e-01   1.2156658e-01   5.5376750e-01   5.8694509e-01  -9.9171343e-01  -5.3697551e-01   5.1298406e-01   6.7314659e-01  -1.1358511e-01  -8.8315529e-01   2.6239307e-01   6.4008133e-02   1.7876820e-02   2.4213300e-01   9.6102404e-01   5.6076558e-02  -4.1437788e-01  -5.4522654e-03   6.3708330e-01  -8.8019195e-01  -5.5775837e-01  -9.7607094e-01  -6.1187457e-01  -4.6448293e-01   2.5277105e-01   1.3471470e-02  -5.3753964e-01  -6.7920679e-01   5.8385494e-01  -6.1610555e-01   4.7820998e-01  -3.6306918e-01   2.8669331e-01   9.8829288e-03   5.9592584e-01   1.9398431e-01  -7.6853788e-01   4.8476619e-01   4.2565463e-01  -4.0595498e-02  -8.2757789e-01   5.7038924e-01   2.6348354e-01  -2.1615265e-01  -8.5688867e-01  -8.2060742e-01   5.2664629e-01  -9.1411613e-01   3.9504663e-01   3.1334843e-01   2.8950546e-01  -3.7720891e-01  -1.2643026e-01   2.4825269e-02  -3.2590433e-01  -5.6495255e-01   4.5294440e-01  -1.9336123e-01  -4.1496147e-01  -2.7132291e-01   5.9480054e-01  -8.0744544e-01   3.1634105e-01  -3.2285390e-01  -2.3252913e-01  -4.8303735e-01  -2.2416534e-02  -5.6972422e-01   9.1764579e-01  -4.7800432e-01   6.2183645e-01  -7.0918657e-01  -8.0090061e-01   8.5450722e-01   4.8763397e-01   7.1205390e-03  -7.7362333e-01   5.3822187e-01  -6.3509375e-01   6.6059293e-01   6.4141204e-02  -8.3186500e-01   4.6795190e-01  -3.2502848e-01  -3.4180471e-01  -2.2819685e-01   6.0872484e-01  -8.4590715e-01  -9.8375853e-01  -9.0181877e-01  -5.2959351e-01   3.7429935e-01   9.2350137e-01   9.7774214e-01   6.7571528e-01   4.8003903e-01  -1.7806134e-01   2.2644069e-01   3.5228430e-01  -2.1156441e-01  -6.8224268e-02  -5.1066113e-01   9.3969857e-01  -8.4845966e-01   8.7057499e-01  -3.2466978e-01   5.9753636e-01   4.7421225e-02  -6.2794873e-01   3.5531743e-01   2.6274434e-01   1.6173227e-01  -7.1138181e-02   5.6239682e-01  -6.3393254e-01   7.2461937e-01  -5.0521587e-01  -8.1284841e-01   3.4025372e-01   4.6635401e-01  -3.5231068e-01   1.7178628e-01  -4.1340287e-01   4.2560465e-01  -7.2517957e-01  -5.5781136e-01  -4.8303993e-01   7.3925986e-01  -8.4280528e-01  -1.2627473e-01   4.0922029e-01  -9.0960349e-02  -3.7569622e-01  -6.8753614e-01  -8.8340924e-01  -1.6291441e-01   1.2538909e-01  -1.8352842e-01   2.5859934e-02  -7.0329242e-01  -1.8133522e-01   3.3457465e-01   2.7242150e-01   8.3641653e-01  -5.8359209e-01   2.2654659e-01   4.3663883e-01   1.3146139e-02   6.5239904e-01   3.3493583e-01  -1.1206464e-01  -3.5472614e-02  -3.9274623e-01   2.3951338e-01   4.9210531e-02   7.1018529e-01   1.7633317e-01  -1.7330661e-01   3.0158931e-01  -6.7133464e-02   8.9521711e-01   1.4017795e-01   3.6631169e-01   8.8993028e-01  -6.9594226e-01  -9.5369754e-01   6.7798394e-01  -4.9973679e-01   4.7558915e-01  -2.6591459e-01   4.3162134e-01  -7.8247197e-01   4.5281432e-01   3.1490459e-01   2.8420297e-01   5.0003303e-01   8.2564537e-01  -6.0365165e-01  -2.6914202e-01  -7.7475937e-01  -3.1599715e-01  -9.9281339e-01   9.2172412e-01   4.4806095e-01  -1.2368373e-01   5.1888649e-01  -7.5122606e-01  -4.4963794e-01  -9.8840734e-01  -1.8503424e-01  -6.2396400e-01   2.9378759e-01   5.0172801e-01  -5.5583295e-01   4.1311487e-01  -3.0875610e-01   7.1650593e-02  -3.2240266e-02   8.9033354e-01   9.1707100e-01   8.6303988e-01   8.9560852e-01   5.5102306e-01   9.6115613e-01  -1.0577469e-01  -4.8757515e-01  -1.1387615e-01  -5.3934066e-01   1.6850204e-01   9.6113754e-01  -8.9501676e-01  -3.6201295e-02   6.7842842e-01   4.0529952e-01  -4.3027411e-01  -4.6651359e-01   4.8496452e-01   2.3982058e-01  -8.8613175e-01   9.8516141e-01  -8.5920409e-01   8.5339181e-01   7.3687440e-03  -5.9330841e-01  -7.4901839e-01   9.5958443e-01  -4.7126926e-01   5.3019332e-01   5.1641367e-01  -3.3354520e-01   9.0737568e-01   2.9250952e-01   8.8661129e-01   9.4061235e-01   7.3007489e-01   6.5346544e-01  -1.9293134e-01  -4.6315337e-01   1.2825513e-01  -8.1906180e-01   1.4336520e-01   1.7572541e-01  -8.5507149e-01  -2.7049833e-01   5.4157943e-02   1.9953848e-01   2.4705943e-01  -5.7477420e-02  -3.0411637e-02   5.7242366e-01  -2.5561493e-01  -4.8455983e-01   6.8555617e-01  -8.4894908e-01   4.1824038e-01   2.4690384e-01   3.4336597e-01  -8.2404240e-01   3.3509416e-01  -2.3499506e-01   9.0400755e-01   7.2601455e-01   5.7853835e-01   3.6822989e-01  -2.7584365e-02  -8.9712701e-01   5.2535368e-01   9.9829400e-02   6.0522763e-01  -4.3930871e-01  -2.4025477e-03  -2.9409077e-01   4.1118631e-01   3.8074921e-01   1.0970632e-02   3.8328554e-02   5.4488844e-01   1.8683477e-01  -6.9321684e-02   2.2685335e-01   3.7551844e-01  -9.1584986e-01  -3.1522849e-01   9.7430492e-01   8.7424247e-01  -9.5419430e-02   3.5716219e-01   3.9349068e-01  -1.4864106e-02   9.7192534e-01   4.0494669e-01   7.3382219e-01   4.8426588e-01   5.6840502e-01  -1.6263722e-02   8.0322880e-01   5.1118730e-01  -7.9083472e-01   6.4032262e-01   3.5948084e-01  -8.0687803e-01  -6.9274309e-01  -7.2273958e-02  -3.9474812e-01
  -2.9059609e-01   6.3101237e-01  -9.6865896e-01   7.9498216e-03   2.6186351e-02   4.1511279e-01  -3.5670154e-01  -7.8423319e-02   5.3485212e-01  -1.1722418e-01  -2.2843920e-01  -5.1108692e-02  -8.1271861e-01   9.1250298e-01   9.0154544e-01  -8.9414278e-01   8.8112114e-01   8.2252430e-01   8.3921988e-01  -1.8449756e-01   5.6823721e-01   4.0629837e-01  -1.7005332e-01  -1.8343642e-02   3.6533900e-01  -6.5788797e-01   5.7767251e-01   5.1328087e-01  -6.4847872e-01  -4.7328976e-01  -7.8634425e-01   5.1751903e-01  -9.5656973e-01   5.6254329e-01  -5.6181885e-01  -8.3963310e-03  -1.4245477e-03   7.7836788e-01   2.4540806e-01   1.2667262e-01   3.4125943e-01  -4.1402831e-02  -6.3622761e-01  -1.3865261e-01   6.3159450e-01  -9.5705437e-01  -2.5538291e-01  -2.7402450e-01   7.2673451e-01   2.8180226e-01  -2.2407927e-01   1.5628360e-01   8.1483610e-01  -5.5100827e-02  -2.7936018e-01  -1.1986440e-01  -9.6675437e-01   6.6029309e-01   3.4429663e-01  -8.6952860e-02   8.1401006e-01   7.3725981e-01   4.8284648e-01  -8.7705813e-01  -7.7331290e-01  -4.3969766e-01   6.7807789e-01  -8.8195142e-01  -1.5637061e-01  -1.4876230e-01  -2.2423538e-01   2.8549596e-01   1.4547588e-01  -1.2144689e-01  -4.1555636e-01   9.8864474e-01   1.5621277e-01  -8.7192324e-01   8.7205609e-01   2.6674649e-01  -6.6921154e-01  -6.6016639e-01   7.0897867e-01  -2.7317430e-02   2.5907925e-01   1.4974218e-01  -5.5190905e-01  -4.4885636e-01  -2.3790696e-01   8.9755914e-01  -5.1383599e-01   1.5472142e-02   7.6730446e-01   6.6300913e-01   2.6693553e-01   1.9894636e-01   2.9019544e-01  -7.9142778e-01   4.4417730e-01  -9.9788123e-01   6.2451251e-01   8.0926233e-01   7.3766260e-02  -1.6624796e-01  -8.7407430e-02   9.3359300e-01  -8.1394262e-01  -7.9984782e-01  -7.2242499e-01  -6.0358360e-01  -7.0066871e-01  -9.2134749e-01  -9.2712468e-01  -7.5980376e-01  -7.7668783e-01   7.9896323e-01   2.9985251e-03  -6.3483864e-01   4.2123098e-01  -8.0608990e-03   3.9548252e-01  -3.0951680e-01   9.5490760e-01  -8.7936674e-01   8.8407481e-01  -8.9396845e-01  -1.9779289e-01  -7.5540038e-01  -3.5207825e-01  -2.9691626e-01   8.5760058e-01  -3.0444105e-01   4.9825941e-02   1.7317643e-01   3.5309842e-01  -7.2013247e-01   4.1979148e-01   9.7430855e-01  -5.4314621e-01  -3.0884572e-01  -9.1632470e-01  -9.3132549e-01  -9.4396474e-02   1.9610470e-01  -1.3967402e-01   6.4422526e-02  -3.5936721e-01   4.3904935e-01  -8.7120928e-01  -3.8160096e-01  -2.5274307e-01  -9.2457391e-01   9.0935131e-01   6.7423623e-01   2.7004303e-04  -2.7878076e-01   3.3853797e-01  -8.8455767e-01   9.6684057e-01   4.9629597e-01   9.3937828e-03   1.8874638e-01  -2.2838999e-01  -6.8393779e-01  -9.4589653e-01   4.6450593e-01   3.8840437e-01   1.0060815e-01   7.1131577e-01  -9.0624849e-01  -7.3528790e-01  -2.3501355e-01   9.3875958e-01  -3.3169448e-01   5.0617237e-01  -6.4964912e-02  -3.5511772e-01   3.6298022e-01  -6.7931490e-01  -7.4105435e-01  -7.2815200e-01  -8.6411674e-01   1.4605610e-01  -1.0764373e-02  -2.3161274e-02   5.8324755e-01  -6.5803677e-01   8.4373484e-01  -6.3107222e-01   4.1822325e-01   5.0916896e-01  -1.8576175e-01  -8.1045761e-01   4.8222536e-01  -6.0336018e-01   7.2562906e-02   1.8090294e-01   4.4643136e-01   6.7221418e-01  -9.5078068e-01  -3.5503775e-02  -2.4354793e-01  -4.9547954e-01  -1.3004219e-01   9.2846523e-01   8.1690443e-01   9.5767029e-01  -9.7028006e-01   2.2382820e-01   8.8702532e-01  -4.3848674e-01   1.7578265e-01   5.0958079e-02  -5.4445898e-01  -6.0620769e-01   8.0228944e-01   5.8764648e-01  -2.0829739e-01  -3.9594203e-01   1.9913232e-01   7.2265768e-01  -6.7410787e-01   9.7406176e-01  -6.5272868e-01   9.9818279e-01  -2.7862559e-01  -2.4871084e-01  -4.6448257e-01   4.9988616e-01   9.3452695e-01   5.6125014e-01   1.5380157e-01   7.6743674e-01  -1.3598923e-01   4.6716981e-01   9.6684281e-01  -7.8887597e-01   5.2785762e-02  -3.2327454e-01  -8.6506484e-01   9.5070128e-01  -8.0371382e-01  -9.3052168e-01   2.7461593e-01   3.0032615e-02  -8.7614977e-01   9.0932864e-01  -9.7556235e-01   4.0712798e-02  -7.5992834e-01   2.7102062e-01  -7.6040939e-01  -9.0131701e-01   5.5264314e-01   5.8570254e-01  -1.7157209e-01   6.1664656e-01   9.5376367e-02   1.5627470e-01   1.5970890e-01   4.5694996e-01  -6.3483728e-01  -4.5515011e-01  -6.0137998e-01   4.4581212e-01   7.4051615e-01  -2.3697910e-01  -4.7277486e-02  -9.1424535e-01  -2.3336325e-01  -5.7121424e-01  -5.7162263e-01   4.4345314e-01  -1.7876224e-01   3.6609060e-01  -9.6904842e-01   2.2240478e-01  -7.4905778e-01  -5.2840751e-01   7.9829533e-01   1.8519710e-01   2.0582982e-01  -9.2443724e-01   5.8780415e-02   3.1521617e-02  -6.7702551e-01  -3.1772317e-01   1.0341122e-01  -2.5969294e-01  -9.9322448e-01   9.1314193e-01   9.2603870e-01   9.8276654e-01  -8.7709388e-01   4.1681257e-02   5.0964952e-01  -2.1349399e-01   5.8536276e-01  -9.1518175e-01  -9.2473083e-01   1.9644149e-01   4.6059173e-01   7.2547623e-01  -9.0684990e-01   7.5022884e-01  -6.1789855e-01  -3.5775061e-01  -6.9525137e-02  -4.8901817e-01   6.4632104e-01   9.6909991e-01   3.8679620e-02   8.4444165e-01  -7.9619060e-01  -8.0087580e-01  -8.1180443e-01  -1.5199266e-02  -8.7201100e-01   4.0117485e-01   4.6775708e-01   8.2321462e-01   3.1293164e-01  -2.9588099e-01  -4.0944202e-01  -3.9744071e-01  -7.2328858e-01   4.9527960e-02   8.7465756e-02   4.1767985e-01  -4.2263349e-01   7.2810229e-01   6.9650978e-01  -2.3832618e-01   9.8765166e-02   5.9962753e-01  -3.6420809e-01   8.3646008e-01   4.6391039e-02   9.9100913e-02  -5.2218932e-01  -5.0063025e-01  -1.7175365e-01   4.8610376e-01  -7.7036601e-01  -5.5735451e-01   5.6667833e-01  -9.6494270e-01   1.9945312e-01   1.1406425e-01   9.1892577e-01  -4.1339518e-01   2.2459539e-01  -6.3465625e-01  -9.0140408e-01   8.6639885e-01   6.5864166e-01  -2.1712514e-01   1.9796832e-01   3.8031101e-01  -8.3643754e-02   4.0158389e-01   1.4863504e-01  -8.3434095e-01   5.3260017e-01   4.1406160e-01  -3.9669862e-01   6.9494652e-01  -5.8489434e-01   9.6348117e-01   9.0115954e-02   1.9022266e-02  -4.8321869e-01  -4.3241429e-01   6.8314066e-02   2.8010430e-01   5.2753036e-01   1.1540840e-01  -4.6409094e-01   1.7427824e-02  -9.2440875e-01   8.7737345e-02   1.5195202e-01   2.1590215e-01   7.6774379e-01   3.2592799e-01   3.6357343e-01   6.6152869e-01   4.1758213e-02  -4.3573889e-01  -4.0980938e-01  -4.3208943e-01   7.6834542e-01  -8.6230919e-01   2.7444755e-01   5.4292164e-01   8.5552874e-01   4.6798188e-01  -3.4855922e-01   2.0463253e-02  -5.6177099e-01  -1.4320517e-01  -7.6000379e-01  -9.8434968e-01  -2.2049125e-01   4.1356032e-01   1.2954602e-01   6.3171960e-01   3.1944573e-01   6.2464839e-03  -4.3680328e-01  -5.6947240e-01  -1.5910130e-01   4.8480096e-01   6.4736989e-02  -8.9576940e-01   1.1354341e-01   9.4492736e-01  -2.8590190e-01  -1.1142620e-01  -1.5845080e-01  -6.5837293e-01   2.2720647e-01   5.5058968e-01  -4.6213223e-01  -6.4356872e-01   6.0595015e-01  -8.0137660e-01   4.0369466e-01   2.3063952e-01  -3.0133193e-01   7.2078033e-01   8.5881987e-01  -7.7094626e-01  -7.2037691e-01  -6.3136470e-01  -7.4366542e-01   1.1604795e-01  -6.3365593e-01  -3.7300707e-01  -7.5837248e-01  -9.0683935e-01   5.2393409e-01   1.8470301e-01  -1.9661372e-01   3.7548271e-01  -2.3619252e-01   6.1545392e-01  -2.3143848e-01   5.3861523e-01  -1.7899068e-01  -2.6381361e-01  -7.2880198e-01   6.6722342e-01   7.9886524e-02   1.6969865e-01  -6.3907353e-01   7.6003121e-01  -6.1485420e-01   4.5037072e-01  -7.2362225e-01   8.1287494e-01   4.1393078e-02  -7.2057684e-02  -4.7467624e-01  -9.8638431e-01   9.4782112e-01  -4.6890482e-01  -5.4218564e-01  -2.9372982e-01   8.7999744e-01   6.7631126e-01   5.5586807e-01  -5.6362555e-01  -8.0539803e-01   3.4733701e-02  -3.8089844e-01  -7.2330414e-01  -7.2338886e-01   5.2258290e-01  -4.1206695e-01   7.6360236e-01  -2.5080590e-01   5.3261722e-01  -4.2105304e-01  -1.2533174e-01  -2.0333145e-01   3.5644718e-01  -2.5294689e-01  -7.1803198e-01   2.4673901e-01   8.5897754e-01   3.0950192e-01  -6.4940928e-01   9.2656439e-01  -6.4022997e-02  -6.8766343e-01   4.0444455e-01   8.1981488e-01  -4.7652066e-02  -8.5721503e-01  -9.2505896e-01   3.1145989e-01   2.8696073e-01   2.3723665e-01   4.0667379e-01  -9.6856724e-01  -8.7653259e-01  -9.8048411e-01   9.2867888e-01  -6.6857990e-01  -1.8479726e-01   6.3380629e-02  -4.5252480e-01  -3.1813040e-01   7.5965074e-01  -5.1029580e-01   8.9113061e-01   2.2781502e-01  -7.3034015e-01   7.1832488e-02  -9.3888697e-01   3.1132231e-01   6.6748576e-02  -5.2732920e-01   3.3248804e-01  -3.2088393e-01  -7.1561918e-01  -2.2059354e-01   2.6910912e-01   8.5095749e-01   8.5674136e-01   2.3416311e-01  -1.4108858e-01   5.6041039e-02   3.1965893e-02  -8.8527578e-01   7.8174374e-01   9.9599502e-01  -6.9038579e-01   4.2693547e-01  -1.1434486e-01  -9.9806967e-01   5.3182408e-02   5.3821827e-01  -3.5127701e-01   3.0268142e-01   9.2039282e-01   7.3510326e-01   9.1357231e-01  -9.9830625e-01   2.9094276e-01  -2.8967228e-01  -5.4424014e-02   1.4708953e-01   5.3645303e-01   7.5504388e-01   2.4269938e-01   2.4447983e-01   4.7358391e-01  -1.2843507e-01  -8.5714396e-01   8.5962272e-01   2.1992963e-01  -5.5967841e-01   4.0634991e-01  -2.5255395e-01   2.1018585e-01   7.5704380e-01  -5.4261010e-01  -7.2951076e-02  -8.2277001e-01  -2.4737783e-01  -7.7741859e-02  -7.1892001e-02   9.4884523e-01   6.6471104e-01   9.2456976e-01  -8.1564242e-01   7.5403448e-01  -6.8344447e-01  -4.0753543e-01   1.0383581e-01   7.7011146e-01   9.2569206e-01  -6.5967926e-01   8.0181824e-01   8.4633710e-02  -8.7185552e-01   7.5564560e-01   8.1812694e-01  -9.9182638e-01   5.8976726e-01  -6.6818745e-01   7.6967970e-02   3.1821102e-01  -4.7572767e-01  -1.2157972e-01   6.6723384e-01   1.1634369e-01  -6.4663292e-01   1.8845066e-01  -3.4080925e-01   8.8845931e-01  -5.6115716e-01  -5.9304925e-01   6.1485438e-01  -9.7624961e-01  -4.5851171e-01  -8.4256061e-02   9.7893040e-01  -7.7283058e-01   7.9221931e-01   5.9408253e-01   1.7029010e-01   1.0081423e-01   3.0265098e-01   6.2055791e-02  -6.6396196e-01  -8.1278529e-01   9.3090505e-01   1.8809332e-01   5.6402311e-01   6.6975707e-01   7.3680668e-01   6.0714119e-01   3.3954024e-01  -4.3235034e-01  -7.1717091e-01   8.5532520e-02  -6.9397366e-03  -1.4748712e-03   2.3946742e-01   9.1911227e-01   7.9031640e-01  -9.0826973e-01   4.9926058e-01  -8.8198548e-01   1.6060425e-01   4.4748123e-01   7.7853010e-01   3.5730573e-01  -6.2798014e-01   6.7102437e-01  -5.7200191e-01  -3.1334506e-01   7.2122014e-01  -1.5155068e-02   6.8722472e-01   4.2654693e-01   2.3870182e-01   6.8619485e-01  -1.2970952e-02   9.7292179e-01  -6.3047950e-01  -8.7526404e-01   8.2176276e-01  -8.8904978e-01  -7.9734576e-01  -8.9324834e-01   9.0473686e-01   6.6969821e-01  -7.8971433e-02   3.8381432e-01   5.7719380e-01  -2.0399481e-01  -5.1678130e-01  -9.8922021e-01  -5.6284918e-01   3.0729257e-01   5.7120121e-01   5.6424176e-01   8.5397597e-01  -9.8104650e-01   5.0497443e-01   1.4029778e-01  -8.2267898e-01   8.7380854e-01   7.9991079e-01  -6.9130244e-02   5.9393287e-01   7.6467337e-01  -6.4578598e-01   4.8136274e-01  -4.0865606e-01   9.0837507e-01   5.4282179e-01   2.3763652e-01   7.3006037e-01  -1.1560554e-02   6.0356807e-01   9.3864766e-01   4.2327994e-01  -7.4953586e-01  -9.0480146e-02   5.2270221e-02  -1.2304030e-01  -4.7614435e-01   2.5128679e-01   5.1122064e-01  -9.9160043e-02   2.5105834e-01  -5.2545092e-01   8.2711937e-01   5.5142313e-01  -3.8265759e-01  -2.3841791e-01  -7.5028505e-01   3.7254823e-01  -9.3062571e-01  -2.9947230e-01  -9.6847547e-01   2.2969912e-01  -8.4722131e-01  -1.1343383e-01   1.4027280e-01  -3.3593483e-01  -9.0210619e-01   4.4672810e-01   8.9476279e-01  -1.3816168e-01   9.9586847e-01   6.9641737e-01  -1.1570208e-01  -7.0336838e-02   6.5984252e-01  -4.2982510e-01  -1.6992482e-01   6.3866028e-02   9.2056389e-01   3.2891038e-01  -1.0736095e-01  -1.4642735e-01   5.1739100e-01   2.3366480e-01   3.9045582e-01   5.0982227e-01   9.4272754e-01   4.1231017e-01  -3.9958234e-01   8.1460789e-01   5.9239285e-01   4.8685585e-01   5.5258890e-01  -1.4652895e-01  -5.1114719e-01   6.4065282e-01  -8.8402208e-01   3.9015935e-01   7.9211680e-01   4.8614550e-01   3.0658510e-01   7.7426819e-01  -4.4248496e-01   3.7706785e-01   2.8273256e-01   9.3765474e-01  -8.0406497e-01   1.8082729e-01   3.0629956e-01  -3.4166083e-01   7.9026405e-01   1.2156143e-01  -7.0188038e-01  -1.0996642e-01   6.9731780e-02   5.0533869e-02   6.0480534e-01   2.5263967e-02   4.9315141e-01  -9.3455555e-01  -3.2497515e-01  -4.4427233e-01  -2.3220158e-01  -3.7595506e-01   7.5150221e-01   2.9545415e-01   8.3675510e-01   9.3714802e-01  -8.4512861e-01  -7.0725788e-01   1.4701738e-01  -2.7178272e-01  -9.8259876e-01   2.9185450e-01  -6.6847721e-01   5.0663567e-01  -4.0590751e-01   2.1670160e-02   5.7604366e-01  -9.3719663e-01  -7.5437973e-01  -2.8963715e-01  -3.5650731e-01   5.7309513e-01   6.7193722e-01   2.2380893e-01   1.1200952e-02  -4.6300555e-01  -8.9853818e-01   3.5501164e-01   3.3966890e-02  -4.2445093e-01  -3.6372414e-02  -3.8810285e-01   1.2665124e-01  -7.6574101e-01  -4.4671259e-01   6.8121157e-01   4.2372479e-01  -6.1639837e-01   2.4839620e-01   1.5725298e-01  -9.0256104e-01   8.5657353e-03  -7.1367813e-01   2.2993382e-01  -5.1411165e-01   2.7414224e-01  -1.6339494e-01   6.0352479e-02  -7.4352838e-01   3.2965280e-01  -2.0876976e-01   7.5533063e-01   4.1157886e-01  -6.6611405e-01   8.8797956e-01  -5.5497867e-01   7.3719010e-01  -4.7116982e-01  -9.1096920e-01   2.8380974e-01   3.9383668e-01  -4.0125833e-01   1.5964731e-01   4.5872738e-01  -3.1907190e-01  -7.0179770e-01  -8.0190543e-01   7.9429240e-01   3.1682428e-01  -6.3128133e-01   5.1413784e-01   6.1236659e-01  -4.8027297e-01  -8.5659584e-01   6.2239094e-01   7.5989127e-01  -7.7995057e-01  -2.2513903e-01   5.5835075e-01  -8.7333499e-01  -7.3183488e-01   4.7002931e-01   6.0396064e-01   6.4025222e-01  -2.5337998e-02   4.8636495e-01   8.9844753e-01   6.5219168e-01   3.1547383e-01  -5.7206538e-01   4.3089724e-01   9.5241558e-02  -6.1072317e-01   2.4136275e-01   9.4933668e-01  -5.3699893e-01  -1.1172233e-01   1.2314322e-01   7.2859956e-01   5.2978777e-01  -3.5086740e-01   4.1300033e-01  -6.6921871e-01   9.7364893e-01   6.9200018e-01  -1.9653647e-01   4.0201324e-01   1.6455146e-01   4.9376561e-01   9.9593617e-01   8.9618769e-01   6.9799303e-01   1.0514480e-01   4.9150076e-01  -2.4761515e-01  -3.1226368e-01  -8.1917301e-01   4.7308884e-01   6.3640199e-01  -8.5338505e-01  -8.4917005e-01  -4.9635219e-01  -4.5243609e-01  -9.4530309e-01   5.0587082e-01  -1.8379820e-01   6.6911443e-01  -2.8186983e-01   1.4437764e-01   5.0784225e-03  -1.5396090e-01   8.9075078e-01   9.6260031e-01   4.0997263e-01   8.7709490e-01   8.6138191e-01   9.8891267e-01   5.0709536e-01   2.0408385e-01   4.8010555e-01  -8.2185765e-01  -8.3683803e-01  -6.8947586e-01   8.5360579e-01  -3.3849203e-01  -1.4850443e-01   7.2435420e-01  -1.8336429e-01   1.6977907e-01  -7.2426313e-02  -1.7383860e-02   1.4347640e-01  -1.3907972e-01  -4.8086379e-01   7.6946704e-01  -3.6206695e-01   2.9116470e-01   3.4684669e-01  -3.6006622e-01  -4.0487568e-02  -8.5340926e-01   9.3602633e-02  -3.5644957e-01   8.7291706e-01   1.4775281e-01  -3.7110539e-01   6.8686854e-01  -6.9582129e-01   9.8027911e-01  -8.6882005e-01   2.5832615e-02   1.1982840e-01   9.6561438e-01  -9.9013612e-01   4.3437504e-01   9.3285881e-01   3.8199064e-01   4.9021981e-01   6.8914568e-01  -7.1238038e-01  -4.5737786e-02   6.5380938e-01  -6.1383263e-01  -4.7947288e-02   8.4526054e-01  -1.6669410e-01  -4.1588579e-01   2.7067854e-01   8.4491012e-01  -8.1158616e-01  -6.0783829e-01  -4.6040878e-01  -1.0783022e-01   5.1136773e-01   9.6693529e-01  -5.7943295e-01  -8.9778907e-01  -5.7797587e-01  -3.8445970e-02   7.2947370e-01   5.5651293e-01   2.0444149e-01   2.4267368e-01   2.2869729e-01   7.4471399e-01   3.8059298e-01  -1.2116591e-01  -3.5128504e-01   1.2713920e-01  -8.2355276e-01   9.7653869e-01   1.9786137e-01   8.6991320e-01   7.4617850e-01   2.7265851e-01   1.0851872e-01   8.5297150e-01   5.6174450e-02  -2.2625929e-02  -1.8202172e-01   5.4753317e-01  -1.8262608e-01   5.5845241e-01  -6.4744239e-01   7.5150554e-01   2.2825431e-01   1.8864965e-02   1.2931324e-01
   7.5217853e-02   2.0053181e-01  -3.9534375e-01   4.5842022e-01  -8.6568887e-01   8.8339595e-01   9.7109068e-01  -2.9720503e-01   9.8943824e-01  -2.2884115e-02  -5.6631259e-01   7.5383907e-01  -4.3246470e-01   5.1731583e-01   7.5339146e-01   2.3469648e-01  -5.8331156e-01  -1.0924527e-01  -9.0086212e-01   2.2800233e-01   7.4902462e-01  -3.3699972e-01  -6.0475687e-01  -7.8665869e-01   3.9332996e-01   5.3984071e-01   2.4607111e-01   2.6379833e-01   4.6560611e-01  -3.9840387e-01  -8.0693923e-01   1.0400820e-01   3.2822543e-01   9.5109058e-01  -8.6496895e-01  -2.8837921e-01  -9.4036211e-01   6.5217475e-01  -3.7792738e-02   6.3680677e-01  -5.9488031e-01   2.7861907e-01   2.5482426e-01   3.4000644e-01  -5.5196319e-01  -2.8722549e-01  -2.9010151e-02   2.9561020e-01  -8.2865194e-01   7.2975966e-01   6.5542273e-01  -3.3345550e-01   6.3915214e-01   3.8417319e-01  -9.2172788e-01   3.2552654e-01   8.2313403e-02   1.5823982e-01   6.9835843e-01   6.0785937e-01   5.9474468e-01  -9.7812217e-01   6.5500587e-01  -9.8152386e-01   5.8416865e-01   1.8858110e-01  -5.2970562e-02   5.6317982e-01   3.2904906e-01   9.8461790e-01  -7.2572824e-01   7.3018850e-01  -1.7360588e-01  -8.3314759e-01  -3.1560192e-01  -1.4703101e-01  -1.7399655e-01  -4.9090781e-01   6.8598460e-01   9.8303246e-01   5.3132073e-01  -2.3368026e-01  -1.3827837e-01  -2.7902771e-01   8.7366428e-01   4.0734188e-01   1.8582170e-01  -7.4260781e-01   6.3689013e-01   1.8082845e-01  -3.3025078e-01  -7.8124994e-01  -8.8239076e-01  -6.6961792e-01  -2.5107252e-01   2.5377523e-01   7.0712938e-01  -8.2983626e-01  -9.8961063e-01  -6.0492603e-01   8.2211438e-01   4.7569848e-01   1.8189193e-01  -3.9389857e-01   6.1983761e-03   1.3222044e-01  -7.1217737e-01   7.4224746e-01   8.2107839e-01  -4.7094758e-01   2.0989676e-01   7.5084648e-01   7.7325647e-01   4.1618072e-01   9.4181333e-01  -4.1775307e-01   4.2175837e-01   1.7708780e-01   3.5985514e-01  -8.6606636e-01   7.1001556e-01  -2.7595360e-01   4.3252144e-01  -3.4048191e-01  -1.4205591e-01  -5.1688050e-01   6.2334886e-01   5.6009194e-01  -7.1978832e-01  -4.9777583e-01   7.7674534e-01  -8.9354670e-01   7.9536021e-01  -2.9003672e-01  -9.9689285e-01  -4.8009336e-01   9.6066243e-01   3.2140627e-01  -3.9688527e-01   9.1334717e-01   1.3893848e-03  -2.8421475e-01   2.4161549e-01  -7.6985108e-01   8.0851563e-02   4.5774489e-01  -1.6100117e-01   2.5845840e-01   7.7822039e-01  -3.0448213e-01   9.0471202e-01  -7.9443362e-01   2.5004043e-01  -2.2683227e-01   2.8394815e-01   7.6159640e-01   1.1272123e-02  -2.7431776e-03  -2.4437146e-01   8.0431464e-01   5.6922891e-03  -6.3313312e-01  -4.2728525e-01  -1.8017036e-01  -1.5008024e-01  -5.6356116e-01   6.9611126e-01  -4.9669285e-01   8.4666629e-01  -1.3604494e-01   9.0055553e-01   5.1391498e-01   8.2866275e-01  -4.7906895e-01   2.5993495e-01  -6.6173995e-01  -7.8892046e-01  -9.2669747e-01  -9.1598001e-02  -7.6809215e-01   4.2236554e-01  -8.7496134e-01   7.9983464e-02   1.3901053e-01  -1.8209058e-01   4.4058686e-01   1.9104143e-01   5.9185278e-01  -4.9259994e-02  -1.2803417e-01   9.6377393e-02   5.9454207e-01   5.7511559e-01   9.8494428e-02   8.9916033e-01   8.8928860e-01   8.2769038e-01  -6.4471701e-01  -1.8955499e-01  -1.5621393e-01  -8.6456171e-01  -9.9225359e-01  -6.5851117e-01  -1.6560861e-01  -2.5297873e-01  -4.1996348e-01  -8.6894632e-01   3.4875068e-01  -4.6581100e-01  -5.8277523e-01  -8.0499760e-01   2.1038637e-01   2.5688765e-01   1.6052391e-01  -5.6950121e-01   6.5942973e-02  -4.5509335e-01  -8.6944121e-01   3.0447873e-01   5.1369004e-01  -4.0514434e-01  -3.5771465e-01  -3.6610157e-01  -1.6954449e-01   5.2068080e-01  -4.9632207e-01  -2.3684162e-01   1.2297707e-01   6.8830169e-01   7.5187232e-01  -5.6048919e-01  -8.1230502e-01   7.8478825e-01   5.0090346e-01  -1.9755626e-01   2.9669745e-01  -4.2433050e-01  -3.1945063e-01   3.7256693e-01  -3.7313432e-01  -2.2201110e-01  -5.4983774e-02  -2.4634633e-01   3.9140094e-01   2.2295409e-01  -1.1295031e-02  -4.4388313e-01  -7.2194494e-01  -7.4225119e-01  -6.9882613e-01   2.1531420e-01  -4.0168910e-01  -5.8194618e-01  -7.1649190e-02   4.9926494e-01   6.1368261e-02   4.6178963e-01  -9.4172530e-01   5.6446304e-01  -2.0174585e-01   6.8285120e-01  -3.4361819e-01  -8.5011895e-01  -7.6484358e-01  -6.1404234e-02   1.7905095e-01  -5.5348167e-01  -7.3691916e-01  -8.5303095e-01  -1.7812302e-02   9.2928366e-01  -4.9844922e-01   7.7111290e-01  -7.9966399e-01   4.3844943e-01   9.3339152e-01  -6.0783033e-03  -3.5356628e-01   6.8134012e-01   5.2376172e-01  -7.7226101e-01  -3.1584962e-03   6.6663930e-01   1.0364230e-01  -9.3087867e-01  -2.5623825e-01   6.2914331e-02   2.4150540e-02   4.3385595e-01  -1.2003983e-01  -3.1838523e-01   7.2521588e-01   8.1316723e-01   8.8963095e-01   9.5676010e-01  -7.3123435e-01  -6.3265645e-01  -4.4468740e-01   7.9976311e-02   8.9231511e-02   6.1987197e-01   5.0845371e-01  -2.2062585e-01  -6.0617589e-01   6.3983187e-01   7.2840933e-01   3.9883307e-01  -8.7477185e-01   1.9976642e-02  -4.0804421e-01  -7.7662593e-01  -3.1726556e-01  -2.8318252e-02  -3.4564739e-01  -4.3003972e-01   8.0334597e-01  -8.0950971e-01  -3.7120126e-01  -1.5106066e-01  -3.7802940e-01  -1.5175443e-01  -3.3566318e-01   3.5817256e-01   9.0349376e-01   1.1565129e-01  -7.8871341e-01   5.8901493e-01  -6.0728884e-01   8.0136627e-01   3.6134364e-01  -4.3666350e-01   1.2992418e-01   9.9951007e-01   5.5182004e-01   1.1009031e-01   6.0042211e-01   9.0262048e-01  -8.6502351e-01  -9.9518177e-02   5.7811760e-02  -1.1452636e-01  -8.6037849e-01   8.7410511e-01   4.6193421e-01  -9.2649124e-01  -7.9920808e-01   7.8659216e-01  -5.0026487e-01   9.4669530e-01  -5.8212139e-01   7.2788931e-01  -4.1944386e-01   1.5336427e-01  -2.1485829e-02   2.8311821e-01   1.2796945e-01   8.0346159e-01   4.3443849e-01  -2.4835078e-01   4.9897574e-01  -9.5704843e-02   2.3455072e-01  -3.6654793e-02  -1.6126170e-01  -2.5231499e-01   9.5223471e-01   6.8826370e-01  -5.3086196e-01  -7.1676863e-01  -8.9649959e-01  -6.2982560e-01   5.2726445e-01  -3.0000206e-01  -1.2135258e-01   2.1445224e-01   6.3168024e-02   6.5793318e-01  -3.8778705e-01  -2.5198103e-01  -9.8854106e-01   3.5054532e-01  -4.5300474e-01  -7.7900492e-01   3.8904744e-02   6.6855860e-01  -2.3392065e-01  -5.5566413e-01  -2.6175672e-01   2.2061136e-01  -2.5582861e-01   5.5431328e-01   3.5969569e-01  -2.0138744e-01  -4.2929574e-01   1.5683999e-01   9.6494114e-01  -6.7183346e-01  -5.4115535e-02  -2.8377841e-01  -4.4652034e-01   2.3709911e-01  -4.9467636e-01   9.2257170e-01   4.0260236e-01  -5.0875888e-01   4.6695467e-01   7.6651629e-01  -5.4817142e-02  -7.4785319e-01  -6.9426918e-01   8.9225248e-01  -7.4014725e-01   7.7837673e-01   4.5857495e-01   7.4238030e-01  -6.0645057e-01   7.9974065e-01  -4.5666203e-01   3.1883592e-01  -6.9250956e-03   1.7089640e-01   3.7423029e-01   2.5230689e-01   7.4168990e-01   7.3676962e-01   8.1428544e-01   7.8873186e-01  -5.6535420e-01  -9.0679294e-01  -1.1527532e-01   1.7115998e-01   2.7048931e-01   9.0430787e-01  -8.6374158e-01   1.5708794e-03   8.6964212e-01   2.5779987e-01  -4.4744496e-01  -7.2440657e-01   7.4389564e-01   8.8702864e-01  -4.5826322e-01   6.8640953e-02   5.7034820e-01  -9.1258594e-01   1.6824858e-01  -2.2926713e-01   2.5359780e-01  -1.6573495e-01  -8.6821455e-01  -1.2563613e-01  -4.0716429e-01  -6.3915836e-01   6.3984138e-01   2.5340703e-01   9.1023813e-01  -7.8425121e-01   2.8881319e-01   1.2953105e-01   5.9924940e-01   3.4259241e-01   9.8742989e-01  -7.9283893e-01  -3.3746346e-02  -5.0419755e-01  -4.7593553e-01  -3.2212532e-01   5.8129064e-01  -4.8355005e-01   5.5675331e-01  -3.4611661e-01  -6.8664066e-01   5.3798052e-02  -3.2796583e-01  -1.3242941e-01   6.4095114e-01  -8.7272601e-01   9.5732372e-01   3.1427701e-01  -2.9319551e-01   7.7707713e-01   6.8620394e-01  -8.2948474e-01   8.6598070e-01   6.3362746e-02   4.2012202e-01  -2.3191353e-01  -1.3563267e-01  -6.1095668e-01  -9.7954395e-01  -6.3426192e-01  -9.3806611e-01  -2.0493325e-02   3.4638676e-01   4.2286476e-02  -3.7129319e-01   8.5006874e-01  -9.6146124e-01   9.6473119e-01  -1.7352722e-01   4.6293366e-01  -9.6367837e-01  -2.3096673e-01   3.3599805e-01  -2.1475792e-01  -5.4842687e-01  -3.5615926e-01   1.5014126e-01  -6.2189050e-01  -4.5172469e-01   7.9847320e-01  -1.6037337e-01   1.7018129e-01  -9.1857069e-01  -5.9878149e-01   1.1885578e-01  -4.1797392e-01  -8.9678843e-01   8.1641757e-01   3.9320201e-01  -1.3174829e-01  -8.4506809e-01  -4.0641773e-01   1.4927566e-01   6.2170222e-02  -2.7680026e-01  -4.2295306e-01  -6.6119766e-01   5.8813687e-01   8.0441463e-02  -9.1384530e-01  -9.8145199e-01  -2.2185817e-01   2.0265796e-01   7.7364182e-01  -2.7217616e-01  -6.7034736e-01  -4.3736789e-01  -6.6008589e-01   6.1119840e-02  -3.5812137e-01   8.2617655e-01   7.9467168e-01   6.7238101e-01   8.5348681e-01  -4.3629573e-01   1.1253264e-01   9.1554201e-01   4.9803013e-01  -7.6561693e-01   2.7925299e-01  -1.0081960e-01   7.7853785e-01  -8.9888821e-01  -5.6489547e-01   6.7654110e-01  -2.4482635e-01  -3.8395833e-01   8.3771970e-01  -1.7320833e-01   5.7971358e-01  -4.8738131e-01  -1.3813035e-01   6.5025190e-01  -4.1954744e-01   2.5731899e-01   3.5759671e-03  -5.6481631e-01  -3.6868717e-01  -2.7010718e-01  -7.6979023e-01   5.2751909e-01   1.2461340e-01  -7.3256705e-01   9.9092510e-01   4.6248454e-01   7.6852755e-01  -9.9359308e-01   6.3472300e-01   2.1794347e-01  -3.4190263e-01   1.0808107e-01  -4.8872803e-02   7.4592456e-01  -5.1577732e-01  -5.5866056e-01   4.5614001e-01   2.0703528e-02   9.3034469e-02  -5.9663514e-02  -7.6694859e-01   3.1226382e-01  -4.3576185e-01  -1.8140813e-01   4.6102808e-01   3.2565972e-01   2.1422409e-01  -6.1185423e-01   6.1774216e-01   5.9859510e-01   4.9204645e-01   3.8188254e-01   5.2540099e-01   7.2368709e-01  -6.0272142e-01   9.1233870e-01  -3.4639826e-01   6.2060154e-01   8.4776438e-01  -6.6910976e-01  -9.6128229e-01  -4.7278824e-01  -3.8774676e-01  -1.3002170e-01  -7.0837344e-02   9.4095268e-01  -1.9812452e-01  -3.1587580e-01  -7.0871282e-01  -8.0570743e-01  -2.4458055e-01   3.4600639e-01  -6.5856769e-01  -5.9436992e-01  -4.7265655e-01  -9.8962496e-01   2.6938709e-01   6.3869005e-01  -8.3868723e-01  -3.3610210e-01   3.3107800e-01  -6.5068660e-01   4.9872773e-01   6.8622013e-01  -2.6577354e-01   3.5967362e-01  -7.9635659e-01   1.6974710e-01   1.9458814e-01  -9.5802710e-01  -9.0326864e-01   5.4250498e-01   8.0373604e-01   7.3599038e-01   2.5082108e-01   6.5085747e-01  -8.0167331e-01   2.7196152e-01  -1.9706994e-01   3.2999055e-01  -7.7734839e-02  -9.4807506e-01   8.0255828e-01  -7.4489563e-01  -8.7264620e-01   7.4761241e-01   1.2328107e-01   6.1809048e-01  -5.1402888e-02   3.9443322e-01  -4.2467863e-01   1.4285880e-02  -1.6107627e-02  -9.8548412e-01   3.4016412e-01  -2.2635480e-01  -6.5405556e-01  -4.8183111e-01   8.5646354e-01  -3.7909407e-01  -9.3741119e-03  -2.2646920e-01  -1.4074466e-01  -3.1588493e-01   9.9436771e-01  -4.7558653e-01   4.5033222e-01  -4.1363451e-01  -9.1935514e-01   5.4856548e-01  -8.6508240e-01  -7.3327422e-02  -6.7679018e-01  -5.1281173e-02   2.7999856e-01   9.0544586e-01   9.2622678e-01  -6.8760768e-01  -9.6583609e-01   6.7841749e-01   4.9287864e-02   7.1201388e-01   5.7935637e-01   5.2863917e-01  -9.0038351e-01   4.3261783e-01  -8.2783889e-01   9.9963072e-01  -5.0324355e-01   5.3787933e-01   5.0334844e-01   7.8841037e-01  -3.9942991e-01  -6.9033832e-01  -3.4616730e-01   6.3238647e-01  -9.5732082e-01  -1.2163147e-01  -7.4036966e-01  -5.9369649e-01   6.9435015e-01  -5.5884859e-01   9.6034658e-02   7.2677789e-01  -2.2621986e-01  -5.3970139e-01  -7.2518066e-01   3.3225844e-01  -3.1347914e-01   1.4539087e-01  -6.5684051e-01  -4.7088273e-01  -4.3542264e-01  -5.2132146e-01  -6.8203421e-01   3.3386180e-01   9.2257289e-01   6.6340319e-01  -1.4650053e-01   7.6328600e-01   7.7430142e-02  -3.5263543e-01  -1.4403892e-01   9.1809085e-01   3.7209144e-01  -8.2009838e-01  -7.2924351e-01  -5.6412988e-02   8.0724585e-01   9.8722330e-01  -5.1755516e-01  -4.6179546e-02   5.5743446e-01  -7.8430222e-01   8.5442226e-01  -3.6105201e-01   5.0067783e-01  -5.7136188e-01  -7.6368073e-02  -4.4565553e-02  -3.8970173e-01  -5.0161599e-01  -3.3014445e-02   6.3276223e-01   3.2776367e-01   6.2784258e-01  -5.6601132e-01   1.3621660e-01   9.8667102e-01   7.0966328e-01   9.1698686e-01   7.4853126e-01  -3.6569737e-01   3.3105333e-01   4.5956962e-01  -3.0514963e-01   1.6835427e-01   7.3496644e-01   9.8799551e-01  -4.3636269e-01   1.8355569e-01  -8.2477445e-01  -8.7315871e-01   3.4082920e-01   8.4323971e-01   6.8650547e-01  -1.5249780e-01  -2.6708937e-01   6.4067552e-01  -3.5982389e-02  -9.2218870e-01   2.2540101e-01  -4.1850874e-01   6.9627824e-01   5.3949980e-01   5.7707147e-01   8.9091436e-01   2.8800894e-01  -2.1296865e-01  -7.0184623e-01   8.1426311e-01  -3.5965134e-01  -2.4069410e-01   4.0334155e-01  -8.0452371e-02   6.6375731e-01  -3.7496421e-01   2.8591450e-01   3.8891973e-01   4.8926197e-01  -5.7854137e-01   2.7075973e-01   3.9368426e-02   5.5818811e-01  -4.4923423e-01   6.0725774e-01   8.4970412e-01  -9.3625083e-01  -9.3915986e-01   5.0398337e-01   9.2357229e-01  -9.3124572e-01  -2.5534084e-01  -8.4429142e-01  -5.3995123e-01   3.3992352e-01  -1.3000660e-01   1.2617308e-01  -4.5007823e-02  -6.3046141e-02  -1.3961715e-01   1.2845816e-01   6.5788022e-01  -5.6207328e-01   7.4819971e-01  -3.2889613e-01  -8.9793819e-01  -6.1825387e-01  -6.6799432e-01   7.1999742e-01   8.2341675e-01  -3.4344793e-01   7.3618770e-01   8.0970489e-01   7.1701182e-01   3.1277692e-01   8.5994927e-01   4.7576450e-01  -8.0641607e-01  -3.9732347e-01  -8.5843336e-01   5.9853978e-01   4.9100400e-01   7.7967736e-01   6.4855245e-01   2.9646849e-02   4.1568739e-01  -2.7785297e-01   9.7427961e-01   5.8200438e-01   7.9231337e-01   5.8958760e-02  -8.7241388e-01  -1.2571138e-01  -3.4300087e-01  -5.8191480e-01   1.5559659e-01   3.4373368e-02  -5.9791517e-01  -2.7481631e-01  -1.9778205e-01  -3.0392330e-01  -5.7465407e-01  -4.5634929e-01   3.1435595e-01  -2.5929911e-01  -1.5457050e-01   6.2981694e-01  -2.2853485e-02   4.3473094e-01   2.3090401e-01  -1.0833511e-01  -5.1134353e-01  -8.7973338e-01   7.6756273e-02  -7.4837880e-01   9.1805752e-02   2.3898281e-01   5.2826943e-01  -1.3140292e-01  -1.5232713e-01  -7.5443811e-01  -9.8342812e-01   2.0409484e-01   2.5554672e-02   2.0543153e-01   9.1351836e-01   8.8120749e-01   4.0729104e-01  -4.6991995e-01  -9.4573700e-01  -3.1793233e-01  -3.2494650e-01   5.6036279e-01   6.3235636e-01   5.2682043e-01   4.5748915e-01  -9.2465494e-01   6.8813970e-01  -4.9877431e-01   6.7054551e-01  -5.5463794e-01  -8.4691956e-01   9.8969843e-01   3.7653025e-01  -3.9962709e-01  -6.2883684e-01   6.5855593e-01  -3.2564860e-01  -5.0637488e-01   5.9923100e-01  -9.6177720e-01  -5.1204320e-01   5.4009285e-01   8.6500579e-01   6.9929587e-01   9.7340854e-01  -8.8419837e-01  -9.2308198e-01   1.8626072e-01  -5.9072437e-01   1.9289517e-02  -5.9186052e-01   3.2324404e-02  -2.5626037e-01  -2.7955827e-01   4.0140810e-01   2.6307745e-02  -2.7165618e-01  -9.8355300e-01   4.4249384e-01  -2.5220421e-01  -1.2947810e-01  -6.0817056e-01   9.9567396e-01   6.4115008e-01   4.5778584e-01   5.2976295e-01  -3.0332222e-01   2.6726212e-01   3.3890475e-01  -5.9743603e-01  -6.8614393e-01  -9.9198767e-01   2.6782630e-01  -8.7676589e-01  -8.9167271e-01  -9.5443549e-01  -2.9797847e-01  -5.9707501e-01   4.2255003e-01   6.3029930e-01   1.0046514e-01   9.4466459e-01  -9.9499924e-01   5.0620746e-01  -4.2121051e-03   1.0451385e-01  -2.4917771e-02  -9.2114037e-01  -8.1945336e-01  -3.9457639e-01  -7.2271007e-01  -7.3982535e-01   2.4339153e-01  -7.5939867e-01  -3.6402596e-01  -2.1587705e-01  -1.8370536e-01  -3.9267582e-01   9.2080672e-01   7.4322646e-01   2.6165047e-01   1.9056999e-01  -5.9982080e-02   3.1536857e-01   6.7663985e-01  -2.7634390e-02   4.8041013e-01   2.6786638e-01  -5.7884741e-02  -9.8789284e-01  -2.9859151e-01  -8.0932154e-01  -8.8503199e-01   2.2631964e-01  -2.3493200e-01   2.5013365e-01   2.6040916e-01   8.9924034e-01   5.5658119e-01  -7.8824492e-01   7.6390144e-03  -4.1052628e-01   1.4804643e-02   2.5540311e-01  -7.8390556e-01  -8.0379858e-01   3.7574110e-01   8.2588624e-02
   3.5182568e-01   6.6214761e-01   2.7152561e-01   1.7783459e-01   8.7802455e-01  -3.4214426e-01   6.3655305e-01   7.6469586e-01   3.2567954e-01   1.2222521e-01  -4.2640486e-01  -7.4756511e-01   9.5013308e-01   2.7033882e-01   8.7336165e-01  -1.8354908e-01  -4.8922776e-01  -2.0300022e-02  -2.5700979e-01   3.5741420e-01   9.0175419e-01  -6.1783775e-01  -9.7503003e-01   6.6047348e-02   8.7934282e-01   1.6500229e-01   3.0407395e-01   1.7141828e-01  -5.6740203e-01  -7.5202001e-01  -8.6801212e-02   2.4604386e-01   3.7078712e-01   4.9855152e-01   8.3116809e-01  -6.4241825e-01  -3.6878994e-01   9.7892162e-02   6.9986196e-01   1.5379344e-01   1.0325624e-02  -1.2915012e-01   4.8554782e-01  -5.5659120e-01   5.3030255e-01  -9.1744232e-01   8.5365365e-01  -3.4706771e-01  -2.3677669e-02  -4.2162637e-03  -1.4759399e-01   6.1354457e-02  -2.6376617e-01   7.2443264e-01   8.5884625e-01  -8.8132283e-01  -2.3633151e-01   5.1351016e-01  -5.9138229e-01  -7.1015334e-01  -8.2152647e-01   7.9552377e-01   9.6527288e-01   4.3155479e-01   6.6650933e-01   9.0932941e-01   8.0433280e-01   2.9105425e-01   1.6642676e-01   9.2421949e-01  -1.2130227e-01  -5.5087330e-01   8.9735283e-01  -6.6253589e-01   4.5853247e-01  -5.4201215e-01  -9.2659900e-01   6.3456368e-02   1.8246363e-01   2.0069229e-01   4.6703354e-01   5.4933877e-02  -9.4262301e-01   4.4772296e-01   2.0894597e-01  -3.0734727e-01   1.3648287e-01   8.5924552e-01   8.2099469e-01   6.9241331e-01  -3.1779609e-01  -7.6596092e-01   5.6439358e-01  -4.9107379e-01  -6.9886910e-01  -2.4663631e-01  -4.5702488e-01   6.3554178e-01  -1.2688859e-01   6.1998317e-01  -3.0236209e-01  -8.5822454e-01  -1.2555640e-01  -8.6591840e-01  -3.9356690e-01  -3.4953182e-01   1.2227222e-01  -4.3204972e-01  -8.8831726e-02   9.8157049e-01  -9.2660849e-02  -4.6134474e-01  -4.3280097e-01   5.9290968e-01   9.7301048e-01  -4.6037932e-01   1.1731108e-01   8.2156264e-01   9.7621284e-01   8.0693539e-01  -9.4424733e-01  -9.0824270e-01   4.9825037e-01  -6.6192504e-01  -9.0928298e-01   9.7279265e-02   1.1078974e-01  -5.8491402e-01   5.4496872e-01   7.6739576e-01   7.9909697e-01  -9.0118049e-01  -7.1425687e-01   3.4564777e-01   2.3781871e-01  -8.1221396e-01   1.8775068e-01  -1.6341339e-01  -6.5456407e-01  -9.6850678e-01  -4.9862138e-02  -7.8656758e-02  -1.0239517e-01   8.3747897e-02  -9.1089297e-02  -5.3973608e-01  -9.6372675e-01   4.0997110e-01   7.0000997e-01   2.3020910e-02  -4.4023299e-02  -7.4777632e-02  -8.9297401e-01   9.8563091e-01  -9.5653863e-01  -1.4878284e-01  -3.3573133e-01  -9.5579688e-01   3.1388755e-01  -2.2565036e-02  -9.2556263e-01  -1.3940889e-01  -9.6465292e-01  -9.8050819e-01   8.9477765e-01   5.5044952e-01  -4.9220297e-01   4.3424535e-01   9.0942075e-01  -2.2180881e-01  -1.2935519e-02  -1.1298930e-01  -4.9695436e-01   5.0791975e-01  -7.3656766e-01   9.0600058e-01   8.1515745e-01  -9.8074994e-01  -5.8161083e-01   9.9124408e-01  -3.0571158e-01   1.4008544e-01   4.8612849e-01   2.6724469e-01  -5.1582021e-01  -2.3233625e-01  -3.0423105e-02   2.4960863e-01   3.0721413e-01   3.9290863e-01  -2.7550757e-01   8.0528608e-01   7.6438243e-01   1.9532470e-01  -3.8697361e-01  -1.2315330e-01   5.7883404e-01  -1.4730242e-01  -3.5067844e-01   1.8879959e-01  -8.4645177e-01  -7.4527080e-01  -3.2950445e-01   4.8388301e-01   7.0930904e-01  -7.0690523e-01  -4.6172511e-01   8.9741863e-01  -4.0889402e-01   9.1189461e-01  -1.9018446e-02   1.5748409e-01   4.7874529e-01  -5.1359854e-01  -2.7552393e-01   2.3255719e-01  -8.7803162e-01   7.1199189e-01  -6.9343731e-01   4.8043005e-01  -1.5791666e-01   7.2383436e-01   2.1695271e-01   8.1226849e-02  -4.5575843e-01   7.9927050e-01   9.5332227e-01  -3.6893882e-01   9.7726132e-01   9.0685088e-01  -1.3781232e-02   3.8781448e-01  -5.0787674e-01   9.7241763e-01  -3.7137712e-01   5.0681261e-01  -4.8322779e-01   6.6614133e-01   1.5169758e-01   3.4281341e-01  -1.5966178e-01  -5.3539865e-01  -7.7724502e-01  -2.5796081e-01  -6.3913662e-01  -6.7233077e-01   6.6645771e-01  -5.9524444e-02   1.3676372e-01   3.7049943e-02   6.2387430e-01   4.7817587e-01  -5.5523998e-03  -5.8806418e-01   4.7865192e-01  -1.0703918e-01   5.3849884e-01   6.4187785e-01   1.9181757e-01   8.8482058e-01  -4.2255768e-01  -8.0533511e-01  -6.4686781e-01   5.0808334e-01  -8.6863178e-01  -4.5516581e-01  -1.6796845e-01  -9.1971368e-01  -7.8942097e-01   9.4824670e-01   8.7032970e-01  -4.7372746e-01   8.7863137e-01   8.8835093e-01   9.7800028e-01  -4.1514824e-01   9.1037053e-01   4.9162562e-01   9.2075959e-01   2.7290134e-01   8.8455942e-01  -5.2793972e-01   1.0470988e-02   3.6814207e-01  -2.7898488e-01   3.8114824e-01  -1.4331015e-01   9.8295241e-01  -6.3754573e-01   2.5254352e-01  -9.2229831e-01  -5.4098503e-01   8.8681073e-01   5.2882834e-01   6.8025639e-01   3.4397637e-01   1.1306820e-01  -7.1531429e-01  -6.1599479e-01  -8.9048731e-01   2.3382862e-01   4.5325907e-01  -2.2797481e-01  -1.6461615e-01  -4.3559066e-01   7.1927418e-01   5.7683920e-01   1.1312049e-01  -1.6432889e-01   9.2773939e-01   6.0686856e-02  -1.7976637e-01  -7.4919989e-01  -8.1547260e-01   4.6965449e-01   2.3697650e-01  -5.2567971e-01  -6.0011211e-01   1.7194032e-01   2.6537024e-01  -4.3736946e-01   9.4750221e-02   6.8814821e-01   3.0055971e-01   9.9846966e-01  -1.7696444e-01  -2.6775215e-01  -2.8132227e-01   5.1420362e-01  -8.7777435e-01  -2.9769291e-02   3.3926308e-01   7.3881194e-01  -8.6802991e-01  -8.4703682e-01   4.1867832e-01   5.3069731e-01  -9.3354440e-02   8.1539608e-01   9.5636911e-01  -7.7339967e-01  -3.8376259e-01   2.8370071e-01  -2.0261687e-01  -3.4287314e-01  -5.9468277e-01   6.3780828e-01   3.4658343e-01  -3.5500148e-01  -7.6084103e-01   1.3282752e-01   2.6888418e-01  -1.0332772e-01   8.3180492e-01  -7.4044753e-01   4.0492905e-01  -6.1316502e-01   5.8297968e-01   2.1900546e-01   3.9837544e-01  -3.0115749e-01  -1.4506711e-01  -1.2428118e-01  -8.3787344e-01  -7.2938057e-01  -9.6477059e-01   5.1587127e-01  -8.0304001e-01  -7.9201099e-01  -7.0414879e-01   2.2183408e-01   2.8604116e-01   4.1762913e-01  -9.0354305e-01   5.3175789e-01  -8.9435713e-01  -4.9336602e-01   5.4136720e-01   6.7112740e-01  -4.9104384e-01   6.5273518e-01   3.5891083e-01   4.9285686e-01   5.9155797e-01  -8.4832391e-01  -2.9924781e-01  -2.0753179e-01  -6.4313136e-01  -5.5230201e-01   2.3295995e-01   9.7872588e-01   4.5078169e-01   4.1957599e-01  -1.2680046e-01  -8.7442633e-01   9.9255576e-01   5.8816261e-01  -4.0526170e-01   2.3868149e-01  -2.2087752e-01  -3.4996098e-02  -5.4719614e-01  -3.2144969e-02  -7.4350402e-01   6.9718224e-01   8.8184711e-01  -5.1416362e-01   6.5682334e-01   6.3510424e-02   7.1823504e-02  -8.8086073e-01   5.0843917e-01  -6.1400111e-01   5.6523706e-01  -6.0249904e-01   3.0048979e-01  -1.2456871e-01  -5.8083267e-01  -8.2009676e-02  -5.0491165e-01  -7.2281438e-01   5.2206882e-01   4.2127650e-01   5.6290018e-01  -9.8726280e-01   7.8927078e-01  -5.7319847e-01   4.5961276e-02   9.5883778e-01   8.1099000e-02  -7.3537235e-01   4.7960897e-02   4.0254583e-01  -5.4862612e-01  -8.9235397e-01  -1.4690962e-01   7.8298561e-02   7.5996985e-01   9.7877719e-01   1.9122118e-01   6.8612908e-01   5.4766146e-01   1.8326272e-01  -2.3764509e-01  -1.9239246e-01  -4.7939751e-01   4.7198158e-01  -9.1420862e-01   5.2396250e-01   2.3966312e-01  -6.9417295e-01  -9.0645068e-01  -9.4515711e-01  -4.0131846e-01   8.8713569e-01   6.0184911e-01  -8.4970599e-01   8.1789083e-01   2.0750607e-01   8.5576200e-01   9.6857455e-01   1.0609514e-01   5.4742474e-01   8.5659148e-02  -8.2315225e-01  -4.8796137e-01   2.2738135e-01   4.1965008e-01   9.0085266e-01   7.3294214e-01  -7.5561259e-01   1.1491633e-02  -7.7656086e-01   1.8557122e-01  -4.9418583e-01   2.9723220e-01  -3.2864928e-01   1.5479138e-01  -1.7978979e-01   5.8397733e-01   2.0433996e-02   1.0618439e-02   5.3084719e-01   2.0198463e-01  -7.4517102e-01   7.7523405e-01   7.9276357e-01  -8.5402677e-01   1.9233173e-01   4.6853057e-01  -8.1779485e-01  -4.3300307e-02  -1.3484950e-01  -4.4489480e-01  -3.9043287e-01  -8.1226585e-02  -6.1618468e-01   5.0385316e-01  -4.9460117e-01   8.1163443e-01   1.5798922e-02  -8.9854790e-01  -3.5038607e-01  -1.6176240e-01  -6.2214002e-01   2.9237502e-01   6.6170846e-01   1.2603719e-01   2.2896441e-01  -1.1064918e-03   5.9757891e-01   9.4253647e-02   5.8486452e-01  -1.4872171e-02   2.9955296e-01  -7.2317802e-01  -4.2229512e-01   7.2332705e-01  -4.4311472e-03   4.3396633e-01  -8.4685253e-01  -7.4821692e-01   2.6972339e-01   8.9561463e-01  -6.3580035e-01   7.5704703e-01   9.5009429e-01   2.3454252e-01   9.6438292e-01   1.3088221e-01   6.9316303e-01  -7.4081144e-01   7.5069412e-01   2.1876988e-01   6.7678364e-01  -8.1641877e-01   9.3442484e-01  -5.5888183e-01   3.8650559e-01   6.0847365e-01   7.0415103e-03   1.1909700e-01  -6.5007905e-01   6.1764398e-01   5.6893880e-02  -8.3230724e-01   7.2250359e-01  -4.4190114e-01   3.1535003e-01   4.0119154e-01   4.9769345e-01   3.2144735e-01   1.4094282e-01   2.6480385e-01  -2.7249110e-02   5.3334301e-01   7.5264793e-01  -8.0307781e-01  -8.7166838e-01  -6.7919682e-01  -2.8421682e-01   5.6115339e-01   5.9012233e-01  -9.6749931e-01   1.1909324e-01   4.2113140e-01  -2.6887235e-01  -1.2224073e-01   9.5697229e-01  -5.5696503e-01  -6.0288786e-01   6.4498633e-01  -6.1556348e-01  -8.3574065e-01   7.7997506e-02  -6.7271860e-01  -8.6890612e-01  -2.9436634e-02  -5.6317370e-02   8.4316327e-01   9.2787529e-02   2.3183313e-01  -7.7253124e-01   6.3884252e-01   8.6550121e-01   3.6868644e-01  -5.3129087e-01   9.7315615e-02  -4.9809480e-01  -9.4759753e-01  -5.8628876e-01   9.6650289e-01   8.5140677e-01  -4.0241327e-01  -8.2741190e-01   7.5042135e-01  -1.2295704e-01  -8.4007267e-01  -8.8823741e-01   7.0084070e-02   1.4385323e-01  -9.8903736e-01   3.0676210e-01   4.3271080e-03  -3.4573992e-01   4.5237534e-01   7.5691782e-01   5.6077820e-02   7.3445644e-01  -4.0060928e-02  -8.5894992e-01   5.5141213e-01   4.3695627e-01  -2.7387427e-01   1.2157952e-01   2.3601680e-01  -4.4456919e-01  -1.9060751e-01   8.6559172e-01   2.9688325e-03   3.0804058e-01  -4.9365349e-01   7.9372295e-01  -5.4340790e-01   4.3860215e-01  -6.9512928e-01  -1.9517912e-01   2.9786602e-01  -7.9845794e-02  -5.9312470e-01  -9.1203958e-01  -6.5492280e-01   3.0863086e-01   5.7977232e-01   9.4610173e-01  -1.8493577e-01  -6.5577803e-01  -4.3052812e-01  -8.6890909e-01  -2.4145531e-01  -1.1190292e-02   7.4559572e-01  -4.3135065e-02   4.2729685e-01  -4.3188598e-01   4.4106802e-01   6.3118524e-02   5.4123510e-01  -5.3756055e-02  -4.2024980e-01   3.3523409e-01   2.0375553e-01  -1.9266378e-01  -3.5602021e-02   6.4130295e-01  -5.3371412e-01   8.9493213e-01  -4.3177644e-02   1.7472182e-01  -8.4286719e-03   8.0557425e-01  -6.7344760e-01  -4.1458189e-01   4.4907344e-01  -2.0460845e-02  -5.8564997e-01  -4.5592569e-01   7.5232462e-01   5.6650795e-01  -7.8754921e-01   8.0785777e-01  -5.1115560e-02   3.9438369e-01   7.9439987e-01   7.7063827e-01   8.3347036e-01  -8.1846222e-01   7.4987712e-01  -6.4764316e-01   5.3138440e-01   1.5611231e-01  -6.6585783e-01  -6.0231133e-01  -6.0172117e-01  -8.1659250e-01  -4.6937495e-01  -4.5796584e-01  -4.9952423e-01  -1.2263992e-01   2.2905198e-01  -6.9109222e-01   9.5976404e-01   9.5498862e-01  -7.3243908e-03   3.6175272e-01   6.6707783e-01   2.6093415e-01   8.0041479e-01  -8.7414377e-01  -6.6624530e-01  -5.0790039e-01  -7.3880253e-01   7.5613626e-01   5.1775626e-01  -5.4570251e-01   7.2113786e-01   9.6667607e-01   8.3140819e-01  -2.4892759e-01   3.2723886e-02  -7.0035481e-01   3.5174214e-01  -4.1605151e-01  -8.1108261e-01   1.7576048e-01  -4.7125146e-01  -9.6608490e-01  -7.2085554e-01  -6.0932868e-01  -1.5388659e-01   2.1204566e-01  -2.5602831e-01   9.0889871e-02   2.2373774e-01  -3.3240589e-01   6.8085909e-01  -5.4602809e-01  -5.4149116e-01   2.0687058e-01   3.2083957e-01   3.8671362e-01   9.6474761e-01   6.8835072e-01  -4.5633113e-01   6.5222832e-01   2.3091190e-01   2.5374104e-01  -5.6031672e-01  -2.6774442e-01   7.4260450e-02  -1.9473881e-01  -3.2845233e-01   4.2699660e-02   2.1238934e-02  -4.4987853e-01   3.8300090e-02   3.1036221e-01   5.5422384e-01  -3.4808609e-01  -6.4284046e-01  -9.5188987e-01  -9.8329776e-01  -6.6582890e-01  -9.2195939e-01  -6.3800285e-01   9.7257188e-01   9.9867443e-01   6.5210035e-01  -2.0338827e-02   3.3675840e-01  -6.1086715e-01   8.6793159e-01   7.8127652e-01   6.0666627e-02   5.7470866e-01  -7.0692872e-01  -3.6007847e-01  -2.8427955e-01  -9.3516808e-01  -7.7468429e-01   6.6177937e-02   5.7762989e-01  -5.5134994e-01   2.7794936e-01   3.5780912e-01  -7.5095626e-01   1.4323500e-01  -8.3051931e-01   4.8544772e-01   1.0502600e-01  -6.1967524e-01  -4.3026403e-01  -2.9801215e-01  -9.0502686e-01  -5.9171261e-01   4.1056117e-01  -7.9397771e-01   8.2576807e-01  -6.6045151e-01   6.0339363e-01   2.0793662e-01  -9.5983153e-01  -6.2561669e-01   2.9872246e-01  -9.6601059e-01  -1.6267858e-01  -3.7557011e-01   6.1601949e-01  -1.7936554e-01   9.0537938e-01   8.5105028e-01  -8.8334885e-01   3.2992533e-01   9.2868765e-02   5.1775064e-01   4.2405810e-01  -1.0907260e-01  -5.7828770e-01  -4.6834241e-01  -3.0646858e-01  -7.7135152e-01   4.9721489e-01  -7.1656969e-01   2.0850777e-01  -5.2770225e-01   6.0687739e-01   6.8635930e-02  -7.3653107e-01   4.6071488e-01   5.9510585e-02  -8.9257420e-01  -5.3153500e-01   7.9589009e-01  -2.8440298e-01  -8.7325935e-01   5.9644201e-01   2.6691343e-01  -8.7971004e-01  -9.5961103e-01   5.1139690e-01   8.8059957e-01  -7.3721454e-01   1.0226910e-01   3.5875210e-01   8.6932618e-01   8.1261985e-01  -7.1445812e-01  -1.8821348e-01   4.3532587e-01   8.7474427e-01   5.1360513e-01  -6.4129080e-01  -6.2423115e-03   6.7893636e-01   4.4973051e-01  -3.9034338e-01  -6.0051570e-01  -8.4646403e-01  -5.3496778e-01  -7.8423493e-01  -9.2533220e-02   4.7856002e-01   7.2213604e-01   5.4136930e-01   8.7226343e-01   3.0347924e-01   3.9137484e-01  -9.3814004e-01   5.3769264e-01   2.1087418e-01  -2.3027499e-01   7.5514596e-01  -4.6298445e-01  -2.8354492e-03   1.1090433e-01  -6.3568925e-01   8.5957811e-01  -9.1280833e-01   5.8620382e-01   2.2055921e-01  -9.0293284e-01   1.1020647e-01  -2.6575157e-01   4.0820425e-01  -2.4167346e-01  -3.7792104e-01  -7.7446329e-01   1.9601613e-01   3.1703288e-01  -9.4699674e-01  -8.5489645e-01   5.3444586e-01   1.5489878e-01  -8.1738752e-01  -2.7137561e-01  -2.7899867e-01   5.1035140e-01  -5.6296121e-01  -8.5014400e-01  -8.4035319e-01  -1.9773219e-01  -9.7292554e-01  -2.0107179e-03  -7.2415586e-01   6.8377854e-01  -7.2414315e-01  -5.9998436e-01   2.3138673e-01   3.6888066e-01   1.6099227e-01  -5.0961256e-01   4.3935902e-01  -9.7242147e-01  -1.5071159e-01  -5.9307338e-01  -3.6025479e-01   6.5929693e-01   6.5352863e-01  -9.7914077e-01   7.7786831e-02   9.5844961e-01   4.6571003e-01   9.5489212e-01   8.4101430e-01  -9.3340736e-01   8.0865524e-02  -8.4572983e-01  -6.4706521e-01  -2.7193090e-01  -8.0309463e-01  -6.7676437e-01   5.3095186e-01   6.5752308e-01   2.3879147e-01   7.5748053e-01   5.4988540e-01   6.0990020e-01  -5.5712132e-01  -4.5601324e-02  -4.2674808e-01  -2.5172937e-01   9.1642989e-01   1.8907571e-01   9.7727038e-02   3.8305740e-02   6.2735734e-01   3.9297123e-01   3.9553975e-01   9.3597934e-02   1.0426513e-01  -1.0963864e-01  -7.1174358e-01   7.5500290e-02   3.9796487e-01   8.1137965e-01  -1.5562273e-01  -9.3087382e-01  -4.4577263e-01   7.5233284e-01   6.8203920e-02  -2.7140383e-02   2.0343197e-01  -2.7491532e-01  -6.2699983e-01  -4.1035142e-02   6.4700124e-02  -9.5704424e-01   7.3988397e-01  -1.2722551e-01  -2.5272502e-01  -7.2037340e-01  -3.8726313e-01   8.3712167e-01   4.1515414e-01   9.9494210e-01   7.0978100e-01  -6.4705569e-01   3.9897087e-01   1.1486372e-01   2.5796534e-01  -8.4029571e-01   9.5477266e-01   3.0224695e-01   5.5055354e-01   6.1441835e-01   8.3629308e-01   2.2598177e-01  -5.9453247e-01   1.8821895e-01  -1.8650252e-01  -9.7049705e-02  -2.9451909e-01  -7.6014100e-01   8.5874894e-01   7.2268061e-01  -8.7797504e-01  -2.2674057e-01   3.1429793e-01   9.1600224e-01  -8.3695981e-01   5.9799114e-01   2.4907096e-01   2.2100171e-01   1.9616714e-01  -3.3402649e-01   5.4640239e-01   5.1813030e-01  -1.4181669e-01   1.6929678e-01  -5.0896209e-01
  -6.4379612e-01  -1.0758065e-01   4.1581585e-01   8.7371603e-01  -2.8782163e-01   5.3908273e-02  -7.4209180e-01  -8.0761943e-01   2.6950951e-02  -8.7591213e-01   8.5723886e-01  -1.0183017e-02   1.6435563e-01  -9.3749303e-01   1.1689819e-01   2.4895635e-02  -3.2637836e-01  -2.3245578e-02   3.1488609e-01   3.3485478e-01  -5.8879546e-01  -4.1040348e-02  -9.4429560e-01  -2.0024373e-01  -8.3278888e-01   7.2728957e-01   1.3226630e-01   7.2168804e-01  -9.0974499e-01   7.8106582e-01   2.4342356e-02   2.3002428e-01  -5.9935207e-01  -7.0466790e-02   4.0704832e-01   5.3015819e-01   2.9859176e-01   9.4517544e-01   9.0161936e-01  -6.1964593e-01   6.6260117e-01  -4.0498412e-02   6.8805882e-01  -3.1186898e-01   2.2448498e-01   8.5565812e-01   1.4495235e-01   3.1342210e-01  -9.8019170e-01   3.6069154e-01   7.9657348e-01  -7.8807225e-01  -6.3615330e-01   6.6466417e-01   8.1878119e-02   9.0958714e-01   6.6464545e-01   2.8783278e-01  -5.6105903e-01   2.4248019e-01   2.7640978e-02  -6.9154382e-02   5.0924357e-01  -4.3958310e-01  -6.7063946e-01  -3.8468941e-01   9.1062259e-02   7.5468163e-01  -8.6144061e-01  -7.6253800e-01  -5.6730053e-01  -2.3485046e-01   7.2516120e-01  -4.5232454e-01  -5.5402449e-02   9.7575671e-01   8.2854164e-01   3.8493394e-01  -9.8060891e-01  -6.7771143e-01   9.0443342e-01   8.8952564e-01  -5.4584801e-01   4.4863895e-01   4.0385489e-01   2.3799300e-01   9.6777118e-01   2.6526402e-02  -9.7234582e-01  -3.8524503e-01  -5.0125554e-01   3.0665415e-02  -6.4337902e-01  -5.2366322e-01  -6.4012868e-01  -7.0139028e-01  -9.6338251e-01  -6.3560703e-01  -5.9954460e-01  -8.7747856e-01   5.1455256e-01   9.3828754e-01   2.4199205e-01  -6.5335420e-02  -7.8455793e-01  -7.2595807e-01  -2.7874051e-01  -2.7230499e-01  -1.6215537e-01   4.7624255e-01  -8.0038787e-01   1.4909041e-02   3.4371268e-01  -5.5784692e-01   6.4575610e-01   4.9867499e-02  -6.3529752e-01   8.6104447e-01   2.5758198e-01   8.2375074e-01  -2.1223818e-02  -6.4716032e-02   5.6400020e-01   2.9334100e-01  -7.0996453e-01   1.3668562e-01  -3.6703486e-01   8.8963739e-01   4.6038453e-01  -4.1223564e-01  -6.7377618e-01  -4.2177474e-01  -1.1419156e-01   1.2728988e-01   9.3244529e-01  -2.0580553e-01   6.0893746e-01  -2.5389292e-01  -2.6866579e-01  -7.0043601e-01  -1.3528479e-01   3.0203643e-01  -8.6687120e-01   9.5572178e-01  -2.9894468e-01  -4.4288476e-01   3.7855187e-01   9.6531497e-01  -5.3442311e-01  -1.2994252e-01   6.5064738e-01  -9.0514313e-01   9.0288568e-01   6.5525920e-03   3.2798946e-01  -9.3577748e-01  -3.3264100e-01  -8.5433677e-01   8.1838261e-01  -1.0596714e-01   2.5618251e-01   3.8877992e-02   5.8337814e-02   8.5093552e-01   6.2145101e-01   3.9094794e-01  -3.6239794e-01  -1.8267918e-01  -9.0373109e-01  -4.1708703e-01   3.4883959e-01   7.5994843e-01  -1.1943304e-01  -1.6884285e-01   8.7550615e-01   1.8008915e-01   1.9630789e-03  -8.9044456e-01  -7.9046845e-01   3.4190286e-01   9.2462595e-01   8.9068332e-01  -1.2235576e-01  -8.3516371e-01  -8.6240650e-01   2.9686001e-01   9.4783389e-01  -7.3698288e-02   8.9342658e-01   8.7493898e-01   1.0507474e-01   3.4977080e-01   5.5648001e-01   3.5794260e-01  -4.4231503e-01   6.6106764e-01  -6.7709544e-02   5.3192148e-01   1.7293291e-01   9.6697097e-01  -1.8973716e-01   7.5134925e-01  -2.2229125e-01  -4.2931377e-01   9.0462275e-01   5.5308473e-01   3.2548904e-01  -7.0885211e-01   1.8787903e-01   9.6283159e-01  -6.6321129e-01  -7.0695779e-01   5.3281469e-01  -3.6044706e-01  -3.4519990e-01  -9.2010497e-01   7.1591892e-01   9.2783117e-02  -9.4939375e-01   2.5061984e-01  -9.6948535e-01  -8.2560568e-02   8.4113372e-02   6.2676776e-01   3.5705604e-01  -1.5227007e-01  -9.0368293e-01  -1.8097700e-01  -8.6433980e-01  -2.7172333e-01  -9.0528370e-01   9.2331271e-01  -9.6991382e-01  -9.5019531e-01   4.1064755e-01  -5.2645092e-01   9.9424171e-01   7.9650345e-01   4.5273087e-01  -7.5290679e-01  -9.0443807e-01   2.7751316e-02  -7.3424276e-01  -2.6454312e-01  -6.8625501e-01   7.0041139e-02  -7.6185857e-01  -2.2820682e-01  -2.0710125e-01  -1.2394768e-01  -1.0043098e-01  -3.6304505e-01  -4.2873963e-01  -3.5629402e-01  -9.6110689e-01  -7.6436530e-01  -6.0672768e-01  -6.9679271e-01  -7.3223925e-01  -9.3874029e-01  -2.5589505e-02   3.3826295e-01   2.4618631e-01  -4.8730654e-01   7.9524052e-01   2.8702904e-01  -5.8595387e-02   3.4242748e-01   9.3687305e-01  -6.5205904e-01   9.9856801e-01  -1.2937661e-01  -5.1361834e-01   1.8113833e-01  -6.7224850e-01   4.6608184e-01  -5.9974996e-01   3.9322049e-01  -7.9595008e-01  -9.4866093e-02  -5.0345673e-01   5.4525589e-01  -2.4824706e-01   7.9834402e-01   3.1506028e-01  -8.8944525e-01  -7.3079032e-02   7.0352637e-01   7.1497855e-01  -7.1173216e-01   7.8050537e-01  -3.6799701e-01  -6.9013974e-01   5.3321837e-01  -7.1271650e-01   6.0782203e-01  -6.6429125e-01   8.5131933e-01   8.4904520e-01  -4.4390826e-01   6.1745358e-01  -2.8532574e-01  -5.5615503e-02   1.0044466e-02   4.0015192e-01  -9.5588620e-01   2.0342712e-01  -4.2965372e-01  -2.3732173e-01   6.0774653e-02   5.8549108e-01  -3.5839753e-01   3.6538388e-01   9.2086343e-01   1.0405752e-01   6.7264988e-01  -1.8614095e-01   6.1186560e-01   4.9972376e-01  -4.7139768e-01   3.5842715e-01   5.8683239e-01  -5.2447333e-01  -3.2334866e-01   3.9098457e-01   4.3619286e-01  -3.6124479e-01  -2.3979034e-01  -1.0471087e-01  -2.7582073e-01   1.4609410e-02  -6.2978004e-01   5.0687469e-01  -8.5775110e-01  -8.4333182e-01  -6.3080379e-01   9.8380653e-01   9.8827020e-01   8.3408419e-01   5.9158128e-01   8.8916369e-01   9.9073274e-01  -1.6801435e-01   7.4973874e-01  -5.3725094e-01  -5.0702306e-01  -3.3332459e-02   5.7957676e-01   4.1714897e-01  -9.7702484e-01   4.0151430e-02   7.6860397e-01   4.3599018e-01   9.0333751e-01  -7.7337187e-01   4.9823400e-01  -5.0987607e-01   4.4849436e-01  -8.2254370e-01   9.3708538e-01  -3.2533713e-01   7.2731314e-01   5.9236099e-01  -4.5711147e-01   5.5980473e-01  -6.4062219e-01  -8.4962321e-01  -5.2083713e-01  -9.2281967e-01   3.1164926e-01   4.4674540e-01  -2.4968185e-01  -7.1658915e-01  -3.6609255e-01  -6.6976800e-01   5.7954433e-01   4.1136083e-01  -5.7941949e-02  -7.1038212e-01  -6.0716835e-01   3.7157460e-01   6.9526449e-01   9.2178759e-01   8.0118949e-01  -8.0866722e-01   8.9323094e-01  -5.5571998e-01   3.8742912e-01   3.2315917e-01   8.7910940e-01  -7.0429294e-01   7.6883711e-01  -1.5897801e-01   8.3810036e-01   5.8113869e-01  -7.5109655e-01   1.7066186e-01  -1.7127773e-02   6.9860236e-01   6.8522664e-01  -1.4703050e-01  -1.8927719e-01   1.4080811e-01   9.0003339e-01  -9.7460342e-01  -9.9016431e-01  -8.3779497e-01  -3.1055556e-02  -7.4925429e-01   4.8885810e-01   1.9096411e-01  -7.4932727e-01   1.1838568e-01   5.8024408e-01  -9.7948992e-01  -2.0413720e-02   3.8647599e-01   8.7119739e-01   9.8811673e-01  -8.7481778e-01  -6.6802332e-01  -5.9434710e-01   3.3338357e-01   6.1415066e-01   1.4509992e-01  -6.3049010e-01   9.6431055e-01   3.2853282e-01   9.8250673e-01  -7.7906177e-02   8.9392918e-01  -6.3534912e-01  -5.6704079e-01   7.7731115e-01  -2.0478207e-01   3.4900121e-02  -1.3313303e-01  -3.4795933e-01   1.4018274e-01   1.3299946e-01  -3.9912389e-01   6.8195890e-01   1.9568774e-01  -2.7098436e-01  -6.3191130e-01   5.3360881e-01  -8.6720696e-01  -1.2445552e-01  -4.9668428e-01  -2.1275025e-02   2.9430539e-01   9.4942655e-01  -8.7415704e-01  -9.2292580e-02  -6.6607642e-01   1.1053207e-01   8.3921136e-01   3.4590340e-01   6.9524940e-01   3.6838564e-01  -6.9943818e-01  -8.2960213e-01   7.9881771e-01   4.7151487e-01   4.6977719e-02   6.9710569e-01   3.8867476e-01  -9.3606076e-01  -1.2825022e-01   1.9631950e-01   6.7340107e-01   8.7323243e-01   5.8623446e-01   4.8376985e-01  -5.2531642e-01   4.4577971e-01  -3.6620240e-01  -2.0463944e-01   6.3540884e-01  -7.8123602e-01  -3.5839465e-01  -1.5795759e-01  -7.8012124e-01  -1.7355399e-01  -2.6136733e-02   6.8884838e-01  -2.4449994e-01   7.5657070e-01  -9.9487331e-01  -1.0781076e-01   1.6896295e-01  -8.9848137e-01  -8.5353536e-03   1.7928487e-01   3.7122822e-01  -1.6218209e-01   9.6330301e-01   1.7383284e-01  -4.9256783e-01  -1.4268374e-01  -1.9399429e-01   8.7145648e-01   6.3384486e-01  -1.0178350e-02   2.9264304e-01   7.5057112e-01   5.4879731e-01   7.0016431e-01   2.9307548e-01   2.9032126e-01   2.5046442e-01   7.8740061e-01  -3.7935867e-01  -8.4756560e-02  -8.9258852e-01   2.4614936e-01   3.2672319e-01  -7.0811153e-01  -3.4067730e-01   8.5935901e-01  -1.6071967e-02   1.7496997e-01   7.5758211e-02  -5.4083378e-01  -3.7356501e-01  -6.9882885e-01   3.9100062e-01  -8.4394028e-01   3.6349610e-02  -2.2351464e-01  -4.2545554e-01  -5.7312011e-02  -6.0379395e-01   9.2987933e-01   4.1089201e-01   8.3266050e-02  -7.8540587e-02  -5.3263199e-01   1.6739731e-01  -2.0166988e-01   3.9685137e-01  -3.7388447e-01  -2.2663548e-01   7.9768554e-01   3.6252033e-01   5.9387466e-01   7.7873573e-01  -7.9325340e-01   1.0253668e-01  -9.1106445e-01   5.0302586e-01  -6.5155858e-01   2.9208667e-01  -6.4188084e-01   4.5756117e-01  -6.2808135e-01  -8.7799178e-01  -3.5805827e-01  -5.8270093e-01  -5.1211980e-01   6.1208695e-01   4.6923880e-01  -8.0939035e-02   5.1367042e-02   6.1119214e-02   4.6600807e-01   5.5891232e-01   3.1919667e-01   9.7144422e-01   5.0281271e-01   3.0923238e-01   7.4478828e-01   4.7680204e-01  -9.6132054e-01   8.6315413e-01   9.4542927e-01   5.8523867e-01   2.4456396e-02   3.9620742e-01   9.7894991e-01  -1.5173068e-02   9.9786071e-01  -3.6477905e-02   7.4793647e-01  -9.8967363e-02  -1.4910167e-01   5.0846405e-02  -6.2670396e-02   7.2385615e-02   3.0733542e-01   9.1507453e-01  -5.0803999e-02   9.8122606e-01  -5.8149125e-01  -9.0284339e-01   5.6672225e-01  -8.0264115e-01  -1.9702148e-01   9.3894532e-01   3.1168333e-01  -5.6548225e-02   2.8843967e-01  -1.2571695e-01  -5.3639279e-01  -1.3277502e-01   3.5515543e-01  -6.1021006e-01   5.3899123e-01  -3.6338715e-01  -8.8217045e-01   2.9095214e-01   5.5671450e-01   6.4385745e-01   9.0202525e-01  -3.7050403e-01   1.9200396e-01  -6.0237001e-01  -9.0698909e-01   1.7116632e-01   9.4550323e-01  -1.1774249e-01  -3.4640991e-01  -1.4908504e-01  -8.9324093e-01   2.8268186e-01  -9.9956441e-01   3.3258165e-01  -6.0504011e-01  -7.2823083e-01  -7.3886055e-01  -6.3971388e-01  -4.8005277e-03  -9.3382801e-01  -7.9154547e-01  -3.2174241e-01   8.4378058e-02   3.0188658e-01  -1.0586245e-01  -8.5795150e-01  -5.4775457e-01  -6.5572584e-01  -4.8524357e-01   4.7548899e-01  -8.3624547e-01  -5.5312429e-01   9.5429196e-01   3.2971079e-01   1.3273229e-01   1.0355168e-01  -7.6329854e-01  -7.5188069e-02   4.7525775e-02  -2.4455384e-02  -7.3620865e-01  -9.1782063e-01  -3.9847235e-01  -2.2184607e-01   6.6842692e-01  -5.3127394e-01  -4.7532489e-01  -9.6968347e-01  -9.8487775e-01   8.1533604e-01  -2.5248094e-01  -9.8666706e-01  -9.5251736e-01   1.3174635e-01  -6.0650481e-02   7.5617260e-01   6.1770085e-01  -8.9544396e-01  -6.6502736e-01   6.8498860e-01   8.1016417e-01   8.3769971e-01  -2.4780843e-01  -8.6830623e-01   8.6307211e-01  -4.8250398e-01  -1.4785993e-02  -5.8531582e-01   3.0387189e-01   7.6452664e-01  -2.0133328e-01  -3.7443297e-01   3.1039105e-01  -5.6292310e-01   8.9539671e-01   4.9790734e-01   9.9966387e-01   5.2717905e-01   3.0713002e-02  -7.2317117e-01   7.4709025e-02  -1.9050186e-01   8.7845585e-01  -7.7898364e-03  -3.8397222e-01  -2.1022368e-02   2.6414125e-01  -6.1190495e-02   7.7590394e-02   5.7611624e-01  -6.1433887e-01   4.3256846e-01   7.2933310e-01  -3.0168040e-01  -5.6803310e-01   5.7452690e-02  -4.9782319e-01   1.4748986e-01   8.2148309e-01   7.4352211e-01  -6.9019664e-01  -6.7058276e-02   2.7719834e-01   6.3864774e-01   6.2908923e-01  -9.4018885e-01  -2.7000284e-01  -3.6993407e-01   8.3538292e-01   9.6262208e-01   3.6094952e-01  -9.3904410e-01  -5.6012484e-01   5.4716574e-01   9.6485639e-01  -9.3899655e-01   2.4790816e-01   5.5347621e-01   1.4564038e-02  -8.9347437e-01   7.5758608e-01  -4.2368852e-01  -2.8066138e-01  -9.5932500e-01   7.2820564e-01  -1.9725324e-01  -9.3881822e-03  -5.4430376e-01  -6.1830136e-01  -9.3505732e-01   1.5591057e-01  -3.1467225e-01   2.0721531e-01  -8.4179091e-01  -1.4072835e-01  -6.3959335e-01  -8.8432383e-01   2.1919874e-02   8.7632000e-01  -8.2119801e-01  -7.2415623e-01   8.0072671e-01   2.1257578e-01  -7.8760006e-01   7.1690282e-01   3.8071498e-01  -7.8037100e-01  -9.5244337e-01  -5.9327504e-01  -1.0123870e-01   2.1121027e-01  -6.4553064e-01  -6.0708561e-01  -6.8496847e-01   3.3197546e-01  -1.9983642e-01  -2.8462333e-01   6.8089868e-01   7.6986456e-01  -4.0094695e-01   6.4149673e-01  -4.7103229e-01  -8.2517248e-01   3.8633661e-01   5.5583156e-01   4.1694138e-01   6.7459869e-01  -4.4773703e-01  -6.1889487e-01  -4.1689316e-01   2.0222486e-01  -7.1342233e-02   2.4007395e-01   9.3783581e-01  -4.5302275e-02   9.0395570e-01  -6.5407811e-01   2.4998643e-01   7.1144188e-01   4.4536158e-01   4.3708185e-02  -4.5049055e-01  -7.0092737e-02  -5.1046095e-01  -4.4772872e-01   2.0064965e-01  -3.2451906e-01   4.4220383e-01   5.8518226e-01   2.9848320e-01   1.1984950e-01   1.6222399e-01  -1.2076656e-01  -7.7230546e-01   3.4387830e-01   6.3456402e-01   1.9487422e-01  -3.5454693e-01  -6.6066384e-01   2.5275820e-01   6.1751569e-01  -6.8843885e-01  -5.4252948e-01  -7.4092767e-01   5.1124159e-02  -5.7287399e-02  -4.4494546e-02  -1.1788713e-01  -5.7183238e-02   6.4164106e-01   4.8134773e-02   5.9063394e-02  -5.7138022e-01   8.4288508e-01   3.1459715e-01   5.2340397e-01   3.4358372e-01   9.2187381e-01  -5.9201431e-01   7.1184043e-01  -6.6132247e-01  -6.4870704e-01   9.3587851e-01   2.4654537e-02  -5.9749444e-01   7.8402607e-01  -1.9065230e-02   6.6691273e-01   2.2398756e-02  -6.0896922e-03   2.8026573e-01   3.4041498e-01   9.2703686e-02  -1.9990098e-01   4.1618550e-01   7.6234160e-01   1.2124118e-01  -6.5591220e-01   8.7130477e-01   8.5794383e-01  -4.2129439e-01  -7.0710686e-01  -1.3945535e-01  -6.6752908e-01   5.0972699e-01  -8.4539643e-01  -7.5798290e-01  -7.8352423e-01  -5.8844185e-01  -8.9865769e-01   7.5111483e-01   8.4851787e-01  -9.7287962e-02  -8.9006048e-01   4.8278575e-01  -8.7659899e-01  -6.9673666e-01   5.0570941e-01   1.6760040e-02   8.9273113e-01  -7.9196835e-01  -7.2203729e-01  -9.5748797e-01  -6.5244613e-01   9.2803738e-01   6.1541983e-01  -3.2700200e-01  -5.7269975e-01  -3.7680717e-02   2.0623291e-01  -8.9713765e-01  -7.6605005e-01  -7.2154540e-01  -3.2808397e-01   6.2081390e-01   8.6682729e-01  -8.4123272e-01   7.9534917e-01   9.3983877e-01   9.5082017e-01   1.6080417e-01   6.5990069e-01  -6.2738800e-01  -2.6049075e-01  -2.4408771e-01  -5.5747273e-01  -4.6448987e-01  -3.4739655e-01   9.4102892e-01   8.9016964e-01  -1.7014990e-01   6.0404624e-01   9.4256519e-02   6.5854019e-02   9.9820907e-03  -9.9080408e-01   4.7788554e-01  -3.5957700e-01   7.7447543e-01  -5.8706795e-01   3.7639833e-01   9.3309493e-01   5.9412355e-01  -7.1235853e-01  -8.3957798e-01  -2.9826327e-02  -3.5127078e-01  -7.1202766e-01   3.9883408e-01   7.7803856e-02   6.8559374e-01  -2.5035283e-01  -6.1521866e-01   6.3721250e-01   5.6522109e-01   2.3267250e-01  -5.0370923e-01   2.1827730e-01  -4.2081082e-01  -1.8042798e-01  -7.4235372e-01  -8.5614768e-01   9.4605352e-01   6.9942937e-01   2.7275844e-01   1.9292304e-01   8.6186300e-01  -3.5133837e-01  -8.5878994e-01   9.0397071e-01   8.2461144e-01   7.9826974e-01  -3.1011445e-01   9.4147369e-01   9.2052608e-01  -5.8449229e-02   9.4982090e-01  -4.9309121e-02  -8.9162417e-01   9.3878726e-01  -7.4302735e-01  -3.5333385e-01  -1.1313367e-01  -8.2687752e-01  -7.0986271e-01  -9.3001682e-01   1.9188174e-01   9.0308745e-01  -6.9581885e-01  -9.6362090e-01   9.2572072e-01  -4.6003035e-01  -8.1138529e-01   5.6103740e-01  -2.1068472e-01  -3.7209128e-01   2.0839621e-01  -7.6760356e-02  -4.6080058e-01  -8.5547681e-01  -9.9066112e-01   9.4551986e-01  -4.4522950e-01  -7.7964143e-01   4.3314200e-01   5.7487439e-01  -4.9726701e-01   6.3532832e-01   5.0731735e-01   1.7155317e-01  -7.8359847e-01  -3.8663547e-01  -8.0051712e-01   4.3554673e-03  -1.2038261e-02  -9.0109882e-01  -5.2213270e-01   3.9444123e-02  -2.8463160e-02  -3.2189572e-01   3.0916109e-01   2.4919869e-02  -9.0910479e-01   5.6829446e-01   1.3068253e-01   5.8571318e-01   3.8985546e-01
  -8.6397100e-01   2.2885242e-01   9.5614593e-01  -2.7909560e-01   4.5960142e-01  -9.5217886e-01  -2.5328861e-01   7.4445023e-01   2.9330369e-01  -1.2468494e-01   3.6600634e-01  -9.1156156e-01  -5.6471724e-01  -5.5900591e-01  -4.6148234e-02   3.7324905e-01  -5.7440224e-01  -5.4717928e-01  -8.6206183e-01   2.5087480e-01   9.8775404e-01   8.1205405e-01  -2.4785283e-01   9.0671690e-01  -2.4640242e-01   1.9476331e-02   2.7232261e-01  -6.5019344e-01  -6.0837840e-02   3.3042295e-02  -7.0970226e-01  -6.4435634e-01  -9.2142480e-02  -6.0057515e-01  -2.4005874e-01  -1.7952523e-03   9.5641538e-01  -9.0097585e-01  -1.9331779e-01   6.4741473e-01   2.7101554e-02  -3.3947607e-01  -5.9471710e-01   4.9735869e-01  -5.4864197e-01   3.3429781e-01  -6.9659088e-01  -4.5814888e-01  -6.4393000e-01  -8.6744924e-01   1.1075603e-01  -6.3429178e-01  -5.7916225e-01   4.3014822e-01   2.6547685e-01  -5.4473958e-01   2.5081217e-01   3.5760442e-01   7.8969841e-01   4.2113528e-01  -6.6639714e-01   7.9921591e-01  -8.9570579e-01   4.3721327e-02  -7.7083619e-01   7.3406076e-02  -1.1673258e-01   2.2087952e-02   9.7774232e-02  -1.9141589e-02  -3.0498083e-01  -1.0879442e-01   1.7024171e-01   4.6543544e-01  -2.4193440e-01   3.6867591e-01   9.7107346e-02   3.1587661e-01  -8.2896883e-01  -6.3089074e-01  -7.6101496e-01  -3.3344620e-01  -9.5919439e-02   6.7380552e-01  -2.1981699e-01   9.0698226e-01   9.3798857e-01  -9.6390164e-01   9.0159764e-01  -1.1298969e-01  -2.2995820e-01   5.4456876e-01   2.6684074e-01  -6.6850911e-02   8.3769990e-01   9.9957398e-01   1.4142776e-01   5.4564852e-02   7.6865148e-01  -4.1967257e-02   9.0752102e-01   1.6446694e-01   4.4773708e-01  -2.4974902e-01  -7.4380828e-01   6.3970090e-01  -2.3297174e-01  -9.0103207e-01  -2.6488893e-01  -4.9098070e-01   7.4930260e-01   7.7208341e-01   6.3528013e-01   9.8696078e-01  -5.2244934e-01   7.3055630e-01   5.6657347e-01  -4.8428216e-01   4.6690873e-01  -1.9240605e-02  -9.6588604e-01   2.2665501e-01   4.1493573e-01   4.2419549e-01   3.3805505e-01   3.0762315e-01   8.2515511e-02   5.2453280e-01  -3.4816474e-01   3.8750725e-01   3.3187591e-01  -9.9387722e-01   9.2456532e-01   7.6215164e-01   3.2620615e-01  -8.2879363e-02   8.4691743e-01   3.3785987e-01   9.9212055e-01   6.7232308e-01  -1.9526793e-03  -7.5995667e-01   5.4792394e-01   5.0682700e-02   3.4158845e-01   2.5569982e-01   3.8289561e-01   4.2828540e-01   5.9430455e-01  -3.0350145e-01   2.0008254e-01   7.7890385e-04  -3.7883726e-01   1.2490524e-01  -8.1206726e-01  -6.9640557e-01  -2.0018912e-01  -6.8690776e-01  -3.6288659e-01   5.4876671e-01   1.0649395e-01   6.2315655e-01   8.0083334e-01   4.2555112e-01   9.1274365e-01   5.2592138e-01   5.9805887e-01  -2.8818464e-02   8.1760258e-01   2.0498394e-01  -9.1106429e-01  -6.0255116e-01  -3.4482809e-01   7.7440062e-01   8.9097283e-01  -4.2287396e-02  -2.5864276e-01  -9.6287387e-02  -2.8958020e-01  -6.2491541e-02  -2.0493298e-01   4.7284186e-01   2.0053038e-01   3.3461832e-01  -9.9305205e-01  -4.3794786e-01  -7.2740751e-01  -5.7916697e-01   4.4444262e-01  -5.9033732e-01  -3.8564936e-01  -1.1407893e-01   8.6845739e-01   2.9890803e-02   5.7307938e-01   6.2707763e-01  -4.2186452e-01   3.7750032e-01  -6.7992700e-01   1.5735927e-01  -1.3134055e-01   3.7397173e-01   3.3188154e-01  -3.9579468e-01  -9.5808352e-01  -2.4718018e-01  -4.8679485e-01  -2.8893061e-01   5.0802401e-02   6.4721330e-01  -7.3103221e-01  -1.1298033e-01   2.0746466e-01  -2.0113680e-01   5.0896651e-01  -8.2397383e-01  -9.9086377e-01   7.6614769e-01  -8.9982890e-01   5.4195461e-01   6.6431749e-01  -5.5494084e-03   4.2860821e-01   2.4392985e-01  -8.6279261e-01   1.2963609e-02   3.1701891e-01   4.6662327e-02  -8.3316578e-01  -4.7898048e-01  -2.1859788e-01  -3.5204162e-01  -1.9152437e-01  -3.7603864e-01  -4.3521437e-01  -5.9936737e-01  -9.5601740e-01  -2.5769660e-01  -2.8673439e-01  -8.8444247e-01   9.8729747e-02   3.3724893e-01   5.7043209e-01  -9.0222281e-01  -7.4513086e-02   5.3948172e-01  -9.9010991e-01  -4.4153023e-01  -6.8012085e-01   9.8473523e-02  -6.5580709e-01  -8.3889351e-01   9.3436810e-02   1.3453942e-01  -9.5566129e-01   9.7037908e-01   9.5213009e-01   5.1282869e-01   4.8580481e-01  -1.7510433e-01  -3.5101613e-01   8.0601542e-01  -6.4707207e-01  -4.5895984e-01  -3.5674899e-01   1.2478940e-01  -3.7222989e-01   2.7048296e-01  -7.4581518e-01  -5.2400606e-01   9.8781266e-01   3.9278916e-01   9.4625629e-01  -3.8440560e-01   3.7465142e-01   3.6867914e-01   6.6600995e-02  -4.4568811e-01  -8.7661078e-01  -9.3183860e-01   1.4309086e-01  -8.3059070e-01  -7.8497608e-01   9.7804944e-01   6.2406680e-01  -5.4662529e-02  -5.8557653e-01  -6.6566240e-02   1.9947250e-01   1.4849203e-01  -3.4795905e-01  -3.7249899e-01   2.5173434e-01  -3.7667009e-01  -7.2414663e-01  -3.2081284e-01   4.5733164e-01   3.7374509e-01   6.4351800e-01   8.5736066e-01  -2.4798773e-02  -1.7286839e-01   9.3286653e-01  -9.3414042e-01   7.4507450e-01  -9.4746614e-02  -6.6048594e-01  -7.2593730e-01  -1.8797631e-01   3.2411408e-01   3.3199937e-01  -9.3257795e-01  -8.0148603e-01   2.3924088e-01  -3.8294097e-01  -2.3594281e-01   1.3593617e-01  -1.0456191e-01  -6.1975337e-01   1.1699177e-01  -2.3943544e-01   6.3497689e-01   4.6001497e-01   5.0576350e-01   6.0114709e-01   2.3408132e-01   1.7060841e-01  -1.8846695e-01   1.7574359e-01  -1.7034297e-01   2.5986280e-01  -1.4907794e-01   1.7409148e-01  -9.2822228e-01   8.7757353e-01   3.3093841e-01   3.9690648e-01  -3.5427808e-01  -3.9658861e-03   4.9587528e-01  -4.3091421e-01   6.2452929e-01   3.0332539e-01  -1.0758253e-02   1.4793696e-01   7.1828749e-01   3.2255519e-01  -8.8404034e-02   5.9725107e-01   6.6782603e-01   7.9545789e-01   1.5496844e-02   8.8313099e-01   7.0819703e-01   8.3995157e-01   2.4996411e-01  -2.1667615e-01   2.0132275e-01  -6.8104612e-01  -4.5906216e-01  -8.8762696e-01  -6.5720154e-01  -8.8184944e-02   2.7940962e-01  -5.7170317e-01  -7.1538029e-01  -4.4810935e-01  -3.0173425e-01  -3.1992663e-01  -9.8509512e-01  -3.9709063e-01  -7.7988740e-01   2.2421617e-01  -6.0625752e-01   7.0619454e-01   1.2637153e-01   5.2552745e-01  -5.1049236e-02   4.8496488e-01  -2.1643539e-01   8.9541762e-01   8.0584353e-02  -4.8333602e-01  -8.1056298e-01   8.8510661e-01  -4.4754103e-01  -3.2663582e-01   6.0140715e-01  -7.5002715e-01   1.0610102e-01   8.1943703e-02  -2.9590402e-01  -9.0922630e-01   5.4145651e-01  -5.5145407e-01  -6.7334464e-01   7.6087665e-01   1.8138493e-01   3.7372393e-01  -4.9660734e-01  -1.5518654e-01  -7.1598118e-01  -4.8762696e-01  -3.8665581e-01  -6.7260608e-01   5.5136727e-01  -1.1930936e-01   9.6941505e-01  -8.4176597e-01  -2.4547293e-01  -4.8805282e-03   1.1112526e-01   5.1206227e-01  -1.0576927e-03   4.0633434e-01  -6.7124476e-01  -2.0216182e-01  -8.4165790e-01   6.1113853e-01   8.7069282e-01  -3.2355679e-02  -4.5401075e-01  -5.9296985e-01   9.7786912e-01  -7.5734912e-01  -7.9068956e-01   8.9415953e-01   5.9073564e-01   2.1978848e-01   7.1724478e-01  -3.7555138e-01   5.3314413e-01   4.9273815e-01   6.0553464e-01   9.1749047e-01   3.9030855e-01  -6.2411104e-01   4.0518604e-01  -6.1682999e-02   7.2854836e-01   7.9673221e-01  -5.2815763e-01  -2.5762817e-01   6.3141116e-01   6.2217191e-01  -8.7653840e-01  -5.3897330e-01   2.3326133e-01   6.3780607e-01   8.7386454e-01   8.4168241e-01   5.6510658e-02   2.9915975e-01  -7.2919254e-01   7.1128468e-01  -7.8411813e-01  -8.6483157e-01  -9.0487369e-01  -4.0950479e-01  -4.9777605e-01  -7.9217293e-01   8.9460322e-01   2.6135215e-01   5.2945682e-01   7.8282906e-01   6.7010388e-02  -1.8371848e-01   3.7550889e-01   7.7099600e-01  -6.6483140e-01   5.8767307e-01   2.2228008e-01   6.2124589e-01   9.8955458e-01   4.0811430e-01  -4.2330221e-01   6.4268839e-01  -7.4579287e-01   7.9843034e-01  -5.5650180e-01   1.6315030e-01   2.1777290e-02   8.4462607e-01  -5.8426866e-01  -9.6567761e-01  -9.1543110e-01  -9.8299319e-01  -5.0053619e-01  -2.9506182e-01  -2.0489992e-01   3.7067219e-01   9.6666491e-01   7.7276005e-01   9.3598988e-01  -9.1500521e-01  -9.2210892e-01   4.0818527e-01   6.4174089e-01  -4.2196573e-01  -5.9115551e-01  -9.7183598e-01  -3.2654889e-01  -2.1273765e-03  -4.7375648e-01   9.7670361e-01   6.7257266e-01  -9.5256803e-01  -9.5814507e-02   5.9237643e-01   5.9608941e-01  -9.7289920e-01   5.1303325e-02  -9.5523690e-01   7.9570999e-01   5.2029831e-01  -8.3366445e-01  -4.6601385e-01  -7.7301274e-02   5.9607508e-01   8.8671561e-01  -1.6873693e-01  -5.1153350e-01   8.2047115e-03   7.9427943e-01   5.7947014e-01   4.7560911e-01  -8.2881786e-01   8.0365237e-02   3.6926796e-01  -2.1817996e-01   9.6612740e-01   9.0675974e-01   2.1645767e-02   1.4070505e-01   7.6592043e-01  -1.1737297e-01  -1.1759560e-01  -9.1221446e-01  -9.6937887e-01  -1.6970794e-01  -9.2485362e-01   2.8527007e-01  -4.3587163e-01   4.0007003e-01   3.0306900e-01  -4.7866044e-01   5.4855148e-01  -3.2048838e-02  -4.5232711e-02   7.1781716e-01  -1.7578206e-01   7.7539774e-01  -7.7699844e-01   8.7777311e-01  -3.8555679e-03  -4.1092446e-01   7.3763282e-01  -7.8357104e-01   9.7130119e-04  -9.6672970e-01  -3.7786316e-01   4.7881733e-01  -2.0854259e-01  -3.8222891e-01  -6.5171375e-02  -4.8878840e-01   7.4136822e-01  -4.0306252e-01   7.4978539e-01   6.3382253e-01  -8.1568711e-01  -5.7993325e-01  -1.1625187e-01   7.8328651e-01  -9.2152814e-01   9.1207535e-01  -8.8466654e-01   7.7036403e-01  -6.8897956e-01   4.1207937e-02   4.8986042e-01  -6.0568123e-01   3.4325724e-01  -9.7065975e-01   2.4350817e-01  -4.2954404e-01   3.5471508e-01  -4.5907461e-02   1.3160033e-01   7.7077068e-01  -5.6838624e-01  -6.5156610e-01   6.8898372e-02   5.4605362e-02  -3.9197804e-02   8.4247124e-01  -8.4636188e-01   4.6251113e-01  -1.6095982e-01  -9.5699340e-01   2.1373206e-01  -9.1180539e-02   6.2364959e-01   3.5043042e-01   7.2621168e-01   7.1689345e-01  -7.2494449e-01   3.9227910e-02   4.5109825e-01   7.9340448e-01   3.0447657e-01  -5.3995408e-02   9.8092851e-01  -1.9901401e-02   6.9368704e-01  -2.9602063e-01   6.4434508e-01  -2.9964278e-01   5.4221742e-01   8.1888197e-01  -4.9962063e-01   1.7079134e-01   6.2349729e-01   9.3472457e-01   8.0907650e-01  -3.7474761e-01   5.8884329e-02   4.0680451e-02   5.7496229e-01   6.5722887e-01  -6.4057604e-01  -9.5309743e-01   3.7556995e-01  -6.5590418e-01   7.1170503e-01   8.3189431e-01   6.9857039e-01  -8.0780528e-01   7.1256599e-01  -4.6894421e-01  -4.6421246e-02   1.9600855e-01   8.1465647e-01   9.3671306e-01  -1.9700270e-01   1.0341012e-01   2.8220622e-01   5.5677327e-01  -7.9264099e-01   2.7326780e-01   9.0835062e-01   6.9669161e-01   8.2905329e-01  -4.9224780e-01  -7.7396382e-01  -1.5448707e-02  -9.4366766e-02  -4.6494057e-01   9.1977813e-01  -4.9030375e-01   2.8456010e-01   2.6251404e-01  -4.0768860e-01   9.4196485e-01  -6.4267394e-01   9.1383607e-01  -7.3864352e-01   3.3038276e-01   8.6684974e-01  -9.0261696e-01   4.7088727e-01   1.8740856e-01   7.2852877e-01  -6.4592819e-01   1.8192245e-01   3.1540628e-01  -5.6144669e-01   9.4275605e-01  -6.6516337e-01   7.9553948e-01   1.5761084e-01   4.1140276e-01   4.9997486e-01   8.2991568e-01   9.1904961e-01   8.5040047e-02  -3.9597251e-01   7.6978233e-01   4.0926672e-01  -9.8806612e-01  -2.7621248e-01   8.7745970e-01   2.0503832e-01   5.2269859e-03  -9.2040337e-01   2.6522379e-01   6.9081988e-01   5.4601490e-01   9.0830719e-01  -3.1174789e-01   3.0060544e-01  -6.9401126e-01  -7.3741952e-01   4.3240348e-01  -6.4815206e-01  -9.1009123e-01  -3.1453161e-02   8.6185338e-01  -2.1121184e-01   1.8834954e-01  -6.4956736e-01   5.3561441e-01  -5.7077539e-01  -5.8631033e-01   2.9369913e-01  -5.3326466e-01   7.0079982e-01  -9.8981020e-01   8.8912126e-01  -6.8324581e-01   2.2216309e-01   9.6412126e-02  -6.8652473e-01   5.7565011e-01  -9.1058249e-01   7.0930815e-01  -1.0193208e-01  -5.7890186e-01   8.0380133e-01   2.2575709e-02   7.4363786e-01   1.6442646e-01  -3.2142864e-02  -4.8313400e-01  -9.2372242e-01   5.1555787e-01  -9.8493125e-01   5.8102198e-01   8.3426021e-01  -6.5384618e-02  -1.9240328e-01  -6.9333004e-01  -3.1069202e-01  -1.2605224e-01  -1.2180054e-01   1.2760255e-01  -6.4792326e-01   7.5685197e-01   1.6515018e-01   7.3406124e-02  -3.9734955e-01  -2.1098676e-01   6.6626193e-01   7.5113635e-01  -1.2216047e-01   2.1390938e-01   7.5358304e-01  -8.0076351e-02   9.0077011e-01   3.4862636e-01  -4.3250841e-01   5.4969208e-01  -6.1614376e-01  -4.6933264e-01  -6.9764279e-01   7.7920981e-01  -8.4129749e-01   4.7548633e-01  -6.9871489e-01  -8.4470326e-01  -7.1175393e-01   4.1766890e-02  -5.9464652e-01   8.4952742e-01  -9.9816913e-01  -6.7151168e-01  -4.8279768e-01   5.2052810e-01  -9.2710522e-01  -1.2136652e-01   3.9197604e-01   2.3747126e-01  -1.5253511e-02   4.2384177e-01   4.3293168e-01   7.5152635e-01   5.0630549e-01   6.6029236e-01  -2.2800182e-01   5.6263198e-01  -8.5027671e-01   9.4008158e-01   3.1355991e-01  -1.2484208e-02  -1.1471840e-02   7.5455852e-01  -9.9250699e-01   7.2588411e-01  -7.5556520e-02   8.0147943e-01   5.3298666e-01   2.9379903e-01   8.2598539e-01  -3.8111851e-01   5.5415285e-01  -1.4597921e-01  -3.5581716e-01  -4.5000708e-02   6.5659837e-01   6.1407958e-01   5.4224879e-01  -8.0816831e-01   5.3712873e-01  -6.0020379e-01   2.0835216e-01  -2.4442886e-01  -5.1543488e-01   1.5456108e-01  -8.1094594e-01   2.5281962e-01  -8.4141471e-01  -7.8709775e-01  -4.1524907e-01  -1.0408035e-01   9.5827472e-01  -4.6459829e-01   2.7457127e-01   2.2695920e-01   8.9317386e-02  -7.5074382e-02   4.4184915e-01   1.3086041e-01  -4.3075721e-01   9.6740767e-01   3.1826544e-01   2.6152180e-01  -7.0213269e-01   5.1147110e-01   2.5909727e-01   3.5626963e-01   8.5754953e-01  -6.0522050e-01   2.7938068e-01   2.7696937e-01  -2.1803734e-01   8.8701246e-01  -4.3217969e-01  -7.7826007e-02  -2.3636228e-01   3.3417108e-01   3.0404800e-01  -4.5446939e-01  -5.4825181e-01   4.6125131e-01   4.4227270e-02  -3.2620644e-01   7.7480088e-01   9.9898910e-01  -9.6836002e-01  -9.0444347e-01   5.8108470e-01  -7.3430452e-01   8.0983428e-01   7.6681984e-01   7.5638325e-01   4.0127815e-02   6.5967643e-01   6.4793894e-01  -6.5217275e-01   6.2198493e-01   7.5348726e-01  -5.8817924e-02  -9.4066207e-01   9.5494775e-01   4.4772590e-01   4.6956507e-01  -6.0739789e-01  -6.3956025e-01   9.3584556e-01   8.5642790e-02  -6.1582201e-01  -4.9176815e-01  -3.5029368e-01  -9.3631513e-01  -7.4962710e-01   2.0017448e-03  -6.7701904e-01  -3.7265770e-01   9.9266608e-01   7.0037424e-01  -6.1721775e-01   8.9623779e-01   7.3136858e-01   4.9908947e-01   2.3221797e-01   7.5937843e-01   6.0689632e-01   7.4180590e-02  -4.0546185e-01  -6.3909058e-01  -9.3231130e-01   1.3251752e-01   3.5783299e-01  -4.4199583e-02  -5.4665366e-01  -4.3265586e-01   3.4676968e-01  -8.4757547e-01  -4.9291643e-01   8.0831517e-01   6.5621920e-01  -7.7340828e-01  -2.5764489e-01   1.3023641e-01  -8.2252399e-02  -1.9233882e-01   8.9764183e-01   7.0743773e-01  -5.3836352e-01  -9.8692750e-01   9.9402111e-01   3.8912991e-01   3.9714165e-01  -4.8490020e-01   6.5745531e-01  -1.6409775e-02   1.1656162e-01  -7.8451222e-01   6.8170173e-01   8.6052082e-01   4.2025003e-01   4.5138557e-01   7.3174700e-02  -3.0591247e-03   9.1360433e-01   8.7382716e-02   6.5795562e-01  -8.4647552e-01  -6.6046390e-01  -5.1492863e-01   3.8818615e-01   6.2029356e-01   7.7432360e-01  -3.9928590e-01  -9.9215249e-01   9.5182893e-01   8.9084423e-01  -2.6163205e-02   5.5624389e-01  -8.8787399e-01   5.0343063e-01  -1.3730268e-01   7.7900623e-01  -3.5220536e-01  -4.1543557e-01   9.7051826e-01  -5.6033218e-01   1.8515442e-01   2.1966993e-01   2.8674408e-01   1.8239197e-01  -5.0638317e-01   7.9880626e-01   8.5343545e-01   3.2007501e-01   6.5679567e-01  -6.5561039e-03  -3.8907508e-01   2.4979422e-01   6.0786526e-01  -4.6009099e-02  -2.7187193e-01  -2.0219618e-01   9.6292360e-01   3.0001696e-02  -7.7425368e-01   6.7803607e-01   5.1241632e-01   5.3169164e-01  -1.9469417e-02  -5.5875590e-01   8.5770911e-01   2.7089053e-01   7.6034227e-01   1.2045309e-01  -5.7891406e-02   6.3077850e-01  -1.5340019e-01  -1.4290300e-01   6.9302920e-01  -9.3214368e-01  -1.3151018e-01  -2.4182435e-02   5.6869400e-01  -8.5920501e-01   3.3897270e-01   7.0002642e-01  -8.5771759e-01  -4.8378521e-01   8.1878903e-01
  -8.8615882e-01  -1.8397957e-01   4.4423679e-01   5.3308426e-01   7.6976890e-01   5.7090786e-01   1.4149783e-01   3.2246307e-01  -4.9238640e-01   4.0919580e-01  -3.7987362e-01   7.8800026e-01   8.7131807e-01  -2.7375144e-01  -6.1903523e-01  -2.0710973e-01   4.2007450e-01  -1.6429300e-01   3.0102363e-01  -1.4460973e-01   8.3040199e-01  -2.5040823e-01  -1.5802761e-01  -3.8285874e-01   6.4066564e-01   7.6215520e-01   1.6726150e-01   8.7738853e-01  -3.2287698e-02   9.0119298e-01   3.1660253e-01   5.6165892e-01   5.9029008e-01   1.2188132e-02   4.0736752e-01  -2.2052518e-01  -9.8489823e-02   4.1447949e-01  -8.5738644e-01  -3.7271499e-01   9.3274844e-01   3.3146090e-02   4.0036895e-01  -3.4671427e-01  -3.9788668e-01   9.5842132e-01   5.4896423e-01  -9.8138427e-01   3.9241290e-01   2.9842334e-01   2.5252049e-01   8.0007467e-01   8.9899453e-01   6.1360061e-01  -2.7700143e-01  -9.1489342e-01   6.7035560e-01   5.3502087e-01  -9.0634946e-01  -7.4402792e-01  -9.8438466e-01  -1.7390630e-02   1.6182242e-01   9.7426077e-01  -8.7575685e-01   3.0009433e-01  -5.2164979e-01  -2.5130407e-01  -8.6213081e-01  -7.1386687e-01   6.9876216e-01  -4.8060284e-02   2.4462891e-01  -9.0587678e-01   2.1676818e-01  -2.1074954e-02   9.1682577e-01   2.1627657e-01   8.9480370e-01  -3.4504802e-01   4.5845273e-01  -6.0763654e-01   5.8687084e-01   8.5434602e-01  -4.9978605e-02   1.3401852e-01  -5.3499757e-01   6.0461164e-01  -5.2701819e-01   8.1892510e-01   9.9490943e-01  -4.9619759e-01   6.2340032e-01  -9.4692421e-02   2.8353734e-01   1.3302009e-01  -2.7476890e-02  -8.3237791e-01   5.8693885e-02   1.5701506e-02   3.5743953e-01   9.7567949e-01  -4.4685540e-01   7.8812489e-01   8.5599962e-01   5.7098247e-01   3.8059412e-01  -7.5793852e-01  -6.3851355e-03  -9.8920587e-01   2.4802187e-01  -7.0476914e-01   4.2654325e-01  -4.8113610e-01  -2.7759988e-01  -2.7579699e-02  -9.7973606e-01   2.2486085e-01  -7.8118462e-01  -3.0885042e-01   3.0686436e-01   2.3860617e-01   6.1024431e-02  -9.1022006e-01   7.1318424e-01  -3.4907292e-01   4.7862062e-01   6.3047559e-01  -5.6365928e-01   2.1422676e-01   7.5058502e-01  -7.6576460e-01   2.4451209e-01   6.3050434e-01   6.9485342e-01   7.6897283e-01   9.3544988e-01   6.9525230e-01  -8.2152517e-02   3.6887437e-01   3.6174375e-01   9.6311353e-01   6.6918014e-01   9.9070503e-01   5.7884612e-01   1.4988215e-01  -7.6261716e-01   3.9923291e-01   4.5970511e-01  -5.8170747e-01  -7.8495893e-01  -1.5230684e-02  -7.8214792e-01   1.8525294e-01   4.1599769e-01   4.9459570e-01  -6.8855181e-01  -5.9040749e-01   1.7857525e-01  -1.7693367e-01   6.0398650e-01  -4.0387726e-01   6.7403347e-01   6.2893409e-01  -2.6898629e-01  -5.7487802e-01  -4.2777626e-01   6.7991109e-02  -4.6991269e-01   9.1751210e-01  -2.5438302e-01   5.0835017e-01   8.5940807e-01  -1.9875589e-02  -8.2547344e-01  -3.0353110e-01   9.9145159e-01  -8.3346145e-02   2.7811295e-01  -6.6171039e-01   1.9892080e-01  -7.9680415e-01  -2.2717081e-01  -3.4260721e-01  -4.5651589e-01   8.4262763e-01   6.2837342e-01   8.8300400e-01  -7.4747445e-01  -4.0544556e-01  -1.4485117e-01  -9.6290062e-01   1.2877376e-01   7.5279601e-01  -5.3699958e-01   9.4925101e-01   3.5037817e-01   5.3828108e-01  -5.9194818e-01   4.7397598e-01   4.1527787e-01   4.8071850e-02  -7.3418710e-01   1.0328008e-01  -1.0154419e-01  -4.6998986e-01   3.4011100e-01  -5.5689023e-01  -4.6652212e-01  -7.9580888e-01   8.4381137e-01  -7.8920495e-01  -5.0864154e-01  -4.5097327e-01   1.2928840e-01   6.1903087e-01  -1.5525140e-01  -4.2846516e-02   8.3831165e-01  -3.0645529e-01   9.2698910e-01   7.0477559e-01   7.8032636e-01   8.7043422e-01  -9.7686951e-01   4.2450666e-03   2.8521017e-01  -4.5085496e-01  -2.6476110e-01   4.8513529e-01   2.9377968e-02  -8.1425949e-01   3.4091142e-01   8.7156586e-01  -2.0530411e-01   1.0228396e-01  -5.4442380e-01  -8.6835427e-01   6.6391496e-01  -7.1432455e-01   6.9535344e-01   8.9825872e-01  -1.6275548e-01  -2.4824064e-01   2.9763282e-01  -4.5068472e-01   5.7701614e-01  -3.9659005e-01   5.5570033e-01   1.4748939e-03  -1.4332903e-01   1.8383236e-01   8.0906568e-01  -7.5082809e-01  -4.4554505e-01  -4.6006435e-01  -1.9759571e-01  -4.9660803e-01  -5.2176551e-01   2.7983252e-01  -5.2800489e-01  -8.2533709e-01   1.6049176e-01   7.8893220e-01   7.8784255e-01  -7.5384595e-01   7.7486003e-01   2.9570788e-01   3.3641332e-01   3.5445132e-01   8.0730488e-01  -3.5697234e-01   9.9313534e-01  -6.3271124e-01   3.9666153e-01   3.5584000e-01   7.1794309e-01  -4.3587098e-01   3.8615381e-02   9.9856922e-01  -5.1322844e-01   1.8439007e-01   4.2822668e-03  -2.8955022e-01   3.8049923e-01  -6.4489251e-01  -5.0245267e-01  -4.3853548e-01  -5.0517287e-01   2.5656562e-01   5.6394205e-01  -7.9907104e-03   3.7234194e-01   1.2486151e-01  -5.2390232e-01  -2.9893432e-01   4.1011830e-01  -8.0457001e-01   7.7654528e-01  -5.0499564e-01   7.3609851e-01  -3.8764129e-01  -9.3431795e-01  -3.0674795e-01  -5.2140139e-02  -6.3814109e-01   7.1154013e-01  -5.3076540e-01  -2.6391415e-01  -4.0931730e-01   6.9115108e-01  -8.3006772e-01   9.6903141e-01  -1.4089484e-01  -8.1725369e-01  -7.3452620e-01   7.2980675e-01   7.7002874e-01  -8.8916269e-01  -4.0842948e-01   7.8372532e-01   6.8505912e-01  -1.5057437e-01  -1.5519879e-01   7.1793121e-01   8.3280230e-01  -6.8243748e-01   2.2106866e-01  -8.3695556e-01  -2.1315628e-01   2.4867333e-01   1.2355830e-01   4.4965004e-01   6.0174182e-01   9.9052135e-01  -4.7696453e-02  -7.3475590e-01  -3.5938881e-01  -7.1249790e-01  -5.0384603e-01   7.6767034e-01   9.5256870e-01   6.9492704e-01   9.8291273e-01  -5.8131984e-01   5.7855338e-01  -9.5642472e-02  -5.4075569e-01   3.5771949e-01  -2.3361483e-01   7.2865383e-01  -3.6083963e-02   7.5858225e-01  -3.3195270e-01   4.7271265e-01  -5.3234914e-01   3.1641872e-01   8.8180447e-01  -3.9621412e-01  -1.6432294e-01  -9.3541239e-01   5.9445788e-01  -1.2646847e-01  -9.9553201e-01   2.5725702e-01   5.0801827e-01   6.1726255e-01  -2.5143659e-01   3.2372099e-01   3.6563140e-01  -6.4972687e-01  -2.8737547e-01  -4.6159217e-01  -7.2940500e-01   7.7784821e-01   3.3190112e-01   6.9037433e-02   1.6193833e-01   8.1234552e-01   9.7823256e-01  -4.3458873e-01   8.3356040e-01   4.8002653e-02  -4.2057719e-02  -7.4600158e-01   1.6741103e-01  -4.6782186e-02  -3.8973199e-01   3.6237246e-01  -3.3997348e-01   9.0044199e-01  -3.8273614e-01  -9.4445057e-01   1.6608272e-01  -8.7932702e-01   7.1229275e-01  -9.7655362e-01   7.3001138e-01  -4.9481560e-02   4.7437138e-01   7.7278832e-02  -5.8589062e-02   6.2860408e-01  -3.6147221e-01   4.1018508e-01  -4.2464105e-01   7.4523031e-01  -8.9242308e-01   9.4928042e-02   2.4139848e-01   8.0598523e-01   6.5773142e-01   1.7304947e-01  -2.4747386e-01  -8.0706340e-01   4.1461941e-01  -4.4260404e-01  -2.3092253e-01  -7.4156490e-01   7.1704982e-01   8.6324960e-02  -2.8903542e-01   3.4922684e-01   8.0198805e-01   8.6774648e-01   4.5993638e-01   8.4737755e-01   6.1571782e-01   8.4679666e-01  -9.9655083e-01  -7.8441385e-02   2.9511653e-01  -4.9798945e-01   6.1335642e-01  -2.0264473e-02   9.9207869e-02  -9.6145864e-01   3.6035206e-01  -9.6704526e-01   4.6091388e-01   3.3369752e-01  -2.1644188e-01   3.1537173e-01  -9.6442394e-01  -3.1874450e-01   1.7325687e-01   1.4731319e-02   3.5597564e-01   6.5204170e-03   8.4464010e-01  -3.9206514e-02   6.2859808e-01  -5.8736111e-01   6.7669212e-01  -6.3974128e-01  -3.8948312e-01   2.9955601e-01   1.2725081e-02   3.9789809e-01  -2.7812552e-01   9.0416103e-01  -1.9860687e-01  -1.5981337e-01  -5.7726120e-01   4.4168400e-01  -1.7401879e-01  -7.1826139e-01  -7.1849326e-01   9.1943357e-01  -3.4277047e-01  -8.4332559e-01  -4.5949777e-01   9.5131603e-01  -4.7640794e-01  -1.2931243e-01   5.5713790e-01   2.5638700e-01  -2.3096751e-02  -7.8107860e-01  -9.2678326e-01   3.3731753e-01  -2.0546948e-01  -7.6519890e-01   3.6966186e-01   3.9829410e-01  -1.6121631e-01   2.8728095e-01  -8.5558226e-01   4.9792051e-01  -8.1063803e-01  -3.6455185e-01  -9.1054476e-01   6.8831430e-01  -3.6469447e-01  -3.5997557e-01  -8.0575746e-01   3.5121521e-01  -2.2510498e-01   5.4750394e-01   1.9395806e-01  -1.1392259e-01  -5.8525868e-01  -1.3820542e-01  -6.5336477e-01   2.1370367e-01  -7.6294354e-01   4.4945258e-01   1.0341101e-01  -1.9652773e-01   7.2916378e-01   9.6765564e-02   2.0813850e-01  -7.4318189e-01   8.2554916e-01  -2.0899718e-01  -3.4284272e-01   3.7774664e-01  -1.5062393e-01   7.4846759e-01   4.3705735e-01   3.0852453e-01   9.2361228e-01   8.6625604e-01   5.9573410e-01   8.8079028e-01   9.5349265e-01   5.5065028e-01   4.2510963e-01  -3.2992168e-01   2.5439689e-01   7.2740053e-01   8.2568814e-01   2.7426879e-02   1.6209387e-01   6.7326100e-02  -8.4951218e-02   9.7580735e-01  -8.7211483e-03   5.2153759e-01   8.9497533e-01  -8.0620837e-01  -3.8083838e-02  -2.5741662e-01  -4.6805966e-01   1.5038490e-01   8.5369669e-01   7.9486588e-02   1.4929422e-01  -3.9166191e-01   1.9773472e-01  -5.3763910e-01   8.1052900e-01  -6.0477579e-01  -4.3703158e-01   4.1778990e-02   1.1462029e-01  -9.6971380e-01   4.2797990e-01   4.4544785e-01   2.3486856e-01   2.2452138e-01   4.0915209e-01   8.6592547e-01   7.3858881e-01  -1.9218667e-02  -2.7503819e-01  -9.7751242e-01  -8.2029495e-01  -8.0743396e-01  -6.0497889e-01  -5.9084044e-01  -1.3748683e-01  -6.3604612e-03  -7.3309027e-01   3.0702433e-01   2.2825884e-01   3.8196125e-01  -3.6606844e-01  -3.4992549e-01   8.1078426e-01   2.8137926e-01  -5.0177113e-01   8.4363623e-01   5.6609252e-01   5.2634821e-02  -7.5167859e-01   2.4836485e-01   7.4906209e-01   1.9130156e-02   5.2093760e-01   4.2523283e-01  -4.3840169e-01  -1.9606830e-01  -7.0192717e-01  -9.4507633e-01  -3.4468010e-01  -9.7761004e-01   3.4029991e-01  -5.5669584e-01   8.9224190e-01   5.7450052e-01  -1.5828371e-01  -7.9927168e-01   2.4352238e-01  -5.1937629e-01   6.1768299e-01   4.2652554e-01   4.6490067e-02   9.6097302e-01   8.2700838e-01   4.1327820e-01  -5.8149514e-01   9.1347179e-01  -6.5999272e-01  -1.6157169e-01   8.2911261e-01  -5.5149158e-01  -4.4871477e-01  -3.7386646e-01  -9.7322137e-01  -2.4710137e-01   5.2557243e-01  -7.5590106e-01   7.3182609e-01  -1.9497984e-01   8.5873260e-01   6.4861650e-01   7.1676356e-01   3.3134292e-01   6.2391679e-01   1.0156832e-01  -7.1571630e-01  -9.3189118e-01   2.0687300e-01  -5.1807917e-01  -2.9820181e-01   8.4972865e-01   7.5519704e-02   6.8136225e-01   8.4021437e-01   4.0168660e-01  -5.3376402e-01  -3.9995682e-01  -6.5503106e-01  -3.7738843e-01   6.8884845e-01   5.2024532e-01  -2.7034601e-01  -2.2197965e-01  -1.0226567e-02  -1.8867431e-01  -1.2271525e-02  -7.2939170e-01   7.4535103e-01   7.2398090e-02  -9.2459250e-01  -5.3835251e-01  -4.5307293e-01   5.6735939e-01  -2.8492385e-01   4.9830235e-01  -3.1893837e-01  -7.3014083e-01  -9.9268431e-01  -5.5092516e-01   8.3671237e-01   7.6012548e-01  -9.2712102e-02  -4.2495398e-01   1.7160388e-01   1.0196788e-01   5.0244827e-01   6.7980794e-01  -5.6244622e-01   1.8367079e-01   4.9516301e-01  -6.9042132e-01   5.2963836e-01  -5.6352524e-01   1.6307540e-01  -7.0412597e-01  -2.2267865e-01  -9.4043785e-01   1.0284728e-01  -6.5160851e-01   3.9150676e-01   8.0859666e-01   9.8809259e-01  -2.3384114e-01   7.5532689e-01   4.2553048e-01   5.5635107e-01   4.8667115e-01   5.4315270e-01   6.1967107e-01  -3.6312535e-01   8.6261914e-01   7.9771500e-02   2.2349849e-03   7.3812876e-01  -4.2474648e-01   8.5836925e-01  -5.0785709e-01  -7.7301333e-01   3.8223214e-01  -4.6364723e-01   1.9128628e-01   5.9125284e-01  -6.7031060e-01   4.3947232e-01  -2.0522383e-01  -3.5214193e-01   6.2199598e-01  -4.6368160e-01  -2.7210091e-02   5.0764904e-01   2.0085837e-01  -6.0652366e-01  -4.6586360e-01   4.9072457e-01   5.6435246e-01   8.1132885e-01   6.7226971e-01  -3.6252537e-01   6.0982150e-01   5.1071964e-01  -3.3219859e-02   3.2650235e-02   9.0318074e-01   1.8042781e-01  -1.2375657e-01  -2.4111126e-01  -4.7377373e-01   2.0416593e-01   5.7175890e-01   9.8620700e-01   6.5750898e-01   2.8502456e-01  -1.5474489e-01   1.8536335e-01   8.4934987e-01  -2.7141702e-01   6.6245968e-01  -3.4490166e-01  -4.1039655e-01  -1.4305841e-01  -5.8574726e-01  -9.0105614e-01  -5.7787864e-01  -5.7521592e-01  -5.1486754e-01   8.3110268e-02   5.6759639e-01  -9.4487491e-01   6.2368919e-01  -4.7503415e-01   9.9706923e-02   5.1027858e-01   2.7027026e-01   3.2012780e-01  -4.2447676e-01  -6.3251652e-01  -8.4789757e-01  -3.3459213e-01   1.5542609e-01   4.8287089e-01   1.3686070e-01   8.6134383e-04   8.0019139e-01   6.9569802e-01   4.3371242e-01   5.9064914e-01   8.3486759e-01   7.6971587e-01  -1.7488452e-01   6.0783746e-01   6.1729351e-01  -2.9935266e-01  -4.9648627e-01  -8.8925845e-01   4.1490706e-01   8.7744078e-01  -1.9475414e-01   8.0718885e-01  -2.1549145e-01   8.7481411e-01  -3.4653341e-01   1.2476449e-02  -2.1529522e-01  -1.7406009e-01   5.5437530e-01   1.6121963e-01   6.0794439e-01  -2.7748024e-01   7.2092376e-01  -8.6792598e-01   3.1706873e-01  -3.9501516e-01   8.2635587e-01   5.7874021e-01   9.5722951e-01   6.7486406e-01   7.0250770e-01  -9.2465981e-01   1.2615434e-01  -1.8261946e-02  -9.0157058e-01   2.0974214e-01  -5.3191970e-01  -1.7754355e-01  -3.1180939e-01   3.4333141e-01   7.6754016e-01  -9.6787773e-01  -8.3798423e-01   7.1044310e-02   1.1263368e-01  -2.8331127e-01  -6.8450544e-01   8.5678383e-01   5.5491268e-01   3.4240175e-01  -5.4942941e-01  -3.8978474e-01   9.5336373e-01  -2.5267212e-01   5.8819739e-01   4.7761666e-01  -2.8962775e-01   6.5345183e-01  -8.1572035e-02  -1.0108216e-01   4.1055990e-01   4.9826330e-03  -2.0572878e-01  -8.7943043e-01   7.1660559e-01  -5.1163809e-01  -6.9260301e-01  -9.3156948e-02  -7.2383825e-01   9.5223169e-02  -7.8654122e-03   8.9946572e-01  -7.0343322e-01  -1.1624281e-01  -7.4517131e-01   9.9549387e-01   9.0624863e-02  -3.3588110e-01   9.9566134e-01   3.3575254e-01  -3.4347918e-01  -5.4496543e-01  -9.0147490e-01  -3.8209578e-01  -1.6667526e-01  -9.5898874e-01   6.7805565e-01   2.6596941e-01  -3.8174996e-01  -5.6468631e-01   2.2750188e-01  -9.0305996e-01   2.0558922e-01  -1.4086859e-01   4.6531537e-01  -9.4875343e-04   6.2295087e-01  -4.6567216e-02  -1.8160709e-01   4.6838906e-01   1.5687345e-01   1.4093316e-01   3.6957419e-01  -6.7529074e-01   9.1559279e-01   8.3346488e-01  -3.1250370e-01  -9.3057874e-01   4.0587089e-01  -1.9574492e-01   4.5314943e-01  -1.8664876e-01  -7.1444335e-01  -4.3768483e-01   1.1743508e-01   5.3837910e-01   5.9549202e-01   8.0565785e-01   6.7167376e-02   5.5244694e-01   2.4878837e-01  -7.8473783e-01  -8.4345446e-01   6.6790102e-01  -8.2770527e-01   3.0837668e-01  -4.9326882e-01   5.9844011e-01   6.3606278e-01   9.7140422e-01   5.9626853e-01  -8.7890189e-01   2.9795676e-01  -1.4223295e-01   4.1532950e-01  -3.9249483e-01   4.5641770e-01  -8.5342585e-01   6.1653413e-01  -7.3090303e-01  -2.4842528e-02  -1.8024613e-01   7.4366752e-01  -4.2556991e-01  -2.3916329e-01   6.8244828e-01  -3.3430441e-01   4.5554602e-01   8.0026834e-01  -3.5732666e-01  -7.1650820e-01   2.6730929e-01  -7.7730771e-01  -9.6464701e-01  -3.1831262e-01  -4.5018460e-01  -5.6962405e-01  -1.4327204e-01   3.1828212e-02  -3.8108704e-01  -9.5450752e-01   6.2218744e-01   2.0863998e-01  -5.0657704e-01   2.6034361e-01   1.0284483e-01  -6.3576059e-01   5.2842933e-01   1.3078970e-02   7.2761473e-01   5.6619044e-01   2.4327537e-01   9.3111224e-01  -8.6579104e-01   5.5495265e-01   9.8306264e-01   7.7967481e-01  -5.3775631e-01   6.9441501e-01  -5.6313248e-01  -4.5347347e-01   4.4125990e-01   1.7523323e-01  -2.8434966e-01  -8.9350400e-01  -1.1613898e-02  -8.6466827e-01   3.6741002e-01  -8.7820713e-01   7.3986880e-01   3.8092042e-01   8.3633614e-01  -5.0244737e-01  -6.4299231e-01   1.4412542e-01  -5.0920729e-01  -9.5105838e-01   6.8834474e-01  -6.5468029e-01  -2.6991244e-02  -9.5982397e-01  -3.6643506e-01   6.1647750e-01  -6.9465956e-01  -9.6345538e-01   9.3277858e-01  -4.5277253e-01   7.6481860e-01  -1.4234958e-03  -3.2568034e-01   9.5508902e-01   4.9889961e-01   2.1644345e-02   7.7512302e-01  -2.7996194e-01  -3.4141139e-01   2.0756536e-01  -4.7378045e-01   3.0272934e-01  -8.5980712e-01   1.0986918e-01  -6.4915664e-01  -1.5698577e-01   2.8754104e-01  -5.4609631e-01  -5.0244504e-01  -8.6725724e-01  -3.5430299e-01
