   2.2247572e-02  -3.7668515e-01   9.1457334e-02  -3.4503209e-01   2.4570989e-01  -5.0597978e-02  -6.2690017e-01   3.1620624e-01  -2.2290925e-01  -4.4763338e-01   8.2075766e-01  -5.5863536e-01   5.9232959e-01   1.5100204e-01   9.7738517e-01  -4.3622073e-02   3.6830978e-02   5.3881247e-01  -7.7246171e-01   2.9690487e-01  -2.8426278e-01  -4.3835443e-01   2.9458531e-01   7.3407664e-01   5.5677726e-01   9.3462260e-01   8.6731396e-01   1.9224719e-01  -9.4484817e-01   7.3316622e-01  -8.9236830e-01  -3.9608432e-01   1.9335640e-01  -2.1844272e-01  -5.5695653e-01  -2.8141885e-01  -7.1178724e-01   4.3317714e-01  -9.3816604e-01  -4.8840376e-01   8.6636500e-01  -8.1110872e-01   2.1106219e-01   9.4533963e-01   7.3859745e-01   8.9507773e-02   3.3244185e-01   2.6801530e-01  -1.3153795e-01  -5.7752330e-01   8.4232529e-01   5.9735704e-01   6.5181568e-01   5.0499936e-01  -5.8474188e-01  -6.0104343e-01  -3.1390294e-01  -3.5276956e-01  -2.4243827e-01   4.0772030e-02  -4.8273180e-01   2.6325160e-01   8.9139885e-01   5.1687875e-01  -5.0751173e-01   1.4598558e-01  -6.8347080e-01  -4.7527400e-01  -6.8849281e-02  -4.3623096e-01   9.9184587e-01   3.7584636e-01   4.1174279e-01  -8.0841253e-01   5.5783724e-02  -6.7624652e-01   9.6135789e-01  -6.9876005e-01  -3.2724446e-01   3.8819151e-01   3.2431319e-01  -1.0400451e-01   8.3488079e-01   5.2272177e-01   4.8369472e-01   7.8691756e-01  -5.1079488e-01   4.9651783e-01  -7.6291460e-01  -8.2183869e-01  -9.6860864e-01  -3.8120250e-01   6.1529435e-01   5.3538984e-01   7.0534852e-01  -4.2687768e-01  -3.6588307e-01   7.6395672e-01  -8.3096245e-01   7.0495959e-01   2.9124018e-01  -7.6997710e-01  -2.7836406e-01   3.1954421e-01   9.7019747e-01  -9.6107413e-02  -2.2883171e-02  -1.8239823e-01   8.1402018e-01   5.0477832e-01   7.2456450e-01  -1.1784628e-01  -9.5202293e-01   4.4847611e-01  -9.0906658e-01   8.2051628e-01  -9.0642565e-01   6.3025696e-01   9.8551209e-02   4.9264977e-01  -4.6990241e-01  -8.6497630e-01  -4.3029284e-01   3.5586428e-01  -7.0461125e-02   9.5899111e-01   8.9987636e-01  -2.3055199e-02   4.1334709e-01  -1.2681010e-01  -9.2769346e-01   6.8595259e-01   9.4457206e-01   3.3747671e-01   2.1570566e-02   2.2421661e-01   4.0290475e-01  -7.4412708e-01   6.5258308e-01   3.7968525e-01   3.8227027e-01  -6.7598079e-01   4.3826428e-01   5.1135516e-01  -9.0581426e-01  -8.1401778e-01  -7.7100136e-01  -7.3920561e-01  -3.1474586e-02  -7.7579215e-01  -7.4650622e-01  -3.6523972e-02   8.7283700e-01   9.3892575e-01   2.8859624e-01   2.8632034e-01  -3.6634245e-01   9.3642249e-01   8.1866461e-01  -8.5479259e-01   4.8997773e-01  -2.7466300e-01  -4.5845958e-01  -1.4392166e-01   6.5759081e-02  -6.8042172e-01  -1.5123688e-02   8.8126279e-01   1.0653692e-01   8.7713355e-01   1.5088152e-01  -8.5351152e-01   1.2804591e-02   5.8335119e-01   1.1158235e-01  -8.5794232e-01  -7.0359157e-01  -4.3787744e-01   3.7060810e-01  -1.5242944e-01  -9.9590683e-01   1.4810191e-01  -1.4893248e-01  -8.7319536e-01   5.8270266e-02   7.2470141e-01  -1.7721996e-01   7.8185263e-01   1.5559402e-01   5.2204139e-01  -5.6870652e-03  -1.0016983e-01   8.7478963e-01   8.2644229e-01  -2.3229534e-01   4.1935494e-01   2.6662792e-01   3.9164571e-01   2.1230009e-01  -3.0723489e-01   1.6415169e-01   7.2388962e-01   6.6664868e-01   3.5415680e-01  -8.8087689e-01  -3.1431959e-01  -8.4939816e-01  -3.1102773e-01   1.9629627e-01   7.8704038e-01   5.2950717e-01  -8.6676860e-01  -7.9872965e-01   4.1965190e-01   1.3582692e-01  -1.3081513e-02  -9.8136403e-02   7.5880876e-01   6.8605070e-01   9.5850672e-01   5.4005627e-01  -5.5445300e-01   4.0543976e-01   9.7083142e-01  -4.5727477e-02  -2.8974517e-01   5.7944881e-01   2.3601427e-01   8.7553158e-01  -7.2746210e-01   2.7055325e-01  -7.3767508e-01   6.5798415e-01  -5.0281946e-01   8.5486778e-01  -3.8407820e-01  -3.5307237e-01   5.1290920e-01  -9.4080038e-01   6.0140769e-02   3.8699959e-01   9.1644461e-01   7.2420352e-01   2.1676006e-01  -7.1018382e-01  -8.9701252e-01   6.0502989e-01   6.2510633e-01  -2.0424251e-01  -2.7086701e-01  -7.8409551e-01  -2.7393905e-01   4.6944586e-01  -3.9640130e-01  -6.8174422e-01   5.2894640e-01  -9.9413357e-01  -8.0939937e-01   1.2801058e-01  -9.1552483e-01  -8.2980844e-02  -1.0873433e-01   2.5131343e-01   1.9690559e-01  -8.6940237e-02  -2.4113260e-01   5.6421482e-01   8.5091382e-01   8.6552588e-01  -6.1077440e-01   4.6482512e-01  -2.1320363e-01   1.2970014e-01   9.0505127e-01  -3.4089916e-01   7.6218371e-01  -4.1566758e-01  -9.6790915e-01   2.6968308e-01  -8.7230748e-01  -2.4189687e-01  -7.1600241e-01  -9.2537939e-01   5.3782262e-01   4.3139286e-01   6.8357573e-01  -4.8240320e-01  -7.1117076e-01  -6.7024647e-01   5.9564251e-01   6.2783133e-01   5.2698180e-01   1.6426173e-01  -5.0408835e-01   4.3576214e-01   4.3032394e-01   6.6039810e-01   2.3903999e-01   3.1448687e-01   7.7263389e-01   9.3759641e-01  -5.9977630e-01   8.5539850e-01  -8.7512486e-01  -8.2830146e-01  -9.2258380e-01   7.6273837e-01   4.5571999e-01   3.3364357e-02   9.7084853e-01  -5.1610316e-03  -6.7598844e-01  -4.2651283e-01   8.9000720e-01  -1.0243106e-01   9.3108806e-01  -8.4300277e-01   2.3175408e-01  -6.1914697e-01   9.9825653e-02  -7.2940295e-01  -9.3043180e-01   5.1907730e-01   7.4200225e-01  -1.8958297e-01   3.1221050e-01  -1.7452201e-01  -4.5911455e-01   3.7978260e-02  -2.0661446e-01   4.5780752e-01   6.9994459e-01   7.6061182e-01  -7.6365971e-01  -2.5615914e-01   6.9427898e-01   2.1709637e-01   2.0341553e-01   8.7076867e-01   7.5595109e-01  -2.6500518e-02  -3.2536889e-01  -6.0786714e-01  -1.6901547e-01  -9.8554418e-01   6.0429693e-01  -3.0847402e-01  -3.0764251e-01  -4.9863810e-01  -3.9320292e-01  -9.0243542e-01   8.4646799e-01  -2.6403648e-01   1.0363516e-01   8.8192529e-01   4.9921570e-01   9.9832343e-01   3.2102163e-01   6.1338396e-01  -8.3368390e-01   9.4800194e-01  -3.3815370e-02  -1.0102374e-01   8.0304575e-01   5.5907409e-02  -9.8892185e-01  -3.4985786e-01   7.0302900e-01  -3.3930443e-02   6.4122636e-01   1.4063935e-01  -9.2487582e-01   5.8373279e-01  -4.2115120e-01   7.8073674e-02  -9.1043557e-01   4.7901458e-03  -9.1634642e-01  -4.6454598e-01   9.0586041e-01  -2.6628208e-01   3.5689021e-01   7.5704615e-01   2.8423142e-02  -7.3935893e-01   1.5394597e-01  -5.7754367e-02  -6.1934570e-01  -9.3152188e-01   6.6679656e-01  -4.1854714e-01   3.4445722e-01  -7.3943035e-01  -2.4474495e-01  -9.9397788e-01  -9.8906730e-01   8.6330315e-01   6.9852662e-01  -4.8910476e-01   4.1346835e-01   3.7583161e-01  -5.3149914e-01   6.1647637e-01   2.7662639e-01   3.1813064e-01  -9.8230793e-01   1.8553373e-01  -9.7226938e-01  -9.9092360e-01  -9.0068945e-01   8.5052737e-01   6.2879087e-01   4.2730246e-02  -1.2026373e-01  -3.6394155e-01  -9.0658067e-01   2.0160407e-01   2.4676074e-01   7.0545687e-01   9.5149332e-01  -4.8870689e-01   5.1661547e-01   3.6438014e-01  -2.4802108e-01   4.4458942e-01  -5.3906268e-01   8.3434544e-01   3.1780603e-01  -3.5192219e-01   3.1346448e-01  -4.7995356e-01   5.7425399e-01  -4.4912538e-01  -1.2791534e-01   5.1402371e-01   8.2894694e-01  -5.1267263e-01   9.4866135e-01  -8.4842310e-02   3.3546849e-01   8.6542876e-01  -5.6557733e-01  -4.1306044e-01  -8.5854970e-01   5.3378583e-01   9.7418440e-01   7.9476923e-01   5.5166163e-02   8.6135758e-01   4.9117290e-01  -7.1476509e-02   2.6734998e-01  -7.9552632e-01  -1.7935082e-01  -5.6135357e-01  -8.5796923e-01   1.9599900e-01  -6.3825240e-02  -2.3286668e-01  -6.3256739e-01   1.7298493e-01  -4.0144631e-02  -3.5159251e-01  -6.0363720e-01  -7.0763859e-02   3.2610458e-01  -7.0320476e-01   9.1061233e-01   8.9172774e-02   2.0607188e-01   8.2829048e-01   6.6114792e-01   6.7780692e-01   7.9740836e-01  -2.9140355e-01  -3.0737074e-01  -7.2395145e-01   5.8743321e-01  -5.5784728e-01   2.6718507e-01  -7.1315820e-01  -7.7350312e-01   1.3883648e-01   6.7179415e-01  -6.9226934e-01   1.1809816e-01   5.3008241e-01   7.7852023e-01   1.2872655e-01  -6.9141271e-01  -7.5958165e-01  -4.7915425e-01   8.0231759e-01   7.5682913e-01  -8.1673099e-01  -2.5951221e-01   7.2542573e-01  -2.0097224e-01   9.3662157e-01  -7.8708019e-01   9.7876473e-01  -9.9417524e-01   5.5535418e-02  -3.0989598e-01   8.2027873e-01   8.7683930e-01  -3.5937429e-01   3.9197773e-02   7.6134272e-01   1.0203968e-01   5.1830762e-02  -4.7376198e-02  -7.0688443e-01  -6.7077880e-01  -6.8705216e-01   1.2803913e-02  -7.5106296e-01  -8.6080078e-01  -1.4141972e-01  -3.2256193e-01   6.4200489e-01  -9.3979707e-01   3.4173608e-01   3.6500734e-01   6.1809154e-01   1.7816264e-01   6.0316314e-01  -6.7197677e-01  -9.1655560e-01  -5.1307076e-01   7.1064070e-01  -1.9169254e-01   1.2585279e-01  -6.8544897e-02   1.6764847e-01   8.5368275e-01  -7.7540251e-01   2.1133525e-01  -6.9906427e-01   1.9671019e-01  -4.4022857e-01   9.8526440e-01  -7.4491518e-01   5.8189990e-01  -2.5188218e-01   7.2404884e-01  -8.0157084e-01  -1.9992090e-01   2.7682764e-01  -9.4539519e-01  -6.6404216e-01   6.2444538e-01  -4.5161834e-01   9.9480747e-01  -1.5517329e-01  -5.5517524e-02  -3.3145067e-01   3.7050131e-01  -2.7611586e-01   4.3090241e-01  -5.2049299e-01   5.5901524e-01   3.9517910e-01   7.0476788e-01   1.4988025e-02   4.1063798e-01   7.2386509e-01   2.7764110e-01  -8.1572935e-01   5.8046158e-01   8.5589798e-01  -6.2684999e-01   5.3889940e-01  -1.9467769e-01   4.4112404e-01   2.9169127e-01  -7.6291741e-01  -2.3985900e-01   4.3001765e-01   2.7959520e-01   3.8011744e-01  -4.7284022e-01   8.9517290e-01  -8.3533731e-01  -7.8294480e-01  -9.9920198e-01   5.4013457e-01   4.9518805e-01   2.3378553e-01   7.6132511e-01  -7.8205399e-03  -1.8469056e-01  -9.3075006e-03   1.6733568e-01  -7.2247522e-01   2.1356825e-01   3.7781338e-01   4.5330813e-01  -2.4519018e-02  -2.0912857e-01   3.0640521e-01  -4.6330092e-01  -2.9578872e-01  -8.3275750e-01   6.9014151e-02  -3.2843443e-01   5.0683574e-01  -2.8137627e-04  -5.1249226e-01  -5.9802274e-01  -6.0976380e-01   6.3711517e-01   3.0186857e-01  -9.3328674e-01   3.2502957e-01   1.1235537e-01  -1.8085798e-01  -2.0663270e-01  -2.0232534e-01  -9.0740700e-02   3.1457107e-01  -3.9890135e-02  -3.3708637e-01  -5.5938489e-01  -5.2699160e-01  -3.6109525e-01   8.2221668e-01  -2.2387942e-01  -9.8458487e-01  -8.6756334e-02   5.2888974e-01  -2.3562350e-01   7.7582339e-01   6.9333402e-01   9.8958240e-01  -6.5173585e-01   5.2176917e-01  -2.8897492e-01  -7.1932253e-01  -7.0431594e-01  -4.0198356e-01  -4.2895047e-01   7.3348688e-01  -7.3061799e-01   3.0006514e-01  -6.8389962e-01  -3.3430055e-01   5.0549771e-01   6.3083236e-01   5.0711114e-01   5.4327681e-01   8.1337083e-02   2.8623244e-01   5.8147175e-01   2.9491651e-01  -5.3118800e-01  -2.2396874e-01   6.2076405e-01   3.3604278e-01  -4.5720470e-01  -7.3622367e-01  -1.8363957e-01  -2.8741647e-01  -7.4267771e-01  -5.0722443e-02   3.0079188e-01   4.4751944e-01   9.7571113e-01  -4.6798542e-01  -9.5199510e-01   5.9146520e-01  -9.2603040e-02  -3.3503680e-01   5.1024497e-01   3.7808117e-01  -1.2685528e-01   1.7622130e-01   3.9885643e-01   4.8791671e-01  -5.2120234e-01   1.6894189e-01   1.2893705e-01  -1.5567724e-01  -9.0242780e-01  -4.3502776e-01   4.2692805e-01  -3.0541765e-01  -2.1197259e-01   3.3184416e-01  -2.2828595e-01   5.2320707e-01  -8.0002294e-01   5.4416345e-01  -8.2184234e-01   1.4837890e-01  -3.0975296e-01  -2.2087043e-01   7.6134598e-01  -8.1569058e-01   8.5982097e-01  -9.6156900e-01   7.1052035e-01  -9.7943786e-01  -9.7842829e-01   8.1758568e-01  -9.3543324e-01  -8.5300088e-01   9.7554450e-01   9.5634760e-01  -8.8443706e-01   8.2576598e-01   2.2720289e-01  -4.2038718e-01   4.5998597e-01   2.2638546e-01   5.5427481e-01  -7.6321462e-01  -9.7596968e-01  -4.6046858e-01   4.7269130e-01   3.8389716e-01   4.1001600e-01   2.4725204e-01  -8.3429566e-02  -2.0268148e-01  -9.4984597e-01  -3.5601529e-01  -3.2285884e-01  -9.9195140e-01  -5.7995132e-01  -2.4040695e-01   7.3663413e-01  -8.1259643e-01   9.1629192e-01   9.4943780e-01   8.8656474e-01   2.5631787e-01   2.1345598e-01  -2.3297378e-01  -6.9888893e-01  -7.0054757e-01   3.0133107e-01   9.1969659e-01   3.8311985e-01   9.1245714e-02  -2.6825776e-01  -1.6741508e-01   2.1909917e-01  -8.9574506e-01   4.5825294e-02   1.9774317e-01  -3.9410394e-01   7.0518410e-01   8.2184541e-01  -6.7789556e-01  -1.2068443e-01  -5.7337978e-02   4.1535848e-01  -6.4223435e-01   9.9792893e-01  -4.8823681e-01  -8.7847765e-01   8.5847907e-02  -8.1129150e-01  -2.1745323e-01  -5.3174281e-01  -3.0976800e-02   4.5362732e-01  -7.6683044e-01   8.2385509e-01   7.7710213e-01  -7.6604552e-01   6.5998233e-01  -5.2872043e-01   6.4408159e-01   6.0160238e-02  -3.4623995e-01  -6.3004761e-01  -8.4442182e-01   9.2473025e-01   2.4335357e-01   1.6906625e-01  -5.2032178e-01   3.7458326e-01   5.3403298e-01  -5.7461007e-01   5.1725515e-01   6.5322835e-01   1.5520292e-01   5.4716411e-01   5.4483854e-01   6.9588197e-01   2.9167116e-01   1.9736757e-01   4.3277583e-01   7.4140677e-01   9.9066416e-01  -5.7369574e-01  -3.4911305e-01   6.0500707e-01   3.1226714e-01   9.6628792e-01  -5.8875129e-01  -1.7006898e-01   4.2013224e-02   6.8645977e-01   7.4973349e-01  -6.9518686e-01  -7.7438409e-01  -2.7197143e-01   9.5889112e-01  -1.1819243e-01   3.8657396e-01  -8.3161723e-02  -6.4304102e-01  -6.6319976e-01   3.9594060e-01   3.2152673e-01  -4.8454040e-01  -4.9381288e-01  -3.3696309e-01   7.6881235e-01   2.4867605e-01  -1.1949335e-01   8.5490743e-01  -6.0814484e-02   3.1185672e-01  -3.6235888e-01   1.1755135e-01   8.4868664e-01   5.4396973e-01   3.3462460e-01  -1.2909878e-01  -8.3432816e-01   3.4649118e-01  -9.9623396e-01   8.1413388e-01   5.1070772e-01   7.3094709e-01   1.9753683e-01   1.1386921e-01   4.1530478e-01   7.1062920e-01  -7.7376341e-01  -4.2163278e-01   3.3653383e-01   9.2365674e-01  -8.6282759e-01   2.3363300e-01   8.0029710e-01  -5.0091611e-01  -6.8294352e-01  -5.3504014e-01   8.1358083e-01   2.4289573e-01  -7.7718589e-01   1.6195599e-01   5.7184382e-01  -4.3438339e-01   6.0113040e-01  -9.4897106e-01  -9.8581184e-01  -5.5722600e-02  -7.7427849e-01   4.0247950e-01  -9.8325404e-02  -8.0145023e-01   5.2975004e-01   1.7296268e-01  -6.0284507e-01  -6.1140867e-01  -8.9152560e-01  -8.5897330e-01   9.5637940e-01   2.7508638e-01  -3.2473527e-01  -6.4485625e-01   7.4257541e-01   8.6264712e-01   8.2397044e-01   9.7656753e-02   8.8938887e-01  -4.7196908e-01  -9.7324464e-02   8.4677904e-01  -7.9432426e-01  -9.4459336e-01  -4.2445586e-01  -8.4193859e-01   8.1067187e-01   9.7083176e-01   4.4300798e-01   9.7368690e-01   8.1714870e-01   5.6612210e-01   3.8475690e-01   1.9486776e-02  -3.5117831e-01   2.9878863e-01  -6.4047683e-01   7.8254833e-01  -6.5496386e-01  -5.9421137e-01  -2.1813238e-01  -7.1626969e-01  -4.4418457e-01   6.0879002e-01   8.2968325e-01   9.5578165e-01   2.9612136e-01  -4.4633169e-02  -3.0522793e-01  -8.7398828e-01  -2.9067338e-01  -1.1852737e-01  -5.3339154e-01  -5.4282242e-01  -1.4165921e-01  -6.7752285e-02   8.1809247e-01   5.5494169e-01  -4.9302905e-01   1.4529439e-01   3.7615003e-01  -1.2171922e-01   5.8850539e-01  -8.4597483e-01   9.3676462e-01  -8.0000358e-02  -5.0671311e-01  -1.6014605e-01   9.5258282e-01   9.7135699e-01   4.1216346e-01  -9.5329996e-03   6.5897654e-01  -9.4510986e-01  -5.8711301e-01   4.8478890e-01  -2.0658133e-02   8.0947955e-01   5.3771506e-01   1.0776969e-01   3.9663507e-01   1.4995228e-01  -3.2018209e-01  -4.4739609e-01   9.9354295e-01  -3.2374676e-01   9.0100143e-03  -2.1104937e-01   4.6670983e-01  -3.9062331e-01   2.8190420e-01   8.7922913e-01   2.1992460e-02  -4.4904378e-01   9.4434935e-01   6.0688214e-01   6.3349948e-01   7.1324742e-03   4.8596771e-01   5.9477292e-03   8.3313615e-01   5.3628900e-01   1.4338995e-01  -1.8447939e-01   4.3607069e-01  -7.4729627e-01  -5.1654735e-01   4.2505011e-01  -1.2343727e-01   4.0213000e-01   6.3111816e-01  -5.6066787e-01  -5.5995331e-01   4.4362488e-01   7.8728092e-02  -5.8166299e-01  -7.7645795e-01  -6.7847165e-01   6.2640469e-01   8.6575115e-01   3.6578979e-02  -7.7884960e-01  -2.4868943e-01   2.8483528e-01   5.1775928e-01   7.7732682e-01  -5.2962325e-01   3.1862064e-01   8.3241471e-01  -2.3096593e-02   4.1560512e-01  -9.3433185e-02   1.9017105e-01   7.3301422e-01   6.1431905e-01  -7.5712540e-01   7.4829786e-01
