   2.5062369e-01   4.1776268e-01  -9.5430417e-01  -9.1689194e-01  -6.7321226e-01  -8.0671500e-01  -6.2100979e-01   5.2695866e-01   6.5064874e-01  -8.3177314e-01  -5.8972834e-02   5.0795922e-01   2.1219651e-01  -1.8255925e-01   1.3090238e-03  -3.1114716e-01   7.8274260e-01  -3.9024457e-01  -2.0186154e-01  -1.5362218e-01   8.7742906e-01  -8.5847546e-01   2.6831105e-01   6.4956005e-01   5.9244917e-01  -3.9674862e-02   1.3005245e-03   8.1123208e-01   8.0307156e-01   6.6298221e-01   6.3184569e-01   7.2043299e-02  -8.8943886e-01  -4.9890777e-01   9.8993959e-01   8.9029118e-01   6.3372747e-01   5.8099864e-02   9.5178469e-01   5.0201142e-02  -6.2564898e-01   8.6422869e-01   2.5541794e-01   9.2400392e-01   5.7831540e-01  -3.7499261e-01  -2.9214654e-01  -9.0549961e-01   6.3373931e-01  -3.1487584e-02  -2.3861630e-01   6.7914149e-01  -1.7617749e-01  -9.0141553e-01   6.4699424e-01  -9.7632049e-01  -2.0881183e-01   4.3848461e-01  -7.8044028e-01  -5.9220065e-01  -1.9682581e-01  -3.0880057e-01  -4.7889351e-01  -3.3351112e-01  -8.1906016e-02   7.0595789e-01   8.4221947e-01   9.3069497e-01  -6.3195292e-01   3.3108269e-01  -5.2915238e-01   3.1489103e-01  -2.9985353e-01   3.4963384e-01  -9.8227655e-01  -1.7339748e-01   9.5635322e-01   7.8494504e-01  -5.7758512e-01   1.3294068e-01   4.1383873e-01   6.0895937e-02   2.8166505e-01   4.5723708e-01   8.1860672e-01  -8.9160331e-01  -2.7122980e-01   9.9837637e-01  -3.8551183e-01   6.8938974e-02   1.6355769e-01   1.9953432e-01   8.8364714e-01  -6.2543491e-01   2.1511802e-01   9.7748987e-01   5.0519918e-01  -3.8523732e-01  -8.0541827e-01   9.9413221e-01  -1.1888961e-02  -3.8447144e-01  -1.0851264e-01  -6.0790684e-02   7.8802401e-01  -5.9065150e-01   9.6699093e-01  -3.0026784e-01   3.5276813e-01  -5.3924512e-01  -5.0941860e-01   1.9785913e-01  -8.0439370e-01  -6.4171898e-01  -1.2300006e-01  -9.2070336e-01   3.4940213e-01  -8.9330986e-01  -8.3340428e-01  -9.9305479e-01  -9.2319295e-01  -8.1681902e-01  -9.9599041e-01  -8.7364579e-01  -1.1302161e-01  -4.1416719e-01   5.1879852e-01   1.1729430e-01   7.4324461e-01  -9.2233128e-01  -5.6831275e-01   6.0616557e-01  -8.8576594e-01   8.8832872e-01   7.5764980e-01  -5.0893203e-02  -4.8930599e-01   9.9786076e-02   1.0581540e-01   6.7525806e-01   9.3884190e-01  -4.9762925e-01   5.9963850e-01   6.8098294e-01  -3.2070365e-01  -5.5853425e-01   7.8002438e-02   8.5649928e-01  -5.8835560e-01   1.7259678e-01   9.0376594e-01  -7.7170857e-01   2.5239791e-01  -7.9537462e-01  -3.6875074e-01   3.4976805e-01  -2.0797175e-01   5.9782974e-02   8.1689795e-02   4.9207801e-01  -1.7391232e-01   5.9692164e-01   9.8578401e-01  -8.0622031e-01   4.8945284e-01  -3.0335681e-01   5.5466407e-01   2.3229978e-01   9.0476719e-02   1.8147947e-01   6.8009104e-01   9.3734091e-01   5.8663080e-01  -4.5740685e-01   4.6352468e-01   3.2129903e-01   3.0582092e-01   9.5246963e-01  -1.4572674e-01   2.1104508e-01   7.8002484e-01  -3.5886220e-01  -8.0930647e-01  -7.8168464e-01  -6.6469283e-01   3.5783547e-01  -5.1292884e-02   6.7529286e-01  -7.8477680e-01  -2.1820462e-01  -4.4646945e-01  -3.3189517e-01   4.3879944e-02  -8.0438795e-02   9.6494504e-01   4.3952523e-01  -9.5990561e-01  -4.7467916e-01  -4.7702711e-01  -4.7501775e-01   1.9601642e-01  -5.7822951e-01  -7.6425938e-01  -3.7706994e-01   3.8191538e-01  -9.8784274e-02  -7.6634948e-01  -9.5725751e-01  -9.5690083e-01  -7.4319196e-01  -5.6836132e-01  -3.6595533e-01   6.4466370e-01  -5.4335094e-01  -5.1529604e-02  -6.5768922e-01  -9.8447522e-01   6.9172872e-01   3.6320960e-01   4.1930280e-01  -6.0202160e-01  -2.5067573e-01  -2.8888117e-01   1.3955947e-01  -5.1250355e-01   5.5510860e-01   9.9343830e-01   2.6667044e-01   4.8140342e-02  -1.3301064e-02  -5.8583487e-01   9.9142027e-01  -3.0836009e-01   6.4997034e-01   2.4421756e-01  -7.8754392e-01  -5.9484566e-01  -5.9489614e-01   6.0916284e-01  -4.6789975e-01  -8.4526671e-01  -6.4018500e-01  -4.4210729e-01  -4.7304398e-01   1.4446219e-01  -8.2529955e-01   9.0490741e-01  -1.4444046e-01  -8.1540983e-01   1.7540281e-01   5.3802960e-01   1.4723327e-01  -7.6152966e-01   9.1909757e-01  -2.8923382e-04  -5.7047996e-02  -5.1875802e-01   6.2601269e-04  -2.6617151e-01   7.9191326e-01   4.1656176e-01   2.2253513e-01  -1.1212491e-01  -4.7045097e-02  -5.9233975e-02  -5.0651908e-01   6.4944121e-01  -3.7771202e-01  -2.7769028e-01   5.9242105e-01   1.6142869e-01   3.4478527e-01   9.6876749e-01  -1.5253152e-02   9.3503744e-01  -4.6898842e-01   4.5247918e-01  -1.3866166e-01   4.2061496e-01  -1.8106615e-01  -4.1768944e-02   8.0095241e-01   6.8967240e-01  -5.9592130e-01   1.2138262e-01  -7.7589415e-01  -3.1650562e-01  -3.6015829e-01   4.1129054e-01   9.0895925e-01  -7.8201472e-01  -7.0314122e-01   6.3716728e-01   8.6308078e-01   8.7067772e-01   4.1797720e-01   4.4177221e-01  -5.7960451e-01  -4.6584897e-01   5.2130616e-01   7.4924741e-01  -4.9451069e-01  -4.4914868e-01   7.9896036e-01   8.3927210e-01   9.4146768e-01   6.4538251e-01  -7.8028449e-02   4.6498387e-01  -2.8865426e-01  -4.1128526e-01   9.2214346e-01   9.7592880e-01   1.1605125e-01   6.8471434e-01  -5.4359296e-01   7.6221974e-01   4.7190205e-01   5.3501994e-01  -3.8678456e-01  -4.4237469e-01  -5.7137398e-02   6.3699828e-01  -7.1823540e-01  -4.2674128e-02  -9.3977547e-01  -6.8974010e-01   6.5321622e-01   4.4808804e-01   7.1904855e-01  -1.9509958e-01   4.9929826e-01  -6.3415055e-01  -8.3967948e-01   1.5644935e-01   1.6996993e-01   3.8433392e-01   4.1850965e-01   7.5830086e-01   5.6550645e-01  -9.9854846e-01  -5.4593122e-01   3.7331570e-01   1.7888273e-01   9.5373465e-01  -1.4690986e-01   1.4342267e-01  -7.9502794e-01  -1.8478291e-01   1.8016321e-01  -6.5365519e-01  -3.5037393e-01   5.2492146e-02   7.7485910e-01  -4.5917160e-01  -2.3401648e-01   8.9803787e-01   4.9577438e-01   4.0070539e-01  -9.1848576e-01   6.5057898e-01  -6.4709542e-01   8.9456899e-01   1.3632976e-01   9.4230062e-01  -4.7327177e-01   9.5549934e-01  -6.4031243e-01  -2.3500857e-01   9.5280563e-01  -3.6995208e-01   1.1015705e-01  -3.1092793e-01  -2.2935897e-01   7.1207755e-02  -3.0453191e-01  -8.9639612e-01   9.3239550e-02   8.1678708e-01  -4.5368691e-01   4.4764260e-01   9.9660287e-02  -6.4873962e-01   5.3971867e-01   4.6272220e-01  -1.0850694e-01   2.7968928e-01  -2.1259734e-01  -2.8687434e-01  -9.8743508e-01   3.2085420e-01  -3.8658711e-01   8.6800970e-01  -2.4488875e-01   7.9397246e-01   1.4862286e-03   2.3288826e-01   7.3300974e-01  -2.3073850e-01   8.8086417e-01  -7.8168766e-01   8.5965116e-02  -7.6477433e-01  -6.0033126e-01  -3.0698124e-01  -6.9720192e-01   6.0513327e-01  -8.6041691e-01  -9.7513252e-01  -1.9994312e-01   6.6469942e-01   2.1936120e-01   6.8239145e-01   5.9385530e-01  -4.2418845e-01   7.0527287e-01   5.6128818e-02   5.0789961e-01  -5.6202248e-01  -7.1416899e-01   6.8734360e-01   9.8599883e-01  -1.2254622e-01   7.9061620e-01  -8.7597714e-01  -4.9394519e-01   6.4196191e-01  -7.1222426e-01  -2.3179670e-01   4.8069599e-01   1.4003336e-01  -2.3365355e-01   9.8917713e-01   1.6082837e-01  -6.1610302e-02  -8.1388315e-02  -1.8926461e-01  -2.5684044e-02  -3.1479588e-01  -7.0649219e-01   7.6171573e-01  -4.4581600e-01   8.8358272e-02  -8.7826346e-01   1.2013577e-02   9.4167052e-03   4.7668531e-01  -3.4004238e-01   4.8782826e-01   8.5416694e-02   5.0437594e-01  -2.9417293e-01   7.2092292e-02  -1.5825755e-01   2.3325844e-01  -2.4549735e-01  -1.5208940e-01   5.1385726e-02  -6.5598676e-01  -3.8720077e-01   4.4205435e-01   1.0933399e-01   8.6119409e-01   4.4270549e-01  -4.5440105e-01   3.6092273e-01   8.2611728e-01  -8.1542904e-01   2.8141382e-01  -9.4409948e-01   5.3605668e-01  -6.2327211e-02   9.2536505e-01  -2.9604765e-02   3.6070752e-01   6.8489420e-01   7.7301860e-02  -6.8170939e-02   9.5299804e-01   3.3065296e-01  -4.1298728e-01   7.8601640e-01  -1.5527189e-01   7.1314372e-01  -7.8387388e-01  -7.6667430e-01  -5.1196298e-01   9.9105650e-01  -1.0243212e-01   7.1253918e-01  -5.3510925e-01  -5.6243597e-01   9.1526030e-01  -6.3247607e-01  -6.5423293e-01   6.2713578e-01   2.0861880e-01  -2.1057828e-01  -2.6993854e-01  -4.6046962e-01   7.3291670e-01  -3.5225436e-01   2.3611049e-01   9.1932572e-01  -5.9146343e-01  -7.0515896e-01   7.6440150e-01   5.1968236e-01   5.0443471e-01   8.2355457e-02  -2.6868338e-01   8.4760400e-01  -4.1347370e-01  -1.1005775e-01  -4.1059390e-01  -7.1164295e-01   5.5919694e-01   8.8562917e-01  -1.8264830e-01  -2.7179852e-01   2.7921302e-01   5.6422672e-01  -1.6677998e-01   7.3838318e-01  -8.3729985e-01  -7.5237443e-01  -9.3630290e-01  -1.6064425e-01  -2.1839080e-01   5.5937616e-01   5.4121424e-01  -2.9456699e-01   8.5449484e-01   3.4484728e-01   9.6050039e-01  -5.7081629e-01   2.2846678e-01   9.4544279e-01  -6.1552072e-01  -1.6651833e-01   2.7874749e-01  -6.5038689e-01  -4.3110744e-01   2.5061854e-01  -8.3620358e-01   5.5418231e-01  -6.9815056e-02  -4.0190597e-02   8.8904353e-01  -1.0441985e-01  -7.6517561e-01   5.8756057e-01  -6.4415107e-01  -5.9791523e-01   2.4074074e-01   1.2448389e-01  -7.5846778e-01   1.2817213e-01   4.9767148e-01  -1.2170129e-01  -5.6756759e-01  -4.8621364e-01  -6.9954974e-01  -7.8789076e-01   6.6170682e-01  -9.2348433e-01   5.7596028e-01  -4.3077198e-01  -8.3832988e-01   6.7714627e-01  -8.1471010e-01   1.0338981e-01  -2.4891040e-01  -9.4967950e-01   1.6532218e-02  -5.1537789e-01   4.2036532e-01   5.6985794e-01   2.2288759e-01   9.4928804e-01   4.3364932e-01   8.2310218e-01  -6.5849916e-01  -8.2108888e-01   9.1154600e-01  -9.4405486e-01  -5.2040550e-01   3.6179072e-01  -7.7020865e-01  -9.4144122e-01   4.0353433e-01  -5.8678366e-01  -8.7399109e-01   1.3238801e-01   8.0633700e-01  -2.3718234e-01   4.6190406e-02   4.2732265e-01   6.0908238e-01  -2.4580462e-01  -8.3202252e-01  -8.4068044e-01  -2.6062798e-01  -2.7979624e-01   1.1080001e-01   8.7980372e-01  -6.3021712e-02  -9.3876438e-01   2.0992255e-01   7.7836157e-01   5.1328391e-01   6.4879894e-01   4.8407443e-01   3.1498444e-01   9.7617038e-01  -4.0223035e-02   2.7221830e-01  -5.2944422e-01   8.5858211e-01   8.2431238e-01  -3.3495157e-01  -8.9565059e-01   1.8476021e-01   9.4263988e-01   6.4842468e-01   6.7788883e-01  -2.5761852e-01   2.7662621e-01   5.2519029e-02  -6.0443282e-01   3.1143679e-01   4.1006958e-01   3.5937703e-01  -9.7006291e-01  -5.4508732e-01  -3.2282057e-01   8.1085998e-01   7.9372712e-02   2.0218644e-01   3.7883405e-01   7.4389238e-01   7.4281650e-01   7.2403475e-01   5.8413544e-01   5.7900174e-01  -7.3904846e-02   4.2008889e-01  -6.2390483e-01   5.2704714e-01   5.3774076e-01   7.3575580e-01   3.9412383e-01  -8.2365879e-01  -6.1168918e-02   2.9087509e-01   5.4307160e-04  -8.2300065e-01  -2.2987477e-01   7.3921922e-01  -4.1086727e-01   9.1871765e-01  -5.2600276e-01   4.7952222e-01  -3.0956098e-01   3.7994850e-01  -9.4492669e-01   1.9172904e-01  -6.0670001e-01  -4.7966410e-01  -5.4112207e-01  -1.5337686e-01  -7.4665490e-01  -5.1731517e-01   1.5318861e-01   1.1869043e-01   3.8866102e-01   9.4374212e-01   9.6983510e-01   9.3812395e-01   5.7597344e-01   3.7027480e-01  -5.4385197e-01  -1.0231734e-01   2.2722728e-01   6.0645025e-01   5.1537363e-02  -7.1741254e-01   5.7968566e-01   7.2592502e-01   1.3154119e-01  -7.6881920e-01  -8.8941933e-01  -5.8093169e-01   5.8007526e-01  -2.9233847e-01   1.9793921e-01  -9.1523091e-02  -6.9716681e-01   2.1565565e-01   4.9743926e-01   9.7548350e-01  -5.5075042e-01  -1.0007422e-01   9.2014844e-01  -7.8510932e-01  -2.8922056e-01   3.9191516e-01  -3.5624009e-01  -7.4855134e-01   1.8054627e-01   8.6947762e-01  -2.3592555e-01   5.0000325e-01  -9.8543949e-01   9.9124560e-01   8.1858679e-01  -7.5978488e-02  -4.1114102e-01  -9.7602541e-02  -2.4744308e-01   9.8057187e-01  -5.4355467e-01  -2.5311941e-01  -4.0641086e-01   3.7096990e-01  -1.6179990e-01  -6.1369687e-01  -8.1591958e-01  -5.7125550e-01  -1.7651754e-01  -9.6400539e-01   7.9233786e-01   4.9807178e-01   9.7861870e-01  -3.6176133e-01   5.8021786e-01   3.0355399e-01  -2.8264358e-01   1.6479224e-01   2.1076624e-01  -6.5025954e-01   5.5017780e-01  -4.6921941e-01  -5.5853808e-02   4.0445509e-01  -3.6061617e-01   8.2595893e-01  -7.7481703e-01  -2.0052280e-01  -9.2635360e-01   2.9692600e-01   7.7294118e-01  -4.8011902e-01  -8.4208199e-01   1.7688104e-01  -2.4602142e-01  -4.4525141e-01   8.2657070e-01   9.3636395e-01   7.6013359e-01   7.7595668e-01  -3.2630346e-01  -2.5290379e-01   7.0495969e-01  -3.9461578e-01  -4.2473207e-01   7.4717777e-01   8.3591249e-02  -9.5935944e-01   5.7173170e-01  -8.9285115e-01  -7.4957139e-01  -6.1411046e-01  -4.9588475e-01  -6.8638126e-01  -1.7103500e-01  -8.7536494e-01  -2.7853064e-01   5.9673061e-01   5.1094158e-01  -5.3818019e-01  -7.1201945e-02  -2.3915122e-01  -3.5400528e-01  -2.8250613e-01  -5.0300659e-01   5.3351437e-01  -5.7773312e-01  -5.0711569e-01   3.9210029e-01   5.3261043e-01   1.7191271e-01  -1.2770206e-01  -3.7951170e-01  -8.7477320e-01  -8.9401009e-01  -5.3055568e-01   8.0199973e-01  -7.4261780e-01  -9.8645605e-01  -2.0452567e-01   1.5789443e-01  -5.6873243e-01  -1.4830652e-01   9.6953653e-01  -1.6339756e-01  -3.4239552e-01  -6.6756787e-01  -3.7318770e-01  -9.2876246e-01   5.6105067e-01   5.1705387e-01  -7.0531691e-01   2.7196167e-01  -5.9025441e-01   1.4928855e-01  -2.2918714e-01  -3.1302491e-01  -8.4599228e-01  -5.2543835e-02  -5.8217721e-01  -6.9838898e-01   9.6772982e-01   8.5120312e-01   7.1017775e-01   1.0606108e-01   6.8421606e-01  -2.1003629e-02   2.4952704e-01   3.9570263e-01  -7.8459770e-01   2.4927449e-01  -9.9260718e-01   9.8107462e-01  -4.3180759e-01   5.7958869e-01   4.0830402e-01   2.3919508e-01   3.5812614e-01  -8.4872853e-01   9.3655490e-01   8.8181824e-01   6.6478213e-01   7.6098176e-01   5.1421761e-01   5.0595638e-01   2.6798195e-01  -9.6714305e-02  -2.0145733e-01   8.5936542e-01  -2.2501701e-01  -9.1113215e-01  -7.5827690e-01   2.2552970e-01  -2.5848477e-01  -3.6458327e-01  -9.7655961e-01  -2.2566050e-01  -3.3200982e-01  -3.2029506e-01  -4.3658717e-01  -9.4404428e-01   1.2359717e-01   7.4903179e-01   5.6054646e-01  -4.7210238e-01   9.3196953e-01   3.1617856e-01  -8.0641972e-01   8.7575549e-01  -5.2305872e-01  -6.9746985e-01   2.1012732e-01  -8.1044832e-01   9.5746761e-02   2.7770718e-02   5.6659655e-01  -5.0799374e-01   8.4387710e-01   4.3036389e-01   8.7748020e-01  -9.7399344e-01  -4.9447131e-01  -1.0073351e-01  -7.7244104e-01  -5.9821904e-01  -6.4736335e-01   4.6710057e-01  -4.4234010e-01   3.2013837e-02   4.5887600e-01  -6.5405944e-01  -7.6787477e-01   1.4576804e-01   9.6496855e-01  -3.6374617e-02  -5.7816461e-02   8.1665559e-01   2.1865687e-01   9.9330123e-01   7.5794009e-01  -4.2222455e-01   8.1536373e-01   1.9429064e-02  -3.6333329e-01   9.4935755e-01   1.5654392e-01  -9.2281049e-01   2.8018784e-01  -5.5965729e-01   3.8405253e-01   8.6135613e-01  -4.4888262e-01   6.9233952e-01  -6.2842594e-01  -2.9029052e-01   1.2358297e-01  -4.0738421e-01   6.3480916e-01  -5.4832048e-01   8.6391137e-01  -3.2350194e-01   7.0370182e-03   5.5799448e-01   8.3563659e-01   9.1162625e-01  -8.5065148e-01   5.4518297e-01  -3.5450219e-01  -7.8607398e-01  -2.8548635e-01  -4.2337259e-01   8.7145929e-01  -3.6734962e-01   2.1978714e-01  -8.9270454e-01  -5.4587051e-01  -2.3366975e-01  -5.2926664e-01   1.9639315e-01  -9.7733815e-01   4.6252203e-01   8.2804667e-01   6.5842241e-01   3.8783735e-01  -5.3344750e-01   3.8080220e-02  -2.7836676e-01   9.1391019e-01  -9.0466041e-01   8.7406187e-01  -6.1891260e-01  -2.1123274e-01  -8.1020729e-01  -4.2797559e-01  -4.3370362e-01   3.9931943e-01  -6.9845115e-01  -3.3914352e-01   9.9777567e-01   8.4591844e-01  -2.6381848e-01  -1.8335900e-02   6.3248625e-01   8.0981205e-01   6.8723485e-02   1.6470688e-01  -8.4313142e-03   2.3770415e-01  -1.4313666e-01   9.8425616e-01   5.3443871e-01  -6.3422089e-01  -2.1821486e-01   4.1726021e-01   2.8873247e-01  -3.7478667e-01  -1.4713161e-01   6.1973683e-01   7.7500755e-01  -2.4238269e-01  -1.0106538e-01   7.4634515e-01   3.1951978e-01  -9.6089464e-01  -7.3606959e-01  -5.5419300e-01  -8.2744048e-01   3.6370508e-01   6.1542540e-01  -5.9489169e-01   5.5696281e-02   2.7791705e-01  -8.5609411e-01  -7.9868269e-01  -8.0647000e-01  -2.9795152e-01   9.8083016e-01  -5.4977092e-01   6.2293116e-01
   2.1756272e-01   8.8958267e-01   8.2568741e-01   5.1917978e-01  -6.6028212e-01   1.4942710e-01  -7.9102102e-01   4.0639711e-01   4.1304228e-01  -5.9184653e-01   6.6965261e-01   7.8146044e-01  -8.5211967e-01  -9.3369418e-01  -7.0415054e-01   7.8679251e-02  -5.5211499e-01   5.6194057e-01  -3.5224171e-01   2.8594756e-01   4.6719628e-01  -9.0121583e-01  -4.3470011e-01   8.1804810e-01  -5.1304393e-01   6.1175792e-01  -6.9331013e-01  -2.8865703e-01   2.9910582e-01  -3.7896787e-01   2.7952991e-01  -1.7720605e-01  -4.6595743e-01   9.9068912e-01  -9.5272523e-01  -1.7697746e-02   1.1187761e-01  -4.8078481e-01   8.9754987e-01   9.6948649e-01  -3.1709497e-02   7.3958506e-02   4.8136792e-01  -2.5290763e-02  -5.7356856e-02  -9.1361112e-02  -4.0793652e-01   6.7413669e-01   2.4320303e-01   7.4456101e-01   3.2834533e-01  -2.8435353e-01   5.2862638e-01   6.3763731e-01  -9.2827660e-01   3.9013947e-01   6.3940683e-01  -7.5805505e-03  -3.2037074e-01   2.0811952e-01   2.9473117e-01   8.9768160e-01   1.9191168e-01  -8.2219199e-01  -6.9672677e-02  -9.1425517e-02   1.6829082e-01  -9.5728710e-01   5.1271059e-01  -7.1406692e-01  -4.6198676e-01  -1.0501728e-01   7.6282990e-01   1.9668619e-01   8.1178598e-02   1.6609615e-01  -5.7078922e-01   4.4561944e-01   9.0752892e-01  -1.4862591e-01   4.1880149e-02   4.3167803e-03   8.3425902e-01   4.9546463e-01   6.4104774e-01  -7.9711034e-01   5.0717333e-01   3.5041823e-01  -8.5757798e-01  -7.9048087e-01  -4.8797889e-02   3.3152535e-01  -2.3907839e-01   8.2128910e-01  -6.6429505e-01   9.7375578e-01  -8.0042534e-01   8.7548658e-01   7.1762980e-01   2.4331291e-01  -1.0746888e-01  -6.6961110e-01   2.3920838e-01  -3.6641021e-01   9.1078208e-01   1.1409673e-01  -6.8203526e-01  -1.3920348e-01  -4.5424368e-01   5.8269028e-01  -8.8278821e-01   9.4947831e-01   1.8843045e-01   8.8068971e-02  -1.1259489e-01   5.3180850e-01   2.6728239e-01  -1.2544249e-01  -5.2898117e-01   4.4456948e-01   9.9657098e-01   7.4917632e-01   7.1205708e-01   8.3658111e-01  -5.4154381e-02   3.0623732e-02   4.7216310e-01  -4.0445199e-01  -1.9458840e-01   1.7858342e-01   1.4513483e-01   9.8285665e-01  -3.1181956e-02  -4.6285317e-01  -5.2020093e-01  -2.5209376e-01   1.7687455e-02  -3.5669126e-01   7.6498342e-01  -3.2075742e-01  -6.2313835e-01   1.3368189e-01   9.1019523e-01  -1.4008228e-01  -9.0224485e-01  -7.4984167e-01  -6.0541910e-01   2.8704794e-01   3.7483719e-01   8.5576594e-01  -1.3195072e-01   1.3952374e-02  -7.7975271e-01   6.6348003e-01   3.1965475e-01   5.2582112e-02   3.2560709e-01  -6.6705470e-01  -4.4908106e-01   8.9962356e-01  -8.7368190e-01   4.2128801e-01  -6.4988367e-01   8.1219407e-01   5.8067713e-01  -9.7941550e-01   6.8576059e-01   6.8797977e-02  -5.3985252e-01   3.3941876e-01   3.0639492e-02  -9.9371967e-02  -3.1444020e-01  -6.1123843e-01   7.0177727e-01   3.2784030e-01   2.2085937e-01   9.8428773e-01   9.4898047e-01   9.5395524e-01   7.8231838e-01   3.0201189e-01   3.6580568e-01   8.5986897e-01   9.2613711e-01   6.9830619e-01   4.9439348e-01   9.8001187e-01   3.6333014e-01   3.3420688e-01  -8.7215491e-01  -5.0239400e-01   7.1375422e-01   6.7597786e-01  -9.9531444e-01   9.9699894e-01   9.8021195e-01  -3.4333955e-01   9.0408319e-01  -3.7200580e-02  -4.0976823e-02  -1.3429886e-01  -1.4179081e-01  -1.0498608e-01  -8.7460708e-01  -7.5262745e-01   6.4640995e-01  -9.9406127e-01   6.1542742e-01   1.9772630e-01   2.9240083e-01   2.1334369e-01   8.5633032e-02   8.5683162e-01   1.3389871e-01   9.4297780e-01   6.0538973e-01   6.1647328e-01   3.0247221e-01  -4.3192604e-01   1.8669227e-03   5.3691333e-01   4.1691340e-01   3.6073483e-01  -9.2140234e-01  -6.6889693e-03  -4.8887002e-01  -5.5279628e-01   4.3463225e-01  -7.4693721e-01  -8.6705511e-01   5.6061705e-01  -7.2891809e-01   6.1590121e-01  -8.2010517e-01   5.5183582e-01  -1.1342884e-01   2.8709126e-01  -8.2846590e-01   5.9937889e-01  -5.0717998e-01  -8.3531081e-01  -6.4854415e-01  -3.5832004e-01  -5.6383029e-01  -4.7580676e-01  -7.9129714e-01   9.0347257e-01   2.4790781e-01  -9.1046694e-01   2.3190363e-03   4.6832359e-01   7.7226911e-01  -6.8392477e-01  -3.1051036e-01   2.7059316e-01  -6.6125788e-01   3.7960255e-01  -9.7774695e-01  -9.6527699e-01   5.3951942e-01   1.1200038e-01  -4.8937398e-02  -5.6357631e-02  -2.7185326e-01  -7.8369771e-01  -6.2465092e-01   3.1219754e-01  -2.9320939e-01  -9.3349988e-01   5.0602225e-01  -2.3299666e-01  -1.2555023e-01   7.6539633e-01   9.1362539e-01   1.2059913e-02   3.6753316e-01  -6.7080693e-01   8.8071964e-01  -7.5004157e-01   1.6304437e-02   2.4759005e-01  -2.4594903e-01  -8.9811138e-01   7.5611044e-01   8.2302371e-01   3.5907490e-01  -3.6917404e-01  -2.8766699e-02  -2.7147104e-01  -1.4183529e-01  -8.9333829e-01   3.2457844e-01  -5.6781935e-01   2.1865059e-01   2.1802946e-01  -6.2029707e-01   8.3529046e-01   2.2669855e-01   6.9508360e-02   5.4147326e-01  -4.9049629e-01   2.4390470e-01  -1.0486361e-01  -2.7085939e-01   3.1526325e-01  -7.5498312e-01   6.5490475e-01  -8.5054915e-01  -6.1471644e-01   1.6752016e-02  -6.8141451e-02  -2.3122332e-01  -2.5442316e-01   7.8106031e-01  -7.7018067e-01   7.7370463e-01   8.8934526e-02  -3.4844158e-01  -6.8705263e-01  -7.5186266e-01   3.5463074e-01   9.5473399e-01  -4.7499401e-01  -3.4674857e-01  -4.8048148e-01  -9.6600163e-01  -8.5010572e-01   7.8489164e-01  -9.9336207e-01  -3.6047038e-01   6.7101811e-02   9.7332612e-01   9.5126480e-01   7.9216510e-01  -4.0481435e-01  -6.2165461e-01  -1.0717909e-01   7.9077700e-01  -7.7398533e-01   7.7208506e-01   5.5462678e-01  -9.0263745e-01  -7.7981100e-02   9.5377417e-01   9.5092807e-02   2.6929544e-02   3.6279892e-01  -4.3346057e-03   5.1155041e-01  -4.5596759e-01   2.4278783e-01  -3.2699731e-01   6.9882146e-01   9.9948287e-01   9.5077119e-01   2.0027051e-01  -5.0312900e-01  -3.0291130e-02  -6.8812219e-01  -1.2395379e-01   7.8642854e-01  -8.1403930e-01   6.9036490e-01  -2.4035393e-01   6.2483673e-01  -9.5822294e-01   3.6710250e-01  -5.4249002e-01  -3.0049487e-01  -9.0226925e-01   2.5966784e-01  -1.1113106e-01  -7.5674257e-02   5.6323851e-01   5.6809968e-01   4.9209598e-01  -8.0251072e-01   5.3642325e-01   5.8683472e-01   4.8101910e-01   1.7328133e-01   6.9219482e-01  -8.7959244e-01  -1.9055464e-01   2.1041731e-01  -4.9348243e-01  -5.4874316e-02   6.3891828e-01   3.2244117e-01   7.1411878e-01   7.0479757e-02   9.8701634e-01  -7.7928033e-01  -3.9561635e-01  -5.0903725e-01  -8.9276572e-02   6.9772326e-01   6.2882030e-01   8.3694313e-01   8.3795615e-01  -1.4498806e-01   8.9568764e-02   9.0069032e-01   8.7050537e-01   4.6900119e-01   2.2853424e-01  -2.6248362e-01   6.2205599e-01   6.8849841e-01   8.4575995e-01   1.0680141e-01  -4.2148568e-01  -2.8406948e-01  -9.6037382e-01   6.4204466e-01   3.3437176e-01  -3.6160382e-02   6.2451425e-01   1.4977842e-01  -6.0257108e-01  -3.9387808e-02   9.1698142e-01   5.7487269e-01  -8.1547739e-01   7.3582696e-01   4.7624635e-01  -1.8479121e-01   5.4774223e-01   6.2295589e-01  -2.8795404e-01   8.5011661e-01  -7.6897600e-01   2.9910453e-01  -9.3127734e-01  -1.0368867e-02   4.9249897e-01  -2.4823238e-01  -8.9197294e-01   7.4883162e-02   2.4890954e-01   7.4676468e-01  -8.0023432e-01  -3.3979340e-01   6.5743069e-01  -5.4903087e-01   1.1906046e-01   7.6436257e-01  -1.7650431e-01  -7.0166677e-01   8.7459318e-01  -7.4231339e-01  -6.0875949e-01   4.8051979e-02  -8.4141418e-01   7.9477736e-01   9.8008182e-01  -6.0633128e-01  -4.1314023e-01  -8.6697307e-01   2.4907982e-02  -5.1676971e-01  -7.1582807e-01   8.0625669e-01   2.3801098e-01  -6.5705488e-01   6.4271059e-02  -1.2095388e-01   5.6446123e-01  -8.2592166e-01   5.4099892e-01  -8.2263404e-01  -3.6708822e-01   4.5101340e-01  -6.0154832e-01  -2.6948329e-01  -7.1707029e-01  -6.3176359e-01   1.8055316e-01  -2.3293306e-01   4.6460558e-01   3.8157803e-01  -6.8462518e-01   6.4879598e-01  -5.8545715e-01  -1.4757840e-01   7.3525396e-01  -1.3685068e-01  -4.6602949e-01  -4.6179485e-01   9.9404064e-01  -6.6396771e-01   2.1286459e-01  -3.5197295e-01   6.8305556e-01   2.9829338e-01  -2.1872143e-01   1.8579898e-01  -1.3723677e-01   6.2444907e-01  -8.0449782e-01   6.0286798e-01   2.2470701e-01  -2.4997110e-02  -4.5866816e-01   3.5611851e-01  -9.3953464e-01   8.1156756e-01  -1.4844846e-02  -3.6043037e-01   3.9991709e-01   6.7044652e-01   4.8453487e-01   7.3759564e-01  -1.1958119e-01   6.4544318e-01   3.6108410e-01   4.8266083e-01   3.6283595e-01  -9.6228004e-01  -8.4705908e-01  -5.6675581e-02  -2.3216348e-01  -2.0482662e-01   2.6670701e-01   9.6217972e-03   1.5398075e-01   6.7843710e-02   3.0036276e-01   4.8289079e-01  -2.2990360e-01  -5.0603506e-01   8.4795066e-01   1.0844874e-02  -2.9073776e-01  -6.9359356e-01  -3.9041381e-01  -8.1479581e-01   3.8272754e-01   8.1473563e-01  -8.6434318e-01  -6.7522702e-01   7.6491160e-01   7.9192308e-01  -6.6468888e-03   7.5234818e-01  -8.7140192e-01   1.4079871e-01  -1.4656742e-01   1.0613626e-01   5.5193880e-01   5.6227536e-01  -4.9639228e-01   9.4952158e-01   3.6085508e-01  -2.5686283e-01  -7.7797856e-01  -3.2623024e-01  -1.1351487e-01   6.6520518e-01   8.8741286e-01   6.5721113e-01   6.3852013e-01  -2.2903045e-01   7.2860884e-01  -7.1447606e-01  -6.0263427e-01   1.2236957e-01   1.4854986e-01   1.6223942e-01   1.8281445e-01  -6.4831366e-01   4.2351697e-01   8.9079631e-01   6.6478462e-01  -8.4165926e-01  -9.1669395e-02   5.3093234e-01  -9.8608202e-01  -4.4996673e-01  -6.9682994e-01   6.0796359e-01   5.5830209e-01   4.9594152e-01   2.7610610e-01   7.3956802e-01   2.0484637e-01   6.0177582e-01   3.4950732e-01   4.6966302e-01   5.5756370e-01  -2.0894990e-01  -9.9894400e-01  -4.7695156e-01  -5.1392726e-01  -6.5323818e-01   2.7971189e-01   9.2477646e-01   5.9972701e-01  -6.1013361e-01   4.2788435e-01   4.2684316e-01   1.2443386e-01  -9.6532392e-01  -9.4193205e-02  -6.4678351e-01  -8.3253738e-01   5.4370554e-01  -8.2376072e-01   5.2006552e-01   8.0610931e-01   4.3395518e-01   7.0529922e-01  -9.8870356e-01  -9.5578683e-01   4.6055977e-01   3.6852192e-01   7.7201264e-01   5.1427414e-01   7.4865772e-01   2.9480996e-01  -6.9200222e-01   7.0447592e-01  -3.2927200e-01   4.3478764e-01  -4.1688527e-02   1.0693243e-01   3.9598557e-01  -8.5808551e-01  -5.0406678e-01   1.7666588e-01   9.6788613e-01  -7.3296858e-01   8.3631794e-01  -4.9316257e-01   8.3121653e-01  -6.9717028e-01  -8.6364451e-01  -4.0482785e-01  -4.6364300e-01  -8.4205822e-01  -9.9687143e-01   2.4501259e-01   3.9342646e-01  -7.1958044e-01  -7.7463743e-01   4.3509725e-02  -7.3362729e-01  -1.0673337e-01  -8.3968817e-01  -3.5741290e-02   8.8406855e-01   6.6297244e-01  -8.7358820e-01   5.4872371e-01  -6.2487009e-01  -2.0972288e-02   8.8373497e-01   8.3671574e-03  -7.2706076e-01   2.1868774e-02   8.0270684e-01   9.3342822e-01   1.5041833e-01  -5.8936634e-01   7.6672957e-01  -8.5188849e-01   3.2895791e-01  -9.5023797e-01   7.8561183e-01   8.6206161e-01   5.5060215e-01   7.4412722e-02   8.7761011e-01  -8.5680333e-01  -7.3410618e-01  -7.5629253e-02  -4.2704418e-01  -4.7891418e-02  -7.4295981e-01  -7.2527461e-01  -5.2232235e-01  -3.8261296e-01  -6.4822846e-01  -3.7895743e-02  -3.2961666e-01   4.3745800e-01   8.2256904e-01  -6.1172127e-02  -4.0685308e-01  -3.3180078e-01  -2.0145292e-01   2.4239510e-01  -1.4549094e-01   2.5163679e-01   6.7377583e-01  -8.7141236e-01   2.4578846e-01  -1.5446919e-01   1.7928112e-02   7.1956647e-01   6.1889783e-02  -4.8983459e-01  -6.9816624e-01  -2.6438140e-01  -6.2483856e-01  -2.2687600e-01  -1.0944393e-01  -3.1330621e-01   2.6305336e-01   5.5136486e-01  -9.7455160e-01   9.7415696e-01   2.4715263e-01  -8.0284160e-01  -7.4988576e-01  -2.3484867e-01  -6.2918319e-01  -2.9535540e-02  -5.1909523e-01  -4.7480121e-01  -4.1247411e-01   5.3987340e-01   1.8228134e-01  -9.7402604e-01  -2.0434855e-02   1.2064450e-01   1.1009119e-01  -1.1263871e-01  -4.2025706e-01  -1.3733914e-01  -1.8354412e-01  -5.9697898e-01  -7.7145536e-01   2.5312509e-01   1.9821890e-01   5.1618235e-01  -5.9446402e-01  -5.8731098e-01   8.3473993e-01   7.7854549e-01   4.7659639e-01  -7.7187919e-01   2.2021202e-01  -4.0285949e-02   1.0178510e-01   4.2822755e-01  -2.9034765e-01   3.6786127e-02   1.5804453e-01   1.2620971e-02   3.6967503e-01  -7.2858531e-01  -1.8087655e-01   2.5098956e-01  -6.0141600e-02  -3.8434959e-01  -4.8939071e-01   6.3862051e-01   8.1414783e-01  -6.8172131e-01  -1.1323128e-01   4.1389731e-01   4.7155536e-01   6.8602816e-01  -9.6418476e-02  -6.2952412e-01   2.0954658e-01   8.0627663e-01   2.6465408e-01   4.3136070e-01  -8.8139688e-01  -4.6673771e-01   3.4367012e-01  -7.1796411e-01   6.0304288e-01  -5.4808464e-01   6.4031332e-01  -6.8256797e-01   3.6131376e-01   4.7731748e-01  -9.3076683e-01   4.1879055e-01   3.2695681e-01   1.7135085e-01   8.1351744e-01  -9.1283953e-01  -1.2189478e-01   8.7620581e-01  -1.3454959e-01  -8.0771068e-01   7.6417094e-01  -9.0073052e-02   4.7308307e-01  -7.6973121e-01   1.6917964e-01  -3.7307124e-01  -5.2070281e-01  -9.5676381e-01  -3.5222098e-01   9.0129006e-02   9.5559520e-01   7.5236676e-01   2.1930393e-03  -7.1303775e-01  -7.7130733e-02   1.1426303e-01  -3.8773808e-01  -2.1064227e-01   8.9545413e-01   8.3445531e-01  -1.1691549e-01   5.9023197e-02  -2.0542503e-01  -5.2746350e-01  -1.3906556e-01  -6.3230055e-01   9.5922168e-01   2.1332131e-02   5.4601035e-01   9.1739778e-01  -5.6473845e-01  -2.6098632e-01  -4.4103426e-01   9.1150071e-01   6.0561583e-01   8.0967567e-02  -1.9447877e-01  -5.2566578e-01   2.0945793e-01  -4.4216967e-01   4.6887186e-01  -3.9408708e-01   4.1135420e-01   7.5150342e-01  -8.0928519e-03  -5.2828698e-02  -4.9784796e-01  -9.9960713e-02   5.5156253e-01  -7.8043966e-01   9.3784439e-02  -6.5397724e-01  -2.9990233e-01  -3.9918025e-01   7.9918760e-01   2.6613623e-01   5.5678690e-01  -1.4615335e-01  -9.3153107e-02  -4.3429298e-01  -9.7102698e-01  -1.5978379e-01  -8.9075150e-01  -3.8060238e-01   6.0538380e-01   5.3898836e-01   9.0235647e-01   8.8774069e-01   8.8687236e-02   7.0965495e-01  -7.5221546e-01  -1.4321319e-01   9.2221087e-01  -8.7453253e-01  -1.4658421e-01  -3.0209868e-01  -3.2579762e-01   5.4371363e-01   6.6147931e-01  -1.9113204e-01   5.4151798e-02   4.1085870e-01   8.5150721e-01   1.7517985e-01   3.4562290e-01   4.8854232e-01  -6.5750057e-01  -4.0660622e-01  -9.2958404e-01   9.4868743e-02  -9.2444187e-01   5.7508777e-02  -2.8643012e-02  -8.8688598e-01  -8.9401749e-01  -3.8287258e-01   6.8102468e-01   1.8151379e-02  -7.0683425e-03  -3.5013732e-01  -8.5312625e-02  -7.5921770e-01  -3.3747967e-01   9.1419060e-01  -1.4109573e-01   1.1178335e-01  -2.8961249e-01  -7.2162324e-01  -3.9686150e-01  -6.9916475e-01   4.1462610e-01  -2.4092234e-01   9.3489362e-01   2.3227584e-01  -6.2130326e-01  -9.0440282e-01  -3.3408496e-01   4.8120030e-02  -2.3263731e-01   1.6838381e-01   2.3927400e-01  -1.3203660e-01   2.6610639e-01  -1.8876140e-01   4.9767375e-01   6.5026555e-01   3.3367152e-01  -9.0030745e-01  -4.8488635e-01  -1.6096489e-01   3.0175633e-01  -7.9672763e-01   4.7418885e-01   8.4509828e-01  -9.8429293e-01   4.9895170e-01  -5.5982148e-01  -8.3166388e-01  -3.3274948e-01  -8.6564508e-02   1.0896653e-01   1.8374094e-01   5.4337920e-01   6.6274153e-01  -2.7120497e-01   4.7216510e-01  -2.1952309e-01  -8.7445099e-01  -7.7073149e-01   9.8107863e-01  -4.7606304e-01  -3.0095485e-02   3.3267241e-01   9.0652824e-01   1.5624776e-01  -3.1691895e-01   5.1946037e-01  -8.3633718e-01  -1.8570005e-01  -6.4125403e-01  -5.3635889e-01  -1.6331835e-01  -9.5474399e-01   8.7763236e-01   6.0896615e-01   2.6742272e-01   5.3980944e-02  -1.4709754e-01   2.8406767e-01  -2.0935656e-01   2.9423889e-01  -2.9432306e-01   2.6277402e-01  -4.9784439e-01   2.9902663e-01  -1.6809859e-02  -7.1272308e-01  -3.9831281e-01   5.0065754e-01  -5.3314594e-01  -9.6406982e-01  -7.9111377e-01  -1.1276299e-01  -6.0013960e-01  -9.6495200e-01   7.6742026e-02  -1.7011245e-02   1.7939248e-01   4.1581364e-01  -4.1559164e-01  -7.3792148e-01  -8.2612789e-01  -5.0494923e-01  -5.1532774e-01   4.8690629e-03  -2.6268961e-01  -3.6653788e-01  -1.6467338e-01  -2.8856271e-02  -1.9938783e-01  -4.8008799e-01  -4.7066969e-01   2.9257005e-01   9.8387392e-01   2.2704045e-01   2.1436592e-01   2.7811152e-01   8.5264543e-01  -1.5972288e-01
   4.2475813e-03   5.6671776e-01   1.7316529e-01   4.8808763e-01   5.8749621e-01   6.8088672e-01   1.9035094e-01  -4.6219147e-01  -5.1060549e-01   9.7440580e-01  -3.0772325e-02   7.4541051e-01   6.2922244e-01   6.0285827e-01   1.3942960e-01   9.9392739e-01  -6.1675026e-01   9.6170318e-01  -6.8897866e-01   9.8811289e-01  -1.8756352e-01   3.9174228e-01   8.5126202e-01   4.5664412e-01  -7.5167266e-01   8.7938859e-01  -2.7266122e-01  -5.0506119e-01   6.1177725e-01   2.0296414e-01   5.3290238e-01  -5.8186931e-01   7.4213305e-01  -4.2362120e-01   7.4636370e-01  -2.2962318e-01   3.6391850e-01  -4.6281113e-01  -8.2180077e-01   4.7360691e-01  -8.6278036e-01  -3.0352598e-01   6.3937601e-01   3.0418997e-01  -7.7100796e-01  -4.8274257e-01   3.9457893e-01   2.8031154e-01   8.8678898e-01  -7.4059181e-01  -1.6234308e-01   2.9329498e-01  -9.7263409e-01   6.2063774e-01  -9.7916870e-01   9.6137411e-01  -3.1201841e-01  -1.8891246e-01  -8.2795028e-01   4.2801718e-01   2.5508585e-01   4.0867151e-01  -9.0458896e-01   9.8095219e-01  -1.4405701e-01   8.7030439e-01   1.8931177e-01   3.5543576e-01  -3.8581905e-01   6.5954444e-01   9.0992539e-01   8.2812309e-01  -3.9839126e-01  -9.4267036e-01  -1.4176779e-01   2.5374683e-01  -4.0605466e-01  -7.1391265e-01   1.4934320e-01  -2.5521818e-01   2.4298444e-01  -3.8355419e-01   4.2446387e-01   1.2448959e-01  -9.4235278e-01  -2.0362962e-02  -5.6420500e-01  -2.2622876e-01  -9.8461515e-01   4.1058723e-01   6.8697951e-01  -6.3144634e-01  -1.5408915e-01  -6.0975596e-01  -5.2819610e-01   9.3177385e-01   5.9775119e-01   2.2966771e-01  -7.3442541e-01   3.2069775e-01  -3.1624597e-02  -8.8697662e-01   5.1611584e-01   4.2412081e-01  -5.9258943e-01   5.5044284e-01   5.2921142e-01   3.3817916e-01   7.3194702e-03   3.7105730e-01  -4.4570889e-01  -4.0012575e-01  -4.1368493e-01  -2.9108374e-01   4.2684223e-01  -8.5276843e-01  -8.3398598e-02  -2.3473618e-01  -7.5843945e-01   2.9163264e-01  -5.0272498e-02  -8.7793385e-01  -7.4607922e-01   4.7879417e-01  -8.0956462e-01  -9.8048695e-01   6.2162583e-01   1.2105581e-01  -5.9261176e-01   4.5948558e-01  -6.7862401e-01   8.6562225e-01  -8.1460197e-01   4.5276183e-01  -2.2467464e-01   3.1283275e-01  -1.8366442e-02   8.0705507e-01  -6.8881512e-02  -8.1244500e-01  -6.4088348e-01  -5.3245917e-01   7.2958510e-01   3.4338647e-01  -6.9956832e-01   6.3189947e-01   6.4468164e-01   1.0349580e-01   8.0488818e-01  -5.5772019e-01  -5.0390802e-01   9.4947608e-02   9.2123541e-01  -6.7636145e-01  -2.9672740e-01   6.9548398e-01   4.0348283e-01  -3.0838053e-01  -9.4608927e-01   9.0809844e-01   1.7871268e-01   1.8211543e-01  -7.8256570e-01   2.8165432e-02   2.8582425e-01   4.5868523e-01   8.5195244e-01   8.5425831e-01  -6.0976414e-01   8.8287418e-01   8.6455796e-01   9.9059912e-01   6.7897819e-01   9.5695204e-02   5.0600464e-01  -4.3191850e-01   6.0154996e-01   5.6358211e-01   9.4091061e-01   6.6003168e-01   4.7333520e-01   6.0980269e-02   3.0069577e-01  -8.1068664e-01   8.2044380e-01   9.8549290e-01  -6.5104267e-01  -4.1889222e-01   9.8180698e-02   7.0186840e-01   2.1411880e-01   3.7146339e-01   1.2326414e-01  -5.1501864e-01  -4.3253104e-02   6.4502145e-01  -9.4504175e-01  -1.2699718e-01  -9.7784401e-01  -5.6333387e-01   5.8866515e-02  -2.6406470e-01   2.9630134e-01  -8.6164647e-01  -8.3279536e-03  -5.7789663e-01  -4.8297744e-01  -2.1409574e-01  -5.4731480e-01   1.4476312e-01   7.8609249e-01  -3.1572501e-01  -9.9392533e-01   6.8558462e-01   2.1278848e-01  -8.0310524e-02   3.8954100e-01  -8.9095089e-02  -5.0691246e-01  -5.5235686e-01   1.8604768e-01   2.8110742e-01   6.7543398e-01  -4.0061403e-01  -2.5107735e-01   1.6953330e-01   8.9216886e-01   6.8589620e-01  -9.5487979e-01   4.3518292e-01  -8.1512414e-01   8.1106281e-01  -2.7241476e-01  -1.4077957e-01  -3.7154749e-01  -4.3086392e-01   5.3132632e-01   2.1179102e-01   4.9806743e-02   3.4818240e-01   2.0240895e-01  -3.2931621e-02  -6.4019192e-01   4.1650772e-01  -6.9001477e-01  -5.1066045e-01   6.5181171e-01  -7.8610655e-01   6.3479514e-01  -6.6373350e-01  -4.3209114e-01  -8.1743319e-01   2.0434252e-01  -9.3801372e-01  -9.4706118e-01   9.5826171e-01  -3.4922938e-01   4.2012252e-02   3.9911408e-01   4.0077332e-02  -4.3554559e-01  -1.3724164e-01   6.6752068e-02   9.4287994e-01  -3.1825967e-01   7.0111918e-01  -9.0089956e-01  -6.5882503e-01   9.2406915e-01  -6.8826780e-01   8.7703967e-01  -5.7356581e-01   5.7227295e-01  -1.9524428e-01   3.0816348e-01   9.1433391e-01   1.5057924e-01   8.0465143e-01   7.9283522e-01   1.0519350e-01   9.1602394e-01  -2.3983654e-01   8.1600479e-01   8.4861902e-01  -2.3241528e-01   8.5454722e-01  -8.6200090e-01  -6.6095833e-01  -1.2053867e-01  -8.9979425e-02   6.0130983e-01   4.7255920e-01  -1.9384536e-01   3.5253991e-01  -8.0447312e-01   7.8909555e-01   8.3679616e-01  -2.1397595e-01  -5.7114152e-01   6.3234103e-01   8.5540184e-01   1.4593258e-01  -5.8886611e-01  -8.6189833e-01  -2.4971065e-01  -4.6867052e-01   2.6134100e-01  -7.6420915e-01  -8.9948043e-01  -1.1055297e-02  -5.6576790e-01  -3.8263127e-01   1.9840426e-03  -1.4176466e-01  -4.0220038e-01   9.6541796e-01   9.2185851e-01   5.7871071e-01  -2.3174156e-01   6.6030312e-01   2.2757919e-01   2.5829568e-01   2.5067487e-01  -1.5065237e-01   1.9478352e-01   2.1481396e-01  -1.9767908e-01   8.3989569e-03   2.8230062e-03   4.1137115e-01   5.1807093e-01   4.0632049e-01   2.3429253e-01  -5.9458815e-01   2.3493222e-01   1.8410601e-02  -2.2467486e-01   8.1361734e-01   2.4953588e-01   1.0623650e-01   5.6672934e-01  -2.6438344e-01   2.6970720e-01   1.0015189e-01   9.1974050e-01  -3.0070348e-01   7.8645964e-01  -3.2857063e-01  -8.0251920e-01   3.8819258e-01  -9.4707453e-01   6.6038704e-01   1.6762335e-01  -6.6370788e-01  -3.4098582e-02  -7.4189770e-01   8.5086163e-01   3.8823250e-01  -5.6181293e-01  -6.4484043e-01  -5.0412945e-01   3.8877367e-02  -4.6359747e-01  -5.2340526e-01  -1.8471165e-01   1.2553244e-01  -9.2171876e-01   5.0016068e-01  -8.1100475e-01   5.1263222e-01  -9.7198879e-01   6.9042177e-01  -5.0526941e-01   4.3473257e-01   4.6195120e-01  -5.2305227e-01  -7.3003833e-01  -4.2400095e-01   4.7122527e-01   1.9819518e-01   8.7064442e-01  -4.3669285e-01   4.4888051e-02   2.5564512e-01  -8.8551102e-01   2.8402427e-01  -1.2232837e-02  -9.4713825e-01   1.1151320e-01   7.0859295e-01   1.1997021e-01   4.5387636e-01   4.5207737e-01   3.3444607e-01  -3.0821491e-01   5.6602197e-01   2.6703845e-02   6.0348955e-01  -6.3237264e-02  -3.4545307e-01  -4.3705139e-01  -1.0953785e-01  -3.3647125e-01  -8.4061771e-01  -4.8996684e-01   8.7897888e-01   2.7226389e-01  -6.0230734e-01   7.0799159e-01  -1.8519315e-01   8.7700758e-01   6.6347715e-01  -1.9099709e-01   5.1505816e-01  -3.8131085e-01  -3.1503408e-01  -6.3913865e-01   5.7140331e-01   8.3302495e-01  -5.4218001e-02   1.7596436e-01  -9.6632800e-01   4.7167899e-01   1.3462985e-01   1.2360545e-01   9.2544973e-01  -4.3081316e-01   6.3948279e-01  -6.4411601e-01   5.2832091e-01   5.0808291e-01   9.7220503e-01   1.7665978e-01  -4.6265594e-01  -2.1502318e-01   9.3428082e-02   1.2839186e-01  -3.7368158e-01  -4.4074240e-01   1.2827799e-01  -2.4360623e-01   4.7233577e-01  -6.6016099e-01  -4.1015723e-01  -9.0931410e-01   7.4457351e-01  -6.5012699e-01   7.6115150e-01  -6.8066888e-01   1.2851877e-02  -7.8882996e-01   3.1690796e-01   2.6885213e-01   1.0652003e-02  -6.6678297e-01   1.2891418e-01  -7.2141397e-01  -7.0178580e-01   6.6924246e-01  -3.1912508e-01   6.4205121e-01  -4.5703395e-01  -8.2835549e-01   6.2630097e-01  -2.1810367e-01  -5.4450547e-01   1.7198010e-02   5.0456385e-01   5.2558232e-01   7.1440302e-01   7.6486696e-01   1.8213137e-01   8.6618209e-01   9.0256951e-01  -5.8519977e-01   6.8254605e-01   5.0298663e-03  -3.4666798e-01   1.3913059e-01  -3.4470809e-01   2.5861913e-01   5.3203507e-01  -9.1521130e-01  -2.9520835e-01   7.5663736e-01  -2.0123205e-01  -2.8979462e-01   3.0624911e-01   2.3971418e-01   2.4307228e-01  -8.5280687e-01  -9.7344489e-01  -9.4922566e-01   8.0255718e-01  -7.6728749e-01  -9.1113893e-01  -7.6337005e-01   4.6751608e-01  -9.4661776e-01   5.5967170e-01  -4.8059960e-01  -8.6477571e-01   9.4316388e-02  -1.6313631e-01   3.5850091e-01  -9.8203826e-01  -3.8426174e-01  -6.5933393e-01   8.7559477e-01   7.6150733e-01  -7.0059923e-01  -2.7136192e-01  -2.7805928e-01   9.1908844e-01  -3.1552789e-01  -8.6688946e-01   5.2016652e-01  -3.4234419e-01  -5.6774757e-01  -5.9058200e-01   3.5445413e-01  -7.8544578e-01   7.7745514e-01   3.2238918e-01  -3.3392321e-01  -1.2937602e-01  -8.2269520e-01  -7.0599606e-01  -2.6368376e-01  -9.6342854e-01  -7.7558480e-01  -3.9401941e-01  -1.7544135e-01   3.8610919e-01   5.0164332e-01   7.8738256e-01  -7.3909229e-01  -5.6638775e-01   9.9729097e-01   2.5004373e-01  -4.9854700e-01   1.9646143e-01   3.2257627e-01  -8.4628229e-02   4.4766035e-01   2.2791469e-01  -1.2606999e-01  -3.2837560e-01  -7.4241244e-01   2.2914378e-01  -9.3086926e-01  -3.2459934e-01   3.1457591e-01  -2.8638385e-01   6.6606503e-01   8.8930736e-01   2.0510371e-01  -9.5449824e-01   1.0443926e-01  -7.5959411e-01   7.5136334e-01  -7.4035628e-01   3.6072501e-01  -5.7452114e-01   2.9083342e-01   9.8530835e-01   5.4203549e-01   2.3248405e-01   3.6098861e-01   1.1997561e-01   5.5291436e-01   4.5341469e-01  -5.9129628e-01  -1.3506172e-01   3.5497052e-01   6.2172289e-02   8.0251322e-01   4.1605298e-01  -4.6139489e-01   1.2037383e-01   4.4703799e-02   5.4986944e-01  -7.4101683e-01   1.9389921e-01  -2.7090226e-01   2.1359413e-01   3.9949102e-01  -8.5986964e-02  -7.7420819e-01  -3.4304276e-01   1.2079911e-01  -9.2476516e-01   8.0691966e-01   1.9240354e-01   1.4981346e-01   9.1460904e-01  -6.8951100e-01   2.0940693e-01  -4.4651524e-01   5.8788004e-01  -5.2789501e-01   7.7579225e-01  -5.3984662e-01   6.3693063e-01  -4.4943302e-02   1.5115386e-01  -3.5007472e-01   5.4035472e-02  -1.4675961e-01  -7.9811335e-01  -2.8287790e-01  -8.3291545e-01  -6.3841395e-01  -1.3363286e-01  -5.8996616e-01   7.1899379e-01  -1.4590667e-01  -1.5634969e-01  -7.3579532e-01  -6.6349062e-01  -1.2345409e-01  -1.2584437e-01   3.6523033e-01   6.0010149e-01  -8.7701839e-01   9.2599274e-01   1.3788930e-01   7.5909616e-01  -7.0384090e-02  -1.7298675e-01   5.1299576e-01   9.7478008e-01  -1.4761713e-01  -8.1851373e-01  -6.6959144e-01  -2.2733242e-01  -3.8378238e-01   5.1313476e-01   8.9285436e-01   5.9218929e-01   4.8719869e-01   7.7819355e-01   2.5349128e-01   8.6823236e-01   9.6892652e-01   1.2546817e-01  -2.9485936e-01  -7.1268811e-01  -9.9262819e-01  -6.6185319e-01   5.3427465e-02  -5.6833383e-01  -1.1637080e-01  -2.7961412e-01   3.6517146e-01   2.0404001e-01   5.1844871e-01  -7.9417884e-01   9.5833379e-01   8.5677745e-01   2.1226332e-02  -5.9329658e-01  -7.2195020e-02  -7.2433146e-01  -2.7539074e-01   1.9759865e-02  -5.6831688e-01  -3.5081154e-02   5.4390597e-01  -9.8536241e-01   1.7524862e-01  -5.7996714e-01  -4.1116345e-01   8.5074645e-01  -8.9590816e-01  -6.7854202e-01   5.2652520e-01   7.5142435e-01   8.3441214e-01  -3.5752854e-01   3.2092019e-01   7.9552351e-01  -6.9846497e-01   3.8763960e-01  -6.9103869e-01  -6.2187315e-01  -2.6633093e-01   8.8778381e-01  -8.0602160e-01   2.1875896e-01  -3.1874011e-01  -8.5294669e-01  -8.8232316e-01   4.2009783e-01  -8.6882337e-01  -2.6169758e-01   6.8164492e-01  -7.2214314e-01  -7.9926981e-01   5.1436640e-01  -1.6674415e-01  -8.0835597e-01   4.4877906e-01   9.3018860e-01  -9.2485851e-02  -9.3751497e-01   3.9425125e-01  -2.2446442e-01   2.5961230e-01   9.6348767e-01  -8.4558750e-01  -8.9294039e-01  -3.2827041e-01   5.8666588e-01   2.9353239e-01   9.0678244e-01   9.5608046e-01  -4.4393264e-01   8.3218970e-01   9.7627736e-01  -7.7641928e-01   3.8153453e-01  -2.5102717e-01  -1.6975555e-01  -8.3081522e-01  -2.7833936e-01   1.0599545e-01  -6.5470416e-01   4.1864095e-01   7.0159427e-01  -1.3525506e-01   7.0542784e-02   7.3590512e-01   4.7108115e-01  -4.0402322e-01  -5.1620963e-01  -1.8131023e-01  -9.8951176e-01   1.2905344e-01  -8.5770758e-01  -5.7816134e-01  -8.4628641e-01  -2.8047093e-01   2.2004511e-01   7.9951130e-01  -9.9637453e-01   3.2036818e-01   3.2035844e-01  -2.0409709e-01  -1.9167047e-01   1.2144235e-01   7.0145852e-01   1.9001464e-01  -8.5292959e-01  -1.6598554e-01  -8.0512373e-01   4.7575475e-01   6.5496582e-01  -4.5455147e-01  -7.5759291e-01  -4.7918533e-01  -2.0546398e-01  -8.8442150e-01   1.3518665e-02   2.1062496e-01  -2.6284273e-01  -3.1421741e-01   6.8752959e-01   1.2480811e-01   7.9232950e-01  -9.7731164e-01  -9.5441576e-01   4.3123915e-01   2.4543861e-01  -3.4461843e-01  -8.7051516e-01  -7.9733308e-01  -9.8684984e-02  -6.3878155e-02  -8.3610960e-01  -7.9638600e-01   8.0997191e-01  -1.8565398e-01  -6.9342751e-01  -3.8105156e-01  -4.0742081e-01   7.9377332e-01   6.7934135e-01  -5.1091325e-01  -8.9684692e-01  -7.1264802e-01   5.3213498e-01  -2.8762602e-01  -1.9243059e-01  -2.7387349e-01  -7.1850268e-02  -7.4740998e-02   4.8828973e-01  -7.8287720e-01  -2.5466941e-01   2.8217147e-01   4.6152858e-01  -1.7705256e-01  -4.9138376e-01  -7.9836800e-01   5.0782628e-01   1.9493532e-01  -9.4416784e-01   4.5631331e-01  -2.7905251e-01  -9.7034486e-01   7.3797382e-01   4.3017662e-01  -5.5344830e-01  -4.4357883e-01   3.1968877e-02  -6.2731304e-01  -2.6690991e-01  -1.9551999e-01  -1.7655352e-01  -5.3805356e-01  -9.1957481e-01   2.0864729e-01  -6.3988398e-01   1.7552840e-01   4.2346083e-01  -4.3058835e-01   9.7926938e-01   5.6117472e-01   1.6659072e-01   1.0691148e-01  -4.6072506e-01  -4.0975413e-01   1.7073828e-01  -6.0477590e-01  -5.3912574e-01   1.5612650e-01   5.4367629e-01   9.7842616e-01  -9.4434607e-01   8.6068866e-01  -2.2602841e-01  -5.8036081e-01   6.5460079e-01   6.8995567e-02   9.3648397e-01   1.0293088e-01  -4.6530776e-01  -1.9525842e-02   9.2816609e-02   6.7016217e-01  -9.0124101e-01   3.4845377e-01  -5.0173066e-01  -7.5482451e-01  -5.7052741e-01  -1.0897597e-01   7.5308522e-01   4.9675798e-02  -9.8741896e-01   9.8564674e-02  -1.8914487e-01  -8.9961012e-01  -1.7686820e-01  -3.3969740e-01  -3.4391409e-01  -2.2937016e-01  -1.4374932e-01  -5.6512819e-01  -4.7391199e-01   2.0075516e-01  -2.6869251e-01   3.8504189e-01  -2.6980342e-01  -4.7505943e-01  -6.3041097e-01  -3.0830419e-01   8.5097573e-01  -9.0313856e-01  -2.9053852e-01  -6.0543762e-01  -6.0497776e-01   2.8178368e-01  -9.8845525e-01  -4.3070349e-01   1.5608204e-01  -3.4397034e-01  -9.7925986e-01  -1.6220407e-01  -1.2327396e-01   7.3354260e-01   7.7785905e-02   1.9353004e-02   6.9667821e-02   4.2870277e-01   2.7023077e-01   3.9457046e-01   6.2699987e-01   1.1799737e-01  -6.9279837e-01  -2.5833217e-01  -1.0419134e-01  -8.0473719e-01  -1.0970693e-01  -1.9892007e-01   9.2029476e-01   3.6713631e-01  -2.5598060e-01  -9.9172865e-01   9.0819210e-01  -9.1688718e-01   5.8734064e-01  -2.8570239e-01   6.7779745e-01  -6.3506976e-01   1.4520182e-01  -7.8245653e-01   7.2404697e-01  -8.8725165e-01  -8.2967560e-01  -7.2422027e-01  -8.8085381e-01  -3.0416532e-01   2.8210055e-01   1.6986136e-01   4.6815499e-01  -4.2433715e-01  -5.6431173e-01   1.8386066e-02   2.8502689e-01  -1.2602481e-01  -9.7847694e-01  -6.6789545e-01   3.2600867e-01   9.2028234e-01  -4.5976559e-01   6.8204966e-01  -9.5343790e-02  -4.6414555e-01  -2.3939366e-01  -4.1537040e-01  -4.0929501e-01   3.7850988e-01   6.3770194e-01  -4.2317523e-01   6.8908594e-01  -7.1021877e-01  -7.1734702e-01  -8.0131141e-01   9.8989147e-01   1.3690669e-01   3.8514994e-01  -9.4087005e-01   2.8268642e-01   6.1154977e-01   5.8609496e-01   2.9881853e-01  -6.4073127e-01   7.1220158e-01   5.1318683e-01  -2.9945144e-01  -2.0800324e-01   5.7997331e-02   2.9859966e-01   1.9549577e-01   3.8668339e-01   7.6172860e-01   7.9192001e-01  -2.8155675e-01   5.1123360e-01   1.0417663e-01  -9.1797320e-01  -7.7264094e-01   2.8182373e-01  -6.8526023e-01   1.4426814e-01   1.2112563e-01   2.7279033e-01   7.3708194e-01   6.0078009e-01  -7.7896121e-01   7.7791773e-01  -1.3799097e-01   6.0461873e-01  -4.5397640e-01  -2.1286325e-01   6.1161188e-01   2.4405625e-01  -7.3769991e-01   1.4493864e-01   3.1099540e-01  -2.6226142e-01  -8.9194926e-01   2.5997775e-01  -9.6162854e-01  -5.7109553e-01  -6.1188031e-01  -2.4496814e-02  -9.2876424e-01   6.2498426e-01
   2.5251156e-01  -4.7820466e-01   6.9625458e-01  -2.7522523e-02  -1.4659327e-01  -3.1352850e-01  -2.6911795e-01  -5.4380106e-01   2.3085849e-03   5.3542353e-02  -7.0442289e-01   4.7678812e-01   1.1710042e-01   9.6449170e-01  -9.0963474e-01   9.4640261e-01   1.6648118e-01  -2.9364575e-01   4.7106258e-01   7.1961547e-01  -1.5786342e-01  -3.9285760e-01  -8.4838284e-01  -3.5708942e-02   5.4206958e-01   5.3520469e-01  -5.8985085e-01  -7.0547346e-01  -8.8117791e-02  -9.0514735e-01   3.1493667e-01   3.9065688e-01   4.7730799e-01  -3.2795336e-01  -4.3663765e-01   5.5579701e-01  -7.1199365e-01  -8.8308858e-01  -1.2677773e-01  -4.0430438e-01  -8.7816357e-01  -1.7308237e-03   1.2825640e-01   6.4865703e-01  -4.3688822e-01   3.9273580e-01  -3.8402697e-03   4.7399719e-01  -6.1805067e-01   9.2652735e-02   5.8111120e-01  -9.3403188e-01   4.2528752e-01   1.4409357e-01  -6.5671290e-01  -5.4340787e-01   4.0826789e-01  -1.1282070e-01   3.6722224e-01  -9.8504762e-01   5.8739306e-02  -4.4501478e-01  -1.8548940e-01   8.9662380e-01  -4.7250376e-01   6.8167259e-01  -8.9259321e-01   1.2185873e-01   2.2418384e-01   5.6392860e-01   3.2412920e-01   6.2885110e-01   5.3960748e-01   8.7469274e-01   4.3466478e-01  -9.6438879e-01   8.0909032e-01   3.1791860e-01  -6.7306607e-01   2.9216183e-01   8.8062234e-01   5.2482105e-03  -8.4372051e-01  -3.6814046e-01   5.3407140e-01   4.0707069e-01  -9.6843976e-01  -3.8221686e-01  -9.3985674e-02  -2.9137742e-02   5.4313501e-01   4.0814245e-01   3.6375401e-01  -5.7828687e-01   9.1411065e-01  -7.5815598e-01  -3.8767736e-01   8.5824191e-02  -1.8399879e-01   8.4934534e-01  -3.5679578e-01  -6.0315027e-01  -9.7032710e-01   7.4673562e-01  -9.7404664e-01  -6.1349557e-01   2.5069213e-01   6.8722895e-01   4.6903314e-02   5.2942182e-02   6.0159270e-01  -1.0815189e-03  -7.6969196e-01   8.0953872e-01   7.6533814e-01   5.6901352e-02   7.6100766e-01   6.1013655e-01  -7.3147059e-01  -5.2409876e-01   3.6079039e-01  -7.0437753e-01   4.8018216e-01   1.7620919e-01   8.1827506e-01   9.9453183e-01  -1.1719206e-01   1.2908079e-01   2.7523664e-01  -8.8737585e-01  -8.2581656e-01   5.4251279e-01  -7.7128177e-01   8.5553516e-01  -4.6440268e-01  -7.0088882e-01  -7.0788831e-01   6.2294145e-01  -9.4204185e-01  -6.0921361e-01   8.8600688e-01   7.2632237e-01   3.1469132e-01   5.5878986e-01   5.9552383e-01   3.7656178e-01   2.0344541e-01  -3.7631970e-01   5.3357978e-01  -4.9988296e-01   8.9086668e-01  -5.5241156e-01   2.0215345e-01   4.0511677e-01  -6.5605816e-01  -7.3467438e-01  -6.8646575e-01   4.3881393e-01   1.7366792e-02  -8.7559709e-01  -7.8692245e-01   7.7541957e-01   3.2975519e-02   5.7651599e-01  -5.2648326e-01  -6.2593731e-02   1.8396213e-01  -3.8584776e-01  -7.6008325e-01  -7.9832154e-01   6.2357898e-02  -7.2149703e-02   7.3692460e-01   1.5724157e-01  -8.6143525e-01  -8.3326552e-01   9.9301780e-01  -6.8006632e-01   8.6015235e-02  -6.6303788e-01  -6.2066691e-01   6.7581632e-01  -4.3140598e-01  -5.1879946e-01   2.8547220e-01  -4.6710437e-01   9.4354351e-01  -4.8190284e-01   8.6561656e-01  -2.0517106e-01   5.6006181e-01   3.2768467e-01   6.9950765e-01  -9.6568454e-01   7.8696267e-01  -3.6920125e-02   8.1976707e-01   6.7664179e-01  -9.2973186e-01   1.0748222e-01  -4.5964497e-01  -7.1175273e-01  -6.9053550e-01  -9.8529708e-01   2.9573247e-01  -9.3621094e-01  -6.3193473e-01  -7.0349014e-01  -1.7597559e-01   5.9090228e-01  -2.3287411e-01  -4.7362439e-01  -3.3561623e-01   1.6450461e-02   3.1764640e-01  -8.6043611e-01  -3.7713994e-01   9.4563074e-01  -1.9466723e-01   8.0445259e-01  -5.8570126e-01  -7.3255117e-01  -4.6645506e-01   4.3379262e-01  -2.1354776e-01   6.9724319e-01  -7.9539094e-01  -8.1149311e-01   9.9048774e-01  -7.3967387e-01   3.3797351e-01  -3.2931735e-01   5.1960981e-01  -2.2513757e-01  -2.3829879e-01  -9.5333681e-01   3.4127563e-01  -3.3788327e-01  -7.2896828e-01   9.1215697e-01   9.5175871e-01  -5.7598181e-01   4.1384685e-01   8.0653198e-01  -7.9836247e-01   8.2820947e-01   9.4841221e-02   2.8094466e-01  -4.0030161e-01  -7.8350337e-01   1.2064322e-01  -4.0796404e-02   7.2197828e-01   1.3822087e-01  -1.3119672e-01   3.1459699e-01   8.4963759e-01  -6.9299119e-01  -5.9444936e-01   6.5520796e-01   2.7375636e-01   4.5877093e-01  -9.9413671e-01   3.6811311e-01  -3.4838512e-01  -5.2035059e-01   5.7634496e-02   2.5657978e-01   2.6286787e-01   4.5819623e-01  -2.3662156e-01   1.0454119e-01   3.9541387e-01  -7.2768049e-01   7.2387714e-01   5.4006699e-01  -2.4194924e-01   2.5002234e-01   6.1749657e-02   3.6890148e-01   8.7510039e-03  -3.2198787e-01  -3.7639063e-02  -1.6671229e-02  -5.9330839e-01   7.4821972e-01   2.5327137e-01  -4.2799904e-01   9.1494668e-01  -9.9346833e-01  -2.3658290e-01   8.1199091e-02   3.6702742e-01   2.8706621e-01   6.8822269e-01  -5.0882224e-01  -4.8719482e-01   7.7152939e-01   8.1327827e-01   8.5262068e-01   1.4117995e-01  -5.5912983e-01   9.5673161e-01   7.2245726e-01  -9.0507277e-02   1.1943288e-01  -3.7778947e-01  -7.3848215e-01  -4.5978977e-01   9.5908119e-01   8.3647353e-01  -6.0763092e-01  -7.8246244e-01   3.3768402e-01  -9.0801519e-01  -8.5078600e-02   8.3678515e-01   3.6892453e-01   7.2585449e-01  -3.7779653e-01  -8.7909958e-01   4.1914065e-01  -3.9686604e-01  -1.1237767e-01  -3.7115718e-01  -4.2667314e-01  -9.7514710e-01  -7.9033141e-01   9.2503917e-01  -7.9832206e-02   5.3278458e-01  -2.6656680e-01   7.1526718e-01   2.0636810e-01   5.5093441e-01   1.9071355e-01   7.9205261e-01   1.0934964e-01   7.2850324e-01   2.6069417e-01   7.3478895e-01  -1.3834424e-01   8.8796387e-01  -4.6682469e-01  -2.3340771e-01  -5.3113683e-01  -5.7948513e-01   3.1210516e-01  -8.7559935e-01   1.6352115e-01  -5.0734712e-01  -9.0049165e-01   9.6550704e-01   8.2922000e-01   6.7520613e-02  -3.0989420e-01  -6.0096985e-01   5.6043255e-01  -5.8917244e-01   9.6201712e-01  -4.0303123e-01  -4.4263944e-01   1.5327218e-01   4.6646237e-01  -8.3176440e-01   7.7935043e-01  -6.2174350e-01  -4.0230072e-01  -4.1384302e-01  -7.0037266e-01   2.4260703e-02   6.0100210e-01  -1.6587526e-01  -4.8016932e-01   4.4237851e-01   6.9914462e-01  -4.9376202e-01   7.0399779e-01  -7.0589549e-01  -8.3845815e-01   9.9333283e-01   1.1142720e-01  -9.9708535e-01  -2.0129848e-01  -7.5105633e-01   7.0708656e-01   9.9750362e-02   7.5413310e-01   1.7104546e-01  -6.5673464e-01  -1.6094755e-01   7.3396617e-01  -9.7985149e-01  -5.1496496e-01   3.4917434e-01   1.9376716e-01   1.1535324e-01   3.7589495e-01   5.8977891e-01   7.7270569e-01   1.7164531e-02   5.3812491e-02   1.0398052e-01   6.5932033e-01  -2.7096696e-01  -1.6583721e-01   6.3800118e-02   4.1024501e-02  -8.2016500e-01   9.8862420e-02  -9.0005081e-01   9.0420665e-01  -9.8933643e-03  -4.5201675e-01  -8.4306290e-01  -3.9148658e-01   6.6506569e-01   4.2721316e-01   3.5982372e-01   8.9320905e-01   2.9647586e-01   9.3997805e-02   8.9413326e-01   6.4876012e-02  -3.2690505e-01  -4.2347464e-01   5.8476378e-01   8.4453062e-01   5.0257631e-01  -9.2668333e-01   3.9578103e-01  -2.5791738e-01  -1.1755509e-01  -2.9171123e-01   5.8470314e-01   7.2336499e-02  -3.0778824e-01  -6.5194238e-01   5.9820595e-02  -8.8585421e-01  -1.8022015e-01   7.6564562e-01  -9.0008162e-01   4.7303454e-01  -1.2266283e-01  -1.1595990e-02   3.3347174e-01  -1.3304414e-01   4.7231390e-01  -7.9034623e-01   4.1659783e-01  -4.9135259e-01  -8.9021793e-01  -5.6835718e-01  -7.7590957e-01   2.9831576e-01   1.3552277e-01  -8.0550898e-01  -5.5796139e-01  -8.3697863e-02   7.0907832e-01   4.3094832e-01  -5.7340456e-01  -6.7168997e-01  -4.9128015e-01  -6.9113921e-01  -9.8335547e-01  -2.9299550e-01  -5.2952050e-01   3.5728539e-01   1.5548721e-01   5.8290305e-01   7.1223806e-01   4.6273595e-01   3.3101580e-01   7.4015865e-01  -7.4354060e-01  -8.3881796e-01  -9.9790689e-01   7.9246472e-01  -8.9842662e-01  -3.8587540e-01  -3.7981162e-01   2.2191505e-01  -5.0748124e-01   8.5584069e-01   1.6595503e-01   8.0024184e-02   8.7789228e-01  -4.9039923e-02  -7.6792035e-01  -3.2914531e-01   9.0896265e-01  -9.2548115e-01   6.4127361e-01   5.7406793e-01  -7.3372531e-01  -7.2844535e-01   2.8090709e-01  -4.0095181e-01   7.7366855e-01   2.3079409e-01   9.1756201e-01  -3.3701665e-01  -1.1766615e-01  -7.2844074e-02   6.9488886e-01  -4.9564389e-01   2.1841341e-01  -5.1468870e-02   7.8883585e-01  -8.1256661e-01   8.6798723e-01  -7.8363586e-01  -6.9466459e-01  -2.2490759e-01  -9.5378978e-01   1.7647613e-01   7.8556174e-01   7.3878631e-01  -9.3346076e-01  -7.1197526e-01   8.4722346e-01  -2.6041416e-01   8.5842523e-01   5.2153154e-01  -5.1540859e-01   6.5841702e-01  -7.8225697e-01   9.7163632e-01  -4.1209256e-01  -7.8802118e-01  -8.8159165e-01  -6.8191913e-01   8.8699884e-02   8.8392977e-02   6.9246487e-01  -8.4779994e-01   6.6860880e-01  -9.4089356e-01  -6.0933568e-01  -7.6937226e-01   8.8060652e-01  -3.3104428e-01  -9.0276560e-01  -6.5556159e-01   3.6731529e-01   1.5288268e-01   6.1458805e-01   9.8992346e-01   1.0712394e-03  -6.4098229e-01  -1.0779376e-01  -1.8736223e-01   8.6587658e-01  -6.0624575e-01   1.4561442e-01   6.3522855e-02  -5.3319571e-01  -8.0038561e-01   5.8362943e-01  -2.2468690e-01  -8.9065338e-01  -6.9104571e-01  -3.1598305e-01  -5.1971936e-02   3.9267849e-01  -9.4775990e-01  -2.4588425e-01  -9.6417408e-02   4.1145162e-01   5.7322645e-01   2.5948319e-01  -9.7265065e-01  -2.1224901e-01  -6.5428788e-01  -7.0223243e-01   4.8638663e-01  -7.9397132e-01   5.3315573e-01   1.2423183e-01   4.2277880e-01   6.1939384e-01   1.5370122e-01  -5.6382065e-01   8.0509961e-01  -6.1465905e-01  -5.6482132e-01  -2.0323165e-01  -5.0126988e-02  -2.8891736e-01  -9.7795185e-01   5.8045912e-01  -7.7696051e-01   3.3590978e-01  -6.6332164e-01  -4.8706255e-01   3.6293800e-01   6.9870001e-02   8.1228869e-01   1.8984562e-01   7.0338840e-01  -6.4385108e-01  -8.0957261e-01  -1.4215684e-01   5.0106473e-01   5.3914403e-01  -7.1449251e-01  -6.7124907e-01   7.7451474e-01   3.8377386e-01  -1.8147597e-01   5.5240194e-01  -1.7276272e-01   3.3128729e-01   8.2449531e-01  -1.4419919e-01   1.8635496e-01  -1.9197439e-01   2.5002586e-01   1.1192893e-01   3.8414281e-01   4.3979676e-01  -6.1969711e-01  -1.0063681e-01   9.9852384e-01  -4.8481636e-01  -1.4503876e-01   7.5786155e-01   2.1120536e-01  -5.7347404e-01   3.3695535e-01   1.1619808e-01   1.3241707e-01   6.2205532e-01  -4.8158208e-01   4.6331666e-01   4.9511817e-02   2.7423971e-01   3.1150776e-01   7.1035963e-01   1.7636378e-01  -4.3342290e-01   7.4761791e-01   6.6747419e-01  -8.5013168e-01   6.4164438e-01   5.7731465e-01  -7.9645323e-01   4.3896017e-01  -5.7175914e-02  -5.6409781e-01   6.0958875e-01  -1.6070471e-01  -4.2213440e-01  -2.3645688e-01   7.3919481e-01  -3.1881005e-01   9.8252260e-01  -2.4930668e-02   5.1651122e-01  -5.7097989e-01   8.6555342e-01   7.0189332e-01   2.9442395e-01  -4.8487371e-01   2.7330988e-01  -9.0638711e-01   5.5452985e-01  -1.1289255e-01  -2.7333738e-02   5.6332504e-01   5.1519348e-01   7.9614995e-01   9.9363425e-01  -9.7481270e-01   4.7175221e-01   7.3018405e-01  -1.7637889e-01   3.2561436e-01  -2.4545993e-02   3.6689616e-01  -7.8570598e-02   4.9039679e-01  -4.0399483e-01   8.2539656e-01   5.2094187e-02  -6.9169202e-01   8.6227602e-01   1.9579199e-01  -8.4570843e-01  -8.4637986e-01   5.6514969e-01   4.5540219e-01  -6.5698345e-01   5.6360569e-01  -8.9219740e-01  -2.3217802e-01  -8.3699879e-01   1.4501709e-01   1.7066338e-01  -5.0659981e-02   4.0428396e-01   1.4023077e-01   6.8275174e-01  -7.4877503e-03  -6.1894272e-01   1.7532172e-01   1.7780880e-01   7.8850173e-01   3.8535687e-01  -2.0582466e-01  -8.4678688e-01   5.4199118e-01  -8.1605622e-01   4.7398992e-01   9.2183020e-01   4.8745670e-01   2.9671085e-01  -5.4895075e-01   6.6634515e-01  -7.2993553e-01  -2.4844170e-01   3.0931690e-01   4.2688241e-01  -7.1364088e-02   5.2590737e-01  -3.2062251e-02  -8.6572424e-02   1.4978243e-01   5.0014465e-01  -1.9323908e-01  -3.2341521e-01   3.0687012e-01   7.0399349e-01   2.3907863e-01   6.4734919e-01   9.7679541e-01   7.0680328e-02   9.4570681e-01   9.5102937e-01  -6.4637714e-01   1.5935215e-01  -7.4107905e-01   2.4629558e-01  -1.6213259e-01   6.0110876e-01   1.0964681e-01  -7.9531160e-01   5.8518154e-02   3.0380024e-01   6.8908399e-01  -7.3616824e-02   1.6296008e-01   9.7367404e-01   7.9625884e-01   5.2711894e-01   9.2979430e-01  -7.9151241e-01  -1.2363286e-01   3.4125925e-01  -1.7898705e-01  -1.6941860e-01   6.2149622e-02   1.7919218e-01   3.1009649e-01   9.2776458e-01  -1.6367430e-01  -5.9217738e-01  -7.3906982e-01   9.6902782e-01  -4.0877919e-01   6.6567826e-02  -2.8329584e-01  -9.0649327e-01   1.8505935e-02  -9.5340660e-01  -8.9599981e-01   7.5296380e-01   9.0139114e-01  -1.4924990e-01   1.5300588e-01  -4.5289588e-01   3.1155565e-01   4.4794009e-01  -6.0388411e-01   7.1302585e-01   8.6703373e-01   7.3975494e-01   2.6139417e-03  -5.0469952e-01   1.5322541e-01  -7.1760746e-01   2.2162421e-02   4.3793757e-01   4.0369502e-01  -1.2486375e-01   5.2771061e-01   9.2532842e-02   5.4892786e-01  -9.1307717e-01  -3.9414650e-01   6.3909605e-01  -5.3711511e-01   1.0600390e-02   4.8588156e-01   4.2626348e-01  -2.4901201e-01  -9.1645373e-01  -3.8724259e-01  -1.9336922e-01  -4.4248235e-01  -6.3202252e-01  -5.4924636e-01  -8.8351707e-01  -9.1040129e-01   8.4593324e-01   5.9309682e-01   9.3203706e-01  -1.2906403e-01  -9.6105784e-02   7.2377081e-01  -1.6327341e-02  -6.6740681e-01   3.6387845e-01  -9.8939963e-01  -4.8335107e-02  -7.9427634e-01  -8.5634214e-01  -5.7953904e-01  -4.4480952e-01   2.5519686e-01   6.3593882e-01   2.1719152e-02  -8.9705604e-01  -5.4924840e-01   5.0835663e-01  -8.3799030e-01  -7.1337261e-01  -5.7407346e-01   6.8165867e-01   2.8101247e-01   6.0454831e-01  -2.9523882e-01   2.1856755e-01   9.6376928e-01  -7.3099942e-01   3.3137472e-02  -7.8156042e-01   1.9227707e-01   5.1635630e-01   5.9114847e-01  -1.2725817e-01  -5.2742088e-01  -2.0722353e-01   3.8688671e-01   3.4234093e-01  -1.8735085e-01   7.0142708e-01   1.7697600e-01  -8.6030019e-02  -2.1680066e-02  -5.2087828e-01   4.6787841e-01   7.7844253e-01   9.1889539e-02  -3.4845639e-01  -4.7429502e-01  -8.2938868e-01   6.6867640e-01   7.6130081e-01  -9.4707098e-01   3.5753996e-02   1.0131804e-01   3.6067894e-01  -3.5357710e-01   8.8039360e-01  -7.6646697e-01   2.1814570e-01  -7.2569226e-01   8.8273754e-01  -3.7795333e-01  -6.1929224e-01   7.8506787e-01  -3.1960881e-01   1.1214134e-01   7.8993962e-01   6.3578032e-01  -2.0329692e-01   1.8799837e-01  -9.3627719e-01  -8.0249145e-01   6.4564713e-01  -1.8681187e-01   1.9599851e-01  -3.2846397e-01   6.7488464e-02   8.6870020e-01  -4.0114353e-02  -1.9722197e-02   7.4394192e-01  -9.0377581e-01   6.8103686e-01  -9.7399771e-01   8.6070874e-01   2.5751778e-01  -3.5139192e-02   9.5158484e-02  -3.0393640e-01  -5.3144456e-01  -2.0172406e-01   9.4993562e-01  -7.0514345e-01  -3.9145711e-01  -3.7071011e-01   5.3694466e-01  -5.9585698e-01  -2.5575593e-01   4.7209041e-01  -5.6992159e-01   1.8433466e-01   4.9158334e-01  -4.8450367e-01   5.1566471e-01   3.7496701e-01  -7.8735953e-01  -5.1043073e-01  -6.6059524e-01  -1.0647576e-01   3.4120667e-01   2.2520618e-01  -6.6374924e-01  -5.5356476e-02  -7.0414019e-01  -9.2281628e-02  -7.0226024e-01   7.4683301e-03   7.3842813e-01   5.0751646e-01   8.3376528e-01   2.9165579e-01  -5.5745509e-01   3.2383104e-02  -6.1581682e-01   9.0244468e-01   6.8919680e-01   9.7589607e-01  -5.1417326e-01   6.3768271e-02  -9.5842997e-01   5.8074611e-01   2.9052695e-01  -5.3219044e-01  -1.6114949e-01   7.8885419e-01   9.0515529e-01   2.9244557e-01   6.3317916e-01   8.0832473e-02   4.7537153e-01   4.0058470e-01  -2.8944577e-01  -3.3880900e-02  -4.0687579e-01  -4.2019301e-02  -5.9442534e-01  -3.0232768e-02   7.7466156e-01   8.2806891e-01   4.9660397e-01  -1.3602910e-01  -2.3383509e-01   7.0382174e-01  -7.7420969e-01   5.1115453e-01  -7.4866466e-01   7.5110778e-01  -7.1400846e-01   7.6817427e-01  -1.4726056e-01   8.8288436e-01   2.0915288e-01   9.8196476e-01   7.1805778e-01   3.8996310e-01   5.2714784e-01   6.4319486e-01   6.5371879e-01  -6.8429135e-01  -4.7991787e-01  -5.9957463e-01  -9.5254401e-01   1.0190013e-01   4.5721005e-01   9.9679588e-01  -7.0343415e-01   5.0040472e-01   2.8177268e-02   9.1710202e-02   7.0967868e-01
  -3.4395806e-01  -6.5414612e-01  -8.6743609e-01   2.0605253e-01   3.2180979e-01  -6.3673646e-01   7.9924770e-01  -8.3684669e-01   5.7708641e-01  -7.3464624e-01  -7.2025851e-01   1.4921865e-01   4.2525510e-01  -5.2367045e-01  -4.9301825e-01   1.4567549e-01  -8.9658206e-01   5.4306765e-01   5.4283940e-01  -2.6807975e-01  -7.2803442e-01   4.0445864e-01  -5.7530990e-01   3.8761423e-01   5.4799456e-01  -7.9242012e-01   1.2902667e-01   4.1671588e-01  -7.3938631e-01   6.9573515e-01  -9.4891954e-01  -6.7382590e-01  -5.9351075e-01   7.8289200e-01   4.7849026e-01   8.2530471e-01  -2.1779310e-01  -5.4402473e-01  -3.6964613e-01   5.7495221e-01  -1.7269095e-01   7.3742114e-01  -2.7034383e-01  -7.9227867e-01   8.8711531e-02   6.0826720e-01   3.2541670e-01  -2.7899547e-01  -8.0124357e-02   1.5789083e-01   3.0534749e-01   6.7518842e-01  -9.1015514e-02  -6.5920569e-01  -2.2485076e-01   9.2269216e-01  -6.4999277e-01  -9.2885897e-01   4.0991206e-01   6.7389262e-01   7.2215957e-01   6.4122894e-01  -1.9280156e-01  -6.0624657e-01  -9.4675314e-01  -4.0195784e-01   2.5071298e-01   6.5154954e-01  -7.9305196e-01  -5.8145220e-01  -7.1508978e-02  -6.0693880e-02   7.8610263e-01  -7.4707813e-01   9.7700446e-01   9.9719601e-01  -9.1701133e-01  -6.4019407e-01   9.0672475e-01   1.6297165e-02   9.4150596e-01  -8.0473490e-01  -8.1385436e-01  -2.7808422e-01   3.8394182e-01   1.4853550e-01  -1.9432358e-01  -5.0142484e-01   3.9084787e-01   7.3107114e-02   4.7767749e-01  -8.2427853e-01  -6.5217019e-01   9.3705407e-01  -1.4120182e-01  -4.8487603e-01  -9.5111422e-01  -1.5168745e-01   6.7624330e-01   2.0842648e-01  -1.2887431e-01   7.8303862e-01  -3.9183650e-01   6.6487179e-01   5.0588911e-01  -4.8627620e-01   5.6550388e-01  -1.1647864e-01  -6.0454413e-01   9.0523561e-01  -9.9053606e-01   2.3409181e-01   7.8960640e-01   4.3630002e-01   5.6751439e-01  -5.4415091e-01   6.2414846e-01  -6.3595905e-01  -4.7024020e-01   1.1384988e-01   7.1955233e-01  -4.9288375e-02   6.5189565e-01  -1.0430939e-01  -9.1789269e-02   5.2174383e-01   9.3788584e-01   2.4170581e-01  -5.6681242e-01  -9.7383406e-01  -2.4847947e-01  -3.0903111e-01   3.2088820e-01   1.2138453e-01  -8.6927244e-01  -5.7506991e-01  -3.1174640e-01   3.0304707e-01   2.0187122e-01  -3.2369838e-01   6.1476077e-01  -7.5533249e-01   9.6906402e-01  -7.2108267e-01  -1.0853961e-01   9.1344011e-01   4.3914624e-01  -8.4913100e-01   2.5507595e-02  -7.0858805e-01  -4.1408912e-01  -1.7146994e-01   1.5013627e-01  -6.0367664e-02  -3.9313101e-01   1.8991974e-02   9.9449878e-01  -7.1728831e-01   7.2992667e-01  -2.3574644e-01  -7.9517679e-01  -9.1586776e-01   5.5675645e-01   4.6185977e-01  -8.9022739e-01   9.4207677e-01  -7.0280019e-01  -9.9675014e-01  -6.4010848e-01   9.0533446e-01  -7.1384678e-01   2.9715037e-01  -4.6100251e-01  -8.2746526e-02   5.8751185e-01  -9.6550817e-01  -5.1853630e-04  -2.6772944e-01   9.8734597e-01   5.2445676e-01  -5.7932921e-01   8.3566163e-01   5.8546114e-01  -2.0696289e-01   3.8486249e-01   2.5441126e-01  -3.3370914e-01   6.6499819e-01   4.4044384e-01   7.6395084e-02  -9.1606987e-01   9.2627631e-01   9.5377521e-01  -6.1071480e-01  -2.8746167e-01  -4.4464067e-01  -7.3907373e-01  -4.7299000e-01  -9.6501461e-01   6.7772122e-01  -2.1482225e-01   8.0254680e-02   5.0184751e-01   9.5318257e-01  -5.5841088e-01   1.1232792e-01   1.9753912e-01  -8.6988398e-01   6.9190818e-01   1.6811270e-01   5.1003005e-01   5.6734952e-01  -9.7652490e-01   6.8933029e-01   4.5513859e-01   6.3252613e-01   2.2915125e-02  -2.9208113e-01  -6.3257442e-01  -3.9277806e-01  -6.0382982e-01   4.6058529e-01  -6.6863129e-01  -7.9344618e-01   5.6524797e-02  -7.2899497e-01   2.7165196e-01   5.7938828e-02   6.7628343e-01  -5.2210533e-01   8.5686890e-01  -3.1594337e-01  -9.8259933e-01   2.2909318e-01   2.1172190e-01  -5.0108126e-01   4.9525509e-01  -3.9434384e-01   7.8210433e-01  -2.3842138e-02   1.8790379e-02   5.9701763e-02  -2.3283244e-01   9.3727938e-01  -5.6031437e-01  -5.2816329e-01  -8.0097282e-01  -3.5486400e-01   2.9928190e-01  -2.7326718e-01   8.0271776e-01  -6.0982052e-01  -1.0360436e-01  -5.9349120e-01   3.7947255e-01   1.5741357e-01   8.1867117e-01  -2.8901786e-01  -2.7092472e-01  -4.2247397e-01   4.3639529e-01   6.1486519e-01  -5.6383160e-01   3.5189456e-01   7.6683724e-01   7.4864482e-01  -3.6662151e-02  -1.2049618e-01   8.4657563e-01   8.0191533e-01  -3.5142639e-02  -8.8791687e-01   3.2897094e-01  -1.7459646e-01  -4.7462585e-01   7.7446387e-01  -2.9209934e-01   9.0324127e-01  -9.3948591e-01   7.2439562e-01   5.0985235e-01  -2.0526632e-01  -1.8148072e-01   1.3575702e-01   2.0796897e-01  -7.6557481e-02   2.2096491e-01  -7.7272890e-01  -3.9286917e-01  -2.5034617e-01   7.6101532e-01  -1.9174973e-01   9.3642819e-01  -5.9805847e-01  -1.6641540e-01  -6.3655360e-01  -3.6052819e-01   9.5689067e-01   1.4835514e-01  -9.3680849e-01   7.6910953e-01  -6.8265724e-01  -7.9441412e-01  -6.3595005e-01   6.0836097e-01   5.7892602e-01   5.3395001e-01  -2.5777642e-01   7.2347492e-01  -5.3398333e-01  -9.1525595e-01   5.4499849e-02  -4.5068346e-01  -9.5098639e-01   4.7383546e-01  -2.8253591e-01  -5.3097177e-02   3.1027557e-01   6.9583556e-01   8.1211395e-01  -7.2223300e-01   2.3144691e-01   3.3231816e-01   2.5956409e-01   3.5761692e-01  -3.2100079e-01   7.0504399e-01   6.3014738e-01   8.0738245e-01   4.4592673e-01   3.2867045e-01   6.0156306e-01  -2.9917187e-01   2.4302432e-02   6.6762539e-01  -7.3186430e-02  -8.6711920e-01   8.2762936e-01  -4.3312289e-01   8.1867985e-01  -3.8967694e-01   1.9559510e-01   6.5104681e-01   8.4686412e-01  -9.1822195e-01   7.5423537e-01   2.6988524e-01   5.2881763e-01  -4.4075662e-02  -3.4839985e-02   7.4238466e-01  -5.7369772e-01   1.3418035e-01  -6.5183183e-01   2.9615772e-01  -1.8479458e-01   6.3946533e-04   4.9794743e-01  -1.4552515e-01  -4.1276569e-02  -5.4272170e-01   5.0906499e-01  -5.2043242e-01   8.1621646e-01  -6.1511311e-01   7.3028950e-01  -2.1098266e-02   2.9387093e-01   8.9410729e-01  -7.1306749e-01   5.1810778e-01   6.3943265e-03  -1.3795567e-01   9.5632630e-01  -3.8130368e-01  -1.1453994e-01   5.4810146e-02  -5.7264867e-01  -6.8234386e-01   1.6949161e-01  -5.6220244e-01  -1.2965598e-01   9.7095939e-01   7.2442274e-01  -8.8512368e-01  -7.5023744e-01   5.7092953e-01  -1.9068016e-01  -6.7709300e-01  -2.9087838e-01  -4.2627492e-01   1.3950672e-01   9.0875061e-01   2.0073774e-01  -1.9687049e-01   2.7368752e-01   1.7004013e-01  -9.8483760e-01  -2.9945790e-01   8.8093549e-01   1.8833978e-01  -9.6726343e-01   4.5079614e-01  -4.1334909e-01  -9.1455635e-01  -2.8790392e-01  -5.3757392e-01  -2.3206255e-01   8.0908246e-01  -6.7943655e-01   3.6611538e-01   7.6335486e-01  -2.1312179e-01   5.4948193e-01   6.1566515e-01  -3.9236646e-01   2.5961793e-02  -7.3745225e-02  -2.0124326e-01   4.5728330e-01  -5.2686061e-01  -3.6426097e-02   3.9530410e-01  -1.8100764e-01  -6.4490482e-01   8.0614554e-01   5.8310732e-01   7.2433859e-01  -4.5474824e-01  -8.2487630e-01   2.6900144e-01  -2.9274064e-01   5.2876537e-01  -6.0820905e-02  -6.9709063e-01   6.5567364e-01   1.5958426e-02  -3.1949988e-01   5.3566629e-01   5.0356277e-01  -4.8322990e-01  -8.1278078e-01  -3.6277171e-01   8.8898747e-01   3.8287243e-01   9.7792184e-01   1.7597745e-01   1.2508181e-01  -5.8923909e-01   6.9655226e-02  -9.7100916e-01   4.1241103e-02   5.2762083e-02  -2.5459887e-01  -1.7086962e-02  -9.3606515e-01   1.3858742e-01  -3.8277438e-01  -2.0245976e-01  -6.2520538e-01  -6.1175936e-01  -3.7977024e-01   7.4603425e-01   7.9462628e-01  -4.6880395e-01  -4.3097340e-01   6.4642869e-01   2.9801092e-01   4.1486179e-01   2.1708415e-01  -7.8183867e-01  -7.8092291e-01   9.2768231e-01   2.6257271e-01  -9.1306134e-01   5.8731242e-01  -6.0966290e-01   8.8013630e-02  -2.7190363e-01  -5.8892181e-01  -6.4839560e-02   5.8624013e-01  -6.0526223e-01   8.8654632e-02   3.8466342e-01  -1.9618645e-01  -1.0719929e-01   9.7688046e-03   2.6628978e-01   5.7383089e-02  -7.4552818e-01   5.4183243e-01   6.6815698e-01   3.0523476e-01  -5.2636242e-01  -6.9831789e-01   9.1572735e-01   7.1344736e-01   5.1537069e-01  -3.9655037e-01  -7.3016237e-01  -6.8379110e-01   5.3920533e-02  -9.3863276e-01   4.6931507e-01  -2.7479262e-01   4.4159009e-01   8.9354619e-01  -4.5620580e-01   2.9785312e-01  -3.1343768e-01   9.4561799e-01   1.3172883e-01  -7.7360259e-01  -6.7179238e-01  -5.6919914e-01  -3.5101899e-01  -8.3203461e-01  -8.1204084e-01   8.9110423e-01   9.5419005e-01  -5.5483415e-01  -2.4331092e-02  -8.3084071e-01  -6.8845338e-01   5.0013937e-01  -1.9686945e-01   1.5915786e-01   1.7896833e-01   7.3603822e-02   8.1857143e-02   6.4916507e-01  -9.2229513e-01   7.4656680e-01  -3.3453915e-01   1.4666379e-01   3.3831952e-01  -2.8435590e-01  -4.9468832e-01  -7.1277097e-01   2.5293679e-01   3.9852435e-01  -4.9037572e-01  -3.8570480e-01   9.9938672e-01  -4.4426264e-01   4.6375568e-01   7.9446624e-01  -3.1557216e-01  -6.2523602e-01  -9.6854256e-01  -4.6217548e-01   4.2070110e-01  -5.3450403e-01   5.6968177e-01  -1.3255747e-01   9.0438779e-01   3.5730947e-01  -1.7086728e-01   9.6740323e-01  -1.2208526e-01  -2.7684818e-01  -6.5416135e-01   2.1446742e-01   1.1148404e-01   7.0296674e-01   9.9302099e-01  -5.7089493e-01   2.7956231e-01  -6.1865264e-01   5.5816998e-01   3.1294140e-01  -8.5427304e-01   8.0455365e-01  -9.6955430e-02   8.0939058e-01   5.0924270e-01  -3.6040860e-02  -7.6062298e-01   1.2790643e-01  -2.4221247e-01  -2.7933812e-01  -3.2375607e-01   4.7334489e-01  -6.9681806e-02  -4.0335915e-01   9.4160509e-01  -3.7510469e-02   7.6500355e-01  -4.9799542e-01  -6.8362499e-01   7.7389612e-01   1.6454540e-01   3.6043409e-01  -3.6641370e-03   6.3151976e-02  -4.9712649e-01  -3.8473267e-01   8.6850456e-01   3.9783364e-01   6.4531595e-01  -4.3393191e-02   7.5565406e-01  -8.1163787e-02  -7.0299272e-01   4.0265856e-01  -3.4387667e-01   2.9181283e-01  -3.6623086e-01   4.8506378e-01  -5.1380815e-01   9.4971081e-01  -5.0645414e-03   3.5961019e-01  -9.8118058e-01  -8.9091478e-01  -3.6521397e-01   5.0623032e-01  -7.6513065e-01   9.4770724e-01  -2.8466871e-01   6.4257992e-01  -2.7241834e-01   4.3202013e-01  -3.6659601e-01   5.9766421e-01   4.4098071e-02   4.0444789e-01  -2.4413130e-01   5.7087833e-01  -8.9745039e-01   8.3926753e-01   6.7691595e-01   1.1764404e-01   8.7354173e-01  -8.7696119e-01  -5.2171562e-01  -5.0209918e-01   4.9559944e-01  -7.0062873e-01  -9.4363458e-01  -6.2939637e-01   1.2310167e-01  -5.7894531e-01   1.3418871e-01  -7.1766016e-01  -6.9978391e-01  -3.4285576e-02   5.8760064e-01  -7.8498889e-01  -9.4986293e-01  -4.9125772e-01   4.5327585e-01   6.6812550e-01   5.1611624e-01  -7.7384776e-01   4.8126697e-01  -8.4119354e-01   9.7885019e-01  -6.7351757e-01   8.6472197e-01  -7.2020312e-01  -9.0010294e-01  -2.5942819e-01   6.0133782e-01   5.4314300e-01   7.2259872e-02   3.3398088e-01   1.1915114e-01  -2.2065327e-01  -1.3982217e-01  -9.2868760e-01  -6.9865870e-01   3.9376495e-01  -8.3840371e-01  -4.3733160e-01  -2.3610996e-01  -2.0759774e-01  -2.5411118e-01  -8.6764484e-01   7.1306610e-01   9.1580119e-01  -8.4673840e-01   7.0394718e-01  -9.2391443e-01  -1.7103000e-01  -8.1924963e-01   9.3226020e-01   7.3552291e-02  -6.0476261e-01   6.7216678e-01  -1.3077503e-01  -7.0323667e-01  -9.3686848e-02   8.2978130e-01  -5.0888458e-01  -8.2921212e-01  -7.6261033e-01   4.4394806e-01  -3.0260017e-01  -2.7656745e-01  -5.2442655e-01   7.5073686e-02   7.7116364e-01  -1.4795991e-01   3.3481203e-01  -1.3154299e-01  -1.2299615e-01   5.8220627e-01   9.6290404e-01  -3.7201620e-01  -4.9124624e-01  -5.7174274e-01   4.4425139e-01   5.4545501e-01  -5.4018161e-01   2.9817942e-01   7.8908754e-01  -6.0799067e-01  -9.4369936e-01  -6.1351783e-01  -3.7280483e-02   9.2002802e-01  -1.9352567e-01  -3.2644198e-01   8.9605762e-01   8.3810295e-01  -8.4941473e-02  -1.3470892e-01  -3.4700810e-01   5.0986177e-01   3.4135423e-01  -1.6477745e-01   3.4681089e-01   1.3120611e-02  -2.1554027e-01  -9.4868593e-01  -7.4654339e-01   8.1017157e-01   9.4945817e-02  -2.7144632e-01  -2.7524521e-01  -9.5471653e-01   1.0582655e-01  -1.3349631e-02  -7.6067747e-01  -8.5492713e-01  -6.6179824e-01  -8.2862444e-01  -5.6757025e-01   3.2208661e-01  -2.2001639e-02   6.9254877e-01   1.0667223e-01   1.3854989e-01   4.8485681e-01  -6.2856976e-01   4.2686222e-01  -7.0336074e-01   7.2724807e-01   6.5729823e-01  -3.6647787e-01   9.4797405e-01   5.6261495e-01  -6.7496736e-01   6.2168381e-01   7.4817446e-01  -9.1707508e-01  -2.6096242e-01  -6.7952059e-02   9.7531043e-01  -5.3251823e-01   7.9381815e-01  -1.3472606e-01  -2.3649488e-01   9.7482597e-01  -8.0359131e-01  -8.9036458e-01   3.0731804e-02  -3.3558991e-01  -1.3042541e-01  -8.3778260e-01  -5.3433560e-01   4.3221237e-01   4.6917037e-01   8.8588131e-01   5.0676900e-01  -8.1922575e-01   6.1419593e-01   7.2513908e-01   5.0067674e-01  -4.8588182e-01   1.3210722e-02   9.5321696e-01  -3.2681244e-01  -3.2433502e-01  -9.9912078e-01  -9.5080671e-01   6.5044455e-01  -4.2385317e-01  -7.8748923e-01  -3.3947363e-01   2.3377276e-01   6.6171524e-01  -7.2423760e-01   2.9219505e-01   6.2506042e-01   2.5668025e-01  -8.9623544e-01  -6.8858918e-01  -8.2254687e-01   2.0382126e-01   3.3092194e-01  -1.8561076e-01   4.8717108e-02   7.7626092e-01   6.4329821e-01   1.9932523e-02   4.2380819e-01   8.5603857e-01   2.6927828e-02   2.5480892e-01   6.7704144e-01  -7.5721580e-01   5.7840342e-02   1.6446658e-01   6.9546132e-01   5.3605238e-01   5.6623850e-01  -6.6581238e-01   4.7224414e-01   9.5708998e-01  -4.0748100e-01  -5.8099333e-01  -3.0793023e-01  -7.8379433e-01   1.9717868e-02   7.9953580e-01   5.3612891e-01  -4.9221630e-01   6.3772815e-01   9.7340409e-01   7.7642814e-01  -7.0159481e-02   6.3228223e-02   8.0924261e-01  -5.2019267e-01   6.0388544e-02  -5.5381276e-01   8.0908770e-01  -3.4417054e-01   7.8827103e-01  -2.1302953e-01  -9.6939597e-01   1.9559668e-01   4.8260325e-01  -5.3990739e-01   7.7289082e-01   1.4618331e-01   6.4507984e-01  -1.4359319e-01   2.1916843e-01   8.8933378e-01   1.9853487e-01   8.4896381e-02  -9.1526061e-01   5.9559942e-01  -6.5906485e-01  -9.1798457e-01   2.4206044e-01  -7.2269039e-01  -7.6727002e-01   9.5256987e-01  -4.7056654e-01   5.3742305e-01  -9.3810481e-01   9.4456325e-01  -5.4369579e-01  -8.5456665e-01  -5.4549221e-01   9.5844657e-01  -7.5696776e-01  -2.9954245e-01  -6.4640080e-01  -5.6449616e-01  -4.8653401e-01   5.2931051e-01  -3.9540881e-01   2.7450621e-01   1.1902996e-01   9.2284020e-01   2.0688838e-01   4.7233297e-01  -1.1589944e-01  -1.0327994e-01  -5.7357045e-01   3.6962507e-01   3.8075306e-01  -3.9616583e-01   6.5505639e-01  -8.3959234e-01   4.8029649e-01  -3.5192598e-01   9.0469640e-01  -7.9752916e-01  -8.5321330e-01  -6.3914410e-01   4.4226678e-01  -7.2585240e-01  -3.7316305e-01   9.6576952e-02   6.8948658e-01   1.1304851e-01   7.5097306e-01   8.3567594e-01  -7.7796664e-02   3.2268145e-01   7.9482160e-01  -2.3296797e-01   8.5509797e-01  -2.9096667e-02   4.8879987e-01  -3.2166996e-01  -8.9740246e-01  -9.0399621e-01  -8.7528098e-01  -1.9415630e-01   1.0057877e-02   9.7234619e-01   3.0909582e-02   6.7565261e-01  -8.9269187e-03   6.4027006e-01  -9.5994725e-01   2.1374506e-01   2.4362288e-01   7.8883661e-01  -9.7702406e-01   4.7894106e-01   9.6617339e-01  -9.4091912e-01  -9.6517372e-01  -5.1722880e-01  -4.1403965e-01  -6.5670131e-01  -8.2627339e-01   4.8257393e-01   6.4072848e-01   3.1819696e-02  -3.8710038e-01   9.7617546e-01   2.1854081e-01  -5.4307841e-01   5.9336183e-01   9.8794365e-01   7.2005002e-01  -7.1545794e-01  -7.9638669e-01  -3.2635225e-01  -1.1591184e-01   1.9537708e-01   1.3440353e-01  -6.0942335e-01  -9.5783581e-01  -1.0116538e-01   8.9181936e-01   9.8139839e-01   1.0586561e-01   8.8926970e-01   8.6146709e-02  -8.8835494e-01  -5.9399204e-01   3.5140919e-01   9.5850048e-01   7.2519321e-01  -8.5128263e-01   8.1897527e-01   5.5474860e-01  -9.4126428e-01   6.4415243e-01  -2.1685747e-01  -5.9464587e-02  -3.2875246e-01  -5.8357093e-01  -3.5189887e-01  -8.0812441e-01  -8.3140771e-01  -1.5645264e-01   8.6058458e-01  -3.5796305e-01  -2.9907759e-01   3.9258310e-01   4.2539188e-01   1.5364910e-01  -1.7437397e-01   3.3859492e-01  -6.1050014e-01  -4.5023701e-01   1.8683896e-01   1.8225712e-02
  -7.5954280e-01  -5.3424242e-01  -9.7396312e-01   9.8247100e-01   9.8734367e-01   9.0416578e-01  -3.2418442e-01  -4.4001334e-01   8.2465995e-01   6.6485880e-01   1.0008905e-01   1.2828908e-01  -6.7573412e-01   5.0379599e-01  -7.1609724e-01   8.5436597e-01   2.4411508e-01   1.0330179e-02  -9.5058343e-01  -3.2898207e-01   8.9322486e-01   1.1739374e-01  -5.6889928e-01   3.3668603e-01   9.3994224e-01  -2.2735068e-01   9.7627708e-01  -5.8870204e-01   4.6873444e-01   7.9164477e-01   9.0266596e-01   6.6563489e-01  -5.7187588e-01   7.5560556e-01   7.7590131e-01  -9.3026923e-02  -5.5728404e-01   2.2433602e-01  -9.1118726e-01   1.1938600e-01  -6.3233572e-01  -5.3662762e-01   7.8423057e-01   9.8506619e-01   6.6443175e-01   2.5809187e-01  -1.6174588e-01   6.1568933e-01  -8.7530321e-01   1.4448552e-01   1.1714396e-01   6.5964655e-01  -3.1800167e-01   6.0267507e-02   3.1186648e-01  -4.3920408e-01  -3.8300224e-01  -9.4022862e-01  -3.3862657e-01  -8.8518064e-01   3.9655772e-01  -6.8588277e-01  -3.8437025e-01  -9.7569317e-01   6.1179976e-02   4.2168912e-01   2.9454910e-01  -5.0848531e-01   6.5152916e-01   8.6265375e-01   6.0141091e-01   4.9064663e-01   4.9461766e-01   5.9871360e-01  -4.0649199e-01  -8.2940148e-01  -7.0087669e-01   5.8884407e-01  -2.5064611e-01   3.5632746e-01   1.5004577e-01   5.5849752e-01  -9.2390976e-01   3.6213515e-01  -3.2789455e-01  -3.9668291e-01  -2.2452534e-01  -3.9559010e-01   6.6375347e-01  -6.7914551e-01  -5.1816354e-01  -9.7367728e-01   2.1993454e-01  -5.5465355e-01  -9.7336819e-01  -8.7418648e-01  -8.9463178e-01   1.1439862e-01   8.1811990e-01  -5.4553447e-01  -5.6386533e-02   9.2696712e-01   7.0194044e-01   2.0674925e-02   9.5813486e-01  -3.4905271e-01   2.5798666e-01   6.3469602e-01   2.7687836e-01   5.2167361e-01   1.4369673e-01   5.4766901e-01  -3.7930056e-01  -9.9042114e-01   2.5587369e-01  -2.7009024e-01   8.0485868e-01  -5.2703774e-01  -5.7499426e-02  -1.0273469e-01   9.8633570e-01   5.8892199e-01   1.6018233e-01   2.3361604e-01  -9.7267495e-01  -8.7577097e-01  -8.6173296e-01   9.3417394e-02   8.0545576e-01  -2.2817943e-01  -8.9189082e-01   1.8590579e-01  -7.1924255e-01   3.1427419e-01   1.4980564e-01   9.5011142e-01   4.8300315e-01   1.4464887e-01  -6.7325035e-01  -2.4668831e-01  -7.0797124e-01   4.8663724e-01   4.5542423e-01  -7.9159028e-01   3.0683539e-01   4.3600299e-01  -7.3345720e-01   8.4364920e-01   3.4372987e-01  -7.4094451e-01  -2.8887878e-01  -2.0802199e-02   9.3556550e-01  -7.5678897e-01   9.5108197e-01  -1.7901481e-02  -3.7429685e-01   7.1893904e-01   6.1424758e-01   4.5876420e-01  -1.5971589e-01   2.9429153e-01  -1.5407935e-01   1.4752265e-01   1.0216129e-01   4.8890465e-01  -8.9407203e-01   1.1103697e-01   2.3612444e-01  -1.5259453e-01  -4.0178632e-01  -6.2340163e-01  -4.1422082e-01  -1.3412597e-01   4.9872502e-01   5.6919841e-01  -4.9973667e-01  -5.3344022e-01   9.6349298e-01  -1.4256229e-01   9.0980515e-01  -6.9081504e-01   4.5671612e-01   2.2031077e-02   7.4103889e-01  -7.4055915e-01  -8.8655137e-01  -9.4979497e-01   8.3093211e-01   4.5139228e-01  -4.3790958e-01   3.2679668e-01  -2.1282997e-01   7.2999297e-01   5.4974803e-01  -9.8189956e-01   9.7451711e-01  -1.2014579e-01   2.2091745e-01  -3.8383720e-01   5.3916719e-01   4.0061269e-02  -9.6359966e-01   4.6173354e-01  -2.5906591e-01  -3.6852101e-01  -4.1383141e-01  -9.0982446e-01   2.8181425e-01  -2.6977199e-01  -5.3490960e-02  -2.2474559e-02  -6.7858522e-01   9.9127077e-03   7.5406499e-01  -4.1278033e-02  -2.9422833e-01   7.8735635e-01  -4.1131143e-01   8.2582846e-01  -4.3093923e-01  -2.0720064e-01   2.6952635e-01   8.9369648e-01  -3.1189424e-01   3.9386518e-01  -4.3546301e-01   7.6569066e-01   8.1224601e-01  -4.1434813e-01   8.1369490e-01  -2.0277880e-02  -5.9317787e-01   8.3321060e-01  -4.7400321e-01  -1.5487783e-01  -6.1711016e-01  -9.8089716e-01   4.4461013e-01   6.5418312e-01   8.8691529e-01  -6.7807423e-01   2.1529560e-01   8.8596805e-01  -2.8751152e-01   7.8888500e-01   5.4566574e-01  -1.2087467e-01   4.4411228e-02   4.4759411e-01  -2.3160463e-01   8.3367333e-01  -8.7901491e-01  -3.3860135e-01  -6.9542205e-01   6.2162558e-01   4.5215836e-01   5.2505941e-01   6.6410236e-01  -1.0307547e-01   7.7655301e-02  -4.4522488e-01  -2.6489087e-02  -9.4168116e-01  -4.4630619e-01   7.9451255e-01  -4.9410045e-01   7.0368010e-02  -4.3448464e-01  -6.8205941e-01   4.7788163e-03   4.7215168e-01  -1.9947419e-01   3.0907504e-01   4.9623446e-01  -6.6257779e-01   1.9455178e-01  -4.0986854e-01  -5.7793930e-01   2.3659986e-01  -3.8072932e-01   8.8895966e-01  -5.1367260e-01   6.5800274e-01  -1.0726399e-01   8.7684092e-01   7.6834014e-02  -6.5058883e-01   8.3215362e-01   6.3378594e-01   6.0952567e-01  -1.1009238e-01  -4.0527391e-01  -6.6818608e-01   7.6272317e-01  -7.9309597e-01  -8.1151236e-01  -5.6944478e-02   6.9657093e-01   3.0749733e-01  -2.5759656e-01   7.7910582e-01   7.5562435e-01   1.5626635e-01   3.6746073e-01   7.1338245e-01   9.0152399e-01  -8.0461177e-01   7.6446287e-03  -6.5596042e-01  -6.3089911e-01   2.0269928e-01  -5.8498298e-01  -5.8771179e-03   6.8679218e-01  -6.4294860e-01  -5.5392133e-02  -5.5871384e-01   5.4999232e-01  -2.1596732e-01  -2.6857909e-01   1.7121290e-01   9.1381382e-02  -5.4436983e-01   5.3066272e-01  -9.6670813e-01   3.3426810e-01  -3.2528450e-01   8.1778204e-01  -4.7333170e-01   4.2389933e-01  -6.4312626e-01   5.5015313e-01   3.8474747e-01  -5.2949367e-01   4.8313651e-01   2.2694342e-02  -6.4078215e-02   8.6593701e-02  -7.1115095e-01  -2.8137585e-01  -7.5655744e-01  -2.4213816e-01   1.6403305e-02   8.9329284e-01   5.3412710e-01   4.5166918e-01  -6.0922177e-01   4.6358279e-01   9.1577858e-01   2.0808212e-01   4.4779012e-01   8.1476021e-01  -3.1382924e-01   8.5848495e-01  -8.3563900e-01   7.9855118e-01   3.9943320e-01  -3.2493750e-01  -8.3146822e-01  -7.0227428e-02   2.5764011e-01  -1.9956388e-01   4.2793126e-01   5.0858967e-01   3.2395104e-01   6.1890604e-01  -9.8105164e-02   4.7297479e-01   8.2899663e-01   7.5309583e-02  -9.0375900e-01   1.3391541e-01   4.6301484e-01  -1.1526985e-01  -3.0528515e-01   2.4089756e-02  -6.4686466e-01  -1.9248435e-01   8.2141681e-01  -7.5163123e-01   6.6838352e-01  -3.6983024e-01  -3.4879259e-01  -8.2770051e-02   3.4594298e-01   9.1040174e-01   5.4510482e-01  -2.2070753e-01   9.5953325e-01  -6.1029870e-01  -9.9658406e-01   1.8867997e-01  -7.0945598e-01   5.6386189e-02  -9.9445903e-02   5.9255213e-01   9.4077397e-01   4.4106363e-01   1.6749743e-01   9.0894048e-02  -6.4305648e-01  -4.8463601e-02  -5.7092681e-02   3.3407840e-01   9.1344401e-01  -8.4620809e-01  -2.7011842e-01  -8.5722057e-01  -9.5563439e-01  -5.5606326e-01  -1.9350818e-02  -1.0532055e-01  -1.5497085e-01  -9.9230789e-01  -5.2035379e-01   7.8591275e-01   5.2428775e-01   6.3542269e-01   3.8954378e-01   4.4573253e-01   8.9375724e-01  -5.1199409e-01   7.0963569e-01   8.5909814e-01   6.6434835e-01   4.0316945e-01  -4.8061505e-01  -7.0748112e-01  -6.3813328e-01   4.9616163e-01   4.8924789e-02   6.1640926e-01   4.6879076e-01  -6.9363940e-01  -2.9685527e-01   7.1906503e-01   6.5791757e-01  -4.5669338e-02   4.6988716e-02   2.4963533e-01   2.4485848e-01   8.1496669e-01  -5.7102318e-01  -8.9290371e-01   4.1661795e-01  -3.3203651e-01  -6.7280144e-02   2.5219484e-01   1.0486420e-01  -1.5496852e-02  -9.1534817e-01  -6.7998008e-01  -6.7403779e-01  -3.0286093e-01  -4.3124607e-01  -8.3289011e-01  -3.7712600e-01   5.6950693e-01   4.0844761e-01  -8.0575446e-01  -2.7093848e-01   9.8421523e-01   4.4713498e-01  -7.5841405e-01   7.1068704e-01  -7.2428050e-01  -5.0311433e-01  -4.2742083e-01   1.4858169e-01  -2.4584675e-01  -8.8848231e-01  -6.1573778e-01  -6.7167809e-01   7.4768493e-01   4.7975262e-01   6.5630273e-01   6.2619662e-01  -1.6373222e-01  -8.0652143e-01   2.2762090e-01   1.9634357e-01   6.4762679e-01  -4.9208395e-01   9.1657966e-01  -7.1709344e-01  -7.5018759e-01   7.4757203e-01  -2.9124173e-01   5.5190741e-01   5.2480493e-01  -9.9909022e-01   4.2697200e-01  -1.3721682e-01  -3.0587962e-01  -6.0330184e-01   6.4587830e-01   4.5923414e-01   7.2442457e-01  -3.8980998e-02   3.1872982e-01   6.7554080e-01   2.1656179e-01   7.7194010e-01   6.9722133e-01  -2.0072287e-01  -9.9857350e-01  -6.7770822e-03  -8.5994014e-01   4.1275509e-03   9.0621684e-01  -9.1761722e-01   5.6783566e-01  -3.0944237e-01   8.8918336e-01   3.8922535e-02  -8.9741715e-01  -3.3244316e-01   9.4637849e-01  -9.8141487e-01   6.4288592e-02   2.6784669e-01   6.9899079e-01  -5.0918776e-01  -6.5038784e-01  -4.7744190e-01  -3.8395307e-01  -8.7194769e-01   4.8445935e-01   8.3262404e-01  -5.8534688e-01  -7.0447895e-01   7.5141548e-02   7.5250393e-02   7.4438646e-01  -4.5091510e-01   9.4809043e-01   6.4483875e-02   7.1519764e-01   5.4476128e-01  -5.1437817e-01  -6.2694552e-01  -9.4153805e-01  -8.8865881e-01   3.5722336e-01   9.9599082e-01   4.3619682e-01  -8.4461368e-01   2.2658362e-01  -9.2174254e-01  -1.2295149e-01   2.9919940e-02   2.9403979e-02   9.8589576e-01  -2.5101191e-01   8.6082359e-01  -8.0816502e-01   2.8880616e-01  -6.6663676e-01   9.8603902e-01  -7.4011940e-01   7.6075426e-01   3.4311356e-01  -4.1319688e-01   3.2996701e-01  -6.4800016e-01   6.1991898e-01   6.8753313e-01   4.9513630e-01   7.3736863e-01   5.0581884e-01  -8.7401529e-01   5.7382028e-01  -7.4969215e-01  -2.7682636e-01  -5.4884958e-01   3.4008599e-01   7.2486933e-01   6.8655809e-01  -4.9931228e-01   4.8373342e-01  -6.4040923e-01   5.9456437e-01  -4.7910015e-01  -8.2980519e-01  -8.6312373e-01   2.9881662e-01  -6.5330347e-01   7.4214755e-01   3.6045436e-01  -6.9472270e-01  -8.3833954e-01   7.9564357e-01  -5.6183247e-01  -9.0083818e-01  -6.0617931e-01  -6.1746230e-01   9.4945002e-01   2.7544177e-01   5.5145716e-01  -4.0110556e-01   2.5533848e-01   2.6984871e-01   2.7380219e-01   4.0356713e-01   6.8801200e-01  -3.5757519e-01  -7.2279317e-01  -4.8711052e-02   9.3745154e-01   1.4506170e-01  -4.5515145e-01  -5.9710152e-01  -4.4502455e-01  -1.1042145e-03  -8.2432502e-02  -9.9879461e-01  -5.7275590e-01   6.6444255e-01   3.1042288e-01  -4.0270443e-01  -7.7050523e-01   3.5840357e-01  -5.1201984e-02   4.0095303e-01   5.6642897e-01  -8.0616004e-01  -9.2141318e-02  -4.8592130e-01   2.0855993e-01  -5.0683638e-01  -9.2649977e-01  -1.3825500e-01   1.8676853e-01  -5.2685201e-01   3.9285632e-01  -3.2897826e-01  -7.3796388e-01   8.8105044e-01  -8.9749015e-01  -3.6419985e-01  -7.8220377e-01   5.6321680e-02  -9.0855243e-01   6.0637048e-01   2.0280169e-01  -3.8593344e-01  -1.6557846e-01   9.0135889e-01   1.5942941e-01   6.4943393e-01  -8.8623723e-01  -1.2998592e-01  -7.1410925e-01   9.7837742e-01  -8.6964067e-01   2.8298743e-01   6.6301603e-01  -2.6933850e-01  -4.7714763e-01  -4.3421868e-02   6.0309512e-01   8.8055440e-01  -9.7430562e-02  -1.4087209e-01   1.0970945e-01   3.2667491e-01   4.7545975e-01   7.0699942e-01   2.4822180e-01  -4.8898176e-01   8.0006720e-01   3.4138421e-01   1.9990898e-01  -9.0066217e-01   5.7886837e-01   4.6566275e-02  -9.1008103e-01   3.4716571e-01  -4.1764260e-01  -5.9985146e-01  -7.8606039e-01   2.0080273e-02  -9.2934017e-01  -4.3615084e-01   9.2212194e-01  -3.7057467e-01  -5.8715875e-01  -5.2096858e-01  -2.7703456e-01  -9.3932925e-02  -6.0326397e-01   6.0399581e-01  -3.2757531e-01   6.7911146e-01  -4.9219568e-03   6.2337982e-01   9.9051441e-02   4.2070569e-01   9.2253902e-01   6.0927260e-02  -3.2897045e-01   4.4617273e-01   7.1976295e-01  -1.2983523e-01   9.8705097e-01   3.6609133e-01  -4.4655707e-01   6.6191646e-01   8.6672894e-01   7.3375250e-01  -5.8267883e-02  -2.3023896e-01   1.7053244e-01   6.5105865e-01   1.5110247e-01   5.3748160e-02  -8.9410997e-01   8.5508926e-01  -1.5784273e-01  -8.7455755e-01   8.2802086e-01  -5.4202701e-01  -6.4601213e-01  -4.9594887e-01   6.3723890e-01   6.0910385e-01  -6.8257122e-01  -5.4994563e-01   6.3356565e-01   3.1446371e-01   4.6494837e-01  -2.4409564e-01  -1.9701039e-01  -1.2260391e-02   9.1935633e-01  -9.5153616e-01   8.2864310e-01   7.3201668e-01  -4.3394843e-01  -3.7418084e-01   1.1529668e-01  -2.2774736e-01  -3.3080967e-01  -2.1903062e-01   6.6820114e-01   7.6789036e-01  -3.9669332e-01  -2.6732016e-01   1.1573855e-01   5.4911768e-01   4.5088148e-01   2.9182888e-01   3.7468097e-01   8.1384513e-01   7.2724728e-01   2.2537304e-01   5.9264467e-02  -5.6885122e-01  -8.4976321e-01  -1.6699447e-01  -1.4968874e-01   4.3429751e-02  -6.8399660e-01   5.2676870e-01  -3.2809414e-01  -2.9513812e-02   4.5968691e-01  -4.0634696e-01   3.4119928e-01  -6.0599748e-01   2.4037710e-01   2.5632050e-01  -4.0811389e-01  -6.6815056e-01   2.4563878e-01   1.5231885e-01   3.9483787e-01  -3.7825402e-01  -8.1530694e-01  -3.0553110e-01  -7.7343547e-01   2.9433852e-01  -9.0832122e-01  -1.2765782e-01  -6.5787514e-01  -2.8284367e-01   4.2057833e-01   4.3227324e-01   3.4866425e-01   2.2335653e-01   5.6125900e-01   2.7491700e-01  -1.5183047e-01   1.3332132e-01  -8.3104067e-01   8.6969822e-01   9.1334718e-01  -1.6316734e-02   2.5391665e-01   1.0987559e-01  -9.9277045e-01  -4.9697983e-01  -3.5306077e-01   8.1495523e-01  -1.8228468e-01  -4.6728303e-01  -4.5976535e-02  -2.8178564e-01  -9.6488210e-01  -9.8471340e-01  -3.9995511e-01  -7.2575691e-01   3.5738009e-01  -4.4967039e-01  -1.3638482e-01   4.3308904e-01  -7.9790960e-01   4.9073362e-01  -3.5906027e-01   1.9968332e-02   6.1148372e-02  -2.2313605e-03  -7.3422167e-01  -9.6109102e-01   9.8802241e-01   7.5067951e-01  -2.9391996e-01  -4.1337371e-01  -9.3008399e-01   3.5505507e-01   5.5729569e-01   5.4351628e-02   2.7080201e-01  -4.6976580e-01   3.9568075e-01  -1.2093204e-01  -3.9465069e-01   6.0691649e-01  -4.8520013e-01   7.1971083e-01  -1.0121126e-01  -4.1107913e-01   4.9927300e-01  -3.5059706e-02   1.9161595e-01   2.9610062e-01  -1.6499924e-02   8.9078585e-01  -2.3955754e-01   2.2608591e-01   8.6650863e-01  -6.2356782e-01   4.9350667e-01   7.2201725e-02  -9.8236151e-01   8.3736909e-01  -9.2735538e-01   8.5788446e-01   4.6142899e-01   2.8719669e-01  -7.6991299e-01  -8.6016032e-01   6.7770378e-01  -4.3182723e-01  -1.1163223e-02  -5.7422220e-01  -3.6020549e-01  -5.8370296e-01  -9.4878627e-01  -8.3299698e-01  -6.2172233e-01  -8.7840732e-01  -7.8866153e-01   6.4101659e-02   7.1087425e-01  -9.3331861e-01   9.7600825e-01   6.2606764e-02  -3.2855707e-01  -7.9244853e-01  -3.0960354e-01  -1.7083315e-01  -8.3192287e-01   2.2600315e-01   2.1733857e-02   8.1354847e-01   8.7286874e-01   5.6715209e-01   6.0369724e-01  -7.7224984e-01   6.7419977e-01  -9.5081972e-01   3.0299946e-01   7.2329218e-01   1.6199926e-01   2.2596391e-01  -4.3263617e-01  -5.6536390e-01  -7.7370292e-01  -4.1117459e-01   6.0191661e-02  -5.5407497e-01  -2.9923784e-01  -3.4193860e-01  -1.2469036e-01   8.5270098e-01  -8.6219718e-01   5.8028893e-01  -8.1992409e-03  -3.9041053e-01  -1.1091942e-01  -7.4596716e-01  -8.2703696e-02  -5.6918570e-01   6.0640670e-01  -1.0708932e-01   5.5542366e-01   8.2994121e-01  -1.6236349e-01   9.2862788e-01  -7.3497364e-01  -3.8992573e-01  -2.5059267e-03  -8.9544835e-02  -4.0628745e-01  -8.7609524e-01   6.5022570e-01   9.6932232e-01  -2.0356443e-01   2.6373755e-01  -4.2442341e-02  -6.7235918e-01  -2.2516167e-01  -2.0387510e-02  -1.0267019e-01   3.3299372e-01  -8.9430604e-01  -1.4719459e-02  -8.8738264e-01  -2.2770245e-01  -8.7183966e-01   7.9600254e-01   1.6127567e-02   4.6576376e-01  -7.4897184e-01  -6.1657717e-01  -4.3488369e-01   7.8039108e-01  -2.7737857e-01  -5.9249628e-01   8.6575159e-01  -6.1670143e-01  -2.9527843e-01  -1.1770207e-01   1.5378345e-01   8.5815110e-02  -7.8924006e-01   5.1628935e-01   7.3410663e-02   6.3906818e-01  -9.3870303e-01   9.0323037e-01  -5.2030015e-01  -5.1432111e-01  -8.7056590e-01   5.4374805e-01  -4.6363285e-01  -9.1691127e-01  -6.5082090e-01   6.7212486e-01   6.6030394e-01  -3.3930313e-01   5.3966089e-02  -1.2344773e-01   4.8961635e-01  -6.0780907e-01  -4.1596858e-01  -1.9961377e-01   4.3299013e-01  -8.3812527e-01   5.7936783e-01  -8.5691761e-01   6.1311814e-01   7.2473157e-01  -1.1317216e-01   8.1762231e-01   7.0676409e-01   4.7976875e-01   3.7407004e-02  -7.1430571e-01   5.3380123e-01  -7.6719795e-01  -2.7186217e-02  -1.6718381e-01  -7.2910380e-01  -4.1789830e-01  -5.5758078e-01  -9.4323313e-01   5.3329658e-01
  -6.7612729e-01  -3.7971202e-01   8.6179532e-01   5.9287827e-01   4.4164668e-02  -6.8302566e-01  -8.6598493e-01   5.6147487e-01   6.9546093e-01  -6.3612178e-01   5.0160885e-02   4.2609363e-01  -5.9258061e-02   8.4304124e-01  -3.6315468e-01   7.5847642e-01   7.1527538e-01   8.4338169e-01  -6.2360401e-01   8.7181028e-01  -5.9197233e-01   8.8310028e-01  -4.0518838e-02  -1.3362257e-01   7.5870131e-01  -9.6445845e-01  -1.0895763e-01   7.1010233e-01  -9.6245804e-01  -3.1590439e-01  -7.2467347e-01   9.5693171e-01   1.8867766e-01  -2.0117516e-02  -8.2169196e-01  -1.0029560e-01  -7.1536578e-01  -6.6501898e-01  -4.5654746e-01  -4.7460368e-01  -9.8360360e-01  -7.7496584e-01   5.1329727e-01  -8.6163870e-01  -5.3166278e-01   9.9191073e-01  -6.9269740e-01  -1.0684203e-02  -6.3964297e-01  -5.6803770e-03  -9.3733809e-01  -4.8828810e-01  -4.2112412e-01  -9.6826257e-01   1.0379482e-01  -7.2282219e-02   8.2922741e-01   8.6358263e-01   5.8052428e-01   2.2974739e-01  -9.9284296e-01  -7.8591682e-01   5.8233121e-01   3.8396487e-02  -7.5444034e-01  -4.4243602e-01   3.4009969e-01  -1.9358219e-01   8.5000404e-01   9.2100617e-01   9.0529444e-01  -4.1049890e-02   1.4155975e-02  -9.3562965e-01  -4.1511824e-02  -8.6670315e-01  -2.2307356e-01   4.3309219e-01   8.4683337e-01  -1.0907364e-01  -8.4313942e-01   5.8556151e-02   1.6987638e-01  -6.7441240e-01  -1.1068240e-01   3.0514636e-01   9.6264568e-01   8.5855187e-01   7.7610871e-01  -3.2528820e-01   6.8897605e-01   1.3212551e-01  -1.6757418e-01  -1.2704384e-01   5.4256887e-01   3.3609048e-01  -9.1985700e-01   3.6382077e-01   7.1100491e-01  -3.2330826e-02   9.1990308e-01  -1.0904247e-01  -4.1914733e-01  -4.4458406e-01  -7.5059372e-01  -7.4712038e-01  -9.3398725e-01   7.8838535e-01  -6.6567223e-01  -1.5451455e-02   2.2178994e-01   6.4428544e-01  -5.7819618e-01  -8.6015451e-01  -5.9740252e-01  -9.1522881e-01   6.1404617e-01  -1.2823413e-01   8.1080931e-01   7.3565629e-02  -7.0111753e-01  -7.8483975e-01  -8.1376395e-01   6.0685699e-01   7.8799474e-01   8.7404682e-01  -7.3822066e-01  -1.7757216e-02  -5.5223518e-01   4.2931618e-01  -3.9435952e-01   7.5444059e-01   6.9244464e-03   7.3550921e-01   9.6038405e-01   8.8996425e-01  -2.5203546e-01   5.4134702e-02  -4.7640442e-01   6.0039100e-01  -6.4407557e-01  -2.5468088e-01  -6.3304427e-01   1.6743400e-01  -6.7641980e-01   2.8651820e-01   8.3862947e-01   6.2111475e-01  -8.2406548e-01  -9.7183347e-01   5.0633880e-01   3.7839066e-01   6.3023233e-01   9.1021973e-01   4.9943673e-01   9.0025306e-01   7.0079380e-01  -9.7434491e-02   5.1954902e-01  -4.1833438e-01  -4.8600266e-01  -6.5429514e-01   5.0522721e-01   5.0877987e-01   9.6274210e-01  -8.6087378e-01   6.2844510e-01  -8.5917498e-01   5.2768114e-01   7.3260047e-01  -1.4031043e-01   4.7190140e-01   9.3349874e-01   1.8541875e-01   8.1201370e-01  -7.5267762e-01   1.6715549e-01  -8.8435976e-02  -7.5991810e-01  -4.0748100e-01  -4.0152095e-01   9.1705291e-01   9.5091437e-01   3.5989639e-01   5.2527303e-01   6.1357500e-02  -1.9807094e-01  -6.7757796e-01  -1.1530959e-01  -1.5206676e-02  -4.2114297e-01  -6.2088894e-01  -8.9767751e-01  -3.0866868e-01   9.1505312e-01   2.2490523e-01  -5.6536049e-01  -9.9406505e-01   8.9126009e-01  -2.8744102e-01  -2.5520548e-01  -2.7989289e-01   1.1699997e-02  -5.1049980e-01  -3.3436339e-01   5.3033639e-01  -9.9440722e-01  -8.0137154e-01  -4.3652872e-01  -1.8698636e-01   9.2015114e-01  -9.9771463e-01   4.7071013e-03  -1.0370230e-01  -9.2585221e-01   8.0984363e-02   2.1714624e-01  -4.7761774e-01  -1.7177296e-02   9.3911212e-01   4.8784988e-01   9.0899135e-01   9.5246886e-01  -2.1331456e-02  -6.1210480e-01   6.6804015e-01  -1.1815708e-01   4.5132466e-01  -5.3896139e-01   5.4260605e-01   8.3690063e-01   4.0083895e-01   3.5306383e-01  -4.5954403e-01  -6.8965268e-01  -4.2808442e-01   3.6906426e-01  -4.5088078e-02  -1.8797954e-01  -7.8989582e-01   3.0990136e-01  -8.9375508e-02   9.0105293e-01   7.9558493e-01  -4.5558712e-01   5.2884365e-01   1.6313745e-01  -3.6677698e-02   3.2265875e-01  -9.1282400e-01   6.3755793e-02  -8.7497955e-01  -7.6730252e-01   2.0011571e-01  -4.7822666e-01  -4.9768503e-01  -1.3696490e-01  -6.1601297e-01  -7.4216611e-01  -5.1834712e-01   4.2986169e-02  -2.0013726e-01   4.9866846e-01   2.7724142e-01   6.9094658e-01  -8.3953843e-01  -7.3471801e-01   8.5876606e-01   2.8255966e-01   3.1164860e-01   6.2912166e-02  -2.3720447e-01   8.9296224e-01   6.7849529e-01   6.4274776e-01   7.4307271e-01   7.1317801e-01   3.5865400e-01  -3.9423253e-01   6.2239932e-02   1.5203682e-02  -7.7766903e-01   2.0181757e-01  -9.5746603e-01   4.2266365e-01   9.9428543e-01  -7.8198927e-01   5.1340166e-01   4.5201353e-01   3.4666674e-01  -9.5771852e-01  -4.1178526e-01  -7.5334486e-01   8.7429091e-04  -9.8863465e-01  -7.8999780e-01   5.2220417e-01  -9.1509149e-01  -3.2875440e-01  -2.5453120e-01   6.5631330e-01   8.6393657e-01   9.1553695e-01   7.4410038e-01   6.1529453e-01   6.5359777e-02  -2.4023037e-01  -9.3756115e-01   6.3089393e-01   8.8499075e-03   5.0298222e-01   9.5008634e-01   1.4378971e-01  -8.3039955e-01   2.3478106e-01  -6.6275902e-01  -7.8849820e-01   9.8419139e-01   3.7217413e-01   1.6266036e-01   9.8750139e-01   4.6300386e-01  -7.4767391e-02   2.1982753e-01  -4.4174185e-01   6.2560239e-02   8.6226215e-01   1.4408267e-01   1.5888510e-01   2.1988653e-01   4.2253616e-01   1.1342832e-01  -5.0829668e-01   9.8085022e-01   2.4781838e-01   5.1191231e-01  -1.9957714e-01  -7.1921217e-02   3.7606974e-01   9.1784124e-01  -1.1265304e-02  -8.9521121e-01   6.5395495e-01  -8.3232524e-01   8.9548828e-01  -8.3937616e-01  -7.5980008e-01   8.9174726e-01  -1.5102173e-01  -3.8230941e-01   7.0983217e-01   6.5559074e-01   2.2375156e-01  -6.9240211e-01  -3.2717528e-01  -3.7771607e-01  -9.3481089e-01  -1.5600772e-01   8.4191341e-01   6.9283032e-01  -7.7139895e-01   2.1795178e-01   2.3330164e-02   4.3204703e-02  -3.7743353e-01   5.4457690e-01  -4.8848639e-01   6.7118003e-01   6.5458202e-01  -8.1300926e-01   4.3648567e-01   6.4159483e-01  -7.7101805e-01  -1.4874945e-01  -1.2406206e-01  -9.9829625e-01   8.7736434e-01   3.4516239e-01  -5.2279733e-01   7.0011636e-01  -8.8801075e-01   9.2948807e-01   6.5929855e-01   5.8378164e-01   3.3366775e-01   1.0434542e-02  -5.5289593e-01  -4.1884678e-01  -4.8687845e-01  -8.5642857e-01   1.8353180e-01   2.8190594e-01   3.2043424e-01   5.6330734e-01  -4.2686134e-01   2.0932896e-01   6.2957137e-01  -2.7981070e-01  -8.8259569e-01  -1.0546928e-01   2.3035744e-01  -2.0280162e-01  -6.2430371e-01  -6.2569222e-01  -2.1272885e-01  -5.2130466e-01  -6.5732405e-01  -3.6379370e-01   8.4972679e-01  -7.8990088e-01  -8.0888827e-01   9.6430145e-01  -4.1113093e-01   7.3264612e-01   4.9119832e-01  -4.8380042e-02   2.6902812e-01  -8.6782113e-01   4.5936510e-01   9.6539807e-02  -1.1748878e-01   4.2934252e-01   5.3226910e-01   4.6038621e-01   1.5441471e-01  -7.5459090e-02   5.0016485e-01  -1.9775812e-02   8.0224228e-01  -7.8953083e-01  -2.1455701e-01   1.1087739e-01   8.9305751e-01   6.3076841e-01  -7.6709808e-01   5.9700249e-01   9.1281860e-01   6.7166604e-01   7.0566231e-01  -8.8675739e-02   2.9343601e-01   6.7014230e-01  -5.7307162e-01   9.7356246e-01  -5.2344960e-01  -8.2041867e-01  -3.0780220e-01  -6.7850551e-01   2.2591247e-01   5.2635010e-01  -4.4235501e-01  -4.9259099e-01   3.0965793e-01   4.1394324e-01  -4.0387952e-02  -6.9975366e-02   1.7991905e-01  -5.4141687e-01   9.6860975e-02  -9.3696179e-01   3.9876076e-01  -8.3152620e-01   3.9412185e-01  -7.2846161e-02  -7.1850595e-01  -9.2810025e-01   1.9929071e-01   9.2748956e-01   8.0006881e-01  -4.5724356e-01   3.7904006e-01  -8.7323868e-01  -8.2504980e-01  -8.1011382e-01   7.6985462e-01  -7.2289176e-01  -1.2447201e-01  -7.7285129e-01  -2.9413441e-01   9.7335527e-01  -8.3608345e-01  -4.6531688e-01   6.0758568e-01   6.4021091e-01  -1.1965681e-01   5.3434085e-01  -2.1354429e-01  -4.5828036e-01  -6.4998941e-01  -8.6625250e-03  -5.6933353e-02  -9.4740533e-01  -3.4240330e-01   6.3445857e-01   8.2542325e-01   8.9853332e-01  -6.8233982e-01   4.1083817e-01   7.6073772e-01   3.4201379e-01  -7.9447006e-01   1.1882605e-01   7.8923598e-01  -8.1020634e-01  -1.7559971e-02  -8.9228732e-01  -7.3254957e-01  -3.1887374e-01  -3.1341741e-01   8.5926927e-01  -1.7736856e-01   3.8844436e-01  -9.9984941e-01   8.0652238e-01  -6.7166579e-01  -3.2063265e-01  -2.3461324e-01  -2.4493996e-02   6.4210480e-01  -4.7160448e-01  -6.6234529e-01   1.8580302e-01  -3.7888070e-01   2.2230855e-01  -2.2071358e-01   7.9770332e-01  -8.2038530e-01  -6.0667180e-01   8.5451434e-01   5.5108988e-01  -4.1265067e-01  -6.3926226e-01   2.2926114e-01   3.7841682e-01   7.7209708e-01   1.3421707e-01   1.9762190e-01   4.3326336e-01  -2.2398695e-01   3.2563909e-01   9.1914121e-01   2.8341174e-01  -7.1299545e-01  -6.0297269e-01   6.9193990e-01  -3.8314852e-01  -7.1482512e-01   8.3246845e-01   1.9316940e-01  -7.1775662e-01   4.6760994e-01  -6.5509629e-01  -6.0441799e-01  -5.8545294e-02  -6.5910928e-01   7.0617443e-01  -3.4717552e-01   8.9984573e-01  -8.2623617e-01  -8.2171966e-02   4.4504141e-01   5.8961344e-01  -8.9703406e-01   9.2093847e-02   1.4936572e-02  -5.5753880e-01   9.6199885e-01  -5.9163628e-01   1.9191669e-01   6.6979584e-01  -8.1266106e-01   9.4642518e-01  -7.1678487e-01  -2.4592493e-03   3.5464835e-01   6.9716801e-01  -3.1798938e-01  -4.1289911e-01   4.2614029e-01   2.4159050e-01  -9.1216737e-01  -7.2946300e-01  -7.8934616e-01  -5.7769239e-01   6.8052980e-02  -7.8871790e-01  -6.9052238e-01  -5.3929742e-01  -2.4778889e-01  -9.3455137e-01  -4.1084819e-01   2.5436604e-01   9.7218316e-01   6.1842632e-01   4.2424943e-02  -3.5584315e-02  -2.5132477e-01   9.1041910e-01   1.0441893e-01  -8.2504211e-01   9.7153782e-01  -7.0950265e-01   1.8243782e-01  -4.7361823e-01   6.1520410e-01  -8.9396721e-01  -1.6490582e-01   2.6107084e-01   5.0007577e-01  -1.3094279e-01   1.0254549e-01   6.3750156e-01  -3.4470775e-01   7.8950785e-01   1.1592468e-01  -6.9263871e-01  -9.2398744e-01   8.6685307e-01  -5.2041529e-01   2.1258744e-01   5.2581780e-01   3.0876101e-01  -4.8970364e-01  -7.3585308e-01  -8.7972786e-01   8.5085737e-02  -7.7736929e-01  -8.8407546e-01   5.3891200e-01  -3.9706855e-02  -4.1808782e-01   4.9056403e-01   5.7190941e-02   3.8975274e-01  -6.3218126e-01  -1.5061423e-01  -6.5748700e-01   1.0816723e-01  -9.7287764e-01   2.7876182e-01   6.6078687e-01  -9.9084051e-01  -8.1045068e-01  -3.5661638e-01  -7.1637277e-01  -2.1444996e-01   5.8854585e-01   3.9805532e-01   4.4626491e-01   8.2343211e-01   9.1877366e-01  -5.6960704e-02   8.6515586e-01   8.3779060e-01  -4.9996740e-01   8.5200471e-01  -5.2206864e-01  -5.9475757e-02  -1.4171743e-01   8.1775638e-01   3.9642695e-01   5.6764001e-01  -2.2888768e-01  -6.2483807e-01  -6.1193889e-01   9.9821515e-01  -8.8935080e-01   5.7262670e-01   6.0576158e-01   2.8220772e-01  -4.9412267e-01   8.7963163e-01   3.1484499e-01   9.1930127e-01  -5.8322691e-01  -2.1996394e-01  -8.0946348e-01   1.3979665e-01   1.5918396e-01  -1.5332063e-01   5.7867622e-02  -1.8446340e-01   3.5851036e-01   8.7677819e-01  -6.8409380e-01   2.9815811e-01  -2.9068892e-01   1.0457179e-01  -3.7287703e-01   1.4595529e-01  -5.2148492e-01  -1.7846072e-01  -7.4520808e-01  -7.7272117e-01  -2.9945316e-01  -8.8310908e-01  -2.9121627e-01  -9.0600440e-01  -7.8709858e-01  -3.5966276e-01  -5.1735276e-02  -5.4283812e-01   5.2967323e-01  -9.5006469e-02   2.4210453e-01  -5.0988600e-01   8.8748926e-01   8.0256605e-01  -4.7608928e-01  -7.7853198e-01   5.5998927e-01  -5.2073650e-01  -8.7163930e-01   4.7572210e-01  -3.0377348e-01   4.4039445e-01   8.3476344e-01   2.3408696e-01   5.7177793e-01  -3.4477776e-01  -7.6829316e-01  -5.2322159e-01  -7.8895320e-01   4.3392645e-01  -4.3653909e-01  -1.4405411e-01  -9.3016188e-02  -5.4606614e-01  -5.7481061e-01   5.4308998e-01   7.9689838e-01  -5.9741024e-01  -4.2947402e-01  -9.0578111e-01  -9.1201235e-01   9.3110339e-01  -3.9632554e-01  -9.2813559e-01   2.4319830e-01  -4.2127241e-01   4.4974153e-02  -8.8442780e-02   1.0378159e-01   4.0337241e-01   6.0667962e-01   5.8574206e-01   2.7769411e-01  -6.0872653e-01   9.3013468e-01  -5.2145323e-01   2.8911336e-01   8.5752445e-01  -1.0624530e-01  -8.7595755e-01  -8.9179880e-01  -5.4723806e-01  -4.6119953e-01   1.6042206e-01  -2.7980521e-01   8.6262735e-01  -5.0077406e-02  -2.2782865e-01  -5.4876518e-01   6.0284105e-01  -1.1738967e-01  -3.5640615e-01   2.3679618e-01   8.9547329e-01   4.7568872e-01   4.5341045e-01   6.9841967e-01  -3.7187862e-01   7.1508009e-01  -9.4287976e-01   4.9485406e-01  -5.3566485e-01  -1.9256566e-01   3.4113016e-01   2.8654208e-01  -2.9811954e-01  -5.6759197e-01   2.0337463e-02   6.7196921e-01   4.2113733e-01  -8.7581748e-01   8.7294282e-02  -2.4668781e-01  -6.0093361e-01  -2.9312599e-01  -2.6783819e-01  -9.4888797e-01   8.6232632e-01   1.5212717e-01  -7.2939401e-01  -5.6631567e-01  -3.2240643e-01  -2.9569268e-01  -7.0731440e-01   7.6346872e-01   6.1437986e-01   2.7133780e-01  -9.7047811e-01   4.7010407e-01   5.7839060e-01  -1.3889949e-01  -3.8187813e-01   8.1168958e-01  -6.2405348e-01  -3.1406245e-01  -3.9346885e-02  -2.3374931e-01   9.3502102e-01  -8.6384694e-02   6.1262698e-01   9.1711935e-01  -1.6729530e-01  -8.9924203e-01  -5.3693620e-01   1.1485213e-01   2.7107412e-01   3.8964479e-01  -2.7176724e-01  -1.7571822e-01   1.0466763e-02   4.4904592e-01   1.3450621e-01  -5.2236143e-02   2.5201620e-01  -2.2142078e-01   4.7245517e-01  -2.6628613e-01   7.0443112e-01   3.5655756e-01  -1.3023619e-01   7.8983694e-01   2.4076178e-01  -5.8999721e-01   2.0873105e-01  -9.7705009e-01  -7.9745043e-01  -9.6060013e-01  -5.2066302e-01   6.6345085e-01  -9.1309108e-02  -1.5855371e-01  -5.8377824e-02   1.4106132e-01  -7.7277595e-01  -6.2763499e-01  -6.0068540e-02   5.5253120e-01   2.2118233e-01  -4.3714266e-01  -5.0830579e-01   4.6543101e-01   8.6754389e-01   8.5935700e-01  -9.5144793e-01   6.8644789e-03   9.9160285e-01  -7.8586719e-01  -4.7182387e-02  -6.6398802e-01   9.3197106e-01   2.0806572e-01  -9.9133976e-01   5.0033332e-01   4.7271467e-01   2.5569486e-01   4.1321063e-01  -3.1627715e-01   6.8312393e-01   6.2142015e-01  -5.1815567e-01  -2.1745127e-02   1.7983704e-01   1.5550392e-01  -6.8386101e-01   6.7397454e-01  -3.3156265e-01   9.1170603e-02  -4.7492634e-02  -3.2908472e-01   6.7920998e-01   1.0931462e-01   4.9492988e-01   3.4408925e-01   4.5419679e-02   9.5552590e-01  -4.3170931e-01   1.3287489e-01  -3.3723934e-01  -1.3897144e-01   1.6148683e-01  -3.6114688e-01  -7.6590491e-01  -1.2053108e-01  -8.7470435e-02  -9.0387447e-01   6.9595872e-01   3.2579913e-01  -4.7728961e-01  -4.2785358e-01  -9.8224642e-01   8.2835024e-01   9.0192057e-01   7.8569025e-01   3.7620742e-01   5.0510835e-01   3.6314592e-01  -2.3636001e-01   8.6382632e-01  -8.1786450e-01  -8.1901747e-01  -4.8423215e-01   2.3014545e-01   3.7977776e-01  -8.0485229e-01  -1.6452850e-02   9.8024216e-01  -5.3444771e-01   2.9231011e-01   3.8149786e-01   7.9753565e-01  -6.5094169e-01  -7.5478389e-01  -4.9487484e-01  -8.4126712e-01   7.2967176e-01   1.5106351e-01   2.5405995e-01  -6.2835495e-01  -2.8066222e-01  -1.9711065e-01  -1.5559756e-01   5.3038756e-01  -1.4750785e-01   2.7012213e-02   4.8082141e-01   1.8590198e-01  -7.0770535e-01   2.1521405e-01  -6.3830557e-01   6.6734288e-01   2.1747447e-01   4.1746423e-01  -6.2979196e-01   4.1791380e-02  -7.8343024e-01   9.0107295e-02   9.9031704e-01   7.6777800e-01   5.5946704e-01  -9.5003017e-01  -6.3444149e-01   5.7545126e-01  -5.2736598e-01  -9.4553606e-02  -4.7005203e-01  -2.3321833e-01  -6.7089771e-01   5.0805076e-01  -2.7020752e-01  -8.6608307e-01   5.6401064e-01   9.8946117e-01   2.3642131e-01   1.0883976e-01   8.7218703e-01   8.2811619e-01  -5.4844859e-01   7.6134362e-01  -7.7064476e-01   8.4595390e-01  -5.3803801e-01  -8.2868928e-01  -9.3855555e-01   9.4115671e-01   4.0107004e-01  -7.0087437e-01  -8.0198200e-01   8.4471371e-01  -4.3331784e-01  -1.3703352e-01  -1.5085422e-01  -6.4691685e-01   2.6160458e-02  -9.9404906e-01  -8.9342278e-01   9.8092985e-01  -5.5572444e-01  -1.6725505e-01   2.6686746e-01   1.9765703e-01  -1.4833190e-01   5.3785498e-02   8.1598578e-01  -7.6891686e-01  -6.2442945e-02  -4.7981341e-01
