   8.0418711e-01   6.2834978e-02   1.4185700e-01  -4.9274846e-01   2.5096674e-01   8.5851909e-02  -7.4023051e-01  -3.0496512e-02  -5.3881944e-01   7.5222257e-02   4.7761435e-01  -1.2145454e-02  -7.0830499e-01   4.4600966e-01  -2.8040721e-01   2.2097341e-01  -5.4478982e-01   4.7718945e-01   2.7871602e-01   6.1173697e-01  -2.8188487e-01   1.7546293e-01   6.2604539e-01  -3.3441999e-01   1.5917786e-02   1.8846901e-01   5.3111984e-01  -2.9135911e-01  -5.8127552e-02   3.5787615e-01  -2.9915750e-01   9.1804254e-01  -1.1355191e-01  -6.3669782e-01  -6.1922491e-01  -1.1951817e-01   5.0335733e-01  -6.0972094e-02   6.4773952e-01   6.4545575e-01  -9.8897279e-01  -9.7946172e-01   3.4968718e-01   6.3754767e-01   1.0028704e-01   6.5326489e-01  -8.3852081e-01  -8.2935068e-01  -2.5026782e-01  -6.0456239e-01  -8.0908426e-01   9.4153450e-02   3.0080815e-01   1.4115453e-01   8.2883287e-01   9.0110560e-01   7.6615404e-01   9.0830782e-01  -8.3433679e-01  -7.3492488e-01  -7.9173654e-01   8.5112053e-01  -3.0931348e-01   4.4471504e-01   6.6902999e-02   4.8209777e-01  -2.8475971e-01  -4.9800661e-01  -6.3250906e-01   3.8910713e-01   7.2432708e-01   7.2432206e-01   1.2304437e-01   6.1779321e-01   6.5816787e-01  -6.8888527e-01  -8.0940994e-01  -7.7908063e-01   4.1806401e-03  -8.7266773e-01   9.7956582e-01   5.6607501e-01  -4.1760321e-01  -3.3455495e-01   7.4432022e-01   2.4437283e-01  -4.2109516e-01   2.2814691e-01   7.3855459e-01   4.8081626e-01  -2.2733757e-02  -3.9001334e-02   3.8976085e-01  -4.4847567e-01   2.4686240e-01  -4.1107974e-02   8.2080145e-01   4.1284647e-01   5.3128636e-01   2.6833744e-01   3.4395081e-01  -9.0584306e-01   8.0271488e-01   9.0914376e-02  -8.5641925e-01  -1.7452260e-01   1.3757411e-01  -3.8207839e-01  -2.3084933e-01  -9.7521371e-01  -5.6146374e-01   1.0521074e-01   2.5038567e-01   2.5727877e-01   1.7658015e-01   2.4736705e-01  -2.0447149e-01   8.9973645e-01   9.1263782e-01  -8.7937628e-01  -2.6679969e-01   9.5454672e-01  -2.6031454e-01   1.4126412e-01   8.0580105e-02   3.2539885e-01   5.7627089e-01  -1.6264401e-02   8.2436708e-01   6.9819364e-01  -8.9307513e-01   7.4426186e-01   1.2775071e-01   2.8902505e-01  -2.7970716e-01   4.4830994e-01   1.8334077e-01  -1.0810559e-02  -6.4054943e-01   5.0854164e-02  -1.0815164e-01   3.9439017e-01   9.2044488e-01  -5.9249636e-02   2.2629707e-01   4.9169217e-01   7.1958254e-01   5.1057116e-01  -4.6941083e-01  -8.9216859e-01  -8.9518142e-01  -8.9411077e-01  -9.4009179e-01   2.8690169e-01   6.0964071e-01  -5.2582532e-01   6.6677839e-01  -6.6116490e-01  -5.3570107e-02   5.6761690e-01  -4.1163553e-01   3.5634134e-01  -4.7271942e-01  -6.8411617e-01  -4.4312097e-01   8.4535272e-01  -4.2079842e-01   3.1163432e-01  -7.7632444e-01  -5.1775532e-01   8.5142899e-01  -8.0870789e-01   4.9413331e-01  -5.9003460e-01   4.5338142e-01  -3.8807810e-01  -5.8742956e-01  -5.5352855e-01   2.0726691e-01  -6.4558863e-01   4.4762718e-01  -4.6974024e-01   4.1200594e-02   4.9122084e-01   1.3069777e-01  -5.3388714e-01   4.1646192e-01  -4.1638863e-01   3.5431397e-01  -2.8251585e-02   5.3876084e-01   9.9465193e-01  -6.9137507e-01   4.7458965e-01  -7.7450966e-01  -2.8408696e-01  -3.1034767e-01   4.3842532e-01  -6.5297343e-01   8.9892773e-01   4.2852875e-01  -7.7278120e-01   5.5401199e-01  -2.1260584e-01   5.1330259e-01  -6.4870266e-01   5.3672539e-01   5.5931421e-01   3.1471189e-01   6.9426480e-01   9.7700084e-01  -9.5751808e-01  -3.2072179e-01   4.2101850e-01  -5.6672377e-01   7.8660596e-01   4.6602078e-01  -7.0912821e-01  -6.2997151e-01   4.5114225e-01   4.0126132e-01   9.9460073e-01   3.1290693e-02  -3.4497040e-01  -9.1992516e-02   6.7132126e-01   5.7978295e-01  -3.9033896e-01   4.1817747e-01  -3.8209163e-03   9.6165067e-01  -2.7510403e-01   7.7994827e-01   1.8874134e-02  -8.5973982e-01  -5.8769320e-01  -7.6278653e-01  -7.7825449e-02  -4.1838886e-01   4.5052899e-02   7.8623805e-01   1.6577240e-01   2.8232249e-01   6.5599373e-01  -4.1851466e-01  -1.9606788e-01  -6.0733413e-01  -7.9738717e-01  -5.3589663e-01   3.6596000e-01   7.9590618e-01  -4.2538407e-01  -4.1081333e-01  -3.4134710e-01   4.8433231e-01   1.4631713e-01   3.0188215e-01   5.1250371e-01   7.4015460e-01  -3.7143446e-01  -6.2732797e-02  -4.9822866e-01  -2.3281564e-01   1.2869241e-01   9.2819760e-01   7.0568036e-01  -8.4757589e-01   8.9729620e-01  -6.9606605e-02  -8.6513218e-01  -4.0965945e-01   3.7504628e-01  -5.9192028e-01   3.9937826e-01   7.0432213e-01   1.6372896e-01   4.1391738e-01   8.6679647e-01  -2.6521817e-01  -6.7290939e-01  -2.8861902e-01  -4.7488309e-01   2.0349300e-01   6.3568736e-01   7.5305467e-01  -7.3992626e-01   6.6716841e-01  -9.6773839e-01  -1.4063304e-01  -2.6136037e-01  -2.0949169e-01  -3.9721565e-01   4.1985163e-01  -5.8134672e-01  -5.1443868e-01   6.0843378e-01  -2.2989891e-01   4.8262668e-01  -7.7270773e-01  -6.3689110e-01  -5.2006948e-02  -2.9127080e-01  -6.1731310e-01  -7.0880368e-01   3.6573961e-01   1.9487603e-01  -3.8155419e-01  -2.6787455e-01   1.5103027e-01  -9.4535821e-02   8.5120954e-01  -7.2886752e-01  -7.3572598e-01  -8.6509277e-01  -2.5724578e-01   8.4907286e-01   5.4049447e-01  -9.7961716e-01   4.5293463e-01  -8.1675428e-01  -9.7650740e-01  -5.2640966e-01   7.0092686e-01   6.4311598e-01  -6.5388603e-01   4.2445506e-01   5.3602176e-01  -1.1369724e-01  -1.1094766e-01   2.1825383e-01  -1.1918055e-01  -7.1256880e-01  -7.5180066e-01   4.3884954e-01   1.8355592e-01   7.7568053e-01  -8.6148199e-01   8.3161869e-01   7.7692872e-01  -6.0500148e-01  -4.5100643e-02  -7.9083808e-02   8.3364044e-01   5.0361833e-01  -3.6079693e-01   6.8009544e-01  -8.2637666e-01  -5.1753979e-01   9.7925491e-01  -1.2923992e-01   3.6669244e-01  -9.6853011e-02   1.9623868e-01  -6.2809370e-01  -8.0863871e-01  -1.7826240e-01  -8.0011853e-01  -9.8495481e-01   2.5243963e-01   5.1085453e-01   2.0406625e-01   8.4713833e-01   4.6306311e-01  -8.3425210e-02  -6.3080495e-01   2.9093077e-01   3.9983151e-02   6.2534213e-01  -5.1265437e-01   4.7798719e-01   9.6649795e-01  -4.6698682e-01   1.4468565e-01  -4.5578449e-01  -2.3866251e-01  -6.2709105e-01   3.0617625e-01   2.0842353e-01   8.2700932e-01   3.0610079e-01   8.5619827e-01   4.0839959e-01   6.0904964e-01  -2.0535724e-01  -1.7893810e-01   5.6248688e-01  -7.1887628e-01   1.5359956e-02   1.9547064e-01   6.3799852e-01   1.3152853e-01  -6.5320279e-01  -5.8874844e-01   4.7571200e-01   1.9299557e-01  -8.0643898e-01  -7.5883061e-02  -7.3976383e-01   8.6961016e-01   5.2733604e-01  -5.5216322e-01  -9.0563371e-01   8.6678546e-01  -2.6483118e-01  -3.9165419e-01  -8.0196287e-01  -5.2545912e-01   1.8926616e-01  -4.6257337e-01   2.5959866e-01  -9.3117715e-01  -9.1822321e-01  -1.2000226e-01   2.6979530e-01  -6.6438598e-01  -2.9984560e-01  -3.3580720e-01   5.1345838e-01   8.0132713e-01   4.4632377e-01   3.7764649e-02  -8.1364681e-01   9.0561368e-02   1.8324281e-01   8.3037429e-01   1.6771957e-01  -8.6021664e-01   9.0116116e-01   8.1608155e-01  -8.7810833e-01  -7.6374074e-01   7.3559812e-01  -3.1881153e-02   1.8251819e-01   3.6764697e-01   7.5920615e-01  -9.9461758e-01   6.0733590e-01   3.4445207e-01   7.5855600e-01   9.3801400e-01  -4.9750854e-01  -5.0443447e-01  -7.6260563e-01  -3.1683773e-01   9.7717947e-01  -1.0657878e-01  -9.6772990e-01  -5.2720998e-02  -7.7532249e-01  -5.3233654e-01  -4.9395282e-01  -2.9129458e-01  -1.3769206e-01   2.2556669e-01  -4.2943614e-01   1.7493074e-01  -7.5297568e-01  -2.4442914e-01   1.0464917e-02   4.4126784e-01   8.3410508e-01  -1.3823241e-01  -5.3032183e-01  -1.4303149e-01  -6.9042701e-01  -1.5163712e-01  -6.9954507e-01   9.7936064e-01   7.9325891e-01   6.8546685e-01   2.0964912e-01   3.3171623e-01   5.8687872e-01  -6.3585984e-01  -8.6412548e-01  -2.4776156e-01  -8.4376181e-01   4.4899303e-02  -4.9584752e-01   5.3192001e-01  -8.9052581e-01   6.3045497e-01  -1.4325954e-01  -7.2845065e-01   8.3544123e-02  -6.8949450e-01   4.6066636e-01  -2.0205097e-01   9.1956162e-01   3.5561208e-01  -7.2626947e-01   6.1818386e-01   3.2845906e-01  -4.9555670e-01   6.6616099e-01   7.7067607e-01  -3.8518034e-01  -8.7119875e-01  -7.8879480e-01   8.7036069e-01   9.0382098e-01   6.3943039e-01   5.5191877e-01   4.3230075e-01  -2.9433895e-01  -2.6094422e-01   4.5016878e-01  -6.0561314e-01  -6.8463758e-02   4.5062074e-01  -3.2254752e-01  -9.5728042e-01   1.6095926e-01   3.8815919e-01   5.5191039e-01   6.3827367e-01  -7.5542685e-01  -9.7702092e-01   6.0185125e-01  -8.2894108e-01   5.7056380e-01  -9.1768312e-01   2.0459387e-01   3.0721580e-04   6.9180882e-01   2.9891573e-01   2.7754655e-01   1.0171605e-01  -5.2715679e-01   6.9297944e-02  -1.4873529e-01  -1.6129761e-01   8.3237466e-01  -9.9124047e-01   4.7865267e-02   5.4793875e-01  -7.8865179e-01   9.8666469e-01  -9.9172275e-01   7.9967511e-01  -2.3901159e-02   9.6846332e-01  -9.4488533e-02   5.0828982e-01   6.5891034e-01   1.8350225e-01  -4.7878632e-01  -5.0751552e-02   5.7383809e-02  -1.6204402e-02  -6.6122590e-01   4.8215001e-01  -4.4816280e-01  -3.5737453e-01  -7.2792251e-01  -7.4383095e-01  -6.0556304e-01  -7.8582484e-01   7.4469644e-01   8.2374037e-01   3.1546108e-01  -1.3145105e-01  -1.4312855e-01   8.4974463e-02   1.0326179e-01   4.0954458e-01  -8.5803191e-01   3.5526920e-01  -9.4240790e-01   6.7238083e-02   7.8567872e-01   8.7554463e-01  -2.4979631e-01   7.3140690e-01   6.7651966e-01  -8.0795584e-01  -3.1846149e-01  -4.1313495e-01   2.9893810e-01  -1.1140798e-02   7.3426824e-01   9.0418024e-01   8.3116245e-03  -6.2710681e-01   2.3491321e-01  -3.3988114e-01  -3.4255053e-02  -7.4854752e-02   5.6985728e-01  -5.5623194e-01  -6.5697679e-01   8.2701839e-01  -6.5217274e-01   7.2576373e-01  -6.5987498e-01  -3.2926036e-02   5.2582999e-01   9.7300287e-01   6.3646685e-01  -7.8148025e-01   5.2669409e-01   1.5361309e-01   7.3832852e-01   6.5026252e-01   7.2044130e-01  -9.9091098e-01   9.9162190e-01  -9.3626566e-01   7.8142162e-01   1.0047455e-01  -8.3020754e-01  -2.9076578e-01   4.7692122e-01   3.9493290e-01  -6.7236530e-01   6.3536887e-01   8.7371882e-02  -1.4997319e-01   9.8782096e-01  -2.1084759e-01   6.7046026e-01  -8.5976891e-01  -4.5364738e-01  -8.4396511e-01  -9.1505376e-02  -9.9799013e-01  -4.1805529e-01  -5.2315669e-01  -3.5208775e-01  -5.7046256e-01  -2.1816701e-01   8.7214187e-02   3.2160915e-02  -2.0831692e-01  -4.5891266e-01  -7.7954040e-01  -3.5598926e-01   9.3147709e-01  -9.3068445e-01   5.4970354e-01   2.1359038e-01  -2.7049929e-01  -8.1394765e-01   4.9088927e-01  -7.7866495e-01  -3.6902094e-01   2.6004489e-01  -7.1448287e-01  -7.8436184e-01  -1.1030451e-02   1.0745325e-01   6.8656428e-01   9.4693962e-01  -8.8484072e-01   5.0166431e-01  -7.2539375e-02  -6.0287694e-01   3.3646354e-01   7.1892237e-01  -8.7778563e-01  -8.6155187e-01   8.6598813e-01  -8.0139820e-01  -8.6961293e-01  -7.7748561e-01   2.8805352e-01   1.0418928e-02  -6.3000415e-01   4.6847481e-02  -5.5845098e-01  -3.7585281e-01   4.8363114e-01   1.8473712e-01   9.0617463e-01   1.3247733e-01   5.8797857e-01   9.3488229e-01  -9.7058764e-01  -7.3914234e-01   3.6264969e-01  -7.9273802e-01   6.4234277e-01  -1.6343309e-01  -2.6044140e-01   6.3798604e-01   3.8351020e-01  -1.2940599e-01  -8.7482416e-01  -8.0259806e-01   9.2893978e-01   7.2595670e-01  -3.8966669e-02  -9.8356040e-01  -6.1325508e-01   2.1137013e-03   5.1598417e-01   8.2518303e-01  -2.5843015e-01  -1.4667341e-01   3.2961997e-01  -5.7637493e-01  -9.8530801e-01   4.2154548e-01   6.8039732e-01  -7.5301656e-01  -1.5649690e-02  -1.8796054e-01  -5.4014483e-01   2.7886215e-01  -4.3600683e-01  -6.0254583e-01  -4.8732755e-01   8.4360072e-01  -6.3228492e-01   5.9047160e-01   4.5424311e-01   4.7049240e-01   5.2855451e-01  -3.3243518e-01   1.2955776e-01  -3.9464368e-01  -6.3720549e-01  -8.5548260e-01   6.5414640e-01   2.9968774e-01  -7.1840052e-01  -8.8408356e-01  -2.3253203e-01  -6.0530720e-01   7.9912290e-01  -9.9371132e-01  -8.0147946e-01   7.7237313e-01   7.6027556e-01   2.9123099e-01  -8.4101312e-01   6.0267959e-02   4.6606239e-01   1.9028950e-01  -9.8080235e-01   6.8415010e-01   5.7459017e-01   7.4131571e-01  -1.5500729e-01   7.6271697e-01  -8.4488240e-01   6.3108916e-01   7.8713247e-01  -4.7624481e-01   4.4193475e-01  -3.6597597e-01  -7.8758975e-01  -4.3356675e-01  -9.5796310e-01   1.2126476e-01  -3.8906566e-01  -6.3190566e-01  -7.4588260e-01   9.4994455e-01   3.4490652e-01   9.3078411e-01   7.7484816e-01  -6.1750596e-01  -8.2967632e-01  -7.4821329e-01   7.9137258e-01   1.6955907e-01   8.0111784e-01   8.6627414e-01  -4.6595630e-02   3.5006324e-01   2.5166294e-01   5.9945879e-01   2.7751159e-01  -8.8771825e-01  -5.5318290e-01  -9.9792860e-01   8.2994901e-01   3.8999742e-01  -5.6091474e-01   3.5355021e-01  -5.6472098e-01   3.3166019e-01  -4.8293805e-01   2.8993773e-01  -5.4964316e-01  -7.7741185e-01   5.6344942e-01  -2.4619989e-01  -8.0477742e-01   3.0913561e-01  -7.0810136e-01   3.2149455e-01  -2.2245645e-01  -5.3202414e-01  -9.7539010e-01  -6.7928179e-01  -3.3035198e-01   2.4585346e-01   3.9579962e-01  -3.3106468e-02  -3.4905966e-01  -7.8878786e-01   5.5466786e-01  -1.3664447e-01   7.1190472e-01  -6.1884787e-01   2.1089053e-01   4.7181605e-01   4.5741951e-01  -6.1767282e-01   7.1316838e-01   3.5454521e-01   4.2733474e-02   7.0194319e-01  -7.2126055e-01  -8.7094339e-01  -3.4513163e-01  -8.4726278e-01  -9.6040133e-01  -8.3687562e-01  -3.9357007e-02  -5.5968795e-01  -3.2582793e-01  -4.6150650e-01  -4.1911758e-01  -6.1851221e-02   2.0041206e-03   7.7369162e-01  -2.2147237e-01  -4.6541013e-01   2.9428412e-02  -2.4299557e-01  -5.0419154e-01  -1.1401296e-01   5.0537760e-01   1.6093962e-01   6.7968570e-01  -3.6355605e-01  -4.6292053e-01  -5.3422268e-01  -5.5893748e-01  -2.5599039e-01   9.2171244e-01  -4.7945600e-01   5.0666161e-01  -8.2232764e-01  -9.3941710e-01   6.2991305e-01  -3.2835586e-01   8.6482752e-02  -4.0582465e-01  -6.7545227e-01   4.7862425e-01   1.2886234e-01   2.2069150e-01   6.4864029e-01  -9.0083257e-04   7.8899987e-01  -7.5664289e-01   2.0150870e-01   6.3312609e-01  -6.3437908e-02   8.9413682e-01  -5.3652181e-01   6.8677256e-01   3.1869073e-02   7.3402020e-03  -8.9901015e-01   1.1784790e-01  -9.0140033e-01  -1.7815937e-01  -6.0552912e-01  -5.1502094e-01   7.4259802e-01  -3.8034479e-01  -4.7975030e-01  -1.1662942e-01  -2.9263662e-01   1.4678379e-01  -3.6620237e-01   8.7909312e-01  -5.9247055e-01   5.3294658e-01  -6.3423681e-01  -2.6571388e-01  -5.6480078e-01   4.9724171e-01  -7.0115839e-03  -4.2157497e-01   2.1947228e-01  -9.7099725e-01   7.2512869e-01   2.9991684e-01   8.7475534e-01   5.0610075e-01   5.7197026e-01   4.6781832e-01   6.6077310e-01   9.6861154e-01  -4.1321918e-01  -1.3404042e-01  -4.1782086e-01  -1.8991777e-01  -8.4685322e-01  -4.2789491e-01   9.0096899e-01  -7.5288982e-01  -8.6462146e-01  -7.7382548e-01   4.4188015e-01   1.5521091e-01   6.4095880e-01  -8.2705647e-01   6.1715976e-01  -3.5562012e-02   4.4054445e-01   7.6579526e-01  -5.0467678e-01  -9.5138849e-01  -9.9232311e-01   8.4496980e-02   4.2187008e-02   7.9227650e-01   8.1143659e-01  -4.0509868e-01  -1.2084660e-01   1.2943860e-01   9.9823816e-01  -9.2303824e-01  -4.0136484e-01  -2.4873774e-01   8.7114521e-01   5.5700292e-01   1.4161620e-01  -3.5635230e-01  -1.6825200e-01   7.8572517e-01  -6.9674858e-01   6.1823060e-01   2.7595064e-01  -4.1317924e-01   7.3096208e-01   9.1039979e-01   7.0836199e-01   4.9089217e-01  -4.4123374e-01  -4.1162075e-01  -4.7179660e-01  -9.2786731e-01   2.1692932e-01   5.7744365e-01  -1.7117148e-01   4.0764790e-01   8.0119913e-01   5.2554468e-01  -2.2746706e-01   1.8073495e-01  -1.0346495e-01   5.2783647e-01   6.1118500e-01   1.7590203e-02   5.1438506e-02  -8.4054620e-01   6.3740767e-01   5.5665693e-01   5.8919598e-01   9.5676007e-01   9.1761890e-01  -7.7628943e-01  -4.0509689e-01   3.0923994e-01   5.8699437e-01  -5.0726070e-02  -3.2303822e-01  -2.4855981e-02  -7.5834533e-01   3.3899572e-02   6.5964003e-01   5.8512275e-01  -5.2091921e-01   5.0304001e-01  -8.5803933e-01   9.3649525e-01   8.6941484e-01   4.8944709e-01  -4.7238110e-01  -6.7658281e-01  -6.1955212e-01  -3.5097404e-01   5.9406295e-01  -5.3430187e-01  -1.5529412e-01  -6.4579498e-01  -7.3466414e-01   8.7174110e-01   2.7254079e-01   3.9175355e-01   6.9911350e-01
  -5.9782944e-01  -9.5251574e-01  -9.2049141e-01  -7.7135559e-01  -4.5148798e-01   3.5869550e-01   9.3622012e-01  -7.6456329e-01  -8.4497375e-01   4.8396666e-01   6.8655971e-01   7.8131861e-01   7.3559176e-01  -7.6970268e-01   3.2630809e-01   3.9554684e-01  -7.9585771e-01   4.5307487e-01   5.1712425e-01  -1.0884639e-01  -4.9997916e-01   7.9550852e-01  -2.5539107e-01  -9.8120712e-01  -1.0066392e-01  -1.4132800e-01  -8.4238527e-01   2.4440306e-01   2.5792765e-01  -7.9599130e-01  -1.2202521e-01   2.8051792e-01   4.2206160e-01   9.5039418e-01   6.2725056e-01  -2.6026730e-01  -9.6920939e-01  -3.0028482e-02  -9.8955206e-01   8.6924368e-01   3.6812157e-01   8.9960608e-01   9.1376619e-03  -1.2639731e-01  -9.7486405e-01  -7.6845425e-01   9.3637290e-01  -6.7516839e-01   7.3445680e-01   8.3265639e-01  -2.9256884e-01  -9.6070163e-01   8.1748907e-01   1.1712241e-01  -2.1076656e-01  -5.1397341e-01   5.3357045e-01  -5.6232424e-01   2.7354022e-01  -5.7614172e-01  -2.9609200e-02  -6.3058779e-02  -4.7309887e-02  -2.7953210e-01   5.2250837e-01   6.9987749e-01   8.5083440e-01   6.6100932e-01  -5.1181413e-01  -2.5620725e-01   1.8389345e-01  -9.2818912e-01  -8.9192798e-01  -5.5919666e-01   4.3516985e-01  -7.6054365e-01   1.1303326e-01   9.0604219e-01   9.9389518e-01   8.1924060e-01  -2.4716628e-01   2.6985088e-01  -1.2127369e-01  -2.9609884e-01   9.8182128e-01   4.4054960e-02  -1.3713409e-01   4.4249242e-01  -7.0658364e-01   9.9016743e-01   6.2696771e-02  -2.0152389e-01   8.3396625e-01  -8.2981013e-01   1.2143219e-01  -9.1878908e-01  -8.2005663e-01  -8.3433105e-01   4.5097291e-01  -6.9828367e-02  -6.9132078e-01  -5.6638899e-01  -3.7313148e-01  -3.4393801e-01   8.9746392e-01  -7.2752975e-01   1.2082002e-01   6.9863509e-01  -5.6661623e-03  -5.7314350e-01   9.0331087e-01  -4.4916499e-01  -9.4323435e-02   9.8717898e-01  -7.4162518e-01   9.6735447e-01   9.3987562e-01   8.8099754e-01   6.9633563e-01  -9.7025869e-01   5.9656316e-01   2.7212264e-01   1.3736582e-01  -7.2802622e-01  -2.2040283e-01   8.8243906e-02  -7.9849255e-01  -1.1523507e-01  -4.9879592e-01  -5.3273847e-01   4.0762373e-01   1.8049834e-01  -9.9138724e-01  -4.1941503e-01  -9.7364794e-01   9.6261001e-01  -5.1738049e-01   5.0761714e-01  -7.9587930e-01  -6.2959290e-01  -5.3117926e-01  -7.6192817e-01  -9.1163319e-01  -2.7929557e-01   6.7573268e-01  -3.3465648e-02   5.3829061e-02  -1.8231646e-01  -5.5949546e-01  -4.2357047e-01  -2.5055998e-01   4.9232984e-01   6.7902747e-01   9.0464040e-01   5.6804716e-01   3.0442787e-01  -1.6202542e-01  -1.5049833e-01  -1.9050895e-01  -4.2321811e-01   3.0003019e-01  -4.4745564e-02  -5.6248879e-01   2.9821435e-02  -1.8393153e-01  -2.5546754e-01  -4.0923510e-01   4.8203103e-01   1.4594649e-02   1.3618918e-01  -4.6887087e-01  -6.4131810e-01   1.0496942e-01   2.7807739e-01   8.1595063e-01   7.8145972e-01  -8.3983038e-01  -3.6963948e-01  -5.7621619e-01   9.7500551e-01   5.3104531e-01   9.9885546e-01   2.1000135e-01  -1.8651482e-01  -8.3667061e-01  -9.4307493e-01   7.2279289e-01   3.0117109e-01  -1.1500605e-01   3.2521594e-01   6.9416617e-01  -1.7896800e-02  -9.1952640e-01  -5.3759171e-01   4.2122242e-01  -6.9334058e-01  -8.2888670e-01  -3.3826990e-01  -6.4181914e-01  -2.7001566e-01   9.9934815e-01  -5.6814122e-01   6.3503402e-01   4.4218619e-01   5.5314330e-01  -2.0501645e-01  -9.7370366e-01   6.2526221e-01  -8.6526482e-01   5.7962465e-01   5.8103560e-01  -6.3101306e-01   4.4027982e-01  -4.7270754e-01  -6.8738525e-01   7.3343041e-01   7.1323985e-01   1.3097349e-01   8.0617001e-01  -8.8112774e-01   6.2725147e-01  -3.6656841e-01  -1.0491140e-01  -9.3222970e-01   5.9849740e-01  -6.8249957e-01  -4.3438024e-01   1.6414473e-01  -5.8366005e-01  -3.4828810e-01  -6.8818311e-01  -1.8518275e-01   9.4933761e-02  -2.3874652e-02  -1.9130646e-01   7.4563564e-01  -1.6076916e-01  -9.7407269e-01   2.8819856e-01  -5.1733038e-01   6.2352027e-01  -5.3287390e-01   3.8001243e-01  -1.4806356e-03   5.1761626e-01  -7.8133030e-01   7.0827899e-01   2.7646619e-01   4.1303436e-02   8.2889976e-01  -3.1460262e-01   1.2701492e-01   5.8215465e-01   7.6470016e-01  -1.9586985e-01  -9.5271409e-01   2.0334859e-01   3.3476752e-01  -8.4199534e-02   3.4920075e-01  -8.0617745e-01   6.0441293e-01   3.3918350e-01   8.7218097e-01   6.7985542e-01   5.7546270e-01  -9.4951802e-01  -1.8797611e-01   9.0197304e-03  -2.7363520e-01  -1.4363905e-01  -3.7114765e-01   1.9107295e-01   5.6619602e-01   7.5554763e-01   6.3197920e-01   2.3927998e-01   1.2024423e-01   7.3656794e-01   4.2212185e-01  -8.9912640e-04   7.9228858e-02   7.8988462e-01  -5.9448563e-01   7.8276960e-01  -8.9654248e-01  -4.8428669e-01   5.0421000e-01   8.2735869e-01  -6.2680297e-01   1.7267313e-01   1.4677935e-01   2.3748282e-01  -4.4999533e-01  -1.8348719e-01   5.7467552e-01   6.2014601e-01   2.2181040e-02   6.4168142e-01   8.6657925e-01  -2.9321181e-01   3.6812538e-01   8.0866130e-01   1.0735519e-01  -6.4319397e-01   2.8648051e-01   4.7947485e-02  -7.2320580e-01   9.6403137e-01   6.3181402e-01   6.9941337e-01   7.6434376e-01   3.4863145e-01  -6.4741461e-01  -1.5218513e-01   1.8994168e-01   5.4387985e-01  -5.5329715e-01   8.4384616e-01   5.5893660e-01  -5.6772630e-01  -6.5854373e-01  -3.8455607e-01   9.7004145e-01   1.7102723e-01  -1.5055239e-01  -1.2480367e-01  -3.4161466e-01  -7.0473108e-01  -2.4725357e-01  -9.9574090e-01  -3.0668250e-01  -6.9322448e-01  -4.9368174e-02   6.2844537e-01   1.8064387e-01  -6.6352877e-01  -2.7772838e-01   7.6805797e-01   4.5303001e-01  -2.7375087e-01  -8.9330228e-01  -6.3297473e-01   2.8578896e-02  -5.2474863e-02   5.1871411e-01   3.5432082e-01   2.8257979e-01   9.6447434e-01   6.0460774e-02  -8.9610895e-01   5.0120297e-01   4.4995236e-01  -9.4099954e-02   6.3223915e-01   6.5169684e-01   3.8291345e-01   9.2693361e-01  -2.0913890e-01   1.3508091e-01  -8.8829596e-01   9.3567073e-01  -4.2205859e-01  -9.6228206e-01  -1.9501408e-01  -3.1813162e-03  -6.3347725e-01  -7.4164352e-01  -4.7986854e-01   1.5331073e-01  -8.0115063e-01   8.4581525e-01   1.9591866e-01   5.8088694e-02   5.4742377e-01   9.0759436e-01  -4.0551595e-01   2.1019662e-01   1.4506646e-01  -3.2919380e-01  -1.5125768e-02   8.1761387e-01   3.1324214e-01  -3.4875116e-01  -5.8894784e-01  -5.6217696e-02  -1.4407131e-01  -6.1022654e-01  -7.7021593e-01  -9.4068788e-01   6.0698979e-01  -4.5537299e-01  -1.1010455e-01   9.1426207e-01  -2.0263254e-01  -9.2650314e-02  -6.2090841e-01   2.9783758e-01   4.3035949e-01   6.7089338e-01   9.7980322e-01   2.0932354e-01  -3.9320366e-01  -1.7256490e-01   1.7106336e-01  -3.1745374e-01  -8.2800558e-01  -9.2921719e-01  -5.8926419e-01  -2.1043974e-01   2.5087763e-01  -2.5889511e-01   5.5643149e-01  -8.8509433e-02   3.9799939e-01   5.2462398e-01   9.8138768e-01  -2.6960495e-01  -2.8233472e-01   2.2529577e-01   2.8772899e-01  -7.7246434e-01  -9.0605345e-01   6.0658999e-01   6.7136618e-01   9.9679828e-01   2.2833885e-02  -7.3835028e-01   5.4802263e-01  -4.8862418e-01  -5.7834672e-01  -8.7555150e-01  -4.6406128e-01   1.9596567e-01   2.9080525e-01   6.9319583e-02  -3.3301198e-01  -5.0130736e-01  -6.0208386e-01   5.2714911e-01  -1.8360879e-01   7.3842142e-01  -2.0490130e-01  -4.5142314e-01   6.4044945e-01  -2.4497659e-01  -8.6044419e-01   6.3226598e-01  -8.5003633e-01  -9.6938480e-01   9.0474615e-02  -8.3144293e-01   3.3129533e-01  -4.3884152e-01   9.8602905e-01   1.6152023e-03  -6.4283024e-01  -6.0892501e-01  -4.9549629e-01  -7.0289500e-02  -4.9122374e-01   5.7710799e-02  -4.1926800e-01  -6.8149764e-01   9.1318692e-01   5.4136554e-01   4.0713515e-02  -3.2714604e-01   1.9390981e-01  -1.6812393e-01   5.1216370e-01   4.4989623e-01  -9.6552186e-02   7.6806355e-01   5.4773219e-01   6.2859442e-01   1.0302279e-01   3.2959552e-01   4.3065515e-01  -6.0540180e-01  -3.7871525e-02  -5.7701804e-01  -6.2779818e-01  -6.3844983e-01  -4.3068749e-01   8.5795706e-02   4.3162307e-01   8.4750372e-02  -9.8742412e-01  -5.3042360e-01   1.1574424e-01  -5.3188379e-01  -4.4130627e-01   6.4633268e-01   7.5329802e-01  -8.6818400e-01   7.2224195e-01   6.2461867e-01   3.6711172e-01   2.9951347e-02  -6.9631738e-01  -6.9704371e-01   7.4205680e-03   2.0715900e-01  -1.7722344e-01   3.6646531e-01   6.5843467e-01   3.0430853e-01   8.9836357e-01  -4.8060014e-01  -4.1762199e-01   4.7876035e-02   8.4001084e-01   2.8282779e-02  -6.5214918e-02   6.0911929e-01   8.8329359e-01  -6.3451427e-02  -9.4203484e-01  -1.2953303e-01  -9.3148105e-01   5.9983692e-01   8.0334023e-01  -2.6160030e-01  -8.1690765e-01  -8.6331380e-01   1.2346089e-01   3.1267096e-01  -9.4529470e-01   6.2054779e-01   4.0241278e-01  -3.5156138e-03   7.6522061e-01   2.8572426e-01   7.3356741e-01   8.0521976e-01  -3.2164067e-01  -9.9669514e-01  -3.9002574e-03   4.1681654e-01   3.9638217e-01   2.6148829e-01  -4.8477901e-02   4.3010805e-02   3.2979820e-04   8.3593743e-02  -4.9031555e-01  -3.3618383e-01   6.8363076e-01  -7.4924185e-01  -8.9069013e-01  -8.9120353e-01   6.2989455e-02   8.8591878e-01   1.0945787e-01  -9.9544843e-01  -2.1922185e-01   2.4079136e-01   2.2392230e-01  -3.4239525e-01   9.0381386e-01  -4.4407992e-01   6.0243064e-01  -4.8342530e-01  -4.6596548e-01   1.3934955e-02   3.9448050e-01   6.3632786e-01   3.1480425e-01   1.7171035e-01  -5.8474831e-01   3.6118663e-01  -3.4202451e-01  -8.3645498e-01   5.0412129e-01  -8.5142115e-01  -9.5886669e-01  -5.3275316e-01   4.5194042e-01  -7.2390719e-01   5.7120957e-01  -6.2941492e-01   6.8599921e-01   5.7174435e-01  -2.3405887e-02   1.5728190e-01   2.6423782e-02   3.9258499e-01  -8.0733944e-01   4.9942029e-01   6.8630072e-01   1.4517776e-01   8.0451853e-01  -6.7336336e-01   6.8064716e-01   8.5154282e-01  -2.1387203e-01   2.6723730e-01   1.7544995e-01  -6.0291898e-01   8.0471261e-01  -6.8995874e-01  -5.6462281e-01  -7.8489716e-01  -8.0355390e-01   3.4097175e-01   5.1991934e-01   9.8788828e-01   9.8846228e-01  -4.6735225e-01   3.5010049e-01  -8.2067963e-01  -3.0668423e-01  -6.1105491e-01  -6.4061268e-01   3.5992804e-01  -8.2023595e-01  -9.3593301e-01   6.7296668e-01   7.3015935e-01  -3.0482538e-01  -2.0285890e-01  -4.8769504e-01   2.8929273e-01   5.5966814e-01   9.5793198e-01   4.5404658e-01  -7.8855762e-02   2.8515801e-01  -4.3931581e-01  -1.8420184e-01   8.3830202e-02   7.6648646e-03  -1.7840698e-01   7.9542799e-02   4.0518381e-01  -2.7833661e-01   4.4038162e-01  -8.7883096e-01   5.0716826e-01   2.6557330e-01   3.4635998e-01  -1.7102465e-01   6.3775101e-01   1.6667478e-01  -2.2383456e-01  -8.9969455e-01  -4.1240185e-01  -5.4948841e-01   4.9511430e-01   6.0254262e-01   4.6220537e-01   2.8043469e-01  -7.3630923e-01  -1.7989214e-01  -8.8481332e-01   7.0445620e-01  -8.5163097e-01  -3.8214935e-01   9.3537273e-03   4.2481639e-01  -2.7409493e-01  -3.4134049e-01  -1.6929344e-01   4.8463489e-01  -8.2376734e-01  -7.4656225e-01   5.2841307e-01  -3.2146029e-01  -2.4234864e-02   8.3709659e-01   3.9709470e-01  -2.0593461e-01   8.4934049e-01  -5.4483268e-01   6.7659080e-01  -2.9084688e-01  -2.6256389e-01  -3.7263917e-01   5.9829350e-01  -8.5656422e-01   8.2858928e-01   3.2250306e-01   9.6101512e-01   7.3692530e-01   1.0007498e-01  -3.5992337e-01   7.4699903e-01   4.2169940e-01   7.0361571e-01   2.8957913e-01   5.1094226e-02   5.0025884e-01   3.8925348e-01   2.7410167e-01   7.6012073e-01   4.4970167e-01   1.8259810e-01  -1.9485216e-01  -4.4691138e-01   3.6412426e-02   5.4274649e-02  -1.3310942e-01  -6.7593050e-01   5.9427900e-01  -6.6785728e-01  -2.1682626e-01   3.9067607e-01   2.0258269e-01   5.0670320e-01  -6.4087341e-01  -4.9569389e-01   4.7303530e-01   8.1328988e-02   4.7566798e-01   5.9373620e-01   5.6325146e-01   3.7600425e-01   4.1350671e-01  -3.7324352e-01  -7.1221266e-01  -4.8816995e-01   8.2216052e-01  -9.1400789e-01   6.9040566e-01  -1.9755434e-01   2.4178369e-01  -3.5930776e-02  -6.3121257e-01  -2.2276434e-02  -5.7052567e-01  -3.6392552e-01  -8.5355745e-01   3.1786607e-01   4.4163183e-01   5.5634345e-01   9.9419277e-01   9.5070416e-01   2.5102344e-01   1.3807453e-01  -1.7961428e-01   9.2461742e-01   3.9510475e-01  -7.7418304e-02  -8.0471312e-02   5.1136845e-01   7.2150965e-01  -2.1220664e-01  -8.9338249e-01   2.3417675e-01  -8.6460498e-01  -2.0508407e-01   2.7738920e-01   2.2850039e-01   6.7595614e-01   3.3303244e-01  -9.1969855e-02   4.2465810e-01  -4.0690078e-01  -4.9890122e-02   2.9297484e-02   8.1462689e-01   9.0350109e-01  -1.1979134e-01  -7.2842237e-01   4.7841108e-01   4.1337276e-01   2.3023505e-01  -2.0844915e-01  -4.5607451e-01  -2.3133863e-01  -7.3294064e-01  -8.0205111e-01   3.0468205e-01   6.8858582e-02   3.0725409e-01   8.9420197e-01  -5.1407870e-01  -6.3345790e-01   6.8632910e-01   7.5589636e-01   4.9397239e-01  -4.4987901e-01  -4.0306721e-01  -7.0018495e-01   8.1346123e-02  -2.6194121e-01  -9.3466504e-01  -4.7349342e-01  -9.7338008e-01  -7.7073401e-01   6.0295431e-01  -7.6236704e-01   2.2347030e-01  -1.3307656e-01   3.0318985e-01  -7.7542336e-01   7.7104782e-01  -2.2323860e-01  -9.4396129e-01  -5.2911682e-01   5.6759132e-01  -5.5305458e-01   8.4723397e-01  -5.7085847e-01   7.8583594e-01  -8.1366731e-01   3.2304935e-01   7.6024808e-01   7.0201210e-01   6.0081588e-01   6.7301965e-01  -2.0759016e-01  -3.3633654e-01  -6.4823398e-01  -8.1486890e-01  -3.9125448e-01   4.7527192e-01  -2.2396922e-01   6.9035053e-01   1.5357995e-01   2.9833971e-01   7.7266756e-01   6.8975109e-01   1.8555333e-02  -2.7678455e-01  -7.6818554e-01   5.3826149e-01  -5.5196861e-01  -4.2232367e-01   7.9368304e-01  -4.6575478e-01  -5.5477168e-01  -5.8590497e-01  -4.5183560e-01  -4.6508241e-01   2.6805383e-01  -7.8720811e-01   5.1152528e-01   4.8267910e-01  -5.2756334e-01   4.7265402e-01  -1.4599496e-01   2.0295351e-01  -5.3284356e-01   9.4052196e-01   5.2164464e-01  -7.3625155e-02   6.5574107e-01  -1.7613025e-01   3.4347726e-01   2.0652672e-01   9.4894559e-01  -1.4785878e-01   3.7078475e-01   9.2027329e-04   1.1230265e-01  -3.5059206e-01  -1.8879491e-01   1.1469053e-02  -8.2965768e-02   7.4989413e-01   1.6448939e-01   8.9017716e-01  -1.3732654e-01   9.9925941e-01   1.1668433e-01   4.9117953e-01   9.0592925e-01  -5.0402042e-01   2.0313410e-01   1.9309174e-01  -8.2616488e-01  -4.3710330e-01   9.5277323e-01  -7.1739034e-02  -7.5192644e-01   8.3543527e-01   6.2406169e-01   6.8304985e-01   9.2383720e-01   6.3508515e-01  -3.9903265e-01   2.4644908e-01  -5.1415304e-01  -5.1224560e-01   6.9081550e-01  -5.9390718e-02  -2.2593521e-01  -2.6760494e-01  -1.1697831e-01   1.0681144e-01   4.4856363e-01  -2.4295935e-01   3.8553995e-01  -3.0331062e-02   6.6061813e-01  -4.4292875e-01  -3.4598941e-01   6.9945545e-01  -4.3504244e-01   6.3860889e-01   3.9295050e-01  -1.4694579e-01  -5.7906337e-01   6.5712769e-01   1.5885626e-01   1.4141632e-01  -4.5395042e-01   4.7351570e-01   1.3475657e-01   7.2250984e-01   5.3598481e-01   9.9007216e-01   9.4775972e-01   5.5475433e-01   9.3661350e-01  -6.9813033e-02  -9.2213907e-01   6.2662190e-01  -7.3394330e-01   8.9095687e-01  -4.7155711e-01   6.6681946e-01   6.1457756e-01   4.1991059e-01  -5.9384343e-01  -1.3464353e-01   6.7494273e-01   4.7245774e-01   1.6040413e-01   4.8429142e-01  -6.7583376e-01  -1.9338015e-03  -6.8946705e-01  -5.6385973e-01  -5.5747292e-01  -9.8764132e-01  -4.3724217e-01  -1.7440026e-02  -5.7095690e-01   6.7144254e-01  -8.6419852e-02   3.8674295e-02   3.6882770e-01   3.8076439e-02   6.6748899e-01  -4.1803339e-01   8.9441495e-01   6.4846318e-01   3.4009519e-01  -2.0933501e-01  -1.9798815e-01  -6.7931046e-01  -4.6430796e-01   3.5785601e-01  -2.2036301e-02  -9.4474109e-01  -7.9752969e-01  -1.1666956e-01   8.4055290e-01   1.5534051e-01   5.2491767e-01  -6.2080184e-01  -3.5133689e-01  -9.2576534e-01  -3.0722547e-01  -3.8780249e-02  -9.0521215e-01   2.1825440e-01   6.6430003e-01  -3.5299204e-01  -1.5975185e-01   5.1049801e-02  -4.8557167e-01   7.7329389e-02  -6.0808039e-01   4.4519318e-02   6.3008868e-01   3.7956034e-01  -8.4598090e-01  -9.0885815e-01   8.0528790e-01   5.2865889e-02  -7.4464398e-01   7.4548513e-01  -4.3360693e-01   2.3742801e-01  -5.5090595e-01  -2.3499026e-01   3.2303563e-01   9.8377765e-01   1.7414085e-01  -4.8039792e-01   7.4695426e-01   8.3017106e-01   6.9444977e-01   4.5126443e-02  -4.6055288e-01  -5.2560313e-01
  -1.6673638e-01  -4.4669149e-02   5.5006819e-01  -4.6697126e-01   3.9454588e-01  -5.1975789e-01  -3.3371161e-01   6.5949693e-01  -7.1488258e-01  -3.5426860e-01  -6.4508326e-01   1.2888852e-01   2.3677716e-01   8.2493020e-01   4.2336169e-02   7.6752769e-01  -4.9595624e-01   1.1417876e-01   8.9680627e-01   6.6836683e-01  -4.8352090e-01   5.2676230e-01   8.6714966e-01   5.1313092e-01   8.9763602e-01   8.8993732e-02  -1.7247410e-01   8.8189274e-01   8.5241439e-01  -8.2959496e-01  -1.5605326e-01   4.7667995e-01   3.3254093e-01  -5.9286071e-01  -2.6396793e-01  -3.3835146e-01  -3.5587373e-01   7.7504173e-01  -3.3685758e-01   8.4086655e-01   5.6416673e-01   2.9203815e-01   5.3784272e-01   9.5543867e-01   7.5388298e-01  -3.5585220e-01   2.8840218e-01   1.9264050e-01   2.4266203e-01   2.3325069e-02   3.2444631e-01  -7.4439893e-01  -1.9879452e-01  -5.8498328e-01   8.6409452e-01  -5.5244779e-01   7.8895514e-02  -3.1851732e-01   9.5833398e-01  -4.6840068e-02   4.5645850e-01  -5.4471132e-01  -5.9655447e-01   7.4324086e-01  -7.3912398e-01   1.1578322e-01  -7.0278199e-01  -3.7549502e-01  -4.4449797e-01  -4.4122068e-01  -2.1729571e-01  -6.1783441e-01  -8.8863533e-01   9.5837001e-01  -2.9600795e-01  -1.6037381e-01   2.8404118e-01   8.3655237e-01  -1.9072422e-01  -6.0183871e-01   8.2327183e-01   8.7083751e-01   8.7281473e-01  -1.5064791e-02   1.8870748e-02   2.0037745e-01  -2.2723899e-01   7.0134697e-01  -6.8090171e-02  -4.7200158e-01   3.0456871e-04   5.2107647e-01  -4.9882083e-01   3.7825434e-02  -8.4421442e-01  -5.4988971e-01  -8.0419861e-01   8.2281751e-01   9.5015290e-01   7.0432392e-01  -6.5227418e-01  -9.6931845e-01   3.6192590e-01  -7.6768997e-01   3.6820277e-01   7.9730524e-01  -5.5044163e-01  -9.3960202e-02  -7.6077653e-01  -7.1191666e-01  -3.1313527e-01   7.2279553e-01   4.4166806e-01  -2.7631015e-01   9.6206638e-02  -7.5646678e-01  -5.1105816e-01  -1.1779190e-01  -5.6281830e-01   7.1227342e-01  -4.5820768e-01   9.2321396e-01  -1.2590231e-01  -4.6785129e-01  -6.3528662e-01  -8.2131718e-01  -3.1556142e-01  -4.2502827e-02   9.4564592e-01  -1.8969905e-01   2.2012817e-01   2.9676237e-02   8.5749722e-01  -4.2218610e-01   4.5266361e-01   6.4091384e-01   3.0867273e-02  -9.0198006e-01  -9.4016502e-02  -4.6278307e-01  -5.3646817e-01  -4.5490547e-01   4.7678547e-01   4.8280385e-02   4.7104888e-02   7.4016352e-01   2.3151616e-01  -3.6589476e-01   4.8686181e-01  -8.2895409e-01   1.1570143e-01   5.1344702e-01   3.9677062e-01   7.1538629e-01   6.3840037e-01  -7.0101677e-01  -3.0376568e-01   8.1948848e-01  -3.2923831e-01  -9.0012605e-01   5.9804211e-01   6.2993574e-02   7.7143281e-01   9.9575472e-01  -6.9552443e-01  -2.5694794e-01  -2.1733672e-01   6.7561025e-01   5.1009444e-01   1.0953464e-01   8.6573265e-01  -2.3242372e-01   6.8230414e-01  -5.9050929e-01   9.8896932e-01   5.5774440e-01   9.7669747e-01   5.0322845e-01  -1.3930790e-01  -9.4641248e-01   9.1321412e-01  -8.2996094e-01  -6.3216788e-01  -9.2888195e-01   3.3038350e-01  -1.0428615e-01  -6.5387713e-01  -7.8874901e-01   7.2163023e-01   8.6160935e-03  -6.6641796e-01   2.7824043e-01  -8.2928353e-01   5.3329155e-01  -3.6925006e-01  -1.1737698e-01  -6.0560965e-01  -3.3663042e-01   5.5259505e-01   8.3591462e-01  -8.3943689e-01   1.8186776e-01  -6.6637192e-01   5.2796282e-01   4.4153253e-01  -4.7629884e-01   8.1531557e-01  -1.1668502e-01   5.9043028e-01  -2.0132284e-01  -6.1193544e-02  -6.6198841e-01   9.3734760e-01  -5.7600043e-01  -1.5404431e-01  -4.6966059e-01  -2.2789829e-01   3.0645463e-01   1.2204555e-01  -7.6007560e-01  -2.2346134e-01  -4.8845805e-02   5.4309766e-01  -5.5619166e-01   2.2526672e-01  -8.4110805e-01   6.5215186e-01  -2.0448903e-01   7.6567805e-01   8.3044867e-01  -1.2280217e-01  -8.1233552e-02   4.4275498e-01  -5.7319505e-01  -5.0438839e-01   6.8589080e-01  -1.8683154e-01  -3.7986311e-01   5.1347404e-01   9.7677919e-01   3.3595507e-03  -5.3346617e-01  -9.7053838e-01   7.0493848e-01  -7.1476108e-01  -2.6715055e-01  -9.1223607e-01  -6.1141134e-01   4.3547264e-01   4.0352179e-02  -7.5878083e-01  -4.8429231e-01  -8.0784105e-01   3.1185887e-01   4.8516561e-01   9.5452200e-03  -6.9531805e-01  -3.8910652e-02   4.9920339e-01   6.4319645e-01  -7.9182722e-01  -2.8511007e-01   7.0183850e-02  -9.6328127e-02   6.8652584e-01  -4.1528303e-01  -1.3900379e-01  -2.4115008e-01   7.7027571e-01   5.1555661e-02  -3.7841528e-02   7.4064482e-01  -8.6994128e-01   2.4020760e-01   3.0247383e-01  -3.5629737e-01  -2.5481159e-01   3.7592013e-01  -2.8479158e-01  -8.6027304e-01  -9.7307556e-01   3.2615994e-01   9.1649773e-01   9.1689233e-01  -5.1469584e-03  -3.4247620e-01  -7.5487318e-01  -8.2874165e-01   5.4737592e-01   4.6033167e-01   4.2407356e-01  -5.9668227e-01   1.8768263e-01   3.0284775e-01   5.6820687e-01   5.1114934e-01   4.3336510e-02  -4.5132336e-01   6.6919089e-01  -3.5891871e-01   3.4980641e-01   3.5248581e-01  -2.1825228e-01  -9.6748224e-01  -4.3322549e-01   9.6482661e-01  -4.5572156e-01  -3.1359674e-01   8.7490578e-01   3.7037800e-01  -7.0877517e-02  -6.8709984e-01  -3.1530688e-01   5.8828582e-01   8.4146287e-01   6.7505860e-01   7.5168615e-01   7.5731437e-01   9.0163153e-01   2.7915665e-01   6.4771099e-01  -7.3105434e-01  -1.2267785e-01  -5.0136423e-01   1.8474529e-01   1.1903241e-01  -7.1443669e-01  -6.5472096e-01   1.4188413e-01   5.3260247e-01  -1.8000850e-01  -8.0235626e-01  -5.7498528e-01  -8.3668994e-01  -8.1759600e-01  -7.8110822e-01   1.0758170e-01  -6.0164328e-01   8.2258365e-01   8.1345448e-01  -5.2234437e-01   1.3868434e-01   2.8588330e-01  -7.9513274e-01   7.0613383e-01  -9.3151266e-01   1.3156405e-01  -9.8352212e-01   9.6480800e-01  -6.5030962e-01  -3.4648385e-01  -3.4312575e-01   4.7222329e-01  -9.9255584e-01  -4.6369722e-01  -9.9662969e-01   8.8065808e-02   7.1114773e-01  -9.9645082e-01   3.9497976e-01   2.8559461e-01  -9.8993936e-01  -7.6424610e-01  -2.0399157e-01   4.6814551e-01   6.5810473e-01   2.3674155e-01   1.9388149e-01  -8.5362884e-01  -5.8023800e-01  -2.2735536e-01  -2.2448891e-02  -9.3378173e-01  -1.9652215e-01  -2.6930502e-01   9.3332592e-01  -1.5271214e-01   6.3757968e-01  -9.2222417e-01  -7.5997620e-01  -1.5670572e-01  -5.1879495e-01  -5.1975829e-01   4.6004162e-01  -4.4458009e-01   1.3229890e-01   9.2907392e-01  -5.9063091e-01   3.6062075e-01  -2.6854066e-01   7.3223005e-01  -8.7081291e-03  -5.9762610e-01   1.2470415e-01  -6.6616418e-01  -6.2202454e-01   5.7042290e-01   4.0005386e-01  -5.6914169e-01   6.3340814e-01   3.1201007e-02  -1.8941493e-01   5.1468337e-01   8.0059608e-01   7.6526985e-02  -2.8110000e-01   3.9671949e-01  -4.0519650e-01  -4.1554692e-01   1.5822698e-01   4.3599257e-01   4.4471378e-01   7.8350983e-02   3.0599304e-01  -3.7916578e-01  -9.2537654e-01  -2.6492889e-01  -4.2774296e-01  -1.2254205e-01  -5.6937505e-01  -8.3033150e-01   7.4207861e-01  -7.3066671e-01   4.9116101e-01   1.6982021e-01  -6.1596251e-01   9.5536475e-01   9.4540691e-01  -2.0747613e-01  -9.2521142e-01   4.3843261e-03  -1.8807760e-02   7.0008733e-02   4.9265482e-01   9.0458420e-01   9.5590693e-01   7.4756388e-01  -8.9423733e-01  -6.5790953e-02  -3.3714121e-01   8.8462521e-01   7.4491717e-01   8.7885362e-01   5.3285116e-01   4.1200212e-01   7.5923802e-01  -1.0121512e-01   4.7184448e-01  -8.6625583e-01  -4.5902871e-01   8.7263409e-01   3.3925038e-01   8.6609696e-01   2.6583150e-01  -8.9281226e-01  -2.7583071e-01  -7.0933305e-01   5.8341347e-01   9.4075455e-01  -4.7740183e-01  -4.1437920e-02  -8.5846733e-01  -7.1775383e-01  -3.1541402e-01   2.8345172e-01  -2.3683006e-01   9.6957002e-01  -4.1825807e-02  -5.1217963e-01   5.7491314e-01  -8.6930024e-01  -3.3601100e-01   2.1642550e-01  -1.2447662e-01   9.2760361e-01  -1.7777069e-01  -7.3174209e-01  -7.2829895e-01   4.1952039e-01  -7.7876188e-01   7.8821664e-01  -4.8071514e-01  -5.4306264e-01   9.1263793e-01  -1.9643327e-01   6.0066197e-01   9.3692148e-01  -3.3299220e-01  -1.2369689e-01  -4.3500429e-02  -9.7594028e-01  -2.8827605e-01  -8.7298518e-01  -8.0120135e-01  -9.7696831e-01  -2.7800932e-01   8.3267029e-01   3.0888931e-01  -6.5236248e-01  -5.5257310e-01  -1.5318588e-01  -2.0446917e-01   2.9531231e-01   2.7848301e-01  -8.2038831e-01   8.5136333e-01   1.0277427e-01   8.0810012e-03  -4.8087737e-01  -5.5944163e-01   3.4284151e-01  -4.4746335e-01  -2.9930577e-01   4.9927415e-01  -5.2291181e-01   5.7725887e-01   3.0491077e-01  -9.3753885e-01  -8.9535450e-01  -2.4803460e-02  -8.2785962e-01  -9.6746883e-01   9.8464897e-02  -8.7439355e-02   7.9032703e-01  -8.9442757e-01   6.3475587e-01   7.2274021e-01   2.7156365e-01   3.7393687e-01   7.8001565e-01   2.8413191e-01  -9.2565313e-01   9.6892130e-01  -5.6879271e-01   4.0914807e-02   4.7350269e-01  -2.1631001e-01  -2.4206462e-01   4.7095552e-01   9.7498129e-01  -2.4636789e-01  -3.3764565e-01  -8.9965313e-01  -4.7385451e-01  -9.7632130e-01   6.4071303e-01   1.0578229e-01   6.8675540e-01   2.9849897e-01  -6.3942540e-01  -9.5275829e-01  -2.5478432e-02  -5.5671334e-01   4.6660401e-01  -5.6911428e-01   7.4432310e-01  -3.3421243e-01  -6.0624997e-02  -4.5701179e-01  -9.8658733e-01  -3.3646255e-01  -9.6273819e-01  -4.2688538e-01   5.2880740e-01  -2.1204570e-01  -5.8146996e-01  -5.1598507e-01   3.3096602e-01  -2.0470929e-01  -3.6015813e-01   4.4884011e-01   7.7410507e-01  -3.6010693e-01  -1.1233656e-01   2.8197462e-02  -1.7464210e-01  -9.8509910e-01  -2.2663138e-01  -6.2021868e-01  -8.5636444e-01  -6.7077670e-01   9.1247143e-01   7.7599386e-01  -7.6033509e-01   4.4574607e-01   7.3384599e-01   3.2775676e-02  -4.6934288e-01  -6.2840312e-01   6.4575879e-01  -2.0942919e-01  -6.9036887e-01  -8.8864262e-01  -7.4918166e-01  -8.3874019e-01  -3.0887142e-01   7.0326949e-01  -3.7920916e-01   4.8053701e-02  -6.7924887e-01  -8.1544636e-02   7.2406306e-01   3.0643833e-01  -2.5660699e-01   2.2582292e-01  -3.9681716e-01   6.6286574e-01   6.6291016e-01   4.0872483e-01   2.9312029e-01   3.9841272e-01  -7.6738867e-01  -1.4359597e-01   8.7775369e-01   8.0332998e-01   3.0261106e-01  -1.0888400e-01  -7.9044119e-02   3.4814214e-01   2.6238973e-01   8.6607836e-01   7.5535164e-01   8.8106680e-02  -6.8417294e-01   5.0489051e-01   1.5920926e-01   5.1400205e-01   3.2947862e-01  -4.9728926e-01   6.7106293e-02   8.4631090e-01   4.6169088e-01  -6.8464284e-01  -7.3768769e-01   8.8121109e-01   6.5790617e-01  -4.7465969e-01   6.6646838e-01  -9.8502658e-01   8.9280106e-02   7.4101856e-01  -3.9572384e-01  -5.6042047e-01   1.7241941e-01  -4.1863466e-01  -8.2700512e-01   2.5211253e-01  -5.2377863e-01  -3.5587415e-01  -2.9945396e-02  -1.1086645e-01  -2.9378850e-01  -2.3412470e-01  -7.7534494e-02   5.2235756e-01   8.2970315e-01  -2.4099725e-01   1.2491956e-01   4.9273904e-01   7.3433148e-01  -9.3684981e-01   4.8255419e-02  -4.0679692e-01  -3.2004039e-01   6.6037755e-01  -7.5168811e-01   1.0431907e-01   7.2379024e-01   4.6303050e-01  -2.2323462e-01  -2.7905284e-01  -7.5814608e-02   9.4218152e-02   6.3106246e-01   8.9954154e-02  -9.5267366e-01   7.1748828e-01   2.0442501e-01   2.9786632e-01  -5.6336195e-01   6.1944730e-01   3.3474472e-01   7.9514552e-01  -7.6937332e-01  -5.8229335e-01   8.6562817e-01  -9.6845496e-01  -4.9691556e-01   9.5396428e-01   3.2331101e-01   9.1914210e-01   2.7596636e-01   7.4581073e-01   9.7566565e-02  -4.8720359e-01   1.8812928e-01   6.3420566e-01  -8.0139635e-01  -1.3477499e-02  -5.6692510e-01   6.1945370e-01   5.1899503e-01  -3.2612419e-01  -5.6784468e-01  -5.6175359e-01   1.0138294e-01   9.0785666e-01  -8.6298135e-01   1.0912625e-01   4.8095816e-01  -5.4499390e-01  -4.5461740e-01   1.6875658e-01   7.0481873e-01  -3.7045896e-01  -8.3190363e-01   6.2837261e-01  -7.9597157e-01   9.2591015e-01  -4.5883075e-01   5.0764834e-01  -1.6789938e-01   3.6602607e-01   3.9611723e-01   5.6429330e-01   4.3025597e-01   8.7074459e-01   5.9403637e-04  -4.6815074e-01   6.6232002e-01   9.9072842e-01  -6.2105414e-01  -2.7706273e-01   8.8958944e-01   3.4634661e-01   6.4946998e-01   7.2364226e-01   9.6672460e-01  -6.3017487e-01  -9.8937981e-01  -5.0563234e-01  -7.6629357e-01   6.8448019e-01   6.3035512e-01  -4.7910612e-01   9.2903227e-02  -6.0051904e-01   7.6527722e-01   5.6712398e-01   8.6211676e-01  -5.6091110e-01  -7.1087851e-01   3.6483078e-01  -5.5802528e-01  -6.3921161e-01  -5.5635272e-01   8.9068468e-01   7.8179136e-01   2.9039768e-01  -8.1773554e-01   8.7363227e-01   4.9888809e-01  -3.9024069e-01  -1.4883749e-02  -1.9881364e-01  -3.8840155e-01   4.9519699e-01   2.5573354e-01  -6.0052940e-01  -9.3334980e-01  -2.5634769e-01   4.3825805e-01  -8.4687777e-01   6.9806631e-01  -4.6678384e-01   4.7738424e-02  -8.2179873e-01  -8.3728973e-01   1.7606650e-01  -9.7767026e-01   2.1382557e-01  -7.5496310e-01   8.1393919e-01  -9.4433138e-01  -7.2733665e-01  -9.4591435e-01  -1.1076867e-02   4.2550561e-01  -9.4582266e-01  -6.8207245e-02   9.8457323e-02   4.4114396e-01  -3.4242656e-01   6.7189435e-02  -4.1900231e-01  -2.1950768e-01  -1.7822890e-01  -9.3395725e-01  -9.8215978e-01   3.8540238e-01  -9.5993203e-01   9.3882758e-01  -3.8805395e-01  -7.8484905e-01   2.1126500e-01  -2.5838739e-01  -1.4634531e-01   7.1256177e-01  -9.2662792e-02  -6.5940097e-01  -7.7322218e-01  -2.7853821e-01  -5.2168891e-01   9.8291685e-01   3.9373754e-01  -8.7328027e-01  -4.8116963e-01   2.7968087e-02  -4.8914041e-01   2.7564820e-01   5.0927343e-01   8.8502698e-01   1.6171979e-01   1.8774464e-01   3.8526474e-01   5.6606217e-01  -8.7186939e-01  -7.9052945e-01  -2.3669109e-01  -5.8134817e-01  -5.0495514e-01  -7.5037822e-01  -8.8070646e-01  -6.7378886e-01  -6.9061537e-02   9.1201823e-01  -1.5820206e-01  -7.7632505e-01   6.2414488e-02  -7.8792660e-01  -4.8737776e-01   1.9690727e-01   8.7711338e-01   4.7066083e-01   7.4313622e-01   1.9225502e-01  -3.2437369e-01   6.6418470e-01  -8.5024264e-02   3.1599968e-01   1.3982797e-01  -7.0170743e-01   1.0775541e-01   7.1259443e-01  -2.6813800e-02   3.8205926e-02   3.5772764e-01  -6.2467201e-01  -5.8797498e-01  -2.8793734e-01   6.3800320e-01  -4.4737389e-01   1.3026991e-01  -6.3203555e-01  -4.9573975e-01  -4.1896843e-01  -9.6537525e-01   7.6208819e-01   9.6637290e-01   1.8849053e-02   7.2826455e-01   2.6381650e-01  -9.7116469e-01  -1.3005488e-01   9.0889958e-01   2.9861238e-01  -1.1955523e-01  -4.3400856e-02  -5.0547514e-02   2.5380801e-01  -7.6753887e-01   4.1118843e-01   4.8586273e-01  -7.3709472e-01  -8.1327835e-01   6.9828901e-01   1.4661897e-01   9.3985289e-01   5.1081900e-01  -9.8935874e-01  -1.6649215e-01  -5.7497109e-01   1.1709685e-01  -9.7534892e-01   4.0657200e-01   2.0348830e-01  -2.4756388e-01   6.1595981e-01   8.5038404e-01   9.3868960e-01   9.3601045e-01   3.5562954e-01   7.0735200e-02  -5.8121840e-02   3.7055188e-01   7.7676187e-01  -9.2870377e-01  -2.1702949e-01  -6.1171925e-01   2.2908302e-01  -9.1855940e-01  -2.7399575e-01   7.8193798e-01   7.7493844e-01   5.9284002e-02  -6.4001107e-01   7.7141156e-01   4.1812317e-01  -6.4795028e-01  -3.8327110e-01  -7.1932973e-01  -8.6582572e-01   2.5499427e-01  -3.1875412e-01   5.2287919e-01  -7.4253646e-01  -3.9539908e-01  -5.3264451e-01  -5.8819624e-01  -1.1493093e-01  -5.8763847e-02   9.2181520e-01   4.5238537e-01   9.7480411e-01  -8.3590179e-01   7.0719524e-01   6.7940983e-01  -2.6699266e-01   8.4387895e-01   1.1956550e-01   6.5964837e-01  -8.9152386e-01  -2.1779439e-01   9.8489980e-01   9.0429250e-01   9.6633008e-01   9.5181498e-02  -4.3966346e-01   6.7536700e-01  -8.4092792e-01  -9.2667053e-01   9.4145200e-01  -6.5969248e-01  -1.3757636e-01  -8.7693929e-01   1.8203840e-01   3.5274105e-01   5.4427038e-01  -5.8175559e-01   5.3903519e-01   6.1101578e-01   9.2799931e-01  -7.4638854e-01  -4.4183896e-01   8.8568107e-01  -8.2238367e-01   1.5177260e-01   8.9706105e-01  -9.3386278e-01   6.9655799e-01   4.6626642e-01   6.7524319e-01   1.8102045e-01  -2.7670783e-01   3.3372494e-01  -3.3623945e-01   1.6703463e-01  -8.7032954e-01   2.6966471e-01   7.7415574e-01  -7.5017279e-01   1.8054846e-01  -1.9980932e-01  -1.3651385e-01  -7.8512916e-01  -7.6815937e-02   8.2949976e-01   4.6554499e-01   3.3720100e-01  -5.0918199e-01   2.4362063e-01   3.2591133e-01  -2.6766581e-01   6.0379938e-01  -8.9536839e-01  -6.2962320e-01  -6.4721171e-01  -2.2924031e-01  -4.5560434e-01
  -4.1580666e-01   2.7496938e-01   4.8459900e-01   1.9750419e-01  -8.6730666e-01   2.3961450e-01  -7.5410997e-01   8.5725882e-01  -7.2171974e-01   2.3107161e-01   8.7061319e-01  -9.1152643e-01  -6.8993268e-01  -9.1362966e-01  -3.1082665e-01  -1.8894265e-01  -8.4466322e-01  -3.3213737e-01  -5.6431469e-01  -4.3565717e-01  -5.1390103e-01  -3.4484746e-01  -5.4934195e-01   1.1428920e-01   8.7908726e-01  -7.7016836e-01   1.7495010e-01  -8.8313735e-01  -7.6076840e-01  -2.5017343e-01  -4.8850845e-01   4.2808593e-01   8.9981783e-01   2.3253465e-01  -8.6153092e-01  -1.1090594e-01   3.3084046e-01   6.2723277e-01   6.0117133e-02  -8.5493265e-01  -6.3473281e-01  -2.1191618e-01   5.7486314e-01  -5.0713462e-01  -5.6987099e-01   7.5325696e-01   7.2167592e-01   5.4938107e-01   1.5020978e-01  -8.9216808e-01  -2.1984799e-01   9.7643752e-01   1.5773591e-01  -9.7947526e-01  -8.2811742e-01  -8.8118296e-01  -5.1309848e-01   7.9115315e-01   6.0831500e-01   3.5456806e-01   1.3302232e-01  -6.8937373e-01   8.3121624e-01   9.6967623e-03  -7.5291517e-01   1.4740584e-01  -8.2390454e-01  -1.8203450e-01  -9.1040980e-01   5.9717744e-01   7.4449013e-01   3.8297166e-01  -7.6642717e-01  -7.8089114e-01  -2.4536293e-01  -5.3006879e-01  -6.7759093e-01   2.4550238e-01  -7.3994480e-01  -1.7392880e-01   3.7911450e-01   9.6356237e-01  -8.8040806e-01  -1.5495873e-01  -6.1150549e-01   6.6058938e-02   4.0064348e-01  -1.0805259e-01  -5.5117719e-01   5.4389283e-01   8.6282561e-01   3.3606927e-01  -7.3285931e-01   1.0666197e-01  -1.0345626e-01  -4.2891269e-01  -5.6244447e-01  -2.3139086e-01   1.7783254e-01   8.6428641e-01  -8.7472239e-01   5.3895364e-01  -2.1011379e-01   8.7966656e-01  -3.8747884e-01  -5.3401848e-01   7.4665907e-01  -7.0340075e-01  -7.5711683e-01   1.6826051e-02  -2.2046893e-01  -9.9933203e-02   2.8735640e-01   9.1628700e-01   7.0952238e-01   5.8851414e-01  -5.8457306e-01  -8.1636547e-01   5.9505132e-01  -7.3069027e-01   7.3925074e-01   2.5050008e-01  -1.3133247e-01   9.8205519e-01  -8.5056336e-01  -3.0632130e-01  -5.6077524e-01   5.6487727e-01  -4.1282693e-02  -6.6985361e-01   8.7842309e-01   7.0481471e-01  -8.5545729e-01   7.5639270e-01  -9.4631530e-01  -6.7017172e-01  -4.3783331e-01  -7.1092844e-01  -9.9025781e-01  -2.4884156e-01   2.8528611e-01  -3.0311714e-01   4.9191528e-01   6.3806147e-01  -8.5242786e-01   2.2897611e-01   9.3823432e-01  -5.0476917e-01   7.9193279e-01  -2.1227059e-01  -8.6011591e-01  -2.8250195e-01   9.7712334e-01   8.2736657e-01  -3.0846724e-01   3.7379134e-01  -1.5413039e-01  -3.0969007e-01  -6.1378098e-02   3.1773806e-01  -9.7563641e-01  -4.7300235e-01   2.9970845e-01   3.5618791e-01   7.4634827e-01   7.4237691e-01   3.7363226e-02   3.2774078e-01   5.0387367e-01   7.6358296e-01  -1.1685538e-01   7.9605451e-01  -8.9558640e-01  -3.7985479e-02   7.0832777e-01   6.7438269e-01   2.2221098e-01   2.2239483e-01  -9.7876881e-01   8.6829028e-01  -4.0328322e-01  -9.2837212e-01  -2.1137516e-01  -8.7803683e-01  -6.2412383e-01  -4.2572249e-01  -9.9164718e-01  -5.0937429e-01  -7.5982928e-01   5.8990941e-02   8.7057719e-01  -1.5480718e-01  -2.5006483e-01   7.2029348e-01  -5.7083041e-01  -5.7288120e-01   2.0600626e-01   4.8211321e-01   6.2092379e-01  -2.1951570e-01  -5.6421555e-01  -3.7764315e-01  -4.8875499e-01   2.5346967e-01   1.3054751e-01  -6.3940574e-01  -6.1682039e-01  -2.7603322e-01  -1.2055291e-01  -2.7580109e-01  -9.8907745e-01  -5.9517650e-01  -3.4476634e-01   5.7400318e-01   5.6168635e-02   7.2174956e-01  -8.5171575e-02   2.1456670e-01   2.4447318e-01  -5.8727173e-01   3.0221582e-01   5.5512771e-01   5.3033272e-01   2.9093483e-01   4.2314578e-01  -8.3913307e-01  -4.1572886e-01   9.7851104e-01   6.9856356e-01  -5.5374322e-01  -3.4998954e-01   7.4767046e-01  -2.9779784e-02   8.5645328e-01   8.1522284e-01   2.6856574e-01  -5.6907837e-01  -8.5142649e-01   3.6032524e-01  -9.2335580e-01   9.2734960e-01  -6.8746846e-01   1.2703691e-01  -3.1780708e-01  -4.3533989e-01   4.1276186e-01  -4.9170186e-04   8.1561892e-01   1.1402249e-01  -6.9047211e-01   8.5302138e-01  -2.3667042e-01  -8.4926600e-01  -7.8701427e-01  -9.9133081e-01   2.1593083e-01  -9.3159592e-01   7.8398369e-01   6.7387537e-01  -5.3318430e-01   3.6893532e-01  -8.9588620e-01   8.5335690e-01  -6.9238699e-01   1.9798479e-02  -4.8738647e-01   3.9942919e-01  -7.2920033e-01   7.3837257e-01   4.1658823e-01  -8.3332041e-01  -1.3595309e-01  -6.4669729e-01   2.7945139e-01  -4.4384612e-01  -5.5658054e-01  -9.3953961e-02   3.3721051e-01   7.4736492e-01  -9.1744871e-01  -3.1273726e-02  -2.0853758e-01  -8.2509112e-01  -6.7198857e-01   4.4102093e-01  -4.9138176e-01   7.1095695e-01   8.0855782e-01  -5.3163166e-01  -2.0538712e-01  -6.1694239e-01  -5.8618330e-01  -5.4736950e-01   2.5207497e-01   2.1308740e-01   8.5120263e-01  -2.4698169e-01  -5.0097535e-01  -5.2752515e-01   8.0910162e-01   4.2584368e-01  -5.2684237e-01  -3.3993090e-01  -5.4738612e-01  -1.3745797e-01   3.8572858e-01   9.1737939e-01  -7.3696682e-01   8.8312050e-01  -6.4720291e-01   4.4358062e-02  -9.4704944e-01   5.8070369e-01   9.3623320e-01  -8.1211856e-03  -8.1660228e-01  -5.5542670e-01   3.8163612e-01   7.8166861e-01   9.2416989e-01   8.8706400e-01   1.2240602e-01   2.0642321e-01   8.2424442e-01   1.2803325e-01   2.4848005e-01  -9.9764657e-01   2.5849508e-01  -8.4773141e-01  -1.4001004e-02  -7.6019081e-01  -8.1271623e-02   1.7669597e-02   4.2151084e-01  -6.6958838e-01   8.0515572e-01  -2.0625677e-01  -9.4424032e-01  -2.4967736e-01  -3.5541508e-01  -6.2642286e-02   6.7300696e-01   1.4013264e-01  -4.7528661e-01   4.1650622e-01  -2.0013804e-01   5.7808533e-01   3.7436303e-01   3.2489721e-01   1.5575075e-01   3.6172914e-01  -6.7836000e-01  -7.6610446e-01  -6.3876174e-01  -4.0696824e-01   4.0818359e-02  -9.9913194e-01  -8.6603494e-01  -3.0920970e-01  -1.4032046e-01   3.3281411e-01   6.7698092e-01  -9.8913729e-01   6.1653691e-01   2.4120318e-01  -2.2248212e-02   2.0636002e-01  -1.8742674e-01   8.4765332e-01   3.4861449e-01  -3.5380979e-01   3.0069997e-01  -7.6096407e-01  -9.2147989e-02   8.3727608e-01   2.6192118e-01  -6.9016515e-01  -1.3223575e-01   8.6929117e-01  -4.0411013e-01   8.9498352e-01   1.3101833e-01  -5.8854005e-01   3.3684820e-01   9.8350082e-01  -8.9470267e-01   7.8784373e-01   3.6454352e-01  -8.9617632e-01   2.4884996e-01   9.1379579e-01   6.6686732e-01   5.8965174e-01   1.4177669e-01   3.5751663e-01  -7.1938581e-01  -6.9108582e-01  -3.7045429e-01   8.6306047e-01   2.9436362e-01  -6.5735444e-01   6.9273880e-01  -2.6446419e-01   7.2428977e-01   8.4621099e-01   9.4310445e-03  -4.0250283e-01  -3.8730971e-01  -5.9459643e-01  -9.9253308e-01   3.5494754e-01  -8.7498069e-01   7.9679090e-01  -1.6184766e-02   5.7999655e-01  -4.2320287e-02   6.4015159e-01  -8.4230100e-01   3.5892931e-01   7.3723607e-01  -2.6080611e-01   6.5271522e-01   9.0682312e-01  -5.7369428e-02   5.1320695e-01   9.2126931e-01   4.9504112e-01  -5.0575616e-01   3.3613154e-01  -7.2380510e-01  -1.9105762e-01  -7.9406808e-01   9.0985129e-01   6.2541920e-01   5.0003069e-01  -1.2076769e-01  -1.1615280e-01   2.9977610e-01  -2.6616557e-01   7.8873535e-01  -8.1618679e-02  -2.5130439e-01   7.3576216e-01   1.5358188e-01  -8.0905788e-01  -1.2777175e-01   9.2066492e-01   5.9119495e-01   2.9121793e-01   6.0602654e-01  -3.8866774e-01   9.8378245e-01  -9.6131138e-01  -8.0906275e-01   6.1033823e-01   4.8258194e-01  -2.6256326e-01   1.6613260e-01   8.1463792e-02  -4.9003049e-01  -4.5160666e-01  -1.4060667e-01  -4.5901497e-01  -2.3754049e-01   5.4525662e-01  -4.9848926e-01  -7.5386726e-01  -9.9802720e-01  -4.4468590e-01  -3.8775978e-01  -1.1728834e-01  -8.8116571e-01  -8.9458102e-01   4.9438963e-01  -2.7667676e-01   2.2615214e-01  -6.5263959e-01  -9.2248741e-01   2.7266211e-01  -7.7310479e-01   6.0053515e-01   8.9067147e-01   6.9275582e-02   9.3537133e-01   4.6982432e-02   5.3269220e-01  -2.7992335e-01   9.3531792e-01  -8.8455412e-01  -1.0328005e-01  -8.4457304e-01  -5.7380051e-01  -7.5291627e-01   6.4933989e-01  -3.1495079e-01  -1.1052075e-01  -4.1325387e-01  -2.0380237e-01  -4.7093525e-01   1.3180990e-01  -4.1777794e-01  -2.9797903e-01  -4.1451741e-01  -3.1520946e-01  -1.5528793e-01   1.3034534e-01   3.5250336e-01  -4.5122331e-01   6.2648482e-01  -3.7885678e-01  -5.6757650e-01   9.7801505e-01  -5.1720071e-01  -6.6123083e-01  -8.3918065e-01  -5.5838931e-01  -1.1674057e-01   9.4604326e-01  -6.7847847e-01   3.1667505e-01   6.8473207e-01  -9.4222233e-01  -6.9404993e-01  -3.9410456e-01   1.3123027e-01   2.6758068e-01  -4.9909408e-01   5.4882736e-01   2.3386788e-01   2.8876855e-01  -4.1062174e-01  -3.9103814e-01  -3.8502269e-01  -5.7352097e-01  -1.5820121e-01   4.1702085e-01  -6.3147301e-01  -5.9525125e-01   9.2949406e-01   1.6620417e-01   6.1445808e-01   8.5419072e-01   2.9837787e-01  -5.8609662e-01   7.8388002e-01   1.3821781e-01   2.5904035e-03  -8.8921970e-01  -8.2718682e-01   2.1182779e-01   3.6841290e-01  -6.2343691e-01   2.7316596e-01  -1.4701292e-01   9.5648014e-01   8.4298178e-01   9.0920162e-01   3.6177739e-01   4.7141917e-01  -4.3305386e-01   9.3617673e-01   5.5692690e-01  -1.7537070e-02   3.8677595e-01   9.5222933e-01  -9.1308244e-01  -7.7286142e-01  -1.3194310e-01   5.2097023e-01  -9.6635663e-01   8.7277924e-01  -7.8765085e-01  -3.2557923e-01  -8.7134203e-01  -1.2526209e-01   7.3164949e-01   2.1861421e-01  -2.9511630e-01  -1.2960703e-01   2.3620534e-01   1.6109053e-01  -9.5982318e-02   2.4515171e-01   8.9181070e-01   7.0741417e-01   2.7416685e-01   2.5812268e-01   2.8723637e-01   4.1237235e-02   4.5878017e-01   4.2471686e-01  -9.2673358e-01  -4.6517419e-01  -9.3022289e-01  -1.8429858e-01  -4.8461528e-01   3.1426734e-01   1.7175228e-01   7.8557307e-01   2.2878799e-01  -7.6218127e-01   1.0427567e-02  -8.0552585e-01  -4.5480416e-01   1.4951250e-03  -1.8429609e-01   5.1785164e-01  -1.7866142e-01  -6.5556093e-01   1.0257246e-01   1.7321836e-01   4.1162500e-01   7.1033214e-01  -6.8955411e-01  -6.4529869e-01   1.0120663e-01   1.2287149e-01   9.4812740e-01  -8.3723411e-01  -8.6529573e-01   8.6764017e-01  -6.1392808e-01  -7.4760632e-02   5.2126344e-01  -3.9267475e-01   3.8072929e-01   3.8621619e-01   1.7296963e-01  -9.8837341e-01  -9.6685330e-01   1.9407179e-01   8.4057292e-01  -5.4996385e-01   8.8381057e-01  -8.0581790e-01  -2.4038077e-01  -4.8829360e-01  -5.4203434e-01   4.7943463e-01   9.0251181e-01  -3.7117359e-01   1.8562960e-01   5.1121963e-01  -1.8015955e-01   3.9351656e-01  -1.2901879e-01  -9.1918782e-01   6.4997381e-01   7.0290364e-01   6.7818697e-01  -1.7371127e-01  -3.1878697e-01  -9.3943169e-01  -2.7643446e-01  -6.9307911e-01  -8.6105206e-01  -3.2979191e-01   9.0241515e-01  -1.2228101e-01   7.2011792e-01   1.6291666e-01  -1.2341120e-01  -2.7127298e-01  -6.2573781e-01  -5.4107725e-01   5.5050226e-01  -2.2589966e-01  -2.8575238e-01  -4.6068470e-01  -5.7962442e-02  -5.0957692e-01   4.4914802e-01   2.4376245e-01   7.5751533e-01  -9.3963121e-01   4.9851021e-01   9.5073434e-02   4.4514608e-01   6.1154173e-01  -5.3678519e-01  -9.9882513e-01   2.2908288e-02   1.9645184e-01  -4.3961647e-01   4.2150994e-01   6.8077538e-01  -9.0999409e-01   3.3384755e-01  -2.9863431e-01  -1.0589465e-01  -8.3553347e-01   2.8167960e-01  -8.3327754e-02  -3.3999671e-01   6.8161135e-01  -7.3526896e-01   4.0063392e-01  -8.7403605e-01   4.7820163e-01   1.3823457e-02  -7.1392479e-01   3.6603769e-02   7.2878010e-01  -8.8271856e-01   5.9630470e-01   2.8013636e-01  -9.0867301e-01   5.0501804e-01   7.7098130e-01   9.1679730e-01   5.2170354e-01   1.6049619e-01  -2.3477534e-01  -5.1601921e-01  -7.5284199e-01  -6.7009246e-01   9.3743702e-01   6.9371885e-01   7.8500140e-01  -8.3936986e-01  -2.6904295e-01  -6.4926361e-01   3.9766971e-01   4.9901901e-01  -2.4292893e-01  -5.4481605e-01   8.5719528e-01   7.2606198e-01  -4.3852404e-01  -2.9059208e-01   7.1189568e-01   5.9766038e-01  -2.4373300e-01  -3.2537523e-02  -3.4469399e-01   1.2945484e-01  -1.4268821e-02   3.3166833e-01   1.0964086e-01   2.1807649e-01  -8.0762491e-01  -9.0509117e-01   7.3490803e-01   7.6684115e-01   3.0543883e-01   7.0984825e-02  -9.7677008e-01   7.1887905e-02  -4.9662104e-01  -7.9958009e-01  -9.9468792e-01   8.4550518e-01  -2.9520266e-01   4.8484274e-01  -3.5816475e-01  -9.4623857e-01   4.5740917e-01   3.0381268e-01  -5.3359393e-01   1.9260512e-01   7.2114876e-01   7.9889863e-01   9.8644060e-02   6.9970887e-01   5.2828445e-01  -3.6373195e-03   9.1945624e-01  -1.4219297e-01   2.4484952e-01  -5.9515709e-01   9.0989600e-01   5.6968929e-01  -7.9199992e-01   2.8326551e-01  -1.4656612e-01   9.1994172e-01  -8.8001865e-01  -7.0391939e-01  -1.3950453e-01   2.4206785e-01   5.9528913e-01  -4.8314311e-01   1.3058163e-01   7.7892885e-01   3.6642978e-01  -6.1158234e-01   7.8171063e-01   8.1145260e-01  -2.2631142e-01   4.7258005e-02   5.3018572e-01   5.9256748e-01   1.2351410e-01  -9.3807314e-01  -4.1856903e-01  -7.7223948e-01   7.8265996e-01  -7.5098517e-01  -8.8564767e-01  -7.5842310e-01  -7.9764193e-01   3.8777652e-01  -2.3399071e-01  -6.4149925e-01   1.5122287e-02  -9.3786944e-01   5.9178393e-01  -9.9054237e-01  -1.6620919e-02  -9.4737101e-01  -5.0836841e-01  -8.7411678e-01   1.4909622e-01   5.9898953e-01  -6.5658012e-02  -6.3565265e-01   5.4144049e-01   8.8602901e-01  -1.2924488e-01  -4.6526522e-01   8.4372861e-02  -4.5980303e-01  -1.1662031e-01  -3.6236105e-01  -6.6480085e-01   8.9213103e-02   1.5583167e-01  -7.1378395e-01   1.8332812e-01  -6.7580548e-01   1.2267596e-01  -9.3961292e-01  -9.7925613e-01  -8.2270775e-01  -2.3932967e-01  -6.7576935e-01   9.5154393e-01  -5.3378551e-01   3.1821973e-01   2.5845140e-01   5.2815137e-01  -8.5809052e-02   1.2295855e-01  -3.5935723e-01  -4.8802669e-01  -3.4557113e-01   9.7314303e-01  -3.1657667e-01  -5.4988226e-01   8.0066129e-02  -8.4978218e-01  -4.7102973e-02  -4.5718766e-01  -4.0166482e-01   1.0230695e-01   7.5035594e-01   9.7166665e-01   6.2438576e-02   5.7826875e-01   3.0339154e-01   4.8974811e-01  -1.2274510e-01  -8.8440277e-01  -6.7102715e-01   6.7445893e-01   4.1003227e-01  -6.5553421e-01   9.5134709e-01  -4.4816793e-01  -9.6657176e-01   3.4934581e-02  -5.4793775e-01   2.3996074e-01   4.8317872e-01  -2.4047233e-01   5.6114580e-01  -2.5644871e-01   7.8409788e-01  -4.3215588e-01   1.4205135e-01   5.2567603e-01  -7.6631056e-01  -8.4056821e-01  -9.8491530e-01  -3.8689282e-01   1.3862243e-01  -2.7426625e-01   4.6176210e-01   3.9715777e-01   4.2612367e-01  -1.7459179e-01  -9.5638837e-01  -9.7469054e-01  -4.5678867e-01   8.1740143e-01   1.7878200e-01  -3.9198748e-01  -5.5342601e-01  -6.0840082e-01   8.6170377e-01  -2.6825110e-01   9.3128146e-01  -7.1460426e-01   2.7984561e-01  -9.5153382e-01  -9.7214066e-01   5.7224764e-01   3.2804182e-01  -7.9516049e-01  -6.1439773e-01  -1.9697365e-01  -4.7096339e-01   1.2247873e-01  -9.8293363e-01  -3.8254949e-02  -7.9676725e-01   1.5102421e-01  -3.0093843e-01   2.7462796e-01  -5.0289284e-01  -7.1082642e-01   6.1231596e-01  -3.9778180e-01   7.0922009e-01   3.1927914e-03  -1.3876311e-01   3.9972126e-01   6.7994310e-01  -5.9355047e-01  -4.1185224e-01  -8.4131750e-01  -3.8319513e-01  -8.1358655e-01  -2.0291634e-01  -7.9214890e-01  -8.8862647e-01   3.7243674e-02   3.0553276e-01  -2.2709517e-01  -7.5512394e-01  -5.4472603e-01  -7.4618087e-01   4.4193512e-01  -2.5916219e-01   3.6941873e-01  -9.4055292e-01   4.7016951e-01  -1.8945184e-01   9.9934674e-01  -3.5168753e-01  -5.1029398e-01   1.0498607e-01  -5.8080135e-01  -3.6385026e-01  -8.1557922e-03   3.6789873e-01   7.1236601e-01   6.8746987e-01  -8.3374663e-01  -4.8727193e-02  -2.1688240e-01  -2.3683948e-01  -8.0722888e-01  -5.4040922e-02   7.6066423e-01  -8.2366594e-01  -3.6210641e-01   8.2697878e-01   5.5973094e-01   2.0046457e-01  -8.9150018e-01  -5.6829244e-01  -8.7644633e-01  -6.8562353e-03   2.1082548e-01  -6.0133074e-01   3.3839485e-01   4.5359586e-01  -3.5153767e-01  -5.7319428e-01  -6.9496066e-01  -4.0932872e-01  -1.1461933e-01   2.7897718e-02   3.5954509e-01  -9.2354202e-01  -1.5015757e-01   4.4003143e-01  -7.0540716e-01  -6.9009803e-01  -1.9692622e-01   1.1204689e-01  -3.7635956e-01   7.3220436e-01  -2.6668688e-01  -9.3719526e-01   4.0095508e-01   7.1552130e-01  -8.8363881e-01   3.2900486e-01
  -9.4676431e-01  -5.4822459e-01  -7.6783835e-01   1.1958268e-01   4.7438829e-01   1.4580364e-01   8.5782813e-01  -1.6619349e-01  -3.5168936e-01  -8.7889178e-02  -1.6956428e-01  -8.3812861e-01   6.6517964e-01   5.7980554e-01   6.6079404e-01   3.8774578e-02  -3.0757936e-01  -7.2284002e-01  -5.8736464e-01  -9.4833565e-01  -3.5837152e-01  -6.9652506e-01   4.2673523e-01   1.7951367e-01   4.9000684e-02   5.5644318e-02   6.3477670e-01  -8.1701801e-02  -8.1981082e-01   2.8502440e-01  -3.6915478e-02  -6.8529447e-01  -3.3900447e-01  -3.8933628e-01  -9.6952246e-01   1.7623813e-01  -2.9681602e-01   2.8792176e-02  -8.9345179e-01   6.7783521e-01   5.0144355e-01   5.7474660e-02   6.3593548e-01  -3.6181385e-01  -6.1018810e-01  -4.1766161e-01  -6.1963405e-01   3.4974982e-01  -5.0440041e-01   6.7010605e-01   3.2617652e-01  -2.2040743e-02   5.0569798e-01   4.9332179e-01   4.1461232e-01  -4.0875280e-01  -7.9702938e-01   3.1196810e-01  -4.0943165e-01   8.9403908e-01  -3.8705128e-01   5.0662614e-01   8.9839766e-02  -6.3084605e-01   1.7001539e-02   9.8727243e-01  -9.7686931e-01   7.8810737e-01   8.4988223e-01  -5.3787780e-01   5.3324173e-01   8.4633215e-01   8.5616937e-01   2.6277352e-02  -1.2035981e-01  -5.5550950e-01   9.4188071e-01  -8.6196886e-01  -8.2307228e-01  -7.2972956e-01  -4.5942990e-01  -9.5374713e-01  -7.3808687e-01  -9.5367505e-02   5.1144085e-01  -8.5712331e-01  -6.0253613e-01   6.3296402e-01   7.8301312e-01  -2.1939674e-01  -7.1099488e-02   3.5726619e-01  -5.5226322e-01  -7.7467862e-01   8.7359589e-01   1.4158328e-01   5.5422860e-01  -1.5481900e-03  -8.0024217e-01  -7.2934092e-01   7.4314581e-01   8.0681126e-01  -5.8150287e-02   7.9575818e-01   5.2414773e-01  -4.1991940e-01   1.0392148e-01   7.4485106e-01   7.7418497e-01  -8.4267155e-01   3.3712697e-01  -9.4718846e-01  -8.9000546e-01  -5.2572798e-01   9.8680565e-02   7.4852049e-01  -1.2247179e-01  -5.2745933e-01   3.8474558e-01  -2.9363198e-01  -4.2381999e-01  -1.0636342e-01  -8.0164241e-01   4.2007447e-01   4.0502080e-01  -6.9730008e-01  -2.1299704e-01   2.3791076e-01   7.5023721e-02  -1.4930626e-01   7.1106376e-01  -9.7970128e-01   9.1243294e-01   7.9347652e-01  -5.9064419e-01   9.2708892e-01  -6.2533863e-01   6.0375548e-01  -8.8282222e-01   3.6970436e-02   6.1029191e-01  -8.9909874e-01  -6.5161789e-02   7.4589240e-01   1.2250616e-01  -2.3550027e-02  -2.6563270e-01   4.3032810e-01  -3.7708128e-01  -9.3854446e-01   3.6263346e-01  -5.3554262e-01   4.5041038e-01   6.0411226e-01   5.3402762e-01  -4.4719270e-01  -2.5794500e-01   7.4629118e-01  -6.1469707e-01   2.2083753e-01  -6.3560033e-01   1.5282544e-01  -7.5261979e-02   8.7431007e-01   4.0004238e-01   1.6695838e-01  -2.1032472e-01  -6.4352094e-01   1.6427931e-01   5.2645183e-02  -7.9575244e-01  -5.8639109e-01   2.3937461e-01   4.2910852e-02  -3.8652329e-01  -8.7589196e-01   7.7317122e-01  -5.0592325e-01  -3.6041544e-01   4.5652881e-01  -7.3605793e-01   6.5521909e-01  -6.7661564e-01  -3.5214754e-01   9.8317595e-01  -9.9952315e-01  -3.5366267e-01  -1.7204281e-01   5.1981985e-01   6.5925139e-01  -9.0286510e-01  -8.5634324e-01  -9.4108186e-01  -9.4654435e-01  -8.4793211e-01  -5.9534016e-01   1.5309129e-01  -7.8093623e-01   3.7070025e-01   6.2117167e-01  -2.8393145e-01  -5.0987055e-01  -3.9332144e-01   1.2099976e-02   2.3526508e-01  -8.0548165e-01  -3.0274615e-01   4.5955565e-01   8.4127238e-01   6.0977833e-01   2.7689785e-01   7.1071128e-01  -8.1423574e-01   1.4219105e-01  -8.8318317e-01  -3.4781694e-01  -7.6586457e-01   7.2134683e-01   4.5312488e-01   1.7658746e-01  -2.1569117e-01   2.9930707e-03   8.0707424e-01  -5.4113742e-01  -8.2600247e-01  -3.4862777e-01  -6.8230171e-02   5.6362999e-01   2.6947871e-01   9.4843931e-01  -6.6812772e-01  -5.8428732e-01   7.6360351e-01  -5.2984446e-01   2.2343961e-02  -6.7470706e-01  -7.4334743e-01   8.7800321e-01  -3.3993395e-01  -5.9270815e-01   4.3152807e-01  -5.4101655e-01  -9.3371910e-01   3.5163893e-01   4.7924481e-01  -9.2910466e-01  -8.3932290e-01   3.9602211e-02  -8.4331172e-02  -2.1764369e-01   4.6366096e-01   2.7218585e-01   7.3634992e-01  -6.3622875e-01   4.2336207e-01   4.5008821e-01   4.3882272e-01   5.4308811e-01  -3.1159013e-01  -6.5744702e-01   4.9469627e-01   4.7592072e-01   9.7859204e-01  -1.1667236e-01  -3.0526627e-01  -1.7920634e-01   8.5639161e-01  -7.0911057e-02   2.2803667e-01  -1.1022255e-01  -5.9722499e-01  -9.2586999e-01   5.0042023e-01   3.7381846e-02   2.3814343e-01   8.6268311e-01  -9.2939312e-01  -1.8132937e-01  -4.6806667e-01  -1.2364195e-01  -3.9522283e-01   5.5056306e-01   4.8001449e-02  -2.2345688e-01   7.8228998e-01   5.4364171e-01   4.4870709e-01  -1.0806233e-01  -9.7196705e-01  -3.7216048e-01   8.6350320e-01   4.2369151e-01   1.2400575e-01  -3.8467217e-01   6.9464090e-01   6.1514509e-01   9.1986302e-01   8.5994699e-01   3.5929949e-01   2.8242393e-01  -9.5343597e-01   4.9781246e-01   1.3249359e-01   4.2457481e-02   3.1520890e-01   3.4559216e-01  -1.9417546e-01  -1.1637383e-01  -9.7859920e-01  -5.1939041e-01  -4.5449629e-01   1.5688874e-01  -3.1486740e-01   4.5608245e-01   4.5191971e-01  -9.8990953e-01  -8.0714273e-01  -1.5193567e-01  -9.4394988e-01   9.2577891e-01  -4.4410561e-01  -1.2150911e-01  -4.3290920e-02  -5.8740919e-01  -6.7802431e-01  -1.2644068e-01   2.8019222e-01  -2.1244218e-01  -3.3682017e-01   8.4489551e-01  -2.6208330e-01   1.4112114e-01   7.8786354e-01   8.2031974e-01   7.5672879e-01   9.7637014e-01  -7.1626221e-01   3.6456836e-01   5.6444406e-01  -8.7757264e-01  -6.3616258e-02  -7.0273172e-01   6.4774699e-03   3.1132760e-01  -7.9127050e-01   1.7298500e-01  -8.9417210e-01  -8.7439205e-01   8.8123936e-01   4.8316487e-01   8.3044388e-01  -4.6689743e-01   2.9037954e-01   6.3969894e-01   1.4013821e-01  -2.0329418e-01   9.3651014e-01   6.0675758e-01   4.8390138e-01   6.2964869e-01  -4.1295819e-01  -2.0282366e-01   4.8626387e-01   7.3234342e-01  -5.9416851e-01   8.9009921e-02  -3.5831331e-01  -3.5407831e-01  -1.4465094e-01   1.9150572e-01   6.1565735e-01  -2.6546222e-01  -6.8035635e-01  -6.9636652e-02   9.1569824e-01   1.5717269e-01   2.1860248e-01   7.9286893e-01  -1.1540917e-01  -7.5887967e-01  -5.3886465e-01   3.6831848e-01  -7.6885221e-02  -3.1793793e-01  -3.1447361e-01  -7.7506283e-01   2.0984125e-01   3.7489407e-01   5.7831189e-01   7.3802025e-02   3.5044561e-01  -1.6954369e-01   6.0635550e-01   7.3712772e-01   9.4802705e-01  -3.4604054e-01   9.7606193e-01   8.0040570e-01   4.3241897e-01  -4.4426465e-01  -1.6843087e-01  -2.7233558e-01   4.7820682e-01  -8.0790469e-01  -5.7140776e-01   5.4440339e-01   3.1170900e-01  -8.1666334e-01  -2.6152094e-01  -3.5770910e-01  -3.0887985e-01  -2.8082922e-01  -8.5520591e-01  -3.2022013e-01  -4.0354192e-01   4.7186411e-01  -2.2475136e-01  -8.0663328e-01  -2.9338722e-01  -7.0733653e-02  -8.2695639e-01   7.8199194e-01   1.3644744e-01  -3.0722924e-01  -9.3069908e-02   3.6941260e-01  -6.0334089e-02   8.6449997e-01   2.3318004e-01   9.2563765e-01   6.3941619e-01  -4.1877496e-01   7.3045157e-01  -2.7147577e-01   2.7273945e-01  -2.4148814e-03  -7.8526262e-01   2.5707963e-01   2.2666449e-01  -3.9070201e-01  -5.8011529e-01   5.2295125e-01   3.3617966e-02  -2.7292599e-01  -2.3294940e-01   9.7736206e-01   7.8254476e-01  -6.9155371e-01  -8.6156534e-01   2.5700055e-01   8.3959925e-01   5.0920718e-01   3.9077734e-01   5.6159130e-01  -3.3104730e-01   4.5483184e-01   7.1562107e-01  -8.7755587e-01   6.6785899e-01  -6.5613284e-01  -6.3569994e-01   8.8623147e-01   4.1612632e-01  -7.3305395e-01  -5.2230243e-01  -5.6018363e-01   4.8723056e-01  -8.2102848e-01   3.6182300e-01   9.7660362e-01  -7.4172610e-01  -6.7056942e-01  -8.4456929e-01  -4.2106253e-01  -1.4004596e-01   3.4818465e-01  -4.0182209e-01   2.6881541e-01   1.2786421e-01   1.6271616e-01   3.6777725e-01   3.7418889e-01   5.4443305e-01  -5.8568344e-02  -1.2996695e-01  -1.9747184e-01   8.5011053e-01  -7.1391911e-01   6.9158963e-01  -4.1489925e-01  -5.0412399e-01  -7.3093673e-01   6.9011983e-01  -9.9077218e-01   5.0574126e-01  -8.2687973e-01   3.8987501e-01  -3.1097263e-01   5.1976929e-01   5.8632161e-01  -4.3681727e-01  -2.1609813e-01   2.5891659e-01  -5.1514135e-01  -3.7020178e-01  -3.9775246e-02   2.6178129e-01   1.3708276e-02   4.1976789e-01  -4.4451084e-01   9.3752284e-01  -8.1902965e-01   8.1865861e-01  -4.8625432e-01   9.2438640e-02   4.1764340e-01   3.3058975e-01   8.0647792e-01   9.1193616e-01   4.0901721e-01   1.1646141e-01  -2.2420980e-02  -7.2786135e-01  -3.5288529e-01  -4.2627890e-01  -1.6028300e-01   6.0119525e-01  -4.1937477e-03  -6.8135984e-01   6.4054386e-01  -9.7250371e-01   4.3518607e-01  -6.0869473e-01   9.8522299e-01   8.7864511e-01  -6.2525050e-01  -1.0005899e-02  -2.1807428e-01  -1.3824271e-01   7.0084834e-02   6.8398385e-01   4.2544048e-01   5.1544610e-01  -7.5281095e-01   4.7120282e-01   1.6593995e-02  -6.0996334e-01   2.5058401e-01   8.4905435e-01   8.3797529e-01   6.5969959e-01  -1.6512058e-01   9.7589532e-01  -5.4079882e-01   4.7578267e-01  -4.6547121e-01   6.5224518e-01  -7.1711073e-02   3.2526426e-02  -9.2115376e-01   9.9745172e-01  -6.5898954e-01   2.8609637e-01   6.6340738e-01   4.0389078e-01   6.1104424e-02  -2.1864572e-01  -8.6422280e-01  -1.2010178e-01  -2.3700602e-01  -9.4258434e-01  -9.6807476e-01   3.9575014e-02   7.8082924e-01  -3.9088442e-01  -4.0773175e-01   3.1351364e-02   6.2748491e-01  -9.3715831e-01   8.7470291e-01   3.4866880e-01  -9.7182806e-01  -8.3510844e-01  -1.0492225e-01   8.4183846e-01  -6.5447205e-01  -9.1196847e-01   1.8981306e-02  -9.2922734e-03   9.6385253e-01  -7.1680365e-01   2.8215194e-01  -2.9312700e-01   8.4773691e-01   7.8030632e-01   9.3058774e-01   5.2947068e-02   6.4092666e-01   2.6005509e-01   1.5362600e-01  -7.9067126e-01  -3.6106735e-01   8.0373641e-01   4.0461192e-01  -7.6020086e-01   5.5623699e-01  -1.3555719e-01  -9.6088072e-01  -8.4409276e-01  -6.3282095e-01   2.8215789e-01  -2.4492915e-01   4.8361467e-01  -4.8373959e-01  -7.5514660e-01   3.0598260e-02  -6.4688929e-01  -5.1530180e-01   9.1874539e-01   7.4570638e-01  -9.8249310e-01   4.6507181e-01  -1.2899193e-01   2.4969679e-01  -2.3430463e-01   4.7568877e-01   3.4230885e-01   9.1081163e-01   3.1611037e-01  -5.9091818e-02   7.1051830e-02  -1.6413987e-01   1.5049395e-01  -2.3149471e-01  -3.3085742e-01  -7.2183353e-01  -4.8258012e-01  -1.3262998e-01   8.8839892e-01   6.6629449e-01   2.2251469e-01   6.7492195e-01   8.7361109e-02   6.5470485e-01  -5.2167951e-01  -7.2407457e-02   9.7846409e-02  -9.5104970e-01  -3.3632032e-01   1.8234268e-01   5.7979303e-01   7.1467736e-01  -2.2844364e-01   2.8767454e-01   7.9836306e-01   1.2417939e-01  -9.7633488e-01  -5.3229322e-01  -1.0827338e-01   1.2246398e-01   3.5456477e-02   3.6303593e-01  -6.3598562e-01  -7.0319733e-01  -2.8395411e-02   9.4463470e-01   9.2478750e-01   3.2676231e-01   3.6805873e-01   9.6364502e-01   3.7282617e-01  -2.2129865e-01   6.4873518e-01   7.6064144e-01   1.1061868e-01  -8.0094096e-01   9.2629562e-03   8.2248633e-01   2.2720419e-01  -5.7978469e-01   6.7283043e-01   2.4127741e-01  -1.2827487e-01  -8.1179572e-01  -1.0184517e-01  -3.7991561e-01   9.5921955e-01  -7.5013884e-01  -9.5217464e-01   7.3335494e-01  -9.6721997e-02   1.3444848e-01  -2.4437504e-01   8.4791745e-01   1.0456927e-02  -9.7617977e-01  -1.2971028e-01   1.6627878e-01  -5.3010637e-01  -3.4378106e-01  -1.3222177e-01   3.7726113e-01   7.4944399e-01  -6.0250303e-01  -8.7045817e-01  -9.7933856e-01   7.2425739e-01  -5.1223554e-02  -5.8275102e-01  -3.5215032e-01  -4.5310639e-01   1.6189892e-01  -4.0352596e-01  -3.0558423e-01   7.7409659e-01   1.6523980e-02  -6.6872508e-02   6.0661858e-01  -1.3669161e-01  -2.6591370e-01   3.8291164e-01  -3.9107732e-01   8.4895706e-01  -8.1791480e-01   3.9248133e-01  -3.1107351e-01  -6.0898791e-01  -3.7114711e-02  -9.5867839e-01  -7.0445201e-01   2.1078761e-01  -3.4274205e-01  -1.9854441e-01   7.3601011e-01  -1.4583524e-01  -5.5679454e-01  -1.9954463e-01  -8.4102110e-01  -8.5471605e-01   8.5276566e-01  -8.5610736e-01  -6.2650389e-01  -8.4348526e-01   4.9904992e-02   7.2578362e-01   9.6302421e-01  -9.2640072e-01   6.2218722e-01  -8.1528366e-01  -2.7091464e-01   7.1176512e-01  -8.0089491e-01   8.9180076e-01   8.0314532e-01  -9.5730960e-01   1.6531584e-01   9.3136653e-01  -3.4504814e-01  -1.9665983e-01  -7.1069889e-01   7.4819600e-01   7.4809715e-01   8.2229765e-01   7.0763167e-01  -1.0157757e-01   8.9122650e-01  -6.8194520e-01  -5.0019949e-01  -8.3305459e-01  -4.7582208e-01   5.9387135e-01   1.8360279e-01   5.5045986e-01  -1.7922802e-01   4.2150587e-01   4.1259927e-01   1.0437343e-01  -2.0717238e-01   5.8714867e-01  -7.2696124e-01  -2.0194395e-01  -1.7612111e-01  -2.3658797e-01  -1.3624744e-01  -8.7799538e-01   6.4580256e-01  -7.7916602e-01  -8.9490195e-01  -6.4500683e-01  -2.6085292e-02  -4.7520617e-01   4.2686786e-01   1.0856183e-01  -4.0580560e-01  -3.8494872e-01  -7.2542985e-01   1.9251260e-01   3.0231635e-01   6.5306743e-01   6.8326322e-01  -5.4741274e-01  -7.7461549e-02  -5.0535119e-01  -4.0376090e-01   1.4065046e-01   6.3278606e-01   6.1514533e-01   2.1864612e-01   7.0738211e-01  -7.2274082e-01  -7.4646475e-01   2.0802407e-01   8.1320530e-01   7.2753452e-01   7.9078092e-01  -4.1025541e-02  -9.9713618e-01   6.1643099e-01   2.9598006e-01   7.6099372e-01   2.6465425e-01  -1.8447627e-01   8.7223216e-01   9.6205119e-01   6.6896712e-01   3.1323547e-01  -9.8661456e-01   8.0944258e-01  -8.8616798e-02   7.6708734e-01  -3.8447398e-01  -9.5009413e-01  -3.8805003e-01   7.8603457e-01  -5.8348186e-01   7.3768406e-01   6.2757456e-01   3.3366818e-01   8.0689003e-01   4.6528535e-01   5.0248492e-01   4.9925723e-02   1.3264200e-01   2.1039779e-01   1.0413467e-01   3.3099715e-01   9.0348285e-01   7.0197036e-01   4.9601663e-01  -3.2663067e-01   9.1806165e-01  -1.4496412e-01  -7.3408603e-01  -3.0589990e-01   2.7570549e-01   1.4462652e-01   3.6880152e-01  -6.9787389e-01   9.3589029e-01  -2.5814851e-01   6.6059831e-01   8.2126141e-01   9.0701125e-01   9.3756959e-01  -8.6246743e-01  -1.0381365e-01   6.3636202e-01   2.7039197e-01  -2.7641284e-01  -6.7754185e-01  -2.2861014e-02   2.1291442e-01   1.3773318e-01   2.7126903e-01  -4.1455774e-01  -5.1862940e-01  -5.4685506e-01  -8.5888349e-01  -5.1953230e-01  -6.4763590e-01   4.9677757e-01  -1.2829998e-01  -1.8328727e-01   7.4515968e-01  -2.6431658e-02   4.7636887e-01   5.4222638e-01   2.6787791e-01   5.3376887e-01   7.6138929e-01  -8.3831489e-01  -5.0434042e-02  -3.2489712e-01  -3.2703687e-01  -8.2418133e-01  -8.8799767e-02  -3.9254390e-01  -6.1100906e-01  -8.4420991e-01  -6.2064468e-01  -4.3090182e-01   5.2116109e-01  -2.1184663e-01  -3.5267237e-01   9.7561779e-01  -2.0635698e-01  -3.7198587e-01  -4.0981240e-01  -9.8142272e-01   5.4386876e-01  -5.7566864e-01  -5.5208076e-01   2.8620788e-02   8.6010010e-02   5.2392844e-02  -3.9120012e-01   3.7699418e-01   1.7538739e-01  -7.7972831e-01   8.3273158e-01  -6.2674029e-01   5.1309197e-01  -5.3294626e-01   9.1316114e-01   4.8271424e-01  -1.6473982e-01  -9.1895902e-01  -4.4990311e-01   8.2054100e-01   5.2486428e-01   5.8150854e-01   5.0210253e-01   1.0653543e-01  -2.8616453e-01   2.1519303e-01   4.6925498e-01  -7.4864633e-02  -4.2346009e-01   7.5480249e-01   7.2966858e-01   6.4854225e-01   1.0282563e-01   2.0220250e-02  -1.6036928e-01   4.0993853e-01  -1.4361189e-01   8.5236032e-01  -3.3576562e-01   7.9137100e-01   6.8121592e-01   8.7139031e-01  -6.1308214e-01   5.8024978e-01   5.6173043e-01  -4.5810493e-01  -4.6020791e-02  -6.9126429e-01   7.8134334e-01  -3.2121932e-01   6.9119250e-01  -9.3254074e-01  -2.8999460e-01   8.1490734e-01  -4.9382211e-01  -8.6994994e-01  -5.8636787e-01  -6.8761539e-01  -9.6253698e-01  -2.4893506e-01   6.4555379e-02   7.3519562e-01   5.2919131e-01   5.4520954e-01  -4.2957649e-01  -9.1030709e-01  -5.2767670e-01   4.9213685e-02   5.6954223e-01  -9.1177035e-01  -7.0409816e-01   4.5694247e-01   1.0077323e-01   7.3505670e-01  -8.0795999e-01  -4.4523405e-01   8.8712498e-01  -8.2099475e-01  -7.0767828e-01   3.2846258e-01   7.5064243e-01   9.4390134e-01  -3.8597176e-01  -6.8997328e-01  -9.1355895e-01   8.7991709e-01   7.3133685e-02  -2.3645375e-01  -5.1649810e-01   6.7119344e-01   5.7447291e-01
  -3.4779690e-01   8.2558050e-01  -6.9646111e-01   1.3863852e-01  -6.5301440e-01  -8.6668442e-01  -1.9728803e-01  -1.6394003e-01  -9.6342837e-01   2.7826893e-01  -6.3085747e-01   8.0173037e-02  -1.6576957e-01  -2.7244270e-01  -4.4555709e-01  -8.0066315e-02   2.3657173e-01   6.5900022e-01   5.0743684e-01  -6.8348052e-01  -7.2963573e-01  -9.6360249e-01  -3.5753585e-01   7.9648758e-01   5.9075697e-02   6.4323552e-01   1.0877668e-01   1.3625658e-01   2.4123618e-01   5.4043821e-02  -6.1540114e-01  -6.0994612e-01   5.2230950e-01  -5.4350452e-01  -5.9819104e-01  -5.2304811e-02   2.0945529e-01  -1.1538645e-01   1.1005735e-01  -9.4782868e-01   3.3853310e-02  -4.1555629e-01  -9.7426162e-01   3.4173017e-01   5.3845328e-01  -8.2019163e-01   4.6026959e-01   1.9435700e-01  -9.6891581e-01  -7.9726878e-01  -9.2253900e-01   3.5904705e-01  -7.1236054e-01  -8.8952243e-01   3.9761785e-01   6.3805353e-01  -9.4566275e-01  -4.3445417e-02  -9.0373397e-01   2.4888927e-01  -2.9894956e-01  -8.5673784e-01  -6.6046686e-01   2.7021272e-01  -4.4635712e-01   6.5497163e-01   5.5733904e-01  -4.5953955e-01   5.3814325e-01   2.3849189e-01  -1.8855745e-01  -5.3427722e-01   7.4639295e-01   2.3571117e-01   9.9867573e-01  -2.3276615e-01   2.4366035e-01  -9.5983791e-01   4.1720442e-01   8.4232447e-01   8.9976648e-01  -7.4841962e-01  -3.0498757e-01  -9.1672109e-01  -2.0070886e-01  -9.5017302e-01   4.4735415e-01   9.4741064e-01  -5.8302108e-01  -3.9857862e-01   4.3602900e-01  -9.0506462e-01   2.4702880e-01  -5.0652817e-01   6.4959588e-01   4.7939459e-01  -5.0845812e-01   6.6819916e-01   4.5542433e-01  -3.6814977e-01  -9.9365982e-01   6.9360101e-01  -2.6011462e-01  -5.6043530e-01   3.4589500e-01  -7.0250372e-01   5.0316992e-01   6.1156407e-01   6.5037165e-01   9.9899990e-01   1.3634717e-01  -6.2757679e-01  -9.8752242e-01   6.9130553e-01  -4.0413749e-01  -5.1087166e-01  -2.7714899e-01  -1.2381334e-01  -1.8259563e-01  -5.7625681e-01   2.7080204e-01   3.5804902e-02   1.2572707e-01   2.0017674e-01   1.0123278e-01   8.6463535e-03   5.3631272e-01  -2.1258623e-01   5.9737561e-01  -3.3211431e-01  -6.2386968e-01  -6.2662264e-01   7.6945844e-01   4.7357680e-01   6.1984304e-01   4.3796159e-01   4.8196995e-01   8.3567065e-01   3.1615328e-01   1.9920288e-01  -1.4935884e-01  -3.8587650e-01  -3.8570342e-01  -2.1505188e-01  -7.3725408e-01  -3.0367474e-01  -4.1446284e-01   8.6995289e-01  -3.2465403e-01   4.8581840e-01  -7.9433165e-01  -5.0858222e-01  -4.9237818e-01  -6.8801168e-01  -9.3873525e-01   1.1195787e-02   8.9309220e-01   7.7783841e-01  -5.0011666e-01   8.9208207e-01   9.5547266e-01  -1.4138286e-01  -5.9113968e-01  -7.1161438e-01  -4.9430249e-01   7.4392746e-01   7.1739286e-01  -8.4724202e-01  -8.9918176e-01  -6.1912227e-01   6.6931763e-01  -8.8723924e-01   7.4796309e-01  -8.5524363e-01  -7.8709421e-01   7.8346413e-01   5.1069053e-01   1.7202583e-01  -1.1562175e-01   3.7099587e-01   2.2481072e-01   6.6359422e-01   4.3851293e-01   1.0310785e-01  -6.5271159e-01   3.1864286e-01   4.1321259e-01   7.1404918e-01  -2.0837631e-02   5.7774734e-01   8.3909748e-01   5.3860371e-02   2.2658016e-01   1.8779235e-02   6.1723126e-01  -5.1239148e-01  -4.5383676e-01   1.9171348e-01  -8.5136465e-01  -4.4105207e-01  -3.0293161e-01  -7.9187685e-01   6.8405409e-02  -4.2337589e-01  -8.1347008e-01   5.0448837e-01  -4.9263151e-01  -8.6920419e-01  -2.1508727e-01   3.1477086e-01   9.3918693e-01  -1.4328502e-01   7.9827990e-01  -4.1948987e-01   3.7948531e-01  -1.7989561e-01  -5.7383435e-01  -1.7074793e-01   9.1209709e-01   8.7334544e-01   9.7273548e-02   5.2687953e-01  -6.2805193e-01   4.6861094e-01   5.0072041e-01   2.0802744e-01  -4.3667304e-01  -3.9418965e-01  -1.0158922e-03   8.1625902e-02   9.4447336e-01   9.6197784e-01  -7.4883722e-01  -1.7230601e-01   9.1597782e-01  -5.6772166e-01   8.3630201e-01   5.3430790e-01  -1.9187705e-01  -9.1355872e-01   1.0660720e-01   7.0859051e-01  -1.2678431e-01   9.6758491e-01   8.7578581e-01   5.1974932e-01  -7.4146428e-01  -1.5781913e-01  -9.5489558e-01   3.3175515e-01   5.6149757e-01  -7.2348832e-01   6.8141465e-01  -1.0158300e-01   6.3124000e-01  -5.0961949e-01   7.9844571e-01   6.9541963e-01   4.9443660e-02   4.8188838e-01   3.7708963e-01  -7.8713679e-01  -9.8493325e-01  -7.0451592e-01  -2.2015316e-02   1.0914677e-01   2.4742854e-01  -4.9404009e-01   3.6438889e-01   7.3680588e-01  -4.9915679e-01   6.8516811e-01   7.5363820e-02   6.4597803e-01  -1.5973404e-01  -9.2064130e-01   3.0534076e-01   2.7207794e-01  -6.1881683e-01  -3.6316786e-01  -2.4505248e-01  -3.9525191e-01  -5.8861715e-01   4.8217108e-01   5.3807940e-01  -8.0132364e-01   4.7655544e-01  -2.8749708e-01   8.7131588e-01   2.2211037e-01   1.5436902e-02   7.0649933e-01  -1.1342262e-01  -8.1377874e-01  -7.2842920e-01   7.3163225e-01   7.1156662e-01  -5.5072482e-01   7.3255028e-01   5.4498586e-01  -4.9636470e-01   3.9166336e-01  -8.5960504e-01  -8.0383680e-01   5.4733479e-01  -6.2351102e-02   7.6871355e-01   4.9270591e-01   9.7815144e-01  -7.9466115e-01   6.2494232e-02   4.5273278e-01  -5.8596652e-01  -4.7452075e-02   3.0444506e-01   6.1648126e-01  -3.0863113e-01   4.2683451e-01  -1.5729303e-01  -5.6152667e-01  -3.7435113e-01   7.5640530e-02  -8.1568363e-01   8.4335851e-01   2.5900133e-01   6.8742150e-01  -7.7687790e-01   2.2483493e-01  -4.4411097e-01   8.0744182e-01   9.2716054e-02   3.2260024e-01   3.5108618e-01  -7.4513549e-01  -6.8014579e-01  -5.1587192e-01   4.0084719e-01  -3.3916451e-01  -5.7394289e-01   5.2328072e-01   4.0634149e-01   8.8548025e-01   3.8877501e-01   8.9932345e-01   6.1593005e-01  -7.9924967e-01  -7.4369928e-01   1.0330880e-01  -4.2904506e-01  -6.3857059e-01   3.7458163e-01  -3.0935515e-02  -2.5330791e-01  -1.6669101e-01   5.4022800e-01  -2.4907179e-01  -8.0331560e-01  -3.1373895e-01  -2.7609064e-01   4.4352397e-01  -4.3267291e-01   7.5455910e-01  -2.8908975e-01   2.9905237e-01   5.7515160e-01  -5.9321836e-01  -4.5443193e-01   3.6025885e-01   4.8842553e-01  -5.2042466e-01   8.3619765e-01   9.2676373e-02  -9.2088141e-01   3.7623842e-01   8.5060871e-01  -7.6125619e-01  -1.4186259e-01   6.7364371e-01   3.4091869e-01  -3.3964282e-01   8.8242708e-01  -3.6252116e-01  -9.5734792e-01   5.9755729e-02   2.4648879e-01  -2.9034842e-01   9.2509985e-01  -9.3531151e-01  -3.6405571e-01   7.1999725e-02   6.0956928e-01   6.6573200e-01   7.9656282e-01   9.7595394e-01  -2.5714177e-02  -4.1636865e-01   7.2480250e-01   8.4480998e-01  -7.5506587e-01  -6.6351436e-01   4.8822852e-01  -5.8860946e-01   4.0939958e-02   8.1373091e-01   8.7033975e-01   1.6793088e-01  -8.7182932e-01  -2.8244056e-01   7.8877326e-01   9.8988451e-01   3.4795019e-01  -4.1657584e-02   3.2483116e-01   6.7046757e-01   1.1297906e-01   6.9457789e-02   1.2214816e-01  -4.6579758e-01  -7.3201942e-01  -9.2250161e-01   5.6830150e-01   9.5436091e-01   8.2416204e-01  -7.5640354e-02   1.7344978e-01   8.6963818e-01  -4.7576274e-01  -5.3716731e-01   3.5653497e-01   8.8393308e-01   9.8344955e-01  -2.8152828e-01  -1.9514732e-01   6.9346579e-01  -4.5911579e-01   5.7945357e-01  -2.2598623e-01   9.0601934e-01   8.8064701e-01   8.5519126e-02  -6.8122155e-01   1.1541393e-01  -3.4330750e-01  -6.7482334e-02  -2.8241289e-03  -2.8928803e-01  -7.3411433e-01  -2.7651527e-01   1.5530520e-01  -3.6815309e-01  -7.5326218e-01   5.2058862e-01  -3.5971640e-01  -1.7193418e-01   9.8534947e-01  -8.4581192e-01  -7.1100020e-01   7.8730413e-01   3.7255906e-01   4.2565468e-01   5.8937737e-01  -3.3481297e-01  -3.2452999e-01  -9.1244779e-01   3.3384229e-01   1.1542751e-01   2.4753658e-01  -4.2218549e-01   1.9688840e-01   6.0886702e-01   6.8177838e-01   5.7500875e-01   9.5920801e-02   3.0029927e-01   4.8235048e-01  -6.2517320e-01  -9.6604977e-02  -8.9043791e-01  -1.4133964e-01   8.0771923e-01   2.3854989e-01   3.2622285e-02  -7.8023049e-01  -9.6148661e-01   2.3721868e-01  -6.1005674e-01  -5.9164721e-01  -1.7659713e-01  -6.6866509e-01  -7.6721104e-01  -8.6204822e-03  -8.6431166e-01  -2.5024074e-01   8.2777797e-01  -6.4257834e-01  -7.1303307e-01   4.0990535e-01  -6.4376834e-01   8.7511433e-01  -8.8453007e-01  -9.6873267e-01  -6.5026166e-01  -9.9522580e-01   1.1421423e-01   8.9317170e-01   6.9690504e-01  -3.6064039e-01   5.0711566e-01  -7.5384472e-02   5.4624362e-01  -4.7352288e-01  -2.6772991e-02   7.7889140e-01   4.0324329e-01  -4.7173421e-01   6.0788752e-02   4.9934107e-02  -9.8352733e-01  -1.8478850e-01   3.5259753e-01   4.8660770e-01  -8.6087804e-02   5.4898681e-01  -2.5199086e-01   6.7961268e-01   5.6259345e-01   7.7307352e-01  -7.0143098e-01  -1.6204822e-01  -1.9367584e-01  -5.0592751e-01  -9.1042162e-01   6.9171169e-01  -1.8061538e-01  -2.4110571e-01   9.0091945e-01  -5.6414201e-01  -5.3363977e-01  -4.7558050e-01   9.6400506e-01   2.7815414e-01  -9.5368121e-01  -4.7893553e-01  -4.2945939e-01   2.7274999e-01  -8.9207086e-01   9.5607604e-02  -2.7644542e-01   3.9978486e-01   9.2132857e-01   9.6262395e-01   2.8898055e-01  -1.4413973e-01  -3.5333685e-01   6.0455578e-01  -5.4338415e-01   9.1325257e-01  -6.2074317e-01  -2.8906800e-01  -1.4282276e-01  -7.2207379e-01   8.1245585e-01   3.4842013e-01  -2.7742129e-01  -2.7514947e-01   3.4435147e-01   3.9539199e-01  -6.5592657e-01  -7.0180137e-01  -3.7789563e-01  -3.4858530e-01  -6.8646035e-01  -9.7795372e-01  -3.1160469e-01   3.3042214e-02   2.8939082e-01   1.4561939e-01   9.2220008e-01   4.5348692e-02  -5.5246471e-01   6.8581971e-01  -4.8794754e-01  -1.7846723e-01  -7.6012197e-01  -7.4452612e-02   5.5167031e-02   7.5727302e-01  -7.0396489e-01  -4.6101668e-01   9.5714840e-01  -1.8957768e-02  -2.0957134e-02  -2.6116523e-01  -1.8899316e-01   9.7157693e-01  -3.3060259e-01   5.9231610e-01  -7.7450753e-02  -6.3418709e-02  -4.9370251e-01   3.0261623e-01   5.7062045e-01  -8.0986700e-01   6.7978967e-01  -8.5678888e-01   1.5251673e-01  -4.5258206e-01  -9.3546263e-01   7.0490444e-01   1.1032126e-01  -7.0532016e-01  -7.3175388e-02  -6.2797998e-01  -1.5024184e-01   7.6306929e-02   2.6079878e-01   2.6853961e-01  -3.8141425e-01   5.4308386e-01   2.1407552e-01   2.4181169e-01  -3.8825735e-01   7.5675645e-01  -3.4781755e-01   1.7329165e-01   6.9482019e-01  -1.6425849e-01  -3.4358520e-02   8.2164868e-01  -9.1921371e-01   8.9124118e-01  -5.3143393e-01   4.6878647e-01  -1.4442625e-01  -5.4583233e-01   4.5953635e-01  -6.5322640e-01  -2.4335851e-01  -4.5306835e-01   8.2434191e-01   7.1941791e-01   5.6907594e-01  -2.2460134e-01   8.7715737e-01   2.1887036e-01  -9.2421843e-02  -5.9833880e-01  -2.4592712e-01  -5.7490930e-01   7.2039941e-01   2.1140414e-01   4.9669961e-01  -7.0215287e-01  -7.8259164e-01   1.0592288e-02  -2.2048724e-01   4.2856238e-01  -5.5624044e-01  -9.7754045e-01   1.8999305e-01   9.0599272e-01   6.4480463e-01   9.6888813e-01   9.5542572e-01   5.7331589e-01   6.3172447e-01   6.8200264e-05  -8.9030014e-01   5.9573257e-02   3.7535636e-01  -4.5470495e-01  -8.1070628e-01  -5.7928937e-01  -1.0089426e-01  -8.9096805e-01  -7.1644995e-01  -1.4383664e-01  -8.8097088e-01   8.4168806e-03   3.2200600e-03   6.2145610e-01   4.5393719e-01   8.4559080e-01  -1.3698256e-01   7.0829330e-01  -9.8784632e-02  -1.1195721e-01   2.9602551e-01  -6.2714576e-01   9.5382001e-02  -9.0344232e-01  -7.7996657e-01  -4.7670150e-01   9.5089472e-01  -1.5940300e-01  -6.9834761e-01  -6.0012346e-01  -3.3290601e-01  -5.4627439e-01  -5.1216219e-02  -3.9817936e-01   6.6663085e-01   1.3620858e-01  -4.4722548e-01  -6.3216400e-01  -9.6786269e-01  -9.8055621e-01  -6.5008819e-01   1.2786483e-01   1.7592229e-01   8.3407284e-01   8.6378533e-01   8.9436723e-01   9.0978566e-01   2.8417914e-01  -2.0532960e-01  -5.0952535e-01  -3.2499188e-01   4.4578065e-01  -8.7214488e-01   5.8082337e-01  -6.6974828e-01   4.4215503e-01   4.2180666e-01  -3.4723154e-01   6.0041287e-01  -8.7140704e-01   3.9126000e-01   7.3948364e-02  -4.9462746e-01   2.6261169e-01  -3.0813490e-01  -1.7643239e-01   9.3759982e-01   1.3900175e-01   7.6180862e-01   6.1334680e-01  -6.0609703e-01   3.4449840e-01   7.1581690e-01  -7.8320241e-01  -6.5190355e-01  -9.7749207e-01  -7.6036061e-01   5.4227288e-01  -4.7924745e-01  -3.0844130e-01  -8.1116341e-01   1.4339357e-01  -1.0338341e-01  -5.1471100e-01   5.4891488e-01  -5.3416957e-01  -6.1289789e-01  -5.5732258e-01  -1.0878462e-01   1.7525607e-01  -6.7569483e-01  -8.1114319e-01  -4.2082091e-01   6.8681754e-02   3.2309408e-01   2.4504350e-01   4.5322288e-01  -1.2657681e-01  -5.9183106e-01  -3.3398251e-01  -2.1708610e-01  -5.3492126e-01  -9.9171918e-01   1.7805953e-01   2.2814912e-01  -6.2239092e-01  -6.5219624e-01  -6.9723185e-01   9.9130946e-01   9.7261427e-01  -4.0031676e-03  -6.5473722e-01   6.7064612e-01   6.9858041e-01   6.2574563e-01  -8.2345449e-01  -5.0170606e-03  -1.6254148e-01  -4.1988697e-01  -5.4626675e-01   6.0851807e-03  -7.4925239e-01   3.3762447e-01   7.2049696e-01   4.4398598e-01   1.7206656e-01   6.4174088e-01   7.5400990e-01   8.6716290e-01   5.5619346e-01  -6.9991598e-02   3.2216399e-01  -3.6428873e-01  -7.3463064e-01  -8.0084671e-02   9.9705827e-01  -9.5415567e-01   7.1372873e-01   8.3965039e-01   7.3322929e-01  -2.1105280e-01   2.6663257e-01   7.8941009e-01   9.8279718e-01  -5.8186138e-01  -9.0338489e-01  -8.5604217e-01   2.1555109e-01   6.3366417e-02   7.0260965e-01   4.1710209e-01   4.4103218e-01   7.5266642e-01   8.5613184e-01   6.2075897e-02  -8.7328129e-01  -6.9809384e-01  -1.2249243e-01  -7.8000250e-01  -5.7584059e-01  -1.1367433e-01  -5.7004447e-01  -7.4592867e-01   4.3673458e-01   3.2507552e-01  -8.0483369e-01   6.9028406e-01  -1.3716806e-01   7.3532830e-02   6.1726269e-01  -9.6720902e-01  -1.0446859e-01  -6.7007136e-01   2.3894050e-01   6.7097445e-01   3.6035032e-01   7.9990841e-01  -6.6169072e-01   9.9628458e-01   8.2880508e-01   1.8479331e-01  -8.9966267e-01   3.3017398e-01   5.7069701e-01  -6.8482437e-01  -8.3743278e-01  -6.6843048e-01  -3.4145086e-02   6.8696670e-01  -8.2171541e-01  -9.1068032e-01  -3.9531522e-01   6.5448210e-01  -3.1510785e-01  -1.4612041e-01  -3.9528652e-01   8.6610723e-01   5.0522384e-01  -2.1063693e-01   5.4958525e-01  -3.6260658e-01  -9.1591224e-01   8.6609967e-02   8.3153637e-01  -5.2146448e-01  -1.1966571e-02   3.0024246e-02  -2.5251597e-01   6.2419696e-01  -5.7349533e-01   9.9691739e-01  -9.1243963e-01   4.6544089e-01   6.1511992e-01  -5.1232410e-03   4.1932672e-01  -7.0806745e-01   6.6959388e-01  -6.5856998e-01  -5.5586011e-01  -4.7683350e-02   6.2152468e-02  -6.8380442e-01   7.8679517e-01   7.9559526e-01   1.0215709e-01  -6.6862588e-01  -1.6503626e-01  -3.2351504e-01  -6.6686979e-01  -8.5747506e-02  -7.4020621e-01  -3.3781619e-01  -7.7177849e-01  -9.3867591e-01   8.5202147e-01  -4.5773201e-02  -1.4926642e-01  -1.1452321e-01  -9.1257339e-02   5.9741567e-01   1.2995316e-01   9.3214071e-01  -7.5208711e-01  -3.5759830e-01   1.2805936e-01  -8.1060436e-01   9.5210636e-01   1.4681106e-01  -1.6770238e-01   4.2411691e-01   7.3855697e-01   8.1023691e-02   9.0819648e-01   8.0294182e-01  -8.5982812e-02  -1.6042387e-01  -4.8878136e-01   2.6864032e-01  -2.7822368e-01  -6.2264932e-02  -2.2930074e-01  -7.3251752e-01  -2.2108609e-01  -1.3160545e-01   4.7644787e-01  -2.4781175e-02  -4.2222815e-01   6.0854750e-01   6.9939957e-01   3.3556857e-01   4.2732881e-01  -1.0327703e-01   4.0644045e-01  -8.7544458e-01  -2.7632091e-01  -6.0062905e-01   7.5603602e-01   3.5762986e-01   4.2644274e-01  -6.1663304e-01  -1.9478828e-01   7.9505416e-01   3.2074752e-01  -3.9336928e-01  -7.0434212e-01  -5.3328551e-01   8.2147568e-01   2.5640543e-02   2.6292507e-01   4.5434964e-01   4.5538402e-01   4.3442691e-01   1.4808240e-01   8.8912288e-01   9.5081485e-01  -2.4114117e-01  -1.3074674e-01  -3.1761297e-01   5.4139939e-01   2.3955882e-02   3.1638455e-01  -3.3354556e-01  -5.1604041e-01   3.5511840e-01   3.0402986e-01   8.1389626e-01  -4.7349999e-01  -5.2618356e-01   1.6562011e-01  -3.6304819e-01  -5.5578325e-01   5.6390524e-01  -9.5662742e-01  -2.4626316e-01  -8.7751970e-01   7.3754776e-01   9.5660372e-02   8.7668493e-02  -2.8914805e-01  -5.1774145e-01   9.0096426e-01   4.2622916e-01  -1.5797873e-01   2.7508085e-01   2.4055322e-01  -6.8056725e-02  -9.4863486e-02   8.7833194e-01  -2.8723005e-01   1.2993656e-01   4.8321028e-01   2.0718091e-01
  -3.5542792e-01   1.3205287e-01  -8.2884948e-01  -8.3664290e-01  -9.3194186e-01   9.4317221e-01  -3.9772842e-01  -9.3477982e-02   4.8588737e-01   2.8699778e-01  -9.0108215e-01  -4.7815511e-01   4.1220629e-01  -5.1766802e-01   7.6108691e-01   2.5808043e-01   5.7861438e-01   3.5549711e-01   7.8135650e-01  -4.4324109e-01   5.5989009e-01  -1.8487803e-01   6.8105750e-01  -5.0399703e-01  -6.9616664e-01  -6.4681706e-01  -1.3857462e-01   5.5159416e-01   2.1219716e-01   9.7733265e-01  -5.2325431e-01  -7.7693353e-01  -4.7131377e-01   7.3764027e-01   9.3735423e-01   3.5114138e-02  -5.4807053e-01   3.9850984e-01   5.9360353e-01   3.3710097e-01  -2.5449358e-01  -1.7458415e-01  -3.1911063e-01  -8.6697916e-01   2.1954446e-01  -6.2561916e-01   6.9102505e-01   2.0112632e-02  -8.4905272e-01  -3.5173344e-02   7.9718172e-01   4.2082084e-01  -7.8190582e-01   7.3244280e-01   2.1839393e-01  -2.5332035e-01   9.6903312e-01   7.7573065e-01   1.3877598e-01  -2.3589737e-02   3.0475390e-01  -9.9163408e-01   6.5238718e-01  -7.8508221e-01  -7.9529080e-01  -7.8604676e-01  -3.7203458e-01   3.3565396e-01  -1.7284267e-01   6.1968753e-01   6.1380537e-01  -5.1050514e-01   4.9579706e-01  -9.4839237e-01  -1.0120824e-01   5.3019049e-03  -6.8948851e-01   4.9605218e-01  -1.2974992e-01  -7.7547418e-01  -8.0647784e-01   7.7436374e-02   6.3344952e-01   1.4492199e-01  -6.9882860e-01  -7.3587342e-01   2.2291861e-01  -4.9654600e-01   3.1633848e-01  -9.5586463e-04  -2.3842819e-01  -5.1723609e-01  -6.1340497e-01  -8.5069362e-02  -4.9959397e-01   1.0946977e-01  -8.0019646e-01  -8.0725007e-01   6.0907855e-01   5.6926211e-01   9.7529427e-01   8.2743791e-03   6.4765747e-01  -9.4538903e-01  -5.6582229e-01   5.2705451e-01   2.1759717e-01  -1.7239297e-01   3.6085248e-01   5.9034690e-01  -8.2256317e-01   8.4190269e-01   6.4367355e-02  -7.9879292e-01  -2.7051810e-01   8.0955993e-01  -1.3458565e-01  -3.6738129e-01  -9.8952454e-01  -8.4584985e-01   9.8962078e-01  -3.8246126e-02  -7.0742203e-01   8.7230486e-02  -1.4957011e-01  -2.9019843e-02   3.1149165e-01  -3.2628803e-01   7.9768002e-01   5.4857277e-01   1.3592960e-01   2.7050549e-01   6.0131198e-01   9.9346159e-01  -5.6745822e-01  -4.3837122e-01   5.1166362e-02  -2.9860077e-01   2.9526628e-02  -5.9136606e-01  -6.0145914e-01  -3.1230374e-01  -1.6770938e-01   3.3555580e-01   1.0666773e-01  -4.1659640e-01   5.6875839e-01   3.9989906e-01  -2.2670164e-01  -4.9589501e-01   2.2567609e-02  -3.4216926e-01  -3.2095006e-01  -2.9218245e-01  -5.2555640e-01  -3.7490731e-01   6.6138415e-01   4.5709830e-01  -5.8929038e-01   8.7744557e-01   5.1980364e-01   4.9350244e-01  -6.2640922e-01  -9.0818098e-01  -9.0553711e-01  -5.4623718e-01   1.6222383e-01  -6.3264118e-01   6.9983216e-02  -7.6658493e-01   2.0116824e-01  -5.3410633e-01  -3.9298693e-01   4.9760591e-01  -3.3519583e-01   4.3731068e-01  -4.2995537e-01  -8.0807496e-01  -9.5060223e-01  -5.7168503e-01   4.5042425e-01  -8.7510617e-01   8.6690452e-01   2.8978363e-01  -2.1026118e-01   9.4232858e-01  -6.2511447e-01  -2.1518703e-01  -5.9473034e-01  -8.8799187e-01   8.8388488e-01  -2.5735741e-01  -9.5157871e-01  -8.0970895e-01   6.3928184e-01  -4.1324734e-01   3.6186450e-01   8.4577394e-01   8.6056400e-01  -4.9861400e-01  -1.8791858e-02   1.3656296e-01   6.7128542e-01  -1.4505227e-01  -2.5088328e-01   6.4509674e-02   7.1098677e-01  -1.3430149e-01  -5.7086565e-01   6.7550044e-01   7.4068211e-01   8.8922846e-02  -3.8766991e-01  -4.4903907e-01   6.1504849e-01   8.1658826e-01   5.0764409e-01  -3.0198705e-01   7.7623709e-01   4.5238791e-01   1.2694970e-01  -9.3256176e-01  -1.1006136e-02  -5.9436889e-01   9.2326550e-01  -5.2022946e-01  -2.7685021e-01   5.4797883e-02   9.6826785e-01  -1.0186684e-01   5.3377550e-01  -1.3358004e-01  -1.9905305e-01  -9.2387272e-01  -6.5240882e-01   5.9630712e-01   2.9471372e-01  -2.7812525e-01  -1.3557361e-01  -9.1305783e-01   4.1032481e-02   6.1086395e-01   4.2054388e-01   4.1308664e-01  -7.6243473e-01   1.1624706e-02   9.5994983e-01  -2.5068921e-01  -7.4354209e-01   1.4957737e-01   6.4259409e-01   9.2545090e-02  -1.6792025e-01   5.1489508e-01  -5.0679280e-01   9.2198808e-01  -3.0765532e-01   7.8495624e-01   3.3690769e-01   7.2240997e-02  -2.1713144e-01   1.6173944e-01   5.6533437e-01  -5.2621081e-01  -7.6152924e-01  -5.3115809e-01  -4.0617143e-01   7.7153222e-01   9.3322398e-01  -7.4971196e-01  -8.1776720e-01  -6.5255916e-01   8.8168928e-01   5.6319827e-01  -1.6618697e-01  -8.9026462e-01  -3.3706322e-01  -6.7775864e-03  -1.5194710e-01   4.0859377e-02  -9.5887887e-01   4.8763139e-01  -6.5943684e-01   5.7336981e-01   2.3758284e-01   9.5518491e-01  -4.6564426e-01  -6.4214491e-01  -5.4928201e-01   1.6013575e-01   8.0894712e-01  -7.1065411e-01  -6.6118347e-01  -9.9814262e-01  -3.6796724e-01  -8.6566671e-01   1.6937717e-01  -9.4851943e-01  -3.7454203e-01   5.5248916e-01   7.5232759e-01   7.1066372e-01  -3.6488717e-01   3.9759230e-01  -1.1135813e-01   4.1165869e-01   1.1899883e-01   9.9170504e-01   5.9249695e-01   2.9332091e-02   2.6737351e-01  -4.3461125e-01  -8.4790629e-01   9.0526025e-01   4.3719014e-01  -3.6162118e-01  -2.0127124e-01   9.5688522e-01  -3.9108360e-01  -6.6298841e-01  -3.0125143e-01   9.6834243e-01  -6.0470227e-01   3.4486753e-01  -7.6270112e-01   4.8406487e-01  -7.9809444e-01   3.4935651e-01  -8.3924486e-01  -7.3574015e-01   6.1554113e-01   7.0443213e-01  -8.6055473e-01   4.8197817e-01  -1.0223841e-01   8.9054420e-01   3.1585518e-01  -8.2144208e-01  -3.2301239e-01   1.6215379e-01  -2.6364945e-01   7.9701755e-02   7.6532353e-01   3.2043404e-01  -2.4344575e-02  -7.1900348e-01  -1.0290656e-01  -9.9944800e-01   3.1691999e-01   5.2618028e-03   8.8148166e-01   6.4860019e-01   6.0314370e-01   1.0156096e-01   6.6471643e-01   2.1918051e-02   5.3902070e-01  -8.2083835e-01  -5.7959731e-01   8.6459922e-01  -6.4633324e-01  -5.8851234e-01  -8.7295216e-01  -3.7425629e-01  -6.2104809e-01  -4.9615787e-01   6.9578829e-01  -3.7159054e-01   6.0569400e-01  -9.6256140e-01   5.2763132e-01   8.3511998e-01  -5.7434928e-01  -5.7146687e-01   1.7532768e-01   9.4182124e-01   1.1340783e-01   5.7777985e-01  -8.8703101e-01  -3.4068432e-01  -2.0047692e-01  -9.2044779e-01  -4.5199964e-01  -6.5625612e-01  -6.8363527e-01   1.3191649e-01   1.6873990e-01  -1.1973965e-01  -6.7800940e-01   9.7028785e-01   7.1692477e-01  -9.6843015e-01  -3.1739074e-01  -6.4158725e-01  -4.1923130e-01   4.4990472e-01   3.4409243e-02   7.1718754e-01  -5.8092003e-01   7.2800342e-01   6.2408949e-01   9.9339932e-01   2.9218052e-01  -6.4018559e-03  -2.4139782e-01   8.0864421e-01   7.0882440e-01  -8.5888037e-01   2.2778865e-01  -8.0377151e-01  -3.0912174e-01  -7.3123475e-01   5.6725812e-01   4.3473308e-01   4.3004968e-01   7.8964525e-01  -1.5788783e-01  -3.7211415e-01   5.3096185e-01   5.6281202e-01  -1.6677849e-01  -2.8230893e-01  -4.7728188e-01   6.8403756e-01   9.6232158e-01   9.8646283e-01   5.9818640e-01   4.6900639e-01   5.8687741e-01   7.5649211e-01   4.4873684e-01  -1.6720784e-02   6.8990877e-01   7.5776836e-01   5.9884818e-02   5.1082784e-01   8.1046209e-01   3.1551354e-01  -9.1924038e-01  -8.2003785e-01   8.1710406e-02  -3.7474802e-01   1.8445083e-01  -3.1983625e-01   4.0980127e-01  -9.7258126e-01  -3.0421459e-02  -6.1425552e-02   5.7939932e-01   5.3505431e-01  -7.1954209e-01   2.3171770e-01   1.9350984e-01   3.3685621e-02  -8.6721235e-01   6.2786654e-01   4.8935476e-01  -2.2948150e-01   5.0387083e-01   6.4304431e-02  -4.5994049e-02  -3.5542555e-01  -6.5933287e-01   1.0487603e-01   8.0369595e-01  -7.8127722e-02   4.5384815e-01   1.4600769e-01   5.3138042e-01   7.4926365e-01   2.3073892e-01   4.1738116e-01   5.8606205e-01   8.0602468e-01  -6.6450741e-02   1.6198675e-01  -2.0634176e-01  -9.9477311e-01  -3.0166369e-01  -8.0443334e-01  -5.9852898e-01   5.3097371e-01  -4.5175581e-01   8.0304773e-01  -4.8600397e-01  -6.1373471e-01   4.0684241e-01   6.1932195e-03  -6.5544712e-02  -5.4791388e-01   4.1211129e-01   8.3284067e-01   8.9505278e-01  -5.1659035e-01  -5.5125958e-01  -3.5917206e-01  -3.6215170e-01  -1.6188448e-01   5.3490082e-01  -6.9321740e-01   2.2383687e-01   4.3503778e-01   6.9390856e-01   9.1457961e-01   7.4268532e-02  -3.1317486e-01  -1.4038336e-01  -9.3857482e-01   4.4332702e-01  -6.2479026e-01   3.8584867e-01   3.8611420e-01   9.4449591e-01   1.9181385e-01  -9.3679961e-01  -2.0418489e-01   5.1540886e-01   7.2275571e-01  -5.9881997e-02   2.6621876e-01   6.9814556e-01   6.8431157e-01  -5.8858183e-02  -9.1536111e-01   7.0332158e-01  -1.4349950e-01  -3.2163025e-01   4.0879648e-01   5.3473310e-01  -4.0913387e-01  -9.0441737e-01   8.1801127e-02   5.0957779e-01   6.7946403e-01   8.5240020e-02   7.0040131e-01   5.8881528e-01  -4.7402709e-01   5.2840645e-01  -7.7967340e-01  -2.6924706e-01   1.6798504e-01   6.0160820e-01   1.3146376e-01   4.8298536e-01  -1.5448463e-02   2.2081578e-02  -1.6832126e-01  -8.2186147e-01  -4.2774264e-01  -7.5302298e-01   6.3184716e-01   4.8703114e-01   8.5617805e-01   5.5797032e-01  -7.3197115e-01  -5.7919226e-01   8.9434998e-01  -7.2797582e-01   6.7874552e-01   4.3861861e-01   3.8737603e-01  -8.0401064e-01   6.3252411e-01  -6.5131980e-01  -4.8260691e-01  -8.9646424e-01   5.8970473e-02   6.4661990e-01   4.5099257e-01   1.9852527e-01  -1.2077837e-01   1.6562026e-01  -1.6531156e-01   8.3181388e-01  -5.9655797e-01  -1.7539078e-01   1.1312945e-01   8.9194256e-02   4.7407029e-01   5.6931968e-01  -1.6583526e-01   2.6734505e-01  -6.7631083e-01   3.3920367e-01  -9.6533150e-02  -6.4647267e-01   8.5367673e-01  -4.4419485e-01  -7.6574489e-01  -7.9362467e-01   6.8961202e-01  -4.3058936e-01  -6.6074619e-01   3.0666681e-01   7.3848670e-01  -2.4704696e-01  -2.1233171e-02  -3.1366447e-01   9.8070899e-01  -5.0397292e-01   7.3506145e-01  -9.2603514e-01  -5.0308079e-01  -7.0460771e-01   6.2070898e-01   1.0877702e-01   2.6099272e-01   9.8791569e-01  -7.2862430e-01   6.7637611e-01  -6.7139138e-02   3.4172984e-01  -4.6847279e-01   9.8110637e-01   1.4494243e-01  -4.8147840e-01  -9.9761461e-01   1.5926170e-01  -9.3571830e-01  -2.8536541e-01   2.4212334e-01   3.3593288e-01   4.2217825e-01   6.3572137e-02   9.6413877e-01  -1.5400234e-01  -3.3415225e-01  -5.4611491e-01   5.6663371e-02  -5.9130405e-01   9.7203455e-01  -8.9035887e-01  -1.6192861e-02  -9.4596352e-01   3.9256573e-01  -8.7111359e-01   1.1466597e-01  -1.5553858e-01  -3.5783052e-02   6.8718069e-01  -1.3884333e-01   1.0087882e-01  -3.9542026e-01   2.4136498e-01   7.1224942e-01   4.0469198e-01   9.8330737e-01  -1.9659839e-01   6.8033119e-01   8.5400745e-01  -5.6962089e-01  -2.6865940e-01  -7.1278570e-01   9.7702959e-01   1.3323557e-01  -4.3449908e-01   7.4641452e-01  -8.1985294e-01  -8.5591985e-01   5.0352976e-01  -9.8432851e-02  -3.5444663e-01  -2.8111199e-01   5.6250573e-01   8.3846439e-01   5.3730593e-01  -8.6609293e-01  -6.7031511e-01  -1.6979550e-01   6.1675212e-01  -6.8487236e-01   2.7434440e-01  -6.1679625e-01   9.5055729e-01  -4.4131931e-01  -7.8535927e-01   9.0424843e-01  -7.6341335e-01  -4.2786025e-01  -9.0140564e-01  -1.5667245e-01   1.1156605e-02  -8.4075287e-01  -9.2287061e-01  -5.1148539e-01   9.2679242e-01   7.7347385e-01  -3.6473340e-01   7.8640616e-01   6.9128806e-01   5.4609816e-01   3.4445339e-01  -6.2037886e-01   6.8658686e-01   9.9216538e-01   3.0096567e-01  -8.8532016e-01   1.7535792e-01   7.4297915e-01   4.5336891e-01   9.6100113e-01  -2.1909156e-01   8.3711478e-01   6.6075511e-01   9.9817791e-01   2.0401896e-01  -2.7381298e-01   4.7752725e-01  -8.9404696e-01   9.2604794e-01   6.3232310e-01   3.3324386e-01   5.3510480e-01   5.9438186e-01   1.8509310e-01  -3.8052412e-04   1.3668185e-01  -6.7022790e-01  -3.3031066e-01   5.6863749e-01   4.9005761e-01  -5.0811059e-01  -2.6411082e-01   5.3948149e-01  -2.6059180e-01  -9.5117548e-01   7.0536594e-01   3.9579573e-01  -3.1453108e-01   3.3947306e-01   1.9779713e-01   2.9905609e-01  -3.7164149e-01   9.3395466e-01   3.6789630e-01  -8.8006223e-01  -2.0040391e-01   2.1968732e-01  -7.3266279e-01   8.6641467e-01   3.2175731e-01   9.1456874e-02  -6.2055484e-01  -6.9736524e-01   6.5319642e-01   2.3985072e-01  -7.2430760e-01  -6.0607487e-01  -4.4804144e-01   8.0501188e-01   7.7121597e-01   4.9731584e-01   6.8471118e-01   5.4426010e-01   1.5520331e-01  -9.4319940e-01  -9.8826277e-01   3.1498042e-02  -5.0841656e-01   4.8733796e-01  -7.0595185e-01  -2.7279703e-02   5.7118411e-01   7.0782797e-01  -1.2043484e-01  -4.0366051e-01  -3.0703180e-01   2.7179269e-01  -4.2290681e-01   5.9704626e-01   4.1688782e-01  -1.9304696e-01   9.8960111e-02   5.5240646e-01   2.2122771e-01   2.9783016e-01   3.9759607e-01  -3.3086051e-01   8.5560656e-02  -6.4216927e-01  -6.6216902e-01   1.1650360e-01   4.5588838e-01   3.6258535e-01   9.8877004e-01   6.7421120e-01   2.3195422e-01  -7.6325094e-01   2.3143847e-01  -7.1520147e-01   8.4475576e-01  -2.1753908e-01  -5.1959963e-01   2.3023302e-01  -3.4564338e-01  -3.7550531e-01   1.7430877e-01   4.7601039e-01  -9.6429721e-01  -9.6290810e-01   1.3929221e-01   8.2299361e-01   9.3958078e-01  -5.3527834e-01   1.5290316e-01  -8.6758668e-02  -3.3080912e-01   6.6161417e-01   1.5082467e-01   5.7025071e-01   7.3831676e-01  -2.6033308e-02   9.9491445e-01  -1.4334393e-01  -5.3414184e-01   2.0323729e-01  -6.3037262e-01  -9.3136677e-01   9.5321171e-01   8.5392440e-01  -7.0109422e-01  -8.8517633e-01   8.8886455e-01  -3.0050371e-01   8.3515346e-01  -6.8617921e-01  -2.1961412e-01   2.3959578e-01   5.9460853e-01  -2.6370014e-01  -8.4024859e-01  -5.4286127e-01   6.8558336e-01   1.6739202e-01   1.7746441e-01   9.5286730e-01  -4.5426004e-01  -2.4625728e-01   5.6246477e-01   2.1194782e-01  -4.5965178e-01   3.7082765e-01  -7.4782040e-01   1.9284396e-01   1.4286118e-01   2.1406145e-01  -9.7277711e-01  -4.4009084e-02   3.3489802e-01   9.4013767e-01   9.6189246e-01   3.6056675e-01  -7.5132310e-01   6.9542833e-01  -5.7324666e-01   6.6646124e-01  -5.3542429e-01  -3.0474946e-02  -9.6866622e-02  -7.4861571e-01  -8.3850543e-01  -1.3679392e-01  -2.1595804e-01   3.6335665e-01  -6.0609452e-01  -3.9621014e-01  -7.8742993e-01  -6.6735770e-01   7.8871325e-01   8.5666626e-01   6.5536024e-01  -6.6212097e-01   2.2487138e-01  -9.9344600e-01  -9.5156809e-01   9.2668919e-02  -6.6126121e-02  -7.6880521e-01  -2.5925065e-01   9.3506140e-01   9.6855600e-01  -5.7803474e-01   4.5369748e-01  -2.1867611e-01   1.8679261e-01  -9.9137609e-02   3.8960573e-01   2.7186872e-01  -4.3757188e-01   3.6530889e-01  -5.2895306e-01  -7.3841617e-01  -2.6273449e-01  -3.2070347e-02   9.2363422e-01  -7.2234014e-01  -4.4086986e-01  -7.3311967e-02  -6.9735208e-01  -7.1434240e-01  -4.1523060e-02  -9.2222667e-01  -9.2048033e-01   7.2420784e-01  -5.5378058e-01   3.1541669e-01   1.9883383e-01  -3.6549613e-01  -9.5340591e-01   4.3474066e-01  -4.3141261e-01  -3.0236762e-01   3.3157461e-01  -3.2699315e-01   4.3791856e-01  -4.0930909e-01  -1.6584007e-01   4.0156344e-01  -8.7697627e-02   4.0402198e-01   8.8939573e-01   1.5141189e-01   7.7192584e-01   1.7976342e-01  -7.2319955e-01  -8.1573459e-01  -4.4750849e-01   1.8802257e-02   8.8860321e-01  -4.2647869e-03   9.9689065e-01   4.6504149e-01   1.8007623e-01   9.2768894e-01  -5.6662006e-01  -4.5358724e-01   8.1930878e-01  -7.0438572e-01  -4.9505789e-01   2.4435521e-01  -6.9494300e-01   3.4392090e-01   5.4910785e-01  -5.5039398e-01  -6.4118615e-01  -5.6885860e-01   4.2725536e-01   1.3224118e-01  -6.3189007e-01   1.6924948e-01   5.2315529e-01  -5.9826227e-01  -8.9442393e-01  -9.9881369e-01  -1.8619618e-01   9.4175536e-01   3.3225644e-01  -1.7688402e-01   7.5738615e-01  -7.6627218e-01   1.1396901e-01  -1.4167982e-01   9.8788233e-01   6.9108439e-02   7.4765810e-01  -4.0240693e-01   2.7685721e-01  -6.2732353e-01  -2.4563281e-01   7.9947924e-01   9.2395312e-01   1.7157914e-01  -2.1277647e-01   6.6107283e-01  -3.3828640e-01   4.8792716e-01  -3.7977928e-01  -5.4933108e-01  -7.0014570e-01  -1.6653603e-01  -5.4816696e-01   2.1531098e-02  -4.2738064e-01  -7.8509497e-01   2.0754665e-01  -3.9647805e-01  -5.8482992e-02  -3.6493095e-01   1.2683748e-01   1.1567118e-01  -4.7512587e-01   5.2286936e-01   3.2200847e-01  -3.5796169e-01   6.6431374e-01  -9.3895715e-01   9.4282416e-01  -4.9434828e-01  -9.7581523e-01
