   3.8036978e-01   9.8018863e-01  -8.3566954e-01   9.0719395e-01   9.2083131e-02   6.4497148e-01  -8.1423898e-01   7.1558085e-02  -7.7514925e-01  -8.4621834e-01   8.2891742e-01  -3.3890013e-02   6.2283068e-01   7.5181987e-01  -8.2844677e-01   2.9121911e-01   4.5923077e-02  -6.4536550e-01  -1.3686250e-01   5.8190593e-01  -1.3583863e-01   6.6094085e-01  -6.2090782e-01  -6.9873145e-01  -5.1331785e-01   1.3142542e-01  -6.0900153e-01  -9.4957390e-01  -9.9518688e-01  -5.7544895e-01   7.5609635e-01   8.2848766e-01  -5.5597297e-01   9.0714766e-01   2.9099162e-01  -2.6677113e-01  -7.4240478e-01  -3.3374993e-01   5.6088741e-01   8.1815886e-01  -8.3990677e-01   5.8941007e-01   2.2500730e-01  -6.4862494e-01   4.9396875e-01   2.7839543e-01   3.9435924e-01   4.9822828e-01   1.9317047e-01  -7.2955181e-02   7.0018042e-01   4.0146376e-01   4.4038831e-01   3.5736534e-01   9.8611880e-01   9.3465874e-01   9.4314667e-01   1.4351017e-01   9.2961837e-01  -1.3878110e-01  -9.6995763e-01  -5.2691289e-01  -6.2994267e-01   6.3116336e-01  -2.6327748e-01  -9.2900273e-01  -7.1103930e-01  -2.6713619e-01   8.3851577e-01   8.7663532e-01   6.5070579e-01  -3.2344517e-02   3.6674861e-01  -4.3234835e-02   7.1199135e-01  -1.6775797e-02   8.7047921e-01   3.7104165e-01   1.6411083e-01  -2.7477135e-01   5.7479196e-01   7.0940368e-01  -8.5849078e-01   3.5963892e-02  -5.7612003e-01   9.8102891e-01   3.0938940e-01  -4.4074837e-01  -3.1698161e-01  -8.7580030e-01  -6.6544306e-01   8.6013365e-01   5.9599053e-02   9.2139369e-01   8.6791999e-01   7.9442229e-01  -9.8267781e-01  -9.4007317e-01  -5.0015882e-01  -7.1219449e-01   9.9418208e-01  -2.9721638e-01   5.4370773e-01   1.2394823e-01  -8.4511470e-01   8.8759359e-01   3.1845802e-01  -2.8303141e-01   8.9094049e-01   8.5269841e-01   2.4009297e-01  -2.6892224e-01   4.1499309e-01  -8.6598120e-01  -1.4950321e-01   3.3520648e-01   9.3572613e-01   5.1744347e-01   8.4545243e-01  -2.0439052e-01   5.6257614e-02   5.0720538e-02  -7.5793934e-01  -7.4470266e-02  -2.3773820e-01  -1.2973613e-01   5.8430488e-01   2.5653965e-01   2.6749920e-01   8.6793143e-01  -2.1945085e-01   1.5280212e-01  -3.1688447e-01   3.1510895e-01  -4.9777298e-02   8.2506322e-01  -8.7132835e-01  -2.2645172e-01  -4.3033961e-02   9.0226630e-01   6.0779746e-01   3.1292197e-01   1.0632673e-03  -3.2103969e-01  -5.6797598e-01  -7.2642552e-01   2.8739600e-01   3.8789872e-02   1.4516864e-01  -5.2001457e-01   5.2603585e-01   2.6056225e-01  -7.7031902e-01   3.8173233e-01   8.1967106e-01  -7.3275572e-01   7.7108167e-01  -5.9293753e-01   4.7925169e-01  -2.9121935e-02  -9.0484621e-01   9.9546751e-01   3.0157484e-01   8.1739173e-01  -8.0998417e-01  -3.8095423e-02  -1.2612885e-01  -3.1041529e-02  -1.2837402e-01  -6.3313967e-01  -3.7296668e-01  -2.5832109e-01   8.0473583e-02   6.3987202e-01   6.5910314e-01   2.2435945e-01  -1.2912347e-01  -1.1692576e-01  -9.1272910e-02  -6.0155688e-01  -2.2223378e-01   7.1537973e-01  -8.5876592e-01  -9.7703617e-01   2.7241818e-02   7.9478431e-02  -5.5808334e-01   2.9641180e-01   8.6642964e-01  -6.8631870e-01  -4.4953084e-01  -1.9756292e-01   3.1432176e-01  -6.9429937e-01  -2.2887982e-01  -5.1148454e-01   2.3166574e-01   3.8301797e-01   3.2924657e-01   6.2401499e-01  -3.2117305e-01   4.1727816e-01   6.0666529e-01  -5.9974260e-01   1.5464575e-01   1.3472748e-01   2.9769550e-02  -8.5023954e-01   7.6308514e-01  -9.2630511e-01   2.3385827e-01  -6.2857423e-01   2.5009462e-01  -5.5308614e-01   1.6467465e-01  -9.4282311e-01   3.7923134e-01   4.5059687e-01   5.8467975e-01   5.8183784e-03   6.8998856e-01  -5.9118638e-01  -8.8455353e-01  -6.6809767e-01   9.9634540e-01  -2.1881300e-01  -5.2181296e-02  -3.1405082e-02   4.3029796e-01  -1.3481006e-01  -1.9632733e-01   3.7299209e-01  -7.8360871e-01   8.2682320e-01  -4.3117320e-01  -2.2392258e-01   9.5603187e-01   2.0429697e-01   8.9620398e-01  -8.1604033e-01   6.1923886e-01  -2.5871565e-01   8.5222532e-01   6.5495597e-02  -9.7307647e-02  -8.8375633e-01   9.4252130e-01   5.6353664e-01   7.3996757e-01  -7.2659880e-01  -1.6718880e-02  -4.3187227e-01  -9.4993667e-01  -1.1510466e-01   5.2016836e-01   9.1205489e-01   7.5382024e-01   6.6040255e-01  -8.6128450e-01  -3.4531806e-01  -8.4504999e-01   3.4757025e-01   9.4985013e-01  -9.3652488e-01  -5.7858141e-01   3.9318824e-01   9.3944545e-01  -9.9864418e-01  -3.3134047e-01  -7.3530501e-01   2.1432280e-02   6.3063046e-01   6.0973863e-01   1.7867841e-01   4.7332535e-01   2.8920535e-01  -9.5023191e-01   9.9143710e-01  -3.0764543e-01  -9.6705309e-01   1.1528982e-01  -1.7823259e-01  -4.0764103e-01  -2.5541495e-01  -2.4760141e-02  -1.7064875e-01   8.0333135e-01   1.1937730e-01   3.0189993e-01   8.1063225e-02   2.2502578e-01   7.3036618e-02  -1.0466195e-01  -7.0265915e-01   1.3659129e-01   6.8168758e-01  -4.4946588e-01  -2.9385484e-01   8.4965228e-01   3.4578691e-01   9.5262979e-01   8.5489313e-01  -2.6656050e-01  -1.8123192e-01   6.3481554e-01  -2.1189396e-02  -1.9395426e-01  -5.6458791e-01  -2.0806440e-01   8.9665364e-01  -4.8989693e-01   2.9464319e-01   6.6377764e-01  -1.5713930e-01  -5.8410254e-01  -6.0160766e-01  -6.3432087e-01   2.6037736e-01   3.3921232e-01   2.2855881e-01  -1.7404919e-01  -3.1384489e-01   7.2986783e-01   2.6940717e-01  -1.3041115e-01   5.5563385e-01   3.1239640e-02   7.8833800e-01  -1.4024975e-01  -7.2247404e-02  -6.7432446e-01  -4.9752739e-01   5.1106357e-01  -4.8313430e-02  -7.9145506e-01  -4.7415286e-01   4.9195687e-01   4.8503543e-01   2.8862591e-01   8.9791216e-01  -4.1263264e-01   8.8120794e-01   7.2800510e-02  -8.3678064e-01  -2.8235222e-01   6.6928372e-01   6.1966409e-01  -7.0589015e-01   4.0786524e-01   7.0244893e-01  -9.6612531e-01   4.3443086e-01  -9.3987115e-01   2.1623378e-01  -6.4575715e-01  -5.6899848e-01   4.6671973e-01  -7.7627549e-01   1.3413814e-03   2.2052971e-02  -6.0314968e-01   1.2642003e-01  -4.5221293e-01  -4.0028632e-01   3.1299658e-01  -5.9472497e-01  -2.2344481e-01   7.6224186e-01  -3.6929535e-01   7.6355272e-01   8.7002274e-01  -4.9477657e-01   8.9729677e-01  -3.3283244e-01   7.5199244e-01   1.5519029e-01  -4.2312374e-02  -8.0071788e-01  -3.3757439e-01   4.2052703e-01  -5.1216577e-01  -3.3076656e-01   5.2833219e-01   5.6604614e-01   7.9074778e-01   1.5339503e-01   5.3044589e-01   5.6570479e-01   9.3332311e-01  -8.2801250e-01  -2.6317262e-01  -2.2697349e-01  -1.8235815e-01   1.4226535e-01  -3.0031174e-01   6.2448123e-01  -9.0549651e-01   3.3139664e-02  -9.5383707e-01   3.8629671e-02   9.6032466e-01  -4.3370494e-02   6.9118549e-01   6.2086598e-01  -3.7014717e-01   4.6021251e-01   1.8662936e-01  -7.6428600e-01  -2.9223567e-01   1.7777814e-01   9.7638696e-01  -8.1388656e-01  -5.4741194e-01   6.1373852e-01  -4.1939289e-01   6.3867509e-01  -8.4967940e-01  -6.9837807e-01   4.4697965e-01  -6.6599194e-01  -3.9913262e-01  -4.3256788e-01   2.8351110e-01   7.2458054e-01  -5.9862880e-01   5.6779553e-01   3.1497446e-01  -4.4730641e-01  -4.9984720e-02   4.5135072e-01  -8.4138917e-01   5.8662911e-01   2.1889379e-01  -2.8254873e-01   8.0232633e-02   2.3858953e-01  -3.0558766e-01   3.2185517e-01  -6.5277356e-01  -7.8415454e-01   8.9792364e-01   3.4844664e-01  -6.3680893e-02  -8.2841536e-01  -6.3291494e-01  -9.9954376e-01  -5.9191921e-01   2.1234774e-01  -8.5530886e-01  -4.7836947e-01   4.4043085e-01   6.7318859e-01  -1.5518903e-01   7.1086800e-01   7.6999029e-01   7.7799919e-01  -2.6728233e-02  -4.8563171e-01  -3.3823627e-01   7.9099750e-02  -4.4667602e-01  -9.1200082e-01  -9.5979128e-01  -8.1881165e-01  -6.3418617e-01  -7.8328971e-01  -4.3468629e-02  -7.6535815e-01  -7.0938205e-01  -7.9725861e-01  -6.3332383e-01  -2.8604567e-02   1.7496951e-01  -2.1498769e-01  -8.0359874e-01  -3.2904074e-01   5.1051447e-02   3.2453199e-01   5.0948003e-01   6.5221152e-01   6.7632892e-01   1.3955929e-01  -1.4852212e-01   9.0284292e-01  -9.7565858e-01  -2.4879717e-01   3.4179475e-01  -1.7063748e-01   9.2402668e-01   7.8411001e-01   1.4158097e-02   3.1630228e-01  -5.4364539e-01   5.5534586e-01  -9.8840702e-01  -2.4934033e-01   6.3056825e-01  -9.5017383e-01  -6.1153232e-01   4.3682281e-02   4.8343489e-01   4.4023711e-01   7.7307104e-02   2.7424390e-01  -6.0819565e-01   7.4713281e-01  -2.3382508e-01   4.4870987e-01   1.8927434e-01   9.6325892e-01  -1.1814175e-02   7.8832066e-01   6.7508756e-01   5.2877670e-01   3.7083848e-01   1.7377587e-01  -2.0135788e-02  -9.1650125e-01  -4.1310224e-01   6.1191112e-01   3.3937141e-02  -7.3123041e-01   1.9484136e-01  -9.1532514e-01  -1.7346914e-01  -3.2461052e-01   3.8518628e-01  -6.6244408e-01  -9.1491994e-01  -9.0467194e-01   8.9016432e-01   9.4899661e-01  -2.2142050e-01  -9.3901233e-01   2.2228492e-01  -7.3024207e-01   5.8048726e-01   7.8960396e-02   1.7730797e-02   2.1826032e-01   6.2375695e-01  -5.2056459e-01   3.8813513e-01  -7.8275969e-01  -7.1732319e-01  -9.8646595e-01  -7.0643874e-01  -9.2740451e-01  -6.1698704e-01   2.6347040e-01  -2.2381874e-01  -3.1222228e-01   6.2877281e-01   9.4920463e-01   7.2387806e-01   3.8194787e-01   7.7043934e-01   2.7805524e-01  -7.9520602e-01  -2.1711633e-01  -4.7281834e-01  -6.6150001e-01  -9.2384763e-01   4.5730531e-01   7.6263736e-01   8.1483269e-01   8.6867295e-01  -3.0990986e-02  -4.4946942e-01   6.7315081e-01   3.3357428e-02  -9.4705819e-02  -1.3581969e-01  -8.0293928e-01   2.3464008e-01   8.1997036e-01   2.9445551e-02   1.1020046e-01   9.6732691e-01  -9.1081122e-01  -3.9595966e-01  -9.9577606e-02   4.9394234e-01   2.0860619e-01  -2.7916898e-02   7.7798842e-01  -9.7497346e-01   6.7174093e-01  -4.4758388e-01  -7.2386195e-01   9.0951195e-01  -1.4237294e-01  -4.2280396e-02   3.8959216e-01   8.4012796e-01   1.5198032e-01   8.4924237e-01  -9.2512960e-01   9.0927786e-01  -7.0487706e-01  -6.3955816e-02   6.2895315e-01  -5.4330601e-01  -3.5582611e-01   3.6944276e-01   5.2479128e-01   7.2968985e-01   8.1260031e-01  -1.5470614e-01  -7.3404672e-01   9.7422830e-01   5.7588298e-01  -4.1208103e-01   5.2186357e-01   6.2093564e-01  -6.6919261e-01   5.3723100e-01  -6.5766507e-01   8.7278728e-01   6.9703772e-01   5.7900057e-01   4.2642287e-01  -3.3400098e-01  -6.6694552e-02  -4.3749803e-01  -8.3146670e-01   9.7680341e-02   5.2435470e-01   4.4284671e-01   8.0680867e-01  -9.2015719e-01  -4.7830085e-01   8.9822924e-01  -2.5590269e-01   1.6926163e-01  -8.3170159e-01  -1.2581935e-01  -1.3262778e-01  -5.4466854e-01  -6.6517125e-01  -6.4491220e-01  -4.7731898e-01  -9.7559333e-01   1.4495512e-01  -8.2725186e-01  -6.3374063e-01  -4.1213738e-01  -6.0893001e-01  -1.8444217e-01  -8.4231835e-01  -5.8260267e-01  -9.4491042e-01  -2.3215390e-01  -9.9817430e-01   4.4518444e-01   5.8572173e-01  -2.6342671e-01  -3.4569892e-01   2.9975962e-01  -7.4675893e-01  -5.1756549e-01   1.7203793e-02   9.4985210e-01  -3.5911999e-01   5.8483072e-01  -7.7758291e-01   1.5814412e-01  -6.1864001e-01  -6.8568729e-01   8.4859092e-01   7.7574839e-01   7.6911271e-01  -9.9482743e-01  -9.6004199e-01   4.9353047e-01   2.4943496e-01   3.0318925e-01   3.0763270e-01  -9.2127953e-01   4.1856213e-01   8.8498137e-01   9.7040210e-01  -8.3908868e-01   8.2411156e-01  -1.8401814e-01  -9.2712523e-01  -8.6900255e-01   4.3677012e-01  -4.0457207e-01  -2.6396347e-01   2.8125292e-01  -2.4625591e-01  -2.1362865e-01   7.0175004e-01   3.6556286e-01   9.3524013e-01   5.8141932e-02  -2.1861523e-02   1.2096177e-02   9.9291754e-01   8.5714946e-01  -1.0213923e-01   9.8432479e-01  -7.3980737e-01   8.1868835e-01  -1.4792737e-01  -8.7142502e-01   4.4857523e-01  -5.7390701e-01  -3.1005498e-01  -8.0784874e-01  -2.3589900e-01   5.4893596e-01  -4.7827743e-01  -4.1775684e-01  -6.2539611e-01  -3.3584195e-01   9.8998487e-01   9.0613209e-01   7.1814913e-01   3.2656949e-01  -6.0976196e-01  -6.4163214e-01  -5.4520364e-01  -9.8309252e-03   4.6262477e-01   9.7108179e-02  -6.8487710e-01   2.5197866e-01  -9.4517472e-01  -3.2240796e-01   3.9085736e-01   3.2156225e-03   5.9200040e-01   1.5952038e-02   2.1980274e-01   2.8368458e-01  -2.2426906e-01   9.6792236e-01   7.4703232e-01  -7.7402924e-01   3.7203958e-02   5.9996535e-01  -8.6232728e-01  -5.4456373e-01  -7.8354334e-01  -1.8685993e-01  -5.6083400e-01  -4.0897095e-01  -4.2747093e-01  -8.0078958e-01  -7.9760075e-01  -4.2817254e-01  -6.4692094e-01  -5.0609569e-01  -7.0931273e-01  -6.7744811e-01  -4.8419749e-01   1.8641338e-01   5.6706880e-01   9.3745135e-01   5.3184290e-01  -7.3511419e-01  -4.6540503e-01  -1.6002269e-01   2.7033529e-01   1.7422059e-01   5.6371987e-01   9.6169444e-01   3.1527574e-01  -6.6481581e-01  -3.4693606e-01   7.4125672e-01   8.6625154e-01   7.3433734e-01   4.2367866e-01  -1.4696433e-01  -1.6367331e-01   1.1637895e-01   1.9801287e-02  -8.2674867e-01  -1.7238008e-02   8.7515630e-02   7.2051480e-01   9.8706126e-01   7.1312082e-01   8.9531261e-01   1.8077285e-01  -9.2083561e-01  -8.8247338e-02   8.1148717e-01  -3.2066154e-02  -3.0483624e-01  -8.9959128e-01  -6.1193365e-01   2.5529296e-01  -3.9548212e-02  -3.1892638e-01   9.9276762e-01  -6.8663532e-02   7.9410822e-01   2.6405926e-03  -8.5045737e-01  -2.4554960e-01   2.2186186e-01   1.7483364e-01   7.9630952e-01  -7.3169612e-01  -8.3281485e-01   5.3541452e-01  -3.3936170e-01  -5.8141654e-01  -4.4983275e-01   8.1150562e-01   3.3561417e-01   9.6250713e-01   5.3015394e-01  -8.1596847e-01   9.9148209e-01   2.8929947e-01  -4.7547722e-01   9.1291533e-02   1.5383328e-01  -3.4719400e-01   5.5953556e-01  -8.7342489e-01  -8.7634385e-01  -2.2462069e-01  -9.4099985e-01  -4.5537746e-01   2.2318866e-01  -3.9493851e-01   2.6494483e-01   4.7459305e-02   9.5090589e-01  -2.8765154e-01   5.9011710e-01   2.6407912e-01  -2.9404083e-01  -4.4490208e-01   4.2964869e-01   1.5208602e-01   1.6918954e-01   9.8766086e-01  -7.2559650e-01  -9.7840318e-02  -5.6869127e-01   3.1917535e-01  -1.5398687e-02  -5.9096040e-01   5.0238619e-01  -3.9225227e-01   8.5876239e-01  -7.9132138e-01  -2.1084087e-02   8.8262022e-01   4.7228321e-01  -8.9310062e-01  -2.8592982e-01  -2.7065666e-01   1.8602968e-01  -2.5583908e-01   1.4182132e-01  -7.4716513e-02   8.6511742e-01  -4.8120872e-01  -3.9581749e-01   4.2096581e-01   3.0057742e-02   6.3675337e-01   3.5627768e-01   1.2445685e-01  -8.4477661e-01   5.7911473e-01  -1.4635020e-01  -5.2860368e-01  -8.0726635e-01  -7.0441740e-01   7.3530803e-01   4.5467053e-01  -8.5902997e-02   2.2291628e-02   8.6300829e-01   1.4770863e-01  -2.1685022e-01   7.8577598e-01   8.4924701e-01   8.6059016e-01  -3.6263781e-02  -1.9822116e-01  -7.7871019e-01  -8.3939218e-01  -9.2159598e-01  -7.4528390e-01  -7.0175244e-02  -7.7170774e-01  -2.4279217e-01   6.5812114e-01   9.1026318e-01  -5.8170747e-01  -8.7719070e-01  -7.8885678e-01  -7.6646942e-01   1.9193141e-01   1.2952661e-03  -1.4844696e-01  -6.4068571e-01  -1.0008446e-01  -2.2877188e-01   2.2289236e-01  -8.2851269e-01   9.1372434e-01   1.6608830e-02   8.2700739e-01   4.7670947e-01  -2.7381658e-01  -9.2883067e-01  -9.4647903e-01  -4.1110512e-01  -4.3290124e-01  -4.5886224e-01  -1.8433872e-01   4.5540966e-02  -5.8932872e-01   2.1641073e-01  -3.2545811e-01  -8.2760704e-01   1.9174174e-01  -5.7205515e-02  -7.7206934e-01  -1.9040811e-01  -7.2823190e-02  -2.7295007e-01  -9.1987686e-01   5.4320826e-01   6.6255359e-01   8.8753662e-01  -4.4082342e-01  -7.8533080e-01   1.3379620e-02  -2.5112543e-01   3.2134913e-04  -9.6920605e-01   9.8778890e-01   6.7908458e-01  -4.0071893e-01   6.9220635e-01  -6.6949659e-01   1.9272503e-01   6.5990243e-01  -6.3721518e-01   8.9829898e-01  -1.3617690e-01  -3.8989560e-01   9.8133542e-01  -4.5222485e-02   6.0391764e-01   7.2708684e-01   3.8770162e-01   7.9267868e-02  -8.6171222e-01  -7.0370866e-01   1.5887969e-01  -8.5585240e-02   7.3240151e-01   8.8195738e-03  -6.0290820e-01   3.0600197e-01   2.1034268e-01   8.6123610e-01   7.1497240e-01   6.3455097e-01   1.7373731e-01   9.1959138e-01   7.7144406e-01  -4.1364514e-01  -9.6136211e-01  -2.2916389e-01  -9.4071794e-01  -9.4185700e-01   4.2704298e-01   9.3992343e-01  -9.0295297e-01   1.4866753e-01  -6.3191831e-01   9.1824896e-01   6.0443202e-01   4.3788435e-02   7.3801990e-01   8.2170265e-01  -2.5094806e-01   1.0001085e-01  -9.2378739e-01  -2.5901668e-01   1.7965967e-01  -9.3387089e-01   5.9562898e-01   2.7737999e-01  -6.2052324e-01  -2.1444154e-01
   6.5334824e-01   9.1581996e-01   2.3484050e-02   3.7987317e-02  -5.1015637e-01  -2.8401677e-01   4.1748639e-01  -5.3306393e-01  -5.6865942e-01   7.6725741e-01  -1.0220915e-01  -3.0511218e-01   2.1693800e-01   8.4015947e-01   8.1532163e-01  -1.3851753e-02   4.6888702e-01   2.4050287e-01  -3.6164305e-01   5.0798920e-01   8.5431811e-01  -3.0259469e-01   3.9747240e-01  -6.2792851e-01   5.3284868e-01  -7.3805620e-01   9.7946742e-01   3.3023585e-01   7.7739147e-01  -6.0808683e-01  -6.6506495e-01  -6.0093168e-01  -3.9774526e-02  -8.6450065e-01   8.3109408e-01   9.8487366e-01   4.4511571e-01  -2.9130750e-01   8.6579958e-01  -9.2016144e-01  -3.5914441e-01  -5.4669386e-01  -4.3386221e-01  -3.6149878e-02   8.9419829e-01   3.6785744e-01  -1.3241882e-01   1.7992794e-01   4.9340799e-02  -6.1596740e-01  -8.7996586e-01  -7.5897758e-01   8.5342860e-01  -2.4321325e-01  -6.9722998e-01  -9.6272426e-01  -3.6957570e-01  -3.2353352e-01  -7.0970285e-01   3.5706966e-01  -9.8151280e-01   9.0526087e-01   8.0785370e-01   9.8603031e-01   8.0027201e-01  -2.6062578e-01  -1.4715402e-01   8.8419433e-01  -7.6225283e-01   5.6802045e-01   3.6907402e-01   6.1184769e-02   1.3368207e-01  -3.6167310e-01   6.8754413e-01   8.5671443e-02   6.9624856e-01  -1.9528934e-01   7.7581166e-01  -7.1916832e-01   8.5822367e-01  -5.6827986e-01  -3.1645596e-01  -4.2588728e-01  -6.0977024e-01  -2.5437390e-01  -6.9120075e-02  -4.9738187e-01  -4.1342238e-01  -7.1820458e-02   8.7530011e-01   9.7046560e-01  -6.3772945e-01   9.3655757e-01   5.5348866e-01  -4.8330227e-01   4.8965138e-01  -8.4078080e-01   9.4459819e-01   1.5985661e-01  -7.7791614e-01   2.2677557e-02   2.8678832e-01   8.7173535e-01  -3.6008337e-01  -6.7793643e-01   2.8807884e-02   8.9827463e-01  -5.4831038e-01   9.5389057e-01   7.0382431e-02   4.2932997e-01  -4.5294687e-01  -9.8688805e-01   7.4496168e-01   4.3073549e-01   7.7454153e-02   5.7021066e-01  -5.3737018e-01   6.9421738e-01   6.1236650e-01   4.8422768e-01   5.3819399e-01  -3.1860514e-01   8.4238769e-01  -6.7371215e-01  -8.3415270e-01  -5.0544283e-01  -4.8324959e-01   9.2471125e-01  -2.4100457e-01   9.6149186e-01   8.3711842e-01   3.8580879e-01  -3.0867581e-01  -1.7992555e-01   5.5864646e-01   1.1958019e-01   4.6575277e-01   6.4753135e-01  -5.2800281e-01   7.1231442e-01  -6.7774252e-01  -9.2230233e-01   5.4434385e-02   8.8090768e-01  -5.6119715e-01   2.2008179e-01   2.7505419e-01  -7.4847258e-01  -3.1797603e-01  -6.0549007e-02  -6.3406537e-01   3.2590039e-01  -7.7237731e-01  -2.1745540e-01  -6.4492984e-01   3.1907381e-01   6.6811054e-01   8.9438012e-01  -2.2525545e-01  -1.2097448e-01  -9.0831017e-01  -1.1262536e-01  -2.7586480e-01   7.3513156e-01   1.1567367e-02   2.6429561e-01  -3.7466219e-01  -7.9221195e-01  -8.3426600e-01   8.7204329e-01   1.9793925e-01  -7.0912571e-01  -1.4358471e-01  -8.6029631e-02  -8.8919651e-01   5.4532926e-01   8.5950447e-01   4.4901696e-01   8.8313617e-01  -2.8255167e-01   6.3545117e-01  -1.6898140e-01  -4.4780919e-02   1.8663854e-01   3.2304394e-01  -8.4698713e-01   6.5780775e-01  -9.8497387e-01  -6.3275568e-01  -8.3739684e-01  -6.3899760e-02  -4.6418239e-01  -8.8291501e-01  -8.8429647e-01  -5.2135756e-01   6.2057707e-01   8.5138507e-01  -6.1199069e-01   2.1391194e-01   1.2867207e-01  -3.5898192e-01  -3.5361104e-01  -4.0086801e-01   3.9807084e-01  -3.4247619e-01  -2.2330575e-01   3.0376021e-01  -7.1091921e-01  -7.0430172e-01   3.7055679e-01  -5.9373858e-01   5.6854648e-01  -2.0300950e-01  -2.1774970e-01   1.1085867e-01  -3.8672476e-01   7.5416186e-02   9.3786699e-01   9.8361215e-01   3.6467840e-01   3.3823462e-01   1.9356798e-01  -9.0315847e-01   3.0809901e-02  -1.6787703e-01  -3.3351166e-01   4.5454231e-02   5.8626903e-02   1.5457872e-01  -9.0462710e-01  -2.2743684e-01   1.7673011e-01   5.7573107e-01  -3.3906296e-01   9.7904888e-01   4.7980876e-01   7.1174365e-01   5.3653789e-01  -8.5612636e-01  -7.9121705e-01   9.2700856e-01  -1.2250030e-02   5.6608604e-01   9.2489541e-01   9.1165137e-01  -3.9753625e-01   9.1520286e-01   5.1051962e-01  -5.9670985e-01   6.5704374e-02  -9.5636855e-02   6.7605844e-01  -5.3255385e-02   5.0856960e-01   9.6525692e-01   3.1212780e-01   8.4804133e-03  -6.4024468e-01   1.8786777e-01  -9.3610411e-01   5.8837569e-01   2.6181068e-01   4.8076531e-01   7.9043090e-01  -2.7965791e-01   5.4701048e-01   7.4761439e-01   5.8854456e-01   4.2599801e-01   2.9595385e-01  -8.9068668e-01  -3.9630633e-01  -4.6849182e-01   3.6020204e-01  -7.9969660e-01   7.8943885e-01  -6.7999573e-01  -3.9343594e-01  -5.7493100e-01   7.9775009e-01  -1.9468944e-01  -4.6264222e-01   3.9483913e-01  -4.6427037e-01  -9.4429400e-01   7.3485573e-01   7.5667967e-01   9.0867108e-01   4.9402977e-01   5.9448469e-02  -1.2595570e-01   7.5280833e-01  -4.9868502e-01  -4.8989225e-01   1.7763347e-01  -2.8101335e-01  -7.2821566e-01  -6.3058914e-01   2.5170869e-01  -5.0217144e-01  -5.6186276e-01   1.4042332e-01  -7.0211648e-04  -9.8958758e-01   5.0700942e-01   8.2915646e-01  -7.4413148e-01  -8.6065783e-01  -5.0256928e-01  -9.1102792e-01  -6.0337764e-01  -7.0666500e-01  -5.9803811e-01  -8.4614931e-01   6.9360817e-01  -6.9617650e-02  -5.9440805e-03   4.1195039e-02   1.3650266e-02  -2.1299063e-01   2.9804900e-01  -5.7008005e-01   3.6952875e-01   1.8517669e-01  -8.7853785e-01  -5.2127196e-01   1.4460418e-03  -4.7357183e-01  -3.1100677e-01   9.8615355e-01   6.1137866e-01  -7.7615631e-01  -8.3227170e-01   4.0922719e-01  -4.6057804e-01   6.5940913e-02  -8.9390341e-01   9.1688825e-02   3.0603463e-01   2.8660096e-01   5.1000156e-01   4.8413173e-01  -8.8236894e-01   5.2844670e-01   7.0374857e-01   4.9359747e-01  -1.3705104e-01   2.4540041e-01   8.2031721e-01  -2.4033630e-01  -3.9329522e-01  -3.3310936e-01  -2.8168847e-01  -4.9008424e-01   5.5081780e-01   2.9270517e-01   4.2894753e-01   3.9520868e-01  -4.1610356e-01   8.1727416e-01  -5.9865099e-01  -2.4924349e-01   1.9526418e-01   3.1725984e-01  -9.5568342e-01  -5.1282331e-01   9.9569890e-01   4.7278086e-01   5.8770216e-01   1.1617538e-01  -5.5677470e-01  -6.5726655e-01   4.3395304e-01  -9.0392357e-01  -1.4908323e-01   4.1778928e-01  -2.8669909e-01   7.1540882e-01  -8.9231633e-01  -7.8634457e-01  -3.5737776e-01  -8.3877574e-01   1.1195214e-01  -3.6949911e-01   9.4801260e-01  -7.5373416e-01   1.5008893e-02   8.6619176e-01  -7.6561014e-01   8.1796215e-01   3.8295294e-01   8.8647934e-01   3.5405528e-01  -1.5561826e-01  -8.2617232e-01  -8.2249031e-01  -8.0956150e-01   9.7086066e-01  -7.4652524e-01  -2.7622637e-02  -7.3991722e-01  -9.2193786e-01   5.4333895e-01  -5.2650692e-01  -9.1518344e-01   5.2453340e-01  -8.1181159e-01   4.0220379e-01  -4.7500993e-01   3.2554281e-01  -6.9723045e-01  -1.9220729e-01  -4.6529807e-01  -1.2902801e-01   8.1901431e-01  -4.0084370e-01  -5.6021013e-01  -9.8220161e-01   4.6590644e-01   1.2034557e-01   1.1695087e-01   2.1441085e-01   4.7102531e-01  -2.3211908e-01   5.5025921e-01  -4.2086828e-01  -9.1346407e-01  -8.2499545e-02  -2.6184395e-01   5.3506365e-01  -9.8868985e-01   7.2410173e-01   8.1883438e-01   8.8221340e-02   2.2449653e-01  -2.4652937e-01   8.8565467e-01   8.6740637e-02  -9.1150554e-01  -3.0133379e-01  -4.7532773e-01   7.7876849e-01   5.0357061e-01   4.6855483e-01   2.3444738e-01  -1.1022347e-01   1.7789507e-01   8.0281187e-01  -2.5555862e-01  -4.7970891e-01  -2.3244678e-01   8.4678827e-01   9.7220277e-01   5.4692016e-01   1.9791189e-01  -1.2349225e-01   3.2070315e-01   8.7487303e-01  -8.5517089e-01   8.2312048e-01   2.1504039e-01  -4.8082182e-01  -7.5550788e-01   9.1998051e-01   4.0815637e-01   5.8662137e-01  -3.4970612e-02  -7.6953584e-01  -4.6279850e-01  -3.3939075e-01   4.4259295e-01   4.5343044e-01   6.7466324e-01   7.0192301e-01  -1.0869856e-01  -6.0636671e-01  -9.3127382e-01   6.3051761e-02  -6.1885874e-01  -2.2700548e-01   9.0717964e-01   4.0390783e-01   9.6284041e-01  -6.6839352e-01  -8.9749924e-01   7.4286249e-02  -1.4104957e-01  -9.7462891e-01  -8.7457882e-01   5.1346795e-01  -8.0945791e-01  -1.3033255e-02  -5.0612321e-01  -5.1789890e-01  -3.9821527e-01  -8.1541528e-01  -6.7920818e-01   5.8339884e-01   5.8382386e-01   1.1499984e-01   9.2250069e-01  -6.6847965e-01   7.6257879e-01   4.0289400e-01  -6.3866949e-01  -4.9388904e-01   2.2434275e-01  -1.6612566e-01  -3.5599267e-01   4.7066052e-01  -7.4728312e-01  -5.4847097e-01  -8.1974386e-01  -1.8950537e-01   8.0141208e-01   9.0983283e-01  -7.3814579e-01  -7.6464110e-01   8.5925389e-01  -3.3281092e-01  -4.3569863e-01  -9.7856120e-01   8.9561035e-01   4.1731015e-01   3.8578346e-02   5.6840227e-01  -5.6072327e-01  -3.7123927e-01   6.5079847e-01   6.5781650e-01   2.9832512e-01  -3.5575009e-01   6.0273621e-01  -4.7258382e-01   3.3355791e-01  -3.1129720e-01  -6.8485382e-01   7.7117666e-01   2.4464444e-01  -9.6644839e-01   3.1652505e-01  -1.9815356e-01  -6.9834991e-01   7.9619344e-01  -1.5762213e-01   4.4080535e-01  -3.4978460e-01  -8.1881343e-01   8.3616166e-01  -6.5779759e-01   7.5553472e-01  -5.2543673e-01  -8.3979819e-01   8.5456982e-01  -1.9174575e-01   5.0291672e-01  -3.6763437e-01  -9.6155965e-01   2.6485825e-02  -4.1827641e-01  -8.0231002e-01   8.8046693e-01   6.4361807e-01   8.0563137e-01  -5.2016568e-01   6.3694697e-01   8.2155766e-01  -4.1034969e-01  -3.8483520e-01  -7.8472846e-01   4.5576838e-01  -1.3317028e-01   2.1446676e-01  -5.7921640e-01   9.5836964e-02   6.3115185e-01  -6.1399504e-01   1.5193022e-01   9.4831799e-01  -7.0492621e-01  -6.2947096e-01   3.9282748e-01   8.7303002e-01  -7.6721234e-02  -6.4876856e-01   3.6734380e-01  -3.4481491e-02  -7.2029683e-01   7.2997968e-01  -2.8760297e-01   3.0532104e-01  -1.1477524e-01   9.9119600e-01  -1.6650246e-01   8.2084963e-01   7.0342862e-01   5.5622626e-01  -7.0190289e-01  -4.1660404e-01   2.2166946e-01   4.2620922e-01   4.9724728e-01  -2.2195510e-01   2.0345808e-01   6.6054604e-01  -4.3443973e-01  -3.3995203e-01  -6.1628218e-01  -3.0700444e-01   6.8910613e-01  -3.4341800e-03  -9.3360521e-01   8.3734296e-01   2.0746877e-01  -4.9119329e-01   3.7009714e-01  -8.3366565e-01   8.3586063e-01   2.1929773e-01  -8.8408086e-01  -7.3293365e-01   2.1657674e-01   9.1930018e-01   2.9919378e-01  -6.2198528e-01  -8.4691235e-01   4.9130078e-01  -5.8694318e-01  -6.8378783e-01   4.2414649e-01   7.6447332e-01   9.9989273e-01   8.8497980e-02   6.5264106e-01   8.6563047e-01   2.4197274e-01   1.5659936e-01  -5.2872078e-01  -9.8571941e-01  -6.3291378e-01  -4.8578624e-03  -4.9683668e-01   6.7145413e-01  -7.6167107e-01  -7.6473118e-01  -2.8123757e-01  -8.4056989e-01  -3.3113660e-01   6.9411344e-01  -5.6768305e-01   5.0671658e-01   8.2973826e-01  -4.1501407e-01  -8.0156106e-01  -8.4673595e-01   4.9574520e-01   3.5577294e-01   8.8292487e-01   2.7341118e-01  -2.8536847e-01   7.9433425e-01  -5.9973646e-01   1.1720970e-02  -9.9684216e-01   6.8369549e-01  -2.8908774e-01   2.5266128e-01  -9.0187880e-01  -3.9972013e-01  -7.8566003e-02  -9.4159883e-01   4.7055415e-01  -5.4932622e-01  -1.4439751e-03   4.0049626e-01  -6.1071117e-01   2.7142399e-01  -7.1241183e-01  -2.0326998e-03  -9.3770892e-01   9.6849822e-01  -9.0878062e-01  -1.3964487e-01   6.7254885e-01  -1.6515575e-01  -2.5161633e-01  -1.7857018e-01  -7.6442345e-01   1.4245475e-01  -7.3765078e-01  -8.9772705e-01  -5.9241639e-01   8.4370491e-01   9.3207154e-01   9.0362118e-02   9.7551754e-01   2.8639216e-01   4.1955942e-02   7.4528103e-01   3.8122770e-01  -1.2178734e-01   6.9788800e-02   4.2119638e-01  -1.4954372e-01  -2.0835687e-01   5.8125772e-01  -9.8957866e-01  -1.1822259e-01   2.0410120e-01  -1.8419175e-01  -1.1584472e-01  -6.1957822e-01   5.0297653e-01  -5.9175376e-01  -2.6229616e-01  -3.8303697e-01  -9.2719917e-01  -9.9152561e-01  -2.9002082e-01   4.5177050e-01  -2.7730351e-01   5.0443930e-01   3.3765727e-01  -7.0645685e-02   6.7440961e-01   7.9778850e-01  -6.2445109e-02  -4.8257598e-01  -3.7705070e-01  -7.5740573e-01   7.1809686e-01  -2.1624791e-01   4.9394421e-01  -4.6906058e-01   6.0183688e-01   2.9982894e-01  -2.9102247e-01   8.9721291e-01  -2.1267275e-03   9.5191346e-02   3.7289786e-01   8.6293429e-01  -4.9362068e-01  -5.9019241e-01   7.4538344e-01  -7.1965804e-01  -5.8956718e-01  -9.3220641e-01  -2.5904465e-01  -3.3748523e-01   7.7189964e-01   6.0716387e-01   5.4425621e-01  -6.0360410e-02  -2.7632420e-01  -8.7370329e-01  -9.2737524e-01  -8.9562334e-01  -2.0111044e-02  -5.6520351e-01  -6.7971723e-01   1.6219674e-01  -9.4978393e-01   6.1005197e-01   2.2819923e-01   4.8446396e-01   7.0751959e-01  -7.4714691e-01   9.5459621e-01  -9.8978991e-01   3.6043772e-01   9.4785330e-01  -7.3684254e-02   9.2116719e-01   4.5004971e-02   1.7896080e-01  -9.7375719e-01  -2.4013074e-01  -4.2225186e-01   6.5473607e-01   4.9029207e-01  -6.1242917e-01  -3.3578433e-01  -4.5579050e-02  -7.4907343e-02   9.4118216e-01   5.2330554e-01  -2.5785160e-01  -9.2533490e-01  -9.4864471e-01  -2.2690420e-01   7.4063647e-01   2.7720707e-01  -7.4089049e-01  -9.8246259e-01  -9.5818403e-01  -3.2170343e-01  -9.1982551e-02  -3.5085592e-01   5.6789641e-01   6.4869897e-01   2.7927001e-01   5.6888112e-01  -5.8636598e-02   5.2028481e-02  -8.5069555e-01  -7.4885736e-01  -5.4705755e-01  -7.0463271e-01   8.4524207e-01   1.3430655e-01   3.9753704e-01  -8.5667676e-01  -1.6542811e-01  -2.8626625e-01   2.2409495e-01   8.1514853e-01   7.0388916e-01  -1.6301018e-02   9.9035765e-01   7.5850355e-01  -1.6182075e-01   8.5883557e-01  -8.9048659e-02   3.5361670e-01   8.5174918e-02  -5.3194963e-01   1.0366952e-01   7.8423689e-01  -8.1722605e-01   2.6728851e-01  -4.5747357e-01   9.0396487e-01   9.6691869e-01  -4.0894046e-01   7.6756947e-01  -8.3698683e-01  -7.8593061e-01   2.0620942e-01   1.1632958e-01   6.4974856e-01   3.8010560e-01   2.3216346e-01   9.5233263e-01  -1.7587390e-01  -3.8641962e-01  -9.1678007e-01   1.3314807e-02   4.8916317e-01   4.8848117e-01   8.7918765e-02  -9.8544522e-01   2.2169381e-01  -6.4143396e-01  -9.8471440e-01   8.8574051e-01  -5.1303174e-01   6.8961614e-01  -3.9709225e-01   5.1194398e-01  -5.3171253e-01   5.8797351e-01  -6.7238280e-01   9.7426640e-01  -1.4455266e-01   1.0196131e-01   1.7391177e-01   3.6735982e-01   9.5068911e-01   6.1761159e-01  -4.1101251e-01  -9.0486979e-01  -8.0895561e-01   5.3845129e-01   1.7467647e-01   5.5700497e-01  -9.7591891e-01  -8.9140511e-01   2.6187878e-01   5.0870836e-01   2.5045465e-01  -6.0493516e-01   9.1972230e-01  -2.2393441e-01  -2.2670016e-03  -7.3573564e-01  -1.7278279e-01  -8.3574777e-01   1.8347522e-02   5.1142386e-01   7.6899485e-01  -1.8130543e-01   5.9244602e-01  -1.4993588e-01   7.6005497e-01  -5.4904610e-01  -8.2651141e-01  -7.9684705e-01  -6.0979609e-01  -7.2196950e-01  -9.4471555e-01  -8.3646555e-01  -8.8416511e-01   2.4072847e-01  -3.5374382e-01   2.4677167e-01   1.2353590e-01   4.7301749e-01  -8.4589530e-01   7.8355953e-01  -4.0118234e-01   4.5731578e-01   6.0111307e-01   3.4702872e-01  -6.8992261e-01   2.6519402e-01  -3.2339987e-01   8.1002195e-01  -8.3979468e-01   2.0289365e-01   1.6633859e-01  -4.3786601e-01  -4.5950177e-01  -1.5729508e-01  -2.0219637e-01  -1.0593834e-01   1.6643782e-01   6.2968370e-01  -9.5611982e-01  -3.1223353e-01  -3.3394484e-01  -6.1192139e-01  -9.3929602e-01   3.0344967e-01   6.4551189e-01  -1.5481798e-01  -1.1003648e-01  -3.8985655e-01  -6.0754864e-01   4.8275331e-01  -1.2399271e-01   5.0122604e-01  -8.2890928e-01   1.8784759e-01  -8.0285534e-01   4.9494182e-01  -2.9336728e-01   7.3246240e-02   9.2421390e-01   7.8654804e-01  -5.1669740e-01   7.9228122e-01  -4.0923431e-02  -2.2637314e-01   1.8331172e-01   4.0023671e-01  -3.7817439e-03   6.9756070e-01  -9.5512858e-02   9.0947919e-01  -3.0159088e-01   6.7949825e-01  -3.1984723e-01   5.5176452e-01   6.4422976e-01  -6.6042232e-01  -7.9025012e-01   4.3192907e-01  -8.9475377e-01   9.6452036e-01  -4.1458758e-01   8.3368747e-01   8.9421471e-01   5.8444593e-02  -3.0131731e-01  -3.9003009e-01   7.8930340e-01  -7.7422412e-01   6.0985561e-02  -9.2409398e-01  -3.4032977e-01   6.1588108e-01   4.7155319e-01   2.7031242e-01   8.7519655e-04  -3.2626748e-01  -1.3164342e-01   2.6855867e-01  -6.1905110e-01  -4.9959089e-01   8.3847523e-01  -3.0099300e-01   9.1528996e-01  -9.0467551e-02   6.2225683e-02   9.8931457e-02  -9.7825937e-01   8.2822395e-01
   6.0888388e-01  -2.5658325e-01   6.7062009e-01   3.4213417e-01   3.0144293e-02   5.9361772e-02   6.1861330e-01   2.5305284e-01  -1.2985531e-01  -9.6152641e-01  -4.1887726e-02   8.0127301e-01   1.8340604e-01  -4.0368612e-01   1.3420864e-01  -4.5716165e-01   3.2515636e-02   9.4697719e-01   7.1756912e-01   5.4841437e-01  -2.5201413e-01   5.1595131e-01   7.3703903e-01   2.4358741e-01  -7.8247593e-01   6.7979836e-01   1.9171691e-02   9.3921358e-01  -9.9686196e-02  -4.3444797e-01  -8.6950639e-01  -3.9312612e-01  -7.9464594e-01  -9.6680090e-01   9.2489539e-01  -3.9815184e-01  -6.9724677e-01  -7.4497953e-01   4.6955218e-01   6.1993935e-01   5.1423770e-01   5.6805761e-01  -6.1771041e-01  -2.2034015e-01   1.6544087e-01  -7.5647237e-01   8.4141750e-01   9.1362955e-01  -3.8489584e-01   8.1802225e-01  -7.8514643e-01   1.7573092e-01   5.7730549e-01  -8.0123321e-01  -8.7456970e-01  -6.6462931e-01   1.1177453e-01   7.6028630e-01  -5.4853768e-01   5.2131046e-01  -4.7495570e-01  -9.3119585e-01  -7.4206231e-01  -1.2796189e-01   3.5685169e-01  -1.9596710e-01  -6.4314517e-01  -8.4801846e-01   5.3995785e-01  -8.9556844e-01   3.4584553e-01  -5.7986950e-01   3.7919617e-01  -1.3241744e-01   9.3517950e-01  -5.5579611e-01  -1.1346565e-01  -6.2429811e-01   4.7488327e-01   3.9756017e-03  -8.4109371e-02   7.4924562e-01   6.9842727e-01  -6.6442185e-01  -6.7743270e-01  -5.0012071e-01  -9.2167108e-02   2.0219881e-01  -1.8105210e-01  -6.5318355e-01  -1.7266068e-01  -6.8317861e-01   9.0014943e-01  -6.7285894e-01   5.4985912e-01  -1.6295313e-01  -1.3966809e-01  -5.4567742e-01  -6.1749050e-01   6.4586046e-01   9.5004546e-01   9.8868176e-01   4.2464777e-01  -4.7553575e-01   3.0806081e-01   7.7147056e-01  -7.0539470e-01   6.2932709e-01   9.9471635e-01  -8.4612762e-01   4.6892614e-01  -1.0556732e-01  -8.7143408e-02  -1.5028954e-01  -1.2333022e-01  -4.8493308e-01   4.7385436e-01  -9.9468206e-02  -5.2631997e-02   5.1291067e-01   9.2698101e-01  -2.1562142e-01  -8.9528903e-01   7.6836434e-01  -9.3808136e-01   6.9215115e-01  -6.1378164e-02   9.0173859e-01   6.7563228e-01   5.1113890e-01   2.4584692e-01   3.7134781e-01   4.6062144e-01   4.3736550e-01   7.3622735e-01  -6.7190811e-01  -9.2643820e-01  -8.5801039e-01  -6.2115668e-01  -5.2479312e-01   3.7983030e-01   7.9043448e-01   8.2123032e-01   2.3198947e-01   2.8024909e-01  -7.1033041e-01   5.0973159e-02  -5.7382122e-01   4.7598962e-01  -9.8824456e-01  -5.8989569e-01  -5.2166632e-01   8.0167105e-01  -2.5212432e-02  -4.7251865e-01  -8.5728801e-01   7.5753528e-01   9.9565780e-01   9.2901865e-01  -2.5363845e-01  -2.9535714e-01   6.7656345e-01  -7.2728361e-01   8.5646723e-01   7.5439454e-01  -6.0725333e-01   5.4359105e-01   4.2351400e-01  -1.2588933e-01   6.9392790e-01   5.4701054e-01  -4.6076841e-02   4.6111478e-01  -2.1789319e-01   4.8090126e-01   1.9989947e-01  -4.0826588e-01  -6.9227993e-01  -6.6475048e-01  -5.7412087e-01  -5.3317189e-01   6.6286744e-01   6.8156168e-02   6.9334227e-01   6.0731164e-01   3.9972587e-01  -7.1997344e-01   5.8979409e-01   3.6926861e-03   4.1036889e-01  -8.9795740e-01   3.3262390e-01   7.2767763e-02   5.5089415e-02   7.3420533e-01   3.5222235e-01  -8.3606131e-01   4.1392693e-01  -9.3430373e-01   4.2288261e-01   7.2568266e-01   5.6317721e-01   9.2026155e-01  -7.1203296e-01   9.3448826e-01   1.1121646e-01  -4.4427341e-01   3.2933192e-01   6.9611391e-01   9.6572571e-01   2.2067535e-01  -3.8792874e-01  -7.5581339e-01   9.4030659e-01  -5.2529139e-01   3.1123789e-01  -5.1798522e-01  -9.5515046e-02   9.7590127e-01  -5.1368231e-01   1.6015805e-01   3.6996970e-01   9.4261540e-01  -9.3915838e-01  -1.1472839e-01  -4.9673196e-01   7.5331852e-01  -5.1251473e-01  -6.6138140e-01   3.4003510e-01   4.2964905e-01  -5.9069877e-01   9.1679878e-01   6.8019928e-01  -5.1679218e-01   6.1202510e-01   1.6101096e-01  -5.6232668e-01   4.2380704e-01  -9.3986018e-01   7.3349184e-01   1.6825928e-01   7.9050406e-01  -9.2754141e-01  -4.3484636e-01  -2.9673227e-01   7.6607960e-01  -1.7099432e-01   1.4182123e-01  -4.4741041e-01   5.5868224e-01  -1.5104386e-01  -1.8311029e-01   5.1321256e-01  -9.3815095e-01   9.6561169e-01   6.5075270e-01   1.3010920e-01   6.8642228e-01  -6.1589864e-01   2.0124075e-01   4.6513816e-02   2.8339126e-01   4.8927877e-01  -9.2414182e-02  -9.9527995e-01   2.5101195e-01   1.6395047e-01   9.1467320e-01  -6.0145038e-01  -7.1514113e-01  -4.7259296e-01  -8.1758193e-01  -1.0025567e-01   6.4152381e-01   8.4998994e-01  -4.4080104e-01   2.3000269e-01   3.8294623e-02   4.9548407e-01  -3.2408507e-01  -7.3125295e-01  -7.3123346e-01   2.0907490e-01  -4.6840696e-01   9.1724156e-01   6.8715881e-01  -2.2488121e-01  -3.6104081e-01   1.5897848e-01  -4.2693375e-01  -5.5345943e-01  -1.0799709e-01   6.9247824e-01  -2.8791895e-01   4.4347637e-01   5.4942776e-01  -6.8482720e-01  -9.9894980e-01  -9.4890336e-01   4.8877806e-01   4.3333012e-01   6.9503138e-01   5.9683265e-01  -8.0793438e-01   6.1343756e-01  -2.0717740e-01  -4.1399637e-01  -5.5520624e-01   5.4969338e-01  -6.6337225e-01  -7.0364449e-02  -9.9491375e-01  -4.5198068e-01   1.2573382e-01  -2.4367289e-01  -4.0006301e-01  -6.4810708e-01   6.9409019e-01   1.4501570e-01  -1.0228727e-01  -3.7088578e-01   4.7139913e-02  -7.6555678e-01   6.3107027e-01   8.6332839e-01   4.4426389e-01  -1.4757925e-01   1.2883451e-01   8.3755481e-01  -4.5801149e-01   8.4032485e-01  -5.1579640e-01  -7.9612840e-01   8.0136878e-01   7.8626933e-03   3.9508612e-01   5.7063723e-01  -7.9173520e-02   7.2562530e-01  -3.4827972e-02   2.5466138e-01   5.8820053e-01   2.6273335e-01  -4.7282186e-01   1.2274354e-01   5.0792962e-01  -7.0982038e-01   4.6877047e-01  -9.1342088e-01   2.1190947e-01  -6.5585917e-01  -1.8246890e-01   4.6209077e-01   8.8036856e-01  -8.8208700e-01   5.4444829e-01   5.7196956e-01  -3.6509898e-01   4.8400493e-01   7.2165247e-01   5.9788440e-01   1.0123801e-01  -9.3103921e-01   3.8781739e-01   4.6395963e-01   1.2675114e-01  -5.6342955e-01   3.4974081e-01  -5.0255845e-02   8.8442504e-01   2.0334609e-02   5.3595680e-01  -6.1474567e-01   5.5446669e-01  -1.0548914e-01  -9.5998064e-01   1.2599362e-01  -3.4663244e-01   9.6679270e-01  -2.5930941e-01   6.4057523e-01   5.7002785e-01  -9.9742246e-01  -3.2622022e-01  -4.4609217e-01   3.6714697e-02  -5.1069817e-01  -7.0330011e-01  -8.5130095e-02  -7.9532919e-02  -6.0609245e-02   7.0889133e-01  -2.1730196e-02  -1.2049467e-01  -6.5878886e-01   1.1658376e-01  -5.0336230e-01   9.5819664e-01   2.9686836e-01  -1.2805389e-01   3.3095381e-01   2.2531242e-01   1.5058803e-01   3.3126646e-01   5.1880699e-01  -2.0570835e-01  -2.0542769e-01  -9.7512144e-01   7.6575139e-01  -7.5776061e-01  -6.8726571e-01   8.7162613e-01  -9.8672904e-01   3.1202840e-01   1.8964190e-01  -5.8948708e-01  -5.7552939e-01   8.9361673e-01  -4.3906600e-01  -5.6540277e-01   5.7883552e-01   6.2612429e-01  -1.3904616e-01  -7.3643041e-01   2.9147506e-01   6.2073155e-01  -3.9258667e-01   5.7716795e-04   8.7433335e-01   7.6532972e-01   6.6560730e-01  -6.4392831e-01  -1.1566071e-01  -4.9637274e-01  -3.7592323e-01  -6.0203146e-01  -4.5451163e-01  -8.8775430e-01  -2.0996203e-01  -8.6736031e-01   1.7300085e-01  -5.0224546e-01   3.8025710e-02   2.4646352e-01   3.7649848e-01   1.9629492e-01   8.5079489e-01   9.0127225e-01  -5.3335844e-01   8.4311735e-01   7.0983067e-01   7.3673102e-02  -3.2521706e-01  -4.0762654e-01  -6.0754332e-02  -7.0476088e-01  -4.6660054e-01  -7.3350750e-01  -1.0368075e-01   2.4757103e-01  -9.3842949e-01  -2.2837050e-01  -4.6378362e-01   3.9330591e-01  -2.6553233e-02   7.5746569e-01   8.2422593e-01  -9.9485205e-01   3.9775636e-01  -4.9438906e-01   5.2802471e-01  -4.4614334e-01  -7.2953520e-01  -9.0408216e-01   4.6113462e-01  -8.7861438e-01  -3.6552023e-02   8.3756058e-01  -3.9171164e-01   9.4426752e-01   4.2589422e-01  -7.4034592e-01   2.3502428e-01   7.4641665e-01  -6.7811891e-01  -2.7455309e-01  -3.3687064e-01  -7.3656910e-01   1.7928473e-01   5.1252585e-01  -7.3449940e-01  -3.2399063e-01  -2.5678403e-01   7.3821455e-01  -1.7192252e-01   7.5786140e-01   9.4668674e-01   7.0425284e-01  -5.6625588e-02  -9.1465242e-01   6.8987495e-01   5.0916461e-01   1.5499965e-01  -4.0704171e-01  -2.0239983e-02   5.9463717e-01   9.8235165e-01  -3.9168508e-01  -6.1694860e-01   4.9107750e-01  -1.4288558e-01  -7.6566525e-01   2.5137178e-01   6.9566957e-01   4.9180284e-01   9.7228310e-02  -9.5799823e-01  -7.7975968e-01   7.2598148e-01   8.0481719e-01  -4.9895562e-01   2.0086231e-01   2.1159736e-01   8.9413951e-01  -1.4903681e-01   1.4569393e-02   1.1005915e-01   5.0346170e-01  -6.7320863e-01  -5.6256124e-02   1.9537888e-01  -2.4311459e-01  -3.5345344e-01   5.4699477e-01   2.5247034e-01   6.2232377e-01  -5.8458963e-01   4.2332931e-01   7.7279982e-01   8.6223244e-01  -7.8236190e-02   7.0962027e-01   1.1599044e-01  -5.8632473e-01  -3.8234783e-01   9.7683483e-01  -3.9306003e-01  -7.1759499e-01  -8.3027037e-01   6.7828407e-01   7.5612320e-01  -5.5107211e-01  -8.6068601e-01   6.5403199e-01   9.4592874e-01   6.1028141e-01   9.4819566e-01  -3.2083051e-02   2.5580714e-02   8.3467155e-01   7.7595487e-01   4.5803422e-01   8.0847776e-01   6.5333744e-01   8.4747724e-01  -8.5168887e-01  -7.6495676e-01   1.9592232e-01  -2.2106809e-01   5.0751096e-01  -9.3538216e-01   6.3482146e-01  -1.1683939e-02   8.1003051e-01   4.5967963e-01   6.9728673e-01   6.6209866e-01  -7.9183346e-01  -7.8545181e-01  -3.9554602e-01  -7.3840185e-01   3.0592589e-01  -8.3654507e-01  -6.1630478e-01   3.1921559e-01  -4.6631566e-01   1.4920910e-01  -9.0108857e-01  -7.7819543e-01   8.7077895e-01  -5.2739327e-01  -8.3419983e-01   4.8230973e-02  -6.0731648e-01   4.0268744e-01   5.3622879e-01  -3.0279167e-01   4.5524782e-01   8.6857275e-01   1.3469477e-02  -8.7583604e-01  -8.0600676e-01   1.5778736e-01   9.2742714e-01  -9.2539165e-01   2.8978238e-01   4.3707192e-01  -8.5961264e-01   1.5364039e-01   3.9886968e-01   1.9206151e-01   6.7324301e-01  -7.3335618e-01   4.6528170e-01   6.8502215e-01  -3.1640833e-01   6.9666236e-01  -9.1112525e-02  -1.0029605e-01   2.3686908e-01  -1.4129106e-02  -1.5039271e-01   1.6807441e-01   9.6454202e-01  -7.4328288e-01   6.3179876e-01  -5.8081730e-01  -1.2135179e-01   2.2720676e-01  -5.5123106e-01   4.7129204e-01  -6.9168752e-01  -5.6073607e-02   9.5626055e-01   3.0921946e-01   1.4935747e-01   7.7541938e-01   5.3612931e-01   4.4148844e-02   2.3189451e-01   3.3548001e-01  -4.6056110e-01   2.9525665e-01  -9.5558189e-01   6.0895032e-01  -9.0030252e-01   4.5890038e-01  -2.2591291e-01  -1.3785803e-01  -5.7675805e-01   6.5449280e-01   5.2146477e-02   2.0851031e-01  -2.4527748e-01  -7.3501968e-02  -6.6750513e-01   4.2267816e-01   4.3163024e-01   3.0048486e-01  -7.2903106e-01  -9.3734931e-01  -1.9481576e-01   6.3562283e-01  -4.4771891e-01   2.0021696e-01   7.6166395e-01  -7.4369221e-01   9.1095982e-01   7.9021587e-01  -9.7720694e-01   4.5362263e-01   3.3101190e-01   6.2636370e-01  -1.4081257e-01  -1.4884605e-02  -3.9200769e-01  -7.6359222e-01  -4.8260030e-01   9.2976847e-01  -8.8668448e-01  -9.1027136e-01   7.0737690e-01   8.9234909e-02  -7.2817931e-01  -5.5186757e-01   9.8414261e-01   6.6315501e-01   7.4235150e-01  -5.6286282e-02  -6.6659946e-01   9.5829350e-02  -6.6492363e-01   1.3156755e-01   9.0143713e-01   5.6483130e-02   8.1098781e-01   7.8352827e-01  -4.0527715e-01   8.7517143e-01   1.6184456e-01  -6.4093045e-01   7.5601007e-01   6.8486507e-01   1.1662500e-01  -5.0722653e-01  -3.2310061e-01  -3.3608518e-01   6.1045770e-01   7.8296894e-01   7.4432297e-01  -7.4861191e-01  -5.8904117e-01   1.3974863e-01   9.9097765e-01   2.2642065e-01  -8.7298126e-01   5.4115811e-01   8.6265349e-01  -6.2207220e-01   4.8419116e-01   3.7641776e-01   6.6666564e-01  -7.9990233e-01  -4.7802834e-01  -7.1577153e-01  -4.6126147e-02   4.9296789e-01  -2.3165191e-01   7.9254949e-01  -5.5840995e-01  -9.0900288e-01  -5.3642731e-01  -4.9518431e-01  -2.4711667e-01   1.5215028e-01   6.8663464e-01   4.1865904e-02   3.2922621e-01  -4.4298438e-01  -4.7958499e-01   7.0449746e-01   1.3256859e-02   8.1165259e-01   4.3101533e-01   7.3643936e-01   5.8967109e-01  -7.0630687e-01   7.9482970e-01  -9.2279733e-01  -8.6988897e-01   4.0301783e-01   3.5960664e-01   2.6970074e-01  -5.4401657e-01  -2.4376523e-01   2.7161560e-01   5.4194813e-01   6.1060828e-01   3.1231865e-01  -7.2093660e-01   3.9257837e-01  -8.0940792e-01  -5.5054200e-01  -7.8032297e-01  -2.5467662e-01  -7.3263806e-01  -6.8026176e-01   6.4775826e-01   6.7133312e-01   6.5939443e-01   5.8078936e-01  -8.3838159e-01   8.9352155e-01   3.2175435e-02   8.6827748e-01   2.8609924e-01   8.5856046e-01  -1.1572183e-01  -3.5869751e-01   5.9905509e-01  -1.1326807e-01  -1.9747100e-01  -4.7467427e-01   1.3196356e-01   7.7722321e-01   4.3297183e-01   9.9588398e-01   7.0054983e-02  -4.0164048e-01  -6.3154791e-01  -2.8553838e-01   7.5563134e-01  -9.9410306e-01  -1.2402934e-01   6.9249302e-01  -6.0770596e-01   9.5025215e-01  -6.0966574e-01  -7.7190885e-01   8.4440369e-01   2.4892527e-01   1.7260942e-01   5.6613298e-01   2.9205951e-01  -1.4907309e-01  -3.3647515e-01   4.5495731e-01  -6.9816358e-01   1.0702832e-01  -7.5570181e-01  -1.0276803e-01  -2.1482771e-01  -9.9799579e-01   6.5034987e-01  -9.8513367e-01  -6.7668384e-01   4.2169531e-01  -7.6341323e-01  -2.6974470e-01   4.8718164e-01   3.0095888e-01  -2.0951328e-01   9.9151202e-01  -3.9435096e-01   3.1383434e-01   4.5989826e-01  -2.0807715e-01   2.7838665e-01   3.1709824e-01  -7.6559547e-01   4.2821663e-01  -1.7133977e-01  -1.6550211e-01   5.4246310e-01   8.4457483e-01  -1.6790862e-01  -4.1982104e-01  -2.4015226e-01   4.8447932e-01   5.3734515e-01   4.8465818e-03   7.2347251e-02   1.3838695e-01   7.3253173e-01  -8.3693980e-01   8.2307665e-01   1.4938381e-01  -7.1709093e-01  -3.3952244e-01  -4.4293178e-01   5.5542163e-01  -4.4922920e-01  -4.1946438e-01  -6.5035364e-01   2.9728276e-02   6.3216691e-02  -8.4803533e-02   8.8028595e-01   1.0113378e-01  -9.9051674e-01   7.6546106e-01   8.4206847e-01   3.5063538e-01   9.2169260e-01  -9.0424515e-02  -9.4554306e-01   3.3176586e-01  -1.9783410e-01   9.5888769e-01   4.5420396e-01  -4.0300273e-01  -7.2414012e-01   1.5031429e-01   3.3546248e-01  -2.7085140e-01  -8.8003053e-01   3.3059834e-01   5.6813451e-02   1.4643539e-01  -2.8860597e-02  -1.0581639e-02  -7.7213082e-01  -2.0628146e-01  -7.0299080e-01  -7.4622504e-01  -6.6068034e-01   8.4748994e-01   2.7045011e-01  -8.6948793e-01  -3.9743071e-01  -9.7523205e-01  -8.5872140e-01  -6.0295911e-01   8.3324640e-01  -5.4835641e-01   6.1741689e-02   6.3214785e-01   4.8323142e-01  -5.6294095e-01   6.3747559e-01  -8.4193094e-02  -2.1004853e-01  -5.3387903e-01   7.1614363e-01  -1.5135520e-01   6.0087413e-01  -4.4595874e-01   3.6105979e-01   7.7253174e-01  -3.7664745e-01  -5.7405085e-01  -6.8442935e-01  -2.9294168e-01   5.0321187e-01  -9.3089512e-01  -2.8554995e-01   9.9154124e-01   4.3854292e-01   6.9708742e-02   9.3477190e-01  -4.1668512e-01  -2.9476201e-01  -4.7352741e-01  -1.1965621e-01  -2.6294534e-01  -2.1685550e-01  -2.0808016e-01  -3.2686411e-01   3.7001360e-01   8.2701077e-01  -5.6289016e-02   3.4260208e-01   8.6769298e-01   4.5689736e-01  -1.6652622e-01  -1.2962931e-01   4.6776058e-01  -2.9833622e-01   9.7152938e-01   2.7114990e-01  -7.7441841e-01   5.1640457e-01   7.0795387e-01  -4.2295694e-01  -9.3437631e-01  -1.2887039e-01  -5.7095319e-01  -4.3348683e-01  -3.9836649e-01   2.4726102e-01  -2.6362601e-01   6.8685572e-01   5.0868458e-01   3.6133399e-01  -4.7745928e-01  -9.4139799e-01   8.1900464e-01  -4.1387086e-01  -3.5561011e-01   5.9737208e-01   8.9902561e-02   9.4161910e-01   9.2512593e-02   9.3768199e-01  -3.6127364e-01   7.7809013e-01   2.3631302e-01  -2.4565226e-01  -5.2876446e-01   4.0040595e-01   5.1112270e-01  -5.3291438e-01  -3.1546950e-01  -5.1208178e-02   4.3071860e-01  -1.8191171e-01  -9.7282263e-01   8.9030128e-01  -4.6543426e-01   9.8130649e-01  -8.9719709e-01   9.2668474e-01   2.2871664e-01  -8.2296490e-01  -4.0196451e-01  -9.1588820e-01  -5.9005762e-01   5.4332733e-02   8.5178199e-01   8.5502807e-01  -5.8896826e-01   4.4537092e-01   1.4601392e-01   1.7567705e-01   5.6154389e-01   6.3669724e-01   5.3983602e-01   9.8807505e-01   3.5475732e-01
  -9.6836052e-01   1.4239598e-01   1.3618425e-01   8.6712538e-01  -6.0043386e-01  -6.5646755e-01   8.2621461e-02  -8.9502801e-01   8.9850048e-01   9.8574732e-01   1.9937717e-01   8.2920041e-02  -9.0880115e-02   8.8118604e-01   1.6665150e-01   3.5108983e-02   1.1665987e-01   9.2810789e-01  -7.3621340e-01   7.4683333e-01   3.5224471e-01  -8.4136921e-01   6.1217053e-01  -8.8927060e-01  -5.3615744e-01  -1.7543971e-01   2.3380653e-01  -5.8960582e-01   6.7200236e-01   9.9170141e-01   1.7619304e-01   8.0600185e-01  -1.5802549e-01  -1.7005842e-01   6.3343219e-01  -1.7097802e-01   3.8090670e-01   7.1030201e-01  -2.9887634e-01   4.8067053e-01  -7.8678620e-02  -2.7957910e-01  -6.6704426e-01  -9.1948557e-01   8.9143720e-02  -1.7347379e-01  -4.2583563e-01   8.1518835e-01  -1.3693864e-01   9.7462307e-01  -9.8358067e-01  -3.9787149e-01   5.3656917e-01   1.8085738e-01   6.8942797e-01   4.5980029e-01  -9.2861861e-01   6.5119914e-02   3.3894209e-01  -1.8411958e-01  -7.4409119e-01  -3.4634458e-01   8.1187419e-01  -3.0165648e-01  -2.9615241e-01   2.1855661e-01  -3.1966204e-01  -2.4061388e-02  -9.6630442e-01   2.1219164e-01  -1.2095598e-01  -6.8030182e-01  -7.8801195e-01  -8.8050196e-01  -7.6647379e-01  -5.0704278e-01  -7.0731971e-01  -7.2909929e-01   2.4817290e-01   4.1794164e-01  -7.6118898e-01   9.4493563e-01   9.8912424e-01  -8.7311119e-01  -3.0788294e-01   6.2366873e-01  -2.1557410e-01   8.2392175e-01   6.8280148e-01   6.4671121e-01  -6.5743865e-01   1.4418521e-01   9.9567706e-01   3.3805027e-01  -6.5647185e-01   8.2691626e-01  -2.4586421e-01   7.0148325e-02  -5.2174123e-01  -6.6303234e-01  -1.4908960e-01  -9.6565342e-01  -1.1412726e-01  -2.8332179e-01  -9.4226170e-01  -7.8983240e-01   2.7698403e-01   7.0719325e-02   7.9101833e-02   8.3177758e-02   4.3263013e-01   3.7694528e-01  -5.1869289e-01   8.0708374e-02   9.8793504e-01  -7.0590915e-02   6.5334745e-01   1.3626631e-01   6.8883876e-01   1.8467993e-01   9.5997817e-01   5.6192544e-02  -7.3196874e-01   3.0993153e-01  -1.2699753e-01   7.2752538e-01   2.2360201e-01  -1.5130074e-02  -9.5149776e-01   1.0954578e-01  -2.3325275e-01   4.6802566e-01  -4.6808583e-01  -7.0853134e-01   3.3478237e-01   5.1853269e-01  -4.6975199e-01   8.3071060e-01  -1.2639090e-01   7.2923083e-01  -4.3380679e-01   9.7695009e-01  -7.9434583e-01   2.5990635e-01   1.5559173e-01   3.3178577e-01   3.0165898e-01   4.0586385e-01  -2.2731875e-01   4.7009544e-01   3.8853757e-01   9.2764501e-01   4.3788643e-01   6.2259032e-01   5.7373778e-01  -7.6138069e-01  -2.7820660e-01   8.6271638e-01  -8.2522039e-01  -7.5757603e-01   4.1501065e-01  -9.7388448e-02  -3.5938879e-01   9.7519348e-01   8.3341868e-01   7.5757667e-01  -5.7768810e-01  -9.6608549e-01  -5.5690899e-01  -7.8384516e-01   1.7875718e-01  -2.6890902e-01   1.7551245e-01  -6.4133503e-01   1.4767964e-01   2.8242068e-01  -7.0376779e-01  -8.2554124e-01   4.4785797e-01   3.4505025e-01  -5.3737344e-01  -8.9712286e-01   3.6467721e-01   8.9624862e-01  -5.9001130e-01   6.6188770e-01   3.0297421e-01   1.7060239e-01   4.2846857e-01  -2.1636884e-01  -5.3928314e-01   9.7056498e-01  -9.9414871e-01   9.0664125e-01   5.4857057e-02  -3.9529938e-01  -1.7483412e-01   9.8633257e-02  -4.2764758e-01  -1.8585088e-01   1.4516786e-01   9.7341011e-01  -8.3797583e-01   8.9408205e-01  -8.9834115e-01   9.5442601e-01  -2.0189998e-01   8.0201383e-01  -7.0393469e-01  -2.9324325e-01  -5.9462113e-01  -7.9782955e-01  -4.3165004e-01  -4.5999704e-02  -6.4281014e-01  -2.9984391e-01   4.3703783e-01   8.9452188e-01   2.2858352e-01  -7.3349006e-01  -9.5454066e-01  -5.2566211e-01  -2.0063403e-01   5.0811428e-01  -4.7992609e-01  -3.4244011e-01   8.1164745e-01   5.8910094e-02   3.2296833e-01   8.3649041e-01   3.4272363e-01   4.2637705e-01  -1.1939925e-01   8.0104719e-01  -3.4559682e-01   9.3751090e-01  -2.5784061e-01   1.9191559e-01  -8.2673641e-01   4.2629516e-02   7.6323711e-01  -9.9399040e-01   7.5604640e-01  -6.1259250e-02   6.4822083e-01  -5.5027010e-01   9.3985243e-01  -2.1053746e-01  -7.4249925e-01   2.4357095e-01   6.0563599e-01   3.2965140e-01   1.3809334e-01   4.6217505e-01  -7.8014904e-01   9.6474287e-02  -9.9594268e-01  -9.6642536e-02   5.5922057e-01  -8.1111665e-01  -2.9063272e-01  -3.9455648e-01   1.2671545e-01  -6.9261439e-01  -3.9054724e-01   9.3442674e-01  -6.0381551e-01  -7.2484871e-01  -8.4913460e-01   3.6495649e-01  -4.2178756e-01   9.1645051e-01   8.3792758e-01  -6.6974740e-01  -8.7336194e-01   7.4149514e-01   2.9396660e-01   7.0933373e-01  -7.8017502e-01   3.5258578e-01   1.1928312e-01   3.4212568e-01   8.8274540e-01   2.9753610e-01   5.1861602e-01   9.0061581e-02  -6.2874987e-01   4.2467781e-01  -8.2611659e-01   1.1324809e-01  -5.4401667e-01  -1.5746147e-01  -8.1365375e-01  -8.2259634e-01   5.7452970e-01   8.0157593e-01   6.4145125e-01  -8.5296756e-01   8.7039866e-01   1.7126535e-01  -8.2560525e-01  -3.9902078e-01  -3.5117865e-01   8.3286157e-01   8.2047037e-01  -5.4275092e-01  -6.8301953e-01  -6.7861200e-01  -9.1182349e-01   9.4511246e-01  -1.2005592e-01  -7.5816703e-01  -1.5933362e-01  -2.6491292e-01  -3.1906762e-01   9.5071990e-01  -4.2011986e-01   6.8050030e-01  -3.0946131e-01  -1.9436299e-01  -8.8412892e-01  -4.6806207e-01   3.6194494e-01  -9.0255446e-01   1.1109108e-01  -9.8141285e-01  -7.9534942e-01   5.8114956e-01  -1.3218342e-01   4.7575995e-01   7.1242164e-02   6.2668280e-01   1.2910980e-01  -1.1040219e-01  -6.3788208e-01  -3.6715481e-01  -8.2568288e-01   7.3117576e-01   1.1616828e-01  -5.1250792e-01   9.4537909e-01   5.3887695e-01  -7.8061380e-01  -6.1237953e-01  -9.7481169e-01  -4.5407674e-01  -8.2224901e-01  -1.9108703e-01   4.6341038e-01   6.0814903e-01   7.0911899e-01   4.8967221e-01  -4.6309631e-01   4.7561589e-01   6.6661924e-01   2.9102654e-01  -8.8457424e-01   7.8500585e-02   6.9265162e-01  -6.3437300e-01   5.1720455e-01  -7.1808673e-02   6.9830013e-01   8.5299042e-01  -2.7860478e-01   8.4583871e-02   6.3472061e-01   5.5005454e-01   1.8974450e-01   8.5507911e-01  -6.4614101e-01   2.7585671e-01   7.0108569e-01   5.2565582e-01   7.0625162e-01  -1.2536804e-01   6.1169247e-01  -3.8008065e-01  -4.6424478e-01   3.9137983e-01  -8.8597603e-01   8.0815425e-01   7.7076539e-01   2.0454898e-02  -7.8488009e-01  -7.5238116e-01   2.2282257e-01   1.3893034e-01   6.8661652e-01   1.6965242e-01   4.8401625e-01  -8.9713036e-01  -4.3712308e-01  -7.0901715e-01  -5.6766324e-02   5.4884633e-01   8.9490591e-01   5.1395148e-02  -2.5819893e-01   2.4730302e-01   5.5865560e-01  -5.9353196e-01   4.2735278e-01  -1.0580450e-01   8.6020944e-01   6.2400452e-01  -5.4778525e-01   3.2244788e-01   9.9393665e-01  -8.0811479e-01   8.6341531e-01   6.3902191e-01   2.6374230e-01  -2.0492787e-01   7.1598330e-01  -9.2555364e-01  -7.2544772e-01  -8.4416805e-01  -3.1228969e-01  -1.2836683e-03  -2.7187529e-02   9.5747180e-01  -6.6524246e-01   8.7664765e-01   9.7244489e-01  -6.9338797e-02   5.7549162e-01  -7.3840082e-01   1.3734537e-01   3.1932423e-01  -3.4901516e-01  -4.4148488e-01  -4.5470455e-01  -9.4771041e-01   3.0021473e-01  -3.7185925e-01   8.7741901e-01  -3.8724810e-01  -2.6808572e-02   3.8725430e-01  -9.8428440e-01   2.1826007e-01  -9.5659232e-01   6.6241043e-01  -6.7928780e-02   1.1464831e-01  -7.6912632e-01   6.7703488e-01   6.2665401e-02  -6.6237084e-01  -3.6922533e-01   3.7509045e-01   7.0779128e-01   4.2609275e-01  -6.7291491e-02  -7.5958474e-01  -5.4536318e-01  -2.3607480e-02   4.0235557e-02   8.7272082e-01   3.4213985e-01   5.6993533e-01   4.0090963e-02  -8.2397576e-01  -9.5231748e-01  -4.0542104e-01  -3.5492065e-01  -5.5203636e-01  -9.9898160e-01  -5.2485619e-01   4.8684998e-01   4.1800086e-01  -5.0600929e-01  -1.6750554e-01  -5.7670775e-01  -4.1217802e-01   3.5145039e-01   2.6000764e-01  -7.5715213e-01  -7.6381453e-01   9.6440338e-03   9.4369543e-01  -7.2044084e-01  -4.5495584e-01   1.9140738e-01  -1.6037537e-01   4.6710977e-01  -9.1273813e-01   7.0146376e-01   2.6035849e-02   9.1266765e-01   7.3567985e-01  -8.9743564e-01   8.3563837e-01   1.9391323e-01   9.3647552e-01  -9.6942039e-01  -4.0411668e-02  -9.3810461e-01  -1.2174316e-01   1.8943640e-01   2.8007947e-01  -3.1801115e-01   9.7036958e-01   8.2491182e-01  -6.3168778e-02   5.0682242e-01   8.0179447e-01  -1.7821715e-01   7.5816070e-01  -3.3527473e-01   9.3781383e-01   5.6661865e-01  -3.9555169e-01  -7.4913603e-01  -5.3461318e-01  -4.5747488e-01  -2.2669242e-01   6.1626742e-01   7.1480939e-01  -9.0882056e-01  -6.8319185e-01   6.6742741e-01  -1.5584557e-01   9.4465494e-01  -8.3072603e-02   8.8230621e-01  -3.4306141e-02   1.9106939e-01   3.8445526e-01  -8.7034143e-01  -1.3025954e-01  -9.7872220e-01  -7.7344504e-01   2.9753643e-01   1.1602043e-01   1.4614601e-01   4.1079153e-01   3.3342936e-02   1.1853229e-02   9.0646771e-01  -9.7930120e-01  -5.6847992e-01   1.0574793e-01  -1.8586453e-01  -7.6780174e-01   3.1440405e-01   2.7683971e-01   9.7385487e-01   7.5955595e-01   5.9656963e-01  -7.0666073e-01  -7.6191684e-01  -2.4182962e-02   1.2494625e-01   6.6801111e-01   7.7938194e-01   7.6984555e-01  -9.0263992e-01  -9.0868159e-01   7.9914666e-01   8.5696499e-01   3.3369486e-01   1.3834536e-01   8.2266110e-01  -2.4821289e-01  -1.1403747e-02  -8.9240619e-01  -7.7211540e-01  -8.8231556e-01  -7.9886823e-01  -9.1805097e-01  -2.2794351e-01  -5.9543237e-01   5.7438347e-01  -8.8147056e-01   1.7444629e-01   2.7687014e-01   9.1961062e-01  -3.2942554e-01  -9.3249249e-01  -9.3703688e-01  -3.0457213e-01   7.4199189e-01  -3.8922299e-01  -9.0722249e-01  -6.9980052e-01  -6.8899606e-01   8.0003257e-01  -7.4166173e-02   8.0656409e-01  -3.9005024e-01  -4.5056183e-01  -1.6899059e-02   4.6270455e-02   8.2645291e-01  -5.7938028e-01   2.0520925e-01  -1.2435010e-01   6.6722960e-01  -6.0582997e-01  -3.0073565e-01  -4.6573258e-01  -5.6281197e-01   9.6230306e-02  -3.5360198e-01  -7.5511343e-01  -8.6150258e-01   8.2316976e-01   7.7260013e-01  -4.3870455e-01  -7.2756793e-01  -6.6589681e-01   4.0019020e-01   7.3624392e-01   7.9519895e-01   8.8331792e-01   2.6462303e-01   1.2192071e-01   3.5951101e-01  -6.6847784e-01  -1.5220247e-01  -6.5651681e-02   8.7558098e-01  -8.6337739e-01   3.5010948e-02   5.3978058e-01  -6.8693141e-01   3.1671599e-01   5.2109936e-01   2.0634309e-01  -7.9558443e-01   7.7295484e-01  -1.2270619e-01  -3.8946335e-01   5.7036637e-01   3.1221868e-01  -4.6234043e-01   8.9549003e-01  -6.4754751e-01  -6.7906117e-01  -3.0979523e-01   1.1522443e-02   7.6874797e-02   8.1082130e-01   1.2920412e-01  -7.7229075e-01   7.1474209e-01   2.8504625e-01  -4.4365136e-01   7.1491832e-01   1.7988608e-01  -5.9803452e-01  -1.8724544e-01  -7.8592284e-01  -2.4902585e-01  -5.4782588e-01   2.9015892e-01   2.7140767e-01  -8.4498251e-01   8.3386728e-01   8.0136304e-01   2.4882487e-01   4.9641914e-01   9.2703287e-02   3.8377294e-01  -7.3362779e-01   9.5490055e-01  -9.6260800e-01  -7.2088246e-01  -8.2832920e-01  -9.5926833e-01   1.3701903e-01  -4.5343423e-01   5.7559272e-01  -3.7890684e-01   9.6275385e-01  -5.8354609e-01  -4.1665056e-02   5.1320578e-01  -8.5110574e-01  -2.2645640e-01  -8.7326391e-01   5.6169505e-01  -4.4294107e-01   8.3561654e-01  -7.7680392e-01  -2.2031070e-01   2.3488262e-01  -6.7529123e-01  -5.4555246e-01   2.8055561e-01  -9.7269548e-01  -8.5345026e-01  -1.9797119e-01  -6.0453430e-01  -7.9276962e-01   5.6318728e-01  -9.8791138e-01  -1.7508476e-01  -9.7877810e-01   2.2183317e-01  -7.1219090e-02   1.1932767e-01  -2.4561543e-01  -9.0994510e-02  -2.8084947e-01   2.8549274e-01  -1.9135949e-02   5.7901912e-01   9.6502206e-01   9.3910616e-01   2.0871690e-01  -7.4264615e-01  -1.6365374e-01  -9.8997583e-01  -4.4043471e-01  -1.3877701e-01  -2.2565359e-01   4.9531515e-02  -1.2237032e-02   8.6563056e-01  -2.7800545e-01  -5.9746747e-01  -1.2255004e-01  -3.6768519e-01   4.5779998e-01  -2.9701337e-01   3.4400640e-01  -9.4893612e-01   7.4977298e-01  -4.0437796e-01   2.3800507e-01   9.8902693e-01  -4.8464296e-01  -8.1972869e-01  -4.8602809e-01  -3.2927619e-01  -6.4101894e-02   3.7538516e-01   4.9370012e-01  -5.6288317e-01  -6.9154494e-01   4.2146655e-01  -6.4927610e-01   6.8891421e-01   4.9658174e-01  -7.7012462e-02   7.5618507e-01   7.3927159e-01   2.5737552e-01  -3.8937934e-01  -2.5690457e-01  -4.7390754e-01   4.6754009e-01  -9.5363097e-01  -6.2168557e-01  -6.3415401e-01   4.2964142e-01  -3.1333942e-01  -4.5801262e-01   9.2787449e-01   3.6989550e-02   4.2122174e-01  -3.5215751e-01   7.0187622e-01  -7.1620441e-01   2.4838376e-01   1.0295069e-01  -8.0663322e-01   1.8454393e-01   6.5651632e-01  -9.8878408e-01   1.2455084e-01   3.6834833e-01   8.1998179e-01  -7.0098213e-01  -2.6392052e-01   7.6686497e-01  -5.9062008e-01   3.1173912e-01  -3.0261635e-01   7.2949458e-01  -3.3693828e-01   5.1466933e-01   4.4741814e-01  -6.1381760e-01   1.5590947e-02   7.0698952e-01   9.5055524e-01  -2.0498198e-01   8.6374651e-01   7.7524507e-01  -7.1883634e-02   2.3462379e-01  -5.9174924e-01   2.8364844e-01   8.9121405e-01  -4.0445161e-01   5.9035170e-01   5.4425094e-01   7.2842881e-01   3.6682808e-01  -1.0567527e-02   2.8015775e-01   3.0068593e-01   7.7895762e-02  -4.1997133e-01   5.3115300e-02   6.2190835e-02   5.4808690e-01  -3.8694743e-01  -1.5449230e-01  -6.3453528e-01  -2.3520669e-01   1.5576802e-01  -5.9462320e-01  -4.3651784e-01   4.2093482e-01   9.0991945e-01   8.9318533e-01  -1.5801055e-01  -1.1755392e-01  -1.0328871e-01  -8.4364787e-01   5.9759655e-01  -4.4937404e-01  -8.0352107e-01  -6.4690613e-01  -4.2386251e-01  -2.9935066e-01   4.7658878e-03   7.9876801e-01  -1.3857040e-01  -8.2562068e-01  -3.5088521e-01  -1.4614397e-01  -8.2207287e-01  -9.2652204e-01  -8.0691304e-01   7.5613737e-01  -9.7171515e-02  -2.0540705e-01  -9.4668739e-01  -4.0576520e-01   6.8267830e-01  -6.0723791e-01   1.4665484e-02   6.4378137e-01   7.3621194e-02   1.2810405e-01   7.4929071e-01   5.6939787e-01  -4.5744368e-01  -7.5450759e-01   2.3686313e-01   2.2763171e-02   6.3139279e-01   5.4694576e-01   2.6606929e-01  -6.1818333e-01   7.9352447e-01  -4.9126830e-01   6.0701637e-01   9.8220152e-01  -2.2674618e-01   6.3047161e-01   3.6468398e-01  -4.4142783e-01  -3.0962685e-01  -3.2007198e-01  -6.5014884e-01  -8.7888432e-02   1.7918846e-01  -8.4235355e-01   1.8488179e-01  -8.1145556e-01   7.5509304e-01   9.0226205e-01  -2.3301377e-01  -3.0605041e-01   5.4400413e-01   6.1175839e-01  -8.5646562e-01  -6.2825167e-01   4.8575679e-01   7.4678077e-01   6.7801018e-01  -1.2303784e-01   1.4868945e-01   6.0656394e-01   7.4271850e-02  -9.4563388e-01   5.2981723e-01  -3.3988780e-01   4.9424340e-01  -9.5125398e-01  -5.0470790e-01   3.5629077e-01   8.3386793e-01  -6.1031892e-01   5.5676769e-01   9.4527990e-01   3.5918575e-01   5.8684191e-02   5.0390820e-01   6.8506095e-01   9.2586844e-01  -8.0870145e-01  -7.1064110e-01  -5.1881326e-01   5.2871302e-01   6.8640453e-01   6.3523029e-01   1.8299558e-01  -1.2702032e-01  -2.6970657e-01  -7.9535399e-01   6.1286363e-01   1.0286433e-01  -6.4789739e-01  -1.2145407e-01  -3.1263630e-01  -8.6859142e-01  -9.1315303e-02  -4.1039975e-01   1.2989805e-01   3.0906386e-01  -2.6335584e-01  -4.7693383e-01   8.6804219e-01   9.4696810e-01   4.8324262e-01  -2.0273273e-01   5.4634376e-01   3.6356390e-02  -7.1283133e-02   1.2227289e-01   8.3583702e-01  -6.4667268e-01   1.8309540e-01  -4.6847781e-01  -1.8064795e-01  -8.9119070e-01  -3.9276586e-01   7.1358080e-01   8.9932949e-01  -2.2632499e-01   1.6519886e-01   1.6037246e-01  -7.2751789e-01  -5.7039608e-01  -1.3913436e-01  -3.9246897e-01   1.6099686e-01   3.1995177e-01   3.5762613e-01   7.0867035e-01   7.3654821e-01   9.2065415e-01   2.6241260e-01  -7.5457220e-01   5.5364269e-01   8.7483647e-01   3.1018926e-01  -6.3840684e-01  -6.1475104e-01   6.4853852e-01  -4.9999523e-02  -2.2962897e-01   1.1158111e-01  -7.2663828e-01  -9.9859342e-01  -9.9728694e-01   3.7291216e-01   2.7432229e-01   2.3799352e-01   8.5640716e-01   6.6915428e-01  -8.2233068e-01  -2.9101687e-01  -1.8485096e-01   1.9507379e-01  -7.4590267e-01  -8.8818189e-02  -2.1544222e-01  -5.5468090e-01  -9.9546382e-01  -9.3148920e-01   3.6259191e-01  -1.0985475e-01   1.1413135e-01   8.1739340e-01  -5.4933790e-01   1.2045848e-01  -7.7928207e-01  -9.9834096e-01  -7.5531639e-01   6.8673347e-01  -3.9653004e-02
   6.4683823e-01  -9.9536143e-01   7.6953475e-01  -5.0104562e-01  -1.2491554e-01   2.7707109e-01  -1.5289079e-01  -5.8991847e-01   8.4511252e-01  -3.2420642e-01  -5.1769238e-01   6.5902484e-01  -3.0787281e-01   9.8179676e-01  -4.9954042e-02  -6.4983947e-01   7.4750305e-01   5.0056237e-01  -6.9038354e-01   7.5519383e-01  -2.6923478e-01  -8.0758624e-01   5.9878233e-01   7.5440878e-01   7.5778926e-01   5.7966522e-01   3.3934154e-01  -2.7502951e-01   7.1238496e-01  -9.9478131e-02   7.7899267e-01  -1.6042715e-01   4.9734121e-01   2.1012855e-01  -7.7343771e-01   9.1042160e-01  -1.0247825e-01   2.7930138e-02   4.1915827e-01  -2.4711142e-01   6.6540169e-01  -4.7183888e-02  -5.9382060e-01   9.0327465e-01  -4.2529143e-01  -3.6068349e-01   6.2712923e-01  -5.9107686e-01  -3.7501921e-01  -6.0069358e-03   4.5225864e-01  -9.3722423e-02  -8.5062703e-01  -1.0557179e-01   7.7081596e-01  -3.8971965e-01   5.7166794e-02   1.0173061e-01   2.9781816e-01  -6.7818117e-01   8.6485242e-01  -2.9675642e-01  -8.6362594e-01  -9.9314377e-01   9.8913119e-01  -2.1371976e-01  -8.5796628e-01  -9.3924327e-01  -5.8198082e-01  -4.5152750e-01   6.8594165e-01   3.2955710e-01   1.5353214e-01   8.7084704e-01   7.3231260e-01   4.5770069e-01  -2.8753384e-01   1.1158780e-01   3.4358535e-01  -3.4292884e-01  -4.6054711e-01  -4.7072557e-02   1.8959465e-01   9.8881302e-01   4.0583947e-01   4.6046437e-02   8.9000627e-01  -5.0541056e-01  -9.4675184e-01   5.2247427e-01  -6.1117500e-01  -9.5391676e-01   2.2229162e-01  -4.1399588e-01   9.8800256e-01   9.6926661e-01   3.5200828e-01   4.1985581e-01  -6.2704559e-01  -2.3396570e-01  -8.0071958e-01   4.3072806e-01   5.7197426e-01  -9.3210673e-01  -3.3571275e-01   5.9029123e-01  -7.3899317e-01  -2.9836347e-01   5.2092851e-01   3.3226258e-01   8.7571780e-01   7.1740414e-01  -5.0532774e-01  -5.0919244e-01  -8.6571392e-01  -1.1643108e-01  -7.4066888e-01  -9.2643148e-01   9.9004206e-01  -9.8592164e-02   6.4575156e-01   6.2930140e-01  -5.4161238e-01  -7.1113115e-01   2.6092282e-01   9.0227751e-01   8.7551594e-01  -7.9854960e-02  -1.3165720e-01  -3.8424602e-01  -8.6659315e-02  -2.9490839e-01   3.8445524e-01  -2.0256054e-01  -7.0693406e-01  -5.6439842e-02  -7.1328240e-01  -3.6436008e-01   1.7194765e-01   7.3111294e-01  -4.0464871e-01   6.5789681e-01   5.3623295e-01  -4.4876727e-01  -4.0647226e-01   2.4185514e-01  -8.5778420e-02   3.4851136e-01   4.6981950e-02   7.1323149e-01   7.8816793e-01   8.5588516e-01   4.5998689e-01   1.8760336e-05  -6.9982843e-01   5.1917440e-01  -4.6117034e-01   6.2089909e-01  -8.0391752e-01   3.1744218e-01   3.3695340e-01  -1.9484483e-01   7.0129081e-01   1.0789568e-01  -5.2517281e-01  -6.1643769e-01  -3.2357730e-01   4.2289670e-01   2.6609815e-01   8.5943633e-01  -1.6777790e-01   7.6903448e-01   5.8944154e-01   2.4006758e-01  -6.6128174e-01  -2.1558206e-01  -6.2785060e-02  -9.2551929e-01  -5.7169567e-01  -9.1373598e-01  -6.4563992e-01   2.7250489e-01  -1.3667536e-01  -1.7108593e-01   9.3625466e-01  -5.7184463e-02  -8.2837969e-01  -1.1810695e-01   8.8459588e-01   9.4064489e-01   2.8899571e-01  -6.5984808e-01  -1.8690731e-01  -9.5878410e-01  -1.4078712e-01   2.7065609e-01  -6.7694142e-01  -8.4308317e-01  -5.3792262e-01   1.6855039e-02   3.8268884e-01   1.8806504e-01   2.4636285e-01  -9.0162740e-01  -2.4809683e-01   9.5436365e-02  -4.3450721e-01   7.6586199e-01  -9.3076461e-02   8.4426413e-01   7.8570160e-01   3.6092637e-01  -3.4715317e-01   9.0270842e-01  -9.8053695e-01   3.5885974e-01  -6.6820093e-01  -8.4523115e-01   6.0571903e-01   8.2090447e-01  -7.9556561e-01  -4.4569613e-01   3.1410293e-01  -1.1096623e-01   9.0096813e-01  -8.7499897e-01  -7.6004486e-01   9.3858687e-01  -7.6042371e-02  -7.4139695e-01  -9.6768925e-01   1.2276283e-01   4.3514344e-01  -8.4678360e-02  -3.1585683e-01  -3.7044829e-02  -1.9534618e-01  -5.4091068e-01   5.1873978e-02   9.3613966e-01  -4.9353944e-01   7.0116644e-01  -7.3415794e-01  -9.3198450e-01  -5.4663805e-01   3.6332516e-01  -6.4414911e-01  -4.9006816e-03   1.2611428e-01  -6.5992758e-02   4.8990991e-01  -9.7914514e-01   3.0589761e-01   9.8016979e-01  -7.7981719e-01   1.1660276e-02  -4.4940120e-01  -6.8804216e-01  -1.0849366e-02  -6.2882984e-01  -9.4166096e-01   7.8796503e-01  -2.0666475e-01  -3.7870309e-01  -3.2816634e-01   2.1079233e-01   3.4927068e-01   5.8128795e-01   2.8042915e-01   8.8413274e-01   5.0590060e-01   6.2536076e-01  -5.4708397e-01  -3.9539586e-01   7.1086773e-01   5.1365304e-01  -6.4689971e-01  -9.8289532e-01  -9.1371035e-01   9.9416388e-01  -6.2158891e-01  -6.6238683e-01  -2.6132065e-01  -1.4798012e-01   7.8533637e-01  -8.6701508e-01   9.6311487e-01  -1.7889741e-01   7.3342436e-01  -9.1125423e-01   4.0342481e-01   3.3240520e-02  -2.5684724e-01  -9.3491512e-01   3.3812899e-01  -2.7586238e-02  -1.6403091e-01  -3.4110827e-01  -5.8746004e-01   9.2877980e-01   5.7534364e-01   2.9398149e-01  -8.8688375e-01  -6.2168571e-01   6.1366217e-01  -2.6747759e-01  -5.8543287e-01   7.4439497e-01   1.2149004e-02   9.0753356e-01  -9.2725987e-01  -5.9686836e-01   4.4349864e-01   7.5768457e-01  -6.3322488e-01  -8.5594572e-01  -1.0192083e-01  -1.2677496e-01   4.8102014e-01  -9.4098624e-01  -2.9508033e-01   3.3602866e-01   9.2603312e-01   3.7980710e-01   1.3160646e-01  -8.9678692e-01   8.9650939e-01  -7.9008694e-01  -5.3101683e-01   8.6090878e-01  -4.6901902e-01   6.9105851e-01   2.7788935e-01  -6.5960407e-01   6.4726256e-01   6.4440939e-01  -2.8812397e-01  -5.1379583e-01   6.3376475e-01   1.9216410e-01   1.2971094e-01   2.2105156e-02  -7.2597965e-01   5.2110416e-01   2.0282884e-01  -6.0079748e-02  -3.3362772e-01   3.6082221e-02   2.9201402e-01   1.4814829e-01  -9.2006131e-01   2.7774778e-01   1.4800752e-03  -9.0553226e-01   5.8505207e-01   8.3749743e-01  -3.6071330e-01   3.6749962e-01  -6.8698501e-01  -2.2825918e-01   6.1409482e-01  -8.3308302e-01  -7.0129921e-01   9.6349063e-01  -8.1977918e-01   8.4440810e-01   3.0626388e-01   7.1611121e-01  -9.5746638e-01   7.3195872e-01  -5.1198084e-01   9.9317207e-01   1.0294220e-01  -1.1433477e-01  -9.5645670e-01   6.7794613e-02  -9.2548959e-01  -9.5287140e-01   5.6232328e-01   1.5722702e-01  -5.7853002e-01  -5.4982170e-02   1.9493849e-01   2.0784396e-01   6.6695146e-03   1.1871373e-02   3.9590618e-01  -2.3883751e-01  -2.1683751e-01   2.7192087e-01   8.5791014e-01  -3.0243888e-01   4.8371439e-01  -3.0262123e-01   6.6807439e-01   1.6626763e-01  -6.0837913e-01   7.0621463e-01  -7.9638666e-01  -7.0064367e-01  -3.8737783e-02  -4.4029718e-01   4.7166287e-01  -9.1385046e-01  -5.1657816e-01   4.8879717e-01   1.7202821e-01  -8.1341868e-01   7.0464750e-01   2.6551915e-01   8.6246285e-01  -8.3816868e-01   3.4387685e-01   8.4476294e-02  -1.3016964e-01  -7.1082798e-01   9.1664548e-02   5.0097822e-02   5.8979600e-01  -9.2171209e-01   2.6788052e-01  -6.1836116e-01   9.4998505e-01   6.0294594e-02   6.4576400e-01  -5.1598085e-01  -4.7974115e-01  -9.7986120e-01  -1.4723698e-02   8.0309526e-01   2.6600459e-01   5.6681865e-01   5.2745950e-01  -2.9780932e-02   3.5931302e-01  -8.7138879e-01   7.0505927e-01  -6.7829834e-02  -9.2312718e-01   4.3556304e-01   2.9259970e-01  -6.6967975e-02   9.9552607e-01  -7.5254266e-01  -4.0226813e-01   3.0006926e-01   2.3903076e-01   8.8721880e-01   4.8986424e-01  -8.2978198e-02  -2.4523224e-02   9.4330585e-01   2.4205561e-01   3.9277589e-01   1.9559229e-01  -3.3891578e-01   5.5950197e-01   5.6191310e-01  -3.8520499e-01  -1.0239819e-01  -7.0226555e-01   3.5568854e-01  -4.4690912e-01  -3.0571257e-01  -7.1368212e-01   6.2976140e-01   5.3423932e-01  -4.2651336e-01  -4.6137566e-01  -1.5898501e-01  -9.9742307e-01   3.5722589e-02   3.8272520e-01   7.7907965e-01   6.7493254e-01   8.7903929e-01  -4.9272186e-01  -3.4764145e-02   6.5592210e-01   5.5860287e-01   2.5155470e-01   8.5225776e-01   2.0921530e-01   7.6403780e-01   6.9253288e-01   2.9793116e-01  -9.7212536e-01   3.2464780e-02   6.0650601e-01  -3.0655826e-01  -4.8512287e-01  -6.0837341e-01  -1.8062941e-01  -2.6964796e-01  -1.4212405e-01  -1.6997406e-01   2.4949230e-01  -1.3295810e-01  -1.3059642e-01   7.6048533e-01   7.9740052e-01   6.6187908e-01   2.4819703e-01  -2.3308645e-01   4.2051514e-01   8.1243642e-01  -6.9065374e-01   4.0975314e-02   1.7581175e-01   2.7205728e-03   3.2339472e-01   6.6206852e-01   5.5587944e-01   9.3958442e-02  -2.3740771e-01  -4.1697551e-01  -6.8146500e-01   6.7417385e-03  -1.1656521e-01   8.5632357e-01   2.4796164e-01   1.6315014e-01  -2.1810405e-01   1.1580488e-01   5.5206212e-01  -2.8442273e-01   9.8917297e-01  -4.4773015e-01   8.5573902e-02  -5.1180882e-01   4.5773716e-02  -1.7260549e-01  -1.6159784e-01  -6.2287253e-01   8.5768280e-01   3.9159164e-01   5.5967848e-01  -9.3717184e-01   3.4320173e-01  -2.6239561e-01  -9.9455820e-01  -9.2339448e-01  -7.7693272e-01  -3.4530954e-01   1.5129563e-01   8.4605973e-01  -8.6437483e-01  -2.6880387e-01   5.6476876e-01  -6.2751515e-02  -3.5499028e-02  -2.5491538e-01  -2.6892489e-02   6.3278891e-01   9.6723282e-01   8.1496560e-01  -8.1641447e-01   4.2096857e-01  -3.3169623e-01   6.5780938e-01  -9.6241278e-01  -2.5701813e-01  -6.0236619e-01  -6.1378926e-01   1.6708488e-01   5.9280098e-01   5.5806923e-01   7.6539879e-01  -6.2806080e-01   4.1712760e-01   1.7593481e-01  -2.2161762e-01   2.9280183e-01  -8.9278127e-01  -5.2607347e-01   5.1867047e-01  -6.2672853e-01  -3.8094812e-01  -7.0304713e-01   9.2007478e-01  -1.3256959e-01  -6.4774072e-01   8.4297611e-01  -1.2628673e-01  -6.8039554e-01   7.1300529e-01  -5.5141160e-01  -7.3419084e-02   4.8200616e-01  -2.7744045e-01  -8.1865982e-02   4.0335227e-01  -1.5752709e-01   3.3172959e-01  -3.6557788e-02   7.9278360e-03  -4.5901458e-01   2.2726028e-01  -7.4573512e-01   2.9334986e-01   4.6820289e-01  -4.5180183e-01  -7.3401213e-01  -2.3364497e-01   9.1615886e-01  -3.0439349e-01   4.3097509e-01   9.4922493e-02  -1.7804118e-01   1.4342758e-01  -2.1414777e-01  -9.4846837e-02   7.8772823e-01  -1.2174639e-01   3.2176539e-01   9.5519435e-01   1.4876051e-01   5.3465595e-01   4.9357166e-01   9.9722385e-01   7.3065138e-01  -4.2773784e-01   7.3496085e-02  -7.1758414e-01  -5.1256329e-01   8.1447577e-01   6.1520098e-01   8.5047774e-01  -2.2048284e-01   4.1215150e-01  -6.6254042e-01  -1.5766929e-01  -1.1237705e-01   7.8399819e-01   6.1729507e-01   7.7343607e-01   8.3538889e-01  -8.6761142e-01  -5.3476658e-01  -6.7031314e-01   3.8521322e-01   7.6445801e-01   7.2673594e-02   1.8562314e-01   1.3219285e-02  -3.6778625e-01  -1.9134870e-01   9.9729033e-01  -8.0712015e-01   9.7236559e-02   7.3089776e-02   9.6698038e-01   9.0746543e-01  -5.1463539e-01  -1.8094279e-01  -5.0868938e-01  -3.9011894e-01   4.8358855e-01  -7.9977385e-01   5.3230617e-01   2.3605373e-01  -4.7122111e-01   3.1763258e-01   5.6522871e-01  -1.3595261e-01  -2.5630927e-01  -3.0018081e-01   3.4897231e-01  -5.7818044e-01  -4.8246755e-01   7.9967280e-01   3.9670422e-01   7.5015344e-01   6.1910805e-01  -1.5044637e-01  -2.3458540e-01  -2.7401210e-01   7.3072738e-01  -5.2037712e-01  -7.3417582e-01   1.5491082e-01  -9.0304780e-01   8.1010369e-01  -7.0279531e-01  -6.5603016e-01   4.2570951e-01  -7.8760968e-01  -8.1389687e-01  -7.2319998e-01  -9.2100215e-01   5.9419992e-01  -2.5185416e-01   9.7218174e-01  -2.1270992e-01   8.0653830e-01   1.2380146e-01  -3.3594215e-01   9.4563148e-01   7.4213370e-01   5.2761308e-01  -1.5557448e-01   8.8090342e-01  -2.1668147e-01   9.6903110e-01  -7.9254794e-02   2.0687342e-01  -7.9107858e-01   1.5868973e-01  -4.4559342e-01   1.8109358e-01   3.9454518e-01   1.2191307e-01   4.9738861e-01   6.8592659e-01  -9.6283252e-01   2.7906343e-01   9.3052831e-01   5.3365616e-01   4.5995480e-01   7.6452969e-01  -9.3789982e-01   8.1246873e-01   5.3601443e-01  -7.6977558e-01  -6.7250299e-01   1.4721525e-02   7.4101461e-01  -9.0972374e-01  -6.2309505e-01  -9.3387709e-01   6.0226418e-01  -2.5159466e-01  -4.7719832e-02   4.7401985e-02   3.1585778e-01  -3.4279260e-01   8.8830557e-01   7.0221231e-01  -6.5611933e-01   6.0768841e-01  -9.2258983e-01   1.6922677e-01   9.5610169e-01  -4.8266529e-01  -6.2093176e-01  -3.5236189e-01  -3.9519646e-01   4.5098254e-01  -9.8425848e-01   3.6542354e-01  -9.8055898e-02  -2.3600845e-01   2.0375370e-01  -2.8436423e-02  -1.4020029e-01   2.0716984e-01   6.1850932e-01   6.5837060e-01  -2.1378443e-01   4.4084770e-01  -2.1856003e-01   2.5502854e-01   5.9584158e-01   8.4572699e-01  -5.0806609e-01  -5.4552971e-01  -3.4174667e-01   1.0416368e-01   3.1380762e-01  -7.0833851e-01   9.5904286e-01   2.3840066e-01  -4.7556810e-01  -5.0199664e-01  -7.1333190e-01   1.5392466e-01   6.1763155e-01  -1.1663505e-01  -8.1462732e-01   5.8359511e-01   3.9964795e-01   3.2408832e-01  -3.7558523e-01   7.3451293e-01  -6.8529918e-01  -1.7696696e-01   2.6971388e-01   3.7427449e-02  -5.5498488e-01  -2.1818769e-01   9.6961438e-01  -6.9661143e-01  -3.6182715e-01   7.0991609e-02   6.1537824e-01   5.7322480e-01  -3.6397742e-01  -6.8194327e-01   3.5488790e-01   4.6772353e-02  -9.4387069e-01  -8.7897504e-01  -2.9006663e-01  -9.3427489e-01   8.5360076e-01  -1.7446451e-01  -6.3000758e-01  -2.5259832e-01   8.9043532e-01  -7.9548226e-01   1.0848364e-01  -4.2549292e-01  -5.2878920e-01  -6.5946050e-02   8.8561109e-01   3.6465633e-01  -3.8595724e-01  -7.7239929e-01   5.3300355e-01   7.3667762e-01   9.6616040e-01  -1.1902978e-01   8.6083363e-01  -6.2913155e-01  -3.5126219e-01   1.2369986e-01   3.9748659e-01   6.5338542e-01  -8.9491968e-01  -1.7806070e-01  -5.8738377e-01  -5.3875647e-01   2.6507459e-01  -7.3853807e-01  -4.4403273e-04   1.2793986e-01   3.1905816e-01  -6.2188458e-01  -1.3564131e-01  -1.1290739e-01  -9.7347504e-01   6.2638444e-01  -6.7045954e-01  -8.4514481e-01   1.3993617e-01   6.1254100e-02   1.4655706e-01  -5.8732171e-01  -1.4860010e-01  -4.0252723e-01   9.5259905e-01  -4.0067662e-01   7.0327741e-01  -6.5640876e-01   4.8771455e-01   7.1119579e-01   1.6176490e-01   9.7236156e-02  -4.9951369e-01  -5.5250281e-01   4.8669636e-01   5.6219569e-01  -7.9812825e-01  -3.0084385e-01   2.6141157e-01   3.0587184e-02   9.8832312e-01  -5.1963297e-01   7.6034036e-01   8.1970811e-01  -4.1590275e-01  -5.3544678e-01  -5.4942339e-01  -8.5999791e-01   9.4928608e-01  -2.3287838e-01  -7.6767258e-01   4.8818440e-01   2.7526942e-02   4.7346903e-01  -4.1117735e-01   7.4913370e-01  -6.5324977e-01   1.2363612e-01  -7.1509371e-01   1.4535330e-01   6.2507563e-01   5.0639788e-01  -2.0181960e-01   8.3696031e-01  -6.6097198e-01   6.3352770e-01  -8.1200783e-01  -2.0047404e-01   3.5058691e-01   9.8332270e-01  -3.3147332e-01  -9.6357434e-01   4.0427907e-01  -1.6577788e-01  -7.6818347e-01   9.0102612e-01  -6.4299716e-01   5.0045568e-01  -3.9231804e-01  -9.8640858e-01   5.9498498e-02   3.7029100e-01  -8.3777140e-02  -9.9327372e-01   9.2492504e-01   1.9880103e-01   9.2174091e-01   6.3561665e-01   2.6380740e-02   6.8789290e-01   2.5795899e-01  -4.4967965e-01  -8.1683428e-01   2.4047112e-01   5.5356337e-01   2.7165503e-01  -3.1679482e-01   7.2917826e-01   8.0522274e-01  -3.8586755e-01  -8.8989768e-01   4.5494337e-01   5.6999667e-01   1.5524197e-01   3.2172163e-01  -7.7242824e-01  -9.3748175e-01   5.6709424e-01  -6.3410490e-01  -8.7763778e-01  -5.0866199e-01   9.1094551e-01  -4.5820302e-01  -9.8451462e-02  -7.3009712e-02  -8.5344539e-01  -9.8647834e-01  -9.0774182e-01  -3.2030843e-01  -3.7150028e-01  -1.0023665e-01  -4.7622855e-03  -6.8846157e-02   4.7898554e-01   2.5932658e-01   1.0315771e-01  -3.8375105e-01   5.4347046e-01   1.1857229e-01  -6.6528489e-01  -8.4953294e-01  -8.8826173e-01  -5.4893060e-01  -7.1183065e-01  -8.5097624e-01  -7.7687692e-01  -8.8329816e-01   7.2365008e-01  -8.9402037e-01  -8.0727534e-01   8.8012491e-01  -5.8874221e-01  -8.6540755e-01  -6.3588206e-01  -6.4553127e-01  -3.3574326e-01   6.9265531e-01  -8.9148688e-01  -2.8282246e-01   4.9639137e-01   5.3919886e-01   6.7530582e-01  -4.0704670e-01  -3.2738874e-01  -1.3615957e-01  -1.3201618e-01   1.3852253e-01  -1.4055497e-01   2.0424790e-01  -6.8237335e-01  -6.0635942e-01   6.4327583e-01  -4.0894404e-01   8.6861140e-02  -5.6451136e-01  -4.0403548e-01  -9.4100399e-01  -6.7950461e-01   6.5297931e-01   9.9867692e-02  -2.9088261e-02   8.5530679e-01  -3.2594741e-01   1.8721273e-01
   2.2333330e-01   4.5054365e-01   9.3223383e-01   5.4231428e-01  -2.6846824e-01  -6.4059087e-01   1.8052928e-02  -5.8220691e-01   7.6077878e-01  -9.1542496e-01  -8.3423308e-01   6.2608793e-01  -3.3676873e-03   7.0669829e-01   9.3138580e-01   6.4024840e-01  -5.6113640e-01  -4.1661565e-01  -2.3682399e-02   9.6130689e-01  -5.7440036e-01  -5.1907954e-01  -7.8578643e-01  -7.5926244e-01  -2.2301308e-01   9.1430704e-01  -5.1292980e-01  -2.5778981e-01  -4.3917256e-01  -9.7617782e-01   2.4289755e-01   3.9079859e-01   2.5939148e-01  -8.3805636e-01  -7.3434544e-01   6.9099383e-01  -9.1351587e-02  -1.4378494e-01   9.7086627e-01  -1.3665049e-01   3.2310180e-01   8.3531418e-02   8.0152630e-01  -3.9434272e-01   8.0275294e-01   7.2997358e-01   3.4236096e-02  -8.3301645e-01   6.5419897e-01   8.4539398e-01  -5.2990920e-01  -5.4604266e-01  -9.0151354e-01   3.0208317e-01   7.8275483e-01   3.7722360e-01   5.6599389e-02   4.3518897e-01   4.6186868e-02  -2.8186369e-01  -2.6064235e-01  -4.8351728e-01   6.2758000e-01  -6.3804025e-01   7.5771934e-01   6.1206428e-01   8.4138059e-01  -5.3216728e-01   7.2902785e-01  -5.9096002e-01   1.9033530e-01  -8.8496879e-01   7.4568811e-01  -4.3319303e-01   8.5365547e-01  -6.7567135e-01   5.7803870e-01  -2.4014085e-01  -1.4496504e-02  -7.5058695e-01  -6.5440782e-01  -9.7166598e-01  -8.0500629e-01   4.5297620e-01  -2.8226496e-01  -7.3899135e-01   4.8079344e-01   9.4576466e-01  -7.4578736e-01   4.2676728e-01  -8.9403130e-01  -4.1083443e-01  -5.4950593e-01   6.5545615e-01   9.9459623e-01  -2.0952375e-01   6.0166921e-01   3.8795203e-01   1.1555539e-01  -8.1124541e-01   2.4605826e-01  -2.9395451e-01  -9.6306165e-01  -6.3330703e-01   9.1732654e-01   8.5094371e-01  -4.1008241e-01   9.7628241e-01   7.4048448e-01   8.1179368e-02  -1.5102476e-01   3.9143335e-01  -3.6922336e-02  -5.6301768e-01  -7.8498523e-01  -2.7263857e-01   7.1851560e-01   7.5268368e-01  -9.5042636e-01  -6.6212904e-01   7.4337822e-01   6.6212710e-01   2.0034228e-01   6.8302593e-01  -8.5621601e-01   7.8996350e-01  -3.1436777e-01   8.7376253e-01  -6.4507388e-02  -5.4512237e-01  -2.0449451e-01   8.4008405e-01   5.7433798e-01  -8.5055618e-01   9.1802459e-01  -9.5705019e-01   9.1367009e-01  -4.4799388e-01   8.0145549e-02   9.2853061e-01   5.5823054e-01   8.0372917e-01  -8.3051776e-01   3.9122426e-01  -1.4934143e-01  -4.5293434e-01  -3.4027987e-02   4.9834775e-01   9.2791272e-01  -4.7747327e-02   1.5490009e-01  -5.2053933e-01  -3.5511623e-01   4.5045555e-01  -1.8305980e-02   6.9723708e-01   1.4718861e-01  -3.1379481e-01  -1.6676883e-01  -2.2079884e-01  -4.4066157e-01  -6.9829669e-02  -6.5247810e-01   4.7542572e-01  -5.1416691e-01  -3.6053496e-01  -2.3297629e-01  -5.1832919e-01   9.8373133e-01  -2.5495394e-01  -8.1212664e-02  -4.5707956e-01  -1.3234890e-01   2.0756014e-02  -6.3180499e-01   6.3803007e-01  -7.6704060e-01   8.3743795e-01   3.3661388e-01  -5.2526940e-01  -7.8665108e-01   7.5400453e-01   5.6673473e-01  -1.3302042e-01   6.9136909e-01  -4.4230861e-01  -1.3072278e-01   3.5626805e-01  -3.4790361e-01  -8.3821369e-01  -4.2131534e-01   9.1966041e-01  -1.3024203e-01  -7.0020665e-01  -5.0326205e-01  -4.6086488e-02  -9.0416282e-01  -3.7958750e-01   9.1702858e-01  -8.7095134e-01  -9.5791283e-01  -5.4440482e-01   7.5865806e-01   5.3576979e-01   9.7530008e-02   3.8238820e-01   1.7830793e-01   7.1401715e-01  -4.4002881e-01   5.5793197e-01  -5.1792955e-01   4.1472014e-01   3.5713314e-01   5.6338656e-01  -5.0769692e-01  -3.4568273e-01   2.2528733e-01   2.7777671e-01  -3.6490773e-01   9.8382608e-01   1.4032500e-01   5.2655406e-01  -5.7200226e-01  -6.4736670e-03  -8.8614288e-01  -4.5492531e-01  -9.7656840e-01   4.9708717e-01  -4.9068144e-01   6.5211302e-02  -3.7197705e-01   6.4356441e-01  -5.1214927e-01   4.8338157e-01  -3.8954496e-01  -6.2626682e-01   6.5670225e-01   2.0562355e-01   5.2654458e-01  -7.4794980e-01  -5.8913670e-01  -9.0226360e-01  -2.3526520e-01   5.2461913e-01  -2.0175620e-01  -6.9323219e-01  -2.6007282e-01   6.7990415e-01   3.4665843e-01   5.2447083e-01  -5.5717535e-01   9.2843071e-01   5.5735669e-01  -7.3632789e-01   8.4076971e-02   6.4908979e-01  -3.5173541e-01   4.6855881e-02  -3.5584398e-01  -6.4708505e-01   5.4627827e-01  -9.6464411e-01  -5.7580603e-01  -9.8252150e-01  -8.0629704e-01  -1.7160903e-01  -7.5726999e-01  -7.4758867e-01   8.6198646e-01  -7.0963266e-01   5.8406067e-02  -2.9948460e-01  -8.1638642e-01   8.8778967e-01   8.0876501e-01   7.9406840e-01  -2.2641718e-01  -8.6187278e-01  -9.8144271e-01   6.4765546e-01   4.9854002e-01   3.8385575e-01  -9.8578895e-01  -5.9912707e-01  -7.0840556e-01  -8.5022488e-02   8.8708360e-01  -9.0403787e-01   9.3049094e-01   2.0067198e-01   6.9197288e-01  -9.1536255e-01  -7.7919649e-01  -2.3818867e-01   8.3387165e-01  -7.3538831e-01  -2.6895058e-01   4.9321605e-01  -2.2102834e-01  -2.3998931e-01  -2.0495956e-01   5.7533851e-01   1.1339175e-01  -7.0819062e-01  -6.5078926e-01   9.2529550e-02  -5.2880490e-01  -1.9272882e-01  -9.7627461e-02  -7.3346896e-01  -3.0016396e-01   1.0364283e-01   4.6129764e-01  -9.8987873e-01  -1.1699045e-01  -2.1100909e-01   5.7867499e-01  -7.4391646e-01   5.9537458e-01   3.8044230e-01   5.6118201e-01  -7.7777692e-01  -1.6865600e-01  -6.8206142e-01  -7.7433692e-01  -2.3260892e-01  -2.9305280e-01   5.5227859e-01   3.8157639e-01  -8.4841048e-01   4.4312884e-01  -2.2383622e-01  -5.0106980e-01   6.8367891e-01  -2.5487141e-01  -9.1420251e-01  -7.1371943e-01   8.1539462e-01   3.0671275e-01  -6.0292481e-01   4.7490432e-01   8.5639612e-01   7.0253948e-01   2.5374309e-01  -9.7905583e-01   1.2676946e-01  -4.3770112e-01   6.4314318e-01   3.4616005e-02   3.6218052e-01   2.9429757e-01   2.3042237e-01   1.5980111e-01  -7.3615594e-01  -9.6076205e-01  -4.4707071e-01   3.3673081e-01  -1.7941278e-01   9.6444716e-01  -8.8805394e-01  -3.2687048e-01   6.7271423e-02   4.0547842e-01  -3.2270874e-02  -4.6706647e-01   5.4930895e-01   2.4202087e-01   6.6908748e-01   9.0786188e-01   8.1053930e-01  -7.2293971e-01  -8.3299928e-02  -5.7067904e-01   6.8865387e-01   7.1169479e-01   7.9984749e-01  -3.9048513e-02  -5.1463612e-02   3.6522099e-01   1.6887619e-01  -3.7735801e-01  -8.7452830e-01  -4.9193361e-01   6.4457365e-01  -5.4093901e-01  -4.1598743e-01  -3.4038332e-01  -6.7457273e-01  -9.7130357e-03   9.4516538e-01  -3.0380891e-01   6.4378529e-01   1.0092639e-01   6.2173086e-01  -8.9717782e-01  -5.8940559e-02  -4.3051710e-01   2.4317636e-02  -7.8734852e-01  -3.9776308e-01   5.5367895e-01   6.8095973e-01  -5.9659687e-01   9.9673691e-01  -1.4527904e-01  -2.0766243e-01   1.1513658e-01  -8.2860612e-01  -3.4149551e-01  -9.0835794e-01  -2.2386928e-01  -6.1151268e-02  -9.0782953e-01  -7.8939536e-01   7.0580758e-01  -3.7485038e-01  -9.1585090e-01   7.0587025e-02  -4.3055583e-01  -5.4241223e-01  -1.0123994e-01   3.3646934e-01  -7.1404189e-01  -7.6366886e-01   9.6695133e-01  -9.5146972e-01  -7.4333638e-01  -8.8307116e-01  -5.6874093e-01  -4.7333226e-01   7.2237509e-01   1.9970797e-01  -3.5970128e-01   8.5666565e-01   8.6176114e-01  -9.9852636e-01  -8.4015798e-01  -1.4004175e-02   8.7913647e-01  -9.4776994e-02   8.0488856e-01  -2.7078158e-01  -4.5560481e-01   5.7119916e-01   5.9324402e-01   8.7780019e-02  -3.5076771e-01   8.8976713e-02   5.6089995e-01  -6.3185977e-01  -4.3426399e-01  -7.5185678e-01  -4.0116982e-01  -4.5584987e-01   1.9752081e-01   1.3848522e-01  -2.9381221e-01   4.9397486e-01  -1.1204467e-01   5.0432978e-01   4.8611749e-01   9.2616579e-01   1.3826987e-01  -8.2764372e-01   1.6033615e-01  -7.5854827e-01   1.2710530e-01   2.9385304e-01   9.1713415e-01  -8.9685378e-01   5.7171064e-01  -8.8028714e-01  -1.0172271e-01  -1.0857846e-01  -3.1270790e-02   7.9081051e-01   2.2669262e-01  -3.5862187e-01   7.1173768e-01   9.3866112e-02  -2.1832072e-01   8.3166548e-02   4.5305433e-01   5.1792870e-01   7.6880189e-02   8.0560335e-01   5.8639415e-01  -8.9133394e-01   6.5879437e-01  -2.8760548e-01   9.8637279e-01   6.6158787e-01  -5.2283105e-01  -9.9285096e-01   8.0180859e-01  -9.6406660e-01   8.4372821e-01   4.5016072e-01  -1.6402406e-01  -1.7508062e-01   4.6788332e-01   4.0167816e-01   8.8192580e-01  -1.6330951e-01   5.1959619e-02   7.5880903e-01  -6.3993454e-01   2.7982451e-01  -2.6967021e-01  -3.4584081e-01   2.5114802e-01  -1.3923932e-01  -4.7156324e-01   9.6633771e-01   7.7290603e-01  -5.1061008e-01  -1.4158255e-01   1.0877912e-01   5.4887028e-01  -9.3316085e-01  -1.5642143e-01  -1.5058579e-01   6.7806880e-01   6.4891070e-01  -2.9119187e-01  -8.9309105e-01  -5.4812297e-01  -9.3645011e-01   9.9106723e-01   1.7508176e-01   4.4624715e-01   5.9174779e-02   4.8969807e-01  -6.1205370e-01   7.0070723e-01  -7.3548410e-01  -2.1817271e-01   9.9918078e-01   9.3420054e-01   7.9160876e-01   8.9322102e-01   7.9291414e-01  -6.2119145e-01   4.3587649e-01  -1.3079587e-01   3.3877458e-01   9.6074657e-02  -3.3590405e-02   7.9650106e-01  -4.9966652e-02   5.8579906e-02  -7.6305977e-01   8.5426028e-01  -9.3542210e-01  -4.6864351e-01   2.0455801e-01  -9.2329474e-01   5.3832678e-01  -1.4795041e-01   9.7010545e-01   8.6344625e-01  -2.0202016e-01  -3.0321521e-01   3.2771286e-01   2.0912319e-01   4.1088687e-01   7.5475657e-01   3.7585572e-02  -2.6352209e-01   3.4572008e-01  -4.0511637e-01  -9.8534244e-01   9.2206261e-01   4.3710223e-01  -7.8323676e-01   2.0329634e-01   6.8260787e-02  -8.2358084e-01   8.5342496e-01  -3.1100716e-01   5.1781725e-01  -5.8978691e-01  -2.0087119e-01  -3.1021904e-01   3.2908372e-01   1.4450149e-01   6.8367263e-01  -4.6819501e-01   6.5392405e-02   1.9813606e-03   4.1922398e-01  -5.3190506e-01  -9.9768879e-01  -8.8704919e-01  -4.6449221e-01  -3.1001176e-01   8.0753966e-01   7.9168617e-01  -7.8624986e-01   8.7473151e-01  -9.9278860e-01   2.6714646e-01  -6.5241007e-02   3.9188713e-01  -6.0650516e-01   6.1696063e-01   8.5067346e-01   9.0173689e-01  -5.7390886e-01  -9.1147141e-01  -9.2773706e-01  -7.5036924e-02   2.2444339e-01  -9.5468762e-01  -9.0568858e-01  -8.9311872e-01  -3.8813856e-01   7.8018368e-01  -3.3963570e-01   5.5728526e-01   3.5144329e-01   1.4004769e-01  -7.9954527e-01  -8.6754581e-01  -1.2323377e-01   4.7177249e-01  -4.8734016e-01   1.9549027e-01  -1.7208944e-01   5.4697052e-01  -1.8118561e-01  -9.6692820e-01  -5.1933269e-01   8.9868693e-01  -4.2829439e-01   3.9701924e-01   1.8123993e-01  -1.3461125e-01   1.9647872e-01  -3.6234896e-01   1.2633881e-01  -3.4758686e-01  -5.2183381e-01   6.5035908e-01   3.8533479e-02   9.2383115e-01   9.2717848e-01  -6.1823153e-01   9.2837679e-01  -2.3967095e-02  -8.6728168e-01   8.7982685e-01   9.9716881e-01  -9.9765753e-01   6.0255063e-01   2.6452679e-01   6.2569440e-01  -7.7175334e-01  -8.1946070e-01  -9.0120754e-01   3.5595859e-01  -5.1297236e-01   7.3573987e-01   9.7479984e-02   1.5877625e-01   7.4137363e-01   6.2843967e-01   7.0219213e-01  -2.9608703e-01  -7.6197178e-01  -7.8284351e-01  -4.7564224e-02  -1.7791988e-01   7.1775579e-03   2.4330217e-01   5.9876210e-01  -1.7708051e-01   4.6043622e-01  -2.8542256e-01  -7.0900286e-01   1.2811838e-01  -2.9183376e-01  -6.0532311e-03   6.6081862e-01   3.1243916e-02   2.4081692e-01  -9.3140532e-01  -7.8796743e-01  -6.1586390e-01  -6.6383610e-02  -3.0798666e-01  -4.0454877e-01   5.3266341e-01  -2.7747383e-03  -5.9238066e-01   6.9498024e-01  -9.9715115e-01  -9.7234456e-01  -7.8153201e-01   4.6251021e-01   7.7927283e-01   4.6082839e-01  -7.6051493e-01   4.6213787e-01  -6.5874466e-01   9.2558553e-01   4.6474968e-01   2.0825798e-02  -4.5712570e-01   6.2747945e-01   3.1119845e-01  -7.4754671e-01   6.0837217e-02   7.6901729e-01  -2.4705292e-01  -9.6157957e-01   1.2817818e-01   8.2817533e-01  -9.7930637e-01  -9.3342712e-01  -1.9596492e-01  -3.9107853e-01  -6.5400546e-02   3.9122974e-01  -5.1983736e-01   3.7026036e-01   7.2076018e-01   1.1706872e-02   5.5731812e-01   3.5835946e-01   2.6350556e-01  -3.2002863e-02   7.4232616e-01  -2.7447097e-02   8.7233700e-01  -1.1894488e-01  -3.5842595e-01  -4.1424640e-01   3.7904655e-01  -1.6426182e-02   4.1441777e-01   2.1845892e-01  -3.3385204e-01   2.9340020e-01   5.6320038e-01   7.4774219e-01   4.1307906e-01   9.6123976e-01  -8.5982637e-01   3.9109397e-01   9.6111466e-01   4.9130259e-01  -6.0651466e-02  -1.0051210e-01  -5.6627934e-01   7.7987868e-01   4.4571193e-02  -6.4901727e-01   8.2401682e-01  -2.7354252e-01   6.3168945e-01   6.7889295e-01   4.1752181e-01  -8.6134476e-02  -3.8325319e-01  -4.7228359e-01   2.8226161e-01   1.7377126e-02  -5.7461758e-02   2.6746846e-01  -7.5540336e-01   9.2820742e-01   2.7139806e-01  -9.2307021e-01   9.3568198e-01  -6.9581117e-01   5.6858874e-02  -4.2455284e-01  -6.9005278e-01  -4.2985303e-01   4.1758652e-01  -5.1187914e-01  -9.0728579e-01   7.9448761e-01   7.8842024e-01  -9.2859249e-02  -6.2457901e-01  -7.2808356e-01   7.6057561e-01  -5.6573767e-01   1.1330840e-01  -4.3123167e-01  -7.9510868e-01   9.3571535e-01  -9.4730052e-01   1.0175106e-01   2.8752527e-01  -4.7892855e-01  -8.9221899e-02  -5.2515115e-01  -4.4086704e-01  -4.5789984e-01   2.4404673e-01   1.3230422e-01   8.1592088e-01   7.0597449e-01  -2.0537892e-01   4.4046563e-01   9.3722430e-01  -6.1785067e-01   2.6258304e-01   6.7304834e-01   9.6926833e-01  -8.5847410e-01   8.3915893e-01  -7.4000830e-01   1.4734367e-01  -7.7855769e-01   8.0783425e-01   6.4414308e-01  -5.2634379e-01   4.7441511e-01   5.0986050e-01  -3.3771471e-01  -9.7520631e-01   1.1843057e-01  -3.2061470e-02  -4.3455168e-01  -4.4646705e-01  -6.5760373e-01  -2.5776194e-01   2.4069308e-01  -5.4528525e-01   2.6699333e-01   4.0837933e-01   7.9775748e-01   5.1464743e-01   7.3329345e-01  -5.6104337e-02  -1.7692129e-01  -8.2200754e-01  -2.3424001e-01   7.0372968e-01   9.5921183e-01  -1.1281823e-01   8.5492338e-02   9.5653507e-01   2.2538040e-01   8.2882538e-01   9.5664679e-01   2.3334294e-01   1.7277598e-01   3.6707810e-02   3.8122133e-02   2.6822422e-01   6.5151637e-01   3.1314013e-01  -6.1965693e-01  -2.0384731e-01   8.3202212e-01  -6.7649775e-01  -1.3210286e-01  -1.2612615e-01  -6.9149456e-01  -5.4114558e-01  -5.1673728e-01  -9.7090461e-01   4.1335545e-01   9.1369839e-01  -1.4676516e-01  -5.0012115e-01  -9.4354544e-01  -3.1845372e-01  -1.1186129e-01   6.0564027e-01  -3.3025185e-01  -2.3092161e-01   7.7258913e-01   8.6875047e-01   9.9481370e-01  -6.0907997e-01   9.5767277e-01   8.2657063e-01  -8.3889925e-01   1.6555405e-02   3.8811858e-01  -9.1660399e-01  -1.7234069e-02  -4.0609090e-01   1.2520543e-01  -9.9581718e-01   9.7605074e-01   9.8866287e-01   9.6722286e-01  -1.5767563e-01   6.8147592e-01  -2.9400398e-01  -2.7975923e-01   4.3120030e-01   7.5770646e-01   7.4819408e-01   2.5275988e-01   7.9203780e-01   9.3494274e-01  -2.4659465e-01  -7.0666563e-01   9.6925380e-01  -3.3026349e-01  -9.6725586e-01   5.0929138e-01   8.5611741e-01   6.5836538e-01   4.9439709e-01  -4.3886483e-01   4.6954799e-01  -9.4833283e-01  -2.3846549e-01  -3.8683697e-01   2.8866894e-01   3.6132054e-01   9.7327899e-01  -8.5324014e-01   9.7102862e-01   5.7317539e-01  -8.1537776e-01  -7.2895998e-01   4.8838668e-01  -5.2096362e-01  -1.3334304e-03   2.3484857e-01   2.1752822e-01   3.4957539e-01   6.9491055e-01  -9.4637356e-01  -6.3043327e-01   9.7887711e-01   3.5323166e-01   5.8431820e-01   2.0471554e-01  -5.2295483e-01   1.6072204e-01  -1.3478294e-01  -9.5885693e-01  -3.2361292e-01  -4.5699233e-01   8.5843252e-01   8.9829657e-01   5.9834911e-01  -5.1550885e-01  -2.7486776e-01   6.2442448e-01  -2.1562098e-01   6.0442959e-01   8.1009758e-01  -7.2870923e-01  -6.0026946e-01  -1.8363299e-01  -1.9092330e-01  -4.6725607e-01   9.7885919e-04  -9.1582865e-01  -4.1649204e-01  -1.4355657e-01  -8.4923555e-01   5.0804875e-01   7.1664946e-01   7.3108770e-01  -1.3301290e-01   2.8921844e-02  -7.8714713e-01   5.4161758e-02   9.4953726e-01  -8.0962566e-01  -5.3816336e-01   3.3233789e-01   7.2731558e-01  -8.8038765e-02  -9.6525541e-01  -8.2583105e-01   9.4733457e-01  -6.4825195e-01  -5.3413516e-01  -5.2748417e-01   7.7480533e-01   8.3829684e-01   5.4614327e-01  -4.0068493e-01   2.4479792e-01  -7.6244018e-01  -1.6670396e-01   6.0756578e-01   6.6514128e-01   6.7466259e-01   8.3375122e-02  -3.9184175e-01   7.7354105e-01   4.5361291e-01  -6.5210165e-01   4.3905984e-01   7.1527403e-01
   9.7460022e-01   6.1615472e-01  -6.6019731e-01   3.4048993e-01   3.4437225e-01  -6.1396168e-01   9.2250123e-01   7.7926089e-01   2.0411357e-01   3.9827736e-02   2.4232652e-01  -3.9951396e-02  -3.0431715e-02   9.9459327e-01   7.3840725e-01  -9.9082765e-01   2.0517786e-01   2.4392342e-01   9.7152565e-01  -3.0558928e-01   6.8634761e-01  -5.1683139e-02   1.1022993e-01   6.8097836e-01   1.7914504e-01  -4.8084652e-01  -6.7487654e-01   4.5881640e-01   7.2275914e-01  -8.2193402e-02   5.2675535e-01  -5.5952221e-01  -7.7247075e-02   7.8905588e-01   9.0078154e-01  -2.1421481e-01  -9.7291324e-01   6.5258547e-01   1.8074318e-01  -4.4240903e-01  -2.5067629e-01   5.5539657e-02   6.1392709e-01  -9.7602857e-01  -3.7769319e-01  -8.7212308e-01   7.7083838e-01   6.6260414e-01  -6.1707950e-01  -4.1984085e-01  -1.4668144e-01  -5.8402901e-01   5.9601503e-01  -1.6618114e-01   8.4161227e-01   8.6015037e-01  -3.6734533e-01  -1.8689294e-01   3.5606823e-01  -1.1357216e-01   9.1182074e-01   1.6946022e-01  -8.1025784e-01   1.3998272e-01  -7.4140237e-01   5.0061868e-01  -7.4913782e-02  -1.7005061e-01  -4.1650290e-01   7.0224574e-02  -5.7257153e-01   4.2655203e-01   2.5969289e-01   1.3817306e-02  -4.7198873e-01   4.0191496e-01  -4.5790420e-01   1.2132436e-02  -9.6255435e-01   7.7073174e-01   7.7022864e-01   9.2574044e-01  -6.9701776e-01  -2.9650898e-01  -1.2346698e-01   2.9245783e-01   4.3137026e-01   6.4335393e-01   8.3407966e-01  -8.8652766e-01   7.8222909e-01   5.3566125e-02  -9.7886486e-02   4.0333512e-01   2.7942195e-01   2.8497577e-01  -3.5301462e-01  -6.9149959e-01  -5.5644570e-01   3.3334896e-01   9.5366240e-01  -5.8134906e-01   5.0737609e-02   3.8468592e-01   4.2402085e-01  -2.1168717e-01   1.1203216e-01   5.5212477e-01  -1.6727483e-01  -5.0662122e-01   3.7231047e-01   4.4023399e-01  -7.2781417e-01   6.0224907e-01  -7.4560637e-01  -1.2129981e-01  -4.6247973e-01   3.3753958e-01   4.1624131e-01   4.0031715e-01  -7.2577622e-02  -5.1746948e-01   4.9280408e-01   8.5544385e-01   9.8548054e-01   8.0366747e-01  -6.5659010e-01   8.7367605e-01  -8.3603593e-01   3.0480444e-02   9.3627672e-01  -3.7949503e-01   6.9435877e-01  -7.7602177e-01   7.7321839e-01  -2.4614812e-01  -8.3614400e-01   5.4680887e-01   1.8425326e-02  -4.3653132e-01  -1.0608018e-01   4.7814237e-01  -8.5966531e-01  -9.0785235e-02   2.4983418e-01  -9.5119763e-01   6.0106698e-01  -6.7180095e-01   8.5992268e-01  -9.7029119e-01   3.1781406e-01  -6.5975207e-01  -8.7468563e-01  -6.2978566e-01   4.5172471e-01  -7.0716553e-01   9.8364375e-02  -5.4329727e-01   1.7499178e-01  -1.0710615e-01   2.7964914e-01   6.7700260e-01   7.5527900e-01  -3.5117802e-01   1.5318766e-01   5.4822226e-01  -1.0341925e-01  -6.2786124e-01   2.0811174e-01  -9.3458171e-01  -1.7747365e-01  -2.2989369e-01  -1.8438990e-01  -3.6725827e-01  -9.3661935e-01  -3.6776800e-01   3.8042710e-02  -1.5057778e-01  -1.8633070e-01  -9.5911511e-01  -1.2633566e-01   8.9554903e-01   6.4515995e-01   6.9229229e-01   3.4337955e-01  -3.2169288e-01  -2.6282056e-01  -1.5513605e-01  -9.9217093e-01  -9.3806591e-01   9.9115114e-01  -2.9025960e-02  -7.1092527e-01   4.2930265e-01  -6.9702750e-01   1.0714932e-01   1.2684530e-01  -9.9994557e-01  -9.6929566e-01   4.2459325e-01   1.0080863e-01   7.3778504e-01  -5.5059823e-01   8.0893039e-01   3.6307986e-01   1.8407820e-02  -4.8267248e-01   6.1343310e-01  -6.6599507e-01  -1.8364469e-01   3.8504252e-01   9.9829854e-01  -9.8801191e-01   2.4665941e-01   3.4036314e-01  -8.5187643e-02  -8.7650293e-01   4.1835778e-01  -7.5190070e-01   6.2918103e-01   6.9905012e-01  -5.1614021e-01  -3.3520540e-03  -9.0950133e-01   3.3561183e-01   7.8853107e-02   3.2347432e-01   1.5545999e-01   1.7463186e-01  -2.7373257e-01   3.3452764e-01  -3.1704542e-01  -2.5699652e-01  -1.2694313e-01   6.9310873e-01   4.1791193e-01  -2.9078092e-01   7.6201627e-01   2.3904340e-01  -4.5667369e-01   5.1429609e-01   5.0108341e-01  -1.1889162e-01   7.3638619e-01   7.0798081e-01  -3.9719098e-01   8.8124774e-01  -5.7413255e-01   7.1028145e-02  -8.6044800e-01  -8.7745641e-03   5.0421371e-01  -1.8536769e-02   7.4400721e-01   2.5540234e-01   6.7804320e-01  -3.1633552e-01  -9.7805488e-01  -7.4490389e-01  -8.1141122e-01  -2.4262983e-01  -3.1033217e-01  -4.7144488e-01  -2.3899464e-01  -4.3444971e-01   3.4458446e-01  -7.3733048e-01  -3.0483854e-02   5.1823486e-01   2.6319927e-01  -8.3217004e-01  -5.5350867e-01   1.7651328e-01  -4.3529443e-01  -2.6052417e-01  -8.2628668e-01   7.8974693e-01  -4.1634491e-01  -7.1623658e-01  -8.8179709e-01  -4.5676457e-01   7.5970298e-01  -1.1816333e-01  -8.2381135e-01  -9.2202095e-01   5.6447261e-01  -7.1322067e-01  -3.9879612e-01  -1.0361282e-01  -5.5097736e-01  -6.9751470e-01   6.1230563e-01  -8.7693433e-01   5.3507382e-02   6.6475773e-02   5.2561166e-02  -3.9843916e-02   8.9352245e-01   5.8325310e-02   8.3462665e-01  -5.9805368e-01  -1.0776466e-01   9.7651069e-01   8.0331175e-01  -1.1051061e-01   2.1932183e-01  -9.5011531e-01  -8.0203372e-01   1.3691224e-03  -7.8960901e-01   5.6445087e-01   5.6673471e-02  -8.4789068e-01   8.4295498e-01   2.8459559e-01  -1.7567086e-01  -4.0367047e-01  -3.2391335e-01   3.8452207e-03   6.5935733e-02   5.4920184e-01   7.1841349e-01  -3.5553241e-01  -6.8075877e-01  -4.6559158e-01   1.2643908e-02  -3.9011437e-01  -5.5684934e-01  -7.9740734e-01  -2.4965103e-01   5.4655716e-01   2.6766276e-01  -5.7133223e-01  -6.0190973e-01  -7.3113040e-01   8.5175256e-01   6.0393939e-01  -6.8722423e-01   8.6945963e-01   3.0708241e-01  -9.7011817e-01  -1.4353740e-01  -5.9080056e-01   1.3311201e-01  -8.3606451e-01  -9.0445088e-01  -4.1728686e-01  -3.7340971e-01   5.6000124e-01   7.9674248e-01   2.6793490e-01  -6.3522602e-02  -5.2340802e-01  -4.7882017e-01  -7.1885585e-01  -8.6043408e-01   7.9665674e-01  -3.7118109e-01  -1.5248694e-01  -2.3274987e-02   7.3401906e-01   3.5703649e-01  -9.6940639e-01   4.8782302e-01  -1.0178437e-01  -9.3743945e-01  -2.1895567e-01  -7.4520970e-01  -6.1044008e-01  -6.3200666e-01   2.0947653e-01   4.0177669e-02   7.7208093e-01   2.9188181e-03  -4.6237680e-01   7.7037098e-01   2.5718677e-01  -5.4749568e-01   5.2729274e-01   9.8953704e-01  -2.8143595e-01  -6.9463007e-01  -5.1242452e-01   2.9767743e-01  -6.5443711e-01   8.9340845e-01   6.3363120e-01  -7.1472857e-01   5.4039090e-01  -1.6046569e-01   4.5296963e-01   3.2535570e-02   2.3817621e-01   3.1682435e-01   9.5755622e-01   9.7189547e-01   4.5090633e-01  -4.1024389e-01   8.2726473e-01   1.0068522e-01   5.9621937e-01  -8.8223217e-01   2.8346545e-01   7.6075943e-01   3.5773355e-01  -9.3644913e-01  -7.2318584e-01   3.8887706e-02   4.1181803e-01  -1.1335260e-01   9.7454049e-01   6.4886976e-02  -8.8597538e-01  -3.0416951e-01   7.3808407e-01  -7.5096936e-01  -6.5567918e-01  -6.6179291e-01  -4.2748785e-01   3.8481702e-01   2.4513069e-01  -1.4020237e-01   4.3485242e-01  -4.8678327e-01  -1.3828364e-01  -7.2584330e-02   7.8753178e-01  -1.6887903e-01   9.3993495e-01  -2.8194905e-02  -7.9833856e-01  -9.4565777e-01  -4.4708610e-03  -5.1362372e-01   3.9010181e-01  -3.7845548e-01   3.0274622e-01  -9.2400428e-01   7.5965456e-01   3.8728960e-01  -5.3245059e-01  -1.5735343e-01   1.0267479e-01  -3.0509951e-01  -4.9751686e-01   8.3322217e-01   7.0288248e-01  -9.9859999e-01  -5.5270474e-01  -4.2326011e-01  -3.8081665e-01   1.9795523e-01   9.1514592e-01   8.1786931e-01  -3.0546379e-01  -6.3977798e-01  -6.7412817e-01   3.4485620e-01   8.0795409e-01   9.4044763e-02  -4.4648314e-01   9.4785181e-01  -4.2974178e-02   4.7226414e-01   8.6072471e-01  -7.4601152e-01  -3.4133078e-01   7.2035645e-01  -3.1473596e-01   5.8906419e-01  -6.6136980e-01   2.7375771e-01   5.6112618e-01   8.0805543e-01  -1.6666778e-01   3.2866595e-01  -8.0575960e-01  -2.7479594e-01  -1.2259197e-01   1.7769517e-01   4.3929880e-01  -2.0753992e-01  -8.0771715e-01   6.6229247e-02   5.6918821e-01   3.6905624e-02   5.3550268e-01   7.2928525e-03   7.5667611e-01  -5.5539098e-01  -7.1908177e-01  -7.2867031e-01   8.5961423e-01  -4.6444078e-01   8.3740823e-01  -6.9733902e-01   7.4123007e-02   2.7124315e-01  -3.0390851e-01  -6.0368523e-01   4.2814815e-01  -6.1462175e-01   6.5426088e-02  -2.2935494e-01  -4.5886184e-01  -9.0491558e-01   6.9511472e-01   1.4290922e-01  -4.4914547e-01  -2.8309202e-01   5.1991140e-01   1.1513577e-04  -9.8780099e-01  -8.8490525e-01  -2.5465683e-01   6.1355434e-02  -1.8368466e-02   2.7023257e-01  -9.3245934e-01   7.0355767e-01   8.6978813e-01   8.5469984e-01   2.8322303e-01  -2.8315919e-01   9.8739147e-01  -1.3054303e-01   6.9227911e-01   8.9268771e-01  -4.4922152e-01   9.4330658e-01  -7.2366563e-01  -8.8834915e-01  -4.1156349e-01  -4.0720537e-01   3.0755777e-01  -3.7344348e-01  -3.2994048e-01   5.0975990e-01  -5.0167220e-01   8.6423310e-01  -8.3577248e-01  -4.5728393e-01  -8.8585093e-01  -8.5479961e-01  -8.1796689e-02   8.8725893e-01   2.0953938e-01   7.9834652e-01   6.8667764e-01  -2.2938352e-01   6.0718550e-01  -6.3939012e-01   3.6306229e-01   6.7833183e-01   5.3207273e-01  -6.3983393e-01  -9.2222380e-01  -7.5968013e-01  -9.8468827e-01  -7.6870704e-01  -8.6771465e-01   9.9350684e-01  -7.9253901e-02  -2.7014441e-01  -8.5490881e-01  -3.9441879e-01  -3.7864657e-01  -7.5493002e-01   4.1376242e-01  -3.5426792e-01   3.6598460e-02   4.5334117e-01   4.7411071e-01  -6.7121901e-01  -5.1191937e-01  -8.7419373e-01  -3.3890108e-01   6.2133815e-01  -9.6834333e-01   6.7855109e-01  -1.8179168e-02   4.3802086e-02   4.5969109e-01   9.3492696e-02   9.5374330e-02   6.7561570e-02  -5.3476831e-01   6.5123572e-01   2.7242341e-01  -4.9107997e-01  -6.1580907e-01  -2.3463372e-01   7.0711476e-02  -3.3998778e-01  -2.1561814e-01   6.3843331e-01   2.5675256e-02  -4.1797899e-01   6.3907933e-01  -2.6291500e-01  -3.4723642e-01   3.0907646e-01  -6.3548320e-02  -6.3660431e-02  -2.1056164e-01   6.2509639e-01  -9.0475917e-01   9.9636648e-01   8.1066487e-01  -8.5412310e-01   1.5470209e-01   5.7305784e-01   7.3739879e-01   9.6554996e-01  -9.8850022e-01  -6.6807884e-01   4.7875490e-01  -2.4593259e-01  -2.0489017e-01  -1.1821678e-01   9.2926056e-01   2.9013734e-01   4.4294152e-01   6.9935418e-01   7.8094557e-01   3.6521239e-01  -2.2099512e-01  -3.0508284e-01   1.7572253e-01  -2.0566352e-01  -5.7343195e-01  -5.2735833e-01  -5.2326533e-01  -6.3849072e-01   2.6844531e-01  -3.8399979e-01  -3.7476679e-01   4.6492293e-01  -4.3118400e-02  -6.2687061e-01   2.1568040e-01  -8.3717729e-02  -2.2822839e-01  -3.7323575e-01  -4.6359738e-01  -3.1769638e-01   9.6922814e-01  -7.3031026e-01  -5.4743866e-01   2.1290858e-01   6.9819407e-01   4.9023187e-01  -7.8187341e-02   5.9904328e-01   1.0299955e-01   8.2286047e-01  -5.5875872e-01   9.8132360e-01  -3.8972629e-01   4.4106902e-02  -9.2562039e-01  -3.8034993e-01  -5.0088676e-01  -6.4388955e-01  -4.9899932e-01   9.8782333e-01  -7.0467249e-02   6.9140463e-01  -3.7742103e-01  -6.3838584e-02   7.7852191e-01   9.6619045e-01  -9.0939572e-01   3.2343684e-01   4.7997025e-01  -9.0997079e-01   6.4732379e-01  -3.4116072e-01  -8.6541280e-02  -1.0392544e-01   7.0128179e-01  -5.8368859e-01  -8.0849103e-02  -4.7795115e-02  -2.9387268e-01  -5.0759327e-01   5.3906701e-01   8.0393183e-01  -1.8856857e-01  -3.3512020e-01  -9.4004366e-01   1.2918289e-01  -3.4250887e-01   2.3213927e-02   4.7321787e-01   1.7987292e-01  -1.6584124e-01   8.4995921e-01   6.6578062e-01  -6.0160862e-01   8.8419537e-01   6.6739449e-01   6.2054941e-01   9.5728927e-01  -8.0929807e-01  -8.1377719e-01   8.2245363e-01   7.4749023e-01  -3.7214676e-01  -9.2100370e-02  -9.1716553e-01  -8.0391388e-01  -4.4524463e-02   3.1567292e-02  -7.6345867e-02   3.6086321e-01   2.7046658e-01   9.7991963e-01  -8.9617272e-01   3.7803325e-01  -9.7116171e-01   2.8201740e-01   6.1993303e-01  -9.8371481e-01  -4.1987854e-01   7.8297629e-01  -8.7962208e-01  -3.6586209e-01  -6.2959162e-01  -1.8540020e-01   2.3152715e-01   8.8365723e-01  -5.6224164e-01   5.9070542e-01  -8.9686063e-01  -3.4249318e-01  -4.9956366e-01   9.5882491e-01   4.7675390e-01   4.3471762e-01   1.9553981e-01   3.4614771e-01   1.9447296e-01  -2.9899306e-01   5.0807289e-01   7.8767036e-02  -7.1743282e-01  -5.2070747e-01  -2.0741742e-01  -7.3510387e-01   4.8947800e-01  -4.3487647e-01   9.1226201e-01  -7.0030025e-01   6.1401360e-01   9.4433476e-01   3.4841146e-01  -7.4634491e-01   6.3762277e-01  -5.3595512e-01   7.4723593e-01  -8.2936266e-01   3.1716075e-02  -9.0630521e-01  -5.2694264e-01  -8.2590164e-01  -3.3925215e-01  -2.1799533e-02   4.8397227e-01  -9.0363364e-02   9.1204997e-01   6.2991217e-03  -8.6037038e-01  -6.3079429e-01   2.6459749e-01  -7.7365360e-01   4.3635128e-01   8.8895178e-01   9.3284254e-01  -4.1780983e-01  -4.6279460e-01  -2.8955460e-01   6.7614269e-01  -6.9255492e-01  -5.6768127e-01  -7.9005939e-02   6.3084122e-01  -9.5563294e-01   2.9419528e-01  -6.1736052e-01   6.0220890e-01   4.6169240e-01  -6.6554020e-01  -9.5802948e-01  -7.7433983e-01   5.6989573e-01  -2.7813539e-01  -8.2232234e-01  -9.6819721e-01   1.2003363e-01   8.8867849e-01   2.0565853e-01   5.6887973e-01  -4.4534110e-02   9.7712457e-01  -5.3211622e-01   1.6800085e-01   3.4528661e-01  -2.1379023e-01   9.1365171e-01  -8.0879893e-01   5.1872510e-02  -4.2326906e-01   1.5870993e-01  -5.7598180e-01  -2.4633659e-01  -6.1313375e-01   6.3805175e-01   6.5718560e-01   1.1560136e-02  -2.4255050e-01  -3.7784386e-01   5.1788229e-01   4.1442352e-01   7.7836260e-01  -2.4582119e-02  -9.6177344e-02   3.3297856e-01  -2.0336050e-01  -9.2894242e-01   7.7695730e-01   6.3097904e-01   6.5526547e-01   9.1878146e-01  -4.9359346e-01   6.0563601e-01   1.5237555e-01  -4.2870047e-01  -5.8113662e-01   9.3747374e-01  -1.7070081e-01   2.1863512e-01  -9.0173456e-01   1.6322767e-01  -7.8081426e-01   8.2425007e-01   5.5060511e-01   3.6060823e-01   9.4458260e-01  -4.3563156e-01   6.6185808e-02  -6.7031220e-01  -3.8917868e-01   4.7084426e-01  -2.6629267e-01  -3.7328279e-01   2.6670601e-01   9.4281137e-01   1.6958932e-01  -5.1256244e-01   1.9938989e-01  -4.4976892e-01  -9.5891076e-01   5.2158304e-02   3.5749098e-01  -8.0906419e-02  -7.5125317e-01   3.8232740e-01   3.1958381e-01  -9.5117635e-01   1.0048053e-01  -6.5624532e-01  -8.5436777e-01   6.1873288e-01  -6.9495404e-01   8.1800704e-01   8.7582152e-01   4.6805142e-01  -8.8903143e-01   4.9783186e-01  -3.8734118e-01  -3.2094607e-02  -4.2600648e-01   8.8924423e-01   5.6369672e-01   8.4222992e-01   4.8806663e-02  -7.2940362e-01  -4.3777453e-01  -4.9769288e-01  -3.7791903e-02   8.3644698e-01   8.4963974e-01   1.7738503e-01  -5.4411751e-02   1.0563982e-02  -2.7149472e-01  -6.3438332e-01   7.5033167e-01  -8.7716990e-01   7.2141878e-01   8.2176029e-01  -2.4742376e-04  -1.6947317e-01  -2.6118803e-01  -9.8113463e-01   9.8785578e-01  -9.4090981e-01   9.6174868e-01  -1.1771995e-01   9.3215603e-01  -2.4978833e-01  -9.0539650e-01   7.9867050e-01   8.4940948e-01  -7.6737815e-01   9.8141283e-01  -8.5039233e-01   2.2318692e-01  -9.7333600e-01  -3.0914598e-01  -6.6146332e-01  -5.1257041e-01  -3.1126200e-01  -1.0649365e-01   3.1770286e-01   5.2000379e-01   7.4698075e-01   2.2044932e-01   1.2390155e-01  -9.0844341e-01   4.8341239e-01   3.2131396e-01   3.7507048e-01  -3.3223302e-01   9.8022432e-01   2.7167802e-01   3.4460989e-01  -7.5840577e-01   3.7161490e-01  -2.1863865e-01  -2.7548575e-01  -6.2330378e-01  -4.5766630e-01   6.5557923e-01  -2.6644799e-02  -2.1710059e-01   5.1427484e-01  -8.5281312e-01  -9.3531954e-01  -1.4832650e-01  -6.0168168e-01  -2.9380574e-01  -6.5938085e-01  -5.2038906e-01   5.0445138e-02   3.5955881e-01  -2.7978721e-01   8.0854934e-01  -1.7136171e-02   4.2598260e-01  -9.7206862e-01  -6.6979174e-01   5.0165705e-01   9.0472672e-01  -6.2033919e-01   8.4303758e-01   2.5435204e-01  -9.9774133e-01  -7.3657234e-01   7.4329427e-01  -3.4277378e-01  -1.7899641e-01   8.4691981e-01   2.3978131e-01   2.4215841e-01   1.4215883e-01  -9.5574638e-01  -9.2558335e-01   4.8982795e-01   5.8231450e-01  -4.2056841e-02   3.9226602e-01  -9.2024602e-01   5.8744614e-01  -9.3582456e-01  -7.9060300e-01  -4.5200409e-01  -5.6696114e-01  -8.2285752e-01   8.0349970e-01  -9.6195824e-02  -8.1533262e-01  -5.4936109e-01  -7.6713818e-01   6.0145689e-01   7.9823792e-01  -6.5870105e-02  -8.9799139e-01  -4.4399526e-01
