   5.0431083e-01  -3.4039086e-01   6.2333283e-01  -4.3604886e-02  -4.9461588e-01   7.4004772e-01  -6.9559538e-01   6.4391094e-01   8.5792445e-01  -9.9947955e-01   8.4295649e-01  -8.9124575e-01   1.4888834e-01   1.6758556e-01  -1.1103243e-01   1.7758079e-01  -9.8128951e-01  -4.6249880e-01   1.0299708e-01   4.2753671e-01   3.3718501e-01  -4.8569097e-01   6.7258658e-01   3.7765574e-01   8.2410761e-01   5.5807562e-01   9.1095790e-01   9.7864323e-01  -6.5771676e-01   3.7517018e-01  -4.0862436e-02   9.4401101e-01  -5.5519656e-01   6.6704543e-01  -9.2488448e-02  -1.7953657e-01  -3.3409496e-01  -4.1000397e-01   8.0012053e-01  -3.6762924e-01   2.8025772e-01  -2.7748251e-01   2.2854746e-01   4.9798915e-01   4.0628009e-01  -5.8166140e-01   1.2537271e-02   6.2856357e-01  -9.4351508e-01   2.6881627e-01   1.3591998e-01   7.5602006e-01  -5.8145944e-01  -1.1012263e-01  -1.1719944e-01  -2.1899014e-01  -8.3295995e-01   7.4629301e-01   3.9125853e-01  -7.7164123e-01  -2.0028214e-01   2.0974956e-01   8.1174439e-01  -1.5294797e-01   2.2161918e-01   8.0865320e-01  -3.0972920e-01   6.5078843e-01  -8.1095096e-01   1.1784593e-01  -5.1125951e-01  -9.0247620e-01   4.3622317e-01  -3.1397720e-01  -7.3952285e-01   1.3913010e-01  -1.2454616e-01   3.3166188e-01  -4.7985790e-01  -7.4111328e-01   5.8853067e-01   5.1907561e-01  -5.3621539e-01  -5.6539019e-02   6.2187856e-01  -9.6219684e-01   2.6898938e-01  -4.9383169e-01  -7.3881095e-01  -2.2319380e-01  -4.3556837e-01  -4.3068000e-01   1.0225978e-01   8.7282656e-01  -5.4441576e-01  -4.5221025e-01  -9.1303953e-01   7.2018770e-01   9.1011504e-02   7.8343660e-01   1.6653523e-01   5.0663931e-01   4.6455143e-01  -3.0901489e-01   2.5034503e-01  -7.7430702e-01  -7.1368229e-01  -8.6110180e-01  -8.5368348e-01  -4.3470421e-01  -4.3106781e-01   6.0912918e-01   3.7501804e-01   7.2556395e-01  -4.1673136e-01  -9.7614172e-01   8.5704544e-01   1.2012416e-01  -4.3363061e-01  -2.9480470e-01   2.1456452e-01  -6.5539688e-01  -4.6767382e-01   6.1492806e-01  -6.3850428e-01  -9.5178424e-01  -2.7107436e-02   6.2885899e-02  -5.7770298e-01  -8.6787125e-01  -1.7413402e-01   7.9995563e-01   5.2027179e-01  -3.8118281e-02   2.2738615e-03   4.3052400e-01  -4.3244601e-01  -6.6545134e-02  -8.9006019e-01   5.2991065e-01  -2.0109692e-02  -1.3389072e-02   3.9663664e-01   1.6223311e-01   1.3257123e-01   5.5152906e-01  -5.8154833e-01   2.4304755e-01   9.5368688e-02   6.1942012e-01  -8.1170425e-01   5.9237493e-01   4.8682173e-01  -7.1692724e-01   7.9688138e-01   3.6218461e-01   7.4607408e-01   8.8403104e-01  -5.0518590e-01   5.0660747e-01  -5.0284719e-01   5.0754265e-02  -9.1094210e-01   4.0253266e-01  -5.1682274e-01   7.4326385e-01  -7.8702015e-01  -6.2261889e-01   6.3877521e-01  -1.4548627e-01   4.8403534e-01  -2.7455777e-01  -9.1838236e-01   9.6625103e-01  -7.0176662e-01   3.7388120e-02   3.3003153e-01  -9.6160826e-01  -2.7617128e-01   1.4983943e-01   3.0067844e-01  -2.5558943e-02   1.3058399e-01   4.0614849e-01   6.8130502e-01  -6.6250773e-01  -4.0664770e-01   4.2557769e-01  -6.2717575e-01   8.8058444e-03  -1.5755666e-01   4.5699405e-01   3.8569286e-01   7.0792956e-01  -3.5620024e-01   1.4920991e-01   2.5519286e-01  -3.5666185e-02  -9.2013920e-01  -4.9474475e-01  -4.2898523e-01   3.1787443e-01  -5.0241039e-01   5.5115960e-01  -6.2935328e-01   9.8421822e-01  -6.7031501e-01   4.5494130e-01  -7.3808301e-01   7.2189530e-01   6.9260896e-01  -1.5520581e-01   6.3520679e-01   2.8515675e-04   8.5507617e-01   2.7941387e-01  -5.3532390e-01  -3.7540850e-01   6.1414005e-01   8.1432109e-01   6.4111175e-01   3.9668601e-01   3.7021985e-01  -4.0414888e-01  -9.6423870e-02   1.3224024e-01   9.1034704e-01   8.9684868e-01  -4.6756914e-01  -3.2156095e-01   8.6545845e-01   7.4116944e-01  -8.7978553e-01  -1.1360451e-01   1.4156036e-01  -5.6006696e-01   3.8924773e-01   4.5096748e-01  -3.2243285e-01  -4.4761099e-01   6.6096262e-01   7.0755156e-01  -4.9308923e-02   8.8156885e-02  -7.3263902e-01   3.4184385e-01   2.2008936e-01   2.4737191e-01   6.3874297e-01   9.0232255e-01   4.2741183e-01   2.2835053e-01   1.7937656e-01   5.7237523e-01  -7.3802612e-02   8.9200535e-01  -6.9504280e-01  -6.9387277e-01   9.4247464e-01   5.5550371e-01   3.6329799e-01   8.3865630e-01  -3.8580827e-01  -8.7706454e-01   8.8786462e-01  -8.2549651e-01   3.7075449e-01  -1.4060317e-01  -9.3304668e-01  -5.8445697e-01   9.0488471e-01   6.8648022e-01  -3.8141762e-01  -1.2810711e-01  -3.3508216e-01  -6.1688032e-01  -8.9773400e-02   3.8944906e-02  -8.2127707e-01   9.5598962e-01   1.0956752e-01   8.4287292e-01   2.9363161e-01  -1.2673289e-01  -5.4348727e-01   3.6240144e-01   8.0005700e-01   4.4281151e-01  -5.2826669e-01  -3.8172346e-01  -5.8265530e-02  -7.2279860e-02  -2.1516454e-01   5.1893799e-01  -4.2937668e-01  -9.2384135e-01   8.0930630e-01   7.3525112e-02   1.7972581e-01   7.7483147e-02  -5.6533794e-01  -8.0970675e-01  -6.6807665e-01   1.8612146e-01   7.4706179e-01   6.1155031e-01   6.8381579e-01   5.1116264e-01   2.7424386e-01   7.9770274e-01  -2.8824123e-01   5.6477337e-01  -2.2368218e-01  -4.2429455e-01   6.1340060e-01  -1.6296787e-01  -7.1594968e-01   3.0078675e-01  -6.7618881e-01   1.9606882e-01  -8.6082847e-01   1.8127714e-01  -3.9862880e-01   2.2902969e-01   7.7649771e-01  -4.8680872e-01  -3.5969369e-01   2.4995590e-01  -6.4759057e-01  -3.9314533e-01  -4.4369534e-01   1.9439220e-01   4.7970294e-01   1.6251179e-01  -1.0613611e-01   9.3530758e-02   9.8505118e-01  -9.2803025e-01   6.0491709e-01  -4.4069415e-02   6.7188128e-01  -6.3050842e-01   1.5653418e-01   7.5766422e-01  -3.2203102e-02   6.7831850e-01  -7.9871561e-01   5.5676423e-02   3.1857315e-01   2.1251369e-02  -4.8414972e-01   2.2111635e-01   3.1276424e-02   8.7317045e-02   2.4887475e-01  -1.6434133e-01   9.7824829e-01  -6.1687264e-01   4.1484262e-01  -4.1745188e-01  -9.9938763e-01   7.0861119e-01   3.1579367e-01  -3.2632758e-01   4.0965160e-01  -6.7218465e-01   7.0817225e-01   2.3649901e-01   8.4642744e-01  -7.0168447e-01   5.9894665e-01   8.5544789e-01  -1.8119974e-01   2.5872817e-01   8.3672949e-01   4.4295873e-01   8.4217630e-01  -2.6395845e-01  -2.5036925e-01   3.5225230e-01   2.5315185e-01   3.2033219e-01   4.6556184e-01   8.7417982e-01  -7.4922025e-01   7.1070196e-01   8.9628590e-01  -6.2735866e-01  -9.9279898e-01  -7.3301929e-01  -6.7381605e-01   8.1609181e-01  -8.0186222e-01   8.0580750e-03   5.0122842e-01  -3.9951915e-01   9.1735162e-01  -3.2542440e-01   8.1160854e-01   7.1101623e-01   5.5653691e-01  -8.1837116e-01   8.8773754e-01  -7.3973264e-01  -5.7004457e-01   3.4108535e-01   5.8519057e-01  -3.8979347e-01  -3.7164102e-01  -3.7598147e-01   2.5155286e-01  -5.7169068e-01   6.4134636e-01  -9.2881367e-01  -8.1231100e-01  -3.0395743e-01   6.7696596e-01   4.1910270e-02   9.1601136e-01  -8.1565685e-01   8.4470444e-01  -4.4743608e-01  -7.2074923e-01   6.6116920e-01   1.6382844e-01   9.1783756e-01  -1.3115400e-01  -9.8303024e-01  -3.5787459e-01   4.5899362e-01   8.7979890e-01   6.1091067e-01   9.4299101e-01   4.4863800e-01   9.3408096e-01  -7.4225002e-01  -2.9183047e-01  -1.5227573e-01   3.6439079e-01   1.1951057e-01   2.0358872e-01   2.4239023e-01  -1.3681877e-01  -6.4094483e-01  -6.3464250e-01   3.8414356e-01  -2.0940949e-01  -4.2368042e-01   9.6521616e-01  -3.7752701e-01   7.2087612e-01   5.7502719e-01   3.3389878e-01   8.3620763e-01  -5.4697364e-01   5.8659086e-01  -5.4360832e-01  -4.5435048e-01   4.4341884e-01   4.0512928e-01   6.4776290e-01   2.4279150e-01  -9.0845632e-01   2.2394744e-01   6.1472646e-01   2.4431567e-01  -3.9159202e-01  -5.5618515e-01   6.7233533e-01   1.0482146e-01  -9.5799295e-01   4.9255688e-01   1.9803138e-01   5.5387316e-01  -1.1516543e-01  -6.1819827e-02   6.4331230e-01   1.1483355e-01  -3.1863956e-02  -9.7433944e-01   6.8819662e-02   5.3070576e-01   4.2046545e-01  -4.2346378e-01   4.0117670e-01  -4.4556972e-01  -2.7648448e-01  -3.5170728e-01  -6.2731691e-01  -3.9113265e-01  -3.3555671e-01  -6.6400102e-02  -4.4860560e-02  -9.9192500e-01  -8.2582749e-01   6.6711697e-01  -9.6523368e-01  -9.7111034e-01  -3.6528676e-01  -2.9565504e-01   2.3167559e-01   5.5553331e-01  -5.2461931e-01   4.2653485e-01   7.0717715e-01   1.6233836e-01   7.0782858e-01   1.9836429e-01   5.1833558e-01   8.4681424e-01  -8.8238349e-01  -2.9330266e-01   2.7758728e-02  -2.1222974e-01  -7.5462460e-01  -5.5599857e-01  -2.7651698e-01   2.1212245e-01   3.9672932e-01  -9.0392994e-01  -4.2759349e-01  -1.2082536e-01   4.6626225e-01   9.7751623e-01  -9.6599068e-01   5.1350703e-01  -1.2956701e-01  -5.9487454e-01  -5.8182186e-01  -8.4064506e-01  -7.4424766e-01  -3.1749538e-01  -8.8575488e-01  -3.2435170e-01  -4.0207356e-01   1.8961031e-01  -2.2959524e-01  -6.1191330e-01  -9.0743205e-01  -4.0631440e-01   4.5339398e-01  -7.1694397e-01  -5.9165725e-02  -8.1134555e-01   9.0741648e-01   4.0180382e-01   8.5411790e-01   7.8115049e-01  -7.8285397e-01   3.6433199e-01  -4.3722126e-01  -5.8662104e-01  -2.3259518e-01   4.3635699e-02   1.7958447e-01  -3.1718331e-01   3.9568654e-01  -2.1821955e-01  -6.3020295e-01   1.5395587e-01  -1.8807121e-01  -8.5788432e-01  -8.9907548e-01   3.1355975e-01   9.0691990e-01   9.9910094e-01   2.8436328e-01   3.3885455e-01  -5.9658033e-01  -9.7251023e-01  -9.6411277e-01   2.6247919e-01   6.7324576e-01  -7.2910028e-01   8.5334466e-01  -9.9692556e-01   7.8714259e-01  -7.7975058e-01   3.1367006e-01   3.8330919e-01  -7.7503168e-01  -1.8422304e-01   9.6924226e-01  -5.0968103e-01  -5.9990102e-01   6.8414715e-01  -4.5416948e-01  -1.5620275e-01   6.0039142e-02   6.7871726e-02   6.2272861e-02   8.7452516e-01  -3.5221012e-01   5.5769631e-01  -2.5416289e-01   3.5156332e-01   2.2269039e-01  -5.4540897e-01   4.8636527e-01  -9.9739718e-01  -9.4245373e-01  -9.5892756e-01   6.8830556e-01   7.4624888e-01   4.8582725e-01  -5.9335152e-01  -2.9551675e-01  -2.9900656e-01  -5.1397150e-01   9.7657032e-01  -4.3061334e-02  -4.5141250e-01  -9.7223859e-02   7.7096630e-01  -9.7218095e-01   2.5663708e-01  -3.4350173e-01   9.0901783e-01  -9.4994183e-01   2.5194580e-01  -1.3542990e-01   3.1115878e-01  -7.4502627e-01   8.4813611e-01  -3.6639152e-01   8.3752754e-01  -6.6704526e-01  -8.1366632e-02   3.1728718e-01   6.0208502e-01  -8.3787062e-01   1.3336552e-01  -1.2445704e-01   2.9599395e-01  -6.6372419e-01  -2.4617284e-01   7.5312531e-03   2.4989811e-01   3.0317002e-01  -3.6838265e-01   4.2652115e-01  -4.0489971e-01  -8.5530997e-01   5.0003630e-01   9.9768402e-01   8.1488730e-01  -9.4131863e-01  -5.0957882e-01  -7.1386863e-02   3.0542387e-02  -9.9609744e-01  -5.1648224e-01   1.4012295e-04   7.4764460e-01   2.0097702e-01   4.0849342e-01  -8.0390147e-01   3.1802660e-01   2.3851042e-01   2.3967927e-01  -9.6537984e-01  -6.8140697e-01  -7.0751689e-01  -3.4822085e-01  -5.9325486e-01   6.3475235e-01  -2.1267171e-01   9.3381610e-02   7.1431240e-01  -2.3782066e-01   2.0227972e-01  -1.5510441e-01   4.3072693e-02   8.7508546e-01  -6.4922367e-02  -1.3437459e-01  -5.9636035e-01   5.1235309e-01  -7.8574383e-01   8.5886272e-01  -1.7453459e-01  -4.9823587e-01  -5.9396340e-01   8.2468005e-01   5.7459097e-03   9.7028292e-01  -8.7696460e-01  -7.5424155e-01  -4.2215447e-02   2.7653363e-01   4.5175489e-01   8.4753569e-01   1.8348780e-01  -1.6471013e-01  -4.7238652e-01  -5.7331198e-01   1.7127291e-01   1.6052319e-01   3.1557510e-01  -6.3231519e-01  -8.6949573e-01  -4.1051872e-02  -6.7891797e-01   8.0700544e-01  -3.6113929e-01  -6.4876682e-01  -4.9681999e-01  -1.1451881e-01  -2.0089134e-01   7.9206123e-01   7.4248225e-01   1.3833065e-01  -5.2717996e-01  -4.0711966e-01   1.0003774e-01  -3.0522133e-01   4.7511248e-01   4.7170121e-01   9.1463208e-03   1.1678942e-01   4.4730845e-01   7.6983220e-01  -2.7941573e-02   4.2255082e-01  -6.0619104e-01   6.7864508e-01   4.9464825e-01  -2.2038879e-01  -9.7634913e-01   7.9079529e-01  -7.7567896e-01  -9.3315608e-01  -8.9930072e-01   8.1375442e-01  -3.5379318e-01   1.1489653e-01  -2.7240374e-01  -4.0947350e-01  -5.8574826e-01  -5.3528861e-01   1.9247584e-03  -7.5207872e-01   1.1532235e-01   2.2601907e-01  -4.1628832e-01   6.8430342e-01  -9.7403863e-01   5.4202836e-01   3.3269934e-01   7.9271323e-01   8.7121640e-01  -1.6919222e-01   3.9388610e-01   4.7356218e-01  -9.4518520e-03   9.1323916e-01  -8.4080598e-01   4.7431077e-01   8.2861848e-02   4.3225237e-01   9.2823696e-01   9.4497376e-01   8.2324166e-01  -5.1679679e-01  -3.7711237e-01  -3.2935682e-01  -2.0663955e-01   8.9182172e-03   6.2390142e-01   2.0669237e-01   4.2319526e-01   7.5997643e-01  -1.2300531e-01  -5.9137358e-01   4.6853719e-01  -2.5241451e-01  -1.7518000e-01   8.6924902e-01   4.4540527e-01   6.7009901e-01   5.5526811e-01   1.6558427e-01   3.5779161e-01   8.6585666e-01   4.0313872e-01   8.4602401e-01  -7.4572073e-01   6.3453116e-01   5.9800616e-01  -5.4906206e-01   3.3780758e-01   4.9731017e-01   6.8102117e-01   8.7074564e-01   8.2311893e-01   2.3643814e-01   9.7037373e-02  -6.9132001e-01   9.4519611e-01   9.9643396e-01   8.6650208e-01   3.2203130e-02   6.7806125e-01   7.4626694e-01  -3.9176840e-01   6.0223227e-01  -3.4841535e-02  -1.1198091e-02   7.4573267e-01   4.4777125e-01  -3.8775397e-01   2.8055741e-01  -8.0922984e-01   7.0000785e-01   8.0556242e-01   4.1581169e-01  -7.2335372e-01   5.9817146e-02   1.3294076e-01   3.3842538e-01  -4.9637424e-01   1.4373922e-01  -2.2284718e-01  -2.7745749e-01  -8.6451210e-01  -8.8962169e-01   9.2951823e-01   7.0574331e-01  -5.9895881e-01   2.0476595e-01   7.9634680e-01  -7.8941355e-01   7.8448242e-01   8.8454446e-01  -6.0456845e-02   5.2192686e-01   9.6485925e-02  -9.7158930e-01   7.2443182e-01   6.4689259e-01  -7.0169112e-01   5.1030860e-01  -4.2031600e-01   3.8225315e-01   1.4570887e-01  -8.3856751e-01  -8.7144592e-01   7.3434505e-01   3.0392622e-01   5.9678274e-01   9.5516033e-01   3.3516331e-01   9.5912977e-01  -8.2641531e-01  -5.6545371e-01   8.3428284e-01   7.3702687e-01  -8.8755048e-01   4.9232363e-01  -1.6636277e-01  -1.4759265e-01   7.7955743e-01  -4.4724476e-01   9.5564413e-02   5.5841665e-01   3.8941022e-01  -6.6919187e-01  -8.6001090e-01   8.1105805e-01  -2.5937559e-01  -8.5429864e-01   7.8716209e-01   6.0054652e-01  -7.5673927e-01  -3.1157074e-01  -3.3055075e-01   5.3884827e-01   9.4336972e-01   3.3941469e-01  -1.3994359e-01  -5.7202795e-01  -2.0118346e-01  -7.2655141e-01   8.4971212e-01  -8.6040992e-01   9.6403719e-02   3.5822179e-01   4.4669970e-01   8.3801976e-01  -1.0952975e-01   7.0043450e-01  -9.7611293e-02  -6.6877861e-02   5.3047831e-01   8.4377958e-01  -6.1193264e-01  -6.8031629e-01  -9.4295686e-02  -8.8578612e-01   4.3065606e-02  -3.9056965e-01  -2.8291965e-01   1.2228856e-01   5.7923087e-01  -6.3132062e-01  -5.4582509e-01   3.4550680e-01  -2.8059742e-01   4.2899516e-01   9.4643670e-01  -2.6434289e-01  -8.8325586e-01  -8.0689948e-01   1.8138173e-01  -3.7474663e-01  -2.3317495e-01  -6.2787102e-01  -9.1099980e-01  -2.2141937e-01   7.4278084e-01  -3.9612748e-01  -7.1995445e-01   4.1684108e-01   3.1362088e-01   9.2211293e-01   7.9032276e-01   6.6246385e-01   5.1107042e-01  -5.8395464e-03   4.5515127e-01  -2.6573842e-02  -9.2399762e-01  -6.0791251e-01  -2.6567629e-01   6.6620737e-01  -9.9934933e-01   9.7725532e-01  -8.5140098e-01   3.3264092e-01   3.9243363e-01  -6.8774159e-01  -8.0184944e-01  -9.3027723e-01  -4.1787719e-03  -6.1076708e-01   8.3343760e-01   5.7942776e-06  -1.6591755e-01  -6.8035349e-01   3.3509369e-01   1.6311451e-01   7.2244278e-01  -2.5796534e-01   3.5343365e-02  -1.5030280e-01  -6.3859113e-01  -7.5844453e-01  -3.9069801e-01   8.7179633e-01  -4.3176179e-02   7.0902016e-01   9.7496535e-01  -2.0202801e-01  -3.2508544e-02   5.0657205e-01  -4.9696199e-01   4.2963087e-01   2.3340342e-01   9.3327874e-01  -6.5951366e-01  -5.2981664e-01  -6.0885799e-01   2.0583219e-01  -7.4747300e-01  -1.9884256e-01  -8.0141569e-01   5.4477667e-01  -9.2607298e-01  -9.9649327e-01   3.0006246e-01   5.0162934e-01   2.4040659e-01   1.0291657e-01   5.9290498e-01   9.2570214e-01  -7.7403745e-01  -2.0765675e-01  -7.4048132e-02  -9.9391496e-02   4.0497371e-02  -4.9154985e-01   1.5176078e-01  -1.6454613e-01  -9.1884835e-01   6.0695622e-01   8.9807872e-01  -2.5434682e-01  -9.3504223e-01   7.1676606e-01  -7.8581987e-01
   9.8065303e-01   3.8818163e-01  -8.5844180e-01   4.8645555e-01   2.7062961e-01  -7.4706378e-01  -7.2404533e-01   6.6292064e-01   6.8091310e-01  -9.5752173e-01   9.8945897e-01  -3.1645950e-01   5.8122709e-01   3.6570392e-01   4.3645956e-01  -4.0654162e-01   2.8445595e-01   4.9701314e-01   2.3817434e-01   3.3503334e-01   3.7182255e-01  -4.9922642e-02   6.8665135e-01  -2.3015121e-01   8.8982045e-01  -1.1861842e-02   6.6226189e-01   5.0783569e-01   7.1561211e-01  -8.2860176e-01   9.3321241e-01  -9.0434850e-02  -2.4411144e-01   3.7381917e-01  -8.3161401e-02   8.0568901e-02  -3.4811393e-01   5.3492190e-01   7.4402002e-01  -5.0118162e-01  -4.1692543e-01   2.3668098e-01   8.9417955e-01  -1.6943894e-01  -1.7970698e-01  -4.1260697e-01  -2.5754913e-01   6.4725242e-01  -3.8600916e-01   7.5643475e-01   1.7296057e-01  -6.6942503e-01   2.2130888e-02  -7.1840818e-02  -3.4715681e-01   2.9067917e-01   9.9716711e-01   6.2868119e-01   3.9286383e-01   2.6704059e-01   6.8811396e-01  -5.8627461e-01   5.8080838e-01  -6.8254405e-01  -3.1180303e-02   5.4741811e-02   4.1276693e-01   8.2628524e-01   8.5243728e-01  -6.9989158e-01  -1.5604827e-02   5.0974432e-02   4.1909050e-01  -8.5017910e-01  -3.5030250e-01   1.8236357e-01   5.5723837e-01  -6.3899419e-01   4.6882114e-02   4.0357589e-02  -9.9838355e-01  -4.1647172e-01   5.4579337e-02   6.4042443e-01   4.1092313e-01  -1.5616047e-01  -7.6764072e-02  -8.6852793e-01  -8.3920972e-01   8.9832071e-01  -7.2267318e-01   5.1890020e-01  -8.2058228e-01  -9.4419467e-01   7.6333977e-01  -5.4748634e-01   2.4419348e-01   2.4149430e-01  -7.0199257e-01  -8.7444422e-01  -9.0430533e-01  -7.8700009e-01   5.4648802e-01   9.2909836e-01   1.6337842e-02   6.6737083e-01   3.2723444e-01  -6.2811697e-01  -5.6127600e-01   1.9920294e-01   3.8249381e-01  -8.1551816e-02  -6.6863868e-01   8.8196335e-01   7.3694751e-01   2.6817184e-01  -1.7152381e-01   5.2083488e-01  -8.6362384e-02  -9.6395991e-01  -8.8779605e-01  -7.6406224e-01   3.0780179e-02  -7.5358388e-01   9.0311894e-01   8.9321366e-01   7.4695312e-01  -7.6847434e-02  -2.4393656e-01   5.7961415e-01   8.9989543e-01   5.9183804e-01  -1.7414617e-02  -7.9567554e-02   1.5332725e-01   9.6348473e-01   2.7231688e-02   8.3566376e-01   4.8648483e-01  -8.4147955e-01  -8.7077871e-01   4.5832406e-01   5.7129157e-02  -1.3031843e-01   9.7657601e-01  -2.8035101e-01  -8.5059226e-01  -4.9142772e-01  -5.9627297e-01  -1.2448421e-01   8.6093107e-02  -9.3335360e-01   5.7964268e-01   2.6335368e-01  -3.5974407e-01  -6.6276661e-01  -8.7059889e-01   5.7517796e-01  -2.5778090e-01   3.0733692e-01  -8.0747467e-02  -8.7844688e-01   3.6781297e-01  -1.6132902e-01  -6.3758420e-01  -4.4192076e-01  -9.8788643e-01  -7.8199969e-01  -1.5661134e-01   2.8611991e-01  -7.8931885e-01   2.8301153e-01   4.9487915e-01  -2.5941931e-01   4.2939526e-01  -5.6402766e-01  -2.7260388e-01  -9.8803884e-01   9.1040948e-01  -4.9656703e-01   5.6619759e-01  -1.4458053e-01   5.9158876e-01   6.1669171e-01  -2.6269407e-01   7.5827743e-01  -2.1704872e-01  -6.5449670e-01   9.1597836e-02  -3.3189530e-03   3.3776360e-01   2.2494489e-01   2.6412576e-02   4.9854093e-01  -2.4411511e-01  -7.8041331e-01   3.7801442e-01  -2.5186042e-01  -9.3404894e-01   5.0832403e-01  -9.3933680e-01  -8.0370061e-01  -9.0069519e-01   5.0230415e-01  -5.5875009e-01   9.4989085e-01  -9.6318422e-01  -5.7285110e-01   2.7858945e-01  -1.1591477e-01  -8.8976199e-01  -8.1495297e-01  -3.4957955e-01   8.5020179e-01  -8.0200487e-01  -2.0576904e-01  -9.1544491e-01   4.5269993e-01   5.2648650e-01  -2.6756693e-01  -7.8397548e-01   8.8197541e-02   8.0639449e-02   7.9736562e-01   7.1307350e-01   2.0694187e-01  -1.2301663e-01   8.4701402e-01  -7.5113815e-01   9.3379989e-01   3.4735711e-01  -9.1284161e-01   7.5108569e-01  -8.1172473e-01  -9.9874728e-01  -6.6516066e-01  -5.6706626e-01   9.9203877e-01  -7.0502610e-01   7.8559740e-01  -8.7659058e-01  -1.9374443e-01   6.4012525e-02  -9.6643215e-01  -4.3306426e-01  -9.9492587e-01  -4.7659763e-02   3.1617832e-01  -9.9747745e-02   3.3370104e-02  -2.6554881e-01  -3.7484344e-01   6.4661849e-01  -7.5497197e-01  -6.0131622e-01   7.4256183e-01   6.9682032e-01   7.3737320e-02  -2.8571990e-01   1.6904229e-01   1.6261027e-01   3.7369067e-01  -3.7245118e-01   9.0057150e-01   3.1242931e-01   3.9901445e-01  -5.8698894e-01  -6.1772778e-01  -4.7627241e-01   9.6352158e-01  -7.2315638e-01   1.0867350e-01  -7.7931494e-01  -1.7581498e-01   2.5439400e-04   4.9104007e-01   8.7271462e-01  -6.6151851e-01  -4.4408585e-01   9.9886180e-01   6.9936498e-01   7.4170159e-01  -3.6679577e-02   2.6685014e-02  -7.3221752e-01   2.2093679e-01  -9.9281725e-01   3.5433450e-01   7.2062044e-01   7.5752218e-03  -4.8064464e-01  -6.8018873e-01   4.7312178e-01   9.0755304e-01  -5.1237563e-01  -9.8332917e-01  -7.4532271e-01  -5.1154382e-01   3.3166216e-01  -8.6209854e-01  -2.8390622e-01  -8.3784048e-01  -5.6111012e-01   9.9458688e-01  -9.1730372e-01  -5.0311658e-02   8.2038836e-01   9.6257620e-01   8.1838012e-01   9.9598881e-01   8.4580410e-01   7.8954343e-01  -6.1623305e-01  -8.9639637e-01  -3.1641266e-01  -4.2185020e-01   4.9401665e-01  -4.1126131e-01  -2.5904018e-01  -6.0068830e-01  -3.7050248e-01   7.5895199e-01  -9.3203203e-02  -7.0022388e-01  -1.9718705e-01  -7.3714711e-01   6.8596404e-01   7.2763216e-01   7.6331719e-01  -3.3989847e-01   4.2374280e-01   3.7270678e-02  -8.5494200e-01   6.8463873e-01  -5.1467204e-01  -5.7562719e-01  -1.9899734e-01   6.6103198e-01  -8.6182902e-01   8.2826298e-01  -9.8692810e-01   9.0426459e-01  -5.3106685e-01  -4.1423507e-01   6.3731757e-01   8.5706342e-01   8.6634205e-02  -2.7241277e-01  -1.1953705e-01  -5.2038358e-01  -3.7403920e-01   9.7575740e-01  -7.1806835e-02   6.5498204e-01  -4.1627585e-01   4.7355963e-01   2.6500181e-01  -5.7215818e-02   1.5297388e-01   1.9987566e-01   6.8191570e-01  -3.6134486e-01   2.7514691e-01   2.6745495e-01  -8.5681310e-01   9.0831335e-02  -3.2280798e-01  -2.7084215e-01  -5.8328397e-01  -8.4069815e-01   4.8537566e-01   9.7307432e-01   3.8496869e-01   8.6784417e-01   3.3384752e-01  -6.6752124e-01  -7.7090978e-01  -4.0122172e-03  -5.0943984e-01   8.6487026e-01  -4.3541147e-01   4.6081067e-02  -2.5458932e-02  -1.4914007e-01  -3.0463187e-01  -5.8518039e-01  -1.1027959e-01  -9.5787701e-02  -6.0447088e-01  -8.4740433e-01  -9.8632283e-01  -8.5675657e-01  -5.2399429e-01   3.0985290e-01  -1.8493642e-01   8.4469191e-01  -7.4283637e-01  -9.8411906e-01  -4.4861723e-01   1.3514514e-01   4.4846000e-01   6.9300510e-01  -4.6773309e-01  -8.2342817e-01  -9.7267344e-01   2.1159084e-01  -2.7548987e-01   2.8446158e-01  -8.2975694e-01   2.9402572e-01  -6.4215872e-01  -7.8273948e-01   5.0352630e-01  -9.3623545e-01  -5.8238851e-01   6.5570582e-01  -9.8459445e-01  -5.0545899e-01   7.7403752e-01   1.5016210e-01   1.3552606e-01   5.6157249e-01   8.5901192e-02   6.8412811e-03   1.0128064e-01   8.2734776e-01  -9.5926302e-01   3.8630083e-01   4.7408591e-01  -1.2681900e-01   9.0202211e-03  -5.9526530e-01   2.2315850e-01   6.1630410e-01  -1.3490554e-01  -4.2244042e-01   7.3913878e-01  -7.9327910e-01  -2.8180850e-01  -3.4746909e-01  -8.9512253e-01  -8.4225267e-01  -6.9002959e-01   5.9513867e-01   6.6680908e-02  -2.4334462e-01  -6.4725133e-01  -1.0694168e-01  -2.0314826e-02   9.5344317e-01  -7.3860968e-01  -8.2180194e-01  -9.3575426e-01   9.4090838e-01   8.5564561e-01   6.0885386e-01  -7.1436660e-01   7.0070179e-01   8.9927256e-01  -7.5331862e-03  -9.3765801e-01   4.5132257e-01   3.9337957e-01  -4.4875606e-02  -3.8168688e-01   3.9025789e-01  -7.8236974e-01   8.9604614e-01  -9.8305964e-01  -8.4894821e-01   2.7355934e-01   1.4229252e-01  -5.9030122e-01   4.2934243e-01   4.3738822e-01  -9.2131607e-01   9.3213424e-02   4.1823599e-01  -9.6706213e-01   7.3399354e-01   2.7744061e-01   6.3790052e-01   2.4691990e-01  -8.6119347e-01   9.6074990e-01   2.6204786e-01  -6.2007187e-01   7.8151154e-01  -3.7238374e-01  -8.3236688e-01  -4.3484871e-01  -1.2972984e-01   5.4354183e-01   3.8966104e-01  -5.3753895e-02   6.9878269e-01   8.9563525e-01  -7.5522758e-01  -7.2284356e-01  -5.1111621e-01   7.1138977e-02  -5.0988763e-01  -9.2974315e-01   3.3862133e-01  -3.8186293e-01   6.2639245e-02  -8.1307859e-01  -3.8964449e-01   4.1251436e-02  -2.4379597e-01  -8.0211794e-01  -7.8116893e-02  -8.2764455e-01  -4.5700824e-01   9.4359160e-01  -2.4451702e-01  -7.5408456e-01   2.6324561e-01  -8.3928507e-01   6.4662882e-01   3.9907127e-01   2.7663578e-01  -6.6515552e-01  -1.7394978e-01  -5.8745060e-01  -3.9496232e-01  -8.8770188e-01  -3.4555686e-01   1.2224981e-01   5.2447837e-01   8.0054493e-01  -8.1934049e-01  -9.8057454e-01   1.0773745e-02   5.7059002e-01  -8.8654905e-01  -5.3707201e-01  -3.8764580e-01  -8.6568230e-01  -9.5201298e-01   4.2754508e-01   9.0008925e-01  -3.1881196e-01  -2.6449916e-01   5.5701133e-01   5.8449382e-01   5.3568693e-01   9.5349402e-02  -3.0773210e-01   4.1044798e-01   3.6108478e-01   9.4640682e-01   9.1024379e-02  -3.1925843e-01   6.3920267e-01  -8.7231515e-01   3.8362038e-01   5.1032119e-01   5.6092658e-01  -1.4532195e-01  -6.3794915e-01  -8.9366647e-01   4.8645076e-02  -9.7221761e-01   4.4285301e-02   8.9809263e-01   3.2380806e-01  -6.9572736e-02   2.8771339e-01   9.8343488e-01  -4.5974539e-01   5.8379360e-01   1.7934945e-01  -3.1498397e-01  -1.3311530e-01  -1.4123957e-01  -5.4499730e-01   7.2022996e-01  -7.9218309e-01  -4.1488468e-02   3.6022115e-01  -6.8060330e-01  -3.5575397e-01  -8.6967561e-01   1.8479754e-02   8.6731507e-01   7.5785301e-01   4.7602088e-01  -1.7221665e-01  -1.8260949e-01   7.2973127e-01  -6.4340980e-01   6.0867878e-01  -5.0882909e-01   4.7071687e-01  -3.4429367e-01   5.9765431e-01  -3.8928836e-01   6.5618522e-01   2.8546699e-01   3.8117715e-01  -4.4875120e-01   7.6744436e-02  -1.8128203e-01  -7.5690307e-01  -9.0671334e-01  -8.4916443e-01   7.7624608e-01  -5.7384844e-01   4.1345172e-01   4.2438424e-01   8.1407036e-01   5.3841490e-01   4.0023233e-02   7.9848754e-01   7.1032966e-01  -7.6811340e-01   8.5025324e-01  -4.5340969e-01   6.8795378e-01  -6.7644185e-01   2.1729757e-01  -7.1889248e-01   2.4940728e-01   4.5724858e-01  -3.8231263e-01   4.2977140e-01   6.9688496e-01   4.9424591e-01   9.7384371e-02   8.3092578e-01  -6.2552566e-02  -3.0986011e-01   3.8322193e-01   7.1747986e-01  -3.8759686e-02   1.4465732e-01   9.6329227e-01  -6.4209815e-01  -5.9222382e-01   3.8926164e-01   1.5629210e-01   3.2564583e-01   8.8712471e-01   3.4032474e-01  -4.3070437e-01  -2.2629712e-01  -8.6088742e-01  -1.3748562e-01  -3.9657003e-01  -2.1470768e-01  -3.4449485e-01   7.5167263e-01   2.8041275e-02   7.7333807e-01  -5.3853675e-01   5.4702026e-01   1.8908296e-01   5.8524424e-01  -8.6157910e-02   7.4278136e-01   7.0659813e-01   2.3606175e-01   4.9202083e-01   8.4648529e-01   7.8795356e-01  -4.2966631e-01   1.4877988e-01   2.1930861e-01  -1.4354110e-01   8.7012875e-01   1.6027166e-01   6.7645046e-01   2.3099672e-01   8.9963741e-01   8.5931761e-02  -4.8358331e-01  -7.8051199e-02  -9.0915084e-01  -6.7235001e-01   2.3722965e-01   2.3592793e-01  -5.1877928e-01   6.9507501e-01  -4.2205872e-01  -9.7421040e-01  -9.0574254e-01   2.5557850e-01  -6.4983667e-01  -8.2767919e-01   3.6942185e-01   5.2480703e-01   8.7612316e-01  -8.0860092e-01  -9.7386008e-01   3.0979534e-01   5.1620891e-01  -9.4072290e-01   6.8980796e-01  -4.9786578e-01   5.1851780e-01   3.9849649e-01  -4.1622970e-01  -4.2621180e-01   2.6012562e-01   5.1537556e-01   9.2387486e-01  -7.0685328e-02  -8.8275759e-01   7.3827481e-01   5.6233338e-01  -5.6466725e-01  -7.6604280e-01   8.8848532e-01   6.6194383e-01   4.4890737e-01   1.9393297e-01  -6.9514876e-01  -6.1660143e-01  -3.8683714e-01   2.2345193e-01   2.7490929e-01   9.5026505e-01   7.8312452e-01   3.3828284e-01  -8.8319105e-01   6.3736335e-01   1.4798072e-01   2.1683359e-01  -7.7193477e-01  -7.5971800e-02   7.8830933e-01  -9.7870353e-01   3.4773794e-01  -2.3775134e-01  -8.5665841e-01  -8.1820850e-01  -9.8423452e-01  -9.9023400e-01  -2.5024439e-02   9.0976979e-01   2.9399794e-01   3.2220756e-01  -1.6702976e-01   6.6218661e-01   4.1305677e-01   4.1159924e-01   6.0422867e-01  -9.4738838e-01  -1.3075570e-01  -1.4815302e-01   2.0559310e-01  -8.6277755e-01  -8.1616940e-01  -1.1563447e-01  -6.6434687e-01  -3.8693535e-01  -2.9283416e-03  -3.9534171e-01  -4.5466786e-01   5.3106677e-01  -1.2667197e-01   7.6770017e-01  -1.8236662e-01   7.1143743e-01  -6.2557364e-01  -5.8276671e-01  -9.2183473e-01   1.9092974e-01   5.4722427e-01   3.2807912e-01  -1.3394667e-01   1.8601701e-01  -7.9478122e-02   2.1328781e-01   2.1042545e-01  -2.8502501e-01  -7.5050211e-01   5.0717742e-01   3.8186562e-01   2.4867506e-01   8.4572417e-02   2.7201299e-01   2.5705764e-01  -7.7282968e-02  -9.6747655e-01  -4.5874094e-01   1.7491581e-01  -9.6771221e-01   9.8511511e-01   3.7571742e-01   2.9103053e-01  -2.6263136e-01  -1.1444723e-01   1.2444652e-01   3.6850436e-01  -4.2457779e-01   4.8643740e-01  -8.7466937e-01   4.9154192e-01   2.5021412e-01   2.2875001e-01  -2.1981617e-01   6.3460792e-01   2.0845555e-01   9.4246231e-01   7.5199288e-01   1.5902529e-01  -3.0251376e-03   1.1620308e-01  -7.0073867e-01  -8.3652235e-01   1.3418511e-01  -6.4729733e-01   2.2925429e-01  -6.0937995e-01  -2.0358099e-01   5.3668507e-01   6.7508446e-01  -9.4437916e-02   3.3421421e-01   9.0568869e-01  -6.7699637e-01   7.6808006e-01   3.9862258e-01   3.8609804e-01   9.7129506e-01  -1.4271841e-01   6.4531542e-02  -5.4975034e-01  -9.5258077e-01   1.5077453e-01   6.2211162e-01  -9.6608688e-01  -2.1873362e-01  -3.1056164e-01  -9.2401038e-01   3.0470533e-01   5.2713084e-01   8.5024164e-01  -8.6968579e-01   9.9785364e-01   4.4677467e-01   5.8406211e-01  -4.7898159e-01  -1.6944822e-01   4.4970995e-01   5.7610527e-01   2.3648634e-02  -7.2855596e-01  -9.4082045e-01   1.3828657e-01  -3.7907271e-01   6.5391959e-02  -1.8168938e-01   1.4602440e-01   8.6755427e-01   7.8098745e-01  -8.8523337e-01   6.4397392e-01  -1.5117722e-02  -6.6917227e-01  -1.7169035e-01   2.1615453e-01  -1.2995844e-01   9.8589767e-01   7.9715359e-01  -6.2070551e-01   1.3694861e-01   2.3558348e-01   3.3486535e-01   1.9313355e-01  -4.2451068e-01   9.2399998e-01   2.3681879e-02   7.4263142e-01   3.6541051e-01  -8.4769644e-01  -7.9212882e-01   5.1012653e-01  -2.7360421e-01   1.5954695e-01  -8.5867614e-01   2.6957987e-01   8.8343755e-01  -9.1773001e-01  -6.7999197e-01   2.9485420e-01  -4.5359628e-01   6.8168508e-01  -5.8759679e-01  -6.3326768e-01  -2.7894651e-01   6.7668402e-04  -7.9652425e-01   8.0763104e-01   2.1656491e-01  -7.7843422e-01   3.7103966e-01   2.0415159e-01   9.0933729e-01  -6.8212846e-01  -3.7893423e-01  -5.4370053e-01  -4.4181950e-01   1.1172879e-01  -7.9151399e-01  -9.4248846e-01  -6.1131681e-01   7.0312932e-01   1.3258306e-02  -4.6428539e-01  -1.9704821e-02   7.0943102e-01   1.5630816e-01   4.0912347e-01   4.9832387e-01  -5.2089447e-01  -6.8746168e-01   1.6797544e-01   5.6389496e-01  -4.6976140e-01  -5.0339046e-01   4.0488828e-01   2.0739237e-01  -4.9587884e-01  -8.4831416e-01  -5.2290306e-01   6.2953351e-02  -3.4984949e-01   1.9282582e-01   5.9755947e-01  -6.0241244e-01  -4.0916190e-01   5.7118039e-02  -3.7724452e-01  -3.8826544e-02   4.8243158e-01  -9.9730567e-01  -4.3565709e-01   1.5013412e-01  -6.0488996e-01   2.3022191e-01  -6.1056465e-01   8.8159756e-02   9.0174980e-01   4.3021189e-01  -5.4587153e-01  -9.9330983e-01  -9.1132520e-01  -5.7811983e-02  -4.5474929e-01  -6.5134166e-01  -3.9471633e-01   8.2710864e-01  -1.3189950e-01   3.9563234e-02  -8.2461085e-01  -1.1072637e-01  -3.4340811e-01   4.2505913e-01   7.0207867e-01   5.7616042e-02  -3.1094411e-01  -5.1989568e-01   8.5624536e-01  -1.4362374e-01  -8.5217724e-02  -3.7177817e-01  -4.0753814e-01   6.6995635e-01   3.2645765e-01   5.2379714e-01   4.3283849e-02   2.3946031e-01   4.2464935e-01  -3.5820442e-01   9.0939147e-01  -8.9685678e-01  -6.3248910e-01   2.6732358e-01   7.6461789e-01   4.0130559e-02   6.4734695e-01   2.0841841e-01  -9.0493059e-01  -4.7437015e-01  -2.2060874e-01  -8.5916992e-01  -3.9841094e-01  -9.4676774e-01  -3.7090274e-01  -7.8692000e-01   2.0749058e-01   4.1355051e-01  -3.9399440e-01  -2.7431436e-01  -5.4075845e-01   1.5948212e-01  -5.1026878e-01
   1.4062781e-01  -6.8927956e-01   1.5667131e-01  -2.5965272e-01   5.7866435e-01  -2.7603028e-01  -8.0051043e-01   7.9590975e-01  -6.8383825e-01   5.1497372e-01   1.3119727e-01   5.1813134e-01  -2.4633261e-02  -2.2883947e-01  -1.3719442e-01   7.3827296e-01  -4.9587670e-01   9.6802775e-01  -9.1563442e-01   9.8862455e-02  -9.1430731e-01  -1.3727433e-01  -5.5711969e-01   5.6346753e-01   8.4973913e-01   7.3619496e-01  -6.3574108e-01   6.7022114e-01  -8.8302198e-02   6.2508677e-02  -5.0310655e-01   4.8134857e-01   7.6658172e-01   7.5738216e-01   9.6686163e-02  -1.1353296e-02   6.5432268e-01  -5.9944923e-01  -7.4222024e-02   3.5994740e-01  -4.0498728e-01  -4.6496629e-02  -4.4086582e-01   2.7852858e-01  -9.8093662e-01   6.1877876e-01  -7.3817033e-01   7.6174038e-01  -8.8115100e-01   6.3577731e-01   6.4434760e-01   5.7780655e-01  -6.6201238e-01   8.3532548e-01  -3.4741153e-01  -6.4645646e-01  -9.5526325e-01   1.8079747e-02   9.2118716e-01  -4.6504572e-01  -5.5799539e-01  -9.7896071e-01  -1.8018664e-01  -5.9533412e-01   5.0461105e-01   9.7240651e-02  -3.6054942e-03   9.7281116e-01   5.3269839e-02  -9.9768105e-01   9.1027593e-01  -2.1426480e-01   3.1776873e-01  -5.3493658e-01   9.1355014e-01  -7.9568551e-01   4.8560682e-01  -5.7354496e-01   2.0763787e-01   1.4971574e-01   1.1476988e-01  -2.1709188e-01  -6.2208102e-01   6.1458660e-01  -6.9125117e-01   6.2809745e-01   2.9859657e-01  -1.2999990e-01  -8.5065984e-01   1.9053781e-01  -6.3468246e-01   3.6431707e-01  -2.3209188e-01   8.5755820e-01  -4.4895867e-01  -9.6703659e-01  -6.0939397e-01   9.5659170e-01   5.6490051e-01  -9.3140591e-01   2.6468551e-01  -3.8716563e-01  -1.2554151e-01  -5.5491532e-01  -7.9427567e-01   3.0768824e-01  -3.4849771e-01  -7.5370059e-01  -7.1552182e-02  -4.3215967e-02   8.1212818e-01  -2.2630396e-02   4.9767046e-01   8.3857531e-01  -7.3983584e-01   8.0098981e-01   2.8303651e-02   3.9444442e-01   2.2632238e-01   6.5584436e-01  -8.4158040e-01  -2.7820807e-02  -5.1386685e-01   9.9271334e-03   3.2031038e-01   5.2351846e-01  -9.6280812e-01   3.1707469e-01   8.2794557e-02   9.2124272e-01  -8.7434754e-01  -1.7282878e-01  -3.6104738e-01   2.7518624e-01   4.0857457e-01   2.7157442e-01  -6.8278248e-01   7.2526500e-02   8.5099904e-01   5.1754799e-01   4.7787718e-01   4.7259597e-01   5.8185278e-01   8.0745498e-01  -2.4822499e-01  -7.5851262e-01   9.5218825e-01  -1.7871690e-01  -5.7251352e-01   9.0417401e-01   7.5631329e-01  -2.1835107e-01  -7.3885854e-02  -4.1402323e-01   5.3321385e-01  -8.5931672e-01   7.0853565e-01   2.0856211e-02   2.7261870e-01   1.3480324e-01   2.5545049e-02   2.1002681e-01   5.8024198e-01   1.7071888e-01   3.8553459e-01  -7.8925664e-01  -5.3823387e-01  -8.2699854e-01  -1.1497272e-01  -3.1015210e-02   9.6860232e-01  -5.0656781e-01  -8.0735110e-01  -3.2061175e-01   9.8161447e-01  -2.5827787e-01  -4.2849043e-01  -5.6051451e-01   5.9391629e-01  -1.9728171e-01   7.3319313e-01  -4.3790245e-02   2.8423813e-01   2.3563000e-01  -3.3892752e-01   7.1217229e-01  -8.1536178e-01   4.4678799e-01   9.9318933e-01   3.5864892e-02  -3.8889521e-01  -8.3377277e-01  -4.4812748e-02   7.3145748e-01   6.7913871e-01  -5.8314711e-01   4.9006395e-02  -3.0190660e-01  -2.6639099e-02  -9.0109703e-01   2.0552915e-02   3.9090240e-01   4.7490897e-01  -3.6009538e-01   7.3323397e-02   1.2020691e-01  -9.0419155e-01   3.3541962e-01   1.1142478e-01  -9.2007891e-01   8.7232136e-01   3.3766566e-01   8.7088719e-01   5.6874487e-01   6.0681854e-01  -8.6384528e-01   5.8589190e-01   2.6073298e-02   2.2560537e-01   3.2718669e-01  -7.5314006e-01  -2.9649731e-01   8.7223309e-01   5.9636663e-02  -4.4171054e-02   2.5927655e-01   7.8794509e-01  -4.4718656e-01   8.5840050e-01   2.7680282e-01   8.8610304e-01   5.9655424e-01   3.3221844e-01   8.9137383e-01   8.9520814e-01   4.8847080e-01   2.2926488e-01  -8.5293072e-01  -9.2076063e-01   6.8936139e-01  -9.2600284e-02  -8.6399733e-01   6.0119223e-02  -8.0862617e-01  -4.1478861e-01   4.0478903e-01  -7.2722757e-01   5.8524434e-01  -1.5124655e-01  -6.4936149e-01   5.5371334e-01   1.1110627e-01  -3.3361029e-01   1.8574042e-01  -1.4290046e-01  -1.0992889e-01  -3.2242301e-01  -3.8725087e-02  -3.9515241e-01   7.0365703e-01  -3.7169636e-01   4.3889941e-01   1.5012119e-01  -5.6955462e-01  -1.4384863e-01   1.2003098e-02   4.7394960e-01   1.5353046e-01  -8.7245797e-01  -5.6960720e-01   9.4009632e-01  -3.4053023e-02   6.9438332e-01  -9.1015785e-01   7.9427668e-01  -6.6715256e-01  -8.9659850e-01  -1.6780363e-01   9.7914365e-01  -1.0509085e-01  -5.8461322e-01   2.1215559e-01  -7.0862615e-01  -6.2024318e-01   6.3836330e-01  -8.6292651e-01   2.5566807e-01  -5.2796486e-01  -2.7041782e-01  -4.0530813e-01  -8.1636388e-01   3.3500848e-01   3.4888811e-01   1.1878094e-01  -1.4048669e-01   1.0346714e-02   8.4658375e-01   2.2107042e-01   2.6911940e-03   9.4132135e-01   9.7280214e-02   5.9174137e-01  -3.0338262e-01  -7.7172177e-01  -3.2859513e-01  -7.2956470e-01   7.9509325e-01  -5.7142956e-01   6.2449695e-01   6.3267224e-02  -2.4944807e-01  -1.4361256e-01  -4.8122820e-01  -2.9475487e-01   8.2620233e-01   4.4492815e-01   8.5910663e-01   6.8782682e-01   1.0465755e-03  -2.2462935e-01   6.8915021e-01  -6.4175028e-01   5.2382061e-01   2.4607247e-01   1.9846339e-01   6.8928253e-01   7.6439427e-01  -6.3220818e-01   2.8957116e-01  -5.1438535e-01  -1.4111615e-01  -8.5618568e-01   5.5987234e-01   9.4181022e-01   2.5184397e-01  -9.4157527e-01  -6.4841551e-01  -9.7591737e-01   9.2212421e-01   7.9201007e-01  -1.7564282e-01  -7.6155220e-01   7.6450985e-01   9.9152385e-01  -1.3432380e-01  -1.1854561e-01  -5.8248539e-01   6.8416821e-01  -1.3733702e-01   4.3915289e-02   9.8197299e-02  -3.9005430e-01   3.7386663e-01   8.4023513e-01   9.9516465e-01  -2.1783857e-01   9.8120806e-01   4.6550157e-01   2.8832437e-01  -4.2084857e-01   1.4814043e-01   1.2216074e-02  -6.5443188e-01  -4.1858623e-02  -3.7700851e-02   6.6261060e-01  -1.5155837e-01  -1.3184250e-01  -5.8916905e-01  -1.5739587e-01   3.6433348e-01  -2.5447675e-01   8.2855681e-01   5.7685656e-01   5.5681429e-01   1.3916525e-02  -2.8267702e-01   9.6406548e-01   1.7953608e-01   8.8188973e-02   4.4979519e-01   5.7046799e-01   1.7546531e-01  -7.8819247e-02  -8.0329286e-01  -1.8955599e-01  -6.5169161e-01  -6.2026865e-01   5.2381936e-01   8.3304150e-01  -9.8716692e-01  -6.5969042e-01   4.5826494e-02  -5.2031000e-01   1.8010436e-01   8.4156172e-01  -5.0191511e-01  -5.8661618e-01   6.0489203e-01   5.3417272e-01  -7.2351820e-01   3.2651003e-01   1.5373060e-01  -7.4426017e-01  -7.6671178e-01  -2.3644597e-01  -7.2899650e-01  -4.0701398e-01   2.3093081e-01  -6.9835724e-02  -1.8797563e-01  -9.5278343e-02  -3.2480313e-01   7.9633544e-02   6.3603198e-01  -7.5088762e-01  -4.6817773e-01   8.1417209e-01  -6.3198615e-01   1.7204632e-02  -6.8745488e-01  -3.1957144e-01  -7.4100242e-01  -1.7622183e-01  -3.7880697e-01  -7.1009971e-01   2.9458945e-01  -8.3723843e-01  -7.8885662e-01  -1.3155106e-01  -6.4559259e-01  -1.4004772e-02   9.5403317e-01   1.0944528e-01   9.8427943e-02  -7.5022446e-01   5.6320873e-01  -4.1370625e-01  -1.5192829e-01   2.4390320e-01   4.7700591e-01  -3.1448240e-01   8.3526804e-01  -3.3584446e-02  -8.4026056e-01  -8.3212084e-01  -6.7740920e-01  -4.2787781e-01   9.9875769e-01  -1.1034930e-01  -7.2957013e-01  -7.5503482e-01  -6.4561344e-01  -4.6429668e-01  -8.3311716e-01   6.6566769e-01   7.2614188e-01   4.7457627e-01  -9.4865402e-01   4.7283290e-01   6.8791965e-01   1.9692823e-01   4.9236232e-02   9.0266795e-01   3.0935888e-01  -8.7687513e-01   4.5772508e-01   8.6297683e-01   3.0420221e-01  -2.3297478e-01   5.0678998e-02   9.4779441e-01   2.9249298e-02   3.5018793e-01  -6.0347888e-01  -4.0466488e-01  -4.2427233e-01  -8.7768918e-01  -8.5462888e-01   9.5986300e-01   1.3037353e-02   6.8068795e-01   9.0937695e-01  -7.0702831e-01  -3.4893272e-01   2.3166032e-01  -9.5750563e-01   1.0595311e-01   7.0319056e-01  -8.1228184e-02   1.1841851e-01   3.0247256e-01   3.5248457e-01  -4.9288305e-01  -1.9741304e-01   8.3313611e-02   8.3506871e-01   9.6266712e-01   8.1931871e-01   3.5022311e-01   2.3666446e-01   6.8368300e-01  -3.6675329e-01  -5.3483936e-01  -1.0906928e-01  -1.4508573e-01   7.7334755e-01   9.9231791e-01  -3.8561784e-01   8.5406052e-01  -6.4316604e-02   1.1365659e-01  -3.1090850e-01  -7.0733740e-01  -8.1357262e-01   6.3366631e-01  -3.7624285e-01  -5.1063768e-01   8.6716426e-01  -6.6634111e-01  -4.8638441e-01  -5.3603445e-01   6.0047827e-01   3.6601144e-02   8.9550276e-01  -9.1898890e-02   7.5099076e-01  -3.3901518e-01   7.7067064e-01   9.4913751e-01  -5.7688843e-01   8.2769946e-01   2.2968880e-02  -9.3246711e-02  -5.6873419e-01   6.5026671e-01   8.4094330e-01  -3.3893582e-01  -8.5163418e-01   2.9977683e-01  -1.4951104e-01  -6.5226752e-01  -6.8780388e-01  -9.9656019e-01  -6.2657583e-01   8.1809113e-01  -8.6319333e-01  -2.1567733e-01  -5.4496981e-02  -9.0746226e-02   3.6646600e-01   9.4659596e-01   3.4392555e-01   3.9916115e-01   4.2207908e-01  -9.6288236e-01   3.1233843e-01   3.3640718e-01  -6.7670237e-01  -6.9427634e-01  -8.9868761e-01   8.1523520e-01   1.4314549e-01  -5.2725317e-01   8.2265932e-02   4.7169490e-01  -3.8247265e-01  -8.2936925e-02  -3.2064163e-01   7.1114497e-01   5.3686742e-01  -6.5997322e-01  -5.3219188e-01  -9.9993187e-01   9.3222536e-01  -1.4488262e-01   5.2994286e-01   1.9446443e-01   9.3179256e-01   4.7652847e-01  -3.7232850e-01  -9.3080513e-01  -9.8950873e-01   2.3067101e-01   4.8178256e-01   7.3371740e-01   9.3472554e-01   7.4054936e-01   3.9667145e-01   9.3702030e-01  -5.6089892e-01  -2.7560301e-01  -4.0768125e-01   9.6128136e-01   1.9544494e-02  -9.8301794e-01  -2.8028213e-01  -9.6737411e-01   2.5553015e-01  -7.8939077e-01   6.0977396e-01  -7.7044745e-01   9.2068381e-01   2.3165936e-01  -7.5155162e-01   1.0960997e-01  -9.2817602e-01   6.5854340e-01   8.1773035e-01   2.9266914e-01  -7.3711270e-01   1.7937938e-01   5.8819608e-01   8.4599726e-01   4.1996468e-01  -9.6296952e-01   3.5710118e-01   5.3656718e-01  -7.1727534e-01   5.4210704e-01  -1.2291731e-01  -8.3780477e-01  -4.6821813e-01   9.0784273e-01   4.3772036e-03  -2.1090839e-01  -8.7528379e-01   9.1866140e-01   9.9469528e-01  -3.8437134e-01   7.8185915e-02  -5.2221890e-01   1.2977474e-01  -9.1631303e-01   1.7166493e-01   7.8879534e-01  -7.3808459e-01   9.5067868e-01   6.8818734e-01  -3.1195915e-01   8.4554128e-01   1.8416507e-01  -7.8795909e-01   4.1171505e-02  -2.3590807e-01   4.1861226e-01   3.3605392e-01   4.2004015e-01   6.9244302e-01   4.6746157e-01   5.5703898e-01   6.6680063e-01   1.7913093e-01   7.9556990e-01   2.2240134e-01   1.8102136e-01   3.4998904e-01  -1.9731832e-03   2.4871549e-01  -1.4651689e-01  -3.6461985e-01   7.5278579e-01   5.5468046e-01  -8.9733736e-01   6.6163334e-01  -3.1932100e-02  -2.0897528e-01   4.7008850e-01   3.8115664e-01   1.3941894e-01  -4.1678856e-01   1.2524772e-01   8.6627339e-01   4.5047497e-01  -2.9619054e-01   3.8555697e-01  -6.3077205e-01  -7.9967098e-01  -2.2785891e-01   6.8423060e-01   1.0427805e-01   5.3089090e-01   8.0682790e-01   3.5584232e-01  -7.3422562e-01  -6.0588071e-01   8.5648029e-01  -9.7983271e-01   4.8632535e-01   2.0714928e-01  -3.1783096e-01  -9.8283812e-02  -5.5233892e-01  -1.1135230e-01   7.3053014e-01  -4.3354058e-01  -9.1935243e-01  -1.0918604e-01   6.3320862e-02  -4.9760130e-01  -8.3895163e-02  -3.2545009e-01  -8.1635896e-01   1.7827141e-01  -3.6355323e-01  -3.6062254e-01   1.0102996e-01  -3.1366344e-01  -8.5333205e-01  -3.8868643e-01  -7.3189869e-02  -5.9367632e-02  -5.2990293e-01  -6.5493430e-01   9.5532562e-01   2.0829822e-01   5.1713558e-01  -5.1193881e-01   9.2767492e-02  -1.4993240e-01   7.8096299e-01  -8.4870021e-01  -5.9016464e-01  -1.2532352e-01   4.1703385e-01   4.0747203e-01  -5.4194646e-01   2.4292071e-01  -4.6515157e-01   7.9547231e-01   5.8033195e-01   3.5878197e-01   4.8550828e-01  -7.8567939e-01  -3.2301267e-01  -5.8897743e-02  -1.0685663e-01  -4.9854399e-01  -4.5696637e-01   9.9130800e-01   8.5155574e-01   5.9780841e-02  -4.9797741e-01   3.3040315e-01  -6.3597385e-01   7.6602749e-01   7.6637934e-01  -8.7980679e-01   7.2297545e-01   9.8388431e-01  -5.0330279e-01  -2.1741598e-01   3.5641230e-01   3.1765427e-02  -2.8150641e-01  -9.6116428e-01   5.3199637e-01  -9.4287551e-01   3.4792924e-01   7.8577367e-01   1.0900146e-01   8.2031429e-01   2.6870823e-01   1.0567018e-01   1.8557127e-01  -2.1041565e-01  -8.6567684e-02  -3.2653606e-01   4.6820614e-01  -9.9661922e-01  -7.2410311e-01   1.3153264e-01  -1.4415448e-01  -9.8789596e-01   5.6027930e-01   9.0053936e-02   4.3114215e-02  -7.0413557e-01  -2.8935690e-01  -1.8160403e-01  -8.9093524e-01  -7.2809910e-02  -4.2116899e-01   3.9133199e-01  -3.4429859e-01  -6.0221468e-01   1.0166375e-02  -1.5377318e-01  -5.7283865e-01   1.8400417e-01   7.1827341e-01   3.6749598e-01   1.2150782e-01  -9.7206710e-01   9.4187759e-02   3.2562829e-01  -2.2409312e-01  -9.0411826e-01  -8.7610893e-01   9.9740513e-01  -6.0263976e-01   1.1301110e-02   6.3861813e-01  -2.9021491e-01  -7.7584578e-01  -2.5231422e-01  -3.1280116e-01  -9.7552036e-01   9.7105930e-01   3.1397787e-01  -7.7564932e-01  -6.5133662e-01   7.9218361e-01  -1.1102483e-02  -5.2858738e-01  -2.1816924e-01  -4.8188398e-01   9.7463410e-01  -8.0820617e-01   3.2146966e-01   2.3618961e-01  -3.5956163e-01  -5.8886671e-01   4.4932115e-01  -7.2328591e-03  -3.5659432e-02  -1.4811109e-01  -3.5992670e-01  -3.6351690e-01  -8.4890512e-01  -6.0724304e-01   6.1802313e-01  -1.5778511e-01  -3.5819890e-01  -2.9432327e-01  -9.5773081e-01   6.3199698e-01  -8.2924472e-01  -1.0896500e-01   7.1188739e-01  -7.9535555e-01   4.6149570e-01  -4.2799459e-01   8.1901975e-01  -5.8941376e-01   1.4241772e-01  -2.2058650e-02   7.4962601e-01   5.8619037e-01   2.8791181e-01   1.2798305e-01   5.1005687e-01   7.5168977e-01  -6.3354675e-01  -4.4059619e-01  -3.5939180e-01  -1.6820749e-01   5.8655518e-01   6.5862610e-01   5.5361543e-01   8.7544027e-01  -4.3726724e-01   5.9201902e-01  -5.7190317e-01  -9.7519115e-01  -3.9848642e-01   8.0012383e-01  -2.7547975e-01   6.9308941e-01  -3.5488539e-01  -4.1610423e-01  -4.3025534e-01   6.5388492e-01   1.8865407e-02   5.1156263e-01   3.4144906e-01  -1.8869421e-01   9.1951532e-01   4.8015012e-02  -6.6083301e-01   9.8203772e-02   9.0499231e-01   7.0134845e-01   9.9933723e-01  -3.6755932e-01  -4.0111247e-01  -8.3020049e-01  -7.6024133e-02   4.8585264e-01  -8.3056451e-01   3.6339114e-01  -5.2808229e-01   9.5617777e-01  -1.2051104e-01   1.2599429e-01   4.6241213e-01  -4.8070495e-01   2.5975529e-02   6.7459642e-01  -6.9969257e-01   1.0154337e-02   4.8643559e-01   9.1538988e-01  -2.8435956e-01   1.0053543e-01  -6.5709348e-01  -8.3026858e-01  -5.1711405e-01   1.9352119e-01  -1.4206098e-01  -8.9818494e-01   2.1468263e-01  -2.0045231e-01  -8.3480970e-02  -7.1333498e-01  -5.9248835e-01  -1.1425016e-01   9.7809427e-01  -3.4110443e-02   7.6893052e-01   1.7838595e-01   9.6608458e-01   5.9207304e-01  -1.1780314e-01   1.3154485e-01   8.7428967e-01  -3.6502452e-01  -8.5260868e-01  -6.8103894e-01  -9.9617393e-01   2.2226305e-01  -4.1696286e-02  -8.0706041e-01  -5.5375598e-01  -5.5003227e-01   9.7286052e-01  -6.1214619e-01  -8.5875813e-01   5.0391203e-02  -6.3485534e-01  -6.1720775e-01  -1.3242734e-01  -7.5780345e-01  -6.8415206e-01  -8.9439243e-01  -8.7588950e-01   2.4157928e-01  -4.7359297e-01   5.3384158e-01  -5.3482998e-01  -5.0299954e-02   9.0634967e-01  -4.4550155e-01   7.9879022e-01   1.7054863e-01  -4.0613284e-01   8.3614308e-01  -3.2321589e-01   2.6158968e-01  -7.7783680e-01   7.5251199e-01   5.8234142e-01  -5.2890483e-01   1.9314307e-01   9.9641264e-01  -5.1263065e-01  -2.6788433e-01   9.0167048e-01  -5.8448209e-02   1.2154506e-02   3.2179315e-01   8.2523290e-01   8.1748490e-01  -2.7733381e-01  -1.5343187e-01  -5.2310477e-01   9.9864833e-01   4.2061318e-01  -8.0696331e-01  -9.7439103e-01   3.6340643e-01  -2.4619170e-01  -5.1131245e-01   2.2571348e-02  -5.3865646e-01   7.2740008e-01  -9.6360809e-01  -2.9442126e-01   5.6996313e-01   9.8848796e-01  -1.3501726e-01   5.1543202e-01  -6.9148651e-01   3.6429787e-01   9.4666635e-01   5.2106849e-01  -4.9153052e-02   2.1089822e-01  -3.4940250e-01  -2.1733056e-01
   8.3641110e-01   8.5262227e-01   1.9374064e-02  -7.9312118e-01  -2.0708320e-01  -4.1506637e-01   2.3156734e-01  -3.5056185e-01  -1.9687336e-01   4.3802915e-01  -3.6780377e-01   2.0756264e-01  -1.2794231e-01   4.8155540e-01   6.2792541e-01  -4.8928481e-01   7.7471744e-01  -2.8796519e-01  -5.5443951e-01   1.8567834e-01   5.5140047e-01   7.4243902e-01   9.0234695e-01   9.6501297e-01  -7.7311945e-01   1.9593790e-01  -5.4808538e-01  -2.2077720e-01   9.5771225e-01  -4.0932696e-01  -8.1153426e-02  -3.4091639e-02  -4.1674792e-01   3.3423237e-01  -7.6061708e-01   7.5290253e-01   1.6133514e-01   4.8896235e-01  -1.6778021e-02  -7.6145291e-01   6.9419489e-01  -7.3355362e-01   8.6932945e-01   3.5575390e-01  -2.1852839e-01   2.9098081e-01   8.2698831e-01  -6.0324698e-01  -4.5641728e-01  -2.3561936e-01  -3.6645123e-01   7.6230380e-01  -4.8504669e-01  -3.6350389e-01   2.3241341e-01  -2.9892576e-01  -7.4031701e-01   7.0792905e-01   6.7165694e-01   2.3326067e-02  -5.7093806e-01  -1.8753272e-01   6.4653906e-01  -2.3494443e-01  -8.4143825e-01  -8.8750348e-01   5.1765920e-01   8.0839857e-01   9.1300972e-01  -2.8520499e-01  -9.7200114e-01   3.9669839e-01   6.0627067e-01  -3.5024556e-01  -9.4607245e-01   2.7754888e-02   2.2122323e-01   6.2651029e-01   9.7754871e-01   1.4303023e-01   1.0293096e-01  -4.2553847e-01  -8.3194503e-01   5.4637385e-01  -3.0986893e-01  -9.5756091e-01  -7.9859793e-02   5.6767869e-01   3.9127641e-01  -6.4323530e-01  -4.8290390e-01  -7.4225687e-01   2.3865943e-03   6.2098604e-01  -1.5766146e-01  -4.1373379e-01   4.2247090e-01  -5.3763457e-01   7.5436588e-01  -5.4073310e-02  -7.1796341e-01   5.3554723e-01   1.9576954e-01  -7.2548564e-01  -9.7091635e-01   1.7169960e-01  -3.8474285e-01   4.3516520e-01   4.0318587e-01   6.8378055e-02  -4.6106949e-01  -6.3954712e-02  -4.1472505e-01  -6.0220958e-01   1.5236743e-01   6.7951926e-01   5.6206111e-01   6.5037561e-01   7.2657300e-01   5.4761908e-01  -4.2840132e-02   4.3609667e-02  -7.7374825e-01   2.3863768e-01   8.7154386e-03  -3.9643301e-02  -6.8223600e-01   1.2783059e-01   4.9164754e-01  -9.3840434e-01   7.3580882e-01   5.0201797e-01  -7.4381002e-02  -2.2035756e-01  -2.1896867e-01   4.7472389e-01  -5.3956769e-02   9.1188545e-02   4.6543802e-01  -6.0129022e-01   6.0742251e-02  -6.6676732e-01   5.3407222e-01   6.2914420e-01   4.8496752e-01   8.5351357e-01   8.7897011e-02   4.2681460e-01   1.5246374e-01   1.9708234e-01   6.0434497e-01   8.6414679e-01  -8.4375953e-01   5.6260431e-01   9.2487913e-01   5.0369087e-01   1.0633482e-01   5.5773331e-02  -5.4501939e-01   2.6108015e-01  -2.1341038e-01   2.9256945e-01  -1.9446891e-01   2.6608955e-02  -7.7245128e-01   5.2181473e-01   6.0162165e-01  -7.0730700e-01  -6.0985818e-01   7.3224018e-01   9.9970519e-01   8.6337627e-01   5.3317029e-01  -1.8048130e-01   9.7415483e-01  -9.6056941e-01   5.2363809e-01  -3.3680389e-01  -7.3245035e-01  -9.2608066e-01   6.7878983e-02   1.8573875e-01   7.0114720e-01   3.3621632e-01  -6.4981440e-01  -7.4582931e-01  -4.4785073e-01  -1.2710539e-01   2.5985829e-01   4.6016599e-01  -3.5395110e-01   8.8316495e-01   7.8519815e-01   8.3473868e-01  -9.9738047e-01  -3.0054971e-01   9.1591822e-01  -1.4281399e-01   8.6249735e-01  -8.0639521e-01  -3.4417099e-01   8.4483007e-01   1.3507616e-01   6.7169941e-01  -3.2373081e-01  -5.1685131e-01   4.3456399e-01   5.0303739e-01   3.6748575e-01   1.2575538e-03   8.0477133e-01  -7.8168142e-01  -2.4216836e-01   4.3584722e-01   2.8755819e-01  -6.8143462e-01  -9.1151997e-01  -9.4701207e-01   3.7803926e-01   7.9801511e-01  -8.5424385e-02   1.4641458e-01  -4.9471377e-01  -3.4179208e-02  -4.3852124e-02  -1.3077525e-01   4.1820004e-01   4.5228506e-01   7.6021236e-01   5.6453865e-01  -3.8515684e-01   4.3749315e-01  -4.8107092e-01  -6.6264870e-01  -4.9417298e-01   3.1189813e-01   7.7823921e-01  -6.9148199e-01  -7.2708792e-01   3.5612792e-01  -4.8527883e-01  -8.9693041e-01  -1.1233544e-01   3.8768037e-01  -1.1863011e-01   4.3872703e-01  -7.3069503e-01  -7.5948683e-01   2.0671947e-01  -8.1370492e-01  -6.3237537e-01  -7.5896018e-01  -2.7707269e-02   6.0595071e-01  -5.1197083e-01  -6.9718251e-01   4.0475885e-01  -8.5510573e-01   7.6493791e-01   8.1594103e-01   3.9939769e-01  -3.1880486e-01  -9.2029340e-01  -2.5840716e-01  -5.3503223e-01  -9.8091605e-01  -3.9766274e-01   3.1413692e-01   7.6413351e-01   1.9730622e-01  -4.7146389e-01   3.4302732e-01   4.7017298e-02  -2.9890287e-01   9.7906667e-01   6.0177085e-01  -8.9701136e-01  -3.5920417e-01  -8.0010610e-01  -9.2597586e-02  -3.7600729e-01   6.1037583e-02   6.5110163e-01   1.8084770e-01  -3.5789021e-01   6.2993754e-01  -3.1580955e-01   3.6478023e-01   6.5574838e-01  -6.3756636e-01  -2.2197875e-01  -6.0008233e-01  -5.1488069e-01   8.9747069e-01  -8.7503097e-01   7.2127176e-01  -6.7902199e-01   7.4888255e-01  -9.5267014e-01  -6.0633665e-01   6.0736452e-01  -7.6796284e-02   9.9569691e-01   4.9678325e-01  -5.3903544e-01  -5.5961844e-01   9.5871404e-01   3.3534044e-01   1.4894981e-01  -4.5331284e-01   3.7864607e-01   4.9658228e-01  -3.6737667e-01   2.5198206e-01   1.8318046e-01   3.6660374e-01   7.4562209e-01   6.0263559e-01   2.6355176e-01   7.3879347e-01   3.9415828e-02   5.5768697e-01   9.6444933e-01  -9.9238313e-01   8.5919816e-02  -4.8239256e-01   1.8405383e-01   4.6649126e-01  -4.9600580e-01   5.1817024e-02   7.1809621e-01  -5.1218787e-01   6.3943047e-01  -4.3456512e-01   8.9383301e-01  -2.8190170e-01  -5.4924957e-01   6.6338636e-01   4.5563625e-01   4.8981144e-01   7.7285724e-01   7.4441696e-01  -6.7321263e-01  -4.3283479e-01   4.7442791e-01   9.3323796e-01   2.2150217e-01  -3.0087616e-01  -4.3637366e-01  -5.2800402e-01   6.1260214e-01  -8.7445839e-01   5.0766990e-01  -3.2695018e-01   1.1124820e-01   3.6635321e-01   3.9745582e-01  -4.5481698e-01  -1.7479315e-01  -9.9868328e-01   5.4714211e-01   9.9374277e-01  -8.7871030e-01  -5.8773523e-01   9.3098892e-01   1.8362056e-01   5.4979359e-01  -4.5214030e-01   6.7292116e-01   7.5041672e-01  -1.2142368e-01  -3.4353124e-01   3.7875523e-01   1.6701178e-02   3.9861301e-01  -3.3363781e-01  -6.1708638e-01  -9.8474381e-01  -6.5979409e-01  -5.0865812e-01   1.8092117e-01  -1.0835300e-01  -7.6974272e-01  -9.8664435e-01  -3.8239644e-01   4.1366215e-02   7.4771580e-01  -2.5743665e-01  -4.9980783e-01  -9.6287391e-01   8.5113837e-01   6.7449882e-01   9.4148024e-01  -5.5852640e-01  -4.7760960e-01  -8.3741711e-01  -8.2481248e-01   8.2612399e-01   5.7130669e-01  -2.1811825e-01   2.8313600e-01  -4.8879005e-01  -8.0075406e-01  -9.4343370e-01  -8.9417987e-01   7.5258416e-01   4.4352120e-01   2.8350718e-01  -9.6540725e-01  -3.3031682e-01  -7.0950141e-01  -9.6892073e-01  -2.8093009e-01  -5.7028851e-01   8.1824115e-01   6.7039193e-01   7.5362699e-01  -2.3552766e-01   3.2309640e-01  -6.5190739e-01   8.9543537e-01   6.0826201e-01   9.7038376e-01   9.9781556e-01   2.6911351e-01  -1.8566265e-01  -7.1630383e-01  -2.5821114e-01  -1.0806327e-02  -4.5473427e-01  -7.7076077e-01  -5.8863216e-01   3.4871770e-01  -8.6685243e-01   2.0966839e-01  -4.6300156e-01   8.1894594e-01   3.3926640e-01   9.1898294e-01   5.9263361e-02   7.4450323e-01   4.9134425e-01   6.8157922e-01  -2.7580174e-01  -9.0079506e-01  -3.8148131e-02   9.7261970e-01  -2.0404259e-01  -8.0911906e-01   2.6747382e-01  -3.4182884e-01  -8.1037848e-01   9.4853266e-01  -4.9931654e-01   3.0405755e-01   5.2491798e-01   4.4419103e-01  -3.0897492e-01   1.1960472e-01  -6.6556137e-01  -8.0615753e-01  -8.4035238e-01   5.4565832e-01  -9.5183648e-01  -4.9456922e-01   3.5009472e-01   8.8391344e-01  -2.7128167e-01  -4.3726953e-01  -1.5000536e-02  -8.1587220e-01  -2.0742682e-01  -4.0483115e-01   5.0050726e-01  -3.1228673e-01  -3.9665074e-01  -3.7049229e-01   5.1392748e-01   8.7433529e-01  -9.9184330e-01   9.5816808e-01  -3.9363532e-01   7.0457086e-01   1.3537638e-03  -7.0656545e-01  -4.0193805e-02   1.2146621e-01   2.5650489e-01  -3.1791323e-01  -9.0311803e-01   2.1718686e-01   4.0355029e-01   1.4150476e-01  -3.6468245e-01   9.1507399e-02   3.4783577e-01  -1.9303398e-01  -9.9901223e-01  -1.5935126e-01  -7.2148234e-01  -5.9045419e-01  -1.5096334e-01  -8.3202466e-01  -5.9066864e-01   3.1348179e-01  -1.8212587e-01  -9.1279019e-01   8.8552316e-01  -9.4701490e-01   6.1191762e-01   5.9523965e-01   7.2495491e-02  -9.8252187e-01  -7.5699306e-01  -2.0034156e-01   5.3739808e-01  -9.0355814e-01  -7.4034499e-01  -4.6535523e-03  -9.3547958e-01  -4.4598710e-01  -4.9813720e-01  -7.7877694e-01  -9.1672732e-01   7.4697655e-02   8.4592945e-01  -1.4510962e-01   7.7231164e-01   6.8305214e-01   6.3112539e-01  -5.4998234e-01  -2.1997796e-01  -4.4127719e-01  -3.0658597e-01   5.8013764e-01  -6.5945554e-01  -2.6969396e-01  -4.4726983e-01  -2.6355447e-02   4.6163889e-01  -8.7258931e-02  -6.1956500e-01  -1.1078059e-01   4.2441685e-02   8.5996272e-01  -7.6154934e-01   1.1931020e-01   5.6420917e-01   5.2579847e-01  -4.2097673e-01   1.2425217e-01   6.0042447e-01  -3.3788421e-01   2.3014536e-01   5.9234155e-01   7.9435031e-01  -4.3387875e-01  -8.5160808e-02   9.9216745e-01  -4.8901610e-01  -5.0143924e-01   6.7503707e-01  -9.1353970e-01  -2.1555059e-01  -2.6919058e-01  -9.9289472e-01  -7.7938230e-01  -1.9264900e-01  -9.9999533e-01   7.7780995e-02  -9.5790755e-01  -3.3455355e-01   1.5907306e-01   5.2397900e-01   8.2669716e-01   3.1548792e-02  -8.7448730e-01   4.0374975e-01   1.9460662e-01  -4.4282567e-01   3.1847839e-01   1.6674071e-01   6.0602057e-02   7.6121990e-01  -6.2976822e-01  -8.9359040e-01  -5.9581960e-02  -3.2798481e-01  -8.8825822e-01  -1.7061791e-01   4.7542626e-01   3.3563829e-02  -9.1440330e-02   7.2301456e-01   6.0941114e-01   8.5885411e-01  -9.6471591e-01   6.9529916e-01   9.4192608e-01   1.8525405e-02   8.1397286e-01   1.4340360e-01  -6.9190111e-01  -1.2497283e-01  -7.2205988e-01  -7.9446073e-01   3.3500631e-02   7.8132043e-01   6.7055776e-01   4.0365408e-02   6.2641035e-01  -7.5558827e-01   3.5033273e-01   2.5798354e-01   7.9522485e-01   7.2369315e-01   8.9887418e-02  -2.9047351e-01  -5.5262935e-01  -5.4980859e-01  -7.0347451e-01  -2.9064957e-01  -6.8790030e-01  -3.7850182e-01  -1.9713028e-02  -7.2681847e-01  -5.3501623e-01  -8.3481831e-01   2.3518908e-01  -4.1690849e-01   4.9304550e-02  -8.0940989e-01   4.5169574e-01  -5.9885466e-01  -4.4117823e-01  -5.1413190e-02   6.6800634e-01   6.2325227e-02  -9.6993621e-01   7.1372411e-01   4.3031441e-01   7.2787010e-01  -1.4228977e-01  -6.7499199e-01  -5.9286064e-01   1.1445173e-01  -8.9729609e-01   8.9459362e-01  -1.9537532e-01   4.4787190e-02   1.0669824e-01   9.8689815e-01   8.4515178e-01  -8.9712337e-01  -5.1626117e-02   2.6137452e-01   6.6577345e-01   7.5859247e-01   1.3194567e-01   6.3937820e-01   6.9835531e-01   1.1678421e-02  -7.2822359e-01  -6.9866673e-01   8.1758435e-01  -1.4809997e-03   7.1477946e-01   7.3686441e-01   2.9171389e-01  -6.5216264e-01   9.6425651e-01  -3.6467181e-01   8.5410089e-01  -6.7215253e-01  -1.4877262e-01  -1.0040116e-01   9.2133321e-01  -8.8675592e-01  -5.5163972e-01  -6.3775244e-01  -4.6585777e-01  -1.8399709e-01   1.0225474e-01  -1.4413047e-01  -4.1650504e-02   7.0755704e-01   2.6241741e-01  -6.3912928e-01   3.4718456e-01  -6.9339986e-01  -9.9615548e-01   8.9630834e-01   4.3214793e-01   3.5438825e-01   2.0314842e-01  -3.2136234e-01  -8.6516869e-01  -4.7912782e-02  -6.0762291e-01   9.6902303e-01   3.9944236e-01   2.5039296e-01  -1.3759264e-01   8.6095750e-01   5.4572503e-01   7.9298390e-01   2.0405629e-01  -1.7738837e-01   7.9757903e-02   2.8274775e-01  -3.4561705e-01  -7.3489351e-02   9.0540233e-01  -2.4902356e-01  -9.1515180e-01  -9.3387793e-01   7.5577887e-01   3.1077069e-01   5.6810286e-01  -1.9773276e-02  -6.6377933e-01  -3.1891864e-01  -8.7539868e-01  -7.2013960e-01   9.2234951e-01  -3.3011737e-01   2.0069464e-02   2.0274159e-01  -9.2507522e-02  -9.5705979e-01  -8.1646877e-01   7.4127299e-01  -4.3420872e-01  -2.9021102e-01   2.9534726e-01   3.1370213e-01   7.9948873e-01  -4.0779866e-01  -2.9891737e-01  -1.8044372e-01   8.3181898e-01  -4.6777079e-01  -2.1408989e-01   5.7081307e-02  -1.1136049e-01  -2.8188137e-01  -4.3586493e-01   1.5359925e-01  -4.7270693e-01   6.1389334e-01   5.8777703e-01   1.8750583e-01   9.2152768e-01   8.0855545e-01   4.6583126e-01   2.4538706e-01   3.6811868e-01  -1.9601881e-01   2.7543952e-01  -5.2282668e-01  -9.8197253e-01   4.2355495e-01  -1.1077486e-01  -3.3223177e-03  -7.9892143e-01  -1.3050393e-02  -6.6959859e-01   9.5052867e-01  -6.9933984e-01   7.8086355e-01   4.1699507e-01  -1.3015576e-02  -1.6995810e-01   7.9607803e-01   1.4078385e-01  -6.9242690e-01   2.6489401e-01  -6.7257062e-01   5.6120932e-02  -5.7965712e-01   7.3028176e-01  -4.3181842e-01   7.5619797e-01  -2.4154467e-01  -3.2192176e-01   1.7597701e-01   5.1068533e-01  -3.0863048e-01   3.1556380e-01   2.2656827e-01   4.1246369e-01   7.6210792e-01  -4.4716896e-02  -2.2830367e-01   2.1535767e-01   3.1172439e-01  -1.5295334e-01  -2.0755121e-01  -4.6160656e-01  -6.2127118e-01  -5.9023301e-01  -6.0625247e-01   7.0732324e-01   4.8035418e-01  -3.2128744e-01   6.1767369e-01  -7.5094612e-01   2.9304574e-01   9.0773997e-01   4.8026739e-01   4.1124536e-01  -3.7430465e-01  -6.0867116e-01   5.1493936e-01   3.7713459e-01  -8.9026547e-01  -1.4498678e-01   9.3526569e-01   2.4786370e-01  -4.2657528e-01   7.6368252e-01   3.1945523e-01   2.0505785e-01  -2.2439252e-01  -2.8335135e-01   8.8565473e-01   6.2396929e-01   9.0188368e-01  -9.8700078e-01   1.5191845e-01   1.5832035e-01   8.5051695e-01  -9.6612732e-01  -6.3910425e-01  -8.0390072e-01   9.9699904e-02  -6.8900244e-01   1.5199267e-02   2.6132478e-01   9.6860894e-01   3.1741154e-01   1.8597887e-01  -4.1870729e-01  -7.4792523e-01   3.0993666e-01  -7.6195799e-01   1.1624499e-01  -3.3657544e-01   2.6237774e-01   3.1472337e-01   3.3561757e-01  -1.4712061e-01  -4.0935799e-01  -4.2628929e-01  -7.5828440e-01  -3.5520940e-01   5.7789244e-01  -5.5242978e-01  -6.7817673e-01  -2.0040068e-01  -8.9849328e-01   9.6823760e-01  -5.9573870e-01   5.5414313e-01   1.1298248e-01   4.5234483e-01  -7.3132084e-01   9.6121879e-01  -1.0664271e-01   6.1187186e-01  -9.2259913e-02   6.3204505e-01  -5.6221999e-01  -6.8486114e-01   9.6490534e-02   5.7024971e-01  -8.7170053e-01  -2.9691558e-01   9.4139338e-01   6.9850769e-01  -5.0692492e-01  -5.6365791e-01   3.2053175e-02  -8.8951716e-01  -7.4547168e-01   3.7233941e-01   6.1398841e-01  -1.2720979e-01   3.7244177e-01   6.9110779e-01   1.7326138e-01   6.6896907e-01  -7.2800301e-01   5.6676945e-01  -7.9785803e-01  -2.6328445e-01   6.2404413e-01   4.4155289e-02  -4.4580778e-01   4.2461961e-01  -7.5494656e-02  -7.4999042e-01  -3.1574485e-01  -6.3890527e-02  -5.7819745e-01   4.5766338e-01   4.8635755e-01   1.0574899e-01  -6.0825349e-01  -1.7699874e-01   4.3681613e-01  -1.6763232e-01  -3.7362049e-01   6.5537346e-01   8.6587795e-01   2.7078171e-01   9.5871083e-01  -3.5124830e-01   8.3452890e-01  -3.7886845e-01  -8.9257689e-02  -2.9288106e-02   2.5993276e-01   4.0762472e-01  -6.3028607e-01   3.8577704e-01   6.9530377e-01   5.4383330e-01   2.4506691e-01   3.9412959e-01  -1.3984451e-01  -4.9267188e-01  -5.1203262e-02  -2.9311792e-01   7.7781829e-01  -8.3315056e-01   2.6455617e-01  -5.7169764e-02   6.9169986e-01   8.4910082e-02   2.9391841e-01  -1.0100858e-01  -6.6557660e-01   1.0216178e-01   5.7145891e-01  -2.0442136e-01  -7.0270655e-01   7.3222956e-01  -7.9508292e-01   3.8580795e-01   1.6774458e-01   5.3384666e-01  -8.0962294e-01   1.2606040e-02  -9.3457862e-01  -9.0430338e-01  -6.1684810e-01  -7.1573186e-01  -6.9002679e-01  -5.9085465e-01   5.4087598e-01  -6.4205471e-01   3.3330272e-01   9.9378905e-01  -7.5064682e-02   9.5475209e-01   1.6974023e-01  -2.6036718e-01   5.5750112e-01  -6.2083422e-01  -1.8345144e-03  -1.7396706e-01  -7.4518175e-01  -5.5609526e-01   2.5353484e-01  -2.9795860e-01   5.7112483e-01   3.1853068e-01   1.9567352e-01   8.4587601e-01   7.7260041e-01   9.9546856e-01  -7.5839211e-02  -2.6813825e-01   3.3177632e-01   3.4796690e-01  -9.2421123e-01   1.6083205e-01   2.2192337e-01   3.7876176e-01  -6.7873180e-01   7.7817020e-02  -4.7075161e-01  -1.8757665e-01   6.7196123e-01   6.5508458e-01  -4.4378816e-01  -6.3899023e-02  -7.9701468e-01  -5.2873548e-01
   5.6616385e-01   2.4824341e-01   4.0982807e-01   4.6186142e-01  -4.7116508e-01  -6.2368756e-01   4.0491487e-01   5.5832652e-01   5.4987620e-01   8.2216459e-01  -2.0128194e-01   6.4129352e-01  -9.1500653e-02  -3.8388434e-01   9.8745407e-01  -2.4728401e-01  -1.7456443e-01   8.8583386e-01   9.5055685e-01  -3.0241383e-01   7.0851255e-01   6.4664789e-01  -7.3061167e-01   4.3343295e-01   3.3779098e-01  -7.5670681e-01   7.6792879e-01   9.7265748e-01  -9.7124704e-01  -9.6498115e-01  -7.5086258e-01  -6.5295407e-02  -1.9021823e-02   8.0725764e-01   1.5800915e-01  -9.5257700e-01   5.4123163e-01  -2.5468730e-01  -5.4910687e-01  -8.7150098e-01  -2.0109061e-01  -2.0104625e-01   5.5905401e-01  -1.7320619e-01   3.9149915e-02   9.7076030e-01   3.5321480e-01  -9.7056516e-01   7.2451388e-01   8.2608816e-01  -5.7860943e-01   2.8616622e-01  -6.1588924e-01  -4.8258187e-01  -5.5271438e-01  -7.3837562e-01   1.9380648e-01   8.8023349e-01   6.1536168e-01   5.0001840e-01   6.2157644e-01   3.4559974e-01  -9.8637659e-01  -3.6324687e-01  -1.8228507e-01  -8.6867478e-01   4.3615760e-01   1.3105450e-01  -5.9422694e-01  -6.5959918e-01   3.5918402e-01   7.1388631e-01  -8.9081886e-01  -9.7905403e-01   4.4826492e-01  -4.9919357e-01  -7.0184027e-01   7.3904975e-02  -9.2008752e-01   3.0007537e-01   4.8920278e-01   9.6389625e-02  -5.7805907e-01  -3.0237395e-01   4.9737157e-01  -5.0886769e-01   2.2838038e-01  -6.5224493e-01  -2.4741928e-01  -7.9638995e-01   3.5876570e-01   6.5305765e-01   7.0923047e-01  -1.9386972e-01  -1.4990073e-01  -7.1127506e-01  -3.9794156e-01  -1.7913696e-01  -6.3889253e-01  -3.8433886e-01  -7.4009131e-01   8.0891877e-01   8.6138558e-01  -8.5516391e-01   2.7257105e-01  -3.6135677e-01   4.6593305e-02   8.4221888e-01   4.1195120e-01  -8.8587896e-01   4.6656233e-01  -9.8468003e-01  -7.5110572e-01   3.7882672e-01  -9.3737095e-02   5.3263349e-01   4.4334518e-01   1.4813538e-01  -7.4988783e-01   6.7672396e-01  -6.8969112e-01  -1.4320811e-01  -4.1486513e-01  -7.2557180e-01  -3.9934200e-01  -9.3573790e-01   1.4580971e-01   9.2427580e-01  -5.1806352e-02   6.0034695e-01   3.8026211e-01  -8.3200414e-01  -6.6574973e-01  -5.6681037e-01   7.9139794e-01   3.9527635e-01   4.2290525e-01   8.4771690e-01  -9.8329973e-01   7.6337229e-01   2.9537140e-01  -3.9040621e-01  -6.4733036e-01  -2.0345427e-01   9.4013035e-01   1.1947591e-01  -2.9037329e-01  -2.4708612e-01  -5.3845199e-01   2.4297374e-01  -7.8997623e-01  -4.1063369e-01   1.0307450e-01   3.0780728e-01  -5.4240229e-01  -2.5831522e-01   6.1493492e-01  -6.2517594e-02   3.2807231e-01   9.0140995e-01  -3.6202421e-01  -2.5929911e-01   9.0318358e-01   9.2607491e-02  -4.4574052e-01   5.4061351e-01  -6.1947079e-02  -4.8518594e-01   1.8361757e-01   2.5650105e-01   8.7686966e-01   1.8959552e-01  -8.4687846e-01  -8.1383940e-01   1.2832986e-01  -3.9977266e-01  -1.2132270e-01   5.9937674e-01  -7.0347663e-01  -2.1607190e-01  -5.8824814e-01   2.0570942e-01   6.7614799e-01   4.2819648e-01   6.7919766e-01  -4.2731353e-01   9.3599115e-01   9.8022472e-01   3.7307848e-01  -8.1294120e-01  -6.5622724e-01   2.4659983e-01   4.5029884e-01   5.1118854e-01   6.5114284e-01  -4.8761180e-01   5.8657118e-01   4.9302274e-02   8.9029857e-01   4.5751184e-02  -6.0222617e-02   6.7446022e-01  -8.1955743e-01   6.9461063e-01  -5.0401098e-01   1.3588432e-01   3.3200375e-01   1.3334123e-01   1.5367200e-02   2.8250907e-01  -1.6106935e-03  -6.4144885e-01   8.8063165e-02   6.2011731e-01   3.1346337e-01  -9.7291496e-01  -4.2262658e-01  -7.4203207e-01  -8.9923302e-02  -9.7002665e-01  -3.8506898e-01   1.9791818e-01   7.3922409e-01  -6.9308021e-01  -9.3269676e-01  -9.4343003e-01  -4.3789925e-01  -9.7392336e-02  -6.9846447e-01  -2.6870137e-01   5.4320729e-01  -3.7616834e-02  -3.1726546e-01  -8.6403303e-02  -5.9211818e-01   7.3719000e-01  -3.1797029e-01  -3.1347480e-01  -1.9493129e-01   7.1196957e-01   4.2802082e-01  -4.3224411e-01  -2.4956170e-02  -8.6369085e-01   5.7893671e-01   9.3795813e-02  -3.6514873e-01  -1.3842087e-01  -3.6479364e-01  -3.5836260e-01  -1.6810415e-01   1.1247924e-01  -3.4880915e-01   6.3386023e-01   4.9974639e-01   1.1401212e-01  -5.3053787e-01  -7.1940837e-01  -6.9616364e-01  -1.2001189e-01   1.8741239e-01  -8.5656164e-01  -9.9949380e-01  -6.3736050e-01   4.1360191e-01   8.0642489e-01  -1.8383728e-01  -4.2279434e-01  -8.4858056e-02  -6.6332968e-01   7.9429496e-01   2.6706743e-01   8.3722748e-01  -8.8504878e-01  -1.9357785e-01  -6.8139082e-01   8.7661267e-01   3.5927520e-01  -6.4183701e-01  -2.7345258e-01  -1.4769934e-01  -4.7800257e-01  -4.1402838e-01   7.0710257e-01  -4.2508815e-01  -2.0769314e-01  -5.9983452e-01  -9.0999977e-01   5.0995488e-01  -4.4971668e-01  -4.7478153e-03   3.6178678e-01   4.3205269e-01   9.5445489e-01  -8.4918244e-01  -5.1750113e-01   9.6897968e-01   8.7977779e-01   1.9779386e-01  -6.7688889e-01   6.1916671e-01  -1.6874971e-01   3.4721283e-02   9.2954164e-01   8.5674613e-01   4.7077537e-01   8.0894499e-02   4.5336852e-01  -8.0623172e-01  -4.8919324e-01   2.5573640e-01  -4.6579276e-01  -9.0371124e-01  -5.3724848e-01   9.6973218e-01   5.9129786e-01  -4.7147815e-01   8.6555191e-01   1.5864932e-02   4.8887665e-01   3.3638595e-01   1.2536663e-01  -7.8590368e-01  -4.4570974e-01   4.9349104e-01  -5.3105101e-01   9.0878327e-01   3.8797033e-01   2.4054886e-01  -1.8245955e-01   7.4330181e-01  -1.7878457e-01  -8.1736890e-02  -9.5453401e-01   5.0628989e-01  -7.6842876e-01   1.4891616e-02   6.2939203e-01   4.4622105e-01  -8.1575759e-01   2.1401931e-01  -9.3766505e-01   8.4570744e-01  -2.3932379e-01  -9.3396968e-01  -6.8547968e-01   3.2274007e-01   7.4876827e-01   5.6183765e-01   5.2364110e-01   7.2693152e-01   9.7519292e-01   2.6960918e-02   2.2995988e-01  -2.7827552e-01   8.5350377e-01   1.6362582e-01  -7.5613902e-01   4.2604946e-01   1.8594595e-01   7.2255108e-01  -7.0646575e-01   8.6003183e-01   4.4962697e-01  -6.5293091e-01  -6.3234525e-01  -4.6907088e-01   8.7898068e-01   3.5638310e-01  -2.9600779e-01   9.8357766e-01   2.0730170e-01   8.6609763e-01  -2.7518618e-01  -3.7081402e-01   7.8990427e-01  -9.3098866e-01  -7.6834543e-01   2.2427442e-01   3.4210836e-01  -9.9253115e-01   5.0408134e-01   4.9877511e-01  -6.4793578e-01   8.3280153e-01  -2.5603194e-01  -4.9421369e-01   4.1012594e-01   2.3867421e-01  -7.1916895e-01  -4.1145241e-01  -8.5939102e-01  -2.9555256e-01  -4.6242825e-01  -2.1760321e-01   5.2711122e-01  -2.6320000e-01   7.3890424e-01   2.4550860e-01   8.3780210e-01  -1.3640205e-01   2.1161694e-01  -7.2199588e-01   8.4220070e-01  -6.6543055e-01   6.0797524e-01  -1.7126100e-01  -2.2218102e-01  -7.0761752e-01  -4.7514507e-01   6.3059871e-01   9.3679373e-01  -5.5159226e-01  -3.8493389e-01   2.1097117e-01  -2.2865337e-01  -8.3834671e-01   3.3184788e-01  -3.2263159e-01  -5.8655572e-01   2.8226900e-01   7.1189861e-01   9.7342792e-01  -5.9198143e-01   7.6453931e-01  -7.7679031e-01   4.9697816e-01   5.7332231e-01  -5.0904061e-01   3.1439821e-01   7.0462258e-01  -3.3953579e-01  -4.2784153e-01  -6.3551587e-01   8.9206605e-01   2.6209752e-01  -1.9099387e-01  -1.0922645e-04  -7.4550850e-01  -5.9577151e-01  -1.5983659e-01  -4.8148066e-01  -1.7340803e-01  -6.7437867e-01   1.8236972e-01   7.3550555e-01   3.8641695e-01   6.2706168e-01  -6.3415006e-01  -5.5104754e-01   4.9320238e-01   2.2939822e-01  -9.9170344e-01  -3.0816997e-01   9.8067703e-01  -5.5621025e-01   6.0243674e-01   7.4970989e-01   7.4153550e-02  -8.8869306e-01  -4.4636131e-01  -2.9058036e-01  -6.0360056e-01  -1.6381424e-01   5.3658175e-01  -7.6856002e-01  -1.1555628e-01   4.0261877e-01   6.7077882e-01   7.9748387e-01   6.9801490e-01   3.9065570e-01  -1.4240278e-01   3.5287752e-01   7.4667902e-01  -5.0990197e-01   7.2444513e-01  -1.9309649e-01  -6.0371543e-01   2.0667915e-01   3.6170009e-01  -7.8087162e-01  -2.2422960e-01  -7.2994854e-01   8.5784079e-01  -4.6157560e-02  -7.6705392e-01  -4.2883628e-01  -1.2209487e-01  -2.4476854e-04   5.0849689e-01  -6.9871952e-01  -3.0841504e-01   9.1639114e-01  -3.5205173e-01  -3.6228625e-01  -8.3605924e-01   7.6702219e-01   3.6843383e-01  -4.8475985e-01  -9.8158402e-01   1.9967695e-01  -4.7690623e-01   6.0611278e-01   1.6680960e-01  -1.8360403e-01  -4.2881724e-01   5.6069280e-01  -2.6143386e-01   8.1467189e-01   4.5059514e-01   2.4858392e-01  -8.8546466e-01   9.6822995e-01   1.8073861e-01   5.2393942e-01   5.5013597e-01   5.8567839e-01   6.6075900e-02  -8.0205011e-01  -7.5817520e-01   4.8665865e-01   5.8892629e-01  -1.2926883e-01  -9.9796947e-01  -1.9387887e-01  -4.9314326e-01  -5.5300315e-02   7.4218004e-02  -8.1854098e-01   9.5677673e-01   6.9927562e-01   8.5321506e-02   9.7515312e-01   7.2646968e-01  -3.1991999e-01   7.8767923e-01   4.2950255e-01  -2.5147326e-01  -9.8125797e-01   9.8500240e-01   7.6369246e-01   8.0473374e-01   8.6554672e-02  -7.1740820e-01  -5.7046518e-01  -8.2539639e-01   5.6010942e-01   7.2989169e-01   9.0340465e-01   8.4857606e-01  -3.9319274e-02   5.5871331e-01   5.7223756e-01  -7.3516671e-01   4.5930274e-01   1.7345770e-01   5.8485682e-01  -7.6032879e-01  -7.9837771e-01   2.5975271e-01   7.7714146e-02  -1.9668626e-01   2.6385492e-01  -4.7975841e-01   2.3172844e-02  -1.0144542e-01  -4.8509332e-01   1.7670606e-01  -2.8852423e-01   9.9291365e-01   6.2590546e-01   8.5108306e-01   3.0189606e-01   8.4548846e-01  -8.7970149e-01   9.9679042e-01  -1.4452119e-01  -5.9441367e-01  -3.4300408e-01  -2.0067656e-01   1.6358100e-03   3.0648386e-01  -5.6001026e-01   3.8339350e-01   6.5807871e-02   8.2769293e-01   8.6265151e-01  -9.6204624e-02   9.2102421e-01   2.3461107e-01  -2.6754030e-01  -4.1709667e-02   5.6783492e-01   4.5926688e-01   1.5474948e-01   8.9277951e-01  -7.4270213e-02  -6.5781834e-01  -2.5673371e-02  -4.7861627e-01  -4.6014296e-01  -6.3085321e-01  -7.1258486e-01   4.1335799e-02   5.2765110e-01  -9.5446064e-01  -4.7303201e-01  -2.1493028e-01   4.8459418e-01   1.7273797e-01  -7.4968080e-01  -5.1823859e-01   9.4801954e-01  -4.8657272e-01  -8.3982554e-01   2.4000352e-01   2.7698121e-03  -6.5238570e-01   7.3697403e-01  -5.6731240e-01   3.3264805e-01  -6.1657414e-02  -6.8232162e-01  -7.8845497e-01   3.3303502e-01   4.0511525e-01   4.7772533e-01  -5.4780855e-01  -7.1832427e-01  -6.5839433e-01   9.5851895e-01   5.1625571e-01   8.0929633e-01  -8.9590976e-01   9.7309455e-01  -1.6548607e-01   9.7889709e-01  -8.3813244e-01  -3.5911606e-01  -9.0508992e-01  -5.6074777e-01   4.8560293e-02  -5.6551090e-01  -5.1215908e-01  -7.7883232e-01  -8.0786661e-01   6.4200650e-01  -7.0958492e-01  -5.7230114e-01  -1.9859672e-01  -3.8227589e-02  -4.0437119e-01  -2.1616725e-01  -8.9324235e-01  -8.8925274e-01   6.4123854e-01  -5.6295180e-01  -5.3967702e-01  -1.8507789e-01  -8.5419821e-01  -6.3245755e-01  -6.1557439e-01   7.2342381e-01  -8.0051954e-01   2.5646028e-01   2.7104174e-01   6.6957734e-01   6.9868426e-01  -3.9104907e-02  -1.1151582e-01  -4.9060229e-01  -9.7533676e-01   6.4689557e-01   7.3557676e-01  -2.7820293e-01   7.4846759e-01  -5.8798698e-02   9.7867028e-01   8.6227308e-01   7.8506225e-01   3.0299835e-01   9.5598368e-01   7.4746170e-02   6.9073940e-01  -4.8845836e-01  -5.0215643e-01  -5.0200273e-01   3.4624045e-01   8.9317692e-01  -7.9287509e-01  -8.5524972e-01   6.4428023e-01   3.5254133e-01  -3.9437422e-02  -7.9097706e-01  -5.9482601e-01   7.1822219e-01  -7.5623034e-01   4.7356544e-01  -8.7824313e-01  -1.6426090e-01  -1.1553526e-01  -2.8705560e-01  -9.2682333e-01   3.5040021e-01  -8.9421812e-01   4.4572162e-01  -4.8902578e-01  -9.5120389e-01   7.4850954e-01  -9.4370140e-01   2.2580241e-02  -1.3856215e-01   8.6123925e-01   4.4976726e-01   3.8300171e-02   1.9723758e-03   7.2989257e-01  -9.5121946e-01   7.0760332e-01  -8.2593689e-01  -1.8039312e-01  -6.7037176e-01  -4.5603439e-02  -4.0135716e-01  -5.5828457e-01  -4.8201192e-01   7.8056684e-01  -9.1546677e-01   1.7931018e-01  -2.3879036e-01  -5.6464587e-01  -4.4469510e-01  -4.8405469e-01   5.0091676e-01   3.5398822e-01   5.6878692e-01  -2.9096918e-01  -9.8726886e-01   9.1961280e-01  -4.5415412e-01   6.0319650e-01   1.9596945e-01   8.1909122e-01  -5.7443348e-01  -3.8719839e-01  -6.1140467e-01  -8.9927902e-01   6.3925038e-01  -9.3752345e-01   8.7393926e-01   6.0468106e-01  -9.2862442e-01  -4.1983194e-01   5.7405246e-01   1.9618977e-01   2.8971450e-01   1.5590143e-01   9.0410095e-01   9.8069710e-01  -6.2705335e-01   3.9277177e-01   7.2577417e-01  -7.4995604e-01   2.1999442e-02  -2.4717565e-01  -7.6220969e-01  -4.1067006e-01   1.4765025e-02   5.4623493e-01   4.4844048e-01   6.6735345e-01   8.4303756e-01  -9.7357263e-01   2.6367607e-01   9.7201509e-01  -4.8118077e-01  -6.1829585e-01  -7.9004112e-01   5.2100953e-01   6.9666904e-01  -8.4006159e-01   8.2074299e-01   2.6604437e-01   8.0645824e-01  -8.8103513e-01  -2.4181413e-01  -3.4669543e-01  -4.8218741e-01  -1.8797334e-01  -5.6806325e-01  -6.6831507e-01   7.5056526e-01  -5.7309616e-01  -6.5593350e-01   8.8107066e-01   9.4655573e-01   8.8246530e-01   8.2247971e-01  -1.5814579e-01   3.5023580e-01  -2.3558341e-01   2.3459727e-01   5.1648129e-02  -8.5431135e-01   6.5443135e-02  -9.0507070e-01   6.7710882e-01  -8.7421928e-01   4.7839498e-01  -5.8744783e-01  -2.1032793e-01  -3.6365515e-01   7.3001671e-01   8.7706101e-01  -2.7245166e-01  -1.2023728e-01   5.2244095e-01   1.4329406e-01  -9.7697919e-01  -5.6267900e-01   7.7206725e-01  -7.7408828e-01   2.1226266e-02  -8.6759597e-01   6.5459897e-01   2.3893049e-02  -5.7076834e-01  -6.0295928e-01   7.3893201e-01  -3.5361598e-02   7.7969263e-01   2.2783898e-01   9.7365677e-01   1.8029223e-01  -4.4178528e-01   3.0720859e-01   6.1222920e-01   5.0626350e-01   4.1806482e-01   8.0388129e-01   7.3207285e-01   2.2209324e-01   9.1943554e-01   2.5415608e-01  -5.4732585e-01  -6.7899119e-01   6.1388602e-02  -1.6754494e-02   1.8695928e-01  -4.7822635e-01   9.4835391e-01  -4.0171992e-01   2.0586151e-01  -2.4386628e-01  -5.5149108e-01   2.8210004e-01  -1.9949911e-01   7.8814429e-01   6.7524719e-01  -5.2976814e-01  -3.5725572e-01   3.5272717e-01  -7.1613665e-01   4.8417673e-01  -9.8247276e-01  -5.8977783e-01   4.6980454e-01   1.4412792e-01  -5.1443247e-01  -4.8411244e-01  -4.8131671e-02   2.2588075e-01   9.8910000e-01   4.3404552e-01  -8.0286378e-01  -1.5729275e-01   2.1617653e-01  -1.7694614e-01  -4.0872974e-01   9.2124958e-01  -1.2761689e-02   9.8928060e-01  -8.2252422e-01  -6.4374286e-01   3.7633314e-01   3.5674085e-01   2.1502819e-01  -4.9634209e-01  -8.5565514e-01  -7.9194257e-01   9.3433251e-01   6.7344075e-01  -2.1547454e-01   4.8487658e-02   2.5017317e-01  -7.5804764e-01   3.5652759e-01   7.9311678e-01   1.2999522e-01  -4.4754910e-01  -1.3757625e-01   9.5016857e-01   2.7336002e-01   8.5936674e-01   8.0659169e-01   9.5633975e-01  -4.8044213e-01   5.3169198e-01   5.5233426e-01  -5.9494211e-01  -2.6659189e-01  -6.9924495e-01  -9.4457698e-01   2.0216668e-01  -9.0883742e-01   7.5753266e-01   3.8667454e-01   3.4672319e-01  -1.3150855e-03  -2.4450012e-01  -4.8811603e-01   1.9887924e-01  -3.8494991e-01   3.9604931e-01   9.5773922e-01  -9.6604586e-01  -8.3937468e-01  -1.9445022e-01   4.7876446e-01   5.7226112e-01  -2.5974809e-01   3.3762915e-01  -3.4236359e-01   2.3846140e-01  -1.0821144e-01  -7.9282999e-01  -5.5865461e-01   2.5164386e-01  -5.1313444e-01   4.5165939e-01  -9.8160251e-01   9.9992687e-01  -4.0499902e-01  -5.8395781e-01   4.5417553e-01  -1.9367186e-01   4.6656552e-01   9.9331993e-01  -5.7269695e-01  -4.4806352e-01  -2.8937153e-01   1.1682406e-01  -6.7130962e-01   1.7866329e-01  -4.1038187e-01  -5.9024743e-01   9.5104139e-01   3.3112179e-01   7.1158406e-01  -6.8669559e-01  -8.0080523e-01  -7.0369274e-01   5.5340216e-02   4.8657207e-02  -7.5555942e-01   8.4580811e-01   5.3749645e-01   9.8217784e-01  -8.9931366e-01   4.5736911e-01  -1.9800544e-01   2.6521002e-02   2.6965668e-01  -7.5511922e-01   1.6218348e-01  -1.5255638e-02  -6.8167380e-01   5.2302013e-01  -6.1759317e-01   5.3928291e-01   8.2597592e-01  -9.1080705e-02  -6.8658723e-01  -6.3856935e-01  -8.2648420e-01   6.9728186e-01  -9.4778662e-01   8.3472864e-01   3.2145533e-01   6.8928839e-01  -2.4536838e-01   9.4935001e-02  -7.2975452e-01  -6.4988235e-01   9.1610712e-01   8.8348285e-01  -2.1085249e-01  -8.3759762e-01
  -4.8967790e-01  -1.3048968e-01  -8.6525757e-01   6.3117565e-01  -2.0575456e-01   1.4439275e-01   4.0003441e-01   8.5055781e-01   8.2024670e-01   5.8416871e-01  -8.2577291e-02  -6.8398576e-01  -8.0528385e-01   8.3446491e-01   2.9420365e-01   8.9720187e-01   1.8371502e-01   4.8738313e-01  -6.7240083e-01   9.3630435e-01   9.1593445e-02   4.9222532e-01   3.3780314e-01  -1.8777179e-01   2.3161054e-01  -3.4542878e-01  -7.3694884e-01   7.0432870e-01  -9.3257128e-01  -8.6526298e-02  -4.5820157e-01  -8.1599012e-01  -5.2903952e-01  -7.2147416e-01  -9.4320371e-01  -4.9202777e-01   9.9246780e-01   9.9760882e-01  -1.1775546e-02  -9.4014857e-01  -6.3664210e-01   3.5168675e-01  -5.8158370e-01  -8.5199655e-01   1.4644673e-01   8.0411354e-01   4.7133776e-02   4.5967347e-01  -5.3809932e-04   8.4480532e-01   6.0066082e-01   3.2211578e-01   4.7389157e-01   6.3857466e-02  -7.1704258e-01   2.0927975e-01  -4.0338890e-02  -9.7012262e-01   3.4495769e-01  -5.2973818e-01  -3.6757460e-01   7.3584188e-01   6.9980395e-01  -7.7532959e-01  -2.2415203e-01  -2.3469512e-02  -4.0860771e-01  -3.9926987e-01  -8.8958867e-02   7.9776752e-01  -5.4616087e-01  -3.5247490e-01  -5.2728083e-01   3.1025826e-01   4.2800972e-01  -5.7067423e-03  -7.7019529e-01   2.2782248e-01  -8.1279226e-01   4.9006775e-02   9.7536837e-01   6.4102784e-01  -1.7165724e-01  -4.4714116e-01  -8.6289409e-01   6.1936577e-01   9.1168002e-01  -9.0195940e-01  -5.6617360e-01   3.2228147e-01  -9.7452722e-01   7.2084228e-01  -9.4198218e-01   8.4359171e-01   4.0543222e-01  -9.4628729e-01   8.5666010e-01  -2.0391989e-01   3.5576323e-01   2.7771238e-01  -7.3085184e-01  -7.3672927e-01   7.8686468e-01   8.4456433e-01   2.4147928e-02  -7.2992564e-01   3.9845232e-03  -3.9018971e-02   3.5081974e-01  -2.4187455e-01   1.3390472e-01   3.2800769e-01   4.8607045e-01   8.9037488e-01  -6.1909914e-01  -5.2425829e-01  -1.3927408e-01  -1.1593131e-01   5.3140065e-01  -3.0605319e-01   8.5756216e-01   8.4734343e-01   6.4633159e-01  -5.7509284e-01   3.9948070e-01  -8.6886863e-01  -7.8587298e-02   4.4711830e-01   4.1652872e-01   4.0002092e-01   4.4590298e-01   8.7922861e-01   4.7871980e-01   8.8341850e-01  -7.0226538e-01   2.2451021e-01  -6.4047474e-01   4.9501877e-02  -6.2628801e-01  -8.3029711e-01  -7.6995265e-01   6.7078139e-01   3.0448314e-01  -3.8074009e-01  -3.9047459e-01  -7.5929968e-01  -9.5485346e-01   3.1469916e-01   5.8512718e-01  -2.1015399e-01  -7.2694732e-01   5.3746040e-01  -5.9645791e-02   2.1205939e-01   6.9924058e-01  -3.7790515e-01   3.9606803e-01   2.8367130e-01   5.0724167e-01  -3.6766902e-01   9.0544220e-01  -6.2800339e-01  -5.3972925e-01  -5.8047416e-01   9.2234940e-01   7.5402546e-01   8.8623190e-01  -9.2032578e-01   3.9050254e-01  -5.2296130e-02  -6.5821407e-01  -2.4693124e-01  -5.5360430e-01   3.3330300e-01   7.0883730e-01   9.0982415e-01   7.4723960e-01  -8.1753021e-01   5.7724403e-01   9.1974751e-01  -8.3796865e-01  -7.6475186e-01  -8.3168226e-01  -3.8126986e-02   4.8822697e-01  -9.0593311e-01  -7.7688525e-01   3.2495952e-01   5.4125835e-01   2.3792520e-01   4.2447552e-01  -6.3064129e-01   6.2361701e-01  -5.4961877e-02   9.6680051e-01   4.5387614e-01   9.4783797e-01   2.2753164e-01   8.0704185e-01  -6.0265047e-01   2.7744350e-01   8.9454954e-01  -3.7046606e-01  -1.8454244e-01   8.2649311e-01  -2.3234931e-01   2.8493396e-01   4.7350682e-01   7.1767359e-01   2.7499582e-01   9.3497146e-02   6.7913750e-01   2.1128038e-01   1.9393356e-01   3.3686626e-01   5.5437477e-02   7.5774994e-01  -4.9817412e-01   5.7907241e-01   6.0626706e-01   1.2999142e-01  -9.6964056e-01   7.5240310e-01  -3.5600700e-01   7.6000237e-01   4.6215853e-01  -5.5325459e-01  -5.9330465e-03  -2.4432156e-02   5.7271698e-01   5.3997052e-01  -2.1074586e-01  -4.0565446e-01   7.5352768e-01  -4.9835899e-01  -4.4834651e-01  -1.7390147e-01   6.1769193e-01   7.9606886e-01  -4.3902924e-01  -9.3028981e-01  -5.5778026e-01   1.6423556e-02   2.2710884e-01   2.4027160e-01   9.9627024e-01   1.3760500e-01  -4.5370991e-01  -4.3102993e-01   3.5411080e-01   3.1580355e-01   4.7863069e-01  -8.8209875e-01  -7.5288089e-01  -1.8013234e-01  -8.9174832e-02  -1.0138765e-01   4.3074785e-02   8.7626835e-01   1.0505141e-01   8.6320582e-03  -5.9309636e-01  -9.0946831e-01   6.8513395e-01  -5.8276934e-01   3.9118642e-01   7.6967534e-01   3.0327254e-01   8.0440623e-01   1.1239467e-01   5.3439869e-01  -1.1448044e-02  -5.0382212e-02  -6.3470919e-01   6.4085601e-02  -5.1490535e-01   4.2938588e-02   8.1131960e-01   2.1200258e-01  -6.1148339e-01  -2.1492626e-01   4.0963838e-01  -1.0307913e-02  -9.7667609e-02   5.5125998e-01  -7.1723294e-01  -9.5759775e-01   4.8408120e-01  -3.7436470e-01  -3.2965499e-01   9.6050282e-01   3.2760341e-01  -7.5460869e-01   3.7090432e-01  -5.0816389e-01  -7.7295561e-01   2.7802146e-02   3.3321614e-01  -6.7909097e-01  -7.1029759e-02   2.4174791e-01   7.8376307e-01   6.3641905e-01  -5.9295237e-01  -9.0521613e-01   9.7109856e-01  -3.3442102e-02  -2.1914006e-01   3.6454964e-02   6.0724858e-01  -2.0255642e-01   8.0226409e-01   8.2091326e-01  -6.5805449e-01   7.3612627e-01  -2.9701459e-01  -3.7084026e-01   9.4902015e-01   7.7025500e-01  -4.6608473e-01   3.5579239e-01   4.3179016e-01   9.0297953e-01  -4.2978869e-01   5.1896437e-01  -8.4918860e-01  -1.8994375e-01   3.2030829e-01   5.6092880e-01   9.5278976e-01  -8.6488587e-01   8.1452916e-01   8.6986163e-01   6.3989792e-01   9.9254746e-01  -2.9054912e-01  -3.2269469e-01   3.5439250e-01  -8.0584541e-01  -9.7603779e-01  -6.5750290e-01  -7.4319364e-01  -3.8281987e-01  -5.7655775e-01  -1.1904620e-01   8.0634937e-01   9.1515435e-01  -9.1696577e-01   8.2954208e-01   1.7584337e-01  -9.0783692e-01   2.9555525e-02  -6.8948383e-01  -4.1874675e-01  -8.9078925e-02  -8.9631589e-02  -2.8381192e-01   7.0750509e-02  -7.1343431e-01   3.6568033e-02  -1.4169179e-01  -9.3101909e-02  -8.5436856e-01   3.0074871e-01  -4.4635138e-01  -1.0478645e-01  -8.8259448e-01   3.1273795e-01   8.9667722e-01  -3.0264437e-01  -3.3796120e-01  -6.3639409e-02  -3.2930366e-01   7.6694307e-01   2.2049818e-01  -3.5081314e-01  -2.7828937e-02   1.9112696e-01  -6.5815674e-02  -5.2117121e-01   7.6588231e-01   1.6288893e-01   2.7162744e-01   1.1556818e-01  -4.2158145e-01   2.5162927e-01   5.5548876e-01   6.0213130e-01   5.6992421e-01   1.7798417e-01  -3.3300087e-01  -7.3519301e-01   6.5174009e-01   7.7439956e-02  -8.0904440e-01  -5.8561674e-01  -9.0236042e-01   2.9719226e-01  -8.0260222e-01   6.1819570e-01   2.5988266e-01  -6.5184174e-01  -2.4611019e-01  -3.9792538e-01  -2.4911944e-02  -2.3939253e-01   3.3488156e-02   8.6567894e-01  -2.1280964e-01   3.8451629e-01  -7.8825733e-01   8.9538166e-01  -1.7071903e-01   6.3746722e-01  -6.1557907e-01   2.3888235e-01  -2.9177243e-02  -1.4198495e-01  -1.6557150e-01  -7.9065391e-01   4.3415845e-01   1.7223368e-01   8.8571855e-01   6.3989821e-01  -9.5345401e-02   4.6060382e-01  -7.2825013e-01   5.0674465e-01  -7.8524821e-01  -5.3823563e-01  -9.9690036e-01  -8.5120484e-02  -7.7083113e-01   8.4181799e-01   7.0370943e-01   7.6472008e-01  -5.6726920e-01   7.9487902e-01  -4.7129993e-01  -4.8606747e-01   5.2912577e-01   1.0784961e-01  -4.5712722e-01  -8.2817942e-01   9.8206855e-01  -9.8408560e-01  -1.3203798e-01  -1.5452769e-01   7.9150214e-02  -5.0667676e-01  -4.4955930e-01   6.9891320e-01   3.1296796e-01  -1.1384018e-01  -2.2564591e-02  -7.5960177e-01  -4.4113018e-01   9.7520922e-01   2.5098456e-01  -4.3665550e-01  -1.7884444e-01   7.3980044e-02  -6.0788713e-01   8.4945919e-01  -4.0744179e-01  -6.3080352e-01   1.2937659e-01  -1.6559051e-01   4.1792313e-01   2.8633315e-01   8.9935168e-01   2.6802999e-01  -4.8604149e-01   6.8400999e-01  -1.5225030e-01  -5.8632376e-01   7.6244699e-01  -2.3475424e-01  -4.5353620e-02   2.7060933e-01  -1.0273244e-01  -3.2773283e-01   3.3023744e-01   3.3566700e-01   9.5581365e-01   3.3261641e-01  -3.7288059e-01  -6.6026516e-01   7.8868193e-01  -3.4777763e-01  -6.4722940e-02   4.9350909e-01   5.7919518e-01  -8.4374787e-01  -2.9419411e-01  -9.7977637e-01   3.2878817e-01  -4.8602260e-02  -6.7671774e-01  -3.0183968e-01  -9.8227147e-01   8.7101684e-01  -9.9661016e-01   9.3874938e-01   5.6979839e-01   6.7107472e-01  -1.8643198e-01   8.6065913e-01  -8.8616164e-01  -5.2135925e-01   8.7566880e-01  -8.6721913e-01  -7.0510117e-01   8.6843695e-01  -4.2535270e-02  -8.0210706e-01  -6.3984351e-01   1.2349252e-01  -3.7537256e-01   5.6512792e-01  -3.9301288e-01  -2.1880560e-01  -8.0697443e-01  -2.1578636e-01   4.6934469e-01  -7.9367967e-01  -3.0820519e-01  -7.3139052e-01  -3.1194642e-02   6.3694676e-03   9.9306124e-02   2.1872089e-01  -8.1130302e-01  -9.8894940e-01  -4.1236588e-01   5.8925298e-01   8.3646750e-01   6.5437435e-01   1.6685973e-01   8.5800923e-01   4.4535079e-01   7.9610532e-01   3.1058418e-01  -6.1593993e-01   1.6284226e-01   4.4433372e-01   1.9245907e-01   4.0743636e-01  -8.1666424e-01  -7.3686775e-01   1.1459076e-01   2.6200972e-01  -8.3364711e-01  -1.0173061e-01  -2.2781363e-01  -3.7329886e-01  -9.4044524e-01   9.1920516e-01  -1.0094300e-01   2.5991738e-01   3.3925677e-01   3.2407024e-01   8.2634272e-01  -3.4006914e-01  -4.9090376e-01   7.8826351e-01   3.3499713e-01   4.9347521e-01   1.2492042e-01   7.2172390e-01  -5.8619167e-01   2.5240214e-01  -6.5489100e-01  -2.4774184e-01   9.6970318e-01   6.3443146e-01  -8.6066479e-01   6.6400644e-02  -4.0997629e-01   5.2435438e-01  -2.6199050e-02   4.5248571e-02   7.0983838e-01  -9.2207625e-01   2.8949719e-01  -1.0786790e-01  -7.7804972e-01  -7.8119812e-02  -9.0827218e-01   2.6224602e-01   2.3525928e-01   1.8987339e-01   7.1455296e-01   6.1320860e-02   6.1520246e-01   2.1197628e-01  -6.1764978e-01   5.5699107e-01   3.8542053e-01   6.2868776e-01   1.6753716e-01  -2.8164792e-01  -3.4863116e-01  -8.2564362e-01  -4.0427218e-01   5.5422926e-01   6.0164178e-01   9.3240746e-01  -2.0776574e-01   1.1525229e-01  -4.2776016e-01   2.5240834e-01  -4.7499468e-01   6.4497482e-01   6.8472030e-01   8.4775598e-01  -8.3184959e-01   8.0362494e-01   8.5722820e-01  -9.4507557e-01  -8.5031849e-01  -2.9421290e-01   2.8849419e-01  -8.4286836e-01   9.8415837e-01  -5.3016054e-01  -1.3196740e-02  -3.0939121e-01   5.3461620e-01  -5.1872322e-02   4.6012388e-01   8.0360630e-01   3.5948596e-01   4.3529433e-01   1.4071127e-01   7.2004793e-01   9.6033875e-01  -5.8082855e-01   8.8964972e-01  -1.2685535e-01   7.1816218e-01  -4.0352834e-01   5.2447584e-01  -3.7073070e-01  -7.5554687e-01  -5.4378772e-01  -2.0119225e-01  -6.6245486e-01  -6.7664562e-01  -4.1197187e-01   6.5068186e-01   5.7422969e-01   6.5031870e-01   5.0520321e-02  -1.8914076e-01  -5.2778285e-01  -3.3268838e-01   1.3166598e-01   8.4567689e-01  -9.1994923e-01  -2.4912466e-01   9.1327496e-01   4.4173387e-01  -5.1568663e-01   3.4211057e-01  -2.3791523e-01  -4.3561854e-01   7.8121995e-01   4.5453892e-01  -9.7155372e-01  -8.2559232e-01   4.4933438e-01   6.7704120e-01  -8.2191803e-01  -2.2611286e-01  -1.1124364e-02   5.9342091e-01   8.2260723e-01   4.0722398e-01  -1.0550255e-01   9.6846163e-02   1.8894912e-01  -6.0353663e-01   2.0175962e-01   9.9171281e-01  -8.6947427e-02   5.1101284e-01   1.2222061e-01  -8.5337194e-01   8.5093495e-01   8.9807708e-01   5.9488913e-01  -9.0659452e-01   1.5138444e-02   6.1806713e-01  -3.4883464e-01  -9.7038824e-01   9.4560714e-01  -9.3752796e-03  -9.3937688e-01  -7.9446532e-01  -9.5879690e-01   8.0441017e-01  -5.0971432e-01  -1.2907592e-01   8.4897460e-01  -7.5053696e-01   6.3115265e-01   6.0632945e-01  -4.1123480e-01   2.7408450e-02  -4.0892395e-01   2.9772472e-02  -9.2443190e-01   3.6565363e-01  -4.2311845e-02  -7.3356939e-01  -6.0563182e-01   5.5438765e-01   3.0497098e-01   9.9591033e-01  -2.6559481e-01   6.6276152e-02   4.3283598e-01  -1.1022155e-01   2.4388290e-02  -2.2906684e-01   1.9950317e-01   3.1973131e-01   1.5269831e-01  -4.2256666e-03   7.7226707e-01  -5.4555813e-01   1.0364579e-02  -1.0282379e-01  -1.2390731e-01   7.7203688e-03   5.6602835e-01  -7.0498791e-02  -1.3961530e-01   6.1241449e-01   1.6441983e-01   9.9903750e-01   2.1792675e-01  -8.3140337e-01  -9.9715673e-02   4.3022602e-01   8.8194023e-01   8.4496632e-01   4.5152181e-01  -2.6853804e-01  -5.9155096e-01   9.7403505e-01   9.2272657e-01   9.1770101e-01  -6.4990743e-01  -6.5794972e-01  -1.6544604e-01  -3.0998741e-01  -2.7247330e-01   6.2480835e-01  -9.9836853e-01  -5.9138234e-01  -4.3382499e-01   8.9630808e-02   8.3583927e-01   7.4177004e-01   8.0921201e-01  -8.9655458e-02  -3.7722982e-01   2.1960518e-01  -3.3981112e-01  -6.8955165e-01   3.4866182e-01  -7.1404293e-01   8.8793724e-01  -7.3888860e-01  -9.2915934e-01   8.8389346e-01  -6.1083953e-01   8.8254725e-01   3.1426680e-01   2.9346407e-01  -7.9780999e-02  -1.2283405e-01   5.9821551e-01  -4.6289046e-01  -5.9421816e-01   7.8768541e-01  -6.5552505e-01  -3.4133804e-01  -9.7983372e-01  -8.9247234e-01   1.6023266e-02  -6.4163271e-01   4.9945366e-01  -2.8435348e-01  -7.1724233e-01   5.8569696e-01   3.7895710e-01   8.7565976e-01   7.6293846e-01   7.3278207e-01  -9.8133390e-01  -6.8238053e-01  -3.1497634e-01   3.6401443e-01  -8.1871957e-01   1.7498945e-02   6.4826905e-02   9.5827141e-01  -5.6809048e-01  -8.0707819e-01   3.8085513e-01   7.6744428e-01   4.0379244e-01   9.2380473e-01  -5.6092328e-01   3.3630434e-01   1.5315869e-01   3.4089084e-01   5.4736653e-01  -9.9412192e-01   2.8233350e-01  -7.2210464e-01   7.5846583e-01   8.9664141e-01  -2.6160464e-01  -8.9127241e-02  -2.6048700e-01  -4.1377561e-01   4.2277957e-01  -3.3901256e-02  -7.4643643e-01  -8.8721110e-01   4.7281548e-01   9.3492616e-01   8.1137959e-01   4.4084070e-01  -3.9797124e-01  -9.4765877e-01   5.3687190e-01   4.0080324e-01   4.1292516e-01   6.6191639e-01  -6.7126947e-01   6.3591110e-01  -4.6618987e-01   5.7430722e-01  -9.2999224e-01   2.2779043e-01   7.5024005e-01   2.8747782e-01   5.7403063e-01  -7.6634220e-01  -2.3217685e-02   4.3134962e-01   7.1054949e-02   1.4711814e-01   8.6273857e-01  -3.2223927e-01   5.8137019e-02  -3.5346309e-01   3.7857622e-01  -7.9635112e-01  -5.7293361e-01   6.5567478e-01   4.9136128e-01  -6.0559444e-01   6.3485964e-01   2.9851559e-01  -4.3500342e-01  -2.6965566e-02  -5.9635269e-01  -4.3198024e-01  -4.3870293e-01   8.9303033e-02  -7.5568846e-01   7.1509686e-01  -5.3618363e-01  -5.6884773e-01   6.7870110e-01   9.3347172e-01  -6.6438182e-01  -5.5896514e-01  -1.8177721e-01   3.6509809e-01   2.0842350e-01   2.7730107e-01  -5.1754331e-01  -9.7540566e-02   5.3698332e-01  -2.6109616e-01   7.6441166e-01  -1.0480829e-01  -3.9997068e-01   2.4767305e-01   1.5283389e-01   3.0572016e-01  -5.5091139e-01  -1.7862588e-01  -7.4723537e-01  -8.4705544e-01  -7.0559521e-01  -2.9457010e-01   7.3218649e-01  -5.9137247e-01   5.0235594e-01  -4.3755282e-02   3.2392247e-01   2.7165271e-01   8.3688988e-01   6.9035434e-01   1.0104433e-01   8.3113199e-02  -4.0788813e-01   4.8069733e-01  -4.5428376e-01  -4.4425962e-01   2.6959686e-01   7.1052830e-01   6.9990212e-01   1.3442416e-02   2.8428898e-01   4.2488511e-03  -7.1429078e-01  -7.3582018e-01  -5.5659713e-01  -6.1620644e-01  -9.7756949e-01  -1.2886089e-01  -9.8286562e-01  -5.3884444e-01  -1.4280797e-01  -7.0895175e-01  -8.8005163e-01  -3.0144004e-01   1.6112240e-01   1.6620905e-01  -1.5916224e-01   8.5581861e-01   8.9963550e-01  -4.2165681e-01  -4.3691061e-01   3.9152540e-01  -3.9680681e-01  -4.6238953e-01   1.7901015e-01  -3.4900658e-01   2.7006509e-01  -9.3159232e-01  -9.4210418e-01   9.5361824e-01  -2.0830288e-01   5.0709070e-01  -9.2976029e-01  -8.5051379e-01  -9.8020441e-01  -5.5216990e-01  -5.4114656e-01   5.7971779e-01   2.5637562e-01  -6.8827618e-01   5.1479686e-01  -7.0037241e-01   5.4394441e-01   5.9216102e-01   4.4058936e-01   1.5959980e-01  -9.5529137e-01  -7.7383197e-01   2.3093449e-01   4.4137814e-01  -2.9593481e-01  -6.5705682e-01  -8.8528852e-01  -6.2502463e-03   5.2141178e-01  -7.0241343e-01   4.9060126e-01   4.1548713e-01   1.9208554e-01  -4.6264594e-01  -7.7405219e-01  -8.9262778e-02   2.8734132e-02   6.3368273e-01  -1.0506864e-01  -4.4580876e-02  -3.5673201e-01  -7.6124641e-01  -8.6114849e-01  -1.2761944e-01   7.2174771e-01   5.7783076e-01  -3.9235293e-01   2.5312445e-01   7.4083853e-01  -4.2393090e-01  -4.3117145e-01
   5.7355111e-01   5.5235261e-01  -5.6429456e-01   4.3618236e-01   5.2319096e-01   7.0734951e-01  -6.6382919e-01   7.3340962e-01   3.1511891e-01  -3.2760365e-02   5.8700899e-01  -2.4424043e-01   9.5337644e-01   5.8114400e-01   2.6513037e-02   8.0921442e-01  -1.8225853e-01  -3.8903475e-02  -6.3816889e-01  -6.2010850e-01  -8.8451619e-01   4.8024168e-02   8.1185145e-01   2.3870980e-01   8.3765054e-01  -8.8141304e-01   1.4786651e-01  -1.4060466e-01  -8.3524889e-01  -2.5897607e-01  -2.5203211e-01  -5.0173881e-01  -3.1879949e-01  -8.0980727e-01   4.8450802e-01  -3.3307258e-01  -9.4454171e-01  -1.9512752e-01  -7.8803928e-01   4.4028689e-01   1.4742884e-01  -8.3803787e-01  -8.0439072e-01   9.9467817e-01  -8.6648079e-01  -3.0423951e-01   6.3051336e-01  -2.4157727e-01  -4.8817050e-01   9.6029255e-01  -8.3007093e-01  -8.4136832e-01   3.0524462e-01   3.0095343e-01   6.9580105e-01  -6.9219162e-01  -2.1861443e-01  -5.5140664e-01   8.8530433e-01  -9.0913395e-01   2.4127964e-02   2.8693040e-02   5.5439820e-03  -5.6997309e-01  -3.8372162e-01  -8.3160497e-01  -3.9255349e-01   5.3620028e-01  -5.8234748e-01   7.0688955e-01  -3.4842673e-01  -9.1431493e-01  -7.2466784e-01  -6.2776651e-01  -1.1336190e-01   7.9525140e-01  -2.7899364e-01  -6.1607154e-01   1.7196001e-01  -7.7255908e-01  -7.3004548e-01   6.4593373e-02  -1.4220422e-01   7.8418813e-01  -5.8586382e-01   5.3705247e-01   9.8926821e-01   9.8171713e-03  -8.0952514e-01  -5.2016224e-01  -1.3826648e-01   6.7580720e-02   3.1976231e-01  -7.9789196e-01  -9.0629145e-01  -4.0643211e-01   4.3973673e-01   2.2429376e-01  -2.5580771e-02   5.0682830e-01  -6.2271922e-01  -5.1191459e-01   1.1977339e-01   5.5946338e-02   3.3831589e-01   6.0320599e-01  -9.4314536e-01   2.8034250e-01   3.2023311e-01  -2.1240904e-01   9.8807087e-02  -2.5609973e-01  -6.3038684e-01   2.4439508e-01  -7.0775288e-03   9.0985847e-01  -2.9304618e-02  -7.7746258e-01   2.0857682e-01   6.3445220e-01   6.5817965e-01  -6.4907306e-01   6.7267447e-01  -4.0876977e-01  -4.2423217e-01   4.8967194e-01  -8.9548705e-01   2.4521892e-02   6.7297278e-03  -5.2049498e-01  -7.0218003e-01  -1.7050633e-01   7.4391358e-01  -6.0535103e-01  -1.4559044e-01   7.7961856e-01  -1.1804751e-01   9.3374521e-01   6.3844591e-01   6.4617437e-01  -8.0891347e-01   6.0081117e-01  -2.2823184e-01   1.4346075e-01  -9.8219830e-01   4.9579110e-01   7.5055805e-01  -2.4302646e-01  -5.9730685e-01   5.4196719e-01   1.4644924e-01   4.9503796e-01  -3.1820180e-01  -2.4812370e-01  -8.4841853e-01  -9.9794323e-01  -7.6250637e-01  -6.5102439e-01  -4.6346860e-01  -6.7630129e-01  -9.3005029e-01   4.5275503e-01   7.7696857e-01   8.9777541e-01   3.8289046e-01  -3.8255295e-01   7.9784677e-01  -1.6771513e-01   8.1893486e-01   8.6376077e-02   1.6471830e-01  -8.1816494e-01   4.2616384e-01   3.1921805e-01  -6.3261204e-01   3.9923295e-01   3.2826089e-01   9.3261122e-01  -4.8872662e-01  -4.1726601e-02  -1.6938271e-01   4.1690805e-01  -8.1235642e-01  -5.7448149e-01  -7.4553791e-01   4.5282360e-01  -1.7909258e-01  -4.9357060e-01   6.1981644e-01  -4.2037409e-01  -6.4765641e-01  -3.5337976e-01  -9.9421145e-01  -6.1234076e-01   1.8942452e-01   6.4863735e-01  -1.6108909e-01  -9.7137502e-01  -9.5720329e-01   4.5725013e-01   7.2104475e-01   2.4471887e-01  -9.2221393e-01  -3.1509697e-01   1.1640779e-01   9.7315868e-01  -1.1778875e-01   5.5960028e-01   5.8086292e-01  -5.7990387e-01  -3.7192151e-02  -6.2083791e-01  -8.2774397e-01   9.7866124e-01   7.8575996e-01  -5.6252862e-01   7.6203801e-01   7.6945183e-01  -1.1769702e-01   2.2081492e-01  -5.2264977e-02   4.8435875e-01   8.7800524e-01  -4.2590348e-01   1.7003930e-01   7.9633914e-01  -6.5112272e-01   7.6100431e-01  -1.1851314e-02   4.5007533e-01   5.8704450e-01  -2.1375108e-01   1.2304049e-02   4.1206022e-01   2.1632126e-01   1.1166973e-01   4.1952062e-01   6.8874795e-01  -1.4030166e-02   8.6341255e-01  -2.0819149e-01  -7.1919896e-02  -7.7753305e-01  -2.6644663e-01   9.5684729e-02  -7.2419545e-01  -8.3368278e-01  -2.2429035e-01  -2.3791407e-01   6.9648043e-01  -8.5789990e-01  -4.9593499e-01  -3.3639998e-01  -6.9869944e-01   1.5535774e-01  -7.5141872e-01  -7.2139119e-01  -6.7457459e-02   4.5689247e-01  -3.1532964e-01  -7.8628380e-01  -1.0661792e-01  -8.2375541e-01  -3.6698810e-01   9.6985268e-01   4.2810245e-01   3.9294496e-01   8.7196901e-01  -3.4158947e-01  -4.1375011e-01  -5.3695924e-01   4.2846042e-03  -1.8607237e-01   8.6756893e-01  -7.2347316e-01  -8.9721853e-01  -7.4670547e-01   2.5851309e-02  -5.5074182e-01   4.5713096e-01   6.6682931e-01   3.1763090e-01   2.1114109e-01  -2.3410990e-01  -7.0024929e-01  -3.9560121e-01   5.5268201e-01   5.5677012e-01  -8.4312858e-02   9.7035229e-01   1.7217559e-01   9.8810790e-02  -9.0833570e-02  -4.2410963e-01  -5.4445854e-01  -8.8040937e-02   4.7121353e-01  -6.7050205e-01   1.4103717e-01  -4.0190433e-01   9.7172939e-02   6.3572917e-01   8.3668289e-01  -4.3981653e-01  -4.5252041e-01  -3.7077571e-02  -6.6444094e-01  -6.8806119e-01  -6.5335509e-01  -2.1092150e-01   4.4002233e-01  -9.0216438e-01   2.3676044e-01   5.5577689e-01   2.3806053e-01  -4.5037577e-01   8.4375068e-01   3.0560379e-02  -4.7432539e-01   8.6502157e-01   9.7341712e-01   2.3598804e-01   5.9503353e-02   4.9889110e-01   2.7741492e-02  -5.5810871e-01  -9.8762265e-01   9.2400923e-01  -5.5948257e-01  -7.8363302e-01   2.7815424e-01  -3.6287762e-01  -8.5161436e-01  -8.5982678e-01  -7.1069000e-01   7.1530745e-01  -5.3504469e-02   1.2447280e-01   2.7169655e-02  -6.3060387e-02   5.9357780e-01   8.7235676e-01   4.1580366e-01   9.8947674e-01  -9.2868402e-01   4.2401864e-01  -3.9108160e-01   9.0596305e-01   9.4449551e-01  -7.6738123e-01   8.5265993e-01  -3.6504617e-01  -2.9965995e-01   4.9847934e-01  -1.1395983e-01  -1.7702655e-01   5.8957385e-01  -3.4926672e-01  -7.0322612e-01  -2.5841201e-01   5.5996204e-01   6.9940294e-01   5.5847284e-01   8.4919174e-01  -4.4049518e-01  -4.2954182e-01   1.4278798e-01   3.8385281e-01   4.0451249e-01  -4.2088644e-01  -3.7145523e-01   5.5060200e-02   3.1222358e-03   8.1239772e-01   4.8622308e-01  -8.2604680e-01  -2.0535088e-01  -5.9070065e-01  -9.9204545e-01   5.9135467e-01   9.3466888e-01   3.4876595e-01  -5.1631519e-01  -2.7828011e-01  -4.5104559e-01   9.6902126e-02   8.2441906e-01   2.7820652e-01   6.4968741e-01   4.0177476e-01   8.0782510e-01   2.8696328e-01   5.5561976e-01  -8.9380820e-01  -8.3177404e-01   2.0655169e-01   2.9634948e-01   6.2918535e-01  -7.2345685e-01  -1.2652702e-02   5.1741932e-01  -1.3150345e-01   6.3328475e-01  -2.0507011e-01  -7.3715991e-01   4.9389035e-01   2.9775977e-01   2.0480045e-01  -9.4779366e-01   2.2346488e-01   9.7042028e-01  -8.5748971e-01  -8.1658120e-01  -4.4001383e-01   8.1327539e-01  -8.0239255e-01   6.7808810e-01  -7.9401028e-01   5.1606209e-01   8.1261270e-01  -2.8335078e-01   2.2989053e-01   7.6634472e-01  -3.2384244e-01   8.9226541e-01  -7.0320432e-01   1.6397239e-02   9.0475215e-01   7.8042473e-02   9.6537033e-01  -4.2386328e-01   9.6252245e-01  -2.0100672e-01  -9.4066518e-01  -2.9260635e-01  -4.1986769e-01   2.8600689e-01  -7.7920611e-01   4.8933056e-01   3.7814343e-01  -6.9670963e-01  -7.1447161e-01  -2.5011015e-01  -1.1692058e-01   9.9399262e-01  -6.0960162e-01   3.9211117e-01   8.2461929e-01  -7.2272942e-01   8.4508784e-01   7.3329274e-01   9.9046841e-01   2.1377108e-01   4.3255524e-02   3.5733543e-01   6.1236724e-01  -2.3851523e-01  -5.5252021e-01  -3.0986905e-01   8.9095510e-01   9.2772304e-01  -4.7214320e-01  -1.4096606e-01   5.0310207e-01  -7.2485331e-01  -4.9754749e-01  -3.3579886e-01   9.8730737e-02   5.2522913e-01  -8.2649723e-01  -8.6166453e-01   4.2590566e-01  -8.2710443e-01  -7.6798975e-01  -2.1997483e-01   7.2118829e-01  -7.8395796e-02   6.4203197e-01   4.6251496e-01  -8.6483473e-01   9.3011933e-02  -3.1766990e-01   3.6638284e-01  -5.7357125e-01   1.1775038e-01  -1.4628885e-02  -9.6409321e-01   6.9566640e-01   9.5758330e-01  -8.1482913e-01   9.4815315e-01   9.4560672e-01  -2.5010824e-01   7.9948991e-01  -3.3608973e-01   2.4930259e-01  -5.0436268e-01  -1.7074780e-01  -8.4966369e-01  -5.5079024e-01  -4.6896178e-01   7.7299836e-01  -7.3732449e-02  -8.5709122e-01   3.6618625e-01  -7.2653268e-01  -5.2169416e-01  -7.4512350e-01  -6.5299066e-01  -2.5957435e-01  -8.0498116e-01   1.8213243e-01  -4.4431592e-01   9.3711213e-01  -2.5782580e-01  -3.4746005e-01  -2.2850754e-01  -2.4685696e-01   8.0958566e-01  -5.2037678e-01   7.6445191e-01  -7.8473668e-01   2.0370334e-01   5.8008670e-01   1.2907892e-01   8.6198096e-01  -6.4296766e-01  -3.6589965e-01  -8.2436801e-01   7.2278282e-01   5.1130377e-01   8.9408779e-01  -6.9823822e-01   9.9831051e-01   8.3913419e-01  -5.7098155e-03   6.9546878e-01  -9.2380583e-01   4.7849486e-01  -8.5477282e-01   9.5111193e-01  -4.1996317e-01  -2.8403239e-01   9.1463017e-01  -6.4801447e-01   5.6030627e-02   8.4032543e-01   2.6541625e-01   6.4738649e-01   8.8719103e-01  -5.0642953e-01   6.1352371e-01   5.2529597e-01  -1.4290105e-02   8.1369504e-01  -4.5522267e-02  -6.0292945e-01  -3.1502164e-01   7.3242508e-01   1.7723330e-01   9.8879354e-01   4.5785058e-01   9.8916785e-01  -9.8965861e-01  -1.1039135e-01   8.9734425e-01  -3.7592293e-01   7.0823601e-02   3.4874070e-01   5.7668881e-01   8.7694100e-01   7.6154316e-01  -1.8027767e-01  -4.7882014e-01  -1.7303215e-01   9.9339382e-03   8.9861764e-01   5.7636728e-01  -3.0251626e-02  -4.9703904e-01  -7.1274760e-01  -7.3388914e-01  -7.2829250e-01  -3.6409340e-01  -8.0512110e-01  -8.3262928e-02  -3.9528093e-01   1.8775018e-01  -8.4493161e-01  -3.3107732e-01  -2.2062404e-01   1.3645887e-01   1.0128574e-01   4.5010926e-02  -8.0540293e-01   4.9171740e-01  -2.1622373e-01  -2.1328324e-01  -4.1726382e-01   4.3647863e-01   3.1192414e-02  -8.1570704e-01   3.8821049e-01  -8.5100473e-01  -1.4556077e-01   3.9892070e-01  -8.1990877e-01  -1.4280347e-01  -6.0528426e-01  -4.9953024e-01  -2.2548851e-01  -3.5846059e-01   1.3356196e-01   1.1364272e-01   4.2454816e-01  -7.1026069e-01  -3.7889129e-01   4.0599291e-01   2.5929829e-01   3.9408504e-01  -6.0838252e-01  -1.3029844e-01  -3.9394175e-01  -5.6370958e-02   5.9775412e-01  -7.8184029e-01  -5.0119972e-01   6.0615868e-01  -2.7432339e-01  -1.5278080e-01   3.2800683e-01   7.1786611e-01  -5.9900529e-01  -4.7028189e-01  -8.5808735e-01   7.9430757e-01   8.5210474e-01  -3.1786892e-01  -4.1286812e-01  -3.2308566e-01   8.3385593e-01  -3.7493653e-02  -2.0671355e-01  -6.8154146e-01  -8.4328324e-01   7.0308138e-01   8.2844620e-01  -1.4595645e-03  -1.0019092e-01   4.3971304e-01   9.2314107e-02   6.5461067e-01  -3.1143292e-01   5.0718065e-01  -2.2682631e-01   2.0367545e-01   3.4752540e-01   8.6472642e-01  -7.6607634e-01   8.6173217e-01  -2.9949522e-01  -6.2926199e-01  -3.8511182e-01  -4.6824057e-01   5.7549874e-02  -4.7486368e-01   2.7455106e-01  -3.0178919e-01  -5.6774220e-01  -5.5794850e-01   8.9671243e-01  -7.2436267e-01   5.2928500e-01  -4.4443052e-01  -6.4810910e-01  -2.7626747e-01  -1.7484849e-01  -4.8960100e-01  -6.0847203e-01  -7.3841105e-01   8.3871247e-01   1.1007710e-01  -3.0954355e-01   6.9613031e-01   2.9010762e-01  -5.5471435e-01   5.0883499e-01  -3.9051419e-02   6.6775941e-01   2.6788130e-02  -2.0116398e-01  -3.7175720e-01  -2.4041235e-01  -6.2835073e-01  -4.1331772e-01  -9.1395017e-01  -9.5784768e-01   1.1049839e-01   3.1514224e-01  -6.4216361e-01   1.2411721e-01   4.7933037e-01  -3.2508565e-01  -5.3578703e-01  -7.5875749e-01  -8.3755721e-01  -5.9291120e-01   1.0943701e-01   2.5030687e-01  -1.8537453e-01  -7.3836316e-01  -9.6403039e-01  -6.2345370e-01   1.0380109e-01   1.3568439e-01   8.0226518e-02   5.9214013e-01   9.0724353e-01   1.2759986e-01   2.1017998e-02  -1.0925897e-01   7.0441310e-01   1.0007488e-01   6.7888489e-01  -2.4912711e-01  -2.5907307e-01  -9.5857165e-01  -9.9611239e-01   7.7345847e-01   5.8435747e-01   4.6562974e-01   4.1488313e-01  -9.1073606e-01  -4.0721152e-01   6.5523691e-01   3.1096459e-01   1.0980589e-01   1.5088750e-01   9.6492258e-01   9.1940575e-01  -9.3598663e-01   6.0893632e-01   8.7360794e-03   3.8169184e-01   9.2053836e-01  -5.0074914e-01  -1.5814190e-01   6.6394734e-01   7.2097032e-01  -8.4496558e-01  -1.7901899e-01  -4.0064905e-01   4.6099729e-01   5.2791676e-01   6.0387353e-01  -9.3290536e-01  -5.7103389e-01   7.8335711e-01   7.3684040e-01   9.7571281e-02   1.1325925e-01  -5.6351165e-01   8.7152506e-01  -7.7450636e-01   6.7476340e-01  -3.5124228e-02   2.5967774e-01   7.7537849e-01   3.4668169e-01  -8.5310709e-01   2.4993162e-01  -2.6335069e-01  -4.5429013e-01  -9.8747995e-02   3.9157658e-01   7.3220791e-01   7.3977746e-02   1.7455313e-01   4.7477926e-01  -9.0687541e-01  -4.7794964e-01   7.3530804e-01   2.4395428e-01   9.0785943e-01   5.8462234e-01   1.2498578e-01  -2.3709931e-01  -7.1595588e-01  -5.4336013e-01   9.8727183e-02   6.6160584e-01   4.6001144e-01  -2.0459889e-01  -8.3997521e-01  -6.5853110e-01  -2.8711353e-01  -9.1325477e-01   9.0034952e-01  -6.6861870e-01   8.8966529e-01   1.0424765e-01  -1.9768868e-01  -2.3214304e-01   9.3358086e-01   8.7582309e-01   1.0082036e-01   9.3522226e-02  -4.4238268e-01  -6.7485333e-01  -8.6090014e-01   9.4387387e-01  -5.4596114e-01   1.7546858e-01  -6.3101286e-01   5.0540171e-01   6.8765220e-01  -1.6589695e-01   3.8324975e-01  -4.8785568e-02   7.1018126e-01   4.3373929e-01  -4.5688726e-01   4.5454081e-01  -1.8411384e-01   2.8602140e-01   1.1737722e-01  -3.4302322e-01   3.9811878e-01   4.0673984e-01   2.3600967e-01   8.4916743e-01   9.6348697e-01  -5.1858608e-02   3.1819356e-01   5.0460471e-01  -7.2867657e-01   2.4787374e-01  -2.3548073e-02   7.7057969e-01   8.0500811e-01   6.4564352e-01   9.4363901e-01  -1.9358707e-01   4.5683674e-01   7.6862153e-01   9.6889495e-01   3.7130608e-01  -8.6132186e-01   4.6897555e-01  -8.6934045e-01   2.0364137e-01  -8.3703272e-01   1.2300018e-01   7.7860365e-01   9.8837309e-01   8.8291687e-01  -1.1177455e-01  -3.2577650e-01   1.0198676e-02  -1.0297533e-01  -7.0388572e-01   3.1980456e-02   1.3881877e-01   9.9943998e-01  -1.8744480e-01  -1.4326292e-01   7.7059000e-01   6.0159754e-01   3.3893477e-02  -2.2640943e-01   4.9756908e-01  -8.6762869e-01   9.6680255e-01   3.3732418e-01   6.9462007e-01  -3.5661331e-02  -5.3292060e-01   6.7781543e-01  -4.5306118e-01   5.3339221e-02   1.7230363e-01   5.2941533e-01  -2.0956752e-01  -2.4154142e-01   7.8747271e-01   7.1878983e-01  -1.5511521e-01  -2.2815572e-01  -5.7203512e-02  -6.2688747e-01  -5.1152498e-02   9.0336627e-01  -6.2748520e-01  -1.4758653e-01   9.3628985e-01  -6.7445375e-01  -7.8435989e-01   5.4554174e-01   7.5686953e-01  -7.5899830e-01   9.1694083e-01   1.1764541e-01  -4.3895468e-01   7.8146242e-01  -9.9235808e-01   9.3335310e-01  -2.9412108e-03  -6.7685401e-01   2.6115489e-01   1.4542803e-01   3.6653713e-01   2.1939314e-01   9.1324225e-01   4.2697857e-01  -8.9038846e-02   7.9056929e-01  -5.0503665e-01   9.7021105e-01   8.6188913e-02  -5.2257653e-01  -3.1086104e-01  -5.9057149e-01   4.4976824e-01   2.3219686e-01  -7.6642029e-01   8.4168640e-01   3.9213865e-01  -7.4773903e-03  -2.5210602e-01   6.1508529e-01  -9.1062444e-03   3.1754653e-02  -2.0866746e-01   9.8693249e-01   6.8167276e-02  -6.1530030e-01   7.5909384e-01   1.6614853e-01   7.9575249e-01  -3.0241969e-03   4.4668511e-01  -1.0236963e-01  -8.3550505e-01   5.4926407e-01  -1.0824421e-01   1.4227422e-01  -4.9415485e-01  -4.4981874e-01   4.8350080e-01  -2.3610353e-01   5.2498440e-01  -1.2260956e-01   3.3776837e-01  -7.9634875e-01  -8.4566862e-01  -6.6479775e-01  -5.4872058e-01   7.0049752e-01   9.1828034e-01  -9.1659030e-01   5.1782905e-01   1.0353309e-01   5.0673056e-01  -5.4514108e-01   7.4064764e-01  -8.8890415e-01   9.2066605e-01   8.8849463e-01   3.8890371e-01   8.1695946e-01  -6.7978224e-01  -3.9213963e-01   8.1154147e-01   3.9712055e-01  -8.5093704e-01   2.8819712e-01   7.4464396e-01  -6.8345587e-01  -9.4259070e-01   5.0020120e-01  -9.4597067e-01  -9.3164956e-01  -2.3121255e-01   1.3439536e-03   9.8849687e-02   7.9495859e-01   4.4225319e-01  -1.9221636e-01  -4.0617505e-01  -4.8618616e-02  -9.5744969e-01   6.8117320e-01  -9.7365093e-01   4.2574724e-01  -8.0003206e-01   2.6227269e-01   4.2265877e-01  -9.2597384e-01   2.9348166e-01   2.4091275e-01
