   3.1138883e-01   4.9334669e-01  -5.9141867e-01   3.2919766e-01  -4.4050688e-01  -2.0362688e-01   9.9446186e-01  -7.9986014e-01  -2.5459758e-01  -5.1492149e-01   4.1241180e-01  -3.2367409e-01   9.2123111e-01   2.9322479e-01  -7.5032177e-01   4.0558782e-01  -4.9290735e-01   3.4918584e-01  -4.8117896e-01   7.1282827e-01   7.8210456e-01  -4.3146361e-01   1.8427797e-01  -5.2715648e-01   6.5120215e-01  -8.5382832e-01  -1.5407957e-01   9.3485414e-02   3.3783088e-01   4.5867134e-01   8.3977506e-01   9.9406551e-01   5.1789717e-02   3.1274125e-01   8.6375144e-01  -8.3252411e-01  -8.6495711e-01  -7.7222312e-02  -2.3378364e-01   8.2700307e-01   9.5134452e-01   1.4219348e-01  -1.0030482e-01   1.0862859e-01   8.4040924e-01  -6.4752292e-01  -8.7983482e-01   9.1047321e-01   8.5523208e-01   8.1896682e-01   6.1097162e-01   7.8329013e-01  -1.0399117e-01   7.7331549e-01  -9.7011321e-01  -3.2548671e-01   6.9242250e-01   8.0063200e-01  -2.8469835e-01   7.5175120e-01   1.1088975e-01   8.2126038e-01  -4.0564063e-02   5.9603009e-01  -2.9900174e-02   3.9826917e-01   8.6184430e-01   6.6317426e-01  -6.8106732e-01  -4.3201006e-01   7.1055850e-01   2.0610754e-01  -7.6949829e-01   6.3924759e-01   9.1999720e-01  -3.6994540e-01  -8.7994521e-01   6.3958396e-01   1.5050526e-01  -6.9410953e-01   1.4347129e-01  -8.8759881e-01   2.3081492e-01  -2.7377268e-02   8.2523594e-01  -7.0891349e-01   8.9946516e-01   8.3958366e-01   7.2895866e-01  -5.6404677e-01  -7.2717198e-02  -9.4298204e-01  -5.0163752e-01   3.6216928e-01   4.8161245e-02   8.5610798e-01   6.1481015e-01   1.9537130e-01   5.7588121e-01   4.7915871e-01   2.3242999e-01   5.3869383e-01   7.2002390e-01   7.2107481e-01  -5.2185440e-01   3.8993669e-01  -5.3671663e-02  -5.8646732e-01  -4.7996961e-01  -4.9705673e-01  -1.1201489e-02  -5.5708231e-01  -3.1279322e-01   2.3740362e-01   3.5589841e-01   7.2568121e-01  -4.3839279e-01   6.1461528e-02  -1.5970463e-01   7.3465088e-01   7.0676845e-01   7.1531786e-01  -2.5179711e-01  -3.8244549e-01   9.8048560e-01   8.1490719e-01  -6.8764900e-01   4.4460822e-01  -2.1074610e-01  -7.7526419e-02  -5.0990359e-01  -5.9651933e-01   3.4157365e-01   5.9156333e-01  -2.9081655e-01   5.6031298e-01   7.3700460e-01  -8.7440798e-01   8.9660443e-01   2.2509581e-01  -2.0869130e-01   6.7728050e-01  -3.6176739e-01  -6.4721956e-01  -1.6444774e-01  -4.5764811e-02  -6.4709596e-02   2.5954139e-01  -8.5985552e-02   5.0353657e-01   6.1074589e-01   3.6838852e-01  -7.3925251e-01  -2.2997738e-01   9.6999186e-01  -3.0325243e-01  -3.5490566e-01  -9.5257657e-01   5.4617068e-02   7.8568322e-01   9.5751112e-01   1.4121962e-01  -4.7051820e-01   6.0833374e-01  -1.1581896e-01   9.7483723e-01   8.0805891e-01   4.3666696e-01   3.2071904e-01  -3.1486646e-01  -5.9485473e-01  -6.3628257e-01   5.6548054e-01   7.2444371e-01  -5.2977770e-01  -7.5206627e-02  -6.4330915e-01  -7.9058126e-01   6.1336713e-02  -1.7837351e-02   4.6020682e-02   8.8532843e-01   5.8741711e-02   7.2430076e-01   3.2204163e-03  -5.2379752e-01   3.2179284e-01  -3.7352873e-01  -8.2354365e-01   7.4106758e-01  -3.4349644e-01  -4.2239034e-01  -8.0785612e-01  -9.0458877e-01   4.5751950e-01  -3.5926261e-02   1.7307898e-01  -1.3550689e-01  -7.7057383e-01   6.0388652e-01  -2.9739027e-01   8.9959287e-01  -2.0150930e-01   5.8993654e-01   5.3628082e-01   8.4696589e-01  -3.1614932e-01   8.8169638e-01  -9.3137092e-01  -4.7800373e-01   4.9703687e-01   4.2467548e-01  -9.5932484e-01  -3.9776200e-02  -9.6429247e-01  -4.1972789e-01   3.7847339e-01  -1.5981659e-01  -6.5571217e-01   3.9935348e-01  -7.3799549e-01   3.1065974e-01  -6.3917875e-01  -3.2929761e-01   9.1863632e-01  -5.3816910e-01   5.9290862e-01  -2.7964024e-01  -9.7825314e-01  -5.0272894e-01  -7.4262826e-02  -2.8360959e-01  -1.4404664e-01  -1.9345772e-01   7.3777684e-01   3.7864716e-02   1.7863658e-01   5.6874231e-02   1.1972618e-01   7.5401095e-01   5.9521523e-01  -9.8266460e-02   1.8077760e-01   6.0925194e-01   8.2542558e-01  -9.8543274e-01  -9.5720769e-01   5.3533176e-02   7.6406892e-01   4.2074908e-01  -2.8082687e-02   1.4307485e-01  -6.0104001e-01  -4.3002106e-01  -3.9971098e-01  -8.3481389e-01  -5.0314538e-01   4.4458116e-01  -4.8709007e-01  -9.7160741e-01  -5.7264543e-01   6.6275077e-02   8.1335012e-01   8.9675692e-01   8.2565243e-01   8.1311383e-01   6.2727864e-01  -8.4512481e-01  -3.5586045e-01   4.7310038e-01  -4.4942763e-01   7.0063926e-01   4.3927154e-01  -5.0128368e-01   2.6434814e-01   9.6295978e-02  -3.0708892e-01   5.6686732e-01   2.9293172e-02   6.8202923e-01   2.0762382e-01   3.2175560e-01   1.9937042e-02   2.1929754e-01   4.7541471e-02  -6.8323396e-01   2.3192706e-01   6.3565467e-01   3.9194870e-01  -1.6106630e-01  -3.9089382e-01  -4.2660803e-01  -6.7131250e-01   5.1656158e-02  -6.8869436e-01   2.0702439e-01   8.0214399e-01  -6.4502984e-01  -6.6023115e-01  -2.4660869e-01   1.2495801e-01   1.9836739e-01  -9.4214462e-01   9.4646728e-01   8.9130590e-01   8.2084101e-01   3.2755139e-01  -8.5800742e-01  -7.9944488e-01   3.2798448e-01   6.9275047e-01  -7.8269974e-01   7.5219191e-01   8.9858603e-02  -6.4307320e-01   2.2604674e-01   1.6906747e-01   6.0455611e-01  -3.5971282e-01  -2.2162293e-01  -4.5397633e-01  -7.7167345e-01   5.5965115e-02  -7.6325754e-01  -2.2137077e-01  -8.1006749e-01   2.0524327e-01   7.4369702e-01   6.7481188e-01   1.1809104e-02  -4.3906527e-01   4.5190247e-01   8.8333275e-01  -3.5510029e-01   8.9247413e-01   7.2112588e-01  -2.1739024e-01   3.7888731e-01  -6.2288491e-02   9.5919412e-01   8.4904329e-01   9.8977917e-01  -3.4722336e-01  -9.6122698e-01  -7.5168012e-02  -6.0791728e-01  -1.8575458e-01  -5.8678022e-01   1.4366839e-01  -7.6912125e-01  -7.5260565e-01  -6.5119544e-01   3.7750163e-01   4.3818302e-01   5.9310167e-01   9.4402287e-01   4.8780070e-01   4.9319858e-01  -4.7330315e-01   5.8823299e-01  -1.9773305e-01   3.0536728e-01  -1.2670504e-01  -6.9185414e-01   3.4592198e-01  -3.5977680e-01   1.9893988e-01  -6.7784948e-01  -9.7329789e-01   6.9990164e-01  -8.8809798e-01   7.5465486e-01   1.0119193e-01  -4.3218561e-01   3.1920429e-01  -1.0521245e-01   3.0428887e-01   7.0573729e-01  -9.0383250e-01  -5.4688914e-01  -6.0553497e-01  -1.1750115e-01   4.9835707e-01  -5.6963864e-01   3.9257585e-01  -7.7362792e-01   4.9107512e-01   3.8018699e-01  -9.3639998e-01   4.8924152e-03  -5.7771548e-01  -4.7449056e-02  -2.2338033e-01  -3.0212921e-01   3.6375084e-01   8.7935021e-01  -7.6377275e-01   4.9647091e-01   5.8946287e-01   9.9085829e-01   6.3087969e-01  -1.3774750e-01  -2.6677449e-01   8.4696676e-01   3.8104230e-01   1.9027484e-01  -3.5785283e-01   2.5804345e-01  -2.0317804e-01   5.8525642e-01  -9.0935202e-01  -5.8489860e-01   9.1807587e-01  -7.1228535e-01   3.4124078e-01  -1.7816525e-01  -8.7097070e-01   3.1610992e-01  -5.5603257e-01  -1.8696296e-01  -2.1301010e-01  -9.1593664e-01   6.1545235e-01  -6.4447550e-02  -4.8930177e-01   2.4683680e-01   4.1953025e-01   5.6580066e-01   1.4421321e-01  -5.6228771e-02  -5.9670523e-01   6.7473614e-01  -8.3707579e-01   7.4425119e-01  -6.4510198e-01   6.8459447e-01   6.1309834e-01   7.0134462e-01  -8.3533120e-01   8.3119557e-01   5.8847665e-01  -2.1942093e-01  -8.7502813e-01   5.9845773e-01  -2.0937669e-01  -5.9453749e-01   5.1355522e-01   6.7120174e-01   2.8239135e-01   3.3140089e-01   2.6962227e-01  -6.2390361e-01   1.0986179e-01   3.9030472e-01  -4.0116039e-01   3.4579845e-01  -3.8785628e-01   1.8540120e-01  -5.3968455e-01   7.5618010e-01  -2.0921401e-01   2.0232870e-01   1.2893958e-01  -5.6073019e-01  -9.2655186e-01  -1.6237022e-02   8.4428428e-01   2.0900002e-01   9.1274546e-02  -3.4013393e-01   9.1408991e-01  -9.9968012e-01  -9.3946294e-01  -6.3246450e-01   6.9139495e-01   9.7423157e-01   5.4450198e-01  -9.8720161e-01   9.1622573e-01  -9.3929539e-01  -4.0356591e-02  -9.9126045e-01   8.3594702e-01   7.5700692e-01  -5.2557998e-01  -2.1241734e-01   5.4989371e-01  -8.6502609e-01   5.4180024e-01   5.8967116e-02  -5.5983177e-01  -9.4808816e-01  -6.7697283e-01  -3.2326462e-01  -5.2280337e-01   4.0161268e-01  -2.8347647e-01   9.2820891e-01   9.1842252e-01   9.3112463e-02   3.6138908e-01   8.8489974e-02   4.5406362e-01  -9.0460183e-01  -4.3922821e-02   6.1658474e-02  -4.4551678e-02  -4.8024880e-01  -6.1578835e-01  -6.5067768e-01  -5.9324730e-01   5.3593522e-01   3.4108668e-01  -4.5607554e-01  -4.9160720e-01   9.5731313e-01   9.2160737e-01  -5.1150748e-01   5.9473136e-01  -3.7213000e-01   3.4009962e-02   3.2478126e-02   1.9797411e-01   5.3728712e-01  -5.2776776e-01  -5.0369443e-02   6.7089292e-01  -3.7523991e-01  -1.2262583e-01   4.9644001e-01  -7.4254281e-01   1.4176030e-02  -3.5069947e-01   8.4078804e-01   3.4195023e-01   7.6141877e-01  -9.0053945e-01  -1.9368331e-01   9.4434664e-01   4.6707218e-01  -8.3268490e-01  -2.2373667e-01   3.1660202e-01  -4.4683464e-01   5.0263615e-01   2.8854490e-01   1.3602194e-01   2.8159323e-01  -8.0036378e-01   8.4432880e-01  -2.5995576e-01  -5.7190748e-01  -9.9570485e-01   5.0471788e-01  -6.1824163e-01   9.6523884e-01  -6.2759853e-01  -3.6734557e-01  -3.9216970e-01   1.9215593e-01   5.1769612e-01  -2.1019717e-02  -8.7886224e-01   6.4115127e-01  -8.0880466e-01   3.8816030e-01   8.9686808e-01   6.1075812e-01  -1.6055076e-01  -7.1470486e-01  -9.1980882e-01  -1.6808821e-02  -4.7268667e-01   8.7846156e-01  -3.0095983e-01   8.5257557e-01  -2.6578426e-01   6.2036470e-01   2.8629896e-01  -9.7071640e-01  -8.9993934e-02  -8.2559808e-02   8.3339922e-01   8.0562305e-01   9.8590641e-01   1.8987212e-01  -9.7085388e-01   3.2353108e-01  -5.1078994e-01   3.7891090e-01  -9.2285276e-01   7.0135907e-01   7.9820581e-01   3.5518398e-01   8.2456109e-01   1.9454548e-01   2.7784328e-01  -1.1994087e-01   4.8449370e-01   6.5188469e-01  -4.3165733e-01   3.1005184e-02  -4.0387967e-01   2.2136783e-01  -5.9266959e-01   4.9579833e-02  -2.7261915e-01   6.2371567e-01   4.5973381e-01   8.0163864e-01  -5.9931651e-01  -2.3163705e-01  -2.3422789e-01  -8.9457187e-02  -9.3892356e-01   8.6941136e-01  -3.4409573e-01  -3.0660868e-02  -9.1968015e-01   9.8221392e-01  -3.8364751e-01   8.2964804e-01  -8.1000481e-01   2.4611891e-01  -1.2855015e-01  -1.0729525e-01  -3.7211052e-01  -9.3330596e-02   1.2639727e-02  -6.6402652e-01   4.8850966e-01  -9.3823072e-01   8.4797775e-02  -6.7706638e-01  -5.5405444e-01  -3.2495160e-02   1.3305722e-02  -5.8075791e-01  -7.5491371e-02   3.9552782e-01   4.6963283e-01   6.4771417e-01  -6.7543170e-01   3.1142276e-01   6.7281433e-01   4.6100606e-01   7.8329017e-01   9.2070445e-01   2.5563231e-01  -8.1122928e-01  -8.5809889e-02   1.9070690e-01   5.2181481e-01   5.3291483e-01  -9.3691461e-01  -5.9878453e-01  -4.7752500e-01  -5.1577596e-02   1.3290599e-01   4.2626488e-01   8.6998978e-01  -1.5980082e-01   7.5955151e-01   6.8125307e-01  -3.0853042e-02   6.6565774e-01   4.9035673e-01  -2.1195281e-01   5.3842661e-01   7.7837706e-01  -7.1821739e-01  -8.3194709e-01   6.1651975e-02   7.3347338e-01   9.3773847e-01  -2.0488793e-01   8.9667069e-01   4.9523704e-01   1.9482562e-01  -2.3316736e-01  -9.9192675e-01  -9.1320705e-01   7.3171798e-01  -3.6636653e-01   9.0276901e-01  -4.3344285e-02  -8.7734424e-01  -9.0687639e-01  -2.7915140e-01   4.1833386e-01  -3.3112730e-01  -3.8047016e-01   1.3823442e-01   5.7540504e-01  -4.3317973e-01  -2.7437793e-01  -5.5596574e-01   5.1456958e-01   5.0629910e-01   9.7346806e-01   3.3828931e-01   6.9235648e-01  -5.4452610e-01   9.2845481e-01  -6.2949644e-01  -3.9266774e-01  -1.0633535e-01  -9.5896282e-01  -2.8634960e-01  -7.9006133e-03  -3.5539149e-01   9.9285695e-01   1.9194668e-01   1.0599172e-01   5.4331081e-01   1.4437351e-01   3.0241747e-01  -3.7071930e-01  -1.8179209e-01  -2.5654719e-01  -6.0198355e-01  -4.2756164e-01  -6.6002467e-01  -8.6010717e-01   1.5557559e-01   8.4159920e-01   7.1440297e-03  -3.6030430e-01  -3.4893785e-01   6.0962496e-01   2.0869491e-01  -2.8234210e-01  -7.2797642e-01   4.0428064e-01  -7.5445867e-01  -6.9710706e-01  -3.8362196e-01  -3.4123771e-02   1.9752830e-01  -2.1119960e-01  -2.6896824e-01   2.0334862e-01   5.0446809e-01  -8.5407703e-01   2.0532969e-02   1.7329486e-01  -1.4073821e-01   3.4811812e-01  -2.2456034e-02  -8.7596237e-01   7.3498471e-01   4.2550469e-01   3.1209500e-01  -5.6970018e-01   5.0259945e-01  -5.8547617e-01   6.6265939e-01  -6.6175419e-01   9.9525027e-01  -5.2494781e-01  -5.6846689e-04   2.6170462e-01  -7.4932483e-01   3.4105358e-01  -1.0407849e-01   4.4736894e-02   1.6290764e-01  -1.0784608e-01   8.4387063e-01  -1.7467243e-01  -3.0442236e-01   1.2074289e-01  -7.9994336e-03  -9.0687568e-01   2.5232513e-01   5.9235107e-01   7.2770328e-02  -3.1619862e-01   7.5942317e-01   1.3463562e-01   5.4556820e-02  -4.8304834e-01   2.9276564e-01  -6.6564298e-01   6.5942997e-01  -1.3449170e-01  -3.0487641e-01   7.4367966e-01  -7.0938969e-01  -4.9014118e-01   4.3625237e-01  -1.7861327e-01  -7.2622141e-02   1.8419104e-01  -7.5431164e-01   2.7747136e-01  -7.6392251e-01  -9.8016239e-01  -8.9612281e-01   8.8048160e-01   8.9224379e-01   6.8828591e-01  -8.4793467e-01   6.9373083e-01  -9.6959147e-01   1.1589473e-01   1.1874413e-01  -3.3309369e-01   2.5078987e-01   9.2591195e-01  -1.0035003e-01  -3.5071118e-01   8.5799977e-01  -6.5415872e-01  -9.8597111e-01  -8.2542162e-01  -5.2251512e-01   5.6574798e-01   6.6576965e-01   9.3218221e-01   9.0749222e-01   5.4407321e-01   2.5159266e-02   9.6525820e-01   5.3294252e-01  -9.2099990e-01   3.6690902e-01  -3.5272952e-01   5.0766990e-01  -7.8232007e-01   4.4094585e-01  -3.2898368e-01  -6.5668536e-01  -4.1122131e-02   7.8466866e-01  -1.5428638e-01  -8.1647698e-01  -6.1756289e-01   7.6102288e-01   9.1865694e-01   3.1116908e-01   7.4359330e-01  -1.6190992e-01   1.1073156e-01  -4.0490438e-02   2.6057179e-01  -6.8802979e-01   3.2570435e-01  -4.1316862e-01  -4.2733571e-02   3.9840799e-01   1.7966522e-02  -2.3882700e-01  -1.8959858e-02  -5.6720890e-01  -5.3938200e-01   9.3566860e-01  -6.5188587e-02  -6.4224365e-01  -5.3107454e-02  -2.7849109e-01  -2.3101283e-01   7.4117244e-01  -7.4282091e-01  -4.8950572e-01  -4.1520972e-01   8.9839792e-01   3.2576592e-01  -2.5812498e-01   6.9000680e-02  -8.3586434e-01  -3.9701489e-01   4.0865114e-01  -9.5282907e-02  -8.9647745e-01  -6.5330287e-01  -6.1706498e-01  -8.7864858e-01  -1.4732584e-01  -2.8032899e-01   3.3277393e-01  -3.0613440e-01   1.5045101e-01  -8.3120530e-01   9.1884067e-01  -2.6039216e-01  -9.9354493e-02  -6.3940985e-01   5.7366975e-01   8.5798595e-01   6.5573222e-02  -6.7133757e-01   1.4100377e-01  -9.0060277e-01  -8.1349616e-01  -1.0239818e-01  -9.7551162e-01   8.7186911e-01  -8.1960243e-01   4.2255852e-01  -2.0730250e-01  -4.2567268e-01   8.2963061e-01   3.7625942e-02  -4.1744730e-01   3.9926150e-01  -6.7134948e-01  -6.9440252e-01   3.6319206e-01  -7.8313536e-01   4.0743005e-01  -6.6355443e-01   4.6249126e-01   8.3885270e-02  -6.1301807e-01   5.1631448e-01   1.8883126e-01   5.8800290e-01  -6.5014845e-01  -6.7614904e-01   4.2848598e-01   7.4687509e-01   3.9870778e-01  -1.3674613e-01   8.8387783e-01   1.5416733e-01   4.0994301e-01   2.7563976e-01  -7.5649955e-01   6.8439839e-01  -8.5392378e-01  -2.4494033e-01  -6.3015922e-01  -7.9137610e-01  -1.6084642e-01  -8.8892406e-02   1.0175479e-01  -5.7516129e-01  -9.8628214e-02  -5.4691800e-01   3.1540948e-01  -2.1817044e-01  -4.9221753e-01  -2.0314217e-01  -5.7104444e-01  -6.0215094e-01   3.9855583e-01   6.4302983e-01   9.2548037e-01   8.1635682e-01   5.9685693e-01   1.2525424e-01  -4.7702165e-01   5.0358430e-01  -2.5590820e-01   4.3328493e-01   1.2234044e-01   9.8362120e-01  -5.2929489e-01  -8.0511674e-01   6.3447441e-01  -5.5998276e-02   8.2262955e-01  -4.4311763e-01  -7.2978645e-01  -3.1425529e-01  -9.1323632e-01  -4.6083700e-01   8.4519185e-01   8.7308306e-01   4.6621240e-01   2.9206524e-01  -3.3360569e-01   4.3975414e-01  -6.5375774e-01   2.1913807e-01  -7.1227262e-01  -5.7626101e-02  -5.2295541e-01   4.2434593e-01  -4.8404182e-01  -9.6524155e-01   9.3504644e-01  -7.6870322e-01   6.4251049e-01  -8.0705113e-01   8.9918347e-01   8.9011955e-01  -6.7602437e-01   8.4779452e-01   7.4671200e-01  -2.1425642e-01   7.3678332e-02   3.2137732e-02   8.3834917e-01   6.7150832e-01  -4.3859739e-01  -5.2825718e-01   5.7963976e-02  -5.4846375e-02
  -6.9506680e-01  -6.7843978e-01  -3.0714204e-01   2.5489144e-01  -1.2622611e-01  -2.7119424e-02  -2.1527928e-01   3.9782582e-01  -3.2001007e-01  -8.2789950e-01   8.7816548e-01   1.1076684e-01   4.9079890e-01   7.2516139e-01   8.2090382e-01   2.7975784e-01   4.5135249e-01   7.6419823e-01   8.1806259e-01   6.4766512e-01   9.0073892e-01   9.5632505e-01  -7.4950551e-01  -3.7800957e-01   6.0293439e-01  -8.5400471e-01   2.0679786e-01   1.0611523e-01   8.0173777e-01  -7.3362844e-01   7.3110398e-01  -5.7510842e-01   4.3989985e-01   6.5851452e-01   3.6089968e-01  -6.4337217e-01   4.7297200e-01   6.8035142e-02  -1.5095639e-01   4.3558413e-01  -1.9652899e-02  -4.6514215e-01   5.6631170e-01  -1.7135635e-01   4.8924792e-01  -1.1048923e-01   8.8344784e-02   8.6918461e-01  -8.1513178e-02   4.8460267e-01   1.5468961e-01  -8.6950865e-01  -6.9127392e-01   4.3666808e-01  -5.9644054e-01   7.3184624e-01   8.3963033e-01  -4.1558569e-01  -1.8794885e-01   3.4921546e-01   8.6495694e-01  -3.7253168e-01  -6.4317646e-01   2.3201834e-01   5.0459689e-01   3.8560137e-01   8.7327107e-01  -9.1131232e-01  -7.9006372e-01  -5.9796775e-01  -3.6006827e-01   7.2820282e-01   3.6450951e-01   7.8987942e-01  -4.2102452e-01  -7.7933041e-01   2.2122556e-01   5.8930753e-01   6.3759077e-01   4.3917066e-01   4.8854397e-01  -1.3063221e-01   3.0910963e-01  -5.3915134e-01  -7.7339342e-01   9.8907504e-01  -1.2801821e-01  -1.8872812e-01   4.1800248e-01   9.7133757e-01   2.2218239e-02   2.7608800e-01   4.2132754e-01  -7.5070673e-01  -6.2647473e-01   1.3803361e-01   3.0957530e-01  -5.9424230e-01  -9.7341080e-01  -5.0504830e-01   5.5005312e-01   2.8949413e-01  -7.6978139e-01  -9.6226089e-01  -1.4789292e-01  -2.3939169e-01   3.6965011e-01   5.0085080e-01  -9.6071579e-01   1.0663303e-02   1.5114046e-01  -4.1346678e-01   6.3685193e-02  -7.4532513e-01   2.0729509e-01   8.2878839e-01  -6.3557450e-01  -8.1665098e-01   1.3113012e-03   7.8380320e-02   5.1557534e-01   6.8192384e-01  -8.5292635e-01   5.0411256e-01   2.0020060e-02  -5.8320936e-01   6.4777174e-01  -8.3749686e-01  -6.3726961e-01   1.7722050e-01   6.9708608e-01  -2.5503810e-01  -9.3201750e-01   2.2747098e-01  -4.9340016e-02   5.7333129e-01  -3.5642346e-02   9.9309743e-01   6.2046354e-01  -3.3093698e-01   9.1312911e-01  -7.0131148e-01  -6.1820753e-03  -5.2355386e-01  -2.7146036e-01   4.8696696e-02  -7.0194970e-02  -1.7685894e-01   6.6162810e-01  -9.9601080e-01  -4.2712302e-01   6.3928892e-01   5.9413298e-01   4.4299499e-01  -4.6705529e-01  -6.2206822e-01  -7.6960621e-01   3.8793625e-01   8.7123525e-02  -4.7820497e-01   3.0845711e-01  -2.3436700e-01   4.1951687e-01  -8.7272312e-01   4.1568453e-01  -6.4740014e-01   5.3240299e-01   7.5330038e-01   3.1898637e-01  -1.0114188e-01  -8.1151434e-01   2.7879542e-01   6.4341512e-01   3.4672066e-01   7.1635874e-01   2.1750511e-01  -9.4845802e-01   5.1500365e-01   6.8029772e-01   4.9032393e-01  -7.2076097e-01   1.1511905e-01   3.7337418e-01   9.8827660e-01   9.4597167e-01   9.0378957e-01  -7.8713016e-01  -1.5941475e-01  -2.6042868e-01   1.7242005e-02   2.8462059e-01  -4.9048054e-01  -7.2556203e-01   8.4994572e-01   5.8707805e-01  -2.6036293e-01   9.2399121e-01   8.7753337e-02  -6.2628697e-01  -4.1875159e-02   3.9833043e-01  -7.8477227e-01  -3.7128887e-01   7.6434398e-01  -6.7048009e-01   4.3837265e-01  -5.4614062e-02   1.2772504e-01  -8.4504265e-01   1.1130379e-01  -4.7237096e-01  -2.0949733e-02  -7.9842264e-01   2.0954641e-03  -4.9189256e-01   3.4932016e-01  -9.5924913e-01  -1.5890192e-01   8.9445279e-02   7.7236102e-01  -4.4093103e-01   9.4197683e-01   9.2150219e-01   2.6321847e-01  -9.4742465e-01  -9.8698177e-01  -4.5300420e-01   3.4306486e-01  -9.5749608e-01   5.2321943e-01  -4.6066115e-01  -6.2357375e-01  -6.5224668e-02  -2.5565970e-01  -4.5869066e-01  -6.1578303e-01   7.3266722e-01   7.3213168e-01  -4.5909499e-01   4.2445831e-02   7.5612066e-01  -1.3720960e-01  -1.0419159e-01   4.6875796e-01  -7.5262161e-01  -7.4464298e-01  -1.4862725e-01  -5.1494764e-01  -5.6534115e-01  -7.4336040e-01  -2.3487997e-01  -1.1611952e-01  -5.9226945e-03  -8.5992950e-01  -7.1281885e-01  -9.8895936e-01  -9.0597814e-02   3.0085864e-01  -8.8718071e-01   5.6390232e-01   1.9870511e-01  -2.2508618e-01   5.6565284e-01   2.2937171e-01   7.4656749e-01  -4.3666860e-01  -7.3365312e-01   3.4224214e-01   2.5812470e-01   6.8324972e-01   6.5846650e-01  -6.2159674e-01   5.3605868e-01   3.5988847e-01  -7.7085661e-01   7.8337569e-01   4.5913411e-02  -2.1734152e-01  -3.5607595e-02  -3.1549964e-01  -7.7469526e-01   2.3599578e-01   8.8620207e-01   5.0074997e-02  -5.5888802e-01  -9.7839829e-01  -4.9254634e-01  -4.7477061e-01  -2.6955632e-01   9.6019783e-01  -4.5094916e-01  -6.4844836e-01   6.8704864e-01   4.3319353e-01  -4.4781420e-01  -5.6036833e-01  -9.8216044e-01  -4.3392911e-01   5.9109770e-01  -5.1684276e-01  -5.1056161e-01   7.4396956e-01   6.1682666e-01  -1.3140201e-01   6.8589516e-01  -7.7074115e-01  -6.4685775e-01   5.9781321e-01   3.4594729e-01  -2.8677388e-01  -8.0478833e-01   8.7868106e-01   7.9950810e-01  -3.7747417e-02   2.6179699e-01  -2.5106748e-01   7.1464575e-01   3.8002759e-01  -4.0493730e-01   2.0459961e-01  -3.6071977e-01  -8.9401447e-02   7.6083158e-01   3.3262580e-01   1.8391787e-01   6.9677200e-01  -3.8915352e-01   2.9826229e-01  -9.5935013e-01   2.8374129e-01   7.7144665e-01   5.6863598e-03   1.4053901e-01   8.7250977e-01  -3.1145776e-01  -4.8902605e-01   6.8069867e-01   7.2768233e-01  -3.6175298e-01  -5.2890588e-02   9.7867511e-01   3.2198010e-01  -1.6284534e-01   6.2492988e-01   3.5274607e-01  -6.4576929e-01  -5.8716522e-03   9.2700128e-01   6.6460817e-01  -3.7206347e-01  -7.6663731e-01   3.0771790e-01   7.2558248e-03  -4.5228021e-01  -2.5848045e-01  -4.5301762e-01  -5.3980948e-02  -6.1602133e-01  -2.9674408e-01   3.3640932e-01  -3.2316293e-01   2.2880132e-02  -4.3545812e-01   2.9061627e-01   1.6190132e-01   2.5704842e-01   3.5193556e-01   9.8476314e-01  -7.0147361e-01   4.3304296e-01  -1.1167549e-02   9.5523235e-01  -1.7523927e-01   4.0761838e-01  -4.8215434e-01   2.6732906e-01   7.2097267e-01  -5.9085169e-01  -6.2427574e-01   8.5512544e-01  -8.1267277e-01   6.3467275e-01  -4.4544525e-01  -8.0787443e-01  -3.8709294e-01   4.7489913e-01  -2.5153538e-01  -2.2777815e-02  -9.4934922e-01  -3.1775476e-01  -4.3151562e-01   8.6943595e-01  -7.8312686e-02   8.4690413e-01   7.7827651e-01   5.8103142e-01  -7.0431986e-01   5.2823695e-01  -8.0012416e-01   1.8447833e-01   2.8885061e-01  -2.5409070e-01   8.8052719e-01   3.3037088e-01  -6.2018901e-01   8.2168892e-01   7.3234945e-01   2.7440161e-01  -9.3240687e-01  -2.1496146e-01   9.4521522e-01  -7.1244320e-01   3.2707508e-01   9.3561271e-01  -1.8340685e-01  -8.6847491e-01   4.8331615e-01  -5.0145510e-01   7.6407931e-01   4.4912792e-01   7.2587872e-01   3.9541283e-02  -1.5429312e-01   1.8021395e-01  -3.8135163e-01   3.5399906e-01   7.7127627e-01   8.8664015e-01   1.5953065e-02  -2.0208504e-01  -6.2775338e-01   4.3788115e-02   1.2957357e-01   8.8824105e-01   1.9398427e-01  -5.4458951e-01  -9.0380845e-01   4.5741780e-01  -8.1270896e-01  -6.9314280e-01   3.5505833e-01  -5.5597406e-01  -3.1959955e-01   1.5209253e-01  -2.3830390e-01  -5.1152270e-02   4.5314097e-01   2.1120377e-01  -6.3686999e-01   6.3485040e-01   6.6108004e-01  -7.0058058e-01  -6.1386094e-01  -3.1918267e-01   8.2187824e-01   8.5334200e-01  -7.8483902e-01   9.0230253e-01  -2.8759631e-01  -6.3682368e-02   1.1185800e-01  -8.2265230e-01   7.9905208e-01   6.4734249e-01  -2.7467259e-01   1.9472476e-01   4.3557725e-01   8.9476397e-03  -9.3783499e-01  -9.7563505e-01   9.3847809e-01   8.5188432e-01   3.6705398e-01  -9.2938394e-01   1.2472925e-01   4.4230164e-01  -9.2076664e-01   5.4424526e-01   4.5203130e-01   4.8749010e-01  -4.8252609e-02   9.6993598e-01  -5.6219148e-01   4.6118799e-01  -6.1209179e-03  -3.1477628e-01  -6.7979245e-02  -1.9458903e-01   9.9539107e-01  -5.0962658e-01  -5.1303649e-01  -5.7224521e-01   5.3003136e-01   6.0423420e-01  -3.1284315e-02   9.4254198e-01  -7.2480409e-01   7.9315112e-01  -5.5716893e-03  -8.1364463e-01  -8.5515304e-01  -5.6048511e-01  -5.8791347e-02   2.9231675e-01  -6.0475758e-01  -7.4330771e-01  -9.2624047e-01  -6.9984348e-01  -3.1512321e-01  -3.8625195e-01   7.8858610e-01   2.5471273e-01  -3.2686124e-01  -8.1874168e-01  -3.8134715e-01  -7.9518882e-01  -3.5327793e-02  -9.6386081e-01  -9.5432041e-01  -9.9016327e-01  -4.7790409e-02   6.3846068e-01  -7.8839990e-01   7.2146533e-01  -9.6218773e-01   6.3598848e-01   7.3970089e-01   3.5335282e-01  -8.0757095e-01  -4.0266691e-01   7.2129372e-01   5.1482640e-01  -1.0347973e-02   3.3329540e-01   2.0136971e-02   4.0524783e-02   9.7356935e-01   5.6017220e-01  -6.6679512e-01   4.6088064e-01   8.5087868e-01   7.8803771e-01  -2.0134781e-01  -9.5656926e-01   7.1746884e-02  -9.4677174e-01   4.2121089e-01  -4.1114411e-01  -4.8484613e-01   2.6009976e-01   1.3768737e-01   7.5731771e-01  -3.5091437e-01  -8.6662830e-01   2.5188977e-01   1.2509098e-01   5.1841434e-01   9.4758693e-01  -7.2029687e-01  -2.8944592e-01   9.0617136e-01   2.8524952e-01  -3.9939274e-01  -2.5386999e-01  -2.3850889e-01  -6.2275200e-01   2.1683628e-01  -6.0033821e-01  -3.8262395e-01  -2.1291400e-01   5.3209605e-01   4.2082986e-01  -6.5957498e-01   2.5621092e-01   1.2571974e-01  -6.7598831e-01   6.6263599e-01  -3.2237706e-01  -4.5365887e-01   3.9925608e-01   6.6006393e-01   3.4351118e-01  -6.2569574e-01   8.7107490e-01   1.9333741e-01  -2.6251279e-02   2.8377487e-01   3.6408952e-01  -3.7336278e-01   8.8768458e-01   4.5907504e-01  -6.4686171e-01   2.0504322e-01  -1.6990638e-01   4.2483198e-01   1.8387861e-01   5.0133759e-01  -6.9905635e-01  -4.1399112e-01  -5.8974471e-01   9.8050455e-02   6.8256560e-01  -6.5952830e-01  -9.0253743e-01   9.5618794e-01   9.7204608e-01   6.0340916e-01  -3.8536648e-01   9.2729446e-01   5.7371187e-01   2.5100265e-01  -8.4941387e-01   8.9262496e-01   6.0191172e-02   3.7487368e-01  -1.5174414e-01  -9.6363450e-02   7.8822271e-01   6.4037327e-01   7.6359863e-01   2.7630746e-01  -5.0080226e-01  -2.9558873e-02  -4.7979943e-01  -7.3680043e-01  -2.9124626e-01  -6.2737458e-01  -4.2940667e-01   8.4733805e-02  -8.9678873e-01  -6.0141388e-01   2.2695646e-01   9.7146370e-01   4.5797397e-01   1.5103959e-01  -1.2628663e-01   1.4927017e-01  -9.2049813e-01   9.5190039e-01  -8.8464436e-01  -5.9118237e-01  -1.7407388e-01  -8.4806930e-01   2.0979808e-01  -8.7586091e-01  -1.3205235e-01   1.5078554e-01  -5.3353811e-01  -7.9903441e-01  -1.2579553e-01   3.6260558e-01  -2.4593727e-01   5.4693540e-01  -6.7618829e-01   7.6265718e-01  -4.3696138e-01   1.1614047e-01  -1.7750792e-01   3.4133557e-01  -2.3273990e-01   7.5167588e-01   5.0168464e-01  -2.6632414e-01   3.9487874e-01  -2.7906098e-01   4.5549630e-01   1.0549203e-01   1.6352977e-01   2.7619959e-01  -3.4267951e-02   5.3859389e-01   6.7023788e-01  -3.9886938e-01   1.5026482e-01  -1.1239205e-01  -5.6310272e-01   5.1882661e-01  -8.9343106e-01  -6.1693451e-01  -9.5239892e-01  -5.2424407e-01   3.4024942e-01   3.3684592e-01  -7.7896087e-01  -5.8701205e-01  -1.9682009e-01  -3.1363715e-02  -8.2766740e-01  -1.1108145e-01   4.0206722e-02   5.9036611e-01   5.4144995e-02   6.7810625e-01   6.8078254e-03  -5.7061342e-01  -4.5740007e-01   1.8606676e-01  -6.6795988e-01   3.5297553e-01   7.7407609e-02  -9.4889618e-01  -9.2532694e-01  -5.7576158e-01   5.0868671e-01  -6.7171863e-01  -5.5589691e-01  -5.0223727e-01  -3.4866522e-01   7.6002470e-01  -3.1074497e-01  -1.3541891e-01  -9.6081735e-01   2.9398387e-01   2.5046703e-01  -4.1037317e-01  -7.4286674e-01  -3.5711263e-01  -7.2654141e-01  -1.6007511e-01  -7.8702179e-01   1.3882318e-01  -2.9659699e-01   6.3925876e-01   9.3995831e-01   5.1421183e-01   3.8218959e-02  -4.5533123e-01  -6.8846309e-01   1.4785568e-01  -8.8148720e-01   5.4387151e-01   8.0348282e-02   6.8817523e-01  -9.8791136e-01   1.4069641e-01  -1.8395831e-01  -6.3989836e-01  -3.9325195e-01  -9.9060055e-01   2.4996225e-01   7.7451423e-01  -5.1054146e-01  -9.5915778e-01   2.0062199e-02  -3.8847975e-01   9.6111170e-01  -8.2434390e-02  -2.3638928e-01   1.5747003e-01  -1.4963361e-01  -2.5377101e-01  -8.1570664e-01  -2.7981337e-01   9.0767266e-02   8.6737032e-01   8.3470895e-01  -6.5920207e-01  -3.2186076e-01  -3.9547670e-01   7.0406936e-01  -2.8292076e-01   4.3431900e-01   7.4559862e-01   2.2891271e-01  -3.3480616e-02   3.0641946e-01   4.4781609e-01   6.9859479e-01   6.8798443e-01   8.7674701e-01  -6.7556509e-02   6.7428503e-01   4.8307097e-01  -2.4703492e-01   1.1734789e-01   6.4214731e-01   5.5092154e-01   7.6295327e-02  -7.2378425e-01  -7.6502971e-01  -9.3402405e-01  -8.2054850e-02  -8.9432861e-01   3.6933016e-01  -3.4032208e-01  -8.4658375e-01  -8.5764567e-01   9.2867185e-01  -2.2594144e-01   6.1292514e-02  -7.7454785e-01   8.5628753e-01   6.1831547e-01  -9.3836640e-01  -9.9127945e-01  -4.5855193e-01   1.8682411e-01  -8.0517174e-01   9.4327910e-02  -1.1282046e-01  -5.8406725e-02  -6.0500545e-02  -1.4432848e-01   7.3843403e-01   9.0713291e-02   7.8732047e-01   6.9157625e-01  -5.0250474e-01   8.0343321e-01  -6.0221482e-01  -8.1288397e-01  -3.2835604e-01  -6.3468765e-01   3.6319737e-01  -7.7993912e-01  -2.9338139e-01  -3.0129502e-01  -4.3226908e-01   8.4470685e-01   3.3769437e-01   2.8745089e-01  -3.9327927e-01  -9.8667670e-01  -6.2435711e-01  -1.8835182e-01  -5.9500941e-01  -4.6911959e-01  -6.3834453e-01  -7.0898116e-01  -2.9807938e-01  -3.4329458e-01  -5.2663021e-01  -9.1566568e-01   3.5199861e-01  -3.4187513e-01  -2.9900921e-01   9.2641004e-01   3.6944977e-01  -8.7173919e-01  -7.6370696e-01   2.4148289e-01   2.3626900e-01  -2.4984877e-01  -9.1529198e-01  -9.9208674e-01  -6.4614756e-01  -6.2698853e-01  -4.5466504e-01   2.4033865e-01  -2.2038186e-01   5.4502107e-01   4.7626228e-01  -3.4483592e-02  -6.2463557e-01   2.2666574e-01   9.7393348e-01  -9.4177191e-01   8.6821312e-01  -6.9441485e-01   5.7703720e-01  -1.8979906e-01  -2.1389675e-01   9.6172029e-01  -5.3043236e-01   8.7715812e-01   1.8925732e-01  -2.7791153e-01  -5.7614479e-01  -7.3548361e-01  -5.8535296e-01  -8.6248753e-01   4.1334406e-01   6.3033892e-01   1.1671931e-01  -4.9007209e-01  -4.8994230e-01   3.2000621e-01   5.3660324e-01  -9.8714174e-01   3.4397567e-01   9.4152383e-01   2.9602810e-01   2.9351682e-01  -7.9512378e-01   8.1997463e-01  -9.9030625e-01   9.6663501e-01   8.2051719e-01   6.9278815e-02   2.2375441e-01   2.8252302e-01   7.5931650e-01   9.8166793e-01   4.1169788e-01   1.4253904e-01  -5.4521970e-01   3.9408268e-01  -8.1459941e-01   2.8000921e-01   5.8051727e-01   6.0465000e-01  -1.9298043e-01  -5.0325009e-01  -6.2883535e-01  -3.2552370e-01  -3.1095142e-01   5.8374883e-01   3.2254843e-01   6.9009969e-01  -2.4147799e-01  -3.0168303e-01   3.3955368e-01  -2.0099654e-01  -9.1418160e-02   7.8705075e-01   9.1294760e-01  -8.5141515e-01   9.5154670e-01   9.0729635e-01   9.8944632e-01   3.9673908e-01   9.3881024e-01   2.1573516e-02   4.8432929e-02   6.3064457e-01  -6.9988874e-01   3.7943172e-01  -1.0203782e-01   2.2885582e-01  -7.3542910e-02  -1.8809577e-01  -3.6847921e-01   5.0849857e-01   5.7110452e-01   3.0293677e-01   2.1171647e-01   5.8228957e-01   2.9215798e-01   1.7412000e-01  -4.7270536e-01   7.5012829e-01   5.4941395e-02   7.9872315e-01  -3.5740577e-01   1.7118784e-01   6.3405736e-02   7.7539508e-01  -3.1333778e-01   1.6709975e-01  -6.7912801e-01  -4.1932572e-01   7.2065705e-01  -4.0230576e-01   6.6027440e-01   8.6316975e-01   3.9723682e-01  -6.9939521e-01   3.9846027e-01   7.1776760e-01  -8.5762804e-01   8.7668234e-01   2.3098289e-01   1.5236527e-01  -7.3712459e-01   9.7100532e-01   8.6743196e-01  -1.3302456e-01   7.1233919e-01   1.1532703e-01  -9.9953045e-01   3.8326553e-01  -3.7401446e-01  -8.1552658e-01  -6.9318540e-01  -9.8964181e-01   8.9718837e-01  -7.5312797e-01  -7.3664010e-01  -7.7362831e-01   1.4704826e-01   2.9217261e-01  -4.3946687e-01   2.9249018e-01   8.4259613e-01  -5.5580675e-01   8.8311869e-01   1.6301657e-01  -7.9036839e-01   5.4375038e-02  -2.2181167e-01  -7.6155759e-01   4.7439502e-01   5.1470855e-01  -3.4274664e-01  -1.7257413e-01  -3.6905335e-02   9.2366208e-01  -3.4125115e-01  -7.8860676e-01  -1.3809503e-01
  -3.5023561e-01   9.6981266e-01  -5.7851983e-01  -2.8450463e-01   5.1444846e-01  -7.2690437e-01  -1.2922963e-01  -2.5179730e-01   3.1662030e-01   1.1579204e-01  -1.1709043e-01   4.3152985e-01  -5.0669331e-01   8.5606137e-01  -6.6772973e-01   2.7001799e-01  -5.5923849e-01  -5.0538345e-01  -8.5574393e-01  -7.2470023e-01  -5.9062183e-01   9.3817634e-01   5.0485641e-01   8.7228681e-01  -8.8797443e-01  -1.4469729e-01  -8.1018657e-01   1.7234427e-01  -7.7511298e-01   1.7037082e-01   8.8547949e-01   9.0824057e-01  -3.1590249e-01   6.4470155e-01   3.1914798e-01   3.2128013e-01   7.6972011e-01   4.2378804e-01  -1.9506976e-01   7.5167705e-01  -2.5465836e-01   9.9324572e-01   8.4294447e-01   7.0733775e-01  -1.1191868e-01  -7.6177165e-02   4.6658278e-01   6.4267664e-01   4.9873878e-01  -7.5367255e-01  -4.8744912e-01   2.8858859e-01  -6.3038601e-01  -5.4340416e-01   8.5993458e-01   9.3284030e-01  -3.5187256e-01   1.2006682e-01  -8.3888744e-01   6.2390437e-01   9.9922838e-01  -6.5924127e-01   8.5703629e-01   5.2092377e-01   2.4083402e-01  -4.3726663e-01   6.3940855e-01  -3.8700780e-01   3.1506733e-02   2.5566708e-02  -5.0913003e-01  -3.9825153e-01  -4.0243204e-01  -5.5834809e-01  -2.1066168e-01  -9.8942739e-01   4.8459266e-01  -3.0938200e-01  -6.6079113e-02  -7.6616957e-01  -9.6990279e-01   2.2454881e-01   1.8466821e-01   1.4544989e-01  -9.2323739e-01  -4.6468599e-01   4.9341033e-01   1.4949913e-01   3.6448504e-01  -3.4386488e-01   7.1856197e-01   4.6543881e-01   7.7967811e-01  -7.1369200e-01  -8.9109486e-01   3.2000718e-01   1.3395355e-01   2.4303954e-01  -5.9434333e-01   2.7750460e-01  -9.7771939e-01  -6.0564788e-02   4.2893467e-01  -2.6731212e-01   5.2188137e-01  -1.9378545e-01  -2.4840349e-01  -2.8026879e-01   1.4801573e-01  -4.6751517e-01  -5.3838468e-01  -8.1404881e-02   6.0985403e-01  -9.0024259e-01  -3.1210742e-01   8.5124313e-01  -5.1011292e-01  -2.4846391e-01   9.4766026e-01  -9.5895211e-02   3.7841080e-01   6.2847084e-01   9.8843277e-01  -4.1235250e-01   2.3113964e-01  -2.4534603e-01   2.8825873e-02  -5.0467936e-01   6.2617901e-01  -9.0515363e-01   7.9650932e-02  -3.8783936e-01   2.2560463e-01   3.6765267e-01  -4.5951819e-01  -7.2765146e-01  -9.6878270e-01   5.0071085e-01  -2.5505038e-01  -7.3260424e-01  -4.4490292e-01  -1.6306139e-01  -5.6798350e-02   4.7270563e-01   3.7804143e-01   4.1889146e-01  -6.1715342e-01  -4.5873562e-01  -9.0149251e-01  -2.0213843e-02   5.7535478e-02  -9.9684052e-01  -9.5654443e-01  -4.0838872e-01  -5.3303432e-01  -4.7701073e-01   6.6054592e-02   6.9407737e-02   3.5913030e-01  -9.9507854e-01  -3.6969087e-01   1.8913113e-01  -7.1930626e-03  -7.4791364e-01   3.7641600e-01  -4.9363299e-01   8.4749953e-01  -1.7592796e-01  -2.2376805e-02   6.8104087e-01   7.9488059e-01  -1.2235348e-01   2.1272165e-01   4.2878966e-02   3.2065521e-01  -9.1993868e-01  -5.1658637e-01  -1.4735762e-01   4.4836148e-01   3.0805681e-01   7.3467093e-01  -4.8318357e-01   9.4326795e-01  -8.5441089e-01   2.0616343e-01  -6.8240775e-01  -1.3369382e-03  -8.2472377e-01   7.4360877e-01  -6.9385104e-01  -8.6076326e-01  -1.8137871e-02  -8.3948083e-01   5.9769125e-01   6.0373953e-01   9.5460144e-01   5.5755840e-01   2.0520935e-03   5.5995006e-01  -5.9923600e-01   5.5616574e-01  -9.1889964e-01   8.0048422e-03  -8.9214013e-01  -4.3583899e-01  -6.1487851e-01  -4.9526187e-01   4.7197328e-02   9.2622566e-02  -3.6242253e-01  -3.0786294e-01  -5.7941522e-01  -6.9754029e-01  -1.1338640e-01  -1.8031855e-01  -5.1819594e-01   7.8572083e-02  -4.7955436e-01   5.8359479e-01   1.4705598e-01  -5.2887254e-01  -2.5131399e-01  -5.6545715e-01   6.2436295e-01  -3.7360257e-01   1.2518588e-01  -5.9178194e-01  -8.1092265e-01   1.3246888e-01  -3.4372526e-01   4.1872233e-01   2.8262826e-02  -6.4196291e-01  -7.4043582e-01   4.2623207e-02   1.7918066e-01   1.3834827e-01   5.8774536e-01  -5.1200498e-01  -4.1521077e-01   1.9137797e-01   3.0766734e-01  -1.3275341e-01  -7.7768952e-01   2.1130609e-01  -5.3190283e-01   2.1382894e-01   3.4096846e-01  -5.2627242e-01   1.5703901e-01  -1.3640496e-01  -9.0237129e-02  -7.9711940e-01  -7.7475000e-01  -2.9011530e-02   1.3857771e-01  -1.2672210e-01  -7.4142439e-01  -8.3520721e-01   4.5299779e-01   9.0996979e-01  -8.5924713e-01  -1.6913070e-01  -1.7011270e-01   3.4274901e-01  -1.5506601e-01  -8.0239307e-01   4.6069468e-01  -8.7135044e-01   6.6001341e-01   7.4377231e-01   7.4492816e-01  -6.9747295e-01   7.3092158e-01  -8.6434794e-01  -1.1832781e-01  -4.1273018e-01   8.7197140e-01  -9.9573868e-01  -6.0770291e-02   7.6633144e-01   7.7224256e-01  -6.6943854e-02  -3.3940408e-01  -8.0448024e-03   4.4813195e-01  -4.6141586e-03   4.2585610e-01   9.9687635e-01   9.2178005e-01   6.0629540e-01  -6.8923567e-01  -8.8622634e-01   7.3562571e-01  -6.6543964e-01  -1.1369347e-01   2.0361613e-01  -9.9410605e-01  -1.5919106e-01  -8.2252101e-01  -3.0886708e-01   6.7137958e-01   2.9719493e-01  -4.3528118e-01  -4.9717556e-01  -7.7858194e-01  -5.2387554e-01  -2.7020637e-01  -8.1761134e-02   7.0388722e-01  -3.1173711e-01  -6.1808499e-01   7.2452071e-01   9.1310002e-01  -6.1109919e-01   2.3753050e-01  -9.9911832e-01  -9.2862982e-01   7.8461995e-01   3.8684665e-01  -6.5591073e-01  -5.3364401e-01   2.6779528e-01   5.2490188e-01  -6.5857596e-01  -1.0118441e-01  -4.8362717e-01  -3.6647629e-01  -5.8964889e-01  -5.1762495e-01  -7.6515013e-01   2.5404339e-01   6.2141025e-01   3.8305645e-01  -2.1428532e-01   2.8813924e-02  -2.1544409e-01  -2.2648080e-02  -5.1472678e-01  -2.2031047e-02   6.3890821e-01   3.4225223e-01   9.2923940e-01  -6.3283128e-01  -1.5223227e-01   3.7609843e-01   6.7414624e-01  -4.9004383e-01  -5.6964990e-01  -9.2782090e-01  -4.7932024e-01  -1.0606938e-02  -4.3965166e-01   2.7896948e-01  -9.3191547e-01  -1.6866998e-01   3.1659350e-02   1.5780818e-01  -8.4033912e-02  -8.6043925e-01   5.5694134e-01  -9.4714844e-01  -4.5100120e-02  -1.7490401e-01   1.6455924e-01   8.0255592e-01  -2.4836737e-01   8.1084179e-01  -4.5824873e-01   5.0585617e-01   9.6425902e-01   1.4758195e-01   8.6201396e-01  -5.9950914e-01  -8.3866290e-04   3.9521559e-01  -6.8824891e-01   8.0077331e-01   3.5877610e-01  -5.2657671e-01  -3.3764201e-01  -6.1060129e-01   9.4035013e-01  -8.6901656e-01  -2.3088035e-01  -6.2299049e-01   7.4109178e-01  -6.5708411e-01  -5.7733806e-01   7.4011229e-01  -7.3531654e-01  -1.5047989e-01  -2.7938125e-01  -3.8376705e-01  -1.9785699e-01   4.1341742e-01   8.5492417e-01   2.7311557e-01  -4.9227886e-01  -5.3808858e-01  -1.8701768e-01  -8.6142505e-02   3.4813192e-01   6.8516410e-01   7.4979393e-01  -4.8121529e-01   5.8728324e-01  -6.8983722e-01   6.0485258e-01  -9.1486324e-01   1.4490539e-01   7.2266179e-01   3.8537547e-01   6.8114040e-01  -1.2152431e-01  -2.1424007e-01   5.0540234e-01  -9.9189869e-01  -9.8400070e-03   2.8099877e-01   1.7340665e-01  -8.6846557e-01   5.0823309e-01  -2.1375945e-01  -6.8173170e-01  -5.1227688e-01  -4.9469393e-01   6.4019010e-01   4.9619531e-01   9.7560871e-01   8.9560166e-01  -8.7310215e-01   4.1962465e-01  -8.9322897e-01  -8.5173156e-01  -3.0606834e-01  -9.5968896e-01  -6.1927023e-01  -2.1436308e-01  -7.0438037e-01  -5.4219334e-01   8.2268611e-01   7.7564336e-01  -8.9984202e-01  -9.1418311e-01  -4.4718019e-01  -7.3988058e-01  -9.3830543e-02  -7.6396312e-01  -8.2607645e-01   9.1407955e-01  -7.7754850e-01   4.1130061e-01   1.8718227e-01   1.7937259e-01  -4.7078113e-01   1.5084569e-01  -9.2564068e-01  -9.7834951e-01  -2.1460778e-01   4.3524080e-01  -4.3369807e-02   1.3157863e-03   9.5394064e-01  -6.5529848e-01  -1.9989040e-01   6.3258358e-01   2.9952928e-01   5.8061194e-01  -5.5776417e-01   5.6501235e-01   9.7847881e-01   9.2119274e-01  -1.7588611e-01  -1.3287763e-01  -1.0786869e-01   2.3709121e-01  -1.8326242e-01   7.8432337e-01  -1.8855098e-01   4.8596889e-01  -1.8981274e-01   8.7298957e-01  -3.2066573e-01   3.9748948e-01   4.7733954e-01   8.1975534e-02   3.5648349e-01  -5.8775631e-01  -1.6918349e-01   7.8759938e-01  -3.3602768e-01  -8.9748551e-01   4.2099911e-01  -2.6941339e-01   8.2097146e-02   2.5185448e-01  -5.4677839e-02   3.0679931e-02   2.5038402e-01   8.6518946e-01   6.5064505e-01  -6.5997028e-01   5.9272403e-01   4.1799747e-01   1.6891662e-01  -6.7482681e-02   6.9027897e-01  -3.7121531e-01  -2.8377941e-01  -5.7792026e-02   1.7104242e-01  -4.8875985e-01  -2.1577096e-01   7.1312252e-01  -4.1664235e-01   4.5934087e-02   6.0731854e-01  -3.1964583e-01  -5.6156483e-01  -7.5295568e-01  -5.7767794e-01   9.1913822e-01   3.9740101e-01  -8.0560499e-01  -3.3823945e-01   1.2730985e-01  -1.0038337e-01   3.0335724e-01   6.6196054e-01  -1.6125011e-01  -1.1904893e-01   1.8985736e-01   7.3696527e-01   5.3115489e-01  -7.0044674e-01   9.9515464e-01   7.5345717e-01   4.7241848e-01   1.1133639e-01   6.8736557e-01   2.1334500e-01   5.8481572e-01   2.8047543e-01  -9.7413319e-01  -8.0901208e-01  -6.4400535e-01  -4.0923377e-01   8.4521521e-01   1.2402669e-01  -3.6769700e-01  -3.7831989e-01  -5.7194896e-01  -5.1917016e-01  -3.0243301e-01  -9.9649517e-01  -9.0285373e-01   2.9096145e-02   2.1056044e-02   5.5772017e-01  -1.2663178e-01  -8.9852191e-01   5.5729722e-01   5.3689859e-01  -2.1790657e-01  -1.3388021e-01  -1.2750023e-01  -4.5625743e-01   9.9119232e-01  -1.8866053e-01  -3.2104346e-01  -5.7659752e-01   1.5338331e-01  -7.8705853e-02  -1.6300566e-02  -7.9208591e-01  -9.1264328e-01  -9.4563313e-01   2.1231857e-01  -4.8545905e-01  -4.3217945e-01   3.7248868e-03   2.5350585e-01   8.0905666e-01  -4.2006286e-01  -9.7770234e-01  -8.7315123e-02   7.1486356e-01   3.4852163e-01  -2.1852461e-01   6.4951214e-01   6.2260589e-01  -8.5601200e-01   6.7607122e-01  -4.5682902e-02   8.0696858e-01   6.7067208e-01   3.7470955e-01   3.8886135e-01  -3.7544959e-01   8.4309075e-01  -4.5085539e-01  -3.3232572e-01   7.7888960e-02   2.6921153e-01   8.8572004e-01  -4.9617284e-03  -7.3764579e-01  -7.0839263e-02   7.6017473e-01  -1.5708709e-01  -5.2425789e-01  -4.7021762e-01  -2.1363774e-02   5.0005699e-01  -5.8118502e-01  -4.1044143e-01  -2.1537131e-01   4.1950876e-01  -7.6209353e-01   8.4615136e-01  -8.1065032e-01   2.2261919e-01   9.8105758e-01  -2.9666676e-01   8.3205783e-01  -5.3111275e-01   6.1475382e-01  -8.6701756e-01   7.5543727e-01   4.3305073e-01  -6.5875718e-01   3.5147078e-01  -9.0300384e-01   4.8592508e-01   7.8706503e-01   3.9075973e-01   9.1665825e-01   3.1535451e-01  -3.9998020e-01   4.1422107e-01   9.6446607e-01  -1.1662367e-01  -7.7415561e-01  -8.3456343e-01  -1.3973353e-01  -2.5362684e-02  -6.1265814e-02   7.6423609e-02  -8.0315284e-01   1.7346269e-01   9.5669493e-01  -5.1165816e-01  -1.1907367e-01  -7.3759227e-01   5.1004585e-01   7.7610330e-01  -2.0279010e-01  -3.3374479e-01  -9.2306630e-02   2.8252547e-01   8.3894372e-01  -4.3380559e-01  -2.9653385e-01   3.6545304e-01   1.2296598e-01  -3.2974707e-01  -8.8021209e-01   1.2527317e-01   1.5031744e-02   9.9524467e-01   2.9829146e-01   5.5926863e-01  -1.4290246e-01   9.4775879e-01  -2.5490518e-01   6.6217429e-01  -1.1070977e-02  -1.9558651e-01  -6.2384599e-01   5.6271900e-01  -8.7795252e-01   4.5647009e-01  -7.7168928e-02   5.7888146e-01  -6.4437247e-01  -7.0833517e-01   3.4148383e-01   7.4918954e-01  -4.4747363e-01  -3.8430042e-01   4.4615786e-01   1.5420505e-01   7.6528507e-01  -7.2803206e-01  -1.6626725e-01  -7.5480431e-01   4.9975683e-01   5.1879329e-02  -5.7926753e-01   4.0853639e-01  -7.5300467e-01  -9.4161149e-01  -2.9619760e-01  -6.0403908e-01  -6.8583849e-01  -7.4258979e-01  -9.2079377e-01   6.1144896e-01   7.7345953e-01   9.2947756e-01   5.9854265e-01  -1.0546387e-01   3.9628763e-01  -5.5992495e-01  -3.3916983e-01  -8.1639769e-02   4.0622403e-01   1.7837424e-01   7.5793290e-01  -7.7754332e-01   6.3747753e-01   1.9985678e-01   1.2932639e-01   6.2469346e-01  -2.9007611e-01   3.5306503e-01   8.8826424e-01   4.4092597e-01   8.3652292e-01   1.1563640e-01   3.8872372e-01   6.5514602e-01  -5.7884572e-01   9.7464786e-01   3.7379894e-01   3.0272222e-01  -7.9936433e-01  -4.8234370e-01   6.3477741e-03  -8.7854272e-01   6.9341982e-01  -1.7250713e-01  -2.1566608e-02  -3.7138436e-01   2.2425533e-01   8.2290154e-01  -2.4289725e-01  -5.4308957e-02  -5.1895627e-01   1.0108327e-01  -3.0243444e-02  -2.6404837e-01  -7.3358844e-01  -4.6528099e-01  -9.8756192e-02  -2.5703361e-01  -3.5521482e-01  -9.8309800e-04  -5.9836971e-01   4.1200624e-01  -2.1706804e-02  -4.1003196e-01   2.8858595e-01  -3.0963752e-01   8.5489007e-01  -7.9090591e-01   9.2300041e-01   1.0431282e-01  -2.4316676e-01   1.0934511e-01   2.8958732e-02   4.8239371e-01   7.8201484e-01  -4.1009372e-02  -2.2122426e-01  -9.1328474e-01   9.7388795e-01   9.5606603e-01  -6.2812233e-01   8.6470623e-01  -8.7280352e-01   4.4150259e-02   7.8702990e-01  -4.2683515e-01  -5.1837561e-01  -6.5535082e-01   6.9368232e-01  -7.7717669e-01   1.7559252e-01   7.0591843e-01   2.2160401e-02   9.4933712e-01   2.1399770e-01  -9.3487860e-01   8.8474449e-01   4.8231574e-01   4.7872629e-01   9.2764199e-01  -8.1595196e-01  -5.5917206e-01   1.8808532e-01  -8.4962898e-02   1.8199626e-01  -9.4236481e-01   2.7651616e-01  -5.0508920e-01  -2.6447100e-02  -5.6022504e-02   6.7280259e-01  -6.7716674e-01  -1.9872625e-03  -1.7126129e-01  -2.5064863e-01  -4.3752232e-01   1.5993458e-01   7.9545836e-01   4.8678197e-01   4.1625241e-01  -8.3475305e-01   9.0714640e-01  -8.2679835e-02  -4.7863336e-01  -9.3791176e-02  -3.0951019e-02  -2.5990168e-01  -2.8792512e-02   2.1211053e-01  -5.7528638e-01   4.7988564e-01  -1.9079563e-01   5.1255729e-01   7.6249125e-01   7.3031328e-01  -4.8280945e-01  -6.7963526e-01  -2.2981525e-01   6.6925682e-01   6.6680905e-01  -9.3922129e-01   4.4333642e-01   9.9230989e-01  -5.9352929e-01   5.3656730e-01  -9.2998211e-02  -6.3315024e-01   3.9772906e-01   6.4616727e-01   3.1197964e-01  -5.9791003e-02   3.4031501e-02   2.7040468e-01   1.4652109e-01   4.7723933e-01  -7.3445331e-01  -1.2971990e-02   4.2230021e-01  -7.2090699e-01   5.5512519e-01   9.3906834e-01  -8.4055929e-01  -2.3908053e-01  -1.9320536e-01   6.8550385e-01  -8.1064737e-01  -5.4048594e-01  -5.4054879e-01  -3.1102736e-01  -5.2118804e-01   3.8580734e-01  -4.7780293e-01  -3.3774148e-01   1.9272827e-01  -3.6820320e-01   6.6113531e-01  -1.4320922e-01  -9.9987346e-01  -6.8154440e-01   5.2259107e-01   2.9038073e-01  -6.7296385e-01  -6.8169869e-01   7.2398704e-01  -5.9494515e-01   1.4318984e-01   9.8348244e-01   4.1290668e-01  -4.9421232e-01   9.4932967e-01  -9.6074363e-01   9.1621310e-01  -3.1974237e-01  -6.8588968e-01  -3.8054779e-02  -9.3180425e-01  -2.1756142e-01  -6.4749194e-01  -3.8820844e-01   8.4969220e-01  -6.2951489e-01  -4.4354533e-01   2.9591720e-01   5.9711062e-01  -5.0764293e-01  -5.5568177e-01  -8.6012455e-01   4.5973370e-01  -3.0147616e-01  -7.4361546e-01   2.0366226e-01   9.2753957e-01   8.7564224e-01   4.2387625e-01   6.6059324e-01  -2.5716683e-01   1.1971503e-01   4.8052930e-01   6.8937545e-02   5.4178679e-01   5.0632873e-01  -2.3712945e-01  -1.9825086e-01  -3.5810405e-01  -2.7904874e-01  -3.8431950e-01   6.3201151e-01  -3.5153974e-01  -4.5073265e-01  -3.9066633e-01   7.3777060e-02  -2.2680816e-01  -4.3144304e-01   1.2485970e-01   9.5306016e-02  -6.1137040e-01   8.6137849e-01  -4.3095478e-01  -3.6269691e-01  -1.1609655e-01   2.4767236e-01  -7.9519810e-01  -2.6292904e-02   1.5567980e-01  -2.7788752e-01  -9.6106237e-02  -5.8645385e-01   9.4837586e-01   5.0107117e-02  -2.4480825e-01  -1.2661779e-01   2.0653251e-01   9.5950175e-01   7.4521461e-01  -3.7088112e-01   8.0840679e-01  -4.6495118e-01   6.2457015e-01  -6.2219240e-01  -5.3607228e-03   3.7619712e-02   2.9522988e-01  -7.7645143e-01  -9.5375922e-01  -4.2951210e-01   2.0677713e-01   5.5691523e-01  -7.5526543e-01  -2.8036485e-01  -9.0565201e-01   7.8354222e-01  -9.7459457e-02  -6.9833430e-01   9.9531352e-01   5.5048913e-01   7.9576542e-01   8.2225893e-01  -6.9037599e-01   3.2201228e-01  -4.7399894e-01   9.4276215e-01  -2.3232010e-01   2.6839359e-01  -6.2411341e-01  -6.0069374e-01   5.5968421e-01  -7.0381996e-02  -4.8127396e-03  -1.7408526e-01   1.4875583e-01  -8.7788758e-01   2.4505448e-01   9.0263731e-01   9.8894060e-01   5.1209414e-01  -7.1889335e-01   8.5484709e-01  -4.5476835e-01  -8.0254801e-01  -2.6551099e-01   6.4755201e-01
   4.1456331e-01   9.0903415e-01  -2.8227772e-02   6.6733819e-02   9.8653289e-01  -2.4926077e-01  -2.0964635e-01  -3.2683474e-01  -1.6390110e-01   8.3750768e-01  -8.8217140e-01   4.7354271e-02   9.1095328e-01   5.3864851e-01   4.7914670e-01   1.3142539e-01  -4.6727336e-01  -6.7377083e-01  -3.8345354e-02   8.8264836e-01  -2.7333544e-01  -6.5207246e-01  -6.1435644e-01   7.7483876e-01  -4.4086576e-01  -5.4862941e-01   5.4027395e-01  -6.8799199e-01   5.5343908e-01   3.5314671e-01  -7.2379180e-01  -4.8985128e-01  -9.1084868e-01  -5.5511380e-01   8.5575480e-02   1.8333086e-01   2.0066915e-02  -8.5731666e-01   4.2167318e-01   1.5984362e-01  -2.7015049e-01   1.0469813e-01  -1.6507268e-01  -4.7484265e-01  -1.5978801e-01  -3.5424224e-01  -6.1897598e-01  -2.1930411e-01   8.0270634e-01  -1.8892226e-01   1.5985721e-01   7.7484443e-02  -9.4779905e-01   7.4494347e-01   4.5211442e-01  -4.3570226e-02   5.5157546e-01  -1.8347784e-01  -3.0115319e-02   5.7576207e-01  -9.6952607e-01   2.1069121e-01   2.5677450e-01  -4.3486381e-01   7.2807998e-01   5.5805867e-01   5.5556436e-01   3.0895017e-01   8.1983891e-01   5.9264942e-02  -8.7703768e-01   8.2095569e-01  -1.8395427e-01  -9.5211275e-01   5.3940788e-01  -2.2037232e-01  -7.0442001e-01   6.0227712e-02   9.7416110e-01   4.1559916e-01   6.2202745e-01   8.6596714e-02   8.3282714e-01  -5.7148548e-01  -1.4522755e-01  -9.0623356e-01   2.6857965e-01   8.5945702e-01  -5.0108857e-01  -8.7258592e-01   2.9207569e-01   3.4187355e-02  -9.1911678e-01   7.9387636e-01   9.7939211e-01  -1.0563688e-01   7.2272071e-01  -1.7880917e-01  -7.7254573e-01  -4.3925174e-01  -2.1196396e-01  -3.5285839e-01   9.1738422e-01  -1.3892621e-01   8.4408527e-01  -7.4194532e-01   6.1113553e-01   9.0919203e-01  -7.4246864e-01  -3.4879598e-01   7.4198655e-01  -3.8799084e-01   3.3449802e-01  -8.9454843e-01   2.7672409e-01   5.5950506e-01   3.6024916e-01  -2.7994271e-01  -1.7579984e-01   4.9541789e-01   5.5752432e-01  -4.9245198e-01  -8.1357092e-01   6.4292697e-01  -8.5503638e-01  -7.9720175e-01  -9.0914703e-01   5.2819853e-01   6.7012819e-01   5.6963284e-01   9.7609110e-01  -4.3854695e-01   2.0406565e-01  -5.7645344e-01  -4.8538576e-01   4.2412481e-01  -6.3118538e-01  -9.7521873e-01  -1.6301314e-01  -5.6122829e-01  -5.7756349e-01   7.3886577e-01   7.6613107e-01  -9.6173335e-01   9.8831298e-01   8.3663678e-01   2.0592022e-01   4.9255968e-01  -2.2613046e-01   8.2526846e-01   8.6348956e-01  -9.2298420e-01  -7.0215083e-01   2.3298596e-01  -1.3285935e-02  -4.8726066e-01   7.4416232e-01  -2.0543068e-02   8.8329794e-01   4.8293129e-01  -6.3031368e-01  -7.4030567e-01  -4.6803439e-01   8.7205526e-02  -5.1499151e-01  -3.9038359e-01   2.6993702e-02   9.5835967e-01   6.3042514e-01  -4.1198908e-01   3.6686858e-01  -3.7715933e-01  -5.8312915e-01  -3.0630674e-01  -7.3625581e-01  -8.9441910e-01  -5.7865207e-01  -3.0967216e-01  -6.5998107e-01  -6.2591224e-02  -9.6136206e-01  -9.2439468e-01  -5.2183436e-01   1.3693290e-01   6.6105041e-01  -2.6942199e-01  -2.5658009e-01  -5.0264671e-01   1.2002179e-01  -4.0797431e-01  -4.4021482e-01   4.1862096e-01   7.6484426e-01  -6.3556357e-01  -4.3082310e-01   7.8511306e-01   4.7818534e-01   9.0065536e-01  -4.0444231e-01  -4.0525504e-01  -9.3396810e-01   6.3117012e-01  -3.9074918e-01   3.9057371e-02  -7.8714443e-01  -6.5271454e-01  -5.2966798e-01  -8.9434120e-02   9.6880312e-01  -1.9172227e-01   5.0479662e-01  -8.2112134e-01   3.0629780e-01  -1.6010740e-01   9.2469689e-01  -9.3272715e-01   8.1968922e-01  -6.1181426e-01  -5.1117392e-02  -7.0507975e-01  -5.3138273e-01  -2.5999771e-01   6.3507669e-01   4.8344805e-01   6.8604078e-01   6.6125305e-01  -2.5018303e-01  -9.5855959e-01  -7.5418067e-01  -7.6751945e-01  -6.7851459e-01  -1.2594766e-02   8.0737833e-01  -7.1471753e-01   2.0726468e-01  -4.3478386e-01   9.7397200e-01  -8.4017161e-01  -2.9819391e-01   8.1005810e-01   5.4883900e-01   3.4274907e-01   6.0563710e-01  -1.6810371e-01  -1.3252343e-01   4.3022078e-01   9.0337499e-01   7.2061969e-02  -2.1725993e-02  -9.2030262e-01   2.8152774e-01  -9.1166959e-01  -2.8817964e-02   7.2824331e-01   7.6126458e-02  -4.1860813e-02   4.3758221e-01  -6.9409701e-01   3.6870177e-02  -2.4392626e-01  -4.1040047e-01   7.4084708e-01  -9.1291797e-01   4.4697413e-01   3.3070946e-01  -8.4477788e-01   6.6976350e-01   6.0704357e-01   5.2576839e-01  -4.9623157e-01   7.1691455e-01  -7.6042700e-01   8.5230239e-01   5.0094852e-01  -1.6453777e-01   5.4574994e-01   9.0597138e-01   8.1428089e-01   6.2485104e-01   1.1239771e-01  -5.0856355e-01   7.8979858e-01  -2.9489277e-01  -8.1001330e-01  -3.1750729e-01  -1.5526013e-01   5.8764300e-01  -1.7548838e-01  -6.3659226e-01  -1.2678888e-01   8.1698820e-01   6.1675259e-01   2.9897550e-01  -3.6197331e-01  -7.0864595e-01  -6.5029904e-01   2.2093862e-01  -4.6194312e-01   9.0147494e-01  -7.7947351e-01   1.0884357e-01   7.2268757e-01   4.4406574e-02   1.2925749e-01  -5.8207983e-01   6.2528858e-01   4.3435813e-01   8.1668613e-01   6.1981210e-01   8.9465716e-01  -4.0428003e-01   5.5632735e-01  -7.4883183e-01   2.5983496e-01   8.2621695e-01  -9.7540177e-01  -1.8386111e-01   2.1159946e-01  -1.3946619e-02  -3.3611340e-01  -8.5064954e-01  -3.4781349e-01  -6.3583206e-01   3.0619621e-01  -3.5159182e-01   7.9570349e-01  -2.4155449e-01   2.0632222e-01  -1.5918396e-01  -9.8674797e-01  -1.1435564e-01  -4.3636237e-02  -5.4297340e-01   4.1669488e-01  -5.6007506e-01  -4.9600465e-01  -7.7571271e-01  -4.9021151e-01   7.7114778e-01  -7.0868410e-01   7.7622698e-01  -9.4663236e-01  -6.8005612e-01  -6.0440088e-01   1.2102972e-01   2.8397428e-01   5.6385013e-01  -8.0281744e-01   2.8248823e-01   6.4378445e-02  -7.4736586e-01   9.6367295e-01   1.3048871e-01   7.2379873e-01  -9.8371661e-01  -1.3988718e-01   4.4333704e-01  -8.5249702e-01   2.3352033e-02  -9.7479821e-01  -8.7881767e-01  -3.2550352e-01   1.7849597e-01   5.3646006e-01   7.5870427e-01  -3.2194755e-02   7.0194150e-01  -4.1407773e-01   8.4160302e-01  -2.8911590e-01   2.3439739e-01   4.6805050e-01   3.8914342e-01   7.2203027e-02   5.8290448e-01  -6.7260633e-01   9.1491362e-01   6.1239432e-02   8.3576390e-01  -4.2980108e-01  -6.6282219e-01  -9.9984959e-01   5.9007884e-01  -6.4229451e-01   2.6498724e-01   5.1571437e-01  -8.0126975e-01   8.4729187e-01   6.1422341e-01   1.3874276e-01   7.5287457e-01   9.6553804e-01   1.1531349e-01   2.6370703e-01  -8.5161883e-01  -8.4130412e-01   9.1678592e-01  -2.5080714e-01  -6.2431439e-01   7.0108340e-01   5.6258923e-02  -6.7058299e-01   8.6796929e-01   2.3857287e-02  -4.6888625e-02   8.5778299e-01   9.3151633e-01   7.7375010e-01  -2.8037370e-01  -5.5931725e-01   5.1422462e-01   7.1312501e-01  -4.9380436e-01   9.2617013e-01  -4.7390211e-01   8.9399908e-02   3.9981356e-01   4.8336850e-01   6.6668991e-01   6.9920934e-01  -1.3116056e-02   9.8697697e-01   7.8180349e-01  -3.0658206e-01  -2.6530777e-01  -3.7866137e-01   4.1175799e-01  -9.5807329e-01  -2.7877615e-01  -7.4826537e-02  -6.9519542e-01  -2.3374925e-01   5.8492668e-01   6.0527249e-01   7.8357687e-02   3.6621657e-01  -1.3054832e-01   5.1073288e-01  -8.6784289e-01   2.2064231e-02  -1.7009037e-01   3.5457411e-01   6.9468248e-01  -5.3254234e-01  -3.4619708e-03  -3.1637942e-01  -7.7489704e-01   1.3967869e-02   4.5360524e-01  -7.5860607e-01   2.1617615e-01   7.2019051e-01   6.7442897e-02  -8.3549955e-01   9.4833441e-01   1.6459531e-01  -2.3307179e-01  -9.4260010e-01   3.9050168e-01  -9.2794951e-01   2.1062161e-02   2.4591780e-01  -7.0758427e-01   3.7199344e-01   3.4226151e-01   2.4956763e-01  -9.2443968e-01  -5.5000173e-01  -6.1521136e-01  -3.7964902e-01  -8.9656975e-01  -8.4530626e-01   7.5786199e-02   3.4144378e-01  -1.4706451e-01   8.0026727e-01  -2.6478542e-03  -3.0799544e-01   7.9850586e-01   2.7377290e-01  -4.4258883e-01  -1.6532193e-01  -2.4135913e-01   5.2562006e-01  -7.2676670e-01  -8.5958664e-01  -8.0120033e-01   1.9715780e-01   4.4734177e-01   8.2075402e-01  -1.1532344e-01  -3.4496079e-01  -5.2847337e-01  -1.7267680e-01   6.8482431e-01  -2.6615250e-01  -8.1069446e-01   6.0391675e-01  -2.5931516e-01  -3.2433179e-01   4.8775992e-01  -9.4033147e-01   6.7768887e-01   1.4628855e-01  -6.3211849e-01  -9.9799598e-01   2.9264933e-01  -7.5333191e-01  -5.8287651e-01  -4.8119846e-01  -1.7880854e-01  -4.9837195e-01  -8.6504983e-01   5.6199903e-01   6.7950315e-01   4.7246630e-01   3.8747399e-01  -1.8678732e-01   9.7730161e-01  -8.2076017e-01  -8.6776335e-01   8.5584419e-01   4.4421469e-01   7.2676221e-01   3.7287975e-01  -1.8138438e-01  -6.6100408e-01  -9.0932026e-02  -8.4588776e-01   4.8670077e-01   8.7524937e-01   9.7349573e-01   2.2969978e-01   5.3917270e-02  -6.6195471e-01   3.7907217e-02   6.2389095e-01   8.1842578e-01  -5.0775630e-01  -3.2960795e-01  -7.2517665e-01  -6.0676983e-01  -2.6722177e-01  -8.2277908e-01  -3.7291186e-01   2.0983952e-01  -7.2195954e-01  -4.6240148e-02  -2.1320055e-02   3.0438395e-01   1.8437806e-01   5.8473236e-01  -7.2884429e-01   1.4096178e-02   7.2252448e-01  -4.4318736e-01  -7.3383299e-01   1.7847418e-01   5.6639301e-01   5.4234561e-01  -2.0058583e-01  -4.5748096e-01   2.9662918e-01  -2.2307734e-02   3.0469729e-01   6.5156322e-01  -6.8567097e-01  -1.0171778e-02   8.0477103e-01   6.2849162e-02   3.4279590e-01  -4.2210822e-01  -4.2444858e-01  -4.3632725e-01   2.7425811e-01   3.0455716e-01  -5.9146964e-01   4.8698312e-02  -3.4412224e-01   3.3420549e-01  -9.3829575e-01  -1.6995150e-01  -5.8252443e-01  -7.1400650e-01   7.5671372e-01   9.0365810e-01   2.9143914e-01  -1.4922088e-01   3.3132400e-01  -8.5066297e-01   5.7338769e-01  -1.5994568e-01   1.1562149e-01  -5.0365294e-01  -9.7529219e-01   5.4025984e-02  -1.3824489e-01  -6.9881259e-01  -3.5473011e-01  -5.8923632e-01   7.0735809e-01   2.6569624e-01  -6.8679857e-01   6.0385687e-01   2.4820066e-01   5.0244318e-01  -8.6445714e-02  -4.4690310e-01   4.1672050e-01   4.2318474e-02   6.1485218e-02   8.4630184e-01   8.6184805e-01   4.3490673e-01  -7.5376533e-01   1.1351587e-01   5.5075107e-01   7.0660491e-01  -5.1896749e-01   1.9691376e-01  -2.1937240e-01  -1.2222969e-01   8.4780279e-01   2.6443986e-01  -6.9565869e-01   1.0280803e-01   8.3758437e-01  -1.4222668e-01  -8.8308717e-01   9.7465964e-01   8.7092181e-01  -9.6314195e-01   5.9770568e-01  -8.2998142e-01  -3.8668251e-01  -6.2856780e-01  -8.5504879e-01  -1.8031460e-01   2.0055775e-01  -4.7213467e-01   7.4403699e-02  -7.6817838e-01   4.4958766e-01   8.7805743e-01   4.4117381e-01  -2.7216752e-01  -5.2211941e-01   8.3987258e-01  -6.9468112e-01   1.9920395e-01  -8.0708385e-01   7.3428341e-01   4.9606588e-01  -4.5986432e-01  -3.1933937e-01   9.4788591e-01   4.6005675e-01  -8.0647889e-01  -7.3413515e-01  -5.6407676e-01  -2.2666427e-01   4.2720135e-01  -6.2022924e-01  -8.7229845e-01  -3.4731137e-01  -6.6867946e-01  -6.1408768e-01  -8.6465526e-01   1.3267961e-01  -1.2902111e-01  -9.7141538e-01   5.8480407e-01   9.7912669e-01   4.2351484e-03   3.1009810e-01  -5.1705229e-01   3.1513838e-02   2.7620643e-01   6.6987497e-01  -4.3062383e-01  -1.2132044e-02  -7.9307926e-01   4.3796513e-01  -2.1837418e-01  -8.4384570e-01  -4.0750235e-01   6.7681711e-01  -6.8913160e-01   4.9594765e-01   8.8401324e-01  -1.0844569e-01  -1.1975232e-01  -2.8976364e-01  -1.8250880e-01   9.0469503e-03  -4.3827543e-01   3.2762308e-01  -4.5872569e-01  -5.7083787e-01  -7.5928945e-01   2.5233608e-01   2.1943416e-01   4.6343133e-01   9.0328390e-01  -1.1664745e-01   4.1313769e-01  -8.2032539e-01   2.9910599e-02   5.3168680e-02   7.1631664e-01  -9.5096720e-01   3.3153178e-01   5.4241668e-01   2.2012514e-02  -9.8287224e-01   4.2124658e-01   7.4292912e-01  -2.7812252e-01   9.2267960e-01   3.7817348e-01   8.3851307e-01   2.7352937e-01  -1.9543236e-01  -8.4211432e-01   4.1508384e-01  -8.1725856e-01   4.0246381e-01  -6.6284305e-01  -9.1819487e-01   6.0640536e-01   2.3805094e-01   3.6540220e-01  -9.8021130e-01  -3.6854996e-01   6.7782936e-01   3.5591426e-01  -4.6974939e-01   1.8661469e-01   1.1907040e-01   5.4379570e-01  -5.2885149e-01   1.4465686e-01  -9.7116946e-01  -2.4990663e-01  -6.4453851e-01   5.6140928e-01  -7.9472000e-01  -7.5614087e-01  -9.5702409e-01   6.2153107e-02  -6.7857797e-01  -2.2943468e-02   3.0413844e-01   4.1469915e-01  -9.1734709e-01   1.2614207e-01  -7.1017542e-01   6.1121932e-01   4.2661178e-01  -7.1794453e-01  -5.0815565e-01  -7.0302188e-01  -5.4309974e-01  -2.2548056e-01  -3.5555014e-01   2.5508885e-01   6.6936238e-01  -1.4157274e-01  -2.6600417e-01  -4.7180597e-01   2.8399560e-01  -1.9607921e-01   3.3618885e-01   7.6317740e-01   5.8424078e-01   2.5389581e-01  -1.8620832e-03  -8.4396319e-01   6.5680447e-01   4.3333438e-01   5.1131534e-02   9.5934476e-01  -6.1828392e-01  -4.9927240e-01  -5.0526379e-01  -2.9954303e-01   1.0588290e-01   8.8454686e-01   3.2467600e-01  -4.3589421e-02   7.7634224e-01  -8.2204097e-01  -8.8058984e-01   5.1318233e-01  -9.5222472e-01  -4.5477891e-01   1.5811251e-01   9.8489708e-01   6.5801229e-01   2.1810057e-01   4.2941173e-01   4.8550220e-02  -9.2037920e-01  -9.1611692e-01   8.0304493e-01   1.3802537e-01  -5.4910937e-01  -1.4942334e-01   9.3547197e-01  -1.7405879e-01   2.6017887e-01   6.4955964e-02   3.6326838e-01   1.9878623e-01  -7.3414221e-02  -9.7922647e-01   1.3271183e-01   1.3410241e-01   1.7858533e-02  -9.8277795e-01  -9.3039600e-01   6.4700736e-01  -9.1415720e-02  -8.1796475e-01   1.1044374e-01  -9.7073193e-01   7.3274448e-03   4.4603028e-02   8.3290764e-01   9.9160195e-01   5.6214727e-01   7.5058750e-01  -6.4927881e-01  -6.2313335e-01  -5.9018223e-01  -5.5060074e-01   5.5651704e-01   6.0447002e-02   7.4935328e-01   1.5376192e-01   3.2993336e-01  -4.8357466e-01  -9.7555319e-01   2.0554546e-01  -9.8179845e-01  -7.3164472e-01  -7.1066352e-01   9.3751013e-01   2.2545606e-01  -8.5838679e-01  -2.6190260e-01  -9.1835695e-01  -2.7290265e-01  -2.5454124e-01   7.5314609e-01  -6.8799726e-01   2.8448737e-01   6.6237010e-01   5.1328616e-01   1.0992890e-01  -9.0393473e-01  -6.5379609e-01   3.0001342e-01   6.9620410e-01   8.5828540e-01   5.3007878e-01  -7.4425384e-01  -4.8558411e-01  -8.6570686e-01  -5.2544458e-01   5.1990677e-01  -8.6775118e-01  -4.0015741e-01   2.9515801e-02  -5.2300512e-01   2.5776583e-01  -9.0631200e-01   8.3007924e-01   4.8406083e-01  -6.5373460e-01   2.2146990e-01   3.0335538e-01  -1.8466629e-01  -5.5372337e-01   8.7093095e-01  -5.7857339e-01   2.1070483e-01  -3.0406022e-01   7.3123150e-01   4.8056806e-01   6.2414784e-01   2.9123193e-01   7.5561576e-01   4.3505465e-02   6.1001685e-01  -4.3927614e-01   1.1595633e-01  -2.4110991e-01   4.5842405e-01   4.7486611e-01   3.6652864e-01  -3.3034626e-01   3.8941676e-01  -2.1097200e-01   7.9266518e-01  -4.3122141e-02  -1.5227241e-01   6.7303895e-01   2.4467381e-02   6.5807655e-01   9.1810848e-01  -5.9607126e-01  -4.4898332e-01   6.0681067e-01  -6.0216496e-01   3.6054181e-01  -3.0311708e-01   2.9933798e-01   7.9241657e-01  -8.1927190e-01   4.6262364e-02   3.0013264e-01   8.0808653e-01   5.3787847e-01   3.2539285e-01  -4.1081597e-01  -4.4993812e-02  -3.8213360e-01  -9.6233794e-01   6.4460241e-01  -4.3357743e-03   9.1848340e-01   5.4101074e-01   5.6557186e-01   1.7351911e-01   8.7843324e-01  -7.4159206e-01   4.8844874e-01   7.5482047e-01  -5.2287672e-01   6.0306404e-02   7.9412801e-01  -7.0620348e-01  -8.9109385e-01  -4.9249508e-01  -6.0010938e-02  -4.0312685e-01   4.5426072e-01   6.1625622e-01   5.9726021e-01   7.2546851e-01   8.1172740e-01  -9.8973687e-01   7.4762208e-01  -3.9624940e-01   6.3187557e-01   1.7402767e-01   5.4803934e-01  -7.9000263e-01   1.0478800e-01  -1.0862303e-01   1.0816081e-02   5.6372099e-01  -3.3076473e-01  -6.3388453e-01   1.3707938e-01  -5.4062656e-01  -1.8171160e-01   4.2579785e-01   9.7764084e-01   5.5776197e-01  -5.8067715e-01  -4.7831016e-01   3.2538672e-01  -4.8139049e-02   6.4941841e-01  -6.9756398e-01  -4.2613567e-01   3.5314799e-02   3.1771637e-01  -7.2170971e-01   9.0978232e-01  -8.0112859e-01   6.8319500e-01   2.9219344e-01   8.8064819e-01  -9.5438051e-02   2.1714080e-01  -6.5899849e-01  -7.5285330e-01  -7.6334542e-01   4.0602458e-04   9.9382046e-02  -5.7169445e-02  -9.0746002e-03  -6.5146572e-01  -5.4971232e-01   7.5621437e-01  -8.6602659e-03  -5.6706329e-01
  -8.0270319e-02   2.0516789e-01  -7.8943992e-01   6.2481117e-01  -5.2062875e-01   8.5557512e-01  -6.4630028e-01   5.7065081e-01  -2.7251785e-01  -7.5626516e-01   4.9949074e-01  -1.2471085e-01   2.3229313e-01  -1.4362097e-01   7.9558105e-01   9.5181386e-01   2.9579461e-01  -9.0404936e-01  -4.7029287e-01  -3.0291463e-01  -1.1898545e-01  -8.6487190e-01  -3.2473591e-01   3.9679094e-01  -6.0994309e-01  -1.2436316e-01  -3.6008766e-01  -7.9851191e-02   9.4661647e-01  -5.7134270e-01   8.0268647e-01   1.5789027e-01   4.3854455e-01  -6.6187292e-01   9.4337867e-03  -9.5445216e-01  -9.7748629e-01  -6.5418931e-01  -7.9602534e-01   9.9918463e-01   1.7885863e-01   7.0470397e-01   6.3472602e-01   1.9687323e-01  -2.7554218e-01  -6.0995786e-01  -1.5647232e-01   3.8576427e-01   7.7037040e-01  -9.0135929e-01   7.1425359e-02  -1.7359821e-01  -1.2280888e-01  -8.9643418e-01  -5.2073612e-01   6.6751096e-01   9.6972213e-01  -1.7184678e-01  -1.9309300e-01   7.3736931e-01   7.0531235e-01  -6.0677866e-01  -4.4526319e-01   4.8198015e-01  -4.7635555e-01   7.7020316e-01  -1.9114146e-01  -4.9981116e-01  -6.5748862e-03  -1.5418890e-02   6.5165500e-01  -6.7901988e-01  -7.7495066e-01  -4.6883235e-01  -6.8442860e-01   2.8149416e-01  -2.7993174e-01   8.1603323e-01   7.1536076e-01  -4.5829666e-02   6.4170657e-01  -9.6198113e-01   3.4917718e-01   1.6715521e-02  -5.8731062e-01  -5.8692032e-01   7.4153755e-01   2.9445919e-01  -6.0919246e-01   7.4295382e-01   9.9618963e-01  -1.5196016e-01   8.0356204e-01  -5.1764121e-01   4.3369734e-03   5.1315898e-01  -3.2480579e-02   2.4878143e-01   6.6400925e-01   1.6796405e-01  -4.4434362e-01  -7.2479778e-01  -7.3977968e-02  -9.0173540e-01   2.9966592e-01   3.6368033e-01  -7.1192169e-01   7.2021531e-01   5.1174123e-01   7.4003463e-01  -6.0479300e-01   9.1959675e-01   2.6744958e-01  -3.9868312e-01  -9.5203467e-01  -9.9121578e-01  -1.4503200e-01   4.7984282e-01   7.5421927e-01   6.9729150e-01   5.0319662e-01  -6.4942635e-01   8.1424283e-01  -7.9594400e-02   7.0784134e-01  -4.4177288e-01   6.4211353e-01   2.6922585e-01   3.0482891e-01  -5.8100327e-04   9.2823945e-01  -8.5850647e-01  -8.8621418e-01  -6.6877242e-01   8.0232910e-01   1.0005317e-03   2.3332354e-01  -2.8708435e-01   4.2513610e-01  -8.3732586e-01  -8.3582072e-01  -8.3625307e-01  -2.3415170e-02   5.1774851e-01   7.7344536e-01  -3.2802405e-02  -2.4258147e-01  -6.3532818e-01  -8.5870974e-01   4.8618180e-01  -1.9030062e-01   7.2890140e-01  -2.2290970e-01  -9.7960019e-01  -9.6256258e-01   8.0145617e-01   7.3391586e-01  -5.5247254e-01   8.4205241e-01  -1.1008806e-01   5.2487644e-01   4.5348208e-01   2.3869605e-01   1.7011278e-02   8.2812754e-01  -9.7628580e-01  -6.5076576e-01  -3.3555511e-02  -4.5905430e-01  -6.2097917e-01  -9.5689600e-01  -4.6780299e-01  -3.6991608e-01  -5.8492902e-02   1.1902753e-01   8.1756091e-01   8.7297539e-01  -5.1801453e-01  -1.8022379e-01   9.3151146e-01   4.3646679e-01  -6.8557850e-01   7.1448641e-01  -4.5606805e-01  -4.2174616e-01   1.3178883e-01  -7.2530067e-01   1.8712513e-01   3.5894238e-01   9.3296727e-01   9.4179938e-01  -1.6354225e-02  -5.3212945e-01   2.3690846e-02  -4.2588838e-01   8.3177849e-01  -4.2334259e-01   5.0939149e-01   6.8236520e-02  -5.5234364e-01   1.9166628e-02  -3.8572542e-01  -7.0462258e-01  -9.3994264e-01  -3.9584698e-02   2.6969994e-01  -8.8925361e-01   1.2998208e-01   3.8941196e-03   2.2910896e-01   7.8795402e-01   4.7518264e-01  -1.5032389e-01  -5.2620684e-01   1.7053442e-01  -3.8592777e-01   9.3360174e-01  -1.3993416e-01   2.0622743e-01   8.4343430e-02  -7.9445536e-01  -4.8405515e-02   4.8088633e-01  -9.2875284e-01  -3.6285987e-02  -9.7480883e-01   8.4943235e-01  -8.4315403e-01   8.0329152e-01  -1.0715971e-01   4.6653144e-01   6.2178186e-01   2.0222017e-01  -1.1458227e-01   3.4238535e-01   6.6499834e-01  -6.7526068e-02  -8.4862699e-01  -6.8767081e-02  -7.0625316e-01  -3.3590574e-01   6.8517504e-01  -3.6753663e-01   5.7362801e-01  -8.7590364e-01  -6.8291532e-01  -3.6373470e-01  -5.2684806e-01  -6.6747402e-01  -3.8096376e-01  -4.0193684e-01   7.4037014e-01   1.1452309e-01  -1.5966113e-01   6.4972250e-01  -1.3603936e-01   5.6888853e-01   7.9374984e-01  -9.9710871e-01  -3.7758594e-01   3.3031721e-01   6.2144551e-01   5.9401629e-01  -4.8779742e-01  -7.2098635e-01   8.4611646e-01   4.6018143e-01   6.6030039e-01   3.6454297e-01   5.9893197e-02   6.5645490e-01   4.7503152e-01  -5.4658982e-01   3.7953036e-01  -4.8731080e-01  -4.9191756e-01  -8.3295241e-01   5.5939608e-01  -3.4160757e-01   5.7069643e-01  -9.9066704e-01  -6.1639024e-01  -9.6950390e-01   3.6573818e-01  -6.2726682e-01   6.5136958e-02   8.1081898e-01   9.3781830e-01   6.0564500e-01  -7.8616621e-01   7.6245361e-01  -6.6236496e-01   3.8734744e-01   1.4693600e-01  -3.8772926e-01  -6.8431069e-01  -4.9446404e-01  -7.8431026e-01   9.3464715e-01   4.0305225e-01  -9.3278732e-01   1.1711547e-02   8.6865149e-01  -1.4393953e-02  -8.3134584e-01   2.4494831e-01  -6.1753514e-01   1.8549605e-01   5.9146643e-01  -3.4261805e-01  -6.1787909e-01   5.2698798e-01  -8.2537223e-01   5.9025176e-01  -3.7326014e-01   4.3028648e-01  -9.9911033e-03   6.7639956e-01   2.6535297e-01  -1.5941543e-01   1.3457310e-01  -5.3500165e-01   7.2257697e-01  -7.8039564e-01  -6.0974071e-01  -3.6545630e-01  -3.7674175e-01   9.8852595e-01  -4.8692386e-01  -7.3450228e-01   4.7624588e-01  -3.6454369e-01  -6.4311499e-02  -9.0661786e-01   3.9165618e-01   3.7836701e-01   9.3871156e-01  -1.4416768e-01   8.7872279e-01  -1.2600980e-01  -5.0382227e-01  -6.4430994e-01   6.0727720e-01  -2.6711519e-02   4.6923105e-02   1.7038633e-01   1.9544603e-02   3.4715663e-01  -2.4553484e-02   4.0748688e-01  -5.8768138e-01   7.8160223e-01  -7.8331200e-01   7.0759709e-01   4.3772426e-01   7.4665641e-01  -8.1695911e-01   2.9095221e-01   1.2762785e-01  -8.6505120e-03  -9.6808976e-01   5.6233868e-01  -5.0722532e-01   4.2934206e-01   7.0285761e-03   7.2469960e-01   3.5205113e-01  -6.7397915e-01  -5.1877047e-01  -6.2555831e-01  -3.1538009e-01  -7.7405601e-01   8.2376869e-01  -1.9569221e-02   9.7443148e-01   7.9210364e-01   6.5627797e-01   2.8482159e-01  -9.2556124e-02   3.8085542e-01   9.2865402e-01   4.3887428e-01  -9.8072716e-01   8.2493241e-01   2.2878456e-01   1.4059507e-01  -6.0111210e-01  -3.5393074e-01  -8.5313758e-01  -8.5886603e-01  -2.4347997e-01  -8.0255328e-01   8.3134106e-01   5.9047876e-01   4.7519899e-01   1.5640239e-01  -2.5740689e-01  -2.9605746e-01   1.5246088e-01  -1.2183728e-01   1.8563796e-01  -1.2129242e-01   2.9345806e-01   7.2222453e-02  -1.6651049e-01  -4.6297144e-01  -4.6589233e-02  -3.7921780e-02  -1.2790710e-01  -2.0711805e-01  -6.4750905e-02  -7.7583887e-01   5.2439724e-01  -7.2210095e-01   9.1950039e-01   4.8620620e-01  -2.1977895e-01  -3.4290675e-01   3.7944631e-01  -3.0681512e-01  -6.8887069e-01  -3.1058639e-01  -9.8973458e-02  -6.1126714e-01  -8.3231649e-01  -5.3318599e-01  -2.3405527e-01   2.2735925e-01  -2.6414674e-01  -3.1175877e-01  -5.8557704e-01   8.5307917e-01  -1.7082712e-01   3.0398720e-01  -9.3175611e-01  -2.4831652e-01   1.7666032e-01   1.7123112e-01   1.5281376e-01   5.2727705e-01   8.1009815e-01   6.4654112e-02   8.2574340e-01   1.9962942e-01  -7.3429501e-01   6.3098770e-01  -8.9005279e-01  -6.5176727e-01  -4.0868243e-01  -7.2388395e-01   8.3580085e-01   9.0561801e-01   2.4924621e-01   4.2924315e-01   8.5685192e-01  -1.4818617e-01  -2.0693233e-01  -2.0750205e-01   6.7181215e-01  -2.0331780e-01   4.5519298e-01  -5.6694821e-01   1.8413233e-01   1.1157772e-01   8.7658622e-01  -9.9432685e-01  -6.2989897e-01  -2.2950345e-01  -2.0623885e-01  -8.2893586e-01   4.5401044e-01   5.8767863e-01   3.8869283e-01  -8.8712533e-01   7.2350183e-01  -9.3324480e-01   7.5566413e-01   6.1613228e-01  -6.5670311e-01   8.5300358e-01  -2.5068541e-01  -8.9721680e-01  -3.4831275e-01  -8.9346390e-01  -8.7642643e-01   8.8733381e-01   1.9741109e-01  -5.4048129e-01  -5.2304575e-01   8.0436295e-01   6.6520843e-01  -4.1244461e-02  -6.3597443e-01   3.8564639e-01   3.7630448e-01   5.8343834e-01  -1.3500471e-01  -7.4489429e-03  -2.9932918e-01  -8.9208258e-01  -3.2654786e-01   4.0529272e-03  -8.4190651e-01   6.7003857e-01  -1.9175942e-01  -5.0364394e-01  -8.2940287e-02  -5.3189029e-01  -7.7005249e-01  -8.7166899e-01  -3.6296456e-01  -2.7917491e-01  -2.0362431e-01  -7.8088722e-02   1.1790577e-01  -1.8264971e-01  -6.8703280e-01  -2.7920845e-01  -3.7214328e-01  -3.9288901e-01  -2.0271329e-01  -1.2197696e-01   6.8719901e-01   3.1177864e-01   7.8937037e-01   8.6228846e-01   5.5247360e-01  -8.5070667e-01  -8.3830795e-01   4.6042566e-01  -2.1224785e-01  -7.9772062e-01  -6.7893930e-01  -6.2382363e-01  -4.5282371e-01  -8.7102582e-01  -5.9230829e-01  -1.5326419e-01   9.5485343e-01  -6.8640184e-01  -6.0772330e-01   4.5194558e-01   8.0660771e-01  -7.3332453e-01   5.2556604e-01   5.4324217e-01   7.3144879e-01  -8.6583372e-01   2.9492321e-01   8.8132879e-01  -6.3072654e-01  -7.4390926e-01  -6.2785601e-02   4.9076480e-01   1.2288413e-01   9.6227631e-01   2.6964375e-01  -5.0094381e-01   1.4407250e-01   9.6319612e-02  -8.7638703e-01  -9.1165948e-01  -8.3828902e-03  -5.6076266e-01   8.5244305e-01  -3.3444909e-01  -3.1975718e-02  -5.0388876e-01   9.5496576e-02  -6.8809877e-01  -2.9091379e-01   7.3071656e-01  -6.6205929e-01  -4.5358722e-01   8.8313562e-02   5.3892273e-01   9.4865615e-02   4.8490423e-01   5.2197107e-01   6.5586059e-02  -2.6875159e-01   8.4974570e-01   2.9641729e-01  -8.5011641e-01   3.3451036e-01  -8.8905026e-01  -7.2379282e-01  -5.2801816e-01  -2.2618440e-01  -4.7215329e-01   6.7671328e-01   6.1783157e-01   6.2832083e-02  -9.0134094e-01   4.8539905e-01   5.7752186e-01   6.4251187e-01   5.9550135e-01  -1.6678838e-02   1.0172949e-01  -7.7492269e-01  -5.5154469e-01  -3.4451866e-02   1.8366575e-02  -2.7446784e-01   2.4888528e-01   6.7740750e-01  -2.7460372e-01  -2.0677797e-01  -8.8333378e-01   7.2227009e-01   6.9161278e-01   7.5588996e-01   8.7822436e-01   4.1978683e-01  -6.3959466e-01   3.9836522e-01   1.4222286e-02  -3.4396977e-01  -8.5329569e-01   9.9395879e-01   7.0016315e-01  -9.7155639e-01   6.0381654e-01  -8.8314790e-01   3.8560828e-01   3.0901216e-01  -7.8072785e-01  -9.6866451e-01  -4.9116756e-01   4.9400775e-01   2.6185396e-01   4.5362197e-01  -2.1555463e-01  -2.5759110e-02  -8.7394716e-01   6.9421289e-01   5.4311653e-01  -8.5168781e-01   8.2643042e-01   8.3025611e-01  -7.7891982e-01  -3.2484391e-01   5.9619687e-02  -5.3936028e-01  -8.1982814e-01  -7.6167273e-01  -1.1519010e-01  -9.5768677e-01  -3.0137874e-03   9.0534616e-01  -4.0636329e-03  -2.7897175e-01  -1.9112098e-01  -7.5753148e-01  -4.9133496e-01   1.2586682e-01  -2.4212920e-01  -6.6264200e-02   7.6846305e-02  -9.3730777e-01   8.5973405e-01  -5.2296562e-01  -5.2261113e-01   4.8846764e-01  -3.6509798e-01   4.3080216e-01   5.4306842e-01   2.5421914e-01   7.1751946e-01   9.7135310e-01  -5.5348094e-01  -6.0320051e-01  -5.3178756e-01   5.9262144e-01   9.1058962e-01   4.0764545e-01  -5.7021582e-01  -4.3327895e-01  -2.2623812e-01  -8.0738746e-01  -6.6140416e-01   7.8533951e-01  -6.0897162e-01  -2.0138066e-01  -1.0101538e-01  -8.2093002e-01   2.3914355e-01  -7.9365408e-01   6.3631970e-01  -9.0269479e-02  -2.5393328e-01  -8.8612591e-01  -7.0846915e-01  -7.8027877e-01  -6.3211447e-01   6.3084045e-01  -2.2249793e-01   7.8071351e-01   7.8169039e-01   5.6816255e-01   6.1981986e-02  -9.2965962e-01  -5.4517288e-01  -4.2341994e-01  -1.8379914e-01   4.1073367e-01   6.4696186e-01   8.2734539e-01   6.1358215e-01  -2.9914770e-01   6.5623967e-01   3.9943680e-01   8.4428820e-01  -8.0606633e-01  -5.8774293e-01   5.5438527e-01  -2.5529606e-01   8.9448614e-01  -5.7195834e-01  -6.8754547e-01  -2.6252927e-01  -3.7219144e-01   2.0696423e-01   4.7046979e-02   7.7396686e-01   4.4354633e-01  -2.7931365e-01   1.2632437e-01   6.5141753e-01  -7.9535042e-01  -1.6788480e-01   1.8423799e-01  -2.8612334e-01  -9.0375447e-01  -6.8119289e-01  -2.1265212e-01   4.1829388e-01   1.8842521e-01   8.9720693e-01   7.3021944e-01   8.9011849e-01   5.9564378e-01   3.4327306e-01   9.0747589e-01  -9.2569611e-01  -7.8038566e-01  -5.0503993e-01  -2.5352201e-01  -3.6098079e-01   5.6420344e-01  -1.7898602e-01  -1.4928358e-01  -6.8691316e-01  -8.4483357e-01  -4.8682548e-01  -7.5546351e-01   9.0784913e-02   5.4541621e-01   5.1184526e-01  -2.6834332e-01   9.1510557e-01  -8.8429141e-01   2.9834331e-01  -1.4222172e-01   4.2858646e-02   4.2578017e-01  -2.6644543e-01   4.3526599e-01   6.1399086e-01  -7.7540813e-01   5.7421927e-01  -2.5152826e-02  -1.1636369e-01   5.0766689e-01   3.9664998e-02   7.8698108e-01  -2.2042250e-01  -8.3930188e-01  -1.8769293e-01  -3.0620515e-01   1.1970783e-01   6.1303706e-01   9.3654838e-01   7.5522824e-01  -9.0896594e-01  -3.4829640e-01  -8.4806962e-02   9.3112145e-01  -5.9481124e-01  -5.4305283e-01  -7.7527887e-01  -8.0216353e-01   7.2400941e-01   2.9450871e-01  -7.2558402e-01  -3.8831240e-01   5.6852997e-01  -1.8435724e-02   4.5890127e-03  -4.3559589e-01   9.2611180e-01   8.2812258e-01   3.2885025e-01  -3.9961790e-01   7.1140316e-01  -7.9413309e-01   2.3024679e-01  -1.3131439e-01  -1.9887253e-01  -5.1066962e-01   9.6433395e-01   1.5952875e-03  -7.4821255e-01   8.8154220e-01   7.5340423e-02   3.4906194e-01  -3.5252697e-01   1.4379330e-01  -6.1446229e-01  -1.1511004e-01  -3.6856321e-01  -9.8600846e-01   4.6302700e-01  -9.9515173e-01  -4.0458293e-01   8.2484978e-01   8.7857032e-02  -4.3302833e-01   8.7470473e-01   8.3677837e-01  -5.8130539e-01   1.6161240e-01  -2.5888574e-03  -7.7673826e-01   8.5135888e-01   6.6530919e-01   4.5778392e-01  -7.8560550e-01   5.6571629e-01   2.9123130e-02   4.5085213e-01   5.4661180e-01  -2.8971465e-02  -9.4824330e-03  -3.3621011e-01   1.1900134e-01   3.4835926e-01   4.7584434e-01  -3.6598056e-01  -3.0625376e-02   5.3122913e-01   4.5231959e-01  -2.7049396e-01   5.6180040e-01   5.1252300e-01   3.6529735e-01   7.7722976e-01   5.6647115e-01   7.2872257e-01   9.1778357e-01  -5.3316719e-01  -1.5029052e-01  -4.6012772e-01  -4.4757945e-01   1.2160984e-01   4.8004623e-01  -6.6689348e-01  -9.4117920e-01   8.4676188e-01   2.7841590e-01   4.6486922e-01   4.0383785e-01   3.7931916e-01  -3.5235767e-01  -2.3782835e-03  -8.0054369e-01  -9.3213231e-01  -2.3333907e-01   6.7869068e-01   6.7416409e-01  -4.6751469e-01   8.7348873e-01   6.5488351e-02  -1.1306803e-01  -1.8282826e-01   6.8544828e-01   3.1577295e-01   4.9185437e-01  -8.3986090e-01  -9.0811156e-01  -1.1799370e-01   8.3389242e-01   5.0397850e-01  -1.1375271e-01   1.7945114e-01  -8.9318206e-01   8.1425194e-01   8.2352751e-01   7.7153273e-01  -3.6840822e-01   3.3516741e-01   8.2361842e-01   4.4748585e-01   7.5737237e-01   1.5016891e-01  -5.6337583e-01   4.1188462e-01   7.0162717e-02   5.7445806e-01  -5.8064660e-01  -3.7762258e-01  -9.1070002e-01  -8.0649447e-01  -4.2394818e-01  -8.1580509e-01   1.6645940e-01  -7.0039288e-01  -2.0457175e-01   8.0402987e-01   7.5652416e-01  -9.5141362e-01   3.3659231e-01   1.4008345e-01  -6.5839528e-01  -8.2638906e-01   5.4402736e-01   9.9932924e-01  -2.6195503e-01  -5.4047504e-01   6.0147615e-01  -1.3185723e-01   6.2879548e-01   2.9405328e-03  -7.9204681e-01  -2.2039794e-01   7.6258800e-01  -4.8121414e-01   8.7495470e-01   5.9415956e-01  -9.0523034e-01   6.9804984e-01  -5.7662305e-01   8.0923888e-01  -4.8860003e-01   2.1623225e-01  -6.1063307e-01   9.3959380e-01  -4.7251972e-01   3.8797410e-01   4.5066555e-01   5.5504650e-01  -1.1562509e-01   2.9801745e-01  -5.8284543e-02   2.9729293e-01   2.1624828e-01   7.3765719e-01  -7.0986309e-01  -7.0872476e-01   8.4702375e-01   8.9270823e-01   7.8668566e-01   6.5770114e-01  -2.5610822e-02  -8.6498641e-01  -8.0233224e-01   4.1799918e-01  -6.3821646e-01  -4.4992975e-02  -5.7813371e-01  -1.7927367e-02   4.7980438e-01  -6.7041826e-01   2.7504693e-01   7.6658345e-01   6.7899143e-01  -3.2670761e-01  -7.9657933e-01  -5.7194449e-01   1.4979353e-01   2.1463406e-01  -9.4498189e-01   7.4688037e-01   6.6993931e-01  -3.8129066e-01  -9.2840470e-01  -6.6920209e-01   6.1710440e-01   3.2766031e-01  -7.7706685e-01   3.9310619e-01   3.1800130e-01   5.8873449e-01  -5.5599469e-01   5.9819011e-01  -5.3093348e-01   4.9425255e-01  -5.7345671e-01   1.2856140e-01
  -2.7007100e-01   2.3228215e-01  -4.9180686e-01   8.7584669e-02  -8.8035562e-01   3.2980881e-01  -8.6643659e-02  -6.0458598e-01   1.8947536e-01  -6.8153398e-01   2.2867312e-01  -8.9967484e-01   8.5251971e-01  -8.4892937e-01   4.8638942e-01   3.4939331e-01  -6.8434692e-01   5.5702329e-01   6.3598902e-01  -8.7218936e-01  -7.4653544e-01   1.0899006e-01   6.8855464e-01  -2.2786888e-01   1.9697815e-01   6.6716591e-01  -2.7127110e-01   1.6340809e-01   6.1876520e-02  -3.7631890e-01  -9.6749253e-01  -5.8565127e-01   7.4700929e-01  -1.3872049e-01  -8.1584711e-01   7.3149954e-02   9.3809905e-01   7.3854154e-03   4.8849673e-04   4.9598535e-02  -4.3339433e-01   6.2168174e-02  -3.9681362e-01   5.4459421e-01   2.7544559e-01  -5.6116086e-01   1.8471342e-02   9.0702573e-01  -6.5275101e-01   6.4666288e-01   5.3332431e-01   9.6746550e-01  -1.0182918e-01   7.9531343e-01  -2.5516161e-01  -2.0312564e-01  -8.9081309e-01  -3.6151757e-01  -9.0365090e-01   3.7832609e-02  -4.3264878e-01  -9.3707328e-01  -2.1241453e-01   6.5095390e-02   2.9901518e-01  -2.4019360e-01  -8.5494415e-01  -6.8340643e-02  -8.7177807e-01  -1.7495301e-01   2.1918078e-01  -9.5563037e-01  -8.3418201e-01  -2.4145287e-01   1.8752311e-01  -9.5283032e-01   2.2779158e-01  -5.9297332e-01   4.9585103e-01   8.0861649e-01   6.7883909e-01   2.4202979e-01   8.5618251e-01   4.9942468e-01  -9.9947578e-01   8.6955776e-01  -9.9714085e-01   7.5155501e-01  -3.4367279e-01   4.1680706e-01  -7.7628970e-01  -7.7405372e-01   7.8253536e-01  -8.4481371e-01  -1.2647346e-01   3.7507651e-01  -9.7416277e-01   3.7384376e-02   5.6397384e-01   2.9543929e-01  -7.8348288e-02  -8.4626586e-01  -7.7713267e-01   7.3762488e-01  -4.5076691e-01   5.3927673e-01   9.6327660e-02  -6.6317249e-01  -4.2147634e-01  -3.1929094e-01  -9.5293835e-01  -5.0290332e-01  -1.0464931e-01   5.0726794e-01   7.1979061e-01   4.4944108e-01   4.5595342e-01   7.1187588e-01  -2.5327960e-01   7.9112269e-01   1.4490004e-01   1.7875249e-02   7.2315558e-01   5.2031502e-01   7.4910897e-01  -4.5059064e-01   2.4099934e-01  -8.7307199e-01   5.9061412e-01   3.8794117e-01   2.1293453e-01  -5.9238064e-01   2.5917983e-01  -8.2357701e-01   4.4027784e-02  -7.3147360e-01   7.1692282e-01   1.8131295e-01  -8.3537233e-01  -4.8208007e-01   3.9541149e-01  -2.2333185e-01  -4.3072042e-01  -2.0901123e-02  -2.5508921e-01  -6.6788529e-01   5.9582934e-02   2.0045469e-01   7.2055302e-01   3.1312698e-02  -1.2149690e-01   6.5826102e-01  -7.6394321e-01   3.0980818e-01  -5.9001117e-01   5.0993591e-01  -7.9590964e-02  -7.1416821e-01  -3.5986786e-01  -4.9619074e-02  -6.3760001e-01   6.6440388e-01  -9.4716967e-01  -6.6972803e-01  -3.6235225e-01  -4.9543539e-01   5.2403318e-01   7.5369905e-01   1.4774026e-01  -1.7214450e-01  -6.3942910e-01  -4.0376519e-01   6.6258211e-01   3.1969364e-01   1.3062683e-01  -1.1054675e-01  -3.7722516e-01  -1.6946283e-01   3.9195483e-01  -9.1444262e-01   9.4827798e-01   1.7126191e-01  -7.7576594e-01   9.8597886e-02  -6.8191201e-02   8.2393034e-01   4.5292265e-01  -3.4043821e-01   3.7388528e-01   7.8821878e-01  -8.5297728e-01  -5.7831350e-01  -2.5592387e-01  -3.8682476e-01  -7.8961184e-01   2.2713382e-01  -5.4253627e-01   1.4275053e-01   5.5337482e-02  -9.7498420e-01  -5.6087120e-01   4.3120568e-01   6.8108909e-01  -4.9455132e-01   6.4219805e-01   3.9068215e-01   6.2934396e-01   8.6942345e-01   3.6208735e-01   6.8423595e-01   2.3511946e-01  -1.2525206e-02   1.1891237e-01   3.6332052e-01   7.7582534e-01   1.1087074e-01  -3.3131646e-01  -3.5514709e-01  -2.8726871e-01   9.0186102e-01  -1.3026180e-03   3.6965473e-01  -8.9802178e-01  -4.4391230e-01  -9.3930638e-01   4.0693309e-01   1.9340510e-01   4.0753410e-01  -9.2401028e-01   6.1126693e-01  -6.9955428e-01  -2.9255941e-01   6.4319500e-01  -1.1051472e-01  -1.9654722e-01   6.9761493e-01   5.3917973e-01   6.0873445e-01   6.0588241e-01  -1.1564815e-01  -9.5047202e-01  -7.9309187e-01  -7.2862196e-01  -2.0064734e-01  -7.6048425e-01   6.6936070e-01  -7.1853117e-01   3.1071115e-01  -3.1160819e-01   2.0621711e-01  -7.4036242e-01  -2.2497892e-01  -1.9302916e-01  -2.3263905e-01   7.2120017e-01  -6.4704809e-01   8.1406207e-01  -6.7867231e-01  -8.9538233e-01  -6.7884397e-01   4.3861169e-01  -9.2375958e-01   7.9591427e-01   4.1457437e-01   5.3485275e-01   5.6713400e-01  -2.0890778e-01   7.7115510e-01  -3.4854292e-01  -3.3182229e-01  -2.2130337e-01   7.5836617e-01   9.6240716e-01   1.0201281e-01   7.9368932e-01   9.6656685e-01   4.1149314e-01  -7.5756533e-01   2.4003884e-01  -6.7102228e-01  -1.1114620e-01  -2.3715624e-01  -1.0085896e-01   9.8261978e-01  -9.6306475e-01   6.9312598e-02  -2.7222290e-01   4.6649826e-02   3.3122601e-01   8.6526938e-01  -1.5484923e-01  -1.5504612e-01   8.3926615e-01  -8.4384837e-01   9.5226328e-01   7.5450778e-01   1.3388154e-01   1.0920480e-01  -3.5352961e-01   8.6956116e-01  -3.3981585e-01  -3.9498189e-01   7.5300035e-01   8.7334768e-01   4.7055522e-01   8.2333037e-01  -3.6273416e-01   2.2729056e-01   3.5675273e-01   7.6613968e-01  -5.8232513e-01  -2.8256893e-01  -1.6914921e-01   8.4527413e-01   6.6927481e-01   4.7792326e-01   8.7626145e-01  -1.1362531e-01   6.3931768e-01  -4.6066737e-01   1.1915644e-01  -1.4223926e-01   7.5386272e-01   2.2610161e-01  -4.8159898e-01  -6.4467771e-01   6.8131738e-01  -7.0214910e-01  -9.3640258e-01  -3.6328891e-01  -7.1884422e-01   4.5836350e-01  -7.2176235e-01  -8.6333447e-02   4.4578136e-01   7.1773621e-01  -1.3584583e-01  -2.4991221e-01   8.5661781e-01   4.6353750e-01  -9.9860518e-01   2.5549749e-01  -7.4250593e-01   9.2226072e-01   2.7477738e-01  -1.7330614e-01   7.3429427e-01   4.1881772e-02  -3.7433999e-01  -7.3344892e-01   2.5370599e-01   2.3574689e-01  -8.0236492e-01  -1.0895852e-01  -8.3614419e-01   7.8952207e-01  -3.5158998e-02  -3.2107527e-01  -6.4356537e-01  -1.5654360e-01   6.4113641e-01  -7.5571573e-01   1.5870727e-01   4.1693506e-01   2.2028700e-01   5.6081954e-01  -2.8273054e-01   8.0018764e-01   9.7991885e-01   6.9164976e-01   4.0433586e-01   8.0177857e-01   4.5792823e-01  -9.6534327e-01   8.1226268e-01   3.2336141e-01   6.4651938e-01  -7.0415353e-01   7.0723981e-01  -1.8316203e-01  -6.9747184e-01   8.4531278e-01   8.4623775e-01   2.6295443e-01  -1.2064100e-01   1.9215801e-01  -6.3948493e-01  -6.6034870e-01  -8.9253459e-01   1.9021906e-01  -3.7521885e-01   9.4189465e-01  -4.4820992e-02   4.1730150e-02  -1.3642711e-02   2.7083413e-01  -8.8788341e-01  -8.8009208e-01  -2.5281717e-01  -3.9181617e-01  -1.8308572e-01  -2.6540831e-01   1.2499103e-01   4.2080029e-01  -6.7486525e-01  -5.3520078e-01  -1.2482336e-01   1.6199473e-01   1.7949263e-01   6.7769214e-01   4.4109338e-01   5.8994857e-01   1.6987859e-01  -6.4904684e-01   4.1556911e-01  -6.9983534e-01  -9.7766765e-01   2.1989305e-01  -9.2197126e-01   1.9919120e-01  -9.3902719e-01   8.7052634e-01  -6.3602209e-01   4.6630736e-01  -8.2699124e-01   6.0553510e-01  -4.0403820e-02  -1.9744648e-02  -3.0253270e-01  -4.0657253e-01  -6.5384507e-01  -7.7426074e-01  -7.9964928e-01  -9.4158776e-01  -3.5726666e-01  -7.4946025e-01   5.9933681e-01   3.2099267e-01   5.7613149e-01   3.7170544e-02   2.8391443e-01  -9.0734790e-02   7.2304261e-01  -2.5686280e-01   7.7421662e-02   6.8373796e-01  -7.3980485e-01  -5.7953835e-01   9.2494785e-01  -5.2750156e-01  -2.7149025e-01   6.6231074e-01   7.5069639e-01   7.6071317e-02   8.4687476e-01  -4.0192348e-01  -4.0873514e-01   4.6590020e-01   9.5393393e-01  -7.5445713e-01   8.4741051e-01   3.4390974e-01   6.6603494e-01   2.8116624e-01   6.1844406e-01   4.3971447e-01   6.5390473e-01  -5.1075866e-01   8.8777405e-01  -1.4636842e-01   6.8149622e-01  -4.8591966e-01   4.4444482e-01   1.6418316e-02  -4.3635760e-01   8.9342808e-01  -5.2498645e-01   8.9914665e-01  -5.8162205e-01   4.3836169e-01   8.5836302e-01  -3.3342789e-01  -9.8438784e-01   5.4012965e-01   1.3402074e-02  -4.7863052e-01  -8.8637834e-01   3.6866936e-01  -4.5885884e-01   2.2504062e-01  -4.9841591e-01   8.2049102e-01  -7.2838016e-01   2.2733185e-01   5.1132469e-01  -5.1769977e-01  -4.6459240e-01  -6.7549003e-01   8.7861421e-01  -5.6553176e-01  -1.8000703e-01  -9.4913172e-01   9.8074633e-02   3.1530080e-01   7.7326197e-01  -9.4124912e-01   7.9736069e-01  -2.6199507e-01   7.1143563e-01   2.7589349e-01  -4.0874468e-01  -4.3114780e-01   7.0518646e-02   7.7758241e-01   5.5829527e-01  -4.3454068e-03   3.5391929e-01   9.0278380e-01  -6.3563360e-01  -4.9773269e-01   6.6476715e-01   6.6198326e-01  -6.7536746e-01   7.4079401e-01   4.1250282e-01   5.4484593e-02  -8.2103217e-01   4.1601392e-01   4.7422779e-01   7.7517124e-01   3.2212638e-01   8.3515635e-02  -2.7225711e-01   3.3975649e-01   6.3478937e-01  -5.7247238e-01   2.3346191e-01  -5.4735917e-02   9.4823606e-01   9.9319106e-01  -5.9187922e-01   4.7196996e-01   9.2784107e-01  -8.0502412e-01   9.7302036e-01  -6.8575550e-01   3.2856694e-01  -2.9984304e-01   7.8337823e-01  -6.2732370e-01   9.3994892e-01  -5.3959769e-01  -1.7072492e-01   7.7176981e-01  -9.9743854e-01  -7.1591761e-01   1.6539400e-01  -6.2971650e-01  -7.0939737e-01  -6.2907962e-02  -1.4267049e-01   3.6185764e-01   1.0389725e-01   2.8598646e-01   2.3163786e-01   4.6156326e-02  -2.2919969e-01   7.9730270e-01  -4.7332806e-01   1.9235964e-02  -7.9884080e-01   8.9931014e-01  -7.3615363e-01   6.3034194e-02  -3.6207314e-01   8.8328942e-01  -2.6722431e-01  -4.7353292e-01   6.1862593e-01  -7.8813886e-01  -8.1446051e-01  -7.1756075e-01  -5.3307908e-01  -9.8020291e-01   4.3851657e-01  -8.1727128e-01   2.9301160e-01   3.3305207e-01   1.9774856e-01  -6.7783022e-01   6.0672716e-01  -2.5961368e-01   2.9152821e-01  -9.7229351e-01   1.1389838e-01  -5.7950902e-01   5.4597671e-01   7.3889881e-01   7.0143489e-01   1.6269948e-01   7.8078159e-01   8.9699421e-01  -7.7233825e-01  -2.7083722e-01  -8.2949132e-01  -1.7707510e-01  -1.7505935e-01   4.0682920e-01  -3.6990667e-01  -2.6878746e-01  -5.3312127e-01  -1.6990774e-01  -4.9001733e-01   9.0795423e-01   4.7441251e-01   6.1558998e-01  -8.9728541e-02   8.4802397e-01   9.2589682e-01   9.8271348e-01  -3.8344962e-01   4.6256294e-01   8.9241804e-02   8.8174410e-01  -4.5150348e-02  -6.8249138e-01   7.9117114e-01   9.5013218e-01   4.5235694e-01  -2.6030497e-01  -2.5572680e-01  -7.3546443e-01   5.0850565e-01  -8.9104032e-02  -5.3257390e-01  -4.7254451e-01  -3.4910376e-01  -7.6959222e-01  -4.7903752e-01  -1.5482069e-01   5.7804311e-01   7.8598396e-01   7.9950097e-01  -9.3216571e-01  -7.9708622e-01   4.5688582e-01   8.5509629e-02  -8.3250519e-01  -1.4139359e-01   6.7343127e-01  -6.8324685e-01   6.5492782e-01   1.8197565e-01  -2.9264112e-02   6.8718980e-01  -5.8423331e-01   2.0208346e-02   9.3930246e-01  -6.1597371e-02  -8.0910601e-01  -5.4407176e-01  -7.8868068e-01   7.4341457e-01  -8.2170158e-02   8.7567147e-01  -6.9957004e-01   6.6725554e-01   4.1509162e-02   1.4200776e-01  -6.4495696e-01  -2.0103487e-01  -7.8777610e-01   1.7334604e-02  -4.1360515e-01  -9.7887688e-01  -3.5736553e-01   8.8086850e-01  -2.0749461e-01  -2.9194388e-01   6.5095697e-01   4.0693764e-01  -6.1553865e-01   2.5265070e-01  -5.6181787e-01  -1.3606748e-01  -6.3831877e-01  -9.1104436e-01   3.6207252e-01  -2.1826864e-01   2.7328897e-01  -9.2556652e-01  -9.0093488e-01   3.4070306e-01   6.6121122e-01   1.3696453e-01  -3.5381612e-01  -6.7197434e-01  -8.0232351e-01   5.8887614e-01  -1.0683332e-01   8.0683203e-01   4.9226240e-01  -5.6675515e-01   4.1771589e-01   2.6458743e-01  -3.4330427e-01   2.6058266e-03  -8.6057765e-01   5.3419216e-01  -8.4509550e-01  -3.9159460e-01  -7.2650207e-02  -8.5675225e-01   7.8910864e-01   7.3231875e-01   1.2212713e-01   8.4313054e-01   9.2531620e-01   4.6105362e-01   7.9676595e-01   9.3737005e-01   4.6095239e-01   2.5027138e-01   9.3975329e-02  -1.5129424e-01  -2.4478239e-01   7.9549913e-01  -3.3314453e-01  -1.8165696e-01  -8.6504146e-01  -2.1674296e-02   4.3117630e-01   2.5295816e-01   2.4953116e-01  -5.6186053e-02   1.2727907e-01  -2.3327588e-01  -8.2024044e-01   3.4314944e-02   8.2033814e-01   7.2907258e-01   4.6367009e-01  -3.6716714e-01  -7.4566297e-01   5.5069802e-01  -7.7981682e-01  -1.1540846e-01   3.2871878e-01  -7.9625986e-02   9.3235553e-01  -6.3408463e-01   8.6317252e-01  -9.2569096e-02  -6.4581178e-01  -4.2287403e-01   1.2796926e-01  -2.2818438e-01   4.2029123e-02   9.1958872e-01   5.6189706e-01  -4.4884202e-01   7.2123792e-01   2.1446986e-01  -9.3411084e-01  -4.4636747e-01   7.9170026e-02   8.9608807e-01   3.5202238e-02  -3.7673173e-01   1.2642391e-01   3.5042356e-01   3.6304222e-02   3.3015391e-01   7.6826968e-01   3.8546906e-01  -2.6422623e-01   1.2520819e-01   8.6690947e-01   4.9742265e-01   5.5275193e-01   8.2018908e-01  -4.3882579e-01  -5.1214022e-01   1.9931299e-03  -5.7389431e-01  -9.6097919e-01  -6.9684391e-01  -6.1135604e-01   2.2170702e-01  -6.9099072e-01  -1.6800088e-01  -4.2938101e-01   9.3928677e-01   2.3284948e-02   4.0541186e-01   3.8479589e-01   9.8885132e-01   4.8319724e-01   7.0695026e-01   7.8640543e-01   5.1739279e-02  -5.2418703e-01   7.5091199e-01   1.2461346e-01   4.3605689e-01  -3.1895926e-01   3.1488586e-01  -2.4970703e-01   6.2131538e-01   5.9631297e-01   5.3145194e-01   7.0292453e-01  -1.4600636e-01   3.2075548e-01   9.2853084e-01  -8.2987758e-01  -9.8499926e-01  -9.0227871e-01  -2.3391995e-01   8.9728037e-01   6.7071882e-01  -7.4349594e-01  -5.1609976e-01  -6.3877510e-01   3.7290303e-01   3.7292603e-01  -9.8228850e-01  -7.1975312e-01   1.3985279e-02   5.6372600e-01  -9.2774785e-01   8.0479631e-01   7.7158272e-01  -4.8292508e-01  -6.2330210e-01   5.2282189e-01   8.9557577e-01  -7.3812338e-01  -9.0878957e-01   1.6683791e-02  -8.6029709e-01  -2.7965502e-01   9.4023604e-01   4.8926572e-01   2.8015953e-01  -7.4574108e-01   3.8778003e-01   9.1981578e-01   7.2076529e-01   9.3043428e-01  -2.7039600e-02  -2.4689643e-01  -1.4543215e-01   1.9684031e-01   9.9613990e-01  -6.6692987e-01   1.0432327e-01  -6.2850283e-01   8.8445208e-01   6.9609547e-01  -6.2524864e-01  -6.9767866e-01   1.9381073e-01   2.2121270e-01   8.6587959e-01   4.8425404e-01  -8.1193270e-01  -3.5898582e-01   9.4947549e-01  -3.2583755e-01  -2.4775403e-02   1.0826238e-01  -6.2463266e-01   6.2228234e-01  -5.4480645e-01   5.3272936e-01   4.3725354e-01   4.6821298e-01  -9.4837742e-01   4.2228074e-01  -7.4934914e-01  -4.1749976e-01  -9.0788936e-01  -1.9185182e-01   2.3099619e-01   2.8807262e-01   8.9639830e-01   1.6617096e-01  -3.7669497e-01  -6.8920566e-01   6.2098243e-01   9.5177570e-01   9.6548336e-01   9.4591755e-01  -2.3950161e-01   2.6475777e-01   7.7776915e-01   2.5367132e-01  -8.1000366e-01  -6.5660166e-01  -5.7019724e-01  -6.9353021e-01   8.5246969e-01  -7.0776637e-01   4.1846832e-01  -1.5436223e-01  -1.7094022e-01  -3.3782223e-01  -6.6932510e-01   7.4329607e-01  -1.1319450e-01  -2.9831858e-01   2.7701367e-01   5.6018525e-01  -9.9415018e-02  -6.1353506e-01  -4.3642402e-01  -5.2735480e-01   7.8477263e-01   3.2572859e-02  -3.4804138e-01   2.1594620e-01   2.3048193e-01  -6.0115333e-01  -8.3370145e-01  -8.9198322e-01  -8.3374178e-01  -3.4287797e-01  -2.5023128e-02  -9.7805318e-02   9.7851189e-01  -5.1473196e-01   8.0049010e-01  -7.2993679e-01  -3.7746612e-01  -6.0130496e-01   7.4936498e-01   6.8052667e-01   7.6899323e-02   8.5255212e-01   4.0021486e-01  -1.1532810e-02   9.1664453e-01  -1.7213880e-01   2.7373027e-01  -2.5304408e-01  -6.5711070e-01   9.8092467e-01  -9.5899686e-01   6.5855642e-01  -8.0985494e-01  -6.7605291e-01   6.8852632e-01  -9.6397537e-02   5.0185805e-02  -2.8301779e-01   1.5055543e-01  -6.6446501e-01  -3.7841784e-01  -5.1987656e-01   8.9934962e-01   3.2344589e-01  -5.3947105e-01   1.4691881e-01  -4.5280551e-01   8.9033254e-01  -6.7068557e-01  -7.6105228e-01  -4.1700200e-02   9.4668189e-01   9.7584692e-01   2.5166544e-01  -6.9741005e-01   3.3441001e-01  -2.9165470e-01  -2.1124708e-01   9.3422542e-02  -6.6513332e-01   4.1500355e-01  -6.3894484e-01   1.2269458e-01  -5.8802225e-01   8.5635162e-01   7.8811550e-01  -7.7976412e-01  -1.6373310e-01  -7.7107972e-01  -8.2489995e-01  -6.0428567e-01  -7.5122523e-01  -1.7201993e-01   1.0593511e-01   1.1018400e-01  -8.6009689e-01  -3.3735347e-01  -5.6991162e-01  -5.2874895e-01  -5.3666012e-01   8.4086080e-01   9.3362744e-01
   4.0089373e-01  -5.9652156e-01  -5.3578391e-01  -9.4887893e-01  -1.4249704e-01  -2.0511164e-01   5.6051465e-01   3.7714040e-01   3.3705283e-01  -5.0697928e-01   1.8068549e-02  -2.1765331e-01   6.0007773e-01   3.3578132e-01   7.7614086e-01  -3.8718768e-02   4.0040566e-01  -6.2331599e-02   3.9160765e-01  -8.4818636e-01  -3.9016338e-01   2.1416991e-01   9.0084354e-01   9.0002447e-01  -1.5443179e-01  -8.8278695e-01   3.5824219e-01   6.5265265e-01  -2.8760263e-01   6.8108562e-01  -3.9885812e-01  -7.3373855e-01   3.7225044e-01   3.8785901e-01  -7.7781749e-01  -8.4476523e-01  -4.0108815e-01   1.2521740e-01   4.0947423e-01   9.7831927e-01  -6.2887473e-01  -7.3631305e-01   8.7102984e-01  -2.7764901e-01   3.7017969e-01  -9.2098228e-01   9.7346591e-01  -4.3487223e-01   7.4210728e-01  -5.5313924e-01  -9.1098056e-01  -4.3670615e-01   7.4989733e-01  -9.8508781e-01  -8.7468954e-01   3.6427505e-01   4.4243814e-01   7.0606571e-01  -7.2832696e-02  -4.9992011e-02  -4.4518274e-01  -2.4183738e-01   8.1795904e-01  -2.6459255e-01  -2.9690779e-01   1.4678212e-01  -2.9964285e-01   4.9962311e-01   8.6750924e-03  -3.4905050e-01   9.9047786e-01  -4.3002806e-01   9.1108988e-01   5.8529399e-01  -6.3339305e-01   5.8748487e-01   1.5261007e-01   5.5122450e-01   3.1767616e-01   4.7852959e-01  -9.6051104e-01  -2.0291286e-02  -7.1695051e-03  -2.1086628e-01   7.3561060e-01  -8.5348575e-01  -7.5537760e-01  -4.3819035e-01  -1.5175122e-02   1.9093064e-01  -2.5910865e-02  -9.1635988e-01   5.2697808e-02  -4.2172105e-01  -5.8108664e-01  -1.0789201e-01   8.6873370e-01  -9.1872349e-01   2.6221617e-01   9.5714854e-02  -6.5000898e-01  -8.7963469e-02   4.8863425e-01  -4.3482141e-01  -5.1239120e-01   8.6025136e-01  -7.6120611e-01   5.4223142e-01   5.4793289e-02  -6.2373708e-01   8.5619534e-01  -8.3633005e-01  -9.0845847e-01   4.2372739e-01   9.3442688e-01  -1.6125123e-01   7.9360848e-01   6.0308139e-01  -1.6939685e-01   4.5882411e-01   3.7707179e-01   7.9766910e-01  -8.2562647e-01  -4.3883467e-01   9.9238841e-01  -5.1238214e-01   3.3266902e-02   1.3744444e-02   1.2964745e-01  -2.2373995e-01   5.1107690e-01  -1.6303161e-01   7.2348759e-02   7.3750544e-01   4.8737500e-01   8.5112516e-01  -1.1998729e-01   7.6970984e-01   9.0331613e-01  -2.6140606e-01   4.0117916e-01   5.5800056e-01  -5.6008174e-01  -3.1412068e-01   8.3413698e-01   9.3898236e-01   9.8620853e-01  -1.2849894e-01   5.5568687e-01  -9.3150202e-03   3.5990038e-01  -3.5714536e-01   5.6865552e-01  -9.2752488e-01  -8.9339559e-01   6.2914336e-01   8.4506510e-01  -7.8884060e-01  -7.2504234e-01  -5.2414374e-01  -6.4247691e-01   2.9450966e-01   7.6675424e-01   6.5231002e-01  -5.1373566e-02   7.2687173e-01   2.3795416e-01   1.2804259e-01   2.4116805e-01  -2.8358141e-01   3.8756371e-01  -8.8367478e-01  -7.4929721e-01  -5.0411175e-01  -9.0059090e-01   3.4514032e-01   7.3880392e-02   1.1193135e-01   3.8914928e-01  -4.7144746e-01   4.0860212e-01   8.2090667e-01   9.0271106e-01  -6.1496251e-02  -5.7403708e-01   3.1544906e-01  -9.8024429e-01   5.6526489e-01  -6.7440949e-02  -5.5941740e-01   7.6901307e-01   7.3223757e-01  -2.0301894e-01  -8.3201448e-01   6.8793920e-01   7.8802787e-01   5.7934869e-01  -7.3087329e-01  -7.4891297e-01   4.0076869e-01   9.4919622e-01   7.4705649e-02   5.2826853e-01  -9.1243184e-01  -6.0583751e-01  -7.9319406e-01   1.9893802e-01  -4.2789014e-01  -2.8885138e-01  -9.4541356e-01  -6.2707831e-01  -1.1222281e-01  -3.9259546e-01  -6.0941564e-01   7.6672667e-01   1.1432748e-01   5.6636037e-01   3.0353192e-01  -9.4722501e-01   7.4786848e-01  -4.7824582e-01  -1.3199814e-01   6.8730149e-01  -2.5450460e-01  -2.9125233e-01   7.8565684e-01  -2.6859813e-01   9.1133889e-03   3.4724026e-01   6.8682782e-02  -5.6477354e-01  -7.1328996e-01  -5.0382663e-01   9.9892346e-02  -5.1708930e-01  -7.0696008e-01  -8.2134684e-01   2.7111935e-01   6.8890663e-01  -5.8028539e-01   4.9073220e-01  -1.9377964e-01  -2.7132427e-01  -5.1644263e-01  -6.2112334e-01   2.4037721e-01  -3.4900615e-01   2.5203750e-02  -5.8714740e-01   3.9391440e-01  -1.7259987e-01   8.7915055e-03   4.8440789e-01   9.9362744e-01   8.1261970e-01   7.2540694e-03   7.7290998e-01  -1.0102512e-01  -7.4132533e-01   5.9106006e-01   8.4362820e-01   2.3016326e-01   3.9952526e-01  -7.8497795e-01   1.9381018e-01   8.2785015e-01   4.5748534e-01  -5.5482984e-01  -6.5386464e-01   8.5066922e-01  -3.9634352e-02   8.0483013e-01  -2.6060535e-01  -3.9080139e-01  -8.0678711e-01  -3.8022483e-01   4.0112228e-01   2.9105720e-02  -8.7764353e-01  -7.1576363e-01   1.8557412e-01  -7.0584452e-01  -3.5845371e-01   6.6609791e-02  -5.8642610e-01   6.6018267e-01   6.8019624e-01   1.2173293e-02   5.9892722e-01  -7.7574916e-01  -3.0544403e-01  -9.4117677e-01   2.2950331e-01   7.2816346e-01  -2.9177693e-02  -8.4011953e-02  -7.7519950e-01  -7.8148094e-01   9.0700738e-01   5.3845562e-01   6.9913817e-01  -8.9183635e-01   9.7840102e-02  -1.7449503e-01   9.8531280e-01  -7.3591945e-01   7.0842404e-02   9.2433291e-01   8.3309162e-01  -7.5399337e-01  -7.2313654e-01   5.0665211e-01   7.7836432e-01  -7.1998056e-01   6.2444984e-02   1.1067280e-01   1.9751266e-01   6.3609951e-01   4.9883210e-01   7.9669962e-01   3.4656625e-01  -7.2563189e-02   2.2625924e-01  -2.8398868e-01   5.2622921e-01   9.8468735e-01   8.9618906e-01  -9.5493463e-01   6.9418547e-01   4.5460977e-01   6.4730875e-01  -5.2886335e-01  -1.1828501e-01   3.7755296e-01  -4.3082622e-01   9.2898476e-01  -4.9192818e-01   5.7105675e-02   1.8426901e-01  -1.2697425e-01  -8.9956450e-01  -1.0796625e-01  -4.8674442e-01   6.7200952e-01  -6.5169426e-01   8.7437186e-02   9.9492672e-01  -1.8957780e-01   3.1432188e-01   2.2281732e-01  -9.5719959e-01  -5.7008481e-01  -5.5048673e-01   1.7820788e-01   4.2252426e-01  -9.7716743e-01  -1.7022195e-01  -2.9467121e-01   4.1912752e-01   6.3758130e-01  -6.3559432e-01  -9.2825842e-01  -2.1894942e-01  -8.7576496e-01  -1.0913471e-01   8.2585713e-01   1.0059710e-01   8.6507269e-01   6.7991018e-01   7.6059972e-01   7.6577076e-02   6.8917408e-01  -4.9820694e-01  -7.2557058e-01  -3.6490013e-02   6.7716716e-01   4.5465404e-01   5.0158916e-01  -6.3168188e-01  -3.7930749e-01  -7.9609204e-01   1.1071556e-01  -4.7932632e-01   7.7974593e-01   9.7102606e-01  -2.2082385e-01  -3.3352194e-01  -8.2506648e-01   4.8995306e-01  -2.6292516e-01   4.7664379e-01  -2.2807104e-01   3.5426387e-01  -2.1729662e-01  -3.0295780e-01   9.7857202e-01   3.9956972e-01  -2.5009481e-01   3.9543484e-02  -4.6646016e-01   5.9183444e-01  -7.7780314e-01   8.5822264e-01   4.9410981e-01  -6.5546618e-01  -3.9082736e-01  -1.1819015e-01  -3.7089125e-01  -7.3975578e-03  -6.5876566e-01  -7.6066180e-01  -9.9821935e-01   6.0639382e-01   3.8767237e-01  -5.0738132e-01  -5.1240947e-01   6.9008048e-01   8.6907532e-01  -7.3864926e-01  -2.4243399e-04  -1.8709899e-01   1.7883872e-01  -6.4047682e-01   3.5074289e-01  -9.9915911e-01  -8.7662525e-01  -1.4361803e-01   2.4481540e-02  -3.0020795e-01  -9.4826290e-01   3.3751869e-01  -7.4286611e-01  -3.8648353e-01   4.9117519e-01  -6.4225716e-01   1.5144914e-01   8.5945966e-01   9.1207194e-01   2.1347428e-01   2.4121473e-01  -5.4045714e-01  -2.5428188e-01  -6.7998230e-01  -1.6911498e-01  -4.3488864e-01   8.6427489e-01   2.1590463e-01  -2.9331608e-01  -5.1443627e-01   3.8316899e-01   2.5120067e-01  -4.7410011e-01  -5.7932425e-01   3.7981670e-01  -5.5020005e-01   8.0140069e-01   1.6392867e-02   7.2087069e-01   3.0293536e-01  -5.4928975e-01   3.9948294e-01  -9.2458634e-03  -5.1429280e-01   2.7463957e-01  -8.2323085e-01   1.3528381e-01   5.2657086e-01   2.3501073e-01  -8.3662558e-01  -8.4400534e-02  -6.4404601e-01  -7.5654306e-02  -7.7092616e-01  -1.7471853e-01   1.7036019e-01   2.3901342e-01  -9.0577508e-01  -3.8622756e-01   6.0074794e-01  -8.5442286e-01   8.8538660e-01   4.4938162e-01  -8.3874344e-01   6.2592283e-01   5.5640026e-01   5.8646810e-01  -7.4917004e-01   3.6122585e-01   4.1125510e-01   4.5107227e-01   4.0613126e-01  -8.6026721e-02   6.0854828e-01  -2.3964781e-01  -7.9671861e-01  -7.9144031e-01  -1.1575983e-01  -2.5618325e-01   5.1906700e-01   3.1849653e-01   9.3730626e-01  -2.6683001e-01   2.1078128e-02   8.4027867e-01   6.1019389e-01   1.1565676e-01  -8.8474782e-01  -2.8878835e-01  -6.3531454e-01  -3.3971956e-01   7.6669432e-01  -5.4682414e-01   3.5975792e-01   9.3736645e-01   3.1450390e-01  -2.4516260e-01   4.2340948e-01  -6.7946668e-01   2.9078787e-01   4.4152683e-01  -8.3253019e-01  -7.6559568e-01   8.9494516e-01  -7.7270273e-01   6.1522520e-01   6.1476139e-01  -5.2102224e-02   1.6835738e-01   2.4782971e-01   7.5217774e-01  -8.6548130e-01   4.3669624e-01   1.1552112e-01   3.1620355e-01  -6.6284158e-01  -2.4670844e-01   9.6074744e-01   5.5812082e-01  -3.2121453e-01   4.6836925e-01   7.2620484e-01  -6.6592558e-01  -1.1660276e-01   8.1390042e-03   8.7443954e-01   7.0059529e-01  -7.0987473e-01   1.3812290e-01   3.6515823e-02   2.6688025e-03  -9.8757172e-01  -4.3567316e-01  -2.9027900e-01  -4.5848878e-01  -3.1181009e-01   8.3467679e-01   9.4652126e-01  -9.3279256e-01   4.6609576e-01   7.5360179e-01   6.4289042e-01  -9.0964678e-01   1.8292364e-01  -8.5436329e-02   8.9032907e-01  -3.6360897e-01  -8.2425868e-01   2.2197245e-01   2.3747325e-01  -4.5169736e-01   1.6510773e-01  -4.9762873e-01  -5.2571753e-01  -6.1751154e-01   3.8843979e-01  -3.5078895e-01  -3.5946668e-01   5.0890019e-02  -6.0559640e-01  -1.6163045e-01  -6.6603367e-01  -4.6207014e-01  -1.8847880e-01   7.5234367e-01  -9.3082367e-01   5.4965394e-01  -8.3313494e-01  -3.3936926e-01  -6.5459551e-01   6.2002485e-01   3.5662492e-01  -8.4054917e-01   6.3310073e-01  -4.1603274e-01  -2.9458254e-02   6.5690149e-01  -3.2194323e-01   1.5769207e-01   2.0546609e-01   7.6801149e-01   5.7504559e-01  -9.0851719e-01   2.2428315e-01  -4.7640874e-01   6.5859732e-01  -8.6098674e-01   6.1853149e-01   4.6505940e-02  -2.6496513e-01   9.3773679e-01  -6.8598247e-01   2.1851610e-01   4.7353170e-01  -7.2963806e-01  -4.6319144e-01   6.7401559e-01   6.3756403e-01  -5.5496604e-01  -4.4899055e-01   1.3308023e-01  -2.5245737e-01   1.9430151e-01   2.6552497e-01  -1.1906973e-02  -6.5485691e-01  -4.0319438e-01   2.6821738e-01  -1.2112026e-02  -7.9475213e-01   2.1595460e-01  -1.9756210e-01  -3.3485077e-01   1.2491368e-01  -2.3328377e-01  -2.8362532e-01  -4.3027827e-01   8.4693936e-01   9.9706328e-01  -4.1425687e-02   6.1267864e-01   8.5370637e-01  -3.9919894e-01   5.5648081e-01  -2.9111004e-01   8.3733725e-01  -9.9375164e-01  -3.1495968e-01   8.4023890e-01  -4.8285687e-01  -4.5451389e-01   5.3392757e-01  -1.3638870e-01  -8.8181474e-01  -7.8930290e-01   1.0689693e-01   5.0479693e-01  -7.2792086e-02  -5.0920648e-01   2.9024452e-01  -3.7077384e-01  -8.8197814e-02  -3.6379437e-02  -6.2653021e-01   5.4605533e-01   6.4297548e-01  -4.3578159e-01  -4.0390991e-01   1.0395557e-01   8.4267338e-01   6.9221802e-01  -1.1367173e-01  -3.0509306e-01   1.9795111e-01   3.7533313e-01  -8.7013781e-01  -9.3724187e-01   3.4512841e-01  -5.7201772e-01  -9.6611350e-01  -3.2510200e-01   6.2739268e-01  -5.2574438e-01  -8.9562423e-01  -2.1904479e-01  -3.1183623e-01   6.1841771e-02  -3.4648285e-01   8.9831726e-01  -5.0305098e-01   4.3338413e-01   4.4427398e-01   7.9466027e-01   3.8128921e-01   8.6533951e-01  -3.3564845e-01   9.6269347e-01   5.4527603e-01   8.8727104e-01   9.0255042e-02   6.7506833e-01  -9.3890606e-02   5.4789846e-01   5.5628627e-01   1.2034857e-01   1.7351418e-01  -7.3885093e-01  -3.1600052e-01   9.4916525e-01  -9.2179574e-01   8.0294162e-01   8.9474498e-01   8.4100077e-02   1.6870370e-01  -4.9438630e-02   2.6771588e-01  -9.7415167e-01   8.6418011e-01  -3.1117133e-01   2.9241090e-01   8.1928706e-02  -4.6936766e-01   9.8881989e-01   8.3608273e-01   4.6599121e-01   4.3381785e-01  -6.5796619e-01  -6.7008029e-01   3.5449791e-02   8.9527514e-02   4.8060820e-01  -1.4684731e-01   7.9879189e-01  -1.6363298e-01   4.0787220e-02  -6.4409197e-01   9.0027791e-02  -7.1530151e-01  -3.7861393e-01   8.3061847e-01   9.1736352e-01  -2.8276640e-01  -3.3643962e-02   1.9506091e-01  -2.0516215e-01   6.4230398e-01  -4.1453061e-01   3.8577582e-01   8.5085544e-01  -7.2115432e-01   8.9104996e-01  -6.7069943e-01  -5.4275135e-01  -5.5261011e-01   8.1924472e-01   4.0873214e-01   7.0057468e-02   2.7228653e-01  -9.7007617e-01   5.8299156e-01   9.8153432e-01   2.1772724e-01   2.7756168e-01  -3.4694811e-01  -5.0974204e-01  -4.8651088e-02  -6.8246015e-01  -9.2262524e-01   4.7458005e-02   3.3655816e-01  -6.9981417e-02  -8.7174036e-01  -2.8668376e-01  -7.7584146e-01  -7.5747062e-02   7.2191961e-01  -4.5477758e-01  -7.4757580e-01   8.0172303e-01  -9.6993138e-01   7.9429057e-01  -7.2258276e-01   1.4365111e-01  -7.9265098e-01  -5.6935944e-01  -5.9905373e-01  -7.1953624e-01  -3.0801382e-01  -6.3280922e-01  -1.8968465e-01  -4.8690502e-01   4.2264265e-01  -4.0366498e-01   4.3320030e-01  -2.6223195e-01   3.8092993e-01   9.2511535e-01  -4.5740120e-01  -1.1233455e-01   5.3300870e-02  -8.1650552e-02   2.7269505e-01   1.1865026e-01   1.1655138e-01  -9.2043583e-01   7.5035612e-01  -4.9799684e-01  -8.8986538e-01  -4.4459943e-01   2.1138313e-01  -9.8731790e-01   1.0815846e-01   5.2291430e-01   2.4225715e-01   3.1137354e-01  -7.2849914e-01   8.7882205e-01  -9.3935378e-01  -4.1704250e-01  -9.6050635e-01  -7.7575572e-01  -8.6299015e-01   5.5399416e-01   5.2998799e-01  -7.0356559e-01  -4.7987475e-01  -9.2685261e-01  -5.7037390e-01  -3.8816701e-01  -7.4253955e-01   8.7746013e-02  -4.9536255e-01   9.0920767e-01  -3.1531919e-01   6.2482733e-01   9.4967982e-01  -2.4978959e-01  -2.6122003e-01   4.9947526e-01  -4.6208383e-01  -4.1819882e-01  -8.2915590e-02  -4.7404804e-01   4.5524902e-01   2.7374106e-01  -7.9275645e-01  -7.0039156e-01   4.3770320e-01   4.5010081e-01   3.4903904e-01  -6.1882721e-01  -8.4833591e-01   4.2514195e-01  -3.4420571e-01  -1.4164235e-01  -4.2697942e-01  -5.0423024e-01   8.1721741e-01  -1.3265213e-01   9.2842462e-01   4.3053238e-01  -2.3251352e-01   9.9957470e-01  -9.2498276e-01  -9.3353019e-03  -1.9191957e-01   5.0049189e-01   3.8731081e-01  -6.3854558e-02  -2.4709730e-01   2.9748965e-01   7.0333843e-01   2.2554112e-01   1.7649091e-01   9.3835363e-02   3.1631380e-01  -1.8346054e-01  -3.3068837e-01   9.1575572e-01   6.4446795e-01   5.7165548e-01   3.8839923e-01  -7.3610842e-01   2.7146254e-01   4.8724494e-01  -7.6633120e-01  -7.2792978e-01  -1.7293401e-01  -2.7098580e-01  -4.0496995e-01   8.1655147e-01   1.7883084e-03  -2.5952215e-02  -7.8948758e-01  -7.8890045e-01  -1.7689741e-01  -3.7694478e-01   2.8055741e-01  -8.3369442e-01   5.6358571e-02   6.4529526e-01  -4.3379158e-01   4.8717036e-01  -2.5738741e-01   4.8455365e-01  -3.2318441e-01   4.2999369e-01  -8.7627494e-01   2.6909600e-01   5.0776844e-01  -8.4779392e-01  -5.1686979e-01   5.8697611e-01  -7.2214271e-01   7.3112769e-01   3.2007133e-01   8.4891253e-01  -9.8255431e-01   8.4588361e-01   4.5885935e-01   3.0166801e-01   2.7472907e-01  -8.2078125e-01  -5.2437860e-01  -5.2520746e-01   5.2179166e-01   2.9564848e-01  -9.6857954e-01   9.7799288e-01  -3.7211953e-01  -4.4166781e-01   6.8759090e-02  -7.5549985e-01  -1.1057020e-01   6.6027363e-01   7.3591286e-01  -6.5968778e-01   8.7697141e-01  -3.1892959e-01   4.9347645e-01   3.9394632e-01   1.9429235e-01  -2.3561913e-01  -6.4955447e-01   7.3103182e-01   9.1577503e-01   6.0168344e-01   7.2881586e-01  -9.7142064e-01  -8.5777784e-02   8.3512006e-01   9.7514577e-01   7.2964481e-01  -8.4167284e-01   3.8921285e-01   7.7270666e-01   4.9494438e-01  -4.1151100e-01   6.6938486e-01   3.0172427e-03  -6.3468037e-01  -9.4389815e-01  -3.8868397e-02   6.6254105e-01  -2.4616850e-01  -1.2788827e-01   8.4870831e-01  -6.5836884e-01  -8.8707366e-02   7.6420609e-01   9.4484807e-02  -8.8191555e-01  -3.2501334e-01   6.4260427e-01  -6.8033709e-01  -1.3057122e-01   8.1970778e-01   3.1077888e-01  -1.3763338e-02   7.5920026e-01   4.0677009e-01   6.9764180e-01  -4.7092040e-01   3.6626343e-01  -5.4472634e-02  -3.5388123e-01   1.8758670e-01   5.8423172e-01   3.8791309e-01  -2.9881260e-01  -6.0946877e-01   2.5520829e-01  -1.0065159e-01  -8.8264523e-01   5.7074402e-01   3.5091439e-01  -7.7222528e-01  -6.1159760e-01  -5.6166841e-01  -6.5097124e-01  -2.9188753e-01
