   3.7925670e-01   4.0730390e-01   6.5808524e-01   4.2615391e-01  -9.5706890e-01  -1.4335825e-01  -1.1966669e-01  -5.7231513e-01  -3.8588479e-01   4.4664442e-01  -9.4318872e-01  -2.0703611e-01   1.2593660e-01  -8.2313189e-01   3.4641710e-01   7.1516931e-01   7.5097681e-01   9.3075529e-01   1.8629165e-01  -5.4932295e-01   8.1772646e-01  -1.6049905e-01   4.3195567e-01  -4.5904505e-01   3.6076669e-03   7.0197135e-01   8.3463191e-01  -2.2342674e-01  -2.3471174e-01  -1.1846197e-01  -2.0529274e-01  -1.7529908e-01   6.9657198e-01  -5.2210814e-01   6.0007860e-01  -9.9505208e-01  -2.9115408e-01   8.3752979e-01  -6.0020968e-01   7.9790963e-01  -1.8247096e-01   3.9892657e-01   1.6962272e-01  -8.3797529e-01   5.0042071e-01   8.3851720e-01   9.5507344e-01  -6.6862011e-01  -4.2821238e-02  -5.0603113e-01  -5.4987766e-01  -8.0652867e-01  -9.8571394e-01   5.3092359e-01   5.6053842e-01   2.6495589e-02   3.4697231e-01   6.9535592e-01   8.4554283e-01  -3.7974439e-01  -6.8446616e-01  -5.8293876e-01   5.7774953e-01  -9.4425381e-01   2.8629695e-01  -9.7684868e-01   4.8142675e-01  -9.9227596e-01  -4.2859151e-01   7.0621538e-01  -5.5736260e-01  -5.9634782e-01  -8.0155422e-01   3.2200584e-01  -3.6168573e-01   5.6362940e-01   8.2516675e-01   1.7450209e-02  -3.3693332e-01  -1.6359536e-02  -2.4536120e-01  -9.6409754e-01  -1.9373955e-01  -9.8547725e-01   8.7382109e-01   4.8549621e-01  -6.6008516e-01  -1.5257636e-01  -3.6780689e-01  -3.6305792e-01  -7.7655751e-01  -2.6365307e-01   4.9772082e-02  -5.1245900e-01  -5.3185837e-01   7.3670334e-02  -1.4094382e-01  -4.5579205e-01  -5.7909602e-01  -2.8059912e-01  -2.1711734e-01   8.5246361e-01  -4.3583699e-01   1.0042218e-03  -7.2018244e-01  -7.2372488e-01  -5.5325490e-01  -1.8600592e-01  -1.2260885e-01  -2.0916923e-01  -2.9905508e-01  -2.5073364e-01  -6.0026053e-01   3.1528326e-01  -1.3728370e-01   8.4097814e-01   2.9327949e-01   8.1152016e-01   4.9576032e-01   9.7306467e-01  -2.3001568e-01   1.8709735e-01  -2.3402447e-01  -2.3354471e-01  -4.4172033e-01  -5.0607659e-01   6.1729939e-01  -4.0811461e-01  -1.4821936e-01  -9.3956836e-01  -9.4935935e-01   2.7369248e-01  -6.6219744e-01   1.6664095e-01   9.2963830e-01   8.5390895e-01   6.1176049e-01   1.5990986e-01  -7.0136723e-01  -4.4519520e-01  -9.6140405e-01  -3.7948120e-01  -7.7680851e-01   2.9578136e-01  -8.9678376e-01   4.4409325e-01   9.3544445e-01  -9.7557995e-02   6.0520617e-01  -5.7434605e-01  -9.6612860e-01   5.6613557e-02   1.1130839e-01   9.2261969e-01  -3.7098049e-01  -9.6464685e-01   5.1346988e-01   1.1107140e-01  -2.2611617e-01  -9.0579018e-01   3.5108609e-01  -8.4690290e-01  -5.3642171e-01  -3.6793403e-01  -6.2163041e-01   4.1913668e-01   4.2542274e-01  -3.2980986e-01  -5.7673312e-01  -4.4481743e-01  -1.7076590e-01  -7.8274667e-02   9.7814205e-01   2.3680318e-01   4.3982663e-01  -6.0145369e-01  -7.1380986e-01  -9.3965254e-01   6.5519906e-01  -2.9306735e-01   7.3375007e-01   4.9469983e-01  -3.7785162e-02  -1.8366507e-01  -4.9929816e-01  -1.0457103e-01   1.3853124e-01  -6.8449079e-02   5.6575811e-01   6.1702168e-01  -3.0799094e-01   2.4184514e-01   7.4602179e-01   9.0741099e-01  -7.1193394e-01  -2.9104420e-01  -4.9425966e-02   9.0232361e-01  -2.1627860e-01   1.5687385e-01  -1.1244678e-01   2.6894559e-01   6.2745096e-01  -7.4985754e-01  -2.1925695e-01  -1.3202270e-01   2.3241938e-01  -2.8847524e-01  -4.3781002e-01  -9.5690940e-01   5.2115660e-01  -3.7113847e-01  -7.5153217e-01  -7.4146963e-01  -2.3880430e-01  -4.7451496e-01   8.4414297e-01   1.3338938e-01   7.6382685e-01  -1.7390043e-01  -1.5292946e-01  -6.0200306e-01  -9.4141692e-01  -8.2899226e-01  -6.5633498e-01   1.8423084e-03   7.3267901e-01  -4.3320038e-01  -6.5167198e-01   1.9589688e-01  -3.3852581e-01   9.8869342e-02   6.5787992e-01  -4.7164757e-01  -3.3437990e-02  -9.5771623e-01  -2.3141744e-01   2.2135995e-02  -5.2279352e-01  -2.4317951e-01   9.2978574e-01   8.6034673e-01   9.9356376e-01   4.7372962e-02   6.5506784e-01   4.2627885e-01  -4.3628406e-01   2.6785301e-01   5.1095240e-01   9.2655541e-01   5.6118375e-02  -1.7952590e-01   6.3115365e-01   1.8978573e-01   3.9671475e-01   9.0670845e-01   1.8840243e-01  -6.6874143e-01   2.7311297e-01   5.3633859e-01  -5.5430742e-01  -6.0106866e-01  -8.6507696e-01  -2.9002898e-01   6.4836373e-01  -4.5945891e-01  -1.0063789e-01   3.0236798e-01  -2.1996928e-01   4.4267240e-01   9.3672844e-02   9.0863479e-01  -5.9812347e-01  -1.4529169e-01   9.0971177e-01   6.2047469e-01  -8.1108192e-01   3.8851519e-01   2.9834003e-02   7.1095754e-02   6.0811002e-01   8.9990831e-01  -2.2014506e-02   4.2126782e-01  -8.4477750e-02  -5.2514355e-01   7.3639829e-02  -8.7277968e-01   3.8794145e-01   2.4414282e-01   8.0755467e-01   9.2427370e-01   4.0935135e-01   2.6374619e-02   2.1837878e-02  -2.6938925e-03  -3.0069444e-01  -1.6047600e-01   3.9865367e-01   1.9366973e-01   3.7914833e-01   6.8625588e-01   1.8803930e-01   5.2627908e-01   9.4135909e-01  -8.5356182e-01  -2.7626859e-01  -5.8352389e-01   8.3323839e-01  -5.7458136e-01   6.9956298e-01   3.1761519e-01  -3.2630737e-01   6.4626464e-01   3.8701726e-01   9.5031139e-01  -7.1381693e-01  -2.3659662e-01   3.4776273e-01   5.4539023e-01   1.5749383e-01  -9.9772818e-01   8.8062647e-01  -1.0673820e-01   3.3640351e-01   2.2796554e-01  -3.1021486e-01  -1.9898602e-01   8.8914985e-01   8.6225648e-01  -8.3697483e-02   5.6815983e-01   8.3888057e-01   5.0425340e-01  -2.9550378e-01   3.3157662e-01  -3.0397012e-01  -5.1933431e-01   9.8391210e-01   9.9242579e-01  -8.9203241e-01   4.5932030e-01  -6.7369865e-01   3.0826289e-01   1.7922296e-01   7.3223948e-01   9.7932385e-01  -7.0192033e-01   7.4009594e-01   3.6786592e-01  -8.4195733e-01  -5.8086434e-01   6.9696763e-01  -3.6248819e-01  -6.1695380e-01   3.1073915e-01   3.8587931e-03  -8.2286091e-01  -9.2761008e-01  -7.9565066e-01  -1.2198041e-01  -1.6553993e-01   4.3695221e-01  -3.9067815e-01   8.0456296e-01   8.4990381e-01   4.3473363e-01   6.2861741e-01   5.3036449e-01  -2.8735761e-01   5.8410583e-01   2.7452165e-01   7.2290350e-01  -1.3671446e-01  -4.4348027e-02   8.6365915e-01   1.1784149e-01  -3.5375487e-01  -1.7972854e-01   8.8475442e-01  -9.4433956e-01  -5.3142591e-01   6.6969893e-01   1.0262400e-01  -4.7769885e-01   2.5559721e-01  -5.4673386e-02  -8.9713462e-01  -5.5032162e-01   2.9820422e-01   5.2017570e-01  -2.1506308e-01  -7.3277225e-01  -8.8581713e-01   9.4656567e-01  -1.7354917e-01  -7.5093108e-01   7.7901454e-01   3.6668554e-01   5.5480520e-01   5.1127385e-01  -5.0550073e-01  -7.4674575e-01   2.2407547e-02   6.6038528e-01   6.0355138e-01  -2.6235216e-02   4.2685859e-01   2.8229637e-01   1.8464525e-01   9.2476744e-01  -4.8298781e-01   9.9731020e-01   3.7497442e-01   9.2026781e-01  -8.3918922e-01   1.1885876e-01   7.8821845e-01  -8.1602810e-01   4.2304989e-01   4.8486580e-02  -6.4197336e-01  -3.3960644e-01   1.6137452e-01   9.4153766e-03   5.5604556e-01   4.6252420e-01   7.2337031e-02   6.5707001e-01   9.8152593e-01  -4.6468212e-01  -5.9684760e-01   4.7064086e-01   1.2963324e-01   6.2310997e-01   6.2349007e-01   6.9736882e-01  -7.3102999e-01  -8.2683595e-01   9.9944864e-01  -7.4640747e-01   1.8289582e-01   8.2348354e-01   5.8001020e-01   8.7203329e-01  -4.9910437e-01  -6.0810162e-02   7.0836788e-01   4.0163100e-01   6.8821209e-01  -7.8561566e-02   1.4299731e-01   6.2837480e-01   2.9906666e-01   2.1409009e-02   1.8262862e-01  -7.8276986e-01  -7.8771157e-01  -4.9893975e-01  -7.0870217e-01  -2.5591098e-01  -9.6550349e-01  -9.2949677e-01  -3.5122135e-01   6.6962113e-01  -7.8821688e-02  -6.3981335e-01   5.5603702e-01   4.3168636e-01  -9.3396977e-01   3.1087097e-01  -1.3457010e-01  -5.3688281e-01  -4.8238238e-01  -2.6996038e-01  -1.9900971e-01  -3.4144578e-01  -8.5757100e-01  -4.0402437e-02   3.5397467e-02   9.9563682e-01   7.0779716e-01   9.7889247e-01  -6.6542116e-01   4.5497389e-01  -3.7527025e-01  -7.8149672e-01  -3.0240200e-01   3.8154839e-01   6.5855670e-01   2.7546720e-01   6.2811764e-01   5.6739429e-02  -1.1131496e-01   3.2782501e-01  -1.2829758e-01  -6.0420700e-01  -1.3306984e-01   1.6601676e-01  -7.0309213e-01   2.3297800e-01  -2.4590637e-01   5.7504736e-02  -9.5629383e-03  -2.8487624e-01   5.9381361e-01   4.3639749e-01  -2.8660246e-01  -1.1541933e-01   9.1212567e-01   9.8134035e-01   1.0362595e-01   6.6583687e-01   9.4352444e-01  -5.4760961e-01  -2.3686524e-01   7.1610807e-01  -7.5782681e-01   1.3415265e-01   1.7254684e-01  -6.7568325e-01  -9.5334335e-01  -5.6551396e-01  -1.5430359e-01  -2.0129832e-02   5.8995981e-01   1.4316422e-01   8.2188013e-03   6.0427736e-01  -8.8831328e-01  -3.1441274e-01  -6.1385886e-01  -3.5091719e-01  -9.9057452e-01  -8.9990804e-01   5.6019344e-01   6.1802377e-01   9.1935058e-01   5.3653397e-01  -1.1093800e-01  -5.7039598e-01   7.9389955e-01  -4.6371147e-01  -7.1624159e-01  -5.7891421e-01  -9.1298654e-01   5.8306164e-01   2.6787091e-01   1.2525276e-02  -5.9606485e-01  -3.5409091e-01  -1.8876934e-02   3.1659896e-01   2.7852888e-01  -2.7458812e-01   6.0001833e-02   4.3451173e-01  -9.5184609e-01   9.6143368e-01   1.4887328e-01   8.8153966e-01   9.1598470e-01  -9.9211528e-01   2.9948999e-01   1.9373357e-02   2.5682830e-01  -3.2616288e-01   9.5955728e-01   4.4432482e-01  -3.7513706e-01  -1.0720893e-01   9.3432039e-01  -8.5590064e-02  -7.3302108e-02   9.5631942e-01   5.0045909e-01   9.1924231e-01   5.2354287e-01  -5.8437020e-01   5.7398286e-01   5.0880746e-01   2.8781397e-01   4.6538087e-01  -3.0510750e-01  -6.4184956e-01  -1.5047683e-02   5.2996846e-01   9.7360567e-01   6.0501049e-02   9.7198731e-01   1.9149803e-01   8.3686056e-01   5.2880720e-01   1.4243288e-01   5.5118572e-01  -6.5092681e-01   3.1395252e-01  -2.4587388e-01   6.9705705e-01   5.3941760e-01   6.2717847e-01   3.1722583e-01  -4.1841806e-01  -6.5857787e-01   2.1530186e-02  -3.4269081e-01   4.2767901e-01   9.5337218e-01   6.5476621e-01  -2.6225390e-01   7.7218474e-01   3.3691470e-01   4.6373334e-01   1.2514272e-01   5.2419255e-01  -3.7622431e-01   9.8515727e-01   1.3506667e-01  -6.5923149e-03  -7.0031427e-01   3.6796185e-01  -7.6263611e-01   2.4901745e-01   1.2347727e-01   5.9677061e-01  -2.3615689e-01  -4.7043166e-01  -4.2745044e-01  -8.4840155e-02  -5.9032194e-01  -6.7785579e-01   7.4869008e-01  -3.6575309e-01   3.3189115e-01   5.2536962e-01  -7.6404149e-02  -6.8612031e-01   9.2454319e-01   7.1960714e-01  -8.1208556e-01   5.1609745e-01   7.0759174e-01   7.4092800e-01   2.7475825e-01   7.2092754e-03   2.5694365e-01   8.4117131e-01   5.5144025e-01  -2.4958117e-01   3.1033310e-01  -4.0185437e-01   6.7849981e-02   5.5796000e-01  -9.7915070e-01   5.8781599e-01   9.5330582e-01  -9.3954282e-01  -3.8122028e-01  -1.0013729e-01   7.4557080e-01  -3.5221649e-01   2.9745333e-01   9.4329537e-01   5.4500624e-01  -7.5713249e-01   8.9234587e-01   7.7141733e-01   4.3719605e-01  -1.8830547e-01  -5.1578706e-01   3.0803858e-01   6.6631640e-01  -5.1133179e-01   4.6821894e-01   8.3752110e-01   3.8549573e-01   6.4782487e-01  -6.2072152e-01  -2.9638657e-01   8.2203522e-01  -1.2863773e-02   1.8432158e-04  -7.6989576e-02   1.6826959e-01   2.2862896e-01  -3.7387199e-02  -8.8693822e-01   5.3330412e-02   7.8366467e-01  -2.3988882e-02  -2.7998877e-01  -5.0135339e-01   1.7349372e-02   5.5056055e-02  -5.7403983e-01  -4.2023618e-01   2.5054279e-01  -8.9196102e-01  -5.7451160e-01  -9.0857736e-02  -3.9678264e-02  -4.9765132e-01   9.3632421e-02   5.6192222e-01   3.5577770e-01   1.1501312e-02  -9.1302634e-01   7.5151042e-01  -3.1793850e-01   5.2804709e-01   7.0255835e-01   9.8636952e-01  -2.5054133e-01   4.8148976e-01   6.5868552e-01  -1.9053496e-01  -3.1254817e-01  -7.4862763e-01  -5.4370671e-01  -3.0569028e-01  -8.6855632e-02  -2.4066799e-02  -4.3210968e-01  -9.4921074e-01  -9.6858113e-01   9.4294309e-01  -5.7756147e-01   4.0599588e-01  -9.2430692e-01   6.7820701e-01   2.8246393e-01  -5.6314776e-01   7.6962373e-01   9.8394794e-01   8.9597361e-01  -5.1744988e-01   5.5505402e-01  -9.6579588e-01  -7.2080930e-01  -8.1952088e-02   8.8827760e-01   3.8189859e-01   1.6763440e-01   2.1844085e-01   5.9830277e-01   1.2960019e-01   9.9797843e-01   6.1662392e-01   5.6536586e-01   2.4742367e-01  -6.4002335e-01   7.5253112e-01  -2.7477509e-01  -4.6682238e-01   7.7023993e-01  -2.1481304e-02   1.8573501e-01  -1.9261567e-01  -1.1896873e-02   1.1080519e-01  -8.8507587e-01   3.5707273e-02   1.4133913e-02   1.7346010e-01   9.2423379e-01   2.1299655e-01   3.4930149e-01   6.8073972e-01   3.3947327e-01  -1.1407911e-01   5.8387670e-01   7.5156563e-02   1.4187826e-01  -3.3751451e-01   1.3223425e-01   6.7644518e-01  -1.9709973e-02  -2.7611115e-01  -7.6721931e-01   3.6697682e-02  -2.7560181e-01   6.1883353e-01  -5.6979714e-01   6.9867516e-02  -3.6012593e-01  -3.4717652e-01  -9.4039689e-02   1.6111087e-01   1.8091064e-01   2.1634381e-01   9.9524453e-01  -3.8630387e-01   9.4051583e-01   4.3531334e-01   3.0722061e-01   1.8392214e-01  -2.0819732e-01  -6.5613337e-01   3.4919123e-01  -5.4255115e-01   8.0542404e-01  -6.7703765e-01   8.6567503e-01  -7.7994418e-01   3.6931822e-01  -9.1522840e-01   3.1399508e-01  -5.8644812e-01  -1.8966083e-01   5.4378063e-01  -7.7464712e-01  -1.4670567e-01  -2.0061208e-01   4.4962344e-01  -8.4132240e-01  -3.6880208e-01   2.1168863e-01   1.5482980e-01   8.0931190e-01   3.9890037e-01   2.3547692e-02   7.5198859e-01  -9.4823644e-02   5.3224504e-01  -6.3834444e-01  -8.4052319e-01  -1.5062405e-01   1.9064333e-01  -7.0357898e-01   5.1285178e-01   7.0717872e-01   6.0782130e-01   4.5450195e-01   2.6111797e-02  -4.0627762e-01   2.7523512e-01  -3.4805099e-01   4.4488516e-01   9.8248182e-01   3.5024629e-02   4.3456520e-01   6.4878027e-01  -5.0100123e-01  -8.7211016e-01  -5.9911043e-01   1.0031573e-01   3.3019355e-01  -6.0476812e-01   4.0489458e-01  -6.9764448e-01  -7.2474714e-01  -5.9491731e-01   1.5207625e-01  -3.8434447e-01   5.9452159e-01  -9.7560954e-01  -4.5521213e-01   3.3782093e-01  -7.9062724e-01   6.8647374e-02   9.4069319e-01  -2.0668021e-01   4.2742702e-01   3.6902375e-01   2.5908071e-01  -9.8579125e-01   8.2821181e-01  -3.2157667e-01   1.5353442e-01  -3.8228298e-01  -2.7410349e-02  -7.3616333e-01  -1.7121827e-01   9.9156670e-01  -1.2036921e-01  -3.9902597e-01  -7.3996965e-01  -6.0303093e-01   3.5875235e-01   3.3358923e-01   1.1596728e-01  -5.1137737e-01  -3.8957057e-01  -6.3977017e-01   4.2140347e-01  -1.7052247e-01   5.6974353e-01  -4.5218439e-02  -6.1158699e-03   3.9516638e-02   7.0852862e-01   8.7632953e-01  -3.6490159e-01   5.9154010e-01   8.1784243e-01  -2.5222176e-01   5.7463966e-01   6.2114052e-01   1.2348639e-01   5.5261832e-01  -7.3537457e-01  -6.2391094e-02  -5.6662457e-01   9.1910741e-01   9.0189240e-01   4.8932815e-01   5.5601404e-01  -2.0525577e-01  -5.3070168e-01   1.3421915e-01   7.4114271e-01   4.0638037e-01  -5.3621888e-01  -6.8826282e-01   5.0451151e-01  -1.9466383e-01   2.5587905e-01  -6.5658305e-02  -5.2125012e-01  -2.8353428e-02   5.6518720e-01  -7.4684422e-02   8.9740647e-01  -7.4901847e-01  -5.1643734e-01   9.4682381e-01  -3.5534453e-01  -4.7070126e-02   1.1378683e-01  -7.4020077e-01  -2.1291765e-01   5.4988144e-01   7.0791564e-01  -1.6393447e-01  -8.4439119e-01   9.0178063e-01   1.4476018e-01   9.7809116e-01   5.0627690e-01   1.6733901e-01   3.0350317e-01   8.0342958e-02  -9.7463685e-01  -2.6968516e-01   6.6497764e-01   2.9866570e-01   1.3075592e-01  -1.8648745e-01  -7.4832759e-01  -1.3880618e-01   1.0401591e-02  -8.7801532e-01   5.8304706e-01  -8.8706719e-01   8.8853122e-01  -8.6905081e-02  -4.3792201e-01  -1.4004262e-01  -9.5328658e-01  -2.0594152e-01   8.2929824e-01   7.9863015e-01   9.9931198e-01  -1.0505224e-01   9.0733340e-01   3.2497840e-01  -4.4576361e-02   3.2939539e-01   8.4298765e-01   7.9581473e-01  -7.9118641e-01  -3.3426598e-01  -7.2823925e-01   5.9832857e-01   6.5506893e-01  -3.9081272e-01   6.0159048e-01   8.1490323e-01  -2.7400688e-01  -3.0853573e-01   3.5636245e-01  -7.3118080e-01   9.8534561e-01  -6.0529719e-02  -9.3201019e-01  -9.0793380e-01  -7.2974647e-01   1.9601369e-01   9.3669390e-01  -9.1007210e-01   8.8243992e-01  -2.9381458e-01   7.5248240e-01   5.4704554e-01  -5.9738636e-01   7.6077982e-01   4.9840525e-01  -5.0476392e-01  -7.1298456e-01  -2.2715825e-01
  -4.8502187e-01  -1.0193353e-01  -1.9815176e-01  -6.8068012e-01   4.2523371e-01   7.7698153e-01  -7.2777871e-01  -2.4809501e-01  -4.1766959e-01   9.1747721e-01   7.7253744e-01   6.8822960e-01   5.0102614e-01  -9.5366674e-01  -6.4578061e-01   5.8611655e-01  -7.8780480e-01  -7.2297838e-01   6.4377747e-01  -6.6636646e-01  -6.5619858e-01  -1.0652296e-01   3.2688668e-01   7.8852261e-01   3.9805265e-01  -5.7414127e-01   1.4637022e-01   1.3715490e-01  -1.5756170e-01  -2.3232575e-01   2.3964144e-01   4.4530849e-01   2.4212290e-01   5.4641964e-01   9.2656868e-01  -4.3296372e-01   4.0201440e-01  -4.9493543e-01   1.6191469e-01  -8.2779004e-01  -6.0721162e-01   6.6756723e-01  -7.6152376e-01  -8.4966412e-01  -3.6702371e-01  -5.9668419e-01  -2.9546039e-02   1.5281360e-01   7.0881552e-01  -4.4391536e-01   2.1232330e-01  -4.2101592e-01   7.9652571e-01  -7.8740477e-02  -2.0104765e-01  -5.6868212e-01   6.5440585e-01   9.5721725e-01   7.0891662e-01  -4.7731370e-01   8.6257264e-01   8.5408830e-01   5.7871385e-01  -1.1995643e-01  -1.0386802e-01  -5.7906206e-01  -2.1960497e-01  -2.3127046e-01   6.3504221e-01  -8.7381197e-01  -5.1926522e-01   6.1814325e-01   5.3554053e-01  -3.0192902e-01   1.2538479e-02  -2.7833721e-01  -8.4277808e-01   8.1574225e-01  -1.6761297e-01  -3.7119744e-01  -4.7212944e-01  -3.1717945e-01   7.0449657e-01   6.5385397e-01  -2.6468445e-01   1.4066268e-01  -1.4352217e-01   5.8158568e-01   7.4389712e-02  -4.6187823e-01   8.4020309e-01   2.8299614e-01  -1.3042597e-01   2.1730563e-01   3.1759305e-01  -1.4210480e-01  -5.2574023e-01   7.9577316e-01   5.9145662e-01  -7.2146640e-01  -7.9065430e-01  -3.9654863e-01  -7.9268921e-01  -4.8288517e-01  -1.6318853e-01   7.4329783e-01   5.5492805e-01  -1.3682796e-01   1.0167389e-01   1.5081258e-02   8.5582479e-01  -4.9680625e-01   9.6585046e-01  -6.4311715e-01   4.8987408e-01   1.6285882e-01   5.9755516e-01  -3.8160062e-01   9.2464710e-02   6.6859178e-01   7.5482348e-01  -1.0191641e-01  -6.1368108e-01   1.5749245e-01   1.1616475e-01   3.0392532e-01   2.5459554e-01   2.3401926e-01   1.2373823e-01  -8.8609756e-02  -3.9611641e-02  -5.2354574e-01   8.7357115e-01  -6.8624490e-01  -5.8659981e-01   7.9972001e-01   9.4072472e-02   6.7472294e-01  -6.5705295e-01  -9.5806295e-01   1.7560683e-01   9.2808132e-01   4.5115835e-01   4.2411422e-03   8.9499838e-01  -2.0307803e-01  -4.8741837e-01   9.3206545e-02  -9.0625179e-01   9.2383333e-01   8.2982903e-01   5.4746781e-01   2.2475042e-01   9.7565043e-01  -2.2322648e-01  -6.6111688e-01  -6.9086313e-01   3.8167704e-01  -7.5445565e-01  -7.3168924e-01   9.0353767e-01   7.2586033e-01   4.5311333e-01   3.8155805e-01   1.3673694e-01  -6.4852167e-01  -3.1314925e-01  -3.7815432e-01  -7.0951077e-01   1.2813678e-01  -9.6593867e-01   3.6007784e-01   9.7015732e-01  -8.1943861e-01  -3.4136833e-01   1.0093519e-01  -3.3676868e-01  -3.3298636e-01  -1.7481122e-01   1.9497359e-01   7.8474592e-01  -4.4529916e-01  -7.1059995e-02   3.4050931e-01   3.6881344e-02  -2.2539617e-01   7.5756141e-01   4.9074837e-01  -7.8393222e-01   3.2634603e-01   1.8728051e-01  -3.5565662e-01   1.8523988e-01   8.5211389e-01  -8.1459180e-01  -5.2902224e-01  -3.1248311e-01   1.8566451e-01   5.6507867e-01  -2.7453553e-01  -8.2384756e-01  -9.5437450e-02  -4.7286664e-01  -2.8157879e-01   6.0182993e-01   5.2758262e-01  -9.5092915e-01   9.8319735e-01   4.5179549e-01   3.3815057e-01  -1.0633823e-01  -7.8253120e-02  -5.3954519e-01   5.7468805e-01   3.8992043e-01   3.8276996e-01  -5.9961121e-01  -7.7061911e-02  -1.9691465e-01   9.5459691e-01   9.8512822e-01   5.3503870e-01   3.0532628e-01   3.8004114e-01  -4.4579231e-01  -7.3865643e-01  -9.3018824e-01  -1.1759727e-01  -6.5648123e-01  -3.6314808e-01  -9.8149521e-01   9.1300488e-01   4.3718339e-01   2.1207907e-01  -4.8332035e-01   5.7464854e-02  -3.8157873e-01  -2.8262523e-01   5.7920826e-01  -5.7787358e-01   8.2026657e-01   4.1479087e-01  -1.5570375e-01   3.3677843e-01  -5.0907909e-02   1.4071949e-01  -6.8509574e-01  -5.4037170e-01  -5.2678661e-01  -1.0407517e-01  -5.8878137e-01   9.7562517e-01   5.4582050e-01   4.6259902e-01  -3.4322316e-01  -8.9399175e-01  -2.1716361e-01  -5.3459700e-01  -4.9815429e-01  -6.9233022e-01   3.1823956e-01   1.9481355e-01   4.3088523e-01  -7.5249579e-01   2.6247035e-01   4.0570020e-02   8.8500424e-01   6.3117300e-01  -8.6444802e-01  -2.7361861e-01  -6.9041679e-01  -4.8707994e-01  -7.8798203e-01  -6.3400776e-01  -9.7568414e-01  -4.4056847e-02   6.9712329e-01   1.9692619e-01  -4.7511236e-01   6.1284001e-01   7.4551373e-01   6.1710940e-01   1.7451774e-01  -4.7329911e-01  -7.8020861e-02   4.3913362e-01  -3.8141581e-01  -3.2307219e-02   8.6145920e-01   9.8542290e-01  -1.5817039e-01  -1.0621240e-01   6.4475475e-01   8.3120307e-01   6.7901597e-01   5.6577554e-01  -7.7843320e-03  -7.1349562e-01  -9.1514976e-01   9.4767877e-01  -8.1467474e-01   2.5953389e-01   5.2932984e-01  -8.5312567e-01   2.4273297e-01   2.3769039e-01   8.0675808e-01   3.7609550e-01   4.0758813e-01   5.0712728e-01  -6.8656173e-01  -5.0733465e-01   4.0504087e-01  -3.8834210e-01   8.2431213e-01   7.2404778e-01   8.9891861e-01  -3.5039197e-01  -1.6205205e-01  -1.9267677e-01   8.5429367e-01  -4.0305626e-01   1.7806909e-01  -1.0793729e-01   2.8049346e-01  -6.6665045e-01  -4.6246943e-01   4.7435925e-02  -6.4520708e-02   8.1419912e-01  -7.8181224e-01  -4.9300808e-01   6.9042439e-01  -8.9492666e-01   2.4684497e-01   9.2437901e-01   7.4362198e-01  -7.3070703e-01  -8.8220046e-01   3.9283138e-01  -2.8282373e-01   1.8735590e-01  -5.4030119e-01   9.1641025e-01   6.1238499e-02  -7.9970540e-01   8.3795421e-01   6.3824093e-01   6.1291011e-01   4.5005577e-01  -9.6097251e-01  -2.9985174e-01   3.0428173e-03  -3.2409200e-01   1.4922087e-02  -8.0365114e-01  -3.2019667e-01   6.9495259e-01   9.4714518e-01  -8.1099943e-01   2.9943971e-01   7.8305687e-01   3.6952472e-01  -5.3839111e-02   5.9268235e-01  -1.9231080e-01   6.3631946e-01  -2.3031489e-01   5.5737910e-01  -2.4193131e-01  -4.3279311e-01  -7.5548154e-01  -1.4275962e-01   8.8076521e-01   1.4260156e-01  -3.2338554e-01   1.0199458e-03  -6.5949349e-01  -8.1979051e-01  -6.8984564e-01  -9.0350412e-01   1.3941212e-01  -8.7041051e-02   8.3217210e-01  -8.7060354e-02   3.1931063e-01   3.6848822e-01  -5.4600241e-02   1.5115700e-01   7.8981254e-01  -6.7451751e-01  -1.8303373e-01   6.3172319e-01   4.2902007e-01   4.8347357e-01   6.4019478e-01  -3.3564251e-01   1.5198304e-01  -6.5403292e-01  -9.3639210e-01   7.7105104e-01   9.5209094e-01   9.3715086e-01  -4.0133187e-02   2.1143193e-01  -3.3549200e-01   4.5675242e-01  -1.5947151e-01  -8.5072879e-01  -9.0366738e-01  -1.7952748e-01   8.6114439e-01  -6.3863951e-01  -4.3591293e-02  -7.2418405e-01  -7.9062612e-01  -4.5528168e-01   6.1185012e-02   8.5331124e-01  -4.1275626e-01  -8.9355176e-01  -2.7564567e-01   9.3266549e-01  -9.6841745e-01   8.2001863e-01  -7.5700013e-01   6.8626854e-01   6.6080658e-01   2.8256368e-01  -4.7084921e-01   2.6677603e-01  -8.7197478e-01  -4.1385289e-01  -8.1730695e-01   9.1949213e-01  -8.8620093e-01  -9.2195940e-01  -6.0516784e-01   9.0441594e-01   3.3117560e-01   5.4598992e-01   7.7260818e-01   4.2174460e-01  -8.6501423e-01   2.1512082e-01   4.8919377e-01  -7.0910357e-01   6.7367456e-01   2.9829678e-01   6.3989202e-01   5.7585126e-01   5.3429251e-01   3.7317351e-01   1.7082463e-01  -1.3640825e-01   5.8668433e-01   5.8269526e-01   3.0841757e-01   4.3495131e-01  -8.1948187e-01   5.1191869e-01  -2.4384848e-01   3.3155195e-01   1.2766750e-01   6.0690674e-01  -8.0894637e-02   7.1191878e-01  -7.1176379e-01   2.9454860e-02   1.7569585e-01   3.2962936e-01  -1.1637524e-01   2.2636238e-01  -4.4612199e-01  -8.9166610e-01   5.0372490e-01  -8.9542887e-01  -1.4538492e-01  -3.8573035e-01  -8.7858977e-02   7.6006391e-01   6.9511641e-01   5.0908696e-01   2.9440570e-02   3.1039582e-01   3.0156006e-02   1.4980836e-02   8.5043836e-01   4.0539804e-01  -3.6649991e-01   7.5142654e-01  -1.1351493e-01  -7.7291123e-02   2.5514546e-01   8.6256861e-01   3.4925945e-01  -7.5863997e-01  -6.7535859e-01   3.1752362e-01  -1.9579143e-01  -7.5739741e-01   5.0389033e-01   3.0777866e-01   9.9459375e-01  -2.5324689e-01   4.3123960e-01  -7.4089527e-01   7.5099933e-01   8.1523005e-02  -5.9243160e-01  -9.0318628e-01   2.0229575e-01   1.8654965e-01  -6.3748287e-01  -8.9184137e-01  -8.5206552e-01  -2.8729685e-01  -9.6753822e-01  -6.4938298e-01   9.2959168e-01   5.9316680e-01  -6.6856044e-02  -5.4095308e-01  -4.5486379e-01   7.1867011e-01  -3.7507463e-01   3.7252762e-01   4.3412287e-01  -7.3315079e-01  -5.8114939e-01   6.2879170e-01   9.1550954e-01  -3.9006559e-01   6.1955756e-01   4.2278279e-01  -5.7806932e-01  -2.1878497e-01   6.8740555e-01  -8.4615435e-01  -8.1816708e-01  -1.1524311e-01   7.9098600e-01  -8.1284973e-01  -3.4423787e-01   5.8196174e-01  -1.9688609e-01  -1.4324138e-01   6.2127499e-01   8.8227696e-01  -6.3655495e-01   2.5657851e-01   4.6687611e-01  -2.7133498e-01  -6.4110801e-01   6.7055769e-01  -8.2333393e-01   4.0745629e-01  -3.5502689e-01  -6.6948821e-01  -5.1793729e-01   6.1282254e-01   9.8042847e-02  -2.8699064e-01   9.3233966e-01   6.5211236e-01   1.1522654e-01  -3.4006026e-01  -7.1743215e-01  -1.3309305e-01  -6.2994792e-01   9.6146019e-02   9.1310724e-01   2.6584682e-01  -8.9458709e-01  -3.5197218e-01  -3.8467249e-01  -2.0695483e-01   9.0446406e-01   6.8193522e-01   2.1916050e-01   4.8009036e-01   5.2867226e-01   8.7202450e-01  -1.8470140e-01  -2.9652462e-02   9.3181017e-01   2.0027386e-01   5.4745844e-01  -5.2102995e-01   2.2453702e-01  -3.4733949e-01  -8.0990296e-01  -2.6246614e-01   2.8055977e-01   1.7858361e-01  -7.1472431e-01   8.0740790e-01  -8.1011730e-02  -8.9866240e-01   2.1284000e-01  -5.5460879e-01  -3.3830756e-01   5.3438485e-02  -3.2686511e-01  -5.8764977e-01  -3.4490158e-01   4.9633964e-02   4.1411632e-01   2.5838258e-02   7.9408097e-01  -7.8574893e-01  -6.0193563e-02  -2.6372083e-01  -6.6334273e-01   7.3961128e-01   3.0360155e-02   2.8542744e-01   7.2307386e-01   5.7202022e-02   9.6053406e-01   7.1255388e-01   4.6637540e-01   9.3538344e-01   8.1380312e-01  -5.5063065e-01   6.9901617e-01   9.2615374e-02  -3.8281910e-01   6.8054970e-01  -9.8999436e-01  -3.9578085e-01  -5.9432574e-01   3.6302761e-01   5.8261300e-01   1.6190140e-01   3.9005835e-01   1.3288254e-01  -7.3729129e-02   2.0399777e-01   7.2242203e-01   7.5860205e-01  -3.7495860e-01   4.8326596e-01  -6.5616706e-01  -4.3930189e-01  -4.0141029e-01  -8.6292327e-01   7.3080521e-01   6.4673675e-01  -6.8861822e-01  -5.2013474e-01   9.3640923e-01   9.4850564e-01   5.9716653e-01  -8.9464437e-01  -3.4758704e-01   6.9600307e-01   1.9991575e-01   2.8539197e-01  -5.2401470e-01  -8.0983740e-02  -7.7015863e-02  -5.0020770e-01   8.4503966e-01   8.5515891e-01  -8.1304043e-01   2.5802388e-01   9.8958582e-01  -6.8061177e-01   5.4530136e-01  -7.3032955e-01  -9.4050962e-01  -8.9470245e-01  -4.0344700e-01  -8.0216836e-01   7.9453675e-01  -1.6177781e-01  -4.5583612e-01   4.5326858e-01   2.2327020e-01  -8.5380590e-01  -8.0043783e-01   2.5401832e-01  -8.5523883e-01  -8.2346594e-01  -9.6952639e-01   5.3470090e-01   3.2864547e-01   4.8810996e-03  -7.0908935e-01   2.2715592e-01   3.8059035e-01   6.0636833e-01  -3.7369237e-03   4.2607342e-01   3.0655365e-01  -4.0258612e-01   9.7399982e-01  -7.0680265e-01   4.6312857e-01  -9.0879415e-01   6.6266959e-01   6.0224783e-01  -1.9008325e-01   6.9918217e-01  -8.9736612e-01   4.0008856e-02  -7.2038299e-01  -1.3854227e-01  -8.5247383e-01   8.1775644e-01  -1.5247141e-01   7.8623799e-01   2.8271446e-01   3.9376759e-01   4.6416168e-01  -1.4911688e-01   8.9230509e-01   3.9512765e-01   3.2184515e-01   7.9114137e-01   1.9690370e-01  -4.5243485e-01  -1.9988912e-01   2.6716721e-01  -7.1687783e-01  -9.0030431e-01  -3.4788802e-01  -7.1365273e-01  -2.1456524e-01   8.9751014e-01  -9.8034088e-01   9.8212610e-01   8.4173571e-01  -1.7015319e-01   3.9297559e-01  -3.3189948e-01   6.5251971e-01   9.0777988e-01  -2.9384638e-01   6.6974946e-01   5.4362928e-01   4.8463933e-02   9.5371493e-01  -4.4751634e-02  -2.4237736e-01  -5.6279047e-01   6.0594300e-01  -7.1450563e-01   5.6133334e-01  -5.9804968e-01  -8.6789931e-01  -1.6462531e-01  -6.4914895e-02   3.7103412e-01  -6.5526490e-01  -3.7926775e-01  -6.4658970e-01   3.5269290e-01   2.2574482e-01   5.5222946e-01  -7.0075109e-01   2.4974765e-01   9.7565350e-01   7.8410296e-01   1.2620988e-01   3.8650902e-01   6.2061624e-01   7.3924957e-01   7.0476182e-01   9.4510693e-01   2.2193212e-01  -7.4005545e-02  -4.0501041e-01   6.0321427e-01   8.3214154e-01   8.8179371e-01   9.2724300e-01  -4.5331140e-01  -7.2594504e-01  -3.3592002e-01  -7.5708568e-01  -4.0069288e-01  -6.5974417e-01   2.2655782e-01   7.4356219e-01   9.3747951e-01  -2.8047344e-01   4.6598151e-01   4.0420888e-01  -9.7304697e-01   7.1884846e-01  -9.5539439e-01  -8.1805323e-01   9.4000736e-01  -1.6435376e-01  -7.6112405e-01  -1.4123512e-01  -9.1781807e-01   8.8353239e-01  -7.6555603e-01   5.9793227e-01   6.3534665e-01  -6.3456511e-01  -4.5640035e-01   7.2009682e-01   3.8480713e-01  -3.5279602e-01  -9.2115549e-01  -3.2364254e-01   5.4768026e-01   9.0828189e-02   1.4032579e-02   6.1729840e-01   7.4957205e-01   7.8000654e-01  -9.5992659e-01   4.0411309e-01   1.9237764e-02   6.5271714e-01  -6.5154732e-01  -3.6103519e-01  -9.3812383e-01  -1.3269404e-01  -3.6016764e-02  -1.1266178e-01  -9.5412720e-02  -7.8143095e-01  -6.9429460e-01  -6.2007165e-01  -5.3851186e-01  -1.6518794e-01   8.8545898e-01  -2.3936168e-01  -9.0573729e-01  -6.0489543e-01   9.8029727e-01  -9.5034193e-01   9.4508089e-04   3.8851749e-01   1.6925370e-01   3.2906624e-01  -5.8148192e-01  -2.1508824e-01  -3.5709632e-01   2.6077349e-01  -9.2782040e-01   1.9618211e-01  -3.0839946e-01  -7.8568420e-01   1.6830965e-01   8.9033977e-01  -3.4741967e-01  -4.7803130e-01  -9.0073272e-01  -6.5817358e-01   8.1361293e-01   7.1371288e-01  -7.1023667e-01  -6.3175529e-01  -2.9038987e-01   3.8865790e-01  -6.9306458e-01   5.3338489e-01   8.6449449e-01   9.0823794e-01  -1.7043617e-01   3.6050806e-01   5.1257370e-01  -2.8047141e-01   2.0751481e-01  -8.2407283e-01   7.3677294e-01  -7.7912815e-01   9.6536819e-01   2.8046868e-01   3.6479971e-01   4.9414118e-02   1.7201178e-02  -5.7230929e-01  -3.5664991e-02  -4.3431322e-01   7.4706726e-01   5.4207532e-01   8.3836123e-01  -7.3598406e-01   7.9454860e-01  -5.6141004e-01  -5.6952810e-01  -3.4605240e-01   2.5091631e-01   3.0532108e-03   2.3200289e-01  -1.8142003e-01  -8.9438895e-02  -8.9352154e-01  -4.1176425e-01   3.1481062e-01  -3.3568326e-01   7.8734256e-01  -5.8438307e-01  -4.4749829e-01   3.9265489e-01  -6.5447909e-01  -8.5246416e-01   8.7292839e-01   1.7668197e-01  -9.9933021e-01   1.4843574e-01   9.6184650e-01  -9.2044579e-01  -9.0679993e-01   9.2067162e-01   6.2719389e-01  -6.0402943e-01   2.0435820e-01   4.7623995e-01   4.8640752e-02  -2.2247453e-01  -3.5268345e-01   2.5886161e-01  -2.8737730e-01   4.9367404e-02  -8.9075664e-01  -2.6002401e-01   3.7096763e-01   9.5376204e-01  -3.4804986e-01  -5.1212132e-01  -4.7284227e-01   3.2509982e-02   1.2259904e-01  -1.5700372e-01   9.9118605e-01  -3.0195080e-01  -6.1659858e-01  -7.0068980e-01  -7.1769067e-02  -8.5648247e-01   3.0603297e-01  -1.4791357e-01   1.9645639e-01  -8.6406253e-01   2.1787842e-01   9.0132302e-01  -5.3814369e-01  -7.2102056e-01   7.8183745e-01  -2.4709290e-01   6.5492257e-01  -6.6729810e-01   5.5260070e-01  -3.9275333e-01  -1.9584964e-01   7.3111370e-01  -2.7175294e-01   4.8850122e-03   5.2285404e-01  -4.3227647e-01  -7.3445507e-02   4.5689175e-02   1.7819658e-01  -3.2121658e-02   2.0076683e-02   9.8778504e-01   4.7186725e-01   1.5735891e-01  -3.4532566e-01  -5.5584433e-02  -1.1214649e-01  -3.3507842e-02  -6.1729109e-01  -6.9263328e-01   8.9026213e-01  -4.2293046e-01  -6.1586162e-01   3.1963367e-01  -5.7546701e-01  -7.0122701e-01  -8.8138675e-01   8.4191094e-01   4.6192494e-01  -2.6687044e-01   4.0258290e-02  -6.3642479e-01  -2.2735760e-01  -6.1657152e-01  -1.8130489e-01   6.5353218e-01  -3.8227838e-01  -2.8548014e-01   4.1789805e-01   2.3678336e-01   5.0482082e-01  -2.6513205e-01   7.7508186e-01  -5.7049435e-01   9.8052462e-01  -7.0803010e-02  -5.8868395e-01
   3.6373976e-01  -2.0951916e-01  -3.0923305e-01   8.5776145e-01  -2.2213107e-01  -6.6647471e-01  -9.9786212e-01   3.8648503e-01  -8.3514775e-01  -5.9992217e-01   8.7837485e-01  -7.9622142e-01  -5.4444518e-01   4.2651513e-01   5.7448869e-01   6.0320616e-01   7.3720924e-01   2.8167279e-01  -7.0479294e-01  -6.5046150e-01  -5.9149665e-01   2.3787964e-01  -4.0192494e-01  -6.9155571e-01   1.6783800e-01  -6.9724200e-01   3.0007851e-01   9.8300854e-01   9.2073640e-01   4.7875066e-02   2.3046361e-01  -8.3267692e-01   7.9906431e-02  -1.9358475e-01   2.6606147e-01  -8.9097720e-01  -3.4164835e-01   4.8443915e-01  -9.7808526e-01   6.9551120e-01  -3.3439400e-01   4.3257030e-01  -2.8793796e-01  -5.1359392e-01  -4.0104720e-01   9.3186629e-01   5.5982553e-01   6.6199783e-01  -2.7904054e-01   2.6691438e-01  -9.4751219e-01   6.4597695e-01   3.3314091e-01   6.9166384e-01  -6.3636823e-01   2.2898323e-01   5.7497443e-01  -3.3247668e-01  -3.7055204e-01  -1.7551419e-01   2.7161213e-01   8.2286454e-01  -8.0658056e-01   3.3868758e-02   2.8635861e-01  -3.8434656e-02  -6.5815212e-01   4.4022060e-01   4.8834516e-01  -2.7919257e-01  -4.9129092e-01  -1.5611511e-02  -9.2159197e-01   8.2422181e-01   2.9898551e-01   1.6687939e-01  -4.1067657e-01   7.2585206e-01  -1.1242687e-02   8.6263478e-02  -5.0322433e-01  -9.2665967e-01   9.4244565e-01   9.2580811e-01  -5.0730167e-01   5.3531842e-01  -3.1390670e-01  -1.0401987e-01   2.4482404e-01   7.7480771e-01  -1.7547159e-01   2.2096366e-01   4.8237431e-01   9.9440470e-01   2.1934832e-01   9.8972832e-01   1.8113562e-01  -7.0019591e-01   9.4821554e-01   2.1778476e-01  -9.5361725e-01   9.5762692e-01   9.1023913e-01   7.2968994e-01   8.1895993e-01  -1.3560198e-01  -7.5707267e-01  -8.2932794e-01  -4.4108099e-01  -2.7976387e-02  -1.7092027e-03   8.3160064e-01   8.7524633e-01   4.1436591e-01   7.9202097e-01   2.4889413e-01   8.3484717e-01   3.9524496e-01   7.6611811e-02  -9.6069648e-01  -5.8432286e-01   8.5866355e-01  -6.1845116e-01  -5.2829672e-01   4.5061812e-02  -1.8920909e-01   6.1917858e-02   7.2097140e-01   4.7327113e-01   3.4842388e-01  -5.1981793e-01   7.5008261e-01  -8.5486145e-02   7.0915607e-02  -9.9856543e-01  -8.3212013e-01   7.9137849e-01  -1.6830245e-01   1.7795246e-01   5.4599587e-01  -6.3250756e-01   6.6177948e-01  -4.5717849e-01   6.6629419e-01  -7.8871992e-01   7.8129853e-02  -1.8154172e-01  -8.5671997e-01  -8.7013556e-01  -7.2471169e-01  -7.7101033e-01   1.5871098e-01   8.9708792e-01  -1.0525009e-01  -1.7525969e-01  -6.6702159e-01  -5.7400762e-01  -9.7805908e-02   1.9502403e-02  -6.1418870e-01  -9.2061409e-01  -6.3473946e-01   5.1241957e-01  -1.9443542e-02  -8.3905660e-01   1.4804139e-03  -4.6404519e-01  -9.1526395e-01  -9.5580554e-01   2.2743712e-01  -8.8698184e-01   9.8538237e-01   8.8404403e-01  -5.5089539e-01  -7.4892806e-01   2.2082183e-01   7.9367576e-01   5.9214091e-01  -6.5459215e-01   2.1799751e-01  -6.5996455e-01   7.7422050e-01   9.5847141e-01   8.6409785e-02   8.8099522e-02   8.2562202e-01   6.8347021e-01   8.5118164e-01   9.4756370e-01  -2.2089393e-01   3.9853184e-01   4.1367372e-01   3.3020697e-01  -2.0820198e-01   8.3581349e-01  -5.2482317e-01  -6.4397691e-01   7.5899885e-02  -4.8917349e-01  -9.8013535e-01   4.6290780e-01   6.7606445e-02   2.3293714e-01   8.2821435e-01   7.1883812e-01   7.9029664e-01  -4.1851387e-01  -5.9680359e-01   5.6603328e-01   7.6039632e-01  -7.9789009e-01  -4.3507522e-01  -3.4615647e-02  -9.2067027e-01   4.3918264e-01  -7.0148856e-01  -6.3491808e-01   4.6303307e-02  -8.8362618e-01  -6.2069366e-02  -4.6931801e-01   7.2949052e-01   1.5544112e-01   9.4248666e-01  -2.5775814e-01  -4.8547022e-01  -3.2386482e-01   5.8212777e-01   2.2252217e-02  -1.1608338e-01  -4.5149408e-01  -4.0293725e-01   8.1365981e-01  -5.4636785e-01   4.5662987e-01  -3.6592232e-02   7.8146430e-01  -3.2470666e-01  -4.8095069e-01  -5.6274181e-01  -7.2270584e-01   5.1494197e-01  -3.4626499e-01   6.0201415e-01   9.3952882e-01  -1.8749675e-01   7.4224685e-01  -6.0659373e-01   3.4486045e-01  -8.9260508e-01  -1.9352851e-01  -5.8058068e-01   1.7719546e-02   4.5961435e-01  -5.7297278e-01   6.6622041e-01   3.2310422e-01   7.0742874e-01  -8.3965163e-02  -6.2585743e-01   3.9324849e-01  -6.1788879e-02   4.4258839e-01  -3.0270875e-01   9.8993790e-01   6.1173447e-01   5.6454656e-01   8.3292872e-01  -6.2004652e-02   1.7656864e-01  -7.7174227e-01  -9.6422015e-01  -1.2992433e-01  -5.5566865e-01   3.9160950e-01  -8.3965662e-01  -1.8636158e-01  -1.0596883e-01   2.3523003e-01   2.8023002e-01   2.9842359e-01  -3.2303038e-01  -4.9525925e-01  -9.8776329e-01   2.8553535e-01  -8.2751441e-01  -5.4807804e-01  -2.2276434e-02   9.9608695e-02  -6.6719377e-01  -1.1672508e-01  -4.1575536e-01   1.3589853e-01  -3.8187592e-01  -7.3551587e-01   2.2508057e-01  -3.9511689e-02  -1.5884577e-01   8.3945478e-01  -5.6496210e-01   9.7194564e-01  -6.3247368e-01  -9.2899452e-01   7.1250119e-01  -2.3047678e-01   8.7443530e-01   6.0147248e-01   5.2807625e-01  -1.4458472e-01   2.6341635e-01   7.3141311e-01   2.3334871e-01   1.6416270e-01   3.7609950e-01  -7.5694866e-01  -3.2204355e-01  -1.1720676e-01   5.0193717e-01   7.5131513e-01   7.3443816e-01  -2.1901751e-01  -1.1738954e-01  -3.4912684e-01  -9.3753510e-01  -1.6667167e-01  -7.9936190e-02  -6.0384574e-01   1.2973944e-01  -5.5569988e-01   2.7971059e-01  -2.9689385e-01  -2.7559162e-01  -8.6419250e-02  -5.3441510e-01   1.2354070e-01  -9.7835846e-01  -1.7082995e-01  -7.4406416e-01   9.3659316e-01   1.8360534e-01   4.0829871e-01   9.4532028e-01   5.2988019e-01   9.7278513e-01  -2.4392885e-01  -1.0329139e-01   2.0212753e-01   4.5162655e-01   3.1219722e-02   6.1542039e-02  -7.8944245e-01  -5.6759125e-01  -3.5100384e-01  -7.8424413e-01   7.5901413e-01  -9.7902196e-02   3.6514746e-01   4.4238296e-01  -3.0051893e-01  -3.4086714e-01   1.3908144e-01  -2.9867466e-01   2.0777082e-01  -9.0219800e-02   8.0542289e-01  -8.5077730e-01  -8.9542896e-01  -1.7123186e-01   8.2423522e-02  -3.5368195e-01  -6.3797473e-01  -9.7574469e-01  -2.1458022e-01  -6.1429857e-01  -8.8214298e-01   2.3084293e-01  -4.5500849e-01  -2.0500184e-01  -7.7835220e-01  -5.2520998e-01   3.7283644e-01  -5.1358632e-01  -1.7190704e-01  -5.3252349e-01   1.0413730e-01   2.2766930e-01   7.6845720e-01   2.1637451e-01  -1.2376054e-02  -5.0827624e-01  -6.7558172e-01  -6.1526256e-01   5.0049642e-01   3.1796563e-01  -3.7884075e-01   3.7521602e-01  -8.8010206e-02  -9.8986232e-01  -1.4280507e-02   7.4331233e-01  -9.8371925e-01   2.4343303e-02   7.5796906e-01   8.3557310e-01  -6.7220773e-02   8.3921407e-01  -1.4255606e-01   4.7601685e-01   4.9607355e-01  -5.4915875e-01  -7.7489949e-01   6.7530505e-01   1.6807187e-01  -1.0249408e-01  -8.2776940e-02   7.2574746e-01   4.3012726e-01  -4.4582187e-01   3.4767814e-01  -3.7331424e-01  -9.7950239e-01  -1.7432189e-01   6.5923471e-01   6.2001334e-01  -5.8221155e-01  -8.8242711e-01   9.8246995e-01  -5.6686394e-04  -3.5211623e-01   3.4087400e-01   6.3847252e-01   8.8632540e-01  -9.8710333e-01  -7.2168733e-01  -5.5487920e-01   1.9596408e-02   4.9790569e-01  -8.6905576e-01   8.3424199e-01  -4.4040980e-01  -7.2164021e-01   5.1548136e-01  -7.3648434e-01  -7.4628880e-01  -5.3274154e-01  -9.5621936e-02   2.5743979e-01  -2.2265961e-01  -5.3060201e-01   6.3423575e-01   3.2418051e-01  -7.9210704e-01  -2.7874815e-01  -6.7288292e-01  -8.0046341e-01  -7.7463492e-01   1.7826286e-01  -7.0429415e-01  -9.9083580e-01   8.0003584e-01   9.0318098e-01  -5.2835143e-01   4.2808379e-03   1.6183513e-01   1.7814270e-01  -3.4544769e-02   6.3912941e-01  -7.9922603e-02   5.6040089e-01  -5.4126059e-01  -5.2054710e-01  -3.5688151e-01   1.4539715e-01  -6.1999119e-01   5.4040890e-01   8.6170207e-01  -5.3984440e-01   4.5248986e-01  -2.1343696e-03  -3.9907849e-01  -7.4101700e-01   6.4633696e-01   8.2801429e-02   8.1754845e-02   3.0581568e-01   4.2729225e-01   3.1055496e-01   5.3253633e-01  -6.8856274e-01  -5.6091589e-01   1.9424645e-02  -6.8081887e-01  -7.9388475e-01  -7.8876408e-01   4.7965457e-01  -2.3113367e-01   1.4967848e-01   7.4614171e-01  -7.1980394e-01  -5.1013517e-01  -5.8049478e-01   8.7065609e-01  -5.1255210e-01   4.3213139e-01  -9.1947075e-01  -7.6267818e-01  -4.4020861e-01   3.8793141e-02  -9.3417040e-01  -7.4677478e-01  -7.9539264e-01  -3.4425152e-01   5.8401150e-01   3.5735946e-01  -7.4678644e-01   2.9927235e-02  -3.5365084e-01   7.1134207e-01   7.2319592e-01   8.7364101e-01   2.3702381e-01   1.0961792e-01   3.1768008e-01   5.1891000e-01   2.8043071e-01   7.5576989e-01   3.8750976e-01  -2.6334197e-03  -1.5236882e-01  -5.7411464e-01  -4.5516194e-01  -4.8244648e-01  -9.0072577e-01  -6.8215384e-01  -1.8848007e-01   3.3064591e-01   4.4075939e-01   9.1097610e-01  -5.5643060e-01  -4.3697627e-01  -7.3634684e-01   8.1932107e-01   9.6340672e-01  -4.4830394e-01   1.7779369e-01   9.2252607e-01   7.7988488e-01   8.2011948e-01  -7.4468778e-01   3.8548307e-01   3.7285235e-01  -5.0639295e-01  -1.1464562e-01  -6.6640679e-01   8.7035469e-01  -5.1613010e-01   4.5012488e-02   7.9496415e-01  -6.0226050e-01   8.5479170e-01   2.7128598e-02   1.5615139e-01  -5.8655488e-01  -4.7799984e-02   5.4559831e-01  -5.7672469e-02  -4.7459891e-01   8.0867616e-01   6.4412792e-02   8.6278733e-01  -8.0726330e-01  -3.9583482e-01   4.2180217e-01  -2.7956959e-01   8.0184522e-01  -7.6170658e-01  -7.8456943e-01  -5.5938905e-01  -4.8649142e-01   8.6604227e-01   2.9938599e-01  -3.2798282e-01  -8.6083945e-01  -8.3966533e-01  -6.4184216e-02   4.4344451e-01  -3.5108235e-01  -4.6714919e-01  -9.0563780e-01  -9.3173099e-01   6.3691281e-01  -2.2136949e-01   8.8710328e-01  -9.6281120e-01  -3.6649885e-03  -6.8002298e-01   4.2398627e-01  -4.8333950e-01  -3.5018932e-01   8.0696239e-01   8.9140438e-01  -6.7016105e-01  -9.2246471e-02   4.8402326e-01   7.6542968e-01  -4.9562017e-01   9.5404564e-01  -6.1630442e-01  -9.7590340e-01   2.7904284e-01  -5.4020204e-01   4.5972021e-01   2.8080894e-02  -5.8723969e-02   2.8921293e-01  -1.5685317e-02  -8.5921755e-01   8.2919258e-01   3.3084985e-01  -1.6954326e-01   6.6222973e-01   3.6168625e-01   8.3616355e-01   7.2058889e-01  -7.9061399e-01   9.0075942e-01   4.6503330e-01   9.6883583e-01   7.5085478e-02   6.6088232e-01  -3.8521423e-01   8.2613520e-01  -5.4516753e-01  -4.5734472e-01   3.4471887e-02   2.3863661e-01  -7.0027375e-01   2.7099157e-01  -5.4278931e-01  -8.6469301e-01  -4.6062464e-01  -1.8666266e-01  -5.8816783e-01   8.9466013e-01  -3.2831682e-01   1.7813945e-01  -3.1197967e-01  -1.5642872e-01  -6.6808786e-01   2.2200596e-01  -2.4877121e-01  -7.2307358e-01  -1.5019398e-01   9.8025249e-01  -7.1079628e-01   4.4657414e-01   3.7027590e-01   7.5108394e-01   2.6181185e-01  -7.8246654e-01   7.5548545e-01   7.9137196e-01   3.3694580e-01  -7.0368925e-01   3.5521240e-01   7.8686069e-01   6.7518609e-01  -8.9664807e-01  -4.2602067e-01  -5.8903815e-01   7.5196179e-01   2.9991070e-01  -6.9119003e-02  -3.0452042e-01  -3.2080757e-01   4.0211438e-01  -5.8450957e-01   6.9682222e-01   9.3660322e-01   4.3146874e-01  -1.3928179e-01   8.1722487e-01  -6.1882904e-01  -1.1313969e-01   9.3887122e-01  -6.9592132e-01   5.8291111e-01   2.9567257e-01   8.6223037e-01  -1.7812724e-01   2.5357656e-01  -9.1849620e-01  -3.2086859e-01   7.1049212e-01   8.6022894e-01  -8.9476362e-01   2.8739845e-01   9.0150814e-01  -7.4733437e-01  -5.9683714e-01  -1.3487917e-01  -3.7904924e-01  -4.2305748e-01  -6.1342308e-01   3.6890833e-01   6.1879721e-01   8.7344535e-01   1.2897258e-01   8.0687828e-01   7.9492024e-01  -9.0922627e-01  -2.2389544e-01   4.1579864e-01   2.5311518e-01  -3.0236310e-01   3.5148504e-01   9.6254105e-02  -2.3452963e-01  -9.0760747e-01  -1.9035692e-01   3.0550437e-01  -5.6845572e-01   8.7231653e-01   6.9618844e-01   8.3089396e-01  -4.2393526e-01  -9.2037855e-01   7.1469042e-01   2.4524234e-01  -5.4652208e-01  -8.9841614e-01   2.6760231e-01  -4.5432882e-01   4.8595632e-01  -8.2088292e-01  -3.8308723e-01  -9.0273197e-01  -3.5733184e-01   9.7051155e-01   2.7168489e-01   8.8158620e-01  -1.7914294e-02   3.8431321e-01   6.5927852e-01  -1.1632075e-01   7.5540580e-01  -2.2120646e-01  -9.0266736e-01   4.8450953e-01  -1.0683480e-02   3.5521310e-01  -1.9533982e-01   7.0426407e-01   3.1566162e-02  -5.6508899e-01   5.3155835e-01  -2.6894198e-01   8.3918203e-01   5.7142127e-01   1.6241873e-01   7.9659550e-01   1.4453930e-01   5.3081322e-01  -9.5312255e-01   8.6861950e-01   8.2914797e-01  -5.9029795e-02  -7.0589706e-01  -3.4659000e-02   8.5595920e-01  -2.4157062e-01  -1.0361448e-01  -4.6512665e-01  -2.0826856e-01  -8.2528358e-01   1.1174094e-01  -2.0384458e-01  -8.9280445e-01   2.5879942e-01   3.5571277e-01  -5.5152828e-01  -1.4214704e-02  -6.4073366e-02  -9.3560985e-01  -2.9097087e-01   9.3430269e-01  -8.8099574e-01  -8.9977619e-01   2.9037914e-01  -1.0570322e-01   9.8012314e-01  -3.4061459e-01  -8.4864597e-01   2.4143862e-01  -2.5801806e-01   7.9961254e-01   3.5679382e-01  -9.8875860e-01   6.5484366e-01   1.9788603e-01  -2.8561941e-01  -2.8774313e-01   1.0463679e-01   5.7033666e-01   8.5897294e-01   1.6560826e-02   5.6543055e-01  -1.5835541e-01   7.0123217e-01   6.7653598e-01   8.8471171e-01  -3.6978490e-01   9.6024498e-01   4.6507445e-01  -9.1842891e-01  -3.7198400e-01   7.8496520e-01  -8.6349723e-01  -6.2810931e-01   8.3130709e-01  -3.7425334e-01  -9.2515022e-01  -1.2993417e-01  -9.8339456e-01   4.9693737e-01  -7.1969173e-02  -1.6667321e-01   1.7001167e-01   8.4900968e-01  -8.9307660e-02  -7.5244435e-01  -5.2021233e-02   5.3519001e-01  -7.5565069e-01  -8.2446701e-01   8.1369880e-02  -8.0555043e-01  -6.3249082e-01  -1.9919885e-01   3.1615611e-01   4.8565773e-01  -7.3956013e-01  -7.6638646e-01  -5.4440782e-01  -3.5334166e-01  -8.2758004e-01   5.1531582e-01   4.4079190e-01   1.7473087e-01  -6.5487846e-01  -4.4466717e-01  -7.6283570e-02  -9.8368572e-02  -3.6371345e-01  -3.9265788e-01  -4.3719049e-01  -3.1755639e-01  -4.6050247e-01   2.3234353e-01  -9.6945933e-01   6.2388097e-01   7.4573499e-01   7.2767403e-02  -1.5953466e-01   4.2381191e-01  -3.6683835e-01  -6.0408847e-01   8.8429522e-01  -7.4438036e-01  -1.2859220e-02   8.1851147e-02   9.3805586e-01   5.7523564e-01   1.9598985e-01  -2.5835919e-01  -3.6371158e-01   7.7100857e-01  -5.0677323e-01   3.0258444e-01  -6.4668313e-01   5.9023424e-01   3.7651342e-01   3.0168661e-01  -3.2075252e-01  -9.9791736e-01  -6.4832272e-02   2.8035218e-01   8.7330799e-01  -5.7162844e-02   5.5096732e-01  -3.0734945e-02   3.8322437e-01  -6.3744783e-01   6.5682077e-01   9.4981858e-01  -8.0346455e-01   5.8324871e-01  -4.7374141e-01   8.7124191e-01  -7.7063339e-02  -8.9082437e-01   6.1337409e-01  -6.3211494e-01  -9.8179602e-01  -1.2829002e-01  -3.6441651e-01   6.1465678e-01   6.6137250e-01  -8.5906159e-02  -5.5374383e-01  -3.9588577e-02   9.2840124e-01  -5.4349052e-01   5.2225934e-02  -4.8343437e-01  -7.0961378e-01  -8.7674798e-01  -3.4911693e-01  -4.1481582e-02  -4.7180575e-01   6.9616784e-01  -8.5538534e-01  -9.2925042e-01  -5.8255457e-03   7.6852959e-01  -7.3777886e-01   5.1777061e-01   4.4952604e-01   9.5297880e-01  -1.4317750e-01  -1.7875327e-01  -6.3628610e-01  -5.5126914e-01  -7.7468715e-01  -7.2569729e-01   5.5035826e-01   7.9883271e-01   4.6912396e-01  -6.8175427e-01   7.2321628e-01  -4.6711029e-01   1.7177727e-01  -4.1975931e-01   1.6059077e-01   8.6466616e-01   5.5675090e-01   9.7371042e-01  -5.3289690e-01   3.6188044e-01  -6.1719897e-01   1.1583571e-01  -2.4858240e-01  -1.4444583e-01  -4.0661320e-01   8.3016345e-01   2.2140503e-02   3.0333050e-01  -9.9841013e-01  -1.4030580e-01   1.3436444e-01  -2.0018230e-01  -9.2284220e-01  -1.0437944e-01  -9.4564890e-01  -3.5248159e-01   8.1176205e-01   9.8984166e-01  -4.4656667e-01   2.9338473e-01   9.3634740e-01   6.1437088e-01   1.8316625e-01  -9.1387712e-01  -3.9636108e-01  -8.4332911e-01  -6.8563755e-01  -7.7631074e-01   9.5093219e-02   9.1655177e-01  -2.5644741e-01  -8.7282809e-01  -1.3724124e-01  -4.6687352e-01   2.6834994e-01   6.9644141e-01   1.0746176e-01  -1.5080213e-01  -8.2281923e-02  -1.3762892e-01  -7.0354887e-01  -8.7346445e-01  -3.2957326e-02  -2.3715834e-01  -3.7261393e-01   3.2754513e-01  -2.0854690e-01  -4.5409063e-01  -3.4677391e-01  -6.8995194e-01   3.4943650e-01
  -1.3529806e-01   7.8799888e-01  -9.7305023e-01   2.2065835e-01  -9.8875090e-01   3.8242146e-01  -1.5598181e-01   4.8207687e-01   1.4773580e-01  -4.5445895e-01  -9.9857381e-01  -2.1184862e-01  -4.2249490e-01  -8.4919950e-01   8.8716775e-01   9.1924527e-01   1.9585362e-01  -4.1053729e-01  -7.2342385e-01   5.3845581e-01   5.0785084e-01   4.8315617e-01   1.8896526e-01   3.1538416e-01   1.0998944e-01   9.7611125e-01   8.3640271e-01  -6.4470815e-01  -6.2426376e-01  -5.4469111e-01  -5.6347798e-01  -4.4674897e-01  -1.9389726e-03  -8.7022556e-01   6.9484881e-02  -2.6318617e-01  -3.5779257e-02   3.6405485e-01  -9.3550242e-02  -6.9230482e-01   2.4502063e-01   2.1708325e-02   4.6643603e-01  -3.2966071e-01   6.3935375e-01  -8.3643294e-01   4.1287972e-01   6.2294711e-01  -8.8841012e-02   2.5544674e-01  -8.6433052e-02   2.0240668e-01   6.6193239e-01  -2.2923464e-01   9.4222917e-01   3.9471447e-01   3.1334943e-01   9.9865416e-02   2.6249769e-01  -2.1886837e-01  -6.8956152e-01  -1.9922891e-01   4.9974406e-03   8.5181085e-02  -2.8466229e-01   5.8689367e-01   9.2244995e-01   8.1467906e-01  -3.6950520e-01  -5.2810487e-01   9.7774919e-02   2.2569543e-01   3.5272655e-02  -9.0513787e-01  -8.7028189e-01   6.9747962e-01   1.5577095e-01  -6.9040378e-01  -2.8691134e-01   8.9928799e-01  -8.8345760e-01  -8.7141225e-01   6.9397505e-02   7.6779972e-01   6.8199549e-01   9.4351705e-02   1.5796150e-01   7.1572798e-01   7.0549991e-01   8.1420789e-01   1.6390727e-01  -2.3685973e-02  -5.8155805e-01   4.0176952e-01   2.6662766e-01  -7.6487067e-01  -2.8707590e-01   4.6666136e-01  -8.7101453e-01  -3.8555068e-01  -2.2026991e-02  -4.3134957e-01   3.1631135e-01   9.0961480e-01  -6.2161363e-01  -7.1779173e-01   8.7134339e-01   5.2663957e-02   4.5447989e-01   1.1077553e-01   7.7277908e-01  -1.7337268e-02  -7.2932081e-01  -1.9316410e-01  -5.3975186e-01  -6.2757304e-01   3.6222077e-01  -3.7790134e-01   9.1092909e-01   7.8574889e-01  -5.6216348e-01  -7.6661109e-03  -4.6581404e-01   5.6514722e-01   9.4766083e-01   1.7240381e-01  -8.5830204e-01  -6.5218997e-02   4.1686109e-01  -3.0413975e-01   1.9072838e-01  -7.8758518e-01  -7.3923958e-02   5.2655281e-01  -9.7944462e-01  -3.1979715e-01  -1.6189719e-01  -8.8010116e-01  -2.8787052e-01   1.6970701e-01  -9.2138164e-01   1.5704146e-01   6.3247041e-01  -4.4619904e-01   1.4578027e-01  -9.9872776e-01  -8.3350860e-01  -9.2744440e-01   7.3628593e-01   9.9415586e-01   6.6480877e-01  -3.7319188e-01  -5.1320963e-01   9.0666641e-01  -6.1762214e-01   2.9546554e-01  -5.5811785e-01   4.3222167e-01  -9.1818609e-01   9.5797173e-01   4.6979377e-01   8.1402816e-01  -3.1481300e-01   1.0396870e-01   8.8846552e-01  -4.8359078e-01  -7.7963948e-01   9.4088873e-01   8.7024825e-01   2.3329229e-01   7.0056714e-01  -9.5304514e-01  -9.0623510e-02  -6.3782050e-01  -2.0223343e-01   1.9021257e-01   6.6181679e-01   6.0546628e-02   7.1854860e-01   5.5227833e-01  -5.4600515e-01   1.8548388e-01  -2.6453570e-01   2.8976002e-01   5.1439037e-01   9.4755262e-01  -8.2390887e-01  -4.5897930e-01  -6.9740966e-01  -7.9342887e-01   9.1510138e-01   7.1061991e-01  -8.4798594e-01   8.0891454e-02  -2.4458310e-01  -1.1450695e-01   5.6500645e-01  -4.4704671e-01   2.7176106e-02   7.6866505e-01  -2.5841957e-01  -7.6373114e-01  -8.2508722e-01  -1.3273150e-01   6.9293623e-01   9.0988852e-01  -7.2691634e-01   3.7389039e-01  -6.9505840e-01   3.3476923e-01   6.6266361e-01  -8.7189898e-01   4.0102886e-01   9.9621990e-01   1.2668720e-01   5.2153231e-01   1.6315939e-01  -1.0451894e-01   5.7294662e-01  -7.5307748e-02   6.9799416e-03  -8.4570349e-01  -8.0700018e-01  -6.2944226e-02  -6.4950414e-01   8.9191722e-01  -6.9924941e-01  -1.6197845e-02   9.1425333e-01  -8.0127248e-01   8.8335124e-01   2.3982907e-01  -3.0654272e-01   7.0312248e-01  -9.5034278e-01  -9.6909236e-01   1.1044839e-01  -1.7378790e-01   3.1976709e-01  -6.0465577e-01   3.0150284e-01  -3.1844767e-01   2.4959365e-01  -1.7222548e-01   4.4473636e-01  -8.2808688e-01   9.8015656e-01   6.9017969e-01   5.2619674e-01   5.4939864e-01   5.8170340e-01  -9.3297347e-01  -5.4890432e-01   1.4932326e-01  -1.0054324e-01   7.6569367e-01  -5.5301231e-01   1.4587246e-01   1.6681400e-01  -3.3509888e-01   7.4715921e-02  -8.9682285e-01   6.4686911e-02   7.5471234e-01   3.4261439e-01  -6.1809726e-01  -7.9516344e-01  -9.6998402e-01   5.4719340e-01   5.8132022e-01   5.5013694e-01  -6.6683085e-01   2.7947427e-01  -8.1479741e-02   1.6994127e-01  -9.2568480e-01   9.4709618e-03  -5.4923394e-02  -9.1709074e-01  -3.6132587e-01   6.1030646e-01   4.5335219e-01   4.1931733e-01   4.5375154e-01   4.8769916e-01   9.2914111e-01   9.2036557e-01   2.5570621e-01  -5.3276440e-02  -1.8713419e-01  -4.3392224e-01  -2.4243940e-01  -7.9561290e-01  -5.7636750e-01  -3.7749844e-02  -7.7570210e-01  -2.8182943e-02   1.9010807e-01  -2.9361703e-01  -4.9237037e-01   4.7617532e-01  -7.1339898e-01   9.6841606e-01   4.5442026e-01   1.5785870e-01   8.7165182e-01   4.8215224e-01   1.2399509e-02   7.5992038e-01  -9.3029699e-01  -6.4666363e-01   1.1202269e-01  -4.1064533e-01  -1.3430608e-01   1.0804757e-01   9.7109677e-01  -7.9645967e-01  -6.9193979e-01   7.2906588e-01   1.5825547e-01  -4.0299657e-01  -5.0170133e-01  -6.6082202e-01   7.5507773e-01  -4.8129999e-01   5.7567285e-01  -2.2392127e-01  -7.7460350e-01   2.5528556e-01  -1.3519643e-01  -1.2312278e-01   1.4164225e-01   7.8928765e-01  -1.0796789e-01   2.0614945e-01  -9.9166428e-02   8.0893520e-01   8.2684575e-01  -9.3404602e-02  -5.6287849e-01  -3.0669025e-01  -6.3328448e-01  -6.6066140e-01   2.3483283e-02   8.6731645e-01   4.1106628e-02  -7.4646789e-01   8.5226226e-02   4.0237582e-01   3.4525637e-01  -1.9825627e-01  -5.8437054e-03  -4.2792890e-01   6.1397574e-01   1.5737322e-01  -6.3588523e-01   6.1845332e-01  -7.1125450e-01   8.0256221e-01  -8.4649926e-01  -4.6933317e-01  -5.3144902e-01  -4.2787324e-01  -7.2041022e-01   6.3898593e-01   9.3742935e-02   5.5315991e-01   3.8716582e-01  -1.6665953e-01  -1.3856351e-01   5.2748058e-01   1.3413609e-01  -3.0628524e-01   7.9775538e-01   8.4788689e-02   8.1995986e-01  -8.7123946e-01   8.4850185e-01   9.8279539e-03  -7.6772500e-01  -3.2834630e-01   8.6278943e-01  -5.4759004e-01   4.0040049e-01  -6.1940251e-01   3.3266711e-01   4.4763320e-01  -5.7026952e-01  -3.5736093e-01   4.7504050e-01   7.4356044e-01  -8.8070131e-02   3.3326578e-01   5.2759857e-01   5.0049811e-01   9.9487315e-01   4.2043155e-01  -5.6246192e-01  -1.7963934e-01  -7.1792657e-01   1.3874004e-01   9.6949366e-01  -9.6212014e-01  -2.2622751e-01  -8.1042198e-01  -6.2464894e-01  -4.7066719e-01   1.8246412e-01  -6.3967105e-01   1.1572512e-01  -9.3735320e-01   7.5606974e-02   1.2261478e-01   5.3799550e-01   6.2475237e-01  -3.1011011e-01   4.8022544e-01   2.8703510e-01  -9.5656420e-01   9.3363438e-01   7.4280253e-01   9.7085587e-01   5.8535881e-01  -1.9956634e-01   3.6429846e-01   3.7447153e-01  -5.9762882e-02  -1.2256328e-01   9.0337088e-01  -8.6018573e-01   2.1816223e-01   2.9458378e-01   1.4140106e-01  -6.9371371e-01  -5.5873347e-01   5.4525084e-01  -2.8964859e-01   9.3690890e-01   7.0131665e-01  -1.7417532e-01   5.8397722e-01   2.1830066e-01   8.0444467e-01  -8.3042587e-02  -8.8305261e-01   6.8488458e-01  -9.8775273e-01  -4.8103588e-01   8.7380442e-01   2.3299962e-01  -8.5177929e-01  -8.9999226e-01  -2.4902138e-01   3.2505716e-01   4.6110487e-02   1.8346540e-01  -2.3194551e-01   5.3451424e-01  -4.5461945e-01  -6.1418289e-01   5.3030544e-02  -4.9443976e-01   3.3923573e-02  -9.1963713e-01   9.0739004e-01  -3.6864742e-01   2.3346581e-01   5.5407273e-01   9.2094144e-01  -8.0043171e-01  -3.3187940e-01   6.3975760e-01   3.0515354e-01   7.9302813e-01   2.0302017e-02   9.0849488e-01   2.9150716e-01   2.4648447e-02  -5.4508005e-01   8.1450526e-01  -1.9690961e-01  -4.7358516e-01  -6.2227377e-01  -4.4241204e-01   5.6651985e-02   4.0276834e-01  -9.6320678e-01   6.7287290e-01   4.3428655e-01  -2.5087180e-01   6.0250485e-01  -9.7989745e-01   5.5802983e-01  -6.0556916e-01  -2.5851180e-02   1.0844098e-01  -8.7270167e-01   3.1293642e-01   1.9962556e-01   4.0927166e-01  -2.5547105e-01   6.3113851e-01   5.7939983e-01   4.3856289e-01   5.8847075e-01   2.1444680e-01   8.3627400e-01  -2.6697626e-01   3.5759646e-01  -8.3364529e-01  -1.0116354e-01  -9.6822171e-01   8.4316325e-03   6.3249030e-01  -6.0353180e-01  -9.8509722e-01  -7.1859587e-01  -9.4030199e-01   3.9352271e-01  -9.5338701e-01  -1.4526504e-01  -8.3368627e-01   3.5762058e-01  -6.8356506e-01   1.4782631e-02  -5.7368781e-01  -5.7120992e-01  -3.3426546e-01   6.1214133e-01  -7.1045621e-02   3.2514837e-01  -4.1741446e-01   3.3011471e-01  -7.4445945e-01  -2.2049041e-01   6.5460266e-01  -7.3053112e-01  -8.3040520e-02   7.9870594e-01   2.2385970e-01  -3.5401879e-01   1.0536290e-01  -4.1276319e-02   5.8597622e-02   3.1669318e-02   6.1846963e-01  -7.2205922e-01   8.0240579e-01  -3.3024570e-01  -2.9759904e-01  -4.6766165e-01   9.0577641e-01   3.7037169e-02   9.0711402e-01  -1.1696878e-01  -8.2974314e-01  -1.9108393e-01  -8.5410416e-01  -7.2463883e-01  -5.0086182e-01  -5.6493633e-02   8.8607154e-01  -4.2532539e-01   5.4679106e-02   3.6483118e-01   8.2622777e-01  -9.4806199e-01  -2.4206562e-01   8.5344424e-01  -5.2720924e-01   4.2956506e-01  -7.6196192e-01  -2.5445861e-01   9.5726439e-02  -1.6557143e-01   2.2287322e-01  -9.2254299e-01  -3.2021853e-01   4.9372906e-01  -9.9194578e-01  -2.2829391e-01  -7.8044424e-01   2.6803051e-01   6.4375651e-01  -7.0608940e-01  -2.7653475e-01  -1.8954129e-01  -6.6499294e-02   7.3692859e-01   8.9260253e-01  -6.2591035e-01  -2.7820664e-01  -2.3646423e-01  -6.7157424e-01  -1.0545708e-01  -1.2730452e-02   1.9840001e-01  -6.8351097e-01   9.9308889e-01   8.8171811e-01   4.7665847e-01  -6.5538691e-01   9.7571057e-01  -6.5321116e-01   4.4574223e-01   1.5679838e-01   4.0265250e-01   4.1120818e-01  -1.1886642e-02   5.0983264e-01   1.9867206e-01   1.2105324e-01  -9.3934913e-02  -2.4902690e-01  -5.5744175e-01  -9.8513311e-01   5.3070672e-01  -2.5481211e-01   9.1496526e-01   4.6078879e-01   5.7592052e-01   2.4454219e-01  -8.9770431e-01   2.4844259e-01   8.1615115e-01  -5.4883461e-01  -4.9985433e-01  -8.5218758e-02   3.8246064e-01   5.9758169e-01  -3.4178053e-01  -8.6880894e-01  -6.1764161e-01  -1.1955967e-01  -6.9246938e-01   7.6615860e-01  -3.1078134e-01   2.6845729e-01   5.5964684e-01   4.6907012e-01  -7.8144343e-01   3.1228866e-01  -8.0101106e-01  -7.3216403e-01  -7.9267937e-01  -3.0684317e-01  -5.5538392e-01   5.1230866e-01  -2.6437109e-01  -5.7343011e-01   6.4384319e-01  -5.7512477e-01  -8.4657049e-01   4.3595807e-01  -2.6323584e-01   9.9373646e-02   9.4518119e-01   2.1781763e-01   7.4741458e-01  -8.7223796e-02  -1.7994745e-01  -5.3813141e-01  -1.0526057e-01  -9.3827647e-01   9.9915764e-01  -9.9077727e-01   6.3715911e-01  -7.4374441e-01   2.7869353e-01   7.1416189e-02   2.7860477e-02  -8.9102633e-01   9.1324498e-01   6.8080571e-01  -7.0589247e-01   4.9239830e-01  -4.0517092e-03  -9.1990771e-01  -1.8258966e-01   4.0771672e-01  -1.6516849e-01  -7.0205942e-01   2.0538685e-01  -7.7128139e-01  -7.2135759e-01  -2.8761019e-02  -9.4354132e-01   2.0877044e-01   3.7614824e-01  -4.3268034e-01   1.6568159e-01  -2.4981272e-01  -3.5703482e-01   7.1918476e-01   6.2866764e-01  -3.4844888e-02  -5.0670151e-01  -7.9911655e-01   2.3998100e-01   4.8368023e-01   8.2074894e-01   3.8425310e-01   6.1489627e-01  -7.6407303e-01  -9.0606970e-01   9.2256670e-01  -3.0043221e-01  -9.6017297e-01  -8.2374176e-01  -2.5705365e-01  -1.1353173e-01   1.4658723e-01  -6.6108556e-01   7.0520897e-01   5.5368927e-01  -3.0527395e-01   8.6511424e-01  -3.2254143e-01   3.2829644e-01  -1.5268862e-01  -4.6812004e-01   2.1658467e-01  -5.4478302e-01   7.0094921e-01   6.6177265e-01  -7.3963747e-01  -1.8479646e-01  -2.3126707e-01   2.5663195e-01   1.0850566e-01  -4.4741721e-01   3.6008472e-01  -7.4544312e-01   1.7216717e-01  -5.8533377e-01   5.7497917e-01   1.5151002e-02   4.6126281e-02   5.1804759e-02   5.3646126e-01   1.8309608e-01   8.0684562e-01  -7.5834929e-01   5.5303768e-01   3.8727139e-02  -2.8722914e-01   9.0957942e-01  -1.3948026e-01   1.4350391e-01  -3.3078101e-01   2.8349166e-01  -9.4978295e-01  -2.5584873e-01   8.3372862e-01   7.1144003e-01  -4.0026502e-01  -6.2375797e-01  -4.0455572e-01  -6.2405305e-01  -7.7002152e-01   9.0745321e-01   5.6491655e-01   3.6695103e-01  -2.1408606e-01   7.7980585e-01  -2.8488715e-01   6.7376829e-01   2.8843994e-01  -1.0346391e-01  -7.0680216e-01  -6.8366093e-01  -5.3110498e-01   3.0097037e-01  -9.4900841e-01   6.7540211e-01  -8.4049479e-01  -1.6194477e-01  -6.7169492e-01   1.3424488e-01  -8.1838032e-01  -1.1349260e-01  -5.8668567e-01   9.1032256e-01  -3.4923965e-01   2.3946217e-01  -2.4899618e-02  -4.5879374e-01  -7.8318265e-01  -6.8732422e-02   7.1056428e-01   6.3625233e-02  -7.4170490e-01   1.9549128e-01  -5.7788810e-01  -8.2301081e-01  -9.6202518e-01  -4.5003365e-01  -8.4175436e-01  -5.1002084e-01  -7.8296536e-01  -8.4617145e-01   4.8330062e-01   1.1933675e-01  -6.8754329e-01   9.7508866e-01   1.6266981e-02  -1.2050180e-01  -8.2157351e-01   7.5327291e-01  -7.2250849e-02   8.5846717e-01   8.1254053e-01  -6.1372842e-01   3.8805823e-01  -4.4176787e-01  -2.0977056e-01  -4.6772238e-01   7.1639567e-01  -1.6579165e-01   3.4835178e-01  -7.9922681e-02   2.0990027e-01   7.9946718e-02  -3.2523141e-01  -9.5065053e-01   5.6637353e-01   8.9728487e-01  -2.6487317e-01  -8.6312969e-01  -5.4023773e-01  -2.4703888e-01  -4.1242464e-01   8.0053518e-01  -2.5081358e-01   1.6604049e-01   8.9902480e-01   7.2122074e-01   3.4086699e-01   4.4537872e-01   8.6030571e-02   7.7385510e-01  -1.7892003e-02   2.7835761e-01  -7.4883056e-01   4.3535524e-01  -7.8229469e-01   9.0820146e-01   9.3027885e-01   1.5828688e-01   5.7581735e-01  -8.4754440e-01   2.4849405e-01   5.4494556e-02   3.5443242e-01  -8.8155648e-01  -7.1688051e-01   5.4434462e-01  -4.9883092e-02   2.2869550e-01  -8.4094894e-01  -8.0871337e-02   1.9537788e-01  -9.3286556e-01   1.1760848e-01   5.3902741e-01   4.2950613e-01  -4.2003754e-02   8.8489005e-01  -1.6778799e-01   2.2083737e-01  -9.4695630e-02  -9.6868963e-01   5.8305603e-01   7.3009387e-01  -2.1738579e-02   5.1583725e-01   3.8775135e-01   5.3230951e-01  -8.6524347e-01   5.0340349e-02   1.5120398e-01  -6.3239609e-01   4.1256912e-01   1.0111270e-01  -5.0283806e-01  -7.6139345e-01  -9.4949605e-01  -8.5479499e-01  -8.1797117e-01  -7.1624784e-01  -6.2321828e-01   7.0966804e-01   3.1959408e-01   1.5167398e-01  -8.6441667e-01  -6.3655307e-01  -7.5037135e-01  -8.3365607e-01  -5.0229739e-01  -8.5799566e-01  -3.5743225e-01  -2.5011179e-02   6.1323230e-01   5.5884467e-01   8.0617692e-01   3.9062257e-01   8.8606566e-01  -7.1708840e-01   1.3162976e-01  -7.8678774e-01   7.1107925e-01  -2.7610557e-01   6.0175551e-01  -1.5637859e-01   6.8996479e-01  -1.4479262e-02   4.3221064e-01   8.8614061e-02   5.0369941e-01   9.9350988e-01   2.2843353e-01   1.4666285e-02  -4.9104599e-01   4.1134982e-01   8.0705834e-01   3.4175840e-02  -6.4099479e-01   1.9611834e-01   7.1519427e-01  -4.4327068e-01  -1.5547774e-01  -6.8004307e-01  -1.9482723e-01  -3.4790646e-01   2.9494540e-01  -1.0999487e-01  -1.4473224e-01   6.0455224e-01   5.2032374e-03  -4.6383303e-01   4.0861668e-01   1.4609979e-01   9.0286077e-01   1.3253555e-01  -7.2331924e-01   8.3770695e-01  -1.8509383e-01   3.5762447e-01   5.8546505e-01   2.5618963e-01   1.9249035e-01  -9.9788094e-02   2.5728615e-01   3.5829773e-01  -5.5391801e-01  -1.3166971e-01  -4.5801079e-02   5.6559118e-01   8.8016781e-02   6.7851210e-01  -1.1478824e-01  -2.3070038e-01   2.6498361e-01   9.6470225e-01   5.8419699e-01  -6.9605039e-01  -1.4803972e-01  -9.9236028e-01   9.2453727e-02   1.4223079e-01   7.6971054e-01  -7.4281965e-04  -6.0684837e-01   2.9053085e-01  -8.1174050e-01  -9.2312057e-01   7.3087671e-02   1.1586110e-01   6.0226311e-01  -3.1398834e-01  -3.2186657e-01  -7.4279713e-01  -7.2635111e-01  -8.3167921e-01  -8.3829640e-01  -7.3411931e-01  -4.0958683e-01  -2.1375293e-01   3.1846292e-01  -3.0320332e-01  -3.9345657e-01   5.2028282e-01  -9.9417822e-02   8.3738347e-01  -3.6197831e-02  -6.0516198e-01   3.2089943e-01   1.1370971e-01  -4.8023981e-01  -4.4241113e-01
   9.7453974e-01   5.4451844e-01  -9.3161638e-01   4.5303074e-01   4.8533684e-01   7.1001684e-01   2.7318342e-01   8.0262815e-02   9.0205348e-01  -9.6413642e-01   4.1168471e-01   3.3630211e-02  -8.8412586e-02  -3.1753241e-01   9.7981216e-01  -8.9027364e-03  -4.0836685e-01   9.6797914e-01   9.5266469e-02   5.6877670e-01   8.8137970e-01   6.8094674e-01   3.9578718e-01  -3.7592706e-01  -3.7919769e-01  -4.7738807e-01  -4.4520472e-01  -6.3081859e-01   2.5600983e-01   6.5073297e-02   2.9078256e-01  -4.8023684e-01   5.6273057e-01  -8.1335996e-01  -6.0964263e-02  -4.1158171e-01   1.9116932e-01   9.1556605e-01   7.3360455e-02  -8.5008957e-01   2.9894059e-01  -9.0688365e-02  -4.4562022e-01  -7.6257179e-01  -6.7298797e-01   7.7762489e-01  -4.7331766e-01   9.3913614e-01   7.3571580e-01   5.9515258e-01  -5.8780978e-01   2.1321266e-01  -9.6131395e-01   6.8326276e-02  -9.0429664e-01   5.9912831e-01  -9.5107102e-01  -2.2213590e-01  -5.7019601e-01  -6.0066215e-01  -9.4680966e-01  -4.6573413e-01   9.5789014e-01  -9.4183349e-01  -3.5099335e-01  -4.8573274e-01  -8.8411654e-01  -3.3781841e-01   7.4198192e-01   1.6073312e-01   7.4503030e-01  -4.4116651e-01   4.7486749e-01   1.5045485e-01  -2.2273964e-01   7.0148901e-01   4.5121283e-01   5.1156586e-01   5.0243140e-01   9.8196581e-01   3.5154076e-01   6.2011860e-01   5.2299569e-01  -4.2989550e-01   5.3654355e-01   3.7695210e-01  -2.9235176e-01  -1.4733813e-01   5.7891791e-01  -5.4195856e-01  -5.1996918e-01   8.9976428e-01  -1.6587249e-01   5.1690731e-01   4.6490652e-01  -3.6755208e-01  -9.4702001e-01  -8.8993163e-01  -4.3987628e-01  -6.3633879e-01  -6.3965055e-01  -6.4594440e-01  -6.9002643e-01   3.6834891e-01  -1.4727522e-01  -5.6676609e-01   3.0488108e-01  -3.9687775e-02   8.2624036e-01  -5.4273904e-01   4.1672079e-01  -7.6838327e-01  -8.6079042e-01  -7.6184651e-01   2.7459282e-01  -8.1311579e-01   5.5061550e-01  -3.1161052e-02   4.5910393e-01  -4.2351262e-01  -3.2724649e-01   3.9671837e-01   9.3577434e-01   3.5654874e-01   3.8126237e-01  -1.8259055e-01   9.8683664e-01  -9.8342391e-01  -8.8920573e-01   5.6280146e-01  -6.5893981e-01  -9.6441165e-01   9.6794687e-01   4.9117609e-02  -7.0869773e-01  -2.2565209e-01  -2.8408779e-01  -9.2969689e-01  -3.1420442e-01   9.4460771e-01  -4.8739931e-01   4.8136586e-02   7.4742899e-01  -5.9274612e-01  -6.9337480e-01  -6.3692021e-01   9.6134610e-01   9.8298745e-01   4.0490155e-01  -8.0949173e-01   3.9463328e-01   7.9925845e-02   8.2405630e-01   1.3140111e-01  -4.4062884e-01  -6.2585498e-01  -7.6387346e-01  -8.0567081e-01   1.7149140e-01  -9.5016029e-01  -2.8782535e-02  -1.6122918e-01   8.1999029e-01   2.7579590e-01   1.5528531e-01  -2.8436068e-01  -1.4370760e-01   2.8684939e-01  -3.8509863e-01   9.1776857e-01   2.6980989e-01   5.9523838e-01   4.8645446e-01  -5.3003863e-01  -3.7315940e-01   4.2210909e-01  -6.5736396e-02   8.3209763e-01  -2.3570243e-01  -2.1212961e-01   9.4918212e-01  -8.4799203e-01   6.3214268e-01   2.2075045e-01   7.4392699e-01  -6.0903790e-01   7.1074449e-01   6.1551622e-01  -9.0790417e-01   6.1034313e-01  -9.2205749e-01   9.4177883e-01   7.9229214e-01   6.9564709e-01  -2.7267332e-01   6.9795781e-01   4.1122239e-02   7.3999777e-01   3.7138512e-01  -3.2492209e-01  -8.3054572e-01   5.3585727e-01  -4.2597452e-01   3.4088577e-01  -7.4732169e-01  -4.0551272e-01   2.2859802e-01   2.3534723e-02   7.6727068e-01   3.3551788e-01   2.3558255e-01   7.9567738e-02  -9.0213902e-01   6.6211046e-01   5.6310838e-01   3.4174891e-02   1.0645360e-01  -4.1079139e-01  -1.8808456e-01   8.1722965e-02  -6.2550918e-01   2.7553160e-02   8.0042631e-01   5.0420703e-01  -3.2856264e-01   7.2308503e-01  -9.9545019e-01   6.3658248e-02  -1.8349225e-01  -7.2860616e-01   6.9359104e-01  -9.0590289e-01   5.8658910e-01  -7.5546861e-01  -7.1724760e-01  -5.2901656e-01   1.3947570e-01   1.7086647e-01   8.6281340e-01  -5.6559273e-01   7.2596468e-01   6.4927649e-01  -6.6648098e-01  -2.1673537e-01  -7.8710844e-01   8.9035542e-01   8.3615951e-01   1.7678091e-01   1.4569075e-01   4.1550824e-01   4.6602419e-01   2.8343615e-01   6.9620494e-01  -9.0443867e-01  -3.3028769e-01   4.4392925e-01   3.7907349e-01  -1.9208676e-01   9.5547127e-01   2.2038832e-01  -7.8809080e-01   2.5909123e-01  -1.1425128e-01   6.6125735e-01  -6.9604990e-01   5.8551786e-01   8.7454651e-01  -6.5002683e-01  -6.7439164e-02   6.9721318e-01   7.9711893e-01  -9.2015482e-01  -2.4039980e-01  -3.2602022e-01  -5.9460348e-01  -8.1688593e-01   7.9498345e-01  -3.5742205e-01  -5.8708941e-01  -9.3700219e-01  -4.1063423e-01  -5.2624684e-02  -8.7595280e-01   9.9024852e-01   5.1368192e-01  -1.0342423e-01  -9.8991338e-01  -4.8696889e-01  -6.9930031e-01  -1.7797932e-01   9.3908966e-01   6.2978126e-01  -2.5863343e-01  -9.2680921e-01   5.5869156e-01   3.0055293e-01  -2.1355928e-01  -5.7968235e-01  -6.5383971e-01  -1.5361811e-01  -6.3957473e-01   3.9564846e-01   4.6952835e-01  -2.9981047e-01   7.9423677e-01   7.7206952e-01   8.5845780e-01  -8.6747759e-01   1.5623038e-01  -2.2139841e-01   5.1141063e-01  -1.0227105e-01   1.2469339e-01   5.2450844e-01   1.5231418e-01  -1.3112468e-02   9.6320983e-01   6.4547636e-01   2.0453106e-02  -3.1846836e-02  -2.5253841e-01  -2.9233000e-01   6.9056543e-01   7.3801262e-01  -3.2812563e-01   3.9135464e-01  -5.0896646e-01   5.6010134e-02  -3.8978281e-01  -2.9365177e-02   5.1400056e-01   9.7656693e-01  -9.4914248e-01   4.9347107e-01  -7.6778762e-01   8.4180211e-01  -3.4794264e-01  -9.9007170e-01  -1.9588235e-01   3.4830471e-01   6.5647197e-01   3.4867947e-01  -5.9709276e-01   4.2970067e-01   7.1186850e-01  -5.9716215e-01   4.3803717e-01  -6.6715518e-03  -7.8020545e-01  -3.8439729e-02  -8.2606480e-01   7.7076872e-01  -8.5405223e-01   7.1722236e-01  -9.2076379e-01   1.1898502e-01  -9.2516192e-01  -6.7795150e-01  -5.5105868e-01  -7.9475622e-01   9.8253831e-01   7.5744496e-02   5.2557066e-01  -4.9295843e-01  -1.9366384e-01  -5.5805213e-01  -8.5267315e-01  -6.8793143e-01   9.0108635e-01   6.1596269e-01  -5.3244567e-01  -9.7254635e-01   3.9555103e-01   1.9294761e-01  -4.2158049e-01   4.8536979e-02   5.8885273e-01  -2.1533355e-01   5.4053906e-01   5.4372936e-01  -7.6283803e-01   9.7933707e-01  -7.7941062e-01  -2.4297890e-01  -4.4975157e-01   4.2065322e-01  -1.4864873e-01   6.3259719e-01   3.1605037e-01   7.9517536e-01   8.5483313e-01  -6.8982790e-01   3.4195353e-01  -6.7163689e-01  -1.0152287e-02   9.0006965e-01   2.3366779e-01  -6.2786906e-01   4.2617873e-01   6.7874093e-01  -7.1257712e-01  -7.6201695e-01   6.2711002e-02   5.9159502e-01  -4.0614575e-01   6.3993145e-01   8.2028526e-01  -2.4573855e-01  -7.9011765e-01  -9.8722397e-01   9.5331053e-01  -7.6273841e-01   7.4774161e-01   4.8613140e-01   6.4414162e-01  -6.6251877e-01  -8.3553899e-02   9.0944549e-01   8.2639679e-01  -2.6368545e-01   9.5544098e-02  -9.6200046e-01   5.1074077e-01   8.9265166e-01  -8.8524569e-01  -1.0891221e-01   9.4418882e-01   8.3855417e-01   1.0269449e-01  -5.7688183e-01  -1.6114105e-01  -6.7550419e-01  -5.0900035e-01   8.0250744e-01   4.7904567e-02  -3.2003392e-01  -7.0806983e-01  -8.0548157e-01   6.1997187e-01   2.4355882e-01  -8.8039848e-01   4.6115813e-01   9.3942306e-01  -5.5291556e-01  -5.3708845e-01  -9.5779812e-01  -6.3567585e-01  -9.2297455e-01   8.0513378e-03   9.4917058e-01   9.6961457e-01   9.2235037e-01   8.5976190e-01  -6.8454133e-01  -4.8293678e-01   5.1955473e-01  -4.0913489e-01   2.2256007e-01   2.6729540e-02  -6.6067181e-01   3.7267120e-01   4.1647317e-01   3.7049397e-01  -5.6351803e-01  -4.4929261e-01   6.8789423e-01  -5.5313801e-01  -1.3004608e-01   8.8494340e-01  -5.0448544e-01   3.4464757e-01   7.7317916e-01  -9.3180933e-01   2.5669588e-01   2.7490731e-01   4.5142559e-01  -9.1212151e-01   4.4624506e-01  -6.0548561e-01   6.0180963e-01  -3.7229507e-01   9.4893986e-02   2.6394156e-01  -9.1426577e-01   3.2647219e-01  -4.0625068e-01   4.9130717e-01   7.7814267e-01   5.8003625e-01  -8.2387435e-01  -9.2990436e-01   6.6571516e-01   1.2952480e-01   2.9785657e-02  -9.3220290e-01  -1.4524221e-01   6.9019270e-01  -3.1223651e-01  -4.9940324e-01   1.0789838e-01   7.5815529e-01   8.2984893e-01   1.1285164e-01  -6.2227907e-01  -9.4254365e-01  -4.6210959e-01   2.8187444e-01   9.5089642e-02   2.6241362e-01  -2.4291678e-01  -6.0611989e-01  -3.6464495e-01   4.5665974e-01   9.0222500e-02  -2.0155367e-01   8.5047842e-01   3.1551000e-01   2.5559132e-02  -5.8667752e-01   3.5817859e-01   2.3469075e-01  -2.2796894e-02   5.9382974e-01   3.2564068e-01  -5.9468244e-01  -6.1780429e-01  -6.6051754e-01  -9.0188839e-01   1.5695991e-01  -4.1918654e-01   5.7132241e-01   3.9818775e-01   7.6628532e-01  -4.8396117e-01   7.0953382e-01   6.8600931e-01  -8.1752491e-01  -5.6768027e-02  -1.2423747e-01  -1.2581037e-01  -2.7006936e-01   3.0345427e-02   9.3107998e-01  -9.0913785e-02  -8.7847346e-01  -7.8334877e-01  -2.5731658e-01   7.0686455e-01   5.7999697e-01   6.2689480e-01  -9.0701442e-01  -6.8299491e-01  -4.1859546e-01   4.2452654e-01   4.3818804e-01  -2.0821223e-02   4.6380052e-01   3.9292437e-01  -1.0095130e-02   5.3563384e-01  -1.1396820e-01   6.6103002e-01  -1.8531653e-01   8.8649284e-01   2.3929330e-01  -6.2142871e-01  -9.1177875e-01  -5.3236626e-01  -5.0609227e-01   3.4565600e-01   3.5554745e-01   3.1590599e-01   6.5450705e-01  -1.7529111e-01  -7.0775228e-01   5.7295685e-01  -9.0704466e-01   7.7975182e-01  -6.8742921e-01   5.9397158e-01   8.9060224e-01  -7.5551481e-01  -9.4153172e-01   4.8627866e-01   1.8157288e-01   9.2720831e-01  -8.2979049e-01  -1.3217118e-01   2.4743200e-01   7.3167949e-01   8.2517828e-01   8.1357553e-01   9.7578272e-01   8.8246981e-01   1.6603064e-02   2.6411949e-01   8.7485602e-01   3.9824943e-01  -9.9067779e-01  -8.3253112e-01  -4.9879045e-01   2.8039753e-01   2.1287842e-01  -3.7649485e-01  -7.7725146e-01  -8.8683684e-01   9.3925372e-01   2.3735858e-01   9.4032481e-01  -2.4916978e-01  -8.3074083e-01  -6.7388491e-01  -9.4048955e-01  -9.4145090e-01  -1.5773327e-01  -8.3690494e-01   5.8402331e-01   2.9882945e-01   7.9138636e-01   9.3496713e-01  -2.5023216e-01  -3.9543140e-02   5.2634168e-02  -6.2168231e-01   2.3985622e-01  -6.9292269e-01  -6.1153207e-01  -3.0996515e-01   1.6600480e-01  -1.3269732e-01  -5.2461449e-01   1.4972094e-01   1.5491760e-01   3.3013100e-01   1.0762844e-01   7.0461583e-01  -6.8605427e-01   6.5014897e-01   5.4334105e-01   4.0460278e-01   6.7014431e-02   5.8272892e-01  -9.1615858e-01   2.8205895e-01  -6.0995858e-01  -4.1185305e-01   4.7165132e-01   7.1602309e-01   9.0300516e-01  -4.8532336e-01   4.7030916e-01   9.6346782e-01  -1.8797715e-01  -7.6410590e-02   3.1799391e-01   6.1532088e-01  -3.9268476e-01  -1.9522713e-01  -9.1590264e-01   4.5887074e-01  -4.4226422e-01   3.2414143e-01  -5.7883431e-01  -7.0826388e-01  -1.4972885e-01  -8.7145905e-01  -2.9686424e-01  -3.3642482e-01   3.0683711e-01   7.9178306e-01  -1.0055973e-01   5.0765793e-01  -4.8076233e-01  -8.0093036e-01  -2.9520317e-01   1.7639871e-01   6.1861714e-01  -5.2414636e-01  -9.2428293e-01   6.9644748e-01   2.3190943e-01  -6.6269641e-01  -9.8240165e-01   1.6842674e-01  -2.5724910e-01   4.4643875e-01   3.3678129e-01   9.4051473e-01  -7.2807584e-01   1.3702440e-01  -7.0087941e-01  -6.5178208e-01  -7.1246898e-01  -9.6418677e-01   5.3041460e-01   8.9744198e-01   6.2647218e-01  -2.5809945e-01   2.8793275e-01  -3.3445379e-01   4.1518190e-01  -5.5618648e-01  -8.9391313e-01   8.3042720e-01  -5.9362162e-01   6.9691330e-01   6.6268938e-02  -3.5905926e-02   3.6165056e-02  -8.8499171e-01  -9.9937123e-01   1.0769298e-01  -3.8807548e-01   5.1756926e-03  -7.5915556e-01  -6.7118583e-01   4.3385899e-01   8.2103358e-01  -2.9994561e-01   1.8787081e-01  -1.4006653e-01   7.0910886e-01  -7.1146386e-02   2.1197461e-01   6.5954685e-01   6.3535834e-01  -4.7680703e-01  -6.8638314e-01   1.6151516e-01   5.3223559e-01   3.6119969e-01   4.5452784e-01   8.0394399e-01   8.4329576e-01  -4.3730549e-01  -2.7714190e-01   2.2371273e-01   5.0268834e-01   6.4741210e-01   2.2174083e-01  -9.2756107e-01  -3.2742460e-01   6.7665197e-01   8.7535089e-01   5.6210633e-01  -6.7003153e-01  -2.5370099e-01   5.4431177e-01   7.0168321e-02   2.7339563e-01   1.4942285e-03  -7.1865550e-01   8.5664497e-01  -4.2434856e-01   6.2271279e-01  -3.4554900e-01  -8.1895626e-02   6.0855565e-01   2.6849958e-01  -4.7642442e-01   8.3396000e-01  -4.6969726e-01   5.6740458e-01  -6.0999708e-01   1.7704790e-01   6.8294530e-01  -5.7682721e-01  -5.3659380e-01  -7.6102022e-01   6.7901001e-01   7.4116368e-01   4.7902560e-02   4.9033309e-01   5.7299519e-01  -4.6332463e-01   7.0861370e-01   1.5803141e-01   9.5914397e-01   8.8356554e-01  -7.6570324e-01   4.2628331e-01  -8.6851727e-01  -2.5134141e-01   7.8680051e-01   5.6824371e-01   2.6115374e-01   4.7032097e-01  -8.0169481e-01  -2.8441648e-01   6.5431245e-01  -2.8459259e-01  -7.4521944e-01   1.9869114e-01   2.7033270e-01   8.1750014e-01   1.5767063e-01   8.0629810e-01  -4.0981987e-01   2.6278581e-01  -4.7358719e-01  -4.8745918e-01  -9.0031387e-01  -7.4178428e-01  -1.5507034e-01  -3.3802154e-02  -4.9674825e-01   3.3237475e-01   5.6441066e-02  -8.3072583e-01   7.3265775e-01   2.2688010e-01   9.2053354e-01   2.7204291e-01  -1.6494359e-01   8.8895018e-01  -2.4736846e-01   9.7618415e-01  -9.9549584e-01  -2.0711870e-01   4.0124779e-01  -8.6358146e-01  -9.2430555e-01   9.3581928e-01   6.1610001e-01  -2.2584176e-01  -1.1496127e-01   6.7547008e-01  -4.5075672e-01  -2.7939294e-01  -9.3660162e-01   9.0101178e-01  -8.0282149e-01   7.4898035e-02  -1.7753135e-01  -4.0844850e-02  -6.4845702e-01   5.9782487e-01  -8.5629660e-01  -2.8598431e-01  -5.7720050e-01  -1.0498587e-01  -9.0465459e-01  -8.5786924e-01   9.2751687e-01   4.8830091e-01   4.7022973e-01  -5.1991130e-01  -3.2753391e-01  -2.6665511e-01   7.1734070e-01  -3.9828363e-01  -5.9718879e-01   5.0413888e-01  -9.5491770e-01  -8.1556278e-02  -1.5988006e-01  -7.0032561e-01  -6.3357646e-01  -5.6346106e-01   4.2886908e-01  -4.0451097e-02  -7.5186699e-01   7.3116223e-01   2.3186119e-01  -1.8732676e-01   5.8928731e-01  -5.4150238e-03  -9.9138547e-01  -2.4615941e-01  -3.9216400e-01  -3.2516914e-01  -3.1925303e-01   4.6138053e-01  -2.7398904e-01   7.6625619e-01   4.4404712e-01   9.9860475e-01   8.3632630e-01  -8.9724964e-01  -2.8133718e-01  -4.6184188e-01   1.7373604e-01   7.1146352e-01   2.8409459e-01  -6.3921431e-01   9.9775027e-03   8.5639472e-01   4.8243307e-01   5.0618797e-01  -3.7409422e-01   5.3086601e-01  -5.4134333e-01  -7.7855198e-01   5.3153309e-01  -2.6693020e-01   5.7276679e-01  -2.6246104e-01  -5.0635789e-02  -2.8084564e-01  -8.5777165e-01  -5.6182449e-01   1.7717670e-01   9.2126010e-01   9.5085694e-01   8.0518711e-02   2.5421928e-01  -5.5067950e-01   4.4002538e-01  -5.4748090e-01   3.6885057e-01   8.9797048e-01  -5.7494616e-01   6.2959207e-01  -7.2213906e-01  -5.8172140e-01   1.5555100e-01   7.4786152e-01  -5.5233530e-01  -9.0102608e-01   4.0546728e-01  -6.1386561e-01  -4.7698695e-01   2.2721411e-01  -4.6632949e-01   7.3393656e-01   5.1542129e-01   8.4958195e-01  -6.9834232e-01  -4.7592725e-02   1.8493076e-02   8.4636175e-01   1.3959157e-02   6.3989999e-01   2.6497236e-01  -9.6493894e-01   3.3215571e-01   3.1790337e-01   4.1776922e-01   3.8685362e-01   2.7211655e-01   4.5903285e-01  -4.5814441e-02  -4.4813126e-01   1.9152418e-01   9.6285539e-01   2.6290902e-03  -5.0666602e-01  -1.1691664e-01  -7.2382664e-01   6.3012856e-01  -5.2527724e-03   6.4646033e-01   5.5928508e-01  -1.8261962e-01   8.9618559e-01   1.2740267e-01   1.8738694e-01  -8.5835059e-01   1.5654161e-01  -4.0484370e-01   6.4256321e-01   6.9376934e-01   6.5178143e-01  -7.0511370e-01   4.8925718e-01   4.3445836e-02  -2.2258890e-02  -2.1356028e-01   7.7816756e-01  -8.3425378e-01   2.9023256e-01   1.5593992e-02   6.5210539e-01   4.3545934e-01   9.9120872e-01   2.7051121e-01   8.7776808e-01   6.4643252e-01  -9.3011508e-01   6.6687722e-01  -9.4185935e-01   9.7634112e-01   3.4638773e-01   9.9441098e-01   1.4970894e-01   2.5566040e-01   6.1128044e-01   2.4824896e-01  -8.2615107e-01  -2.1744534e-01  -3.2609728e-01   6.5433358e-01  -4.6330162e-03   5.9986673e-01  -1.5004619e-01  -1.4226800e-02   2.8860867e-01  -4.3101258e-01   1.1955710e-01  -7.0999752e-01
   7.1917589e-01  -3.8921464e-01  -4.0774682e-01  -9.2155201e-01   7.2133536e-01  -5.0457729e-01   2.1038846e-01   4.1867763e-01   4.5680926e-01   9.6756207e-01   7.5466966e-01   8.0381407e-01   6.6756088e-01   4.6911718e-02   4.4398321e-01  -7.9956821e-02   1.5298747e-01   4.7357927e-01  -8.0920839e-01   5.0764165e-01   7.7997084e-01   8.3928228e-01   1.9244650e-01   8.9506626e-01  -8.5690876e-01   6.0401482e-02   2.8380109e-01  -9.5485913e-01  -5.0016461e-01   1.3366366e-01   2.4749487e-01  -8.5412465e-01   8.5592644e-01  -2.9213880e-01  -7.7005117e-01   4.4965077e-01  -3.1276071e-01  -8.8832897e-01  -4.0788222e-01  -7.4669245e-01  -2.1834788e-01  -2.2107112e-01   1.3836975e-01   2.8877569e-01  -2.7128763e-01  -5.3448028e-02   6.7514088e-01   6.2413960e-02   2.8623112e-01   2.2659289e-01  -2.2345529e-01   1.8799507e-01   9.9431225e-01  -2.2037487e-01  -8.2762484e-01  -8.1669418e-01  -3.1071488e-01  -5.3461059e-02   8.7822253e-01  -6.2553384e-01  -7.4639182e-01  -6.1594806e-02  -7.2889404e-01   6.3595937e-01  -5.4390436e-01  -7.5520293e-01   6.4578492e-01  -6.5044372e-01  -6.3093364e-01  -4.3705692e-01  -6.9432708e-01   1.0253262e-01  -3.2153960e-01  -6.0394615e-01  -9.1129480e-01   6.7267472e-01   5.1263737e-02   4.9167255e-01  -9.0675354e-01   3.9645118e-01   6.2765375e-01   3.7417532e-01   7.1919395e-01  -1.2687659e-01  -1.9183055e-01   1.9815166e-01   6.0691447e-02   6.5120992e-01   7.1755338e-01   9.0549625e-01  -6.2836667e-01   1.2425680e-01   8.7653922e-01  -3.4591514e-01   6.3267588e-01   4.7878245e-01  -4.6677910e-02   6.5736101e-01  -3.3071675e-01  -7.1045989e-01   7.2466868e-01  -9.9018014e-01  -7.5732171e-01   8.0657047e-01  -4.9882230e-01  -9.4048790e-01   4.8764347e-01   9.4760475e-01   1.7146341e-01   2.1087712e-01   8.8413167e-02   4.1674968e-01   1.5812234e-01   2.5052894e-01  -3.2824184e-01  -3.6429131e-01   8.8362741e-01   8.4724237e-01   2.1658098e-01   6.5412348e-01   8.5551134e-01   4.8497471e-01   7.3004604e-02   3.9943594e-01   6.1206018e-01  -9.3225486e-01   5.8603329e-01  -2.0787664e-01   6.7146591e-01   2.0200647e-01   2.0352520e-02  -8.9298793e-01  -8.9762959e-01   7.5802520e-01  -2.5406251e-01   1.1634340e-01  -3.5017588e-01  -7.3352702e-01  -3.9886609e-01  -2.4188937e-01  -5.7774428e-01  -8.4039592e-01  -6.6686715e-01  -7.4600023e-01   7.2468623e-01   1.9245936e-01  -8.8662693e-01   1.7108240e-01  -6.4340041e-01  -5.0086344e-01  -2.2860846e-02   6.6686069e-01  -6.3828427e-01   5.0605686e-01   5.1983991e-01  -8.1346341e-03   1.7947006e-01  -6.6417126e-01  -7.2400565e-01  -3.2319904e-01   1.2258150e-01   9.1511195e-01   7.9470620e-01   8.7103564e-01  -1.8343149e-01  -1.4807987e-01   6.4771047e-01   1.1204889e-01  -9.4618287e-01   4.9571564e-01   8.0721259e-01   1.7299256e-02   4.5444210e-01  -6.8681370e-02  -1.3672830e-01   7.1702376e-01  -8.3430954e-01   1.9082619e-01  -6.9835854e-01   3.1775054e-01  -3.3433028e-01  -1.8691300e-01   9.9332710e-01   7.6639223e-01   4.1087279e-01   7.9357876e-01  -5.2587379e-01   9.6863895e-01  -3.2307089e-01   6.5497063e-01   5.6472818e-01  -3.1156390e-01  -9.2436280e-01   6.3808775e-03   9.7582184e-01  -8.0745789e-01   4.3666127e-01   8.1693946e-01  -5.6310653e-02  -3.9702927e-01  -8.4645808e-01   1.8961684e-02  -3.0467929e-01   8.5875738e-01   8.3890872e-01  -2.4289104e-01  -1.3895123e-01  -9.6676488e-01  -6.2780781e-01  -6.0962055e-01  -4.6501716e-01  -7.9177021e-01  -6.3251623e-01  -5.5700312e-01   4.6056904e-02  -3.0412843e-01   6.8012996e-01   9.5034825e-01  -8.5026200e-01   1.5305704e-01   4.4852051e-01  -8.8912667e-01   3.5694740e-02  -5.6722339e-01  -4.2385473e-01   2.1934965e-01  -4.8720060e-01   3.8497549e-01   3.9825576e-01   1.9816057e-01  -2.0634473e-01  -3.7115824e-01   2.5711041e-02  -7.7768722e-02  -5.2920437e-01   9.2674844e-01   9.0957829e-01  -2.0058017e-01  -8.6482070e-01  -7.0827796e-01   9.8722543e-01  -5.9597828e-01  -2.3733651e-02  -9.6493280e-01  -5.3166127e-01   8.0839773e-01  -6.6982791e-01   3.2299282e-01   9.6846847e-01  -5.9040499e-01  -1.4818020e-01   1.4326544e-01   2.6796012e-01  -5.9104567e-01  -5.6238375e-01   5.3128645e-01  -7.6916386e-01   1.5882231e-01   8.8545235e-01  -6.1359016e-02  -8.4784417e-01  -9.1057404e-01   8.8816272e-01  -4.6034063e-01  -2.3659542e-01   3.4099837e-01  -7.0732668e-01  -2.1711353e-01   2.2605340e-01   2.6710227e-01  -9.2022222e-01  -7.2644299e-02  -9.7653014e-01   1.2198660e-01   8.5600568e-01   1.9735335e-01  -6.2658129e-01  -7.1274453e-01   5.4138117e-01   9.3491308e-01  -2.0176011e-02   1.2176179e-01   9.4497133e-01  -8.4585920e-02  -8.5632698e-01   4.9616065e-01   3.5451171e-01   7.1891653e-01   9.7394072e-01  -7.1505784e-01  -5.9683836e-01   5.1739820e-01  -4.9764915e-01  -5.0871165e-01  -9.9835805e-01  -3.8526835e-02   2.7799887e-01  -8.4320073e-01   5.0552016e-01   9.0552087e-01   5.4753470e-01   5.9696054e-01  -7.0296337e-01  -4.0525659e-01   8.5002874e-01   2.3639544e-01  -8.3501880e-01   8.7453637e-01  -1.4750578e-01   7.3797179e-01   9.1408707e-01   4.0866266e-01  -3.7475995e-01  -2.9797144e-01   2.5918313e-01   8.4523835e-01  -7.6736917e-01   8.8996740e-01  -3.7593687e-01   4.7719226e-01  -3.9583738e-01   6.3122715e-01   3.0041950e-01   6.8085629e-01  -5.2934917e-01   1.2871561e-01  -8.2780738e-01   9.9888238e-01   2.4143181e-01   7.0478235e-01  -8.9931402e-01   9.1492187e-01  -2.5394218e-01  -9.1855706e-01  -7.0361033e-01   3.9299262e-01  -2.8213109e-03  -3.4272300e-01  -9.4311698e-01   1.2318493e-01  -2.1955357e-01  -6.3119203e-01   4.7435648e-01   2.6360575e-01   5.8106944e-01   4.3640991e-01  -3.7609617e-01  -2.1518323e-01   3.9011327e-01  -6.1994002e-01   8.4879790e-01   2.2003477e-01  -2.6424042e-01   5.3693184e-01  -5.6989097e-01  -9.1977001e-01   7.7040134e-01  -1.8378048e-01  -1.0236999e-01   8.0045981e-01   3.1634101e-01   7.2410461e-01  -1.5538805e-01  -7.5804522e-01  -7.2966947e-03   8.2019809e-01   7.0513663e-01   3.7273637e-01   2.5022270e-02   8.5370528e-01  -6.3293074e-01  -1.3765565e-01   4.1479957e-01   7.3111535e-01   3.8836939e-01  -3.4284788e-02   3.0622202e-01  -7.0590107e-01   7.2976140e-01   7.7956763e-01   3.3383266e-01  -4.8310637e-01   1.7031765e-01  -6.7677642e-01   5.9079920e-01   3.3099517e-01   8.5576516e-01   3.8952559e-01  -9.3775751e-01   1.8929886e-01   9.6139105e-01   5.4907562e-02  -9.6398945e-02   7.8015479e-01   7.5009812e-02   7.7417377e-01  -9.0648852e-01   3.8837943e-01   9.2053317e-01   5.3943856e-02  -8.9350837e-01  -5.2052358e-01   5.0246521e-01  -1.5744879e-01   7.7061747e-01   1.4685792e-01   5.2225945e-01   5.7049459e-01  -5.2918158e-03   5.7734814e-02   6.8178737e-01   6.0889498e-01   9.4627477e-01   1.7257627e-01  -6.7710916e-01  -5.5690144e-01   1.4062481e-01   8.8038174e-01   3.0715317e-01  -9.3716451e-01  -3.8121499e-01   6.2155278e-01   7.6018715e-01   8.8143611e-01   5.6125806e-01  -1.8513676e-01  -4.8447337e-01   2.0562404e-01   1.7174905e-01   8.0370034e-01  -5.6855536e-01   8.6523812e-01  -9.7064035e-01  -8.8776628e-01   2.3905115e-01  -2.3671056e-01  -6.3475779e-01  -9.8370677e-01   9.7726021e-01  -2.4756883e-01   6.4281401e-01  -9.0567921e-01   6.7600357e-01  -5.9734290e-01  -4.3606737e-01  -2.0131918e-01   7.2708848e-01  -6.5763333e-01  -2.9211945e-01  -6.7236659e-01  -4.2079150e-01  -8.2002441e-01  -1.9375590e-02  -4.6285735e-01   4.7214506e-03   4.1795110e-01   1.6655429e-02   8.0428589e-01   7.1596892e-01  -7.8475252e-01  -4.1544385e-01  -5.7716108e-01   3.5735798e-02   2.4314635e-01  -5.4320682e-02  -7.6114485e-01   5.2312512e-02  -5.6493849e-01   1.5541275e-01  -2.9976140e-01  -5.0612491e-01  -3.9387367e-01  -8.7559331e-02   3.3703172e-01  -1.1888802e-01   7.2496759e-02  -7.2073499e-01   1.5542175e-01  -6.8981394e-01  -7.8021967e-01   1.1136768e-01   4.2157088e-02   3.9928742e-01   3.5370209e-01   8.1109785e-01   7.3293855e-02   3.4620991e-01  -8.0693859e-01  -2.9180370e-01   5.9881112e-01   4.9097239e-01  -3.7116792e-01  -3.0185977e-01  -1.1618450e-01   9.6774927e-01   3.3852340e-01   6.2579510e-01   6.0188173e-02  -9.6768623e-01  -4.3382016e-01  -9.7756564e-01   7.9329995e-02  -7.8414919e-01  -9.8775508e-01   4.4535194e-01  -5.6901539e-01   7.6904050e-01   9.1303356e-01  -5.5129193e-01   7.8144694e-01   2.2300325e-02   4.7356253e-01  -7.8474952e-01  -9.6484683e-01  -4.6960726e-01  -8.7880721e-01   6.7664539e-01  -4.6725774e-02  -2.3820674e-01  -8.8740981e-01  -4.6619058e-01   4.9834760e-01   6.4222918e-01  -2.2461245e-01  -5.1042134e-02  -2.6721357e-01  -8.9617698e-01   7.5606352e-02  -5.3660089e-01  -4.9295167e-01  -8.0986780e-01  -4.0032822e-01   1.2428804e-01   3.6810602e-01  -3.7131522e-01  -8.0655506e-01  -7.7055635e-02   6.0795782e-01  -3.2946169e-01   5.1307975e-01  -1.6544808e-01   7.3426018e-02  -4.9457033e-01   8.6105193e-01  -1.9476576e-01  -6.2840624e-01   9.2956886e-01  -6.6681829e-02   3.5909763e-01  -9.2092599e-01  -8.5225912e-01   4.4902160e-01  -4.8293486e-01   8.3238249e-01   7.9718280e-02   6.8114608e-01   7.0821401e-01  -6.9579176e-01   4.7993843e-01  -9.0279991e-01  -9.5950642e-01  -9.8584970e-01  -1.0635984e-01  -7.5893924e-01   4.0007333e-01  -4.9997922e-01  -7.8416939e-01  -7.9501180e-02  -7.2381298e-01  -4.7914422e-01   7.4855998e-01   8.6917855e-01  -8.7599927e-01  -7.6369957e-01  -7.2889288e-01   3.7690888e-01  -9.2322559e-01   9.1905952e-02  -5.8010119e-01  -2.1358765e-01  -8.3610558e-01  -6.4725371e-01  -3.2231805e-01  -4.4131646e-01   6.6887602e-01   5.0777474e-01  -1.6578492e-01   9.5712666e-01   9.4595384e-01  -1.4422265e-01   6.0347133e-01  -8.1738186e-01  -8.4486678e-01  -7.6486364e-01  -7.3681313e-01   9.5991581e-01   8.6193644e-03  -1.9724915e-01  -8.9834687e-01  -7.8701651e-02  -2.1656279e-01  -9.6482175e-01   4.7779464e-01  -1.0319580e-01  -8.7383173e-01  -8.8840237e-01   2.1461807e-01  -1.9729579e-01  -7.5038763e-01   9.9091798e-01   5.3913387e-01  -2.8677299e-01   7.5844696e-01  -5.9457453e-01  -5.0216721e-01   8.7602372e-01  -5.4934871e-01  -5.4132093e-01   3.3264577e-01   7.2831743e-01  -4.1141005e-01   5.5887576e-01   1.1419467e-01   7.3390633e-01   8.0626067e-01   3.7288975e-01  -9.8661280e-01   5.8682557e-01  -3.7678349e-01  -4.0310736e-01  -2.0115009e-01   3.3389338e-01   4.0144395e-01  -6.7388486e-01  -1.6929476e-01  -5.2717536e-01   9.9595084e-01  -6.5540617e-01   3.8124844e-01  -8.0223706e-01   3.4909477e-02  -7.2542190e-02   1.0418654e-01   4.7373580e-01   8.5941266e-01  -7.9527662e-01  -4.7939614e-01   8.3704687e-01   9.1523590e-01   9.5377373e-01  -3.3453852e-01   3.9313982e-01  -1.7308071e-01   6.1790239e-01   1.4708795e-01  -2.2554986e-01  -2.1111056e-01  -9.9134980e-01   9.0342111e-01  -1.7192408e-02  -3.1784291e-01   4.7734354e-02  -5.0300260e-02  -2.9190625e-01   3.2562859e-01  -6.4424770e-02  -7.4438782e-01   5.7337866e-01   7.8361380e-01   5.1366752e-01  -2.0670072e-02  -8.8898989e-01  -9.0526901e-01   2.6136255e-01  -1.1395571e-01   8.8269445e-01   2.3935392e-01  -8.3115125e-01   7.9620087e-01  -4.1900650e-01  -8.1178671e-01   9.8331111e-01  -3.6646150e-01  -9.1504913e-01   8.0292849e-01  -9.4923601e-01   9.2459648e-01  -6.3506489e-01  -1.3361369e-01   4.5613722e-01  -8.4943677e-01   7.5186929e-01   7.4915833e-01   8.7115668e-01  -9.0249534e-02  -2.1215404e-01  -2.6821738e-01  -9.1025980e-01   8.2816926e-01  -1.7204369e-01   1.1434790e-01  -5.0147237e-01   4.5266134e-01   7.1465147e-02  -8.5044838e-01  -8.8483366e-01  -4.1469728e-01  -5.4827487e-01  -8.2087876e-01   4.3909575e-01  -7.9764504e-01   2.6548112e-01  -4.7604268e-01  -5.7407675e-01  -7.3996403e-01  -6.1868063e-01   6.4161119e-01   2.0224532e-01  -8.5237878e-01  -3.5363872e-01   1.4320772e-01  -2.8784518e-01  -2.2959763e-01  -7.4970802e-01  -1.3986866e-01  -4.3769368e-01   9.2773337e-01  -8.0197977e-01  -8.3413222e-01  -7.9865580e-01  -5.8978047e-01   4.6888289e-01  -7.5955047e-01   9.7098070e-01  -9.7947434e-01   5.1304843e-01  -3.7475068e-01   4.2016457e-01   6.4314612e-01   2.0611887e-01  -2.3819026e-01   6.1031060e-01   2.9297785e-01  -7.1579895e-01  -1.8402216e-01  -7.6666341e-01  -2.2122720e-01   1.1138987e-01   1.6995028e-01   7.1207114e-02   9.3522395e-01   4.7818139e-01  -3.4498845e-01  -7.8276004e-01  -6.4998798e-01  -7.6903174e-01  -9.8992071e-01   4.3014401e-01   7.8613006e-01   3.2601078e-01  -4.2794847e-03   2.5687349e-02  -6.2536389e-01   3.5765907e-01  -3.3676199e-01  -8.2056567e-01   8.7870362e-01   1.3597460e-01  -9.3308258e-01   6.0497784e-01   8.0402098e-01   3.7135303e-01  -4.2676072e-01   8.1173530e-01   3.4372849e-01  -9.1431727e-01   1.9340467e-01  -7.6277760e-01  -7.7764020e-01   7.2744237e-01  -2.0752891e-01   7.1353309e-01  -8.8823926e-01   3.5279746e-01   9.9393984e-02  -7.7695055e-01   6.3824212e-01   1.8730812e-01   1.1144465e-01  -2.4562332e-02  -5.6864239e-01   2.0270288e-01  -7.6426969e-01   9.6830305e-01   1.5913393e-01   7.2249296e-01   2.1721172e-01   2.2983142e-01  -6.0620214e-01  -4.6357897e-01   6.0647633e-01   1.9072616e-01  -1.1349473e-01  -2.7506633e-01   5.9297135e-01  -3.8286317e-01   8.1418107e-02  -8.2996712e-01   1.0889730e-01  -3.0151277e-01  -3.2871658e-01  -4.5587866e-01  -9.1221553e-01   4.1753398e-02  -1.2037883e-01  -5.3208758e-01   6.7640208e-01  -2.3684530e-01   1.5287046e-01  -1.4229574e-02   3.5750582e-01  -6.1588836e-01  -2.2488522e-01  -8.1969193e-01   8.3581660e-01   2.7829830e-01   1.5127265e-01  -4.1287618e-01  -5.8742698e-01  -9.1422807e-01  -7.6303877e-01  -3.5284667e-01  -6.9516165e-02   6.9903035e-02   9.2248865e-01   3.7596746e-01   9.3835031e-01   2.0933182e-01  -7.3155538e-01  -4.6951166e-01   4.8826283e-01  -3.4835987e-02   5.4100221e-01  -8.9481352e-01  -7.5737164e-01   9.0032608e-01   8.0155284e-01   7.1101575e-01  -1.6107598e-01  -3.2241602e-01   2.2260766e-01  -2.1902768e-01  -5.9640457e-01   2.3373110e-01  -9.6279022e-01  -9.3095836e-01   7.5397913e-01   8.5058923e-01   7.9575754e-01   2.8226706e-01   6.3845259e-01  -3.4513617e-01   2.9473107e-01  -6.6910050e-02   4.2524379e-01   8.3128379e-01   4.0250125e-02  -7.7878266e-01   2.8021757e-01   2.9420374e-01   6.5943594e-01  -1.9940621e-01   2.6497958e-01  -7.2668359e-01  -5.6229414e-01   7.8330445e-01  -5.2223626e-01   6.5620305e-01  -6.7220590e-01   3.9597824e-01   8.4026436e-01   1.3818802e-01  -5.5592408e-01   1.5557708e-01  -9.4712293e-01   4.8845312e-02  -7.7619981e-01   4.7585177e-01   6.6649613e-02  -6.2018998e-01  -2.8299166e-01   6.4979720e-01  -2.8811162e-01   6.9293487e-01   5.8236906e-01   4.9620598e-01  -1.9434760e-02  -1.4225593e-01  -9.2781159e-01  -4.0384493e-01   4.7504535e-01   6.3780480e-02   4.8834547e-01   2.8214976e-01   3.8830579e-01  -7.8848713e-01   9.1799835e-02   5.9557697e-01  -9.1538357e-01  -9.4684416e-01  -9.2828549e-01   9.1360305e-01  -5.3652084e-01   3.4854569e-01   2.6062918e-01   3.0996841e-01  -6.0282865e-01   7.4630073e-03  -3.4556149e-01  -1.8561312e-02   4.6089918e-01   5.4004734e-01   8.3657800e-01   7.0817637e-01   9.2630533e-01  -7.6802093e-01  -8.8334750e-02   5.9768760e-01   2.8776102e-01   1.8963233e-01   6.1834277e-01  -9.9974983e-02  -9.4869395e-01   3.5911681e-01   7.2561633e-01   5.6540344e-01  -8.4149339e-02  -4.1820244e-01  -6.8851695e-01   9.7457470e-01  -6.3111747e-01   4.9200298e-01  -4.0815902e-01  -8.2518172e-01  -2.8901941e-01  -5.5718627e-01   9.4324354e-01   2.7294386e-01   9.8306219e-01  -9.4990321e-01  -2.2182750e-01  -6.6040176e-01  -7.2699342e-01  -6.2430579e-01   2.9227915e-01  -9.0814868e-01  -8.1428427e-01   2.6597285e-01  -2.4175522e-01   4.6565257e-03  -3.0527733e-01   6.8919092e-01   2.1758556e-01   3.8475475e-01   6.9805529e-01   3.4216792e-01  -2.6743907e-01   3.3320342e-02  -5.3626252e-01  -8.4788687e-01   7.6276754e-01   3.9973383e-01   7.0344827e-03   8.5598704e-01  -6.9092378e-01  -9.0749755e-02  -5.4995582e-01  -4.9677317e-02   2.2821885e-01  -8.7399828e-01  -3.8133755e-01  -9.0115084e-01  -9.6425383e-02  -7.5574851e-01   3.1863635e-01   7.7996960e-01   1.7557005e-02   4.5082253e-01   3.2222264e-01   7.8954505e-01   9.9188249e-01   2.0320048e-01   2.1117476e-01   9.6374149e-01  -4.9310215e-01   3.6553406e-01  -6.6605632e-01   3.6240380e-01   1.6833241e-01  -7.0160319e-01
   1.7428482e-01  -5.2110195e-01   7.0206884e-01  -5.6202793e-01  -2.3149518e-01   6.4399808e-02  -7.4442528e-01  -9.9078067e-01   4.7276376e-02   6.8386873e-01  -8.8377433e-01  -9.0574270e-01  -5.7801579e-01  -1.0189886e-01  -1.6524186e-01  -7.8929920e-01   9.2860417e-01   7.6605305e-03  -4.7583599e-01   4.9900220e-01  -6.3344966e-01   3.6945948e-02   5.3094432e-01   2.3281022e-01  -2.0860266e-01  -9.2075516e-01  -5.3349009e-01   5.4871442e-01  -4.5275022e-01  -1.6243730e-02  -9.3185736e-01   2.4748265e-02  -3.6435345e-01   5.9169398e-01  -3.7579565e-01  -9.8211661e-01   7.6880183e-01  -4.2662913e-01  -3.7199014e-01  -7.6952791e-02   3.9804570e-01   9.1019712e-01   3.4054482e-01   1.2123874e-01   2.2194637e-01   7.8000818e-01  -9.5304873e-01   2.1647108e-01  -1.0729787e-01  -8.4568206e-02   7.4095332e-01  -4.7805791e-01  -5.1797437e-01   3.9208994e-01  -5.2900164e-02   9.6851658e-01   7.6879955e-02   7.7927897e-01   3.4475277e-01   7.1750333e-01   1.3705975e-01   6.6503809e-01   8.5774339e-01  -3.6760500e-05   5.0996726e-01   7.1513671e-01  -7.7886630e-01   7.8154185e-01  -6.1421886e-01   6.6533615e-01   4.7269981e-01  -4.4357786e-01   8.9842292e-01  -6.4819133e-01   8.8416237e-01   5.1019926e-01  -3.4491377e-02   4.2701959e-01  -9.4144036e-02  -3.9936048e-01  -1.5178522e-01  -7.3457453e-01   9.2501019e-02  -8.7861126e-01  -3.1716924e-02   8.7650101e-02  -5.9041772e-01  -4.1224469e-01   9.9758056e-01   9.1178213e-01   4.8230297e-01  -4.4288071e-01   1.2204514e-01  -4.6118482e-01   3.8208403e-01   1.0444858e-01  -1.9201338e-01   6.2748288e-01  -3.4402913e-01   8.1361040e-01  -9.4694570e-01   6.0463046e-01  -1.7159208e-01   5.4604716e-02   5.7648142e-01   2.4434118e-01   8.4251982e-01  -8.7253312e-01  -4.4345504e-01   2.7044576e-01   6.6315973e-01  -7.5578689e-01  -9.9535355e-02   7.1036757e-01   5.0948460e-01  -2.8094539e-01   6.9850193e-01   3.7292230e-01  -4.5028694e-01  -2.5497427e-01  -4.9268033e-02   2.0220643e-01  -6.2790207e-01   1.3232201e-01   4.2405464e-01  -9.8797118e-01   7.9333951e-01   9.9862741e-01  -1.9199244e-03  -7.3762251e-01   1.2617574e-01   5.0967138e-01   1.7289446e-01   4.0282540e-01  -3.2346637e-01  -3.5117937e-01   9.9793652e-01   2.5221536e-01  -3.2454236e-01   7.3639248e-01   3.1864409e-01   6.0019445e-02  -3.5613293e-01  -6.0849072e-01   6.5581479e-01  -4.2753933e-01  -3.1682402e-01  -3.3817825e-01   6.1109254e-01   3.1860204e-02  -5.6338171e-01   2.9738022e-01   9.6828955e-01  -4.8485936e-01   7.1076302e-01  -9.4207417e-01   6.3347511e-01   7.4690449e-01   5.5244549e-01  -1.3131113e-01   8.1065796e-01   6.3141845e-01   8.9417106e-01  -1.8524263e-01  -8.0628194e-01  -5.0023883e-01   2.4189214e-02  -6.1424412e-01  -9.1197546e-01  -7.0368129e-03   8.4602706e-01  -8.0113934e-01  -2.1671956e-01  -2.3348707e-01  -4.7530692e-01   5.3307485e-01  -9.6530482e-01   8.3884698e-01   4.3784826e-01   6.7517106e-01  -8.2336491e-01   4.1714120e-01  -8.8267304e-01   5.6877955e-01  -7.3925461e-01   3.4704825e-01  -1.8844613e-01   1.3900740e-01  -5.6475522e-01  -7.9650633e-01   3.6355186e-02  -3.9601823e-01  -9.9715468e-01  -4.1773490e-01  -6.9256697e-01  -6.3946379e-01   4.3009046e-01  -3.1095791e-01   9.5111100e-01   5.8983449e-01  -6.1402790e-01  -1.7506255e-01   8.0145091e-01   4.5138914e-02   4.8293903e-01  -4.2532689e-01   3.5606968e-01  -9.6466765e-01  -4.9769704e-01  -3.3351447e-01  -2.6732443e-01   5.9656540e-01   5.8729785e-01  -3.4633574e-01  -9.8540509e-01  -2.6078420e-01  -1.7046273e-01   9.6932788e-01  -3.4883170e-01   6.9202096e-01   5.2045683e-01  -3.5707698e-01  -6.3811877e-02   7.3746334e-01   7.8149036e-01  -5.6731544e-01  -7.5710773e-01  -1.1969721e-01   1.5842040e-01   5.8941131e-01  -6.5379366e-01  -1.5426797e-01  -5.3488717e-02   5.5025677e-01  -8.7557941e-01   8.1929671e-01  -1.4231351e-01   9.2326049e-01  -7.9171514e-01   2.7562414e-01   2.7996159e-01  -5.6221517e-01   3.2756167e-01  -6.7426857e-01   1.7759472e-01   3.8366230e-01  -5.0119786e-01   7.9931470e-03   7.0683229e-01   2.9886607e-01   7.9981457e-01   8.1239384e-01   2.8113743e-01   6.2732496e-02  -7.3391125e-02  -7.6299631e-01  -7.6426342e-01   5.5684667e-01   2.1917927e-01  -6.3532362e-01  -6.9956131e-01   8.5282492e-01   4.1045327e-01  -9.3532911e-01   5.4936650e-01   4.7703311e-01   3.4701516e-01  -3.1347586e-01   9.0664472e-01   3.9212177e-01  -8.0164354e-01  -8.1834057e-01  -9.0279979e-01   2.9233266e-01   9.9496699e-01   1.9377522e-01   7.3409133e-01   6.7205306e-01  -5.8175484e-01  -3.5360278e-01   5.2077869e-01  -2.9753581e-01  -5.8423506e-01   9.8074190e-01  -3.9216917e-02  -9.1702096e-01   3.4522173e-01   6.6867889e-01   7.9192729e-01   4.3535890e-01   1.4574759e-01   7.6236761e-01   6.5202131e-02   9.7280301e-03   5.7684412e-01  -4.8486960e-01   2.4892893e-01  -2.3664471e-01  -8.3774041e-01  -2.7703428e-02   3.3782472e-01  -2.1755063e-01   5.3393765e-01  -8.6156382e-01   8.9759734e-01  -2.6173628e-01   4.9241807e-01   9.0839980e-01  -3.9738335e-01   4.4058680e-03   1.5070317e-01   6.4001645e-01  -4.3696572e-01  -1.8163762e-01   7.0806774e-01   9.4478552e-01  -4.5823317e-01  -6.6895344e-01   9.6232867e-01   2.9524844e-02  -5.7134685e-01   3.5879663e-01  -9.8728371e-01  -9.4094386e-01   8.8653545e-01   8.3486914e-01  -6.2868793e-01   6.2675670e-01   5.9025943e-02  -1.0280603e-01  -3.8022336e-01   2.6173932e-01  -2.2045243e-01  -7.8259107e-01   4.4186173e-01   8.7901001e-01  -5.6253504e-01   2.8231784e-01   9.6970445e-01   1.4534343e-01   6.7433140e-01  -4.7466048e-01  -6.1098638e-01   9.9842704e-01   5.5844477e-01   2.8223852e-02  -9.8293693e-01   6.8128460e-01   4.8677576e-01  -9.5031587e-01  -4.7854196e-02  -8.9935161e-01  -6.0276874e-01  -8.1704484e-01  -1.7611379e-01  -4.4555936e-01   7.6615011e-01   6.0557966e-01   2.1500100e-01   7.1928082e-01  -7.5670589e-01   9.3782999e-01   2.3755591e-01  -8.5947692e-01  -4.7616871e-01  -2.2599813e-01  -3.3930037e-01  -7.3960253e-01   4.4090305e-01   8.7048738e-01   1.0017055e-01   9.9225740e-01   1.5469674e-01   8.6912674e-01  -8.7709306e-01  -8.1761700e-01  -7.5553073e-01   5.7271683e-01  -9.3375870e-01  -9.1283899e-01  -9.5356830e-01   6.2036587e-01   7.8278345e-01  -3.4555109e-01   5.1837389e-01  -5.1261775e-01   6.4554094e-01  -9.0873471e-01   5.2693342e-01  -7.3881696e-01   2.1300941e-02  -4.3043935e-01  -8.8739067e-01   9.4091062e-01   6.0426865e-01  -3.8700254e-01   6.4224944e-01  -7.7781863e-01   5.3306085e-02   4.4868188e-02  -5.6584414e-01   2.4192282e-01   9.4216559e-01  -4.7585789e-02  -8.3748429e-01   9.9522769e-02   8.6168700e-01   4.2751606e-01   3.6056056e-01   8.3936663e-01  -9.0530660e-01   1.3977920e-01   5.1145393e-01   1.7313904e-01   1.8090283e-01   7.2582886e-01  -6.6815486e-01  -4.3968495e-01  -8.8116484e-01   9.6231006e-01  -1.9818723e-01   3.4983756e-01   2.4457526e-01  -5.6438162e-01  -3.4164816e-01   1.5350167e-02  -5.3187071e-01   8.5573939e-01   2.3518183e-01   9.5253752e-01   2.1121359e-01  -8.6953933e-01  -2.8867005e-01  -7.8090570e-02  -2.1681650e-01   4.4702083e-01  -8.8548156e-01   8.0528116e-01  -5.5765363e-01  -1.4020264e-01  -6.3192801e-01  -8.3075380e-02  -2.0398346e-02   4.0869622e-01   4.5073900e-01   2.6003191e-02   1.8252657e-01  -8.8650948e-01   6.8447841e-01   5.2038626e-01  -1.2182988e-01  -9.6607068e-01  -1.4739105e-02   9.5535150e-01  -9.4515259e-01   7.9555882e-01  -2.6009458e-01  -6.7077006e-01   4.1893060e-01  -3.4329017e-01   5.4326304e-01   6.0021781e-01  -6.9811129e-01  -5.9197441e-01  -2.7758307e-01   6.1948770e-01   2.6983670e-01   5.0783959e-01  -4.3740935e-01  -6.7508554e-01  -6.4880033e-01  -4.0896175e-01  -1.4571282e-01  -6.3706148e-02  -6.1861960e-01   5.8969279e-01   9.1893816e-01  -7.7508593e-01  -3.2813620e-01   5.9718368e-01   9.8577242e-01   2.9534578e-01  -8.9745470e-01   4.0782553e-01   1.9318442e-01   9.2093671e-01   7.5708494e-01  -6.6862842e-01   4.9777867e-01  -4.8567729e-01   8.1423337e-01   2.4649944e-01  -3.5876731e-01   1.8760287e-01  -8.8073371e-01   3.5614148e-01  -1.2325721e-01  -9.9626027e-01   8.1074834e-01  -4.6057767e-01   4.6812303e-01  -9.7846924e-01   1.4091509e-01   8.7758344e-01   3.7716468e-02   9.0928060e-01   7.4675219e-01  -9.2937179e-03   3.3830060e-01  -5.1175440e-01  -4.1282221e-01  -7.2921926e-01  -5.4233792e-02  -6.6299800e-01   5.2784253e-01   2.0492507e-01  -1.8763440e-01  -7.8244428e-01   6.6657286e-01  -5.1815366e-02   6.5235005e-02  -4.4598177e-01  -2.6393655e-01   7.8197249e-01   5.7459461e-01  -5.6967980e-01  -6.9887429e-02  -3.6452295e-01   2.0325205e-01   4.6287884e-02  -1.0681851e-01   5.0088986e-01   8.0544193e-01  -5.7620906e-01   6.5655352e-01  -2.2322183e-02   4.1870682e-01  -9.8639818e-01   8.7069471e-01   8.6510595e-02  -9.8911135e-01  -7.9445117e-01  -8.1683621e-02  -6.3030306e-01  -8.3398088e-01   5.0255788e-01  -1.1183384e-01   5.0921508e-01   9.5620274e-01  -9.1342202e-01   8.7005379e-01   2.1430170e-01  -7.7804580e-01  -1.9048791e-01   7.6061342e-03   6.7855404e-01  -1.7015945e-01  -3.9922462e-01  -8.3396939e-01  -7.3547823e-01   1.2291797e-01  -6.7285289e-01  -5.0794069e-01  -4.1973591e-01   5.2723185e-01   1.1758773e-01   9.7487159e-01   2.5869381e-01  -5.3728649e-02  -3.4508604e-01   2.0789247e-02   3.6399561e-01  -3.8390623e-01   4.6610331e-01   3.4620897e-01   8.4198759e-01   3.2120039e-01   3.6735269e-01   1.8105992e-01   7.4958931e-01  -2.4434541e-01  -7.9104583e-01   1.2768665e-01   7.1215071e-01  -9.3945521e-01   5.1482337e-01  -2.7311005e-01  -1.8960227e-01   5.4505599e-01   5.1542032e-01   4.8425672e-01  -5.0351739e-01   3.5237897e-01  -4.5134241e-01  -3.9243890e-01   9.3689835e-01   8.4937674e-01  -8.4944501e-01  -6.6961393e-01   9.9575420e-01  -2.4319916e-01  -1.6099076e-01   3.1905900e-01   9.7897215e-01  -4.6030589e-01   9.8380801e-01   2.7529663e-01  -7.5839709e-01  -2.6418162e-01   4.2637861e-01  -9.9806040e-01  -8.2059907e-01   8.1826666e-01  -9.1002161e-01   8.3370886e-01   4.0171279e-01  -3.4089155e-01  -4.1489356e-01  -2.0511180e-01   1.6986148e-01  -9.1651237e-01   8.2266963e-02  -5.2468251e-01   7.8421173e-01  -5.5107245e-02  -7.2361468e-01   1.0364198e-02   2.8362465e-01   6.7359419e-04  -3.4493541e-02   9.2262917e-01   2.8218696e-01   5.9933445e-01   8.7643994e-01  -8.6652592e-01  -7.4385253e-01   6.7968628e-01   9.2935832e-01  -6.2323299e-01  -1.3600920e-01   3.4057780e-01   8.7723119e-01  -9.0818609e-01  -7.5375045e-01  -8.8036973e-01  -1.1187325e-01   5.9390882e-01  -2.5298649e-01  -3.6323439e-01   2.0613668e-01  -2.8953254e-01  -1.7700639e-01  -5.5416642e-01   5.3661169e-01   1.1837754e-01   4.1291166e-01   1.0073306e-01   8.7400395e-01  -8.5491222e-01  -1.0568122e-01   1.9251574e-01   5.1804308e-01  -2.1974732e-01  -7.0675271e-01  -1.3767691e-01   8.2109548e-01   3.7806045e-01  -8.5119545e-01   8.8462284e-01   2.4779876e-01  -9.8614821e-01  -7.7763957e-01   2.0712599e-01   8.0522246e-01  -8.6158282e-01   7.3450340e-01  -6.5642638e-01   2.7609562e-01  -8.3015603e-01  -3.0526618e-01  -1.3170686e-01   3.4030207e-01  -1.9091267e-01  -6.3138823e-01   1.2733394e-01   5.1179431e-01   5.5910257e-01  -9.4910379e-01  -8.3534881e-01  -4.2468027e-01  -2.7643265e-01   4.7303227e-01  -4.7079564e-01   5.4945648e-01  -6.7085351e-01   6.8065559e-01  -8.1398152e-01   4.6043900e-01   8.3507086e-01   9.1684340e-01  -9.6187813e-01   9.0958754e-01   9.4507119e-01   1.4628042e-01   4.9579730e-01   6.1748659e-01  -7.8418454e-01   5.1084510e-01   1.0768806e-01  -8.0335985e-01   5.3663845e-01  -6.1604761e-01   3.5658209e-01  -5.8570863e-01   1.5836786e-01  -4.1577136e-01  -9.6856648e-01   3.2584777e-02  -8.7825751e-01  -7.7805850e-01  -9.4305361e-01   9.2470538e-01   5.3187320e-01  -8.3204422e-01  -3.1820728e-01  -5.6890131e-01   8.0547594e-01   7.7063616e-01  -3.5884479e-01  -1.9384322e-01  -3.0818991e-01  -7.2410984e-01  -2.8295406e-02   1.9071087e-01   9.8921201e-01   4.7363490e-01   9.2757438e-01   1.7292677e-01   3.3906939e-01   7.1403270e-02  -3.8650424e-01  -3.6112853e-01   1.6897639e-01   2.2980542e-01  -2.3673849e-01  -5.9325963e-01  -7.1686745e-01  -6.8933405e-01  -5.0657158e-02  -9.0220255e-01  -7.4627954e-01  -1.2943314e-01   9.9451136e-02   4.6084384e-02  -5.8382801e-01   5.6393358e-01  -3.6074634e-01  -9.9101099e-01  -6.3589124e-01  -6.6736694e-01  -7.0448354e-01   6.6479770e-01   6.6911329e-01   8.1580909e-01   5.2336654e-01   4.8876741e-01   5.6334909e-01  -1.4674004e-01   6.5999412e-01   7.0881367e-01   4.6717356e-01  -2.3953265e-02   5.6362140e-01   7.7722582e-02  -1.3057806e-01  -9.6652583e-02   3.9270698e-01   7.2180293e-01   6.9092984e-01  -3.5610904e-01  -3.4126342e-01   2.2907076e-01   5.4266222e-01  -4.9748829e-01  -7.8215354e-01  -4.5870102e-01  -9.1810422e-01  -2.1140290e-01  -9.7193682e-02   8.9164769e-01   6.5375180e-01   7.6804384e-01  -6.9158411e-01   8.8404848e-01   8.5820672e-01   7.3391296e-02   7.7541743e-01  -3.9724732e-01  -2.5475039e-01  -8.0420656e-01  -9.9035871e-01   7.5809740e-01   5.8255602e-01  -7.9151161e-01   2.1154458e-01  -3.5449886e-01   3.7997982e-01   4.9356579e-01  -2.3256802e-01  -1.1542383e-01   8.3703828e-01  -6.7074902e-01  -6.5954696e-01   4.9220794e-01  -6.4289872e-01  -5.1785140e-01  -5.3414318e-01  -7.7778266e-01   7.3228706e-01   3.8684325e-02  -8.0253223e-01  -2.4470801e-01  -6.2234147e-01  -6.3885871e-01   1.0438323e-01  -5.4928210e-01  -6.1929491e-02   2.4602645e-01  -7.0318129e-01  -8.7620494e-01  -3.2155345e-01   8.4460234e-01   2.5796510e-01  -6.5373567e-01  -9.4619822e-01  -7.9605724e-01  -4.9258128e-01   7.7477132e-01  -4.4338778e-02  -1.8206963e-02   4.4597076e-01  -1.5305606e-01  -8.3445583e-01   3.2045584e-01   4.7238914e-01   1.0991804e-02   8.0789328e-01   8.8937071e-01   1.2071709e-01   6.9906246e-02  -2.6431023e-01  -4.5308254e-01  -2.3941322e-01  -1.8535579e-01  -3.1613256e-01  -1.6232466e-01   1.1951096e-01  -3.2520616e-01   5.8954318e-01   6.7244973e-01   2.8896756e-01   2.3177551e-01  -9.2885902e-01  -3.5439066e-01  -5.0851358e-01  -1.3819432e-01  -5.4301576e-01  -4.7025016e-01  -8.7918609e-01   7.0713194e-01   1.3225271e-01  -1.1585670e-01   7.3541640e-01   9.1110657e-01  -6.6087456e-01   7.7715585e-01  -5.8216221e-01  -5.6552833e-01   8.8690749e-02   8.9128142e-01  -8.0605450e-01  -4.8145275e-01  -5.8474687e-01  -3.4016194e-01  -4.5954557e-01   1.9841601e-01  -9.2388536e-01   2.7970400e-01   5.6579679e-01   8.1057066e-01  -5.7343511e-01  -3.1543547e-01  -7.6170468e-01  -9.4826115e-01  -7.6286500e-01   7.7341701e-01  -1.8100659e-01   1.1111053e-01  -7.9737573e-01   1.4080613e-01   5.8005373e-01   3.5490500e-01  -9.2910920e-01  -2.5763488e-01  -1.0223733e-01  -2.8442615e-02   9.2006580e-01   8.5555035e-01   3.2345221e-01  -4.4075650e-01   4.6296487e-01  -3.0186128e-01  -8.7488125e-01  -6.7646287e-01  -3.3784319e-01  -7.7931501e-01   2.1142877e-01  -4.4997608e-01  -9.4989935e-01  -3.4662866e-01   6.9275371e-01   8.3850597e-01   2.5263577e-01   4.3347423e-01  -6.2533527e-01  -7.3237212e-01   3.8960145e-01   4.9701278e-01  -3.0869455e-01   4.0642665e-01   1.3155951e-01   3.3212836e-01  -4.8011647e-01  -1.7379931e-01  -2.9095810e-01  -8.7468334e-01   8.8542372e-01  -7.3897428e-01   6.8477653e-02  -1.3655719e-01  -9.7235325e-01   9.2094939e-02   9.9276963e-01   3.4070411e-01   2.0976598e-01   6.0797121e-02  -7.7268467e-01  -8.5909755e-01   4.6162599e-01  -1.6126353e-01  -5.7387635e-01  -8.1538851e-02  -2.2560454e-01  -3.2021309e-01   5.6872843e-01   3.4379525e-02  -7.9279625e-01   6.9307398e-01  -1.9126866e-01   1.5046453e-01   5.4103417e-03   6.2519470e-01   7.8346522e-01  -7.6786445e-01   9.9726281e-01   5.2275031e-01  -3.6049895e-01  -1.1904564e-01   6.5800501e-01   5.2557622e-01   9.8406298e-01   3.4025042e-01   9.3953881e-01  -4.1460047e-01   7.1271848e-02  -1.0030127e-02  -9.9920369e-01   9.7141208e-01   4.5468049e-01  -5.8094267e-03   7.0958337e-01  -5.8257094e-01   2.3422284e-01  -9.9706543e-01   4.1268883e-01  -3.3516983e-01   4.6137637e-01  -3.0131278e-02   2.3845236e-01   1.8586311e-01  -1.0378258e-01   9.6563392e-01   1.3086398e-01   7.5973188e-01  -1.8997637e-02   7.9950328e-02  -4.6477035e-01  -1.9869714e-01   4.9332385e-01  -4.6963165e-01
