   8.2359092e-01   9.9446241e-01   5.4756694e-02   9.0231857e-01   8.2745608e-01   4.9531859e-01  -9.1102084e-01   2.2170685e-01   6.1849730e-01   6.8315388e-01  -6.1687271e-01   8.6658857e-01   8.0746524e-01   3.8474650e-01  -6.4038410e-01  -8.3254128e-01   6.8171463e-01  -2.8486071e-01  -4.3516502e-01   6.1045011e-01  -3.7298428e-01   4.1151773e-01   6.1166190e-01   4.2965405e-01  -3.6450697e-01  -6.5287056e-01  -2.4233443e-02  -7.2602258e-01  -2.2065600e-01   8.1507049e-01   1.1910222e-01  -8.7320655e-01   2.6576589e-01   3.3602098e-01   4.5612371e-01  -1.9649989e-01   8.0681423e-02  -9.3624390e-02  -8.7947829e-01   6.2049757e-01   8.9923885e-01   7.1306429e-01   5.5551110e-01  -7.7456256e-01   4.3016188e-01  -6.4758210e-01  -2.2293609e-01  -3.9682568e-01  -3.6821800e-01   9.0162862e-01   9.7920459e-01  -2.5370159e-01   2.6085790e-01   1.7046370e-01  -7.5199342e-01   8.5452686e-01  -7.2902322e-03  -1.0725276e-01   2.2543872e-01  -7.4596620e-01   6.6807269e-01   5.7653710e-01   5.9204141e-01  -5.0467970e-01  -9.6743065e-01   4.6398759e-01  -2.4315088e-01   8.4644527e-01   7.6185652e-02   6.2528824e-01   3.3317954e-01   7.7559980e-01   6.3338371e-01   9.5764727e-01  -1.3888215e-01   1.8050554e-01   8.0540210e-02  -5.8020245e-01   5.0805521e-01   6.0494441e-01  -4.7165184e-01   6.3568637e-01   1.3767451e-01  -5.5648484e-01   8.0542380e-01   1.2017525e-01  -3.9848561e-01  -9.5150253e-01   6.2747508e-02  -2.5210224e-01  -8.8807155e-01  -5.8311323e-01   1.4770309e-01  -7.7823053e-01  -8.8534103e-01   5.3037995e-01  -3.5649064e-01   6.3747519e-01  -7.9205002e-01  -5.3737388e-01   6.6319402e-01  -3.2173309e-01  -6.2487588e-01   5.0996466e-01   4.8918770e-01  -4.6084372e-01  -5.7575271e-01   9.7315761e-01  -6.4093427e-01   5.2540113e-01   5.0795474e-01  -8.5199470e-01   5.5460170e-01  -3.7976637e-01  -7.8925828e-01  -1.2062462e-01  -8.8009149e-01  -4.6076145e-01   3.2330465e-05   9.2030581e-01   9.9807792e-01  -7.0095408e-01  -5.2751639e-01   4.2204923e-01   2.6966423e-01  -4.4677633e-01   4.2023395e-01   4.0444803e-01   4.4169983e-01  -6.2743005e-01   6.1547049e-02   3.9450700e-01   5.0949392e-01  -5.8376082e-01   3.7252552e-01   9.8517003e-01  -2.3601464e-01  -7.3168097e-01   7.1982067e-01   4.5364785e-01   1.9658645e-01   5.9693521e-01  -5.7054730e-01   1.2605714e-01  -7.1477471e-01  -2.8366482e-01   2.4516458e-01   5.0612022e-01   5.1338852e-01  -2.5724255e-01   8.8175322e-01   4.8096383e-01  -2.5841695e-01   6.5165875e-01   9.1034544e-02   9.3588996e-01   6.1198090e-02  -8.4723946e-02   2.2159668e-01   2.8824447e-01   9.6605225e-01   1.5787844e-01   2.3321511e-01  -4.1239699e-01  -6.7538619e-01  -6.7897091e-01  -9.1196051e-01   9.0434517e-01  -9.6255753e-02  -7.0155803e-01  -5.7067809e-01  -6.9466626e-01  -1.5735817e-01  -6.8619758e-01  -5.2760577e-01  -2.9115284e-01   2.0251210e-01  -8.2608245e-02   2.2757183e-01   9.2629530e-01   6.4092643e-01  -4.9511780e-01   5.8852995e-01  -9.6742383e-01   7.6057434e-01   7.9350796e-01  -9.4047795e-01   2.1965792e-01  -9.1191704e-02  -2.0132931e-01   4.0481730e-01  -2.7785534e-01  -7.6616042e-01   3.1515572e-01   9.9583840e-01   7.3385305e-01   3.6430798e-01   9.0154200e-01   5.5049341e-01  -6.3582442e-02  -9.5024167e-01   7.5623746e-01   8.0085370e-01  -3.3016023e-01  -2.8953900e-01   9.5451105e-01   9.8562545e-01   5.4008370e-01   1.9284930e-01   6.8201762e-01   6.1007825e-01   5.1223353e-01   8.8847279e-01  -3.1904195e-01  -8.2631275e-02  -1.1420052e-01   8.5377836e-01   5.7908953e-01  -8.7102024e-01   8.0395776e-01   4.5299329e-01  -4.2571648e-01  -3.5299589e-01  -2.9343257e-01  -8.2440958e-01   1.8265358e-02  -8.8919404e-01   4.4066934e-01  -1.1633867e-01  -7.1727177e-01  -2.2353570e-01  -9.4790586e-01  -9.0309709e-01  -7.1351930e-01  -7.9722004e-01  -4.1161098e-01   7.9819665e-01   7.2920231e-01  -5.9299605e-01  -1.9061900e-01  -1.2697392e-01  -4.0350279e-01   4.0139227e-02   3.4315651e-01   1.4876923e-01   6.2072682e-01   3.0874487e-01   2.4201842e-01  -3.3356326e-02   6.9103345e-01   8.4865130e-01  -1.2806490e-01   2.4920523e-02  -3.3183221e-01   8.0373375e-01  -3.4118802e-01   1.7469438e-02  -1.9735866e-01  -1.3639361e-01  -5.0519725e-01  -2.6079769e-02   3.5104347e-01   5.1504838e-01   7.2366158e-01   2.1353678e-01  -8.1268850e-01   5.5028443e-01  -6.8094999e-01   9.5522577e-01   8.8100848e-01  -1.7420628e-01  -9.4422686e-01   5.2555105e-01   4.8986390e-02   9.6036645e-02  -2.8956707e-01  -9.7411448e-01  -5.9354734e-01  -4.0199232e-01  -3.2272123e-01  -6.4774432e-01   9.0550638e-01  -1.1246188e-01   2.3588840e-01   5.9847238e-01   6.9470819e-01  -3.3225629e-01  -2.3590727e-01   7.6993331e-01  -9.1861538e-01   1.5477056e-01   1.7465498e-01  -8.3858005e-01  -9.6843240e-01  -5.5697852e-01   6.0185820e-01  -5.5992495e-01  -9.6743543e-01   7.0689110e-01   4.8716327e-01  -4.4121158e-01   1.7340430e-01   2.1395455e-01   9.4021251e-03  -3.9091412e-01   3.1208966e-01   8.0372779e-01  -4.8369836e-01  -1.4211193e-01   4.5678743e-01  -7.8262728e-03  -6.5658866e-01  -4.4571688e-01   1.8529409e-01  -8.1396695e-01   3.4142581e-01   8.9616396e-02   2.5717686e-01  -9.6725722e-02   7.0240051e-02   3.2740985e-01  -7.8827533e-01  -1.3639601e-01   5.0421682e-01   2.6169445e-01   7.2559622e-01   2.1424928e-01  -3.5897378e-01  -7.5311236e-01  -2.3687962e-01  -1.3718325e-01  -6.3152190e-01  -9.3646931e-01  -7.5716733e-01   7.4189697e-01   1.2224200e-01  -2.6964536e-01   7.2162212e-01   6.4809632e-01  -3.3320156e-01  -8.2163320e-01   7.0759822e-01  -7.6778575e-01   4.9255169e-01   8.3323838e-01   4.4988418e-01   9.4621370e-01   7.9290234e-01   8.8310665e-01   3.5133019e-01  -2.6417163e-01  -5.2235024e-01   5.0441193e-02  -3.1576910e-01  -9.2773348e-01   2.4897155e-02   1.6263118e-02   4.7042074e-01  -8.9727090e-01   9.1413941e-01  -8.0155764e-01  -7.6691160e-01   2.1050220e-01  -1.8799401e-01   1.5085207e-01  -9.6885058e-01   9.5376893e-01   7.1363278e-01  -2.0633104e-01  -8.6962072e-01  -1.4678697e-01   9.4788120e-01  -4.0540197e-01   8.0391985e-01   6.6894333e-01  -4.4756443e-01  -2.7634767e-01  -1.5625871e-01   1.8594171e-01   7.0813697e-01  -6.6135378e-01   3.5209513e-01   7.8664128e-01  -2.1988214e-02  -4.0976940e-03  -5.4237108e-01   4.3474806e-01  -6.6817196e-01   6.8477811e-01   7.3378530e-01   3.9366099e-01  -6.8882521e-01   5.4376737e-02  -8.9866814e-01   1.7178255e-01   2.0353823e-01   8.4904638e-01  -1.7474438e-01  -6.5288805e-02  -8.5727763e-01   7.8027603e-01   2.9946555e-01   2.2488831e-01  -6.5239200e-01   5.2410951e-01   4.6179736e-01  -5.8442927e-01   3.5773401e-01  -4.1747680e-01   3.0108320e-01   3.0654440e-01  -8.6834593e-01   5.9690524e-01   3.5967228e-02   6.8235650e-01  -4.4729864e-01  -6.4193364e-01   9.5773840e-01  -4.8649949e-03  -9.0996228e-01  -3.8591256e-03  -7.9496940e-01   6.8606187e-01   8.7812047e-01  -7.1731799e-01  -1.3441698e-01   7.5864184e-01   7.1694607e-01   6.9731614e-01  -2.1115604e-01  -2.1430114e-01   5.2464018e-02   5.4644788e-01   9.1732591e-01   2.4844154e-01  -9.5829446e-01   9.1292205e-01   8.8802677e-01   8.5361849e-01   8.0061780e-01  -5.6237287e-01  -6.7343955e-01  -5.1978673e-01   2.7293696e-01   6.4731559e-01   5.9135833e-01   2.8823772e-01   8.7524269e-01  -2.8233095e-01   1.5774502e-01  -6.4214569e-01   9.4777889e-01   9.8334621e-01  -7.7301084e-01   3.5172282e-01  -7.6809340e-01   1.8706941e-01   9.5282769e-01  -3.9095154e-01   7.3240359e-01   7.2962893e-01  -1.2336077e-03  -8.0278592e-02  -3.9298263e-01   8.1507922e-01  -4.1416549e-01   5.7065255e-01   9.5685066e-01   1.1015075e-01   3.6266560e-01  -4.5812741e-01   2.2022923e-01  -1.3866696e-01   4.1948696e-01   1.3319006e-02  -4.8366978e-02   2.5981150e-01  -6.4243785e-01  -2.1151136e-01  -2.2803517e-01   5.1871183e-01   6.4951098e-01  -9.1009981e-01   1.1264442e-01  -3.5010516e-01   2.9688016e-01   9.3786745e-01  -5.4455055e-01  -4.9943092e-01  -1.1074918e-02  -4.0441068e-01   8.1188212e-01  -3.5007940e-01   3.2166549e-01   2.7863176e-01   3.6837820e-01  -6.4872770e-01  -3.0208271e-01  -8.9152074e-01   9.9433569e-01  -6.4552002e-01   9.9367997e-01  -8.2487359e-01  -5.8308159e-01   6.9398210e-01   9.3897732e-01   5.6196882e-01  -6.3306431e-02   6.4959737e-01   4.4739057e-01   8.6989214e-01   8.6819350e-01   7.6637110e-01  -9.9500133e-01  -9.0630875e-01  -5.7050819e-01   8.9003859e-01   3.7539565e-01  -3.1025232e-01  -8.7815524e-01  -7.9106762e-02  -8.3711068e-01  -3.8371364e-01   8.3598264e-01  -4.5355772e-03   2.3558142e-02   8.7866887e-01  -2.0083799e-01   1.3755819e-01  -4.2033502e-02  -9.7727438e-01  -5.5501213e-01  -6.7475487e-01   7.8154154e-01   9.5636750e-01   1.8698976e-01  -3.2735596e-01   5.2862785e-01  -6.2732034e-01   9.0514966e-01   2.6124302e-01  -7.0283324e-02   1.8432700e-02   4.4528565e-01  -2.8070493e-01  -2.9961899e-01   2.0084527e-01  -6.9989635e-01   5.4246486e-01   4.6457390e-01   7.4931303e-02   4.2144005e-01  -1.4139567e-01  -4.5286856e-01   2.9704898e-01  -5.6467242e-01   1.1285138e-01   9.0825217e-01   3.4767356e-01   5.5930315e-01   2.2631356e-01  -1.8303518e-01   4.9601381e-01  -5.1634859e-01   9.6350455e-01  -5.0520229e-01  -2.3882003e-02  -4.6110848e-01  -7.9105689e-01  -4.5395106e-02  -5.2564708e-02  -9.0558028e-01  -9.5608072e-01   3.2078989e-01  -3.3508957e-01   1.8044239e-01  -2.8866473e-01   3.6832350e-01  -6.4545441e-01   9.0277276e-01   5.6660297e-01   7.4049037e-01   3.9228803e-01  -4.1379053e-01  -6.8968660e-01  -3.0968915e-01  -3.6818042e-01  -1.5366976e-01  -2.6866897e-01  -3.4131631e-01  -7.3560620e-01   6.9928803e-01   9.8579536e-01  -1.6359242e-01  -2.6435627e-01   7.7178562e-01  -9.8954056e-01   9.7772860e-01  -8.0949217e-01   3.1287370e-01  -8.6325476e-02  -5.8527371e-01  -7.2206050e-01  -6.5097684e-01   1.7520933e-02  -5.4675795e-01   3.6544671e-01   1.3856819e-01   7.7522951e-01  -2.6359507e-01  -9.9613852e-01   6.3187132e-01   5.0168239e-01  -7.6307069e-01  -7.8872629e-01   9.1036171e-01  -8.7705934e-01   3.9058687e-01   9.3412028e-01  -5.8672121e-01   9.9581023e-01   2.0166053e-01   8.9605116e-01   5.5842063e-01  -9.3625234e-01   7.5281521e-01   1.2716333e-01   9.3233459e-01   4.5670291e-01  -6.4296904e-01  -7.4310915e-01   1.7349921e-02  -4.9004848e-01   5.0759590e-01  -4.0880695e-01   5.0664942e-01   2.8256485e-01  -3.4088583e-01   2.6284143e-01  -9.4500180e-01   5.6531710e-01  -5.8818623e-02  -4.6095944e-02  -9.9724606e-02   3.4843237e-01  -1.2757030e-01  -2.2463019e-01   9.7265694e-01  -9.3769212e-01  -4.1399062e-01   7.2696705e-01  -7.8325033e-01  -8.9176678e-01  -8.9433420e-01   4.5576574e-01  -4.0162698e-01   7.6747775e-01   1.1855045e-01   9.7208445e-01   1.0179996e-01  -3.1453017e-01   9.1801295e-01  -1.6123379e-01   9.1282948e-01  -3.9860444e-01  -3.0109475e-01  -8.4118587e-03   4.0614118e-01   9.0442868e-01   8.3877937e-01  -2.1514230e-01   8.0244619e-01  -9.0571588e-01   7.5017429e-01   3.4656122e-01  -5.2208156e-02  -7.1496938e-01  -2.8292887e-01  -7.1082944e-01  -3.0550566e-01  -9.4716288e-02   6.9909262e-01  -9.8531600e-01   9.8635050e-01  -4.6840113e-02   2.0688855e-01   5.8372187e-01   1.9680623e-01  -7.1528016e-01   5.2900401e-01  -9.4476812e-01   3.7270338e-01   6.5001267e-01   9.7479943e-01  -1.1984750e-01   5.7081075e-01  -7.6803728e-02   3.9088292e-01   3.4637141e-01   9.6102402e-01   4.3761970e-01   2.5081672e-01  -5.5821277e-01   9.9953337e-01   1.1625014e-01   3.3431964e-01  -7.7171100e-01   4.5105038e-01   3.6447345e-01   8.7036782e-01   3.5598736e-01  -2.2743831e-01  -8.1394181e-01   7.3723748e-01   6.7778254e-01   5.2728943e-01   1.8935160e-01   9.5751971e-01   6.7266605e-01   4.3159790e-01  -8.6259634e-01  -9.9767813e-01   8.4923914e-01  -6.0236284e-01   9.2688112e-01   6.7170550e-01   7.8886239e-01   7.0593970e-02   9.4246091e-01  -6.9102031e-01   9.7140218e-01   8.2023586e-01   6.8835123e-01   5.4406529e-01  -4.3323363e-01  -3.9571020e-01  -6.4261340e-01  -9.6665401e-01  -1.7170426e-01   9.0286173e-01  -9.9240532e-01   1.8764506e-03   9.5471297e-01  -9.2333488e-03  -9.7936510e-01   7.4300354e-01   1.8769538e-02  -9.2096547e-01   4.7782187e-01   3.5506120e-02   7.2065891e-01   3.8150048e-01  -9.7611029e-01   6.7534468e-01   3.4880207e-01  -2.6134229e-01  -1.9066665e-01  -5.2845083e-01   7.8082697e-01   4.2661180e-01   5.3658544e-01   1.9632072e-01  -3.7676930e-01   1.8067437e-01  -7.6878840e-01   5.3904981e-01  -9.1203590e-01  -7.1275296e-01  -8.3665940e-01  -5.6337889e-01   2.9827590e-01   2.4993996e-01   4.3495645e-01   9.3706282e-01  -1.3815114e-01   9.6739329e-02  -4.3329828e-02  -2.5843212e-01   2.7986271e-01   8.7117779e-01   8.3107289e-01  -6.7275413e-01  -8.1296465e-01  -4.0976957e-02   8.8833289e-01   4.2540571e-01   6.2024591e-01  -5.2329371e-01  -3.9337567e-01  -3.7093203e-01  -3.5648280e-01  -4.0445303e-01   3.8376662e-01   9.6896109e-01   9.9528821e-01  -3.7600741e-01   1.3163674e-01   9.8356625e-01   7.9244576e-01   8.1712536e-01   2.0086502e-02  -3.2702065e-01  -8.4730332e-01  -9.7759495e-01   8.1918071e-01  -7.4816692e-01  -3.7001645e-01  -2.8872050e-01   7.3838649e-01  -1.3072791e-01  -5.9752560e-01  -6.6347569e-01  -6.4699546e-01   5.3982734e-01   7.3243307e-01   1.7824572e-01   3.4059148e-01  -9.6886959e-02  -4.9692745e-01  -5.5806724e-01   9.5983548e-02  -7.3800225e-01  -8.4351425e-01   1.5368025e-01   4.8951593e-01  -3.7525823e-01   6.6754137e-01   2.4065824e-01   2.3398269e-01  -6.4826489e-01  -3.6050110e-01  -5.1124774e-01  -8.4660021e-01  -3.3335791e-01  -8.6364430e-01  -1.5078137e-01   9.0463430e-01   1.8249192e-01  -3.1165083e-01   9.3919102e-01   5.7414053e-01   4.8296647e-01   5.9827254e-01  -5.7463343e-02   2.1282996e-01  -3.7202646e-01  -6.7061700e-01   9.6651937e-01   9.3321011e-01   3.0825895e-01  -8.5751373e-01   2.7054101e-01   9.6271916e-01   9.4002937e-01  -1.3137129e-01   2.6849497e-01   8.4541358e-01  -8.2223839e-01  -6.8343706e-01   2.8317267e-01  -7.9172796e-01  -5.2409054e-01  -3.3608801e-01  -1.3371418e-01  -3.0438510e-02   9.7622490e-01   5.2550473e-01   2.6061358e-01   5.5617759e-01   6.8267810e-02   1.8590931e-01   3.2198863e-01  -2.1159130e-01   6.8916617e-02  -4.6445762e-01  -5.9825151e-01  -7.0716178e-01  -3.6527354e-01  -3.9133896e-01   7.1331285e-01   2.2792966e-01   2.8256720e-01  -7.0409848e-01  -7.3754859e-01  -4.2339225e-01   6.1711114e-01  -8.6349009e-02  -3.0612706e-01   7.0295985e-01   3.6023396e-01   7.6473079e-02  -8.4075194e-01  -7.5761658e-01  -9.2660863e-01   4.3567271e-01   9.7418744e-01   1.7184978e-01  -4.1722001e-01  -2.0705882e-02  -9.7591806e-01   6.7877104e-03   2.1886664e-01   9.7481967e-02  -5.7016417e-01   1.3899397e-01   1.1030438e-02  -7.8071811e-01  -6.3103732e-01   1.2168260e-01   1.1115845e-01   3.1602941e-01   3.4757197e-01  -9.1469357e-01   1.3630792e-01   9.2106394e-01   2.5372866e-01   4.5239387e-01  -3.0276818e-01   3.4111924e-01  -5.5314312e-01   6.1770958e-02   2.0266245e-01  -2.1255385e-01  -9.6250884e-02   4.4487260e-01  -5.0789456e-01  -1.1848136e-01   6.3572108e-01  -9.8655767e-01  -1.1748585e-02   4.5494964e-01  -3.1420671e-02   8.9222028e-01   2.0603933e-01  -9.3782017e-02  -6.4380818e-01  -2.8669754e-01   3.8698308e-02  -6.7799398e-01  -9.0272613e-01  -9.8760992e-01   1.7957068e-01   4.9728541e-01  -6.6725955e-01   2.5406922e-01  -9.9193813e-01   3.7602629e-01  -9.1632134e-01   8.5035121e-01   1.3469623e-01  -7.7067442e-01   8.0674780e-02   1.6813804e-01  -7.7220848e-01  -8.5415258e-01  -1.2631491e-01  -4.5865877e-01   4.1146910e-01  -7.5702235e-01  -8.9447906e-01  -7.2748411e-01  -9.1415848e-01  -2.8673994e-01  -5.2088844e-01  -5.9414515e-01  -3.2254842e-01   6.0540483e-02  -3.0223366e-01  -9.4547200e-01  -1.7610841e-01   6.8891316e-01   5.7356117e-01  -3.2326706e-02   1.5646501e-01  -9.8230039e-01  -2.8598376e-01  -6.9034739e-01  -5.2689918e-01   3.9640223e-01   1.3806204e-01   2.1325515e-01   4.9998033e-02   5.7435606e-01   9.2165897e-01  -6.5038885e-01  -4.9426287e-02   8.2820151e-01  -7.9796774e-01  -8.8952128e-01   9.0023640e-01   3.9037415e-01  -2.1503223e-01   8.4398099e-01   5.4138876e-01  -2.0027589e-01  -7.0729910e-02   2.2031433e-01   3.2437282e-01   3.9395921e-01  -2.0831998e-01
  -2.3207500e-01  -4.2908026e-01  -9.1666292e-01   2.7594111e-01  -2.6580036e-01   6.9072595e-01   1.3021618e-01  -9.4789231e-01  -5.8770403e-01  -4.0312795e-01  -7.8805793e-01  -9.5253691e-01   8.3076416e-01  -2.8395576e-01  -5.4649026e-01  -6.4445681e-01   9.6418778e-01  -7.5853286e-01  -2.2781597e-01  -1.8991931e-01   3.1441103e-01  -8.6881504e-01  -2.9757039e-01   3.2608348e-01   7.8652096e-01   7.7004666e-02  -9.2682763e-01  -5.9598372e-01   4.6289559e-01   9.4959365e-01   1.5379993e-01   9.9618069e-02  -8.7760441e-01   7.1966351e-01  -2.0005811e-01  -7.4654555e-01   9.1925059e-01  -2.0120335e-01  -7.1881663e-01  -5.0857353e-01  -3.8318772e-01  -3.1404093e-01  -9.3307972e-01   8.1956316e-01  -5.5141211e-02   8.2967918e-01  -4.6903255e-01   2.9851765e-01   1.7768493e-01  -3.2195175e-01   2.9860229e-01  -2.3952875e-02   3.5839932e-01   7.8467251e-01  -4.4039048e-01  -9.6704823e-01  -4.9599746e-01   6.9517375e-01   1.3388049e-01   2.7821287e-01   4.2543569e-01  -6.1473807e-01   9.0175524e-01   7.8557965e-01   6.1917203e-01   2.7554259e-01   6.3570029e-01  -6.3372315e-01   6.0740656e-01  -8.2870479e-01  -1.0943282e-01   5.1108830e-01   8.1369625e-02   2.7345499e-01  -7.4780062e-01  -4.2037034e-01  -4.4147984e-01   1.6182496e-01   9.8559893e-01  -8.5369065e-01  -5.0190815e-01  -7.6263106e-01   8.5243045e-01   7.5058508e-01  -5.5267295e-02  -1.7398193e-01   6.6802654e-01  -8.6792635e-02  -7.2764129e-01  -5.4232389e-01  -6.1224928e-01  -5.4758967e-01   8.5738651e-01   9.4208229e-01  -7.0640792e-02  -9.5961839e-01  -4.8317420e-02   8.8328749e-01   1.0344915e-01   5.6490748e-01   3.6048651e-01  -8.6558604e-01  -6.2071707e-01   8.4293739e-01  -3.5996327e-01  -3.8965568e-01  -3.1138555e-02   9.3176210e-01  -7.5096439e-01   9.7912014e-01  -4.7054233e-01  -8.3807286e-01  -2.1650652e-01  -8.6397505e-01   2.2353761e-02   2.0173322e-01   2.4086488e-01  -7.9093351e-01   5.7659973e-01  -8.5875686e-01   2.5014315e-01   3.0186280e-01  -5.1709575e-01   8.9523201e-01  -5.0494827e-01  -5.8720579e-01  -6.3597654e-02  -1.9246484e-01  -4.9317580e-01   9.2877385e-01  -2.6577471e-01  -2.2744546e-01  -9.3005369e-01   6.1573963e-01  -8.4252264e-01   6.6348668e-01   5.4710258e-01   7.4247580e-01  -1.3223761e-01  -3.7203265e-01   4.7046563e-01   6.0674148e-01  -6.8395919e-01  -7.6840208e-01  -2.6431807e-01   8.1416989e-01   6.9217224e-01  -7.6572222e-01  -2.7424283e-01   7.1445476e-01  -6.3834187e-01  -7.0004782e-01  -9.8325594e-01   3.2102472e-02  -9.4565585e-01  -8.7449486e-01   6.6887513e-02  -5.0034940e-01   6.9967290e-01   1.7589907e-01  -4.5889588e-01  -2.4344530e-01  -6.6334863e-01  -9.4008900e-01  -7.2971371e-01  -6.5251801e-01   5.8278620e-01   5.9922844e-01   3.9378286e-01   4.7373778e-01   5.9324745e-01  -3.9191721e-01  -9.7564226e-01   4.3198294e-01  -1.5730628e-01  -9.1694332e-01  -4.5554215e-01  -4.1685768e-01   4.9924107e-01   8.1600028e-01  -5.8224355e-02   6.4113510e-01  -5.0411464e-01   4.0493531e-01   3.0266138e-01  -4.7659816e-01  -4.9920128e-01   7.4947002e-01  -3.1808347e-01   8.0777549e-01   2.3758082e-01  -4.7375549e-01  -2.4457972e-01   3.2893988e-01   3.8525168e-01  -4.6752355e-01   7.0047024e-01  -8.0821899e-01  -2.9263843e-02   2.1289270e-01  -2.5413815e-01   7.2057576e-01  -6.3529758e-01   3.2166951e-01  -9.7701806e-01   5.8789716e-01  -1.3515977e-01   5.3121171e-01  -5.2557542e-01  -6.4969457e-01   7.2833589e-02  -2.1961437e-01  -6.7145362e-01   5.3905615e-01   4.8501216e-01   1.7408307e-01  -7.7810467e-01   5.2177533e-01  -5.5654221e-01  -7.4641698e-01  -2.4037499e-01   2.1814564e-01   1.9745310e-01   7.9000677e-01   6.0442484e-01  -2.9858202e-01   1.2379529e-01   3.2602151e-01  -6.2686942e-01   3.3428833e-02   8.2639081e-01   2.6750093e-01   7.8536330e-01  -5.9536597e-01  -9.4620402e-01  -4.6544561e-01  -9.3710163e-01   7.2161495e-01  -2.6518012e-01  -8.1035718e-02   9.3628143e-01   2.3252408e-01  -3.2387676e-01   8.8136970e-03  -9.4766875e-01   5.4592344e-01   3.9940819e-01   1.5883427e-01  -5.8313609e-01   7.5681812e-01  -8.1444335e-01  -1.4119373e-01  -6.0815730e-01  -1.8096333e-01   8.5179094e-01  -5.4592850e-01   3.6507036e-01   5.1671590e-01  -2.8438050e-01  -9.0155391e-01   8.6031434e-01   9.7868274e-01  -2.6170948e-01  -4.5697095e-01   5.4284800e-01  -9.5146074e-01  -7.3306380e-02  -1.6998571e-01   2.5378777e-01  -7.4327826e-01   1.6487166e-01   6.8229229e-01   9.2230243e-01  -8.0813701e-02  -2.0076127e-01  -4.2787512e-01   7.6603990e-01  -3.0961891e-01  -7.7220386e-01   9.0661560e-01   9.3950497e-01   7.8453628e-01  -5.6972253e-01  -9.3516787e-01  -9.3145496e-02   5.7309252e-01   4.4333450e-01   1.2880503e-02  -5.0179413e-02   6.6195282e-01  -8.8469302e-01   4.9908306e-01   6.5596339e-01  -9.6027704e-01   6.6739209e-01   5.4380064e-03   9.8895718e-01   5.1693570e-01  -1.4641957e-01  -5.1071961e-01   8.7186485e-01  -3.4244356e-01  -3.8964715e-01  -8.2938230e-01  -2.4501899e-01   1.6260463e-01   3.3004098e-01  -4.4488778e-02  -8.1842573e-01   7.2006239e-01  -7.6302049e-01  -8.2753306e-01  -9.1906996e-01  -1.9100295e-01  -7.9368097e-01  -3.6624245e-01   4.6780991e-01   5.3534240e-01  -5.8625274e-01  -6.9159205e-02   7.7071726e-01  -3.5850680e-01   1.1652141e-01  -7.0374308e-02   8.5534736e-01  -3.9684810e-01  -7.9087153e-03   1.3013639e-01  -5.8298846e-01   1.6155135e-01   9.1954487e-01  -7.8688523e-01  -6.7756148e-01  -2.1772284e-01   7.0560690e-01  -2.5231551e-01   2.2158759e-02  -3.0138077e-01  -8.7715473e-01   4.4388763e-01  -6.0470755e-01   6.4250374e-01   7.8575589e-01  -6.7429058e-01   9.9434681e-02  -6.1759083e-01   6.6482996e-01  -5.6795517e-01  -2.3768814e-01   6.5691628e-01   6.5591625e-01   2.2388025e-01   5.8449460e-01   7.3676125e-01   4.6860520e-01   9.3631767e-01  -5.2650946e-02   1.7777520e-01   2.4174384e-01   8.2292668e-01   1.0504744e-01  -8.8196133e-01  -6.0410029e-01   1.2397827e-02  -5.6679870e-01   3.6442828e-01  -1.8628528e-01   4.2801985e-01  -4.8017036e-01  -4.1192118e-01  -4.4476880e-01   8.9652065e-01   6.2394835e-01  -8.4660610e-01   7.5101536e-01  -2.9556737e-01  -4.3344003e-01   6.3879555e-01  -5.7655099e-01   8.6105551e-01  -2.4018190e-01  -4.0167434e-01   6.4835597e-01  -7.7773484e-01  -4.8224310e-02  -6.2653352e-01   1.4456802e-01  -6.6188230e-01  -2.3540561e-02   1.8534101e-01  -8.0446225e-01  -9.3299451e-01   4.0020855e-01  -2.1343981e-01  -8.2871111e-02   1.2329785e-01  -4.9126241e-01   3.5884114e-02  -5.7053539e-01  -3.4154237e-01   8.6816810e-01   9.5347216e-02   8.1920653e-01  -5.7221415e-01   5.0095321e-01  -5.2912851e-01  -8.5984773e-01   8.6752277e-01   9.8014359e-01   4.1628240e-01  -7.9534366e-01   8.7155567e-01  -2.3135666e-02   8.2805323e-01   5.9359246e-02   2.8393407e-01  -2.7608177e-01  -3.5154879e-01  -1.7837269e-01   9.2135085e-02  -3.1322829e-01  -8.2405309e-01   5.1617122e-02  -4.4361777e-01  -7.2288329e-01   9.4525963e-01   7.0892909e-01   6.3521106e-01  -2.3156330e-01  -1.5147768e-01  -1.4342733e-01   2.6316630e-01   8.3139677e-01   2.2608954e-01   6.4187985e-01  -8.4705745e-01  -7.0604353e-01   9.2856110e-01  -8.6090174e-01  -4.3888301e-01   5.1385428e-01   1.9562034e-01   1.7223540e-01   9.8349988e-01   8.3202551e-01   5.4110023e-01   4.4559791e-01   9.0237939e-01  -4.4854321e-01  -2.7850385e-01   9.0448460e-01   3.6622894e-01   4.3785183e-01  -4.3651995e-02   2.3033915e-01  -7.9182973e-01  -7.8360109e-01  -7.2333929e-01  -3.4888154e-01  -2.9384729e-01  -7.4774476e-01  -3.5748497e-01  -6.4799053e-02   6.7678565e-01   5.3604791e-01   3.9431989e-01  -6.7095607e-01   2.8697861e-01   1.2901994e-01  -6.6197846e-01   8.4425381e-01  -6.0273480e-01   8.7956877e-01  -3.3052174e-01  -5.2327341e-01  -1.9012338e-01  -5.0693363e-01   2.4423233e-01   3.0787605e-02  -7.6282478e-02  -6.0428401e-01  -6.2961670e-01  -2.8575880e-01   8.9847496e-01  -4.9976716e-02  -9.1927448e-01  -3.9164718e-01   9.4896971e-01  -8.4310207e-01   3.6412038e-01  -7.5398190e-01  -1.8715802e-01   7.0837190e-01  -2.1861367e-01   7.9354251e-01  -9.1341244e-01  -2.3474204e-01   8.6371763e-01   6.2546447e-02   5.9766524e-01   3.2962494e-01   7.6175113e-01   8.6891904e-01   1.1758008e-01   8.2296838e-01   9.0888935e-01   8.8028946e-01  -8.2108058e-01  -5.3799468e-02   8.7599519e-01   1.5391730e-01  -3.0162335e-01   3.8196165e-01   5.3711749e-01   2.6367702e-01   8.1642225e-01   6.7428671e-02  -8.3427169e-01  -9.6763712e-01  -2.2580918e-01  -4.6844444e-01   4.7776447e-01  -6.0242521e-01  -2.6254363e-01  -6.9513647e-01   2.5945488e-02   6.7770901e-01   6.9656655e-01   2.5786999e-01  -5.1400184e-01   3.5626457e-01  -4.9421020e-01   4.7478412e-01  -8.1602266e-01   7.0251056e-01   3.8224055e-01  -8.4362105e-01  -3.2415145e-01   1.8009234e-01  -3.7936031e-01  -8.6095085e-01   9.8384019e-01  -3.7312762e-01   9.8361886e-01  -1.4970136e-01  -4.2761392e-01   6.5642498e-01   5.7993089e-01   1.2533947e-01  -1.3104609e-01   5.8503711e-01   4.3182452e-01  -9.7407381e-01  -3.1084121e-01  -7.5217647e-01  -4.0411820e-01  -9.9657547e-01  -9.4729483e-01  -7.3692727e-02   6.4385382e-01  -9.3790631e-01   9.0207702e-01  -5.5759497e-02   8.7995696e-02   1.5785822e-01   9.8343789e-01  -6.2141229e-01  -3.5308414e-01  -3.4155511e-01   3.6028011e-01   3.8925180e-01  -8.8693536e-01  -5.8844527e-01   2.6237007e-01   3.7569485e-02  -1.4485270e-01   7.3612325e-01  -3.2940346e-01  -6.9138080e-02   8.5783760e-01  -9.7178357e-01  -4.8464958e-01   7.4114065e-01  -9.5537513e-01   6.3408470e-01   2.9136949e-01   7.7852879e-01   4.9456557e-01  -1.8185154e-01   7.9797693e-01  -1.3956061e-01  -1.8854097e-01   5.1454284e-01   7.8033535e-01  -8.1511093e-01  -3.2088455e-01   2.7784088e-01   4.3958168e-01   7.1722056e-02  -4.3480741e-01   4.5354365e-01   3.8184821e-01   9.8120858e-01   2.8039099e-01  -7.2870691e-01   5.5684229e-01  -5.3154929e-01  -2.0160919e-01   1.7048993e-01   6.2194361e-01   6.1183520e-02  -3.6605667e-01   8.1926767e-01   9.7807157e-01   8.5465239e-01   2.7581804e-01   8.0910925e-01   4.0479895e-01   5.6863365e-01   3.6931956e-01   2.7235952e-01   5.0094230e-02   2.4941980e-01  -9.5859622e-01  -1.2229029e-01  -4.3459053e-01   1.0971149e-01   5.8822270e-01   9.9899888e-01  -7.5415102e-01   4.0087808e-01  -6.5280727e-01  -7.4710489e-01  -8.6088135e-01  -9.3588299e-01  -7.5747642e-01  -4.4059415e-01   3.2154583e-01   9.8664907e-02  -4.3590367e-01   4.7591027e-01   3.1439669e-01  -9.3029830e-01   3.6773038e-02   4.0121234e-01   5.0498671e-01  -6.4358978e-01   3.7578650e-01   1.7514970e-01   8.0765839e-01   3.2305948e-01  -9.9056126e-01  -4.1390822e-01  -1.7627020e-01  -8.7132464e-01   3.3405132e-01  -7.9490530e-01   8.5938478e-01   3.8140081e-01   5.9913969e-01   1.2888396e-01  -8.3722208e-01  -6.6502490e-01  -7.6668846e-01  -9.1555155e-01  -2.3956357e-01  -5.7837701e-01   7.9952864e-01   9.5496231e-02  -6.7642343e-01  -6.9348901e-02  -1.5750314e-01   8.2543742e-02  -9.7735185e-01  -4.0363720e-01  -7.3465479e-01   5.1844405e-01   7.6858412e-01   5.8261996e-01  -9.4170647e-01   4.0343127e-01   6.6846354e-01  -5.1243317e-01  -9.7553137e-01   9.8453645e-01  -5.3520583e-01   6.8120451e-01  -8.3957838e-01   5.5189040e-01  -5.1841036e-01  -9.9050362e-01  -1.2586142e-01   8.7730420e-01  -1.2766491e-01   5.9514213e-01  -1.6840740e-01   5.3601069e-01   7.7454234e-02  -3.6362944e-01   4.2803831e-01  -7.2050158e-01   3.3657778e-01   7.6907748e-01   3.1360270e-01   4.2885575e-01   4.2917198e-01  -5.9338799e-01   5.1316668e-01   2.5497810e-01  -7.1600694e-01   5.1219799e-01   7.6478888e-01  -5.3478098e-01  -4.6187939e-01   2.2042386e-01  -9.7313422e-02  -3.3425409e-02   8.9257962e-01  -1.1602338e-02  -9.4451310e-01  -1.8270209e-01   1.9038932e-01  -7.1857808e-01   4.9726888e-01   6.1255934e-01  -4.8686599e-01  -9.6794911e-01  -7.8994363e-02   4.3271784e-01   7.0364919e-01  -2.4304528e-01  -6.6877214e-01   9.0621184e-01   9.0381866e-01  -3.5368228e-01   4.6472855e-01   2.6321252e-01  -2.7045920e-02   4.0105359e-01   7.3511970e-01   5.2199976e-01  -7.3185040e-01   5.0063863e-01   2.9014820e-01  -6.4479415e-01   7.2461642e-01  -3.9066494e-01  -7.2680510e-02  -1.7234815e-02  -6.9129937e-01  -3.8172935e-01   6.0502545e-01  -4.8535303e-01   7.9336685e-01  -3.4447189e-01   3.1236608e-01  -1.6502038e-01  -6.1971576e-02  -6.7196774e-01   3.9090003e-01  -8.3844058e-02   4.6483454e-01   5.1924500e-01  -1.8351258e-01   1.7126286e-01   6.7886541e-01   6.3007948e-01  -5.2812473e-01   2.3775528e-01  -2.1307608e-01   8.3049300e-01   2.1030297e-01   2.3203943e-01  -6.7470632e-01   5.2226133e-01  -2.8654701e-01   6.0614522e-01   3.6238572e-01  -6.4028247e-01  -1.8740653e-01  -3.3105965e-01  -8.5272870e-01  -7.9886708e-01   2.2902208e-01  -8.6055465e-01   7.1862832e-01  -5.2528529e-01  -3.0591010e-01  -5.6566177e-01   2.8813422e-01   6.8997576e-01   6.7257305e-01  -9.7507999e-01  -1.7601776e-01   4.9986090e-01   8.7514320e-01   6.7227327e-01   7.0964731e-01  -9.2394418e-01  -6.3775448e-01   5.9839098e-01  -2.4558472e-01  -5.2495106e-01   1.4495908e-01   3.9817691e-01  -2.2298920e-01  -7.3671445e-01   5.8110712e-01  -8.3366185e-01  -4.9590304e-02  -4.4551411e-01  -8.9618937e-01  -5.3819350e-01   9.1321163e-01   8.8126870e-02  -5.0175010e-01  -1.3515188e-01   7.9899000e-01  -6.9398561e-02   2.5244277e-01  -3.0004156e-01   2.2884826e-01   7.1036273e-01  -5.3120239e-01  -8.5155140e-02  -5.8735659e-01  -7.8501613e-01  -8.3557872e-01   6.1650451e-01   2.9287165e-01  -4.0816839e-01  -8.0433290e-01   6.7061078e-01   8.6409841e-01  -1.3100620e-01   7.4011535e-01   3.6917130e-01   4.2977667e-01  -2.4600449e-01  -7.1726904e-02  -9.9748986e-01  -7.1165252e-01   6.1220811e-01  -3.6117254e-01   7.1888216e-01   5.8427626e-01  -9.4916665e-01  -7.5916607e-01   4.3289735e-01  -9.6133787e-01  -4.6668572e-02   9.6387493e-02  -7.7028799e-01   7.7000443e-01   8.0511170e-01   4.3340091e-01   3.9707434e-01  -6.0301650e-01  -9.6960717e-01  -8.7466803e-01   5.7204175e-01   9.6336417e-01   4.6275686e-01   2.4842081e-01  -8.7657877e-03  -7.7198552e-02  -5.7960862e-01  -8.7674902e-01   9.8635275e-01  -6.8914742e-01  -1.9269026e-01  -3.1143908e-01  -9.0355278e-01  -9.0580936e-01   8.7349674e-01   4.4714438e-01  -3.2589298e-01   2.1760669e-01  -9.0269202e-01   4.2541352e-01   3.8496171e-01   9.3292351e-01  -7.5194287e-01   8.1541616e-01  -7.2492738e-01   1.5717730e-01  -8.9512190e-01   3.9186221e-01   2.6603222e-01  -8.8113123e-01   2.5594039e-01  -8.4114643e-01   6.2671019e-01   4.5027882e-01  -5.8031485e-01   1.7492283e-01   3.9571792e-01  -1.2043136e-01  -1.2066158e-01   5.5495717e-01   8.1281451e-01   8.3999941e-02  -5.4338734e-01   5.4537588e-01  -7.9830261e-01   4.8773285e-01  -5.0641071e-01   1.6941625e-01   4.5718848e-01  -9.4205700e-01  -5.3193955e-01   6.4433759e-01  -6.5810316e-01  -9.6886150e-02   7.6641981e-01   7.5857833e-01   2.1654496e-03   9.3215814e-01   5.8587448e-01  -4.3985335e-01   9.2915737e-01  -2.6727213e-01  -2.9192560e-02   2.1632656e-01   7.8794870e-01   9.1257988e-01  -3.5650114e-01   5.9537387e-01  -7.8566066e-01  -4.8414674e-01  -3.3071693e-01  -9.2592370e-01  -6.4784073e-01   1.5156554e-01  -2.3039250e-02  -2.6152616e-01   3.5889504e-01   9.6403952e-01   6.3557669e-01  -4.4729794e-01  -6.2311896e-01  -3.4659960e-01   4.5646869e-01   1.8368689e-01  -8.6261689e-01   4.3858885e-01  -6.9749110e-01   5.1919095e-01   3.6911702e-01   3.8686862e-01  -7.8617564e-01   4.0294057e-01   2.4425985e-02  -7.7446866e-01  -2.7608109e-01  -2.9641226e-01  -4.4643593e-01   1.4522962e-01   7.5806845e-01  -3.2739868e-01  -2.4576624e-01   5.9147666e-01   5.1338623e-01   4.2288935e-01   9.6223708e-01   6.6511960e-01  -3.1660962e-01  -6.1333803e-02   1.0798676e-01   1.6184125e-01  -3.7085977e-02  -1.7567778e-01  -7.1975818e-01  -6.9776815e-01  -5.6842668e-01  -2.5175043e-02  -9.0155151e-01  -9.3704451e-01   4.2574163e-01  -8.0365627e-01  -9.9481427e-01   6.3207581e-01  -5.8481937e-01   5.2234181e-01   1.9207925e-01   9.3975200e-01   9.5981751e-01  -1.0022481e-01   7.5232580e-01  -7.1532199e-01  -4.5229760e-01   6.1191761e-01  -7.4701744e-01   7.4772639e-01   6.9326905e-01  -9.0264909e-01   4.2972168e-01   5.6978273e-01  -4.2732934e-01   9.8169621e-01
  -1.6821908e-01   4.8906769e-01  -5.7331723e-01  -7.0955871e-01  -9.1359768e-01  -1.2121616e-01  -9.4071707e-01  -1.2976272e-01   2.1948320e-01  -3.8143703e-01   4.1192362e-01  -7.1182123e-01   1.0171122e-01   9.6504799e-01   6.3629942e-01   4.7253260e-01   8.6113756e-01   6.5386441e-01  -9.9818240e-01   9.1734386e-01   1.2910142e-01  -5.7387150e-01   4.1576255e-01  -2.9471014e-01   2.9840689e-01   7.9684126e-01  -5.4182594e-01   3.2295745e-01   1.6202873e-02   7.7778372e-01  -1.5934805e-01   2.8108621e-01  -4.4795614e-01  -6.5097218e-01  -8.5248712e-01   3.9409712e-01   3.8332270e-01   7.2939338e-01   3.7849979e-01  -4.2002717e-03   1.2125066e-01   9.0392054e-01  -1.7065427e-01  -1.5698622e-01   2.6572858e-02  -9.3242452e-01   2.5032532e-01  -1.1941212e-02   1.7345354e-01   5.6801486e-01   1.9208213e-01   1.9013410e-02   2.2501030e-01   3.9964763e-01  -2.4226678e-01  -3.9192517e-01   7.8657041e-01  -6.0439995e-01   8.3837203e-01  -7.9322703e-01   8.0343655e-01   7.7241906e-01  -6.7899687e-02   8.0041661e-01   8.8076257e-01  -5.6685249e-01   8.2691401e-01   8.2427373e-01   5.1841542e-01   3.1816603e-01   6.7686746e-01  -6.0653630e-01  -8.3437633e-01   7.8759283e-01   5.0370956e-01  -9.2857967e-01   8.2580654e-01   8.2985064e-01   7.6898236e-01   3.3906370e-01   1.2960555e-01   4.8393787e-01  -8.8979845e-01  -6.9261375e-01   3.4147813e-01   8.5865054e-01  -8.0881287e-01   2.1106238e-01   7.0086068e-01  -2.2039063e-01   3.5497028e-01  -9.2798319e-01   5.8372023e-01  -7.8385889e-01   6.8844020e-01   5.1742052e-01   3.8765165e-01   5.0949548e-01  -2.7332973e-01  -2.4042281e-01   8.5151652e-01   1.7277983e-01  -5.3653825e-01  -3.8610638e-01  -1.4157015e-01   5.1003915e-01   4.1306988e-01   7.7037674e-02   8.9217783e-01   4.7896885e-01  -2.5234274e-01  -7.5718260e-01   6.0193849e-01   3.7162740e-01   9.7355020e-01   4.8898586e-01  -2.3974423e-01   8.3586407e-01  -8.9955802e-01   7.0913817e-01  -7.4726743e-01   8.1459202e-01   3.9746403e-02  -8.3480129e-01   5.1068286e-01  -4.0329869e-01   3.8936325e-01   5.5328389e-01   4.3722815e-01  -4.8935667e-01   6.7222637e-01  -2.6389815e-01   7.2127260e-02  -4.3049134e-01  -4.8041110e-01  -4.9121485e-01   7.4886905e-01   7.3234257e-01   1.6452295e-01   6.9833329e-01  -4.3432160e-01  -2.3076681e-01   5.9594275e-01   9.0026835e-01   9.0942431e-02   3.3627864e-01  -9.2643558e-01   8.1357708e-01   2.1512385e-01   5.3506777e-02  -5.6719334e-01   6.5760250e-01  -8.6701254e-04   3.8332761e-01   9.8181523e-01  -9.6913850e-01   5.2516019e-01  -1.0291399e-01  -5.2734634e-01   9.9411961e-01   6.2903018e-02   1.7602971e-01  -2.7120154e-01  -9.6130684e-01  -2.9906759e-01  -8.9955761e-01   5.7249292e-01  -8.4903456e-01  -3.3031163e-01  -4.3698607e-01   3.0253973e-01  -8.8013066e-01   1.1062338e-02   4.5002168e-02  -9.9177396e-02  -2.8541436e-01   5.3649418e-01   3.7521830e-01   2.8607788e-01  -1.9516700e-01  -1.0305030e-01   5.7266988e-01   3.3301131e-01  -6.5546228e-01  -6.8920339e-01   9.7804129e-01  -4.7880715e-01  -5.1690661e-01  -6.9033193e-01  -5.3806569e-01  -2.9589848e-01  -2.1588398e-01  -1.5654372e-01  -8.2061672e-01  -2.8847198e-01   5.1498929e-01  -3.2728685e-01   7.9854241e-01   1.1020009e-01  -7.6318104e-01   2.9981425e-01  -7.6038751e-01   5.1110432e-01   3.6423534e-01   5.1167101e-02  -4.2374672e-02   9.0970821e-01  -9.8080094e-01   9.1737773e-01  -3.2693015e-01  -7.9557261e-01   2.1476773e-01   8.8867935e-01  -2.3204771e-01  -5.4325903e-02   9.9341272e-01  -7.8149359e-01   1.7185376e-01  -9.7464912e-02   7.3230973e-02   2.9639092e-01  -4.5950977e-01   9.0188246e-01  -2.6893105e-01   6.5428869e-01  -8.0261916e-01   2.3497706e-01   6.8649265e-01   9.6353908e-01  -9.4236943e-02   2.1999824e-01  -7.9588339e-01   8.6975833e-01   2.3198307e-01   6.2163437e-01  -7.1774975e-01   3.5510104e-01  -6.7649572e-01  -3.2486642e-02   8.7741072e-01   4.4707832e-01  -9.7014643e-01   2.3474916e-01  -2.5011357e-01   9.0435273e-01  -6.5481238e-02   7.3117041e-02   6.3216438e-01  -9.2681933e-01  -2.9446975e-01   9.0886606e-01  -1.7450133e-01   4.4356554e-01   6.2639792e-01  -1.7114196e-01   4.4219254e-01   6.9027945e-02  -7.6402266e-01  -6.3831408e-01  -2.8859934e-01  -9.2436914e-01  -7.3818085e-01   7.9430662e-01   4.0049473e-01  -8.6652362e-01  -2.1672692e-01  -9.7117096e-01  -2.8140492e-01   2.9504004e-01   5.6107246e-01  -9.5304089e-02  -8.5948016e-01  -4.8090594e-01  -3.3065926e-01   9.0069151e-01   4.0462437e-01  -6.5006570e-01   5.8570029e-01  -3.4859654e-01  -7.5744316e-02  -2.0538528e-01   3.3366711e-01  -8.4837654e-01   7.4110891e-01  -7.1774863e-01  -6.6309468e-01  -9.0146937e-01   4.0962453e-01   9.8215016e-01   2.2613519e-01   2.8672311e-02  -1.7443530e-01   1.9458534e-01   4.8417514e-02   2.5401271e-01  -8.4785355e-01  -7.2103507e-01  -7.2472830e-02  -1.2834354e-01   2.1634611e-02   3.7740127e-01  -6.8057514e-01   4.9222193e-01  -8.5608856e-01  -4.0593412e-01   5.4192927e-01  -2.0658978e-01   2.5339227e-01   4.3363875e-01  -9.7969310e-01  -6.3927811e-01   5.1256040e-02   8.6093457e-01  -2.1312855e-01  -7.1794864e-01  -4.0900675e-01   9.0832827e-01  -8.4892065e-01   4.4242879e-02   6.5365477e-01  -8.1280966e-01  -7.6546501e-02   4.5474385e-01   7.2071450e-01  -7.1754075e-01   8.6066162e-01  -6.7545766e-01  -6.4823940e-01  -9.4472865e-03  -5.5549924e-01  -3.6138772e-02   8.4408859e-01  -3.5094938e-01   9.6810514e-02   4.8627119e-01   3.8309013e-02   6.7653314e-01  -2.4342293e-01  -1.5939742e-01  -6.6798051e-01  -5.6815211e-01  -1.4865055e-01   7.0079142e-01   6.5950729e-01  -5.9240747e-01   4.1774385e-02   3.5895876e-01  -5.0176190e-01   3.7841947e-01  -1.1082224e-01   1.3484030e-01   6.5013273e-01  -9.0552203e-01  -3.3835624e-01  -2.1735725e-01   6.2831607e-01  -9.3692124e-01   5.2153829e-01  -7.4554282e-01   4.3654377e-01  -4.3297164e-01  -4.5332033e-01   6.0725394e-01   7.9541564e-01   4.3818205e-01  -6.2251388e-01  -9.7402805e-01   1.2589313e-01   2.3453399e-01   6.5133910e-01  -7.1620006e-01  -2.6358647e-01   8.7478890e-01   1.2199934e-01  -6.4947271e-01   2.6127580e-01  -7.9709806e-01  -6.5704234e-01   2.4835068e-01  -4.8992897e-01  -3.6211874e-02  -2.7093076e-01  -5.2655090e-01  -3.2673640e-01   5.6530307e-01   6.3282203e-01  -7.3331269e-01  -2.4131553e-01  -4.7106827e-01   7.1837696e-01   9.5131257e-01   8.1697756e-01  -1.7474962e-02  -8.5744489e-01   1.7367407e-01  -5.2071668e-01  -1.6313932e-01  -8.5732754e-01   7.3813619e-01  -2.3383130e-01   4.6324889e-01  -5.5323939e-01  -5.4330859e-01   5.3986916e-01  -8.0663071e-01   3.8146091e-01  -4.0471829e-01   9.7076717e-02  -2.6630891e-01   1.1301748e-01   5.7305446e-01  -3.5439664e-01   5.3474921e-01   1.7656398e-01  -7.6763563e-01  -3.4773350e-02  -9.0246927e-01  -9.0786134e-01   8.1331781e-01   9.5093253e-01   2.6466535e-01  -6.2267048e-01  -4.7773128e-01  -8.2750340e-01   5.8895548e-01  -2.0911118e-01   7.4603523e-01   6.5415915e-01  -1.5066513e-01   1.6182043e-01  -9.8817280e-01   5.5373599e-01   5.6976828e-01   5.1691823e-01  -7.2174884e-01  -9.2121701e-01   8.4140712e-01  -6.5391328e-01  -9.2356670e-01  -6.4123926e-01  -8.8083804e-01  -9.6785670e-02  -9.8405736e-01   7.7668680e-01   6.7612957e-01  -5.6264899e-01   3.5562085e-01  -6.0804397e-01   9.7159814e-01   5.2645869e-01  -6.0761320e-02   3.7715908e-01   3.5043912e-01  -2.7747046e-02  -5.6103301e-01  -2.7141458e-01  -6.1139153e-01   6.1057169e-01   2.4221209e-01  -2.8724502e-01  -4.0336836e-01  -7.3868784e-01  -7.1707832e-01  -6.5435950e-01  -3.5207103e-01  -6.8344796e-01  -8.9069562e-01   9.1542841e-01  -3.1598068e-01  -3.9772892e-01  -7.2282967e-02   1.7870779e-01  -1.8900869e-01   7.1763155e-01   4.0402503e-02  -8.1404255e-01  -1.0747044e-01   6.7593120e-01  -6.1275443e-01   9.8935346e-01   7.6972588e-01   2.6132071e-01  -5.6506564e-01   9.1127105e-01  -1.3255345e-01  -9.2833077e-01   9.9279352e-01  -9.0835822e-02   3.0827347e-01   5.8847427e-01  -8.2214725e-01  -8.5091632e-01  -7.4262830e-01   1.2608931e-01   5.1721271e-01   1.3066926e-01  -2.0046008e-01  -6.6363283e-01   4.9037772e-01  -7.4986935e-01  -2.7640478e-01  -9.5804431e-01  -7.1885826e-01  -1.9461075e-01  -3.0097977e-01   7.2557979e-01   9.2639424e-01   8.9340463e-01  -3.4627825e-01  -7.8315702e-01   9.9520667e-01   3.8385193e-01  -4.2649628e-02  -3.3718255e-01  -5.4550202e-01  -2.8954209e-01  -5.5590755e-01   9.3194569e-01  -9.7955334e-01  -5.2252567e-01  -6.0000200e-01  -2.5194778e-01  -5.6837633e-01   1.7445933e-01   3.4994865e-01  -2.0285322e-01   6.0495717e-01   9.7274234e-01  -7.2203067e-01  -4.3846159e-01   1.3123258e-01  -8.5527152e-01   1.0989119e-01  -5.4919733e-01  -7.5171951e-01   6.6661793e-01  -2.8106251e-01   1.3278095e-01   3.1095442e-01  -3.3137723e-01  -5.9702681e-01  -2.5828597e-02   3.8948238e-01  -5.2774372e-01  -7.1763098e-01   6.2618766e-01   3.7906169e-01   2.1993427e-01   7.8101478e-01   3.6067116e-01   5.4331216e-01   2.2919308e-01   4.8587205e-01  -4.0849778e-01  -5.7479449e-01   2.0971560e-01  -7.2897748e-01   1.3312806e-01  -4.8306446e-02  -8.5904328e-01  -3.8875127e-01  -8.1141781e-01  -7.6443362e-01   3.0895682e-01   1.1322355e-01  -6.7390178e-01  -8.2297871e-02   1.7138471e-02   6.5193650e-01  -3.9471725e-01   2.4818832e-01  -3.7530029e-02  -6.7943679e-01   8.1372271e-01   5.3128074e-01  -1.0497841e-01   8.9062403e-01   5.2675388e-01   3.7742768e-01   7.4472335e-01  -1.5676112e-01  -5.9241389e-02  -4.4314208e-01  -7.8121255e-01   1.2270884e-01  -6.7002851e-01   6.2822143e-01   2.5882790e-01   1.2971223e-01  -9.4816178e-01   5.5337817e-02   4.9690735e-01  -4.1299113e-01   8.9082725e-01   7.0080388e-01   3.3895207e-01   9.6463692e-01   8.4303349e-01  -1.9502612e-01  -9.1454815e-03   5.1514920e-01  -5.4767573e-02  -9.0265037e-01  -4.7893439e-02   3.8904495e-01  -3.9653100e-01   6.0085524e-01  -6.2505148e-01  -1.1951258e-01  -9.7281408e-01   8.3815663e-01  -2.6941568e-01   7.6240756e-01  -1.7604110e-01  -9.9489084e-01   1.7713467e-01  -8.2763076e-01  -6.7464629e-01  -8.9139387e-01  -5.4400294e-01   8.3252779e-01  -2.7271028e-01  -9.4590075e-01  -4.2916546e-01   1.0272091e-01  -5.2670849e-02   8.0838355e-01   7.5099858e-01  -9.7434096e-01  -8.0548264e-01  -5.7228731e-01  -4.0516627e-01   5.7026125e-01   6.9614050e-01  -7.2567141e-01  -9.3300038e-01   7.3225312e-02   8.5901256e-01  -5.8143183e-01  -3.3751964e-01   4.6602352e-01  -3.0247550e-01   5.9463001e-01   5.3944228e-01  -5.8478734e-01   2.8960865e-01  -5.9725450e-01   1.4206660e-01   8.7270597e-01   9.8237788e-02   6.8137176e-01   2.1660804e-01   7.3108911e-01   8.1588300e-01   6.2766106e-01   5.8472764e-01  -8.2219579e-02  -2.5105820e-01   2.2181193e-01   3.1709720e-01   1.5066243e-01   4.9139487e-01  -3.2016483e-01  -1.4761263e-01   3.6522742e-02   3.9459366e-01   9.3784364e-01  -3.4100412e-01   7.1076486e-02  -2.8021733e-02   1.8780957e-01  -1.4081924e-01   1.5989437e-01  -8.0626220e-01  -8.0267760e-01   4.2817351e-01  -9.3733302e-01   9.7451990e-01   7.8268202e-01  -7.3091592e-01   9.4863748e-01   1.7650902e-01  -8.5779985e-01   7.8023003e-02  -8.5291975e-02  -1.4321002e-01  -9.6554927e-01   5.1234203e-01   9.6181104e-01   2.0856611e-01  -5.8712022e-01  -5.3712372e-02   8.1201065e-01   6.1514611e-01  -5.1467886e-01  -8.8449977e-01  -9.8305303e-01  -2.8556500e-01  -9.9623932e-01  -4.7627430e-01  -3.5854542e-01  -8.1800834e-01  -1.7999032e-01  -1.2929309e-01  -7.2308378e-02  -3.2601624e-01  -3.4366847e-01  -6.0648183e-01   3.9033498e-01   4.6597955e-01  -6.8659435e-01  -9.8117316e-01   2.3514230e-01  -7.2530477e-01  -8.9284983e-01  -6.1974196e-01  -1.2885316e-01   6.3057290e-01   8.0253533e-01  -5.4633042e-01  -6.9560240e-01   2.8657330e-02  -2.5536420e-01  -2.7548257e-02   3.8762824e-02  -3.6680854e-01  -8.7542660e-02   4.8973888e-02  -1.8934446e-01   1.0410993e-01   1.5950582e-01  -8.8913305e-01  -1.0368695e-01  -7.4209554e-01   4.3544389e-01  -3.6950445e-01  -8.8118910e-01  -8.7571755e-01   3.0600938e-01  -2.4294781e-01  -4.9086206e-01   2.3054613e-01  -2.6160382e-01   1.4439249e-01   9.0438687e-01   2.1589346e-01   3.3840357e-01   4.2370607e-01   1.3938768e-01  -7.0553736e-01  -6.8951006e-01   7.7987105e-02  -1.4931600e-01  -1.8270307e-01  -5.8427090e-01  -9.7121159e-02  -3.4105318e-01   8.7646576e-01  -6.8005813e-01   4.8738456e-01   4.3904622e-02   3.8076356e-01   2.4465048e-01   2.3086885e-01   8.6440565e-01  -5.7323421e-01  -8.8902521e-01  -1.8916887e-01  -9.5757561e-02   5.6533008e-02   4.5392499e-02   7.9489490e-01   4.9282866e-01  -9.7613080e-01   4.5479375e-01  -9.8105631e-01  -2.7217602e-01   4.1196212e-01  -9.8695739e-01  -2.3497328e-01   4.7944349e-01   5.2524306e-01   4.3707051e-01  -2.4172480e-01  -6.2636513e-01  -1.2943284e-01  -8.1068589e-01   3.7082464e-01  -5.1631852e-01   4.8490066e-01  -6.3234727e-01   5.6843007e-01   3.7364538e-01  -1.7923624e-01  -5.3231753e-01   9.9785998e-01   1.7591562e-01   2.0055588e-01  -3.7352751e-01   7.8090519e-01  -2.4027981e-01   6.5605243e-01   4.8253210e-01   6.9128476e-01  -7.1144097e-01   5.3601604e-01  -5.0742895e-01   4.8929119e-01  -3.3180066e-01   9.0000885e-01   8.2734523e-01   6.3619361e-01   5.6319442e-01  -5.9847752e-01   1.0354440e-01   3.9528544e-01   2.7030191e-01   4.5899720e-01  -5.0171707e-01  -5.0795322e-01   4.2634633e-02  -1.4868417e-01   2.1688180e-01   8.4755138e-01   3.3346557e-01  -3.9289563e-01  -9.1172390e-01  -9.9165021e-02  -8.2617107e-01  -5.7511963e-01   3.6710985e-01  -7.8829095e-01  -6.0340774e-02   8.6413738e-01   5.0486932e-01  -9.8960653e-02  -8.4295999e-01  -5.3027349e-02  -6.7617133e-02   3.2665370e-01  -1.8145430e-01   4.2984518e-01   7.5972390e-01  -2.7614633e-01   7.6127505e-01   1.9877993e-01  -9.5571087e-02  -9.4258541e-01  -5.7263335e-01  -6.8138848e-01   6.7179439e-01  -1.2415867e-01   4.1376597e-01  -9.4751761e-01   9.5707663e-01   5.4624268e-01   9.1276411e-01   5.7494915e-01   3.5376930e-01   2.6867221e-01  -2.2499659e-01  -9.5317316e-01  -3.5864122e-01   4.9976109e-01   3.5882773e-01  -5.4076061e-01  -8.2802915e-01  -3.1508107e-01   6.1095504e-01  -7.2814196e-01   5.5049848e-02   2.1260947e-01  -7.9000833e-01   3.3316014e-01   5.3683151e-02  -1.9112392e-01  -8.9502267e-02   2.6698867e-01   6.5301950e-01   3.8558001e-01   7.6176949e-01  -1.7133851e-01   1.6431437e-01  -1.4026703e-01  -8.8284530e-01   6.3679694e-01  -5.9093517e-01  -1.0763473e-01  -7.4669436e-01  -7.0056064e-01  -4.7149370e-01   9.0644199e-01  -5.7963981e-01   4.9459781e-01   7.5953578e-01   2.1462614e-01   5.6926879e-01  -7.2781985e-01   1.0052260e-01  -6.2928853e-01  -8.9408174e-01   2.4939597e-01   2.6070866e-01   1.8303229e-01  -1.7074760e-01  -3.6564731e-01  -3.0384282e-02   8.0392724e-01  -2.0939852e-01   3.1932960e-01  -4.4484094e-01  -7.7215901e-01  -6.4080457e-01   1.0477945e-01  -8.9312000e-02  -4.9716332e-01   9.2561181e-01   4.2466617e-01   5.6295292e-01   6.4602816e-01   1.9785248e-01  -9.7870429e-01  -3.1912012e-01   5.3373609e-02  -7.4132742e-01  -4.4589111e-01   1.1055665e-02   4.1251466e-01  -7.9404144e-01   1.4594762e-02   2.6241386e-01  -2.4761077e-01  -5.1991603e-01   8.0284127e-01  -7.7812401e-02  -7.2143789e-01  -9.4484624e-01   3.0086657e-01   6.6212102e-01   8.1875916e-04  -7.8656294e-01  -6.0417024e-01   1.6177378e-01   1.2960984e-01   8.0779898e-01  -8.7955622e-01  -3.4993441e-01  -2.3264847e-01  -4.6130362e-01   4.7795076e-01  -8.3628445e-01  -8.6012594e-01   9.6491673e-01   2.8534068e-01  -7.8066625e-01   1.4014201e-01  -3.1075393e-01  -6.3982326e-01  -1.9951720e-01  -2.1203717e-01  -1.4912634e-03   2.2190416e-01   7.3248161e-01  -5.1227009e-01   7.8865245e-01   3.0221077e-01  -4.3598695e-02   8.8178985e-01   2.1849692e-01  -6.6940548e-01  -4.2840094e-01   8.1272849e-01  -6.8261970e-01   6.8474438e-01   5.3006152e-01   9.8192699e-01   8.0133918e-01   7.0511316e-01   5.5304851e-01  -4.6048293e-01  -8.3243826e-01   3.5932282e-01   3.5574380e-02  -1.0329129e-01  -8.7863272e-01  -2.4070412e-01  -8.8296586e-01  -2.4136583e-01  -2.7991480e-02  -8.1269323e-01   6.5400792e-01   2.3761120e-01  -5.6103043e-01  -7.8424041e-01   6.2761315e-01  -3.9450205e-01   8.6008604e-01  -3.9476396e-02  -6.6610503e-01   8.6050559e-01
   8.4276350e-01  -3.1643510e-01   7.6757877e-02   5.1875905e-02   6.0632750e-01   5.3756770e-01   3.6122064e-01   5.0000636e-01   5.8135189e-01  -6.8946425e-01   6.0930086e-01  -2.8503161e-01   8.6721331e-01  -4.7107530e-01  -1.0560183e-01   7.3481828e-01   8.7797414e-01   5.3075874e-01   5.9752715e-01  -7.5636042e-01  -7.9479105e-01   4.6219178e-01  -1.8157353e-02  -3.3095901e-01  -4.5241389e-01   3.4827989e-01   7.0203794e-01  -2.2879068e-01   5.3328178e-01   2.2433866e-01   3.2992146e-01   6.1237207e-01   3.2087680e-01   7.6023859e-02  -7.4791918e-01  -4.9783483e-01  -7.1879087e-01   4.3697501e-01   2.6893276e-01   3.9712914e-01   1.9782136e-01   9.9032274e-01  -3.9016706e-01  -7.4625022e-01   8.4827399e-01   8.2615016e-01  -3.3233588e-01   1.6952164e-01   9.5896951e-01   5.5462644e-01  -9.5220799e-01   9.6261542e-01  -9.7927094e-01   2.1562876e-01  -5.0030676e-03   6.0115236e-01  -1.8947028e-02   6.4403533e-01   5.9248941e-01   3.1820240e-01  -8.9847945e-01  -3.8551629e-01   7.6599188e-01  -4.0967876e-01  -1.7467173e-01   2.7328507e-01  -1.0435466e-01   9.1867723e-02  -3.0987685e-01   9.6508528e-01  -3.5353727e-01  -7.9280199e-01  -9.0190710e-01  -6.2896719e-01  -1.0160435e-01  -7.5317662e-01   8.4498726e-01   3.5067245e-01  -1.9530989e-01   2.8966785e-02   9.4627209e-01  -1.3968018e-01   7.6939084e-01   2.4788931e-01  -5.4157226e-01   1.2421330e-01   7.9800138e-01   5.8555829e-01   5.8814696e-01   4.6549410e-01   6.9960371e-01  -9.5964716e-01  -5.3589181e-01   5.0961938e-01  -4.9503790e-02  -3.9582144e-01  -8.9993145e-01  -2.7352705e-01  -1.9355783e-01   2.3386189e-01   8.8005164e-01  -2.1645879e-01   1.5738313e-01  -1.1435409e-01   6.1920162e-01  -1.5582960e-01  -2.0347771e-01  -9.6495555e-01   6.2410479e-01   5.7319328e-01  -3.2039172e-01   4.9251592e-02   2.5698892e-02   4.8917834e-01   4.4936186e-01   3.8765646e-01   8.3994714e-01   4.6992965e-02  -4.4117234e-01   6.9379219e-01   3.0951379e-01   7.1623789e-01   3.3603834e-01  -7.1089546e-01  -3.8732662e-01  -6.1356247e-01   1.9469159e-01   5.5730006e-02   7.7923892e-01  -3.2360535e-01  -2.8229905e-01   2.8985203e-03   9.9250260e-01  -7.6111800e-01  -1.6339168e-01   1.9700783e-01  -7.5915512e-01  -7.7736707e-01   6.5197126e-01  -9.8159324e-01   5.7770291e-01  -5.4568110e-01  -8.1041195e-01   7.0658831e-01   8.9227308e-01   9.6205857e-01   5.6948379e-01   5.3775046e-01  -3.6189402e-01  -5.2121401e-01   8.2977132e-01   5.8199692e-01   6.5897213e-01  -6.8589159e-01   7.4509847e-01   8.5614761e-01  -4.3951051e-01  -9.1008652e-01   5.6779653e-01   7.7926265e-01  -9.8550181e-01  -5.4111021e-01   1.0330354e-01  -5.3876688e-01  -9.0547263e-01   8.1197544e-01  -7.5090697e-01  -7.7022120e-01   6.0080213e-02   4.7350404e-01   7.9091659e-01  -4.3232070e-01   3.0044110e-01  -8.7387741e-01  -1.9236292e-01  -6.9043350e-01   4.4397161e-01   1.1659730e-01  -4.3090964e-01  -8.5118110e-01   5.4582770e-01   1.0246590e-01  -8.1516707e-01   1.8305823e-01  -4.7625998e-01   2.5624951e-01  -1.3104875e-01  -8.0364741e-02  -5.5732821e-01   5.4492911e-01  -6.9928116e-01  -9.2882935e-01  -4.9995499e-01   8.4709960e-01   7.3528703e-01   8.9406117e-01   2.9265765e-01  -2.2307033e-01  -3.2705587e-01  -5.8192270e-02  -8.4822283e-01   5.7275412e-01   9.6297769e-01  -3.2325185e-01   3.8392755e-01   4.5822540e-01  -7.4314196e-01   5.1027169e-02   7.3243915e-01   8.0332487e-03   7.9257763e-01   2.8167387e-01  -3.1125447e-02   7.9600529e-01   2.2634856e-02   3.4830681e-02  -3.8256588e-01   1.4971652e-01  -4.7446800e-01   6.4376079e-01  -7.5928958e-01  -4.6312402e-01   3.5036006e-01  -9.8656217e-01   1.8886993e-01   5.1002047e-01  -6.6669202e-01  -8.1373105e-01   4.5824061e-02   7.4950107e-02  -8.7824477e-01   1.1298448e-01   4.0953781e-01   3.4538774e-01  -2.7548212e-01  -7.0116279e-01  -5.0689785e-01  -5.0589605e-01   6.7203674e-02  -8.2115237e-01  -4.0393489e-01  -4.3224676e-01   6.3648515e-01  -7.0789439e-01   4.5287224e-01  -8.6150720e-01   4.8042722e-01   5.7605837e-01  -4.1699526e-01   1.2685554e-01   9.5942810e-01  -1.6428115e-01  -9.3460114e-01   4.9176836e-01  -7.9943661e-02   6.3674819e-01   6.1964159e-01  -2.2733214e-01   4.7303667e-01   5.3078961e-01  -2.5366782e-01  -1.9555986e-02   6.6184860e-01   7.9263387e-01  -2.9848519e-01  -4.4426743e-01   1.2970174e-01  -2.4943267e-01   2.3742624e-01   3.3897633e-01  -5.7967749e-01   7.8684469e-01   1.1946400e-01  -2.4965129e-01   2.6755151e-01  -5.1324573e-01  -9.1980110e-01   9.6458976e-01  -1.1747484e-01   6.6137835e-01  -8.0121950e-01   1.9289441e-01   6.4876575e-03   6.8948077e-01  -9.7880191e-01  -2.8068900e-01   2.4673609e-01   4.4795632e-01  -4.8714597e-01  -9.7323125e-01   3.9484573e-01   6.2926966e-01   2.2648102e-01  -4.0491722e-01  -3.7392300e-01  -8.6739003e-01  -8.8917524e-01   7.1879430e-01  -3.0669133e-01   6.1766875e-01  -1.9163809e-01  -5.1489030e-01   5.8168386e-01   5.3181380e-01  -9.5293022e-01  -3.4597782e-03  -8.8761035e-01   4.7063685e-01   6.7643325e-01  -8.8611459e-01   6.3927857e-01  -7.0464571e-01   4.4816573e-02  -1.9025651e-01   4.1359029e-01   2.3101615e-01   9.6377103e-02  -1.5660254e-01   4.6188356e-01  -3.6425953e-01  -1.3795989e-03   3.7831957e-01  -8.8600209e-01  -5.5817894e-01   5.3742953e-01  -8.4796830e-01   1.4228285e-01   6.0662858e-01   1.9579584e-01   3.0276563e-01  -3.7263130e-01   8.3528393e-01  -5.7338706e-01  -3.0627790e-02   7.1380607e-01  -9.7562503e-01   3.2159797e-01   8.5165971e-01   2.1398095e-01  -5.4929483e-01   1.3545537e-01   1.3208896e-01  -5.2984127e-01  -5.5168947e-01  -5.0044382e-01   6.0986589e-01   3.8958209e-01   4.0270442e-01  -1.4176983e-01  -9.2662572e-01   9.8480596e-02  -7.5849688e-03  -6.0569745e-01   4.4589069e-01   7.7523029e-01  -6.3595433e-01   6.5720668e-01  -4.2692987e-01   7.7217988e-01   9.5414702e-01   4.6315502e-02   5.7513963e-01  -3.3538296e-01   2.7956583e-01   5.7448102e-01  -3.8478938e-02   7.5498387e-02   3.2949544e-01  -7.9042261e-01  -6.7981820e-01  -8.0000747e-01   1.9203158e-01   4.4964501e-01   1.7411004e-01   5.3555181e-01   4.7159467e-01   7.2233309e-01   5.5769571e-01   4.5370744e-01   2.5189809e-01   2.8678148e-01   7.9229592e-01   5.0698932e-02  -8.1286202e-01  -7.4792291e-01   4.2752272e-01   7.8172253e-01   4.7976458e-01  -1.8736682e-01  -1.8480037e-01   6.5034146e-01   1.4585110e-01  -1.9058815e-01   4.3029386e-01   5.4429371e-01  -1.2509443e-01   7.6056990e-01   5.1065657e-01  -7.8287079e-01   2.7920249e-01  -9.0570788e-01   8.5195841e-01  -5.9085617e-01   9.5192618e-01  -2.5792632e-01  -2.0460865e-01  -5.3098373e-01   6.4731892e-01  -6.9128596e-01  -8.4266179e-01   3.7597305e-02  -9.0169420e-01  -3.3224456e-01  -6.3834860e-01   7.2890560e-01   9.7851525e-01  -6.7710323e-01   1.6824257e-01   4.1601255e-01   1.1914401e-01  -9.3573081e-01  -8.1075691e-02  -1.4247029e-01   4.9263977e-01   3.4516820e-01  -8.6009232e-01   6.4970088e-01  -6.0311574e-01   6.1733440e-01  -5.9403151e-01   8.7830803e-01  -9.5599749e-01  -4.2791339e-01  -8.8473490e-01   4.4944017e-01  -7.8968117e-01  -6.4300513e-01   6.6107658e-01   9.4826264e-01   7.9604361e-01   2.0735148e-01  -9.2758429e-01  -8.6974514e-02  -9.2017842e-01  -1.8077675e-01   4.7123881e-01   3.7383241e-01   5.9889295e-01   8.3359465e-01   6.7836488e-02   2.9659149e-01  -9.3160566e-02   8.2415245e-01   1.7587077e-01  -3.7514416e-01   6.5634777e-02   7.1384762e-01  -3.7423251e-02   4.9615558e-01  -9.3729894e-01  -7.0241123e-01  -2.9954854e-01   1.6758388e-01  -2.9885389e-01  -5.7926753e-01  -4.4262474e-01  -5.7410411e-01   7.7551481e-02   6.0103554e-02  -1.2716946e-01   4.5163055e-01   3.3266842e-01  -4.0033364e-03  -3.5986202e-01  -1.3363755e-01   6.4882732e-01   1.8643929e-01   3.9015640e-01  -5.9454836e-01   9.3904337e-01   1.1322757e-01   1.3926947e-02  -7.0417824e-01   9.4325296e-01  -9.9412086e-01   4.0951562e-01  -5.2751961e-01  -3.3058668e-01  -7.2571128e-01   5.9070799e-01  -5.7491055e-01  -5.6182548e-01   4.8795266e-01  -2.1528898e-01  -7.5239277e-01   1.1770174e-01  -5.4520600e-01  -9.3705648e-01   1.8278552e-01  -4.7468815e-01  -9.7157355e-01   4.0476909e-01   5.1805312e-01   3.4160983e-01   4.9885288e-02   9.7888002e-01   2.5409764e-01   5.2665750e-01   4.7034234e-01   7.4988616e-01   4.5335596e-01   7.5136400e-01  -9.1421085e-01  -9.1868971e-01   6.0701800e-01  -9.0142029e-01  -4.8727126e-01  -3.7808998e-01   7.6083374e-01   1.3743665e-01   9.4242420e-01   5.7482815e-01  -9.2146896e-01   3.9318671e-01  -7.9445894e-01  -4.1233698e-01   2.2960485e-01   9.6440208e-01  -8.5220930e-01  -4.0916011e-01  -6.1023931e-01   9.2604352e-01  -2.3587541e-01  -6.1420676e-01   9.2279722e-02   1.7732732e-01   7.0408991e-02  -2.0142152e-01   3.0204139e-01  -7.1470505e-01  -8.9252319e-01  -4.5051538e-01   9.4777308e-01  -6.9527660e-01  -5.7156095e-01   8.9510785e-01  -7.2717328e-02   9.8390856e-01  -4.0265628e-01   2.7702416e-01   1.6795996e-01   4.8229890e-03   7.4714368e-01  -7.0748724e-01   7.7067486e-02  -1.0569286e-01  -7.0722111e-01  -9.5114454e-01   6.2595120e-01  -7.2273819e-01   3.6762997e-01  -6.1871440e-02  -5.2821836e-01   5.7306325e-02  -1.9685589e-01  -6.0892548e-01   8.4568956e-01  -1.0752952e-01   5.0388020e-01  -7.6444501e-01   4.3830119e-02   2.3042951e-01  -1.1702407e-01  -8.7264010e-01  -7.0719772e-01  -5.4704295e-01   6.0602398e-01  -9.3227120e-01  -7.1895209e-01   2.0144181e-01   6.7804356e-01   5.8439973e-01  -5.4434837e-01  -6.6548844e-01   2.5602751e-01  -5.4654544e-01  -1.8352219e-02  -4.8885367e-01   4.4899415e-01  -6.0647760e-01   8.0955593e-01   4.6790393e-01   3.8845491e-01   1.4239620e-01   1.3738799e-01   8.5402606e-01  -3.1177263e-01   7.3065601e-01   8.1821465e-01   3.3240715e-01  -4.0204587e-01  -2.6966684e-01  -2.4893048e-02   2.3699562e-01  -8.5287268e-01   9.4867453e-01  -5.3544986e-01   9.2387991e-01   2.9149805e-01  -8.6842981e-01   3.1975634e-01  -9.1914897e-01   9.4655740e-01  -7.0815956e-01   6.0353281e-01  -2.5520022e-01   5.5097658e-01   9.0186629e-01  -7.7105568e-02   8.1762248e-01  -9.7685790e-01  -6.5509158e-01   9.9305593e-01  -9.2750942e-01  -6.1994116e-01   9.1929319e-01  -9.7223637e-01  -5.1279812e-01  -8.5265608e-02  -6.3543591e-01  -7.6524765e-01   5.9561216e-01   9.9669507e-01   6.3559916e-02  -3.7492283e-01  -1.5317872e-01   7.6605439e-01  -4.0101734e-01   5.8385882e-01  -9.6426940e-01  -1.8643902e-01  -1.0300258e-01  -8.2791641e-01   6.9882932e-01  -2.7146777e-01  -6.0682037e-01   6.4690362e-01  -6.5771342e-01  -2.0294789e-02   1.7630802e-01   5.0105086e-03  -7.0600443e-01  -7.2725756e-01   8.7138929e-02   5.6062348e-01  -3.0708404e-01   1.4547229e-01   9.0013278e-01  -3.0947290e-01  -5.2196977e-01   2.1138743e-01   2.0300622e-01   1.3957755e-01  -5.5520449e-01   3.1810620e-01   2.3317324e-01   4.5108407e-01  -6.1584940e-01   9.3021834e-01  -3.3253247e-02   9.6365744e-01  -7.4214023e-01  -7.0143968e-01   6.0197965e-01   3.4242012e-01  -8.1868625e-01  -6.1374486e-01   4.5265268e-01  -3.0420389e-01   7.2891311e-01   7.3744899e-01   3.0755806e-01  -6.0359353e-01   1.7386044e-01   1.2971460e-01  -2.1277659e-01   8.5120326e-01   7.4721175e-01  -7.3540210e-01   6.0978881e-01  -8.9385635e-01   6.4596254e-01  -4.9835193e-01   9.8385846e-01  -1.4648323e-01   5.9981047e-01   2.8540064e-01   1.0810659e-04   5.1503027e-01  -7.9300431e-01   4.6120221e-01   9.1667544e-01   9.5796879e-01  -5.4248025e-01  -2.3558930e-01  -8.7582561e-01   1.6769665e-01  -8.5524564e-01   2.7382183e-01  -6.6126260e-01  -1.8765520e-01  -5.6557823e-01  -6.7821040e-01  -1.0406148e-02   1.0528357e-01   3.6117592e-01   6.7054005e-01   6.5041000e-02   8.4291414e-01   2.2277042e-01  -6.2474082e-02   1.5946480e-02   8.2287352e-01  -9.8188756e-01   6.4522060e-01  -2.2132584e-01  -9.6783788e-02  -3.9122624e-01   9.5867882e-01   4.1004647e-01   7.1658126e-01  -4.2618629e-01   3.0244228e-01  -1.8469938e-01   1.3624846e-01   2.6820940e-03  -8.3290263e-02  -7.1486592e-01  -8.8753245e-02  -1.3502487e-01   4.8850156e-01   6.0654188e-01  -4.8535610e-01   7.0428979e-01   6.4114123e-01   1.0598022e-02  -5.3301136e-01   7.6264219e-01  -3.9944560e-01  -6.4509029e-01  -1.2261677e-01  -9.3261096e-01   9.9315467e-01   6.5134133e-01  -4.8650023e-01   7.1479023e-02   2.0169596e-01   7.3668793e-01   6.0729334e-01   9.6285832e-03   5.6072175e-01   8.2608075e-01   4.6085020e-02   6.8337995e-01  -1.3271519e-01   8.7986542e-01  -5.3557413e-01  -3.6963143e-01  -6.3961290e-01   9.0981380e-01  -3.5468125e-01  -7.5315349e-01   6.8338170e-01  -8.8458933e-01   4.2055565e-01  -9.1748414e-01  -9.0960217e-01   9.8675686e-01  -9.3254377e-01   4.6817343e-01   1.2142453e-01   4.2592086e-01   4.8107722e-01  -2.0131555e-01  -6.4663730e-01   1.6372084e-01  -4.7644607e-02   6.0943535e-01   5.5114417e-01  -1.3205582e-01  -9.0641939e-01  -7.1928936e-01  -5.3506339e-02  -6.7275688e-01  -7.5616332e-02  -4.6631097e-02   1.1350724e-01   7.8929736e-01   1.3593057e-01   4.3667968e-01  -4.3130966e-01   7.3261820e-01  -8.4074183e-01   5.2425870e-01   8.0773468e-01  -6.6519930e-01  -3.0100946e-02  -6.7122031e-01  -5.3286992e-01  -2.8381601e-01  -4.0005723e-01   2.1288788e-01  -9.0690605e-01   5.9638286e-01   5.3426041e-01  -8.3786522e-01   1.3562590e-01   7.7129527e-01  -1.9005436e-01   8.4173732e-01  -7.4309812e-01   4.0005709e-01  -1.8323264e-01   4.2538597e-01  -2.8737283e-01  -1.4685413e-01   3.0540658e-01   9.4761463e-01   1.6023710e-01  -6.2075748e-01   3.7301873e-01   3.0488827e-01   6.0126554e-02  -2.4838413e-02   2.2374511e-01   8.5546005e-01  -5.2249094e-01   4.4856141e-01  -7.9734513e-01  -5.6804386e-02   1.2890586e-01   5.0629869e-01   9.1228191e-02   8.1858282e-01  -4.7267798e-01   8.4339924e-02   2.6632545e-01   1.9624287e-01   8.9689557e-01  -8.3255315e-01  -3.4913644e-01  -6.2475402e-01   9.1897726e-01  -2.8194588e-01   9.7079217e-01   2.1851127e-01  -4.8192262e-01  -6.4579623e-01   7.3121655e-01   7.7809544e-01  -7.7047161e-01  -3.0936407e-01  -5.7907930e-01   5.4049319e-01  -3.6112913e-01  -1.8102945e-01   6.6366856e-01  -3.5121176e-02  -5.5159554e-02   1.1027161e-01   5.5777036e-01  -9.4872830e-01   6.9819485e-01  -7.6456773e-01   6.1678704e-01  -3.7970988e-01   5.6433380e-01   8.8692756e-01   5.5355276e-01  -9.9028078e-01   3.9268051e-01  -6.8509777e-01   9.1060761e-01   1.9456434e-01  -9.5736816e-01  -6.0426401e-01   7.6997955e-02   5.5782046e-02  -7.1471631e-01   9.6043065e-02   2.2687210e-01  -2.5217128e-02   1.2463714e-01  -9.0652906e-01  -3.7012976e-01  -5.3038340e-01   6.0374028e-01   5.8054530e-01   8.5733026e-01  -6.5128461e-01   7.8883536e-01   7.5844973e-01   8.9264694e-01  -1.1291850e-01  -6.4600435e-01   7.4595572e-02  -5.8149934e-01   9.3966554e-01  -4.0478251e-01   4.4962803e-01   9.0718206e-01  -7.6429204e-01   3.0165738e-01  -9.6267707e-01  -1.5137855e-03   1.1604264e-01   4.2771722e-01  -2.6683856e-01   7.0007890e-02   5.8169295e-01  -7.6181034e-01  -2.1427307e-02   2.6850545e-01   9.6337749e-01  -9.0998257e-01   1.2886936e-02   9.6827041e-01   1.0227019e-01   7.7115643e-02  -8.2878174e-01   3.7703392e-02   8.4650812e-01  -7.1342530e-01  -5.1403809e-01   8.8031468e-01   3.9846678e-01   5.9386225e-01   4.6447407e-01  -9.6708990e-01  -7.2491871e-01  -6.7039167e-01  -7.2900160e-01  -9.3089549e-01  -1.5928303e-01  -5.5604745e-01   8.3715426e-01  -8.1873169e-01  -9.5189591e-02  -2.8955926e-01   6.8471597e-01   4.7510455e-01  -9.5094743e-01  -7.2092377e-01  -7.2410669e-01  -8.9149472e-01   6.9533439e-01   4.0286854e-01   3.5590125e-01   4.7321623e-01   5.3754746e-01  -3.1786427e-01  -1.4963857e-01   7.3079162e-01  -2.9700615e-01   7.9353682e-01  -9.1688669e-02   9.2932314e-01   4.2742825e-01  -1.8828046e-01   3.3818363e-01  -2.6611291e-01   2.2426985e-01   3.5670069e-01  -6.1088014e-01   6.0194263e-01   6.3571955e-01   8.1411353e-01   1.7094037e-01   2.9844436e-01   6.5036907e-01  -2.5731463e-03  -4.6005622e-02   8.4788136e-01   5.5404826e-01  -3.7372404e-01  -5.0222346e-01   8.9754121e-01   8.6688504e-01   9.4974531e-01  -1.4043434e-01  -8.2175202e-01  -7.5208990e-01  -3.2154817e-02   2.2826040e-01  -8.2716750e-01   9.6817111e-01  -4.3648823e-01   9.1596397e-02   8.0061223e-01  -6.6258944e-01
  -5.2979520e-01  -3.0406930e-01   6.6024258e-01   9.0264237e-01  -8.1787807e-01  -1.7730307e-02   6.6531487e-01   3.0474142e-01   8.1812805e-01   3.8021387e-01   7.5959788e-01  -6.8240532e-01  -4.5462102e-01  -7.0336458e-01  -5.8654695e-01  -5.5025386e-01   8.7485702e-01  -4.1293677e-01  -5.7834785e-01  -7.6539769e-01  -5.8154013e-01   9.5928473e-01   4.2108307e-01   4.7741925e-01  -8.1623824e-01  -5.9726606e-01  -1.6542718e-01   1.5450084e-01   8.2862330e-01  -6.3664458e-01  -9.7771604e-01   3.4770679e-01  -5.9361561e-01   4.2279739e-02   7.7695657e-03   3.1864125e-01   1.2309126e-01  -6.1278019e-01   9.1082569e-02   6.5635154e-01   7.6834445e-01   8.8872649e-01  -8.4496788e-01  -2.8962026e-01   7.2485352e-01   6.1117226e-01   3.2370735e-01   3.9265715e-01  -6.2972739e-02   6.7168663e-01  -6.8016012e-02   6.5189183e-01  -8.6044478e-01   4.6306514e-02   9.4480261e-01  -6.0770392e-01   8.0676247e-01   1.8479004e-01  -3.8071956e-02   7.8717336e-01   5.3891699e-01   2.0113800e-01  -8.8105327e-01  -8.1976143e-01   1.6275940e-01  -3.3948835e-01  -2.9213953e-01  -4.0123805e-01   6.7516196e-01   9.4474464e-02  -1.0695009e-01   4.1465094e-01   2.1238435e-01   6.2215700e-03  -9.6974553e-01   5.4637223e-01  -2.5537104e-02  -2.6140990e-01  -9.5257333e-01   4.7905355e-01   2.3806944e-01   1.3199262e-01  -8.9223805e-01   8.7100490e-01   4.2400823e-01  -4.1192651e-01   2.3438829e-01   7.3757106e-01   1.0531768e-01   2.5159928e-01  -1.8971642e-01   7.1185616e-01  -4.7891590e-01  -9.3309081e-01  -6.2860223e-01  -7.0401816e-02  -6.3198694e-01   3.6911924e-01  -6.3158077e-01  -7.7531479e-01   9.1525863e-02  -3.4187979e-01   7.7011980e-01   9.3012890e-01  -3.1611548e-01  -8.4594099e-01  -5.3254997e-01   7.4109838e-01  -7.6958638e-01   2.1913200e-01  -6.5244229e-01   7.8759816e-01   8.9259575e-01   7.4562249e-01  -3.9337446e-01  -5.4539447e-01   7.9468811e-01   6.6992282e-01   6.4706300e-01  -2.7676615e-01  -3.6915907e-01  -7.2722034e-01   1.0995615e-01  -3.1613001e-01  -5.9806977e-01   1.2307550e-01   5.6390856e-01   5.2394887e-01   7.9504981e-01   7.8801961e-01  -6.7337644e-01  -8.9702446e-01  -9.2662421e-01   6.1620709e-01  -9.3593372e-01  -3.0306242e-01  -2.7254147e-01   1.3559083e-01   6.6100962e-01  -2.8750887e-01   3.2233746e-01   1.6789239e-01  -8.0886535e-01   8.7335479e-01  -9.9792060e-01   3.5625964e-01  -1.7757505e-01  -6.3724491e-01   6.1461838e-01   8.6427519e-01   8.6531089e-01   5.8868299e-02   2.2888129e-01  -3.4167576e-02   4.6837137e-01  -2.5814515e-01   4.9144939e-01   8.5321955e-01   6.3946167e-01   1.0561474e-01  -6.1874465e-01  -1.7900572e-01   4.3696143e-01   7.2927941e-01  -1.1569897e-02  -6.7652009e-01  -9.5648311e-01  -4.4953058e-01  -1.5485119e-01  -2.6429395e-01  -4.2207668e-01   2.4093562e-01  -4.3901304e-03  -4.1355812e-01   3.8828827e-01   9.7951722e-01   7.6719994e-01  -4.8567534e-02   9.2828618e-01   3.8844086e-01  -9.7118875e-01  -3.3481154e-01   3.5544418e-01   1.9491508e-01  -7.4418961e-01  -8.7714827e-02  -8.0823727e-01  -1.9341955e-01   2.2414103e-01   8.4528434e-01  -5.9249268e-01   9.1376085e-02  -9.6122709e-02  -7.8122933e-02   1.9166887e-01  -3.5172292e-01  -3.8016422e-01  -2.0610240e-01  -8.2944600e-01   1.9445532e-01   2.5362169e-01   8.4764619e-01  -2.9176265e-01   5.8073870e-01   2.0079410e-01  -3.3815831e-01  -9.1477772e-01  -6.5260387e-01   2.0314263e-01   6.5687013e-02   1.1591495e-01  -4.7518113e-01  -9.6563934e-01  -4.2387493e-01  -1.5284857e-01   3.6805222e-01   8.8945437e-01  -5.2279015e-01  -3.8774796e-01  -3.9333094e-01   9.7425440e-01  -3.1239325e-01   1.0590372e-01   2.5834077e-01  -6.3624036e-01  -4.8818297e-01   1.1802439e-01  -5.2202409e-01   1.2603660e-01  -7.1193258e-01   3.7943075e-01   7.7240929e-02  -1.1239767e-01   7.5096947e-01  -9.8526073e-02  -5.3873179e-01  -2.4599563e-01  -2.0771440e-01  -3.0702218e-01  -2.9048898e-01   2.6893071e-01   7.2511489e-01  -2.8640588e-01  -3.2640477e-01   5.5545212e-02   2.1440246e-01  -8.2413655e-01  -3.7536381e-01  -6.7164020e-01   4.5557555e-02   1.1060900e-02   2.7920897e-01  -1.7082808e-01   5.0787364e-01  -9.9989899e-02  -1.0861551e-01   5.1063173e-01   1.9969519e-01   8.1451205e-01  -8.5019190e-01  -1.4664668e-01   9.2060898e-01  -6.5213910e-01   3.1757692e-02   7.1187354e-01   2.3189192e-01  -1.7473715e-01   5.1436008e-01   9.1621560e-01   9.6504049e-01  -5.2080578e-01   1.1584700e-01  -2.1706193e-01   2.7459685e-01  -5.2912527e-01  -7.0022729e-01  -3.6289554e-01  -4.4500591e-01   2.4941750e-01  -6.1248563e-01   9.7742843e-01  -1.3591915e-01   2.0237327e-01   9.1489225e-01   4.5179953e-02   2.1141968e-02   5.5980769e-01   4.3542918e-01  -8.5116537e-01  -5.0195062e-01   7.9376760e-01   4.0124550e-01  -4.7890960e-01   1.7268504e-01  -5.3322059e-01   2.4150305e-01   2.6212194e-01   7.1541298e-01   5.6333513e-01   2.7978028e-01  -6.5829520e-01   5.8897852e-01  -3.7442120e-01   4.0991617e-01  -5.1365054e-01  -9.4694363e-01   9.9906478e-01   1.4778280e-02   7.5548944e-01   4.0493104e-01  -2.4444537e-01  -8.5041176e-01  -9.3641227e-01  -1.7903283e-01   1.6021460e-01  -4.8324417e-01  -7.6710521e-01  -9.1489786e-01  -7.2089582e-01   1.6513314e-01  -6.8850267e-01   7.7433764e-01  -9.1840806e-01   1.0534695e-01  -2.4483295e-01   6.7800115e-01  -1.1841480e-01   4.9397780e-02   5.5387523e-01  -1.3173564e-01  -8.2037415e-01  -4.4108403e-01  -4.6353324e-01   6.1265663e-01  -7.8429057e-01  -3.9771463e-01   2.4331106e-01  -7.6202613e-01   6.2051528e-03   3.0613015e-01   2.0592417e-01  -4.0052011e-01  -7.2243331e-01   1.8241674e-01  -6.9443917e-01  -8.8738123e-01   7.6222461e-01   8.1970647e-01   1.7713002e-01  -9.2633567e-01   9.3121459e-01  -9.9474534e-01   6.1404562e-01  -6.5219415e-01  -1.0211780e-01  -7.9334361e-01  -3.7306488e-01  -9.3367875e-01  -4.6025847e-01   5.1605798e-01  -2.9696569e-01  -7.9203488e-02   7.2223934e-01  -1.9229716e-01   9.0288719e-01   6.8586820e-01  -8.5211256e-01   5.0383393e-01  -4.5795467e-03  -7.2672154e-02   1.2104459e-01  -3.1623374e-02  -9.3051534e-03   9.5243498e-01   9.4565404e-01   7.6757848e-01  -9.3858540e-01  -9.3144860e-03   4.7613113e-01  -1.5675351e-01  -6.5014038e-01  -9.5170781e-01  -7.9714022e-01   4.0056465e-01  -2.1453350e-01   3.7745374e-01   7.7856931e-01  -3.0358641e-01   1.2471419e-01   6.7449567e-01   8.1584180e-01  -6.7012582e-01   6.0674576e-01  -6.0373601e-01  -7.4688392e-01  -5.1050291e-01   1.3869725e-01   9.3942299e-01   2.4150609e-02   1.7846118e-01  -4.7625176e-01  -6.2591705e-01   9.0586849e-01   6.3616192e-01  -5.1186618e-01  -4.7031503e-02  -3.1463361e-01   4.8928995e-01  -7.1566411e-01  -2.5668601e-01   3.0918617e-01  -2.5835075e-01   5.8084736e-01  -1.7676182e-01  -8.9041197e-01   6.6347283e-01  -4.8226569e-01  -6.0246335e-01  -5.0392670e-01  -6.7433169e-01   2.2319078e-01  -4.2630736e-02   7.2223893e-01  -7.8857326e-01  -3.1920207e-01   1.5359225e-01   8.1428707e-01   8.3282409e-01   1.7234410e-01   8.2106262e-01   7.6489278e-01  -1.5936912e-01   8.2657887e-01  -6.0888402e-01  -5.9583955e-01  -2.0607059e-01   2.9649103e-01  -9.4096744e-01  -1.5259212e-02   5.2450368e-01   2.9827066e-01   4.8507249e-01  -7.6453135e-01   3.7776684e-02  -8.7774334e-01   3.2458777e-01   5.1224812e-01   9.4902209e-01  -8.4801387e-01  -4.8100986e-01  -5.0649139e-01  -8.1508135e-01  -1.0625369e-01   5.4208594e-01   9.4821555e-01  -8.0122715e-01  -9.6031012e-01   3.6758257e-01   1.1993661e-01   2.8348201e-01  -3.5712174e-01  -9.4205033e-01   8.8159339e-01  -8.6165693e-01   3.5562284e-01   5.9990918e-01  -3.2990368e-01   4.3834862e-01  -5.8421459e-01   9.7240806e-01   1.2050060e-01   1.1321437e-01  -6.6630011e-01   1.2272404e-01   6.4837608e-01   8.8624065e-02  -5.9290258e-01  -6.2509369e-01  -6.9941312e-01   8.1393291e-01  -1.9532824e-01  -5.5500600e-01  -4.6252830e-01   3.4897364e-01   9.8869140e-01  -2.1501439e-01  -9.9621749e-01  -1.5249619e-01   1.0590372e-01  -4.5644545e-01  -9.2719686e-01  -2.3923513e-01  -5.9089810e-01  -9.3143809e-01   8.1028715e-01   2.8891377e-01  -2.6238421e-01   6.5205144e-01   5.5745577e-01  -1.9163375e-01  -9.6541240e-01  -5.7174234e-01  -9.8642289e-01   6.7127526e-02  -8.1988876e-01   7.6958529e-01  -3.1405361e-01   4.1590904e-02   7.5507436e-01   5.8860355e-01   5.1628400e-01  -7.5927835e-01   1.5877561e-01  -1.1613653e-01   5.3584398e-01   8.0392840e-02  -1.7333626e-01   2.4568423e-01  -9.6918182e-01  -2.0703218e-01  -3.6338792e-01   1.6102825e-01   3.1002785e-01  -2.8780764e-01  -5.7597861e-02   2.5610184e-01   6.2864546e-01   4.0597707e-01   9.1093738e-01  -5.1024327e-01   4.1329857e-01  -7.8166879e-01   3.7619786e-01   4.8822197e-01  -4.5275864e-01  -1.7591245e-01  -9.8617678e-01  -8.0537073e-01   1.7123793e-02  -7.7606515e-01   2.3042897e-01   8.5287009e-01   1.0328058e-01   2.2550366e-01  -8.8970224e-01   5.1040166e-01   8.4858843e-02   4.1524993e-01   4.0031057e-02   7.6989536e-01  -7.5394978e-01  -7.2028899e-01   5.6718139e-01   1.1957621e-01   6.1777540e-01   7.9892736e-01  -5.5252203e-01   4.4185255e-01   6.5576420e-01  -7.5083819e-02   2.5841812e-01   8.9914976e-01   1.5433163e-01   9.2994406e-01   5.1603881e-01  -1.4793345e-01  -3.0330600e-01   4.6610673e-01   2.7135510e-01  -2.9033370e-01   3.5465596e-03   6.5551122e-01  -4.8273566e-01  -1.2524038e-01  -8.2988347e-01  -7.8527881e-01   6.7740377e-01   9.0287678e-01  -5.1353440e-01   5.7121528e-01  -5.3688705e-01   8.5108278e-02  -6.1163273e-01  -5.4386277e-01   1.5817373e-01   5.5711519e-01  -3.3556689e-01   7.0571696e-01   4.1998697e-01   8.5947532e-01  -1.0200657e-01  -6.5537608e-01  -2.5308102e-01   2.2146258e-01   2.2278764e-01  -6.5208937e-01  -8.9719309e-01  -8.6058121e-01  -3.5690793e-03  -8.6555128e-01   3.5588422e-01  -1.9966580e-01  -2.5812439e-01   5.9328925e-01   5.0274297e-01  -7.0238247e-01   8.7181045e-01   5.5568250e-01   8.8169197e-01  -9.4020731e-01  -3.1430329e-02   4.4241703e-01  -2.9910328e-01   2.5900389e-01  -5.4257358e-01   1.5486857e-01  -6.7520415e-01   8.0719764e-01  -5.3715997e-02   8.7296051e-01  -6.1510768e-01  -2.7276567e-01   4.3792099e-01  -3.1559885e-01   8.9987143e-02  -4.3317120e-02   9.3103130e-01  -4.6665412e-01   2.5165757e-01  -4.7588317e-01  -9.3696873e-01  -6.9837558e-01  -7.2581497e-01   7.3280427e-01   1.8104015e-01   5.0841278e-01   2.3556625e-01   4.0255977e-01  -3.7187214e-01  -2.0742233e-01   4.8602866e-01  -9.8632043e-01  -2.5074920e-01   5.2600779e-01  -2.9032552e-01   2.9337933e-01  -6.6670440e-01  -3.7691038e-01   8.3844014e-01   2.7169305e-01  -6.1029803e-01   9.3653058e-01  -4.1077757e-01  -5.8676435e-01  -2.3368470e-01   6.4670650e-01  -7.6956473e-01  -2.6692143e-01  -7.2876669e-01  -8.8502186e-01  -8.2933056e-01   3.6315120e-01   8.6453305e-01   1.9128294e-01  -2.9960850e-01  -4.6054490e-01  -4.7318625e-02  -6.0224057e-01   9.4929375e-01  -6.0303971e-02   2.4040218e-01   7.3944427e-01  -7.6626334e-01  -7.0277545e-01   1.1048327e-01   5.2917630e-01  -2.5548367e-01  -8.7449771e-01  -6.5777869e-01  -1.3066473e-01  -3.3005316e-01  -5.0008679e-01  -2.9703238e-01  -1.7235456e-01   4.3070527e-01  -3.4994099e-01  -3.0378543e-01  -7.6510651e-01  -5.6630627e-01  -9.3644378e-01   4.6707701e-01  -1.6118438e-01   9.0073945e-01   9.4454400e-01   7.2227543e-01  -6.0801612e-01   1.3408113e-01  -3.6609195e-01   5.7306552e-01  -4.1353209e-01  -2.0071755e-01   8.3603117e-01   7.4085063e-01  -3.6435729e-01  -9.2967506e-01  -7.7533936e-01  -3.4671368e-01  -2.5622464e-01   7.3835427e-02  -1.0647644e-01  -4.9868695e-01  -7.3522096e-01   3.4637922e-01   9.8485835e-01  -3.2891805e-02   7.3813484e-01  -6.6285350e-01   1.1238429e-01   6.2984838e-01  -2.3812578e-01  -7.6443563e-01  -6.1483316e-01   5.5774677e-01  -9.0924483e-01   7.4659013e-01  -1.4911003e-01   8.5601402e-01  -6.5078390e-01  -1.0863203e-01   4.6435847e-01  -4.7384761e-01   9.7510153e-01   3.8998099e-01  -3.5180244e-01   4.2650654e-01  -4.0337045e-02  -6.3869554e-01   1.1277327e-01  -6.8133379e-01   7.2642996e-01   6.0176479e-01   6.4734878e-01   3.4433288e-01   5.4169644e-01  -6.0134589e-01   1.9115899e-01  -6.5320296e-01  -2.1203997e-01   7.9426851e-02   8.9543404e-01  -7.6352440e-01  -5.5949578e-01   8.8776553e-01   5.3658233e-01  -1.4323968e-01   8.3937772e-01  -2.3979434e-01   5.9620635e-01  -3.6610039e-01   5.7012549e-01  -6.8459002e-01  -7.9214980e-01   4.0513354e-01   1.6045142e-01   3.0523458e-02  -7.0190742e-01   3.8627929e-01  -3.2534606e-01   6.3013293e-01   5.5380736e-01   4.2636483e-01  -1.1711926e-01   6.2732528e-01  -5.2566677e-01   1.2933239e-01   2.6658592e-01   7.9873662e-01   6.1995725e-01  -7.0047667e-02   3.7617856e-01  -8.5034999e-01   6.8871345e-01  -9.3317510e-01   9.2439360e-02  -8.4245071e-01  -6.7368135e-01  -3.3991637e-02  -5.6394964e-01  -3.0061117e-01  -4.2662801e-01  -3.4774672e-01  -9.0447921e-01  -9.0061485e-01   5.9940231e-01  -9.0342131e-01   9.9183494e-01  -6.5627408e-02  -2.8581697e-01  -9.5429413e-02  -8.4237515e-01  -8.6417187e-01   2.7754366e-01  -2.0119154e-01   4.3330780e-01   8.3178603e-01   4.1463776e-01   7.3353346e-01   3.1243201e-01  -8.2224509e-01  -8.0893776e-01  -7.5705352e-01   7.1528813e-01  -1.4493825e-02  -1.2832990e-02   3.8520941e-03  -3.4015257e-01  -7.0840581e-01   9.2430346e-01   9.9245209e-01   3.0363644e-01  -9.8342540e-01   2.1699211e-01  -6.0468966e-01  -7.4872806e-01  -5.8113911e-01  -1.5411151e-01   2.2138416e-02   9.2433122e-01  -5.9957197e-01   6.2337840e-01  -1.9340738e-01   1.2818264e-01  -1.1625670e-01  -3.2837132e-01   7.6715720e-01   5.5452041e-01   1.4320454e-01  -3.7746455e-01   6.9747418e-01   6.6097721e-01  -8.6619863e-01   3.2691766e-01  -6.3677890e-01  -2.4641919e-01   4.6261344e-01   8.1551679e-01   1.3880299e-01   1.7056926e-02  -1.8111989e-01   8.2333676e-01   5.7443992e-01  -3.6217885e-01  -4.9481707e-01   5.8666765e-01   6.4427051e-01  -9.6621410e-02   5.3521040e-01  -2.3160855e-02   8.1108474e-01  -7.8207568e-01  -6.5118808e-01  -6.5007995e-01  -5.5944915e-01  -4.7409969e-01   9.4040818e-01  -9.8920320e-01  -8.4296160e-01   1.0794846e-01  -4.5442227e-01  -6.0842912e-01   4.7150601e-01  -9.9291828e-01  -3.3891578e-01   9.5035597e-02   4.6386428e-01  -2.9521880e-01  -2.7405912e-01  -6.8432887e-02   1.5747563e-01   8.0868919e-02   1.0959009e-01  -5.3797550e-01   6.3201280e-01  -2.9875487e-01  -2.3701975e-01  -6.0206292e-01  -6.5944823e-01   3.7237719e-01  -6.7193114e-02  -2.9246450e-01   8.8701487e-01  -1.6550949e-01  -4.9227896e-01  -4.3660645e-01  -8.6788732e-02  -9.3912845e-01   4.6932626e-01   4.5158047e-01  -2.3644984e-01  -5.7052773e-01  -5.6176865e-01  -9.7283305e-01  -6.2990774e-01  -8.9329243e-01  -1.3826365e-02  -4.3398943e-01  -7.2579695e-01  -7.7337502e-01  -1.1496591e-02  -7.2296447e-01  -1.1746092e-01  -4.6085405e-01  -7.1843391e-01   4.6217391e-01  -9.0275587e-01  -5.5984397e-01   3.4695261e-01  -7.1131444e-01  -1.8269850e-01  -1.1762835e-01   9.3758412e-01   1.2976574e-01   4.3941944e-01  -9.8226851e-01   9.9140569e-01   4.8931012e-01  -3.5114292e-02   7.5928783e-01   6.5529386e-01   5.3679317e-01   2.2671610e-02   6.9400512e-01  -6.0270512e-01   9.6715266e-01  -9.8908429e-01  -1.8262850e-01  -3.5683800e-02  -3.2764348e-01   4.1014569e-01  -1.2119299e-01  -5.5533524e-01  -8.3587811e-01  -6.3869001e-01  -6.3832296e-01   7.5134775e-01   5.3996230e-01  -9.2863101e-01  -9.0786056e-01  -5.6486947e-01  -3.0084270e-01   8.1339277e-01  -8.5814889e-01   4.4805986e-01   7.7826381e-01   4.2106515e-01  -1.7820570e-01   7.5377539e-01   3.4544639e-01  -3.4085260e-01   4.8135782e-01  -9.1264764e-01  -3.5399739e-01   2.7014582e-01  -2.0550726e-01   5.4525364e-01  -3.7174919e-01   1.0609557e-02   3.0912304e-01   4.9238094e-01  -2.7603460e-01   9.7961205e-01   2.6868794e-01  -1.2459120e-01  -7.0864983e-02   8.7730758e-01  -6.0208394e-01   9.6406308e-01   1.2397395e-01   3.3188505e-01   3.8447256e-01   4.4101176e-01  -2.4366230e-01  -8.4879862e-01   3.0405350e-01  -6.6274850e-01   2.0404707e-01   8.1590824e-01  -9.3518401e-01   8.2835205e-01   5.3180029e-01   9.1534678e-01   9.5105138e-01  -9.2405574e-01   4.0736834e-01   8.0946409e-01   8.1302951e-01  -8.9742535e-01  -7.8751275e-01  -9.2306007e-01  -3.5882440e-02
   3.0089005e-01   5.1849767e-01  -3.0508117e-01   8.6533125e-01  -3.9100504e-01   8.9991693e-02  -7.9941939e-01   9.2333120e-01   3.4040004e-01   7.7792067e-01   5.6643652e-01   1.7143242e-01   6.2512943e-01  -4.3818233e-01  -9.1028231e-01  -6.8106959e-01  -1.0200145e-01   3.3336986e-01  -9.4303022e-01   4.2220643e-01   3.2235690e-01   5.1286511e-01   5.0498910e-01  -1.1040699e-01   5.1806001e-01   1.2893020e-01  -2.0315461e-01  -9.0674787e-02  -3.3159813e-01  -4.2270045e-01   1.2764220e-02   9.6745159e-01   4.6724915e-01   9.4359520e-02  -6.3442776e-01  -1.5151781e-02   3.0105808e-01   7.6245063e-01   8.3915199e-01   2.2890617e-01  -7.5885644e-01   7.1650352e-01  -8.8020309e-01  -3.6384596e-01   5.0504396e-01   2.4219927e-01   5.1620619e-01  -6.5595812e-01  -7.8288767e-01   6.4102390e-01   2.6928026e-01  -4.5729276e-01  -5.0593545e-01  -4.8170854e-01   4.7923155e-01  -6.3629306e-02   1.1285195e-01  -1.4950846e-01   9.5856770e-01   9.2991631e-01   5.6934846e-01   5.5927070e-01  -2.2793394e-01  -4.1490674e-01   3.9224237e-01   4.7032733e-01   8.3765967e-01   7.7397020e-01   7.0054496e-01  -7.1065970e-02  -9.1838448e-01  -6.6413154e-01   5.7500971e-01  -4.4635495e-01  -2.8311156e-01  -8.6069573e-01   6.8051191e-01  -5.1438195e-01  -6.1439336e-02  -1.8486335e-02  -5.7791834e-01   8.1473116e-01  -5.2113740e-01   4.0843332e-01   9.4794330e-01  -1.6854846e-01  -5.0331057e-01   3.9983576e-01  -9.1319772e-01  -2.2553327e-01   7.9508998e-01  -1.6275098e-01   7.4756368e-01  -8.5421341e-01  -6.7594665e-01   2.7584340e-01  -7.0575592e-01   8.1269187e-01  -8.9637624e-01  -9.3270488e-01  -7.3306709e-01   6.8725827e-01  -2.8002301e-01  -5.5320377e-01  -2.9686741e-01   6.7084758e-01   1.1398036e-01  -3.5566744e-01  -4.5654715e-02  -6.9431461e-01  -3.3004090e-01   8.0751113e-01   2.4900570e-01  -2.2923577e-01   1.5625790e-01  -2.3129961e-01   9.8366864e-01  -3.9677099e-01  -4.9155154e-01  -9.8227183e-01   1.5522137e-01  -8.6017377e-01   8.8247123e-01  -9.3587506e-01  -4.0885776e-01   9.4255504e-01   7.0934998e-01   9.3514065e-01  -8.1063469e-01  -1.1456460e-01  -2.3762558e-01   9.8109431e-01   6.4202457e-01  -9.6549112e-01  -9.0225061e-01   3.1969084e-01  -1.8221284e-01   6.9461790e-01  -9.7506270e-01  -5.7562840e-01   8.0341464e-01  -6.9378898e-01  -1.6379184e-01  -2.9253638e-01   1.8897126e-01   2.8598195e-01  -1.7065662e-01  -2.2692996e-01   2.2248908e-01   1.4683847e-01   8.4203047e-01   7.6114311e-01  -4.6241235e-01   2.3394890e-01   5.3435178e-01  -9.5990818e-01  -2.8284194e-01   7.3362354e-01  -7.8569727e-01  -1.7311097e-01  -4.9059950e-01   7.7987534e-01  -2.5777233e-01   4.9534347e-01  -6.1422963e-01   2.8904670e-01  -5.2673471e-01  -6.6857266e-01   3.3553873e-02   6.9293921e-01  -3.2908324e-01  -3.4750306e-02   3.1252552e-01   7.2305682e-01  -9.0154283e-01  -8.9246729e-01  -6.1575964e-01  -5.3446573e-01   6.0028147e-01  -5.6146541e-01  -7.3782503e-01  -5.8491629e-01   5.1690449e-01   9.1529467e-01  -8.9269004e-01  -7.5408944e-01   6.6052282e-01   2.9176539e-01   1.4008652e-01   8.1064563e-01   8.5063352e-01   6.7619724e-01   4.2954988e-01  -6.5768811e-01   1.0187133e-01  -5.7378139e-01   4.8112229e-01   9.2899889e-01   5.5168051e-01  -8.8188324e-02   9.1310330e-01   3.1548229e-01  -1.7490766e-01   1.0731834e-01  -5.6486381e-01  -8.3291318e-01   2.5905390e-01   8.0496182e-01   6.9008754e-02  -5.4340789e-01   4.4423785e-01  -1.9924506e-02  -8.5540912e-01  -3.4968670e-01  -8.7538509e-01  -3.0196333e-01   6.9099210e-01   4.1049370e-01  -7.8697127e-01  -2.5397026e-01   6.2133273e-01   2.9840234e-01   9.5851819e-01  -7.1421065e-01   1.2994493e-01   3.0304736e-02   9.8847664e-02  -4.1096347e-01  -9.1352084e-01  -1.6414776e-01   7.7516944e-01   6.1337865e-02   9.6202041e-01  -9.7770874e-01  -5.8986051e-01  -2.6818012e-01  -8.1426695e-01  -6.0765911e-01   8.1139834e-01   8.1286909e-01  -5.8296839e-01   9.7287277e-01  -9.8728646e-01   1.9956600e-01   2.2508890e-01   8.2083737e-02  -4.1189107e-01   4.9386649e-01   6.8521184e-01  -7.2069289e-01   7.7486398e-01   1.1654023e-02   3.8159286e-01  -5.4366099e-01   1.3034015e-01  -2.3280989e-01   5.0449171e-01  -4.9185539e-01   1.0107973e-01   7.8488230e-01  -1.8446330e-01   4.8777096e-01   4.0117413e-01  -6.2452676e-01  -9.0274062e-01  -8.4233345e-02  -8.3647985e-01   3.1849501e-01  -3.7240621e-01  -2.3561263e-01   9.6501225e-01  -7.6769070e-01   5.9503165e-01   5.1564526e-01  -7.0206058e-01   9.8441007e-01  -2.5424949e-01  -2.8607542e-01  -8.7677870e-01   5.6538366e-01   2.7369996e-01  -9.4523999e-01  -9.0088286e-01  -7.7150335e-01  -5.0509987e-01  -4.4740523e-01   6.6563919e-01  -4.9567376e-01   9.6744634e-01   1.5001145e-01  -4.9180762e-01   7.6669005e-01  -1.3585662e-01  -2.7935480e-01  -6.6652572e-01   2.8830676e-01  -6.0959482e-01  -9.5109309e-01  -6.4951173e-01   6.4450930e-01   4.3635140e-01  -5.5141394e-01   5.2032657e-01   5.4387025e-01  -5.2129856e-01  -1.3927392e-01  -3.1659530e-01   1.5120198e-01   8.2728258e-01  -2.1865933e-01   6.5474535e-01   8.7414011e-01   2.7323960e-02   7.7140222e-01   1.6418403e-01   3.0946853e-01   3.1833044e-01  -6.7442258e-02   9.9904006e-01   4.7764887e-01  -5.7847515e-01  -5.4396226e-02  -8.0971208e-01  -9.3816501e-01  -7.8592103e-01   8.1847620e-01   7.8011514e-01   3.6588129e-01   5.7763401e-01  -1.6351101e-02  -8.6083615e-01   3.4454509e-01  -2.3639898e-01   8.0674540e-01  -6.4057844e-01  -5.5109386e-02  -3.0359383e-01  -4.9047478e-01   1.7249456e-01   4.8509251e-01   2.6916340e-01   2.2591904e-01   1.4846300e-01   3.0131155e-01  -7.6639241e-01  -1.4290082e-01   4.3289418e-01  -5.6729066e-02   1.6714211e-01  -3.5711930e-01   3.5323046e-01   7.7942789e-01  -7.5239759e-01   6.6306739e-01  -9.6728844e-01  -8.4550538e-01  -4.3065490e-01  -8.3225191e-02   6.5669975e-01   9.6339732e-01   8.0702744e-01   7.2153186e-02  -4.5773017e-01  -8.8924020e-01  -9.3771892e-01   8.6648565e-01  -1.6074668e-01  -2.7095769e-01  -5.2476276e-01   9.4099896e-01  -8.4017858e-01   7.1076537e-01   2.1434806e-01   7.5960711e-02  -8.1268579e-01   4.5217731e-01  -6.3151561e-01  -4.0992613e-01  -7.4342081e-01   1.5726084e-01  -1.5772531e-01  -8.5675717e-01  -4.2533198e-01   8.1625969e-01   2.2836677e-01  -5.6134148e-02   3.0874936e-01  -3.9693278e-01   1.4511893e-01   3.2453010e-01  -6.8612121e-01   5.4727561e-01  -9.5659263e-01   2.4185264e-01   8.4969406e-01  -9.5742548e-01   7.2516920e-01   6.0694077e-01  -9.9692970e-01   7.6895480e-01   6.7068776e-01   2.9201577e-01  -7.5677300e-01   5.1208809e-01   3.9670072e-01   7.5919771e-01  -4.1313840e-01  -2.8487878e-01  -3.9378937e-01   1.1392767e-01  -6.8150400e-01  -4.9307837e-01  -7.6610400e-01  -9.4481198e-01   6.6640230e-01  -9.6956737e-01   2.9113018e-01  -3.4981569e-01   1.4215654e-01  -2.1947629e-01  -5.4608939e-01   8.6530348e-01  -5.3251477e-01  -7.6330928e-01   1.6983435e-01   1.2742422e-01  -3.7520314e-01  -9.4856678e-01  -9.2476547e-01  -3.4116937e-01   1.6524688e-01   1.3706136e-01   7.3928971e-01  -6.9925942e-01  -9.3488026e-01  -3.6203632e-01  -1.1495666e-01  -5.2384634e-01   7.7320744e-01   5.9365146e-02   5.2944744e-01  -8.7007827e-01   4.7362636e-01  -7.4095417e-02   2.5582628e-02  -7.8535448e-01   7.4541693e-01  -1.2187454e-01  -6.3289115e-01  -4.7276792e-01   3.8324691e-01   5.8293505e-01  -4.4216200e-01  -2.2899441e-01  -8.3024375e-02  -3.3457026e-01   1.8420523e-01   4.5574311e-01   8.3460814e-01  -2.3869979e-01   7.1175773e-01   8.7981252e-01   2.0585323e-01   9.7776655e-02  -2.5336019e-01   7.4205269e-01  -7.8674739e-01  -2.5577149e-01  -3.5606778e-01  -8.6847596e-01  -9.7092565e-01  -6.7144638e-01  -2.4827198e-01  -7.0984407e-01   6.7756556e-01  -8.0857170e-01  -4.3574762e-01  -1.1533595e-01   1.3508600e-01  -6.0641369e-01  -8.2022036e-01   5.7046955e-02  -3.8337394e-01   7.8950265e-01   8.0539769e-01   6.7823562e-01   5.9559553e-01   4.7260393e-01   7.4110314e-01  -5.1180694e-01   1.5414659e-01  -5.9774645e-01   6.5784322e-01  -9.7952105e-01   4.2828319e-01   6.3158383e-01   2.0704998e-01   2.0002037e-01   7.8999705e-01  -9.5739204e-01   4.9877518e-01   4.9081557e-01   7.6167354e-02   8.8542427e-01   4.3613299e-01  -1.4304364e-01  -8.8593116e-01  -7.0055959e-01   2.7316387e-01  -5.5968992e-01  -8.4469779e-02   9.4284533e-02   9.5022245e-01  -3.1280620e-01   3.4843286e-01   4.9662865e-01  -6.9503495e-01   9.6692624e-01  -5.5587604e-02   1.6721430e-01   8.9079706e-01  -8.8105164e-01  -6.8745176e-01  -9.4140704e-02  -1.9036524e-01  -6.2403481e-01   3.2667791e-01   6.9329621e-01  -7.7560086e-01   2.0765000e-01  -7.2656185e-01  -6.5813213e-01   6.5846551e-01   5.4776834e-01  -2.4436846e-01  -5.3659687e-01  -6.1064708e-01   3.4451107e-03  -8.3027629e-01   2.3790942e-01   8.1811188e-02   8.7245276e-02  -5.7439921e-02   7.0638494e-02  -6.5543392e-01  -5.7116116e-01   6.9970104e-01   5.4751169e-01   6.5902129e-01  -9.0051387e-01  -6.8363797e-01   7.6125153e-01   5.7620631e-01   3.6356659e-02  -7.0642147e-01   3.8694917e-01  -5.9772308e-01   8.8929445e-02   1.8171854e-01  -6.4135446e-01  -4.2130360e-01   6.4556196e-01  -6.3237760e-01  -2.6347609e-01   4.7827468e-01  -2.0905286e-01  -9.3870042e-01   7.0322329e-02   3.6224019e-02   7.2963681e-01  -1.1130925e-01   4.9458361e-01  -2.4929840e-01  -3.9168301e-01  -3.4933058e-02   5.8286654e-01  -3.9760421e-01   3.1957024e-01   9.7548996e-01   8.4060690e-01  -2.8882434e-01   8.0980355e-01   7.3244031e-01  -2.1961793e-01  -6.4377943e-01  -4.6371897e-01   9.2390376e-01   3.3373640e-01  -6.0280277e-01  -3.7174263e-01  -3.3348537e-01   7.2605835e-01  -8.9373142e-01   2.5595182e-01  -6.9876579e-01  -6.0617320e-01   6.5128130e-01  -6.5089403e-01  -5.5833725e-01  -5.7288591e-01   5.1380937e-01   8.6258776e-01   7.4881199e-01  -8.8666242e-01  -2.3946365e-01  -5.3010100e-01  -7.0854386e-01   1.0250298e-01  -5.2336724e-01  -8.0779222e-01  -8.4994947e-01   4.0755020e-01   6.0214407e-01  -3.0278049e-01   5.5777648e-01  -3.1361095e-01  -2.0250931e-02   9.3419983e-01   8.7195397e-01   8.7597648e-01  -5.3589642e-01   5.5566637e-01   7.1673794e-01  -3.1719316e-01   6.0642706e-01   9.9878944e-01   4.7605046e-01  -9.7880897e-01  -9.5500476e-01  -4.2624835e-01   6.3939065e-01  -8.7478351e-01   5.0934600e-01   6.8269712e-01  -8.1986486e-01   8.4883565e-01  -3.5465734e-01   7.9023708e-01  -1.0138934e-01  -9.9668490e-01   5.9842041e-01  -7.5540624e-01   1.5612615e-01  -5.5735354e-01  -7.9438729e-01  -1.4591329e-01  -1.4394553e-02   7.5359809e-01   7.8872568e-01  -4.8332419e-01   9.2946028e-01  -1.1886458e-01   3.5511811e-01  -8.4953928e-02   8.2228802e-02  -3.3130605e-01  -5.1359653e-01  -3.4679083e-01  -9.8154525e-01  -4.8553601e-01   2.6793034e-01   2.5750052e-01   2.2176132e-01  -1.8677179e-02   6.2019686e-01  -9.9021990e-02   9.1650494e-02   1.6550060e-01   6.4648085e-01   2.2688452e-01   1.9032989e-01   8.1327913e-01   5.8960503e-01  -5.2875942e-01   2.6427265e-01   9.8884631e-01  -1.7447429e-01  -8.6003103e-01  -7.8665341e-01  -9.2402481e-01  -5.2146681e-01   6.6301178e-02   1.9437083e-01  -7.4892646e-01  -2.8822779e-01  -6.2681399e-02  -9.1957272e-01  -8.5276335e-01  -5.3254054e-01  -8.1832651e-01  -9.1911770e-01  -5.1115985e-01   2.2460822e-01  -8.5491512e-01  -2.3093552e-01  -4.4155098e-03   5.2463212e-01  -9.8170319e-01   1.6850819e-01   7.6360140e-01   2.4904879e-01   6.1282794e-01  -9.0906252e-01   6.1161402e-01   6.2296708e-02   5.2156967e-01  -9.2735462e-02  -8.6909741e-01  -2.9131209e-01  -8.2649327e-01   3.5067541e-01  -4.7291014e-01  -4.8665140e-01   7.3543423e-01  -2.2949425e-01  -5.2939124e-01   6.7604467e-01   6.9038127e-01   8.8772298e-01  -8.2100257e-01   6.7590062e-02   5.9892406e-01  -9.2418767e-01   3.7738894e-01  -7.2801710e-01   8.7173759e-01   9.2971399e-01   1.4637137e-01   5.7904856e-01   4.2323977e-02   7.1413503e-01   7.1974163e-01   7.9452797e-01   5.5949970e-01   5.7188827e-01   9.2875919e-01   1.8305380e-01   8.4531994e-01   7.9660339e-01  -8.2308650e-02   7.9070188e-01   6.3693312e-01   1.8201666e-01  -3.2692045e-01   8.9965928e-01  -6.5940312e-01   6.9739798e-01  -8.3898968e-01   1.4815102e-01   5.2406571e-01  -7.3011400e-01   8.2920755e-01  -6.6846085e-01   8.4997790e-01   5.8454027e-01  -7.4756586e-01   2.1141334e-01   4.7026606e-01  -9.6155946e-01  -5.8750975e-01   5.8953973e-01  -3.3058125e-01  -8.6471650e-01   8.8882877e-01   8.5505910e-01  -6.3800931e-01  -8.9167633e-01  -1.0044555e-01  -8.4356646e-01  -2.4289068e-01  -6.8224632e-01   2.7627621e-01  -6.9601904e-01   9.5230095e-01  -1.4637058e-02   8.7771050e-01   5.0675398e-01  -8.1376855e-01   5.0212355e-01  -2.2279490e-01   1.7414098e-01   8.0984729e-02   7.8235131e-01   3.8153080e-01   9.1655856e-01   3.3551263e-01  -6.7458401e-01   7.9082640e-01  -5.1423987e-01  -9.0890563e-01  -4.7650404e-01   9.4424960e-01   7.2489260e-01   5.2282943e-01  -2.7689777e-02  -3.2293935e-01  -9.6270965e-01  -8.8644784e-01  -4.6219674e-01  -3.0316088e-01   1.8511906e-04  -9.1103452e-01   4.9770272e-01   2.3046142e-02   8.9403380e-01  -1.8255086e-01  -7.2653740e-01   5.9470885e-01  -5.3835647e-01   4.9574636e-01   9.6592051e-01   3.1177834e-01   6.5648230e-01  -7.8609637e-01   1.7039389e-01   3.3290332e-01  -6.1045178e-02  -6.5170686e-01   8.3357578e-01  -2.1375622e-01  -7.8918345e-01   5.3934349e-01   8.3020181e-02   6.5574930e-01  -1.7271986e-01  -6.7589857e-01   3.2345329e-01   7.6464958e-01   7.1423666e-01  -4.1673712e-01  -5.3720563e-01  -6.8435309e-01   4.0149580e-01  -8.6677307e-01  -4.0017795e-01  -7.1020892e-01  -8.0956113e-01   9.0541181e-01  -3.1570131e-01  -4.5662932e-01   7.9619019e-01  -2.8903942e-01  -7.9701414e-01   5.4359631e-01   7.9683430e-01  -3.6854743e-01   5.2203818e-01   2.0673433e-01  -4.6790751e-01  -4.6643050e-01  -4.1299008e-01  -1.7413893e-01  -8.3266392e-01   7.2912161e-01  -6.0822000e-01   8.2341396e-01   6.4587017e-01  -4.4170047e-01  -7.5981053e-01  -4.8414093e-02  -7.8152761e-01   9.7604632e-01  -7.5914077e-02   1.1851990e-01   9.5726546e-01   1.4743505e-02  -8.3420065e-01  -6.5920224e-01   4.9504642e-02  -1.0289484e-01   1.9107596e-01   7.3380718e-01  -9.3241949e-01   7.8647536e-01   6.8830070e-01   9.0467368e-01  -8.5100780e-01   2.7609882e-01   6.0451495e-01  -6.1308044e-03  -9.0745617e-01  -7.7989195e-02  -5.3347969e-01  -8.1506974e-01   5.4680221e-01  -7.7608184e-01   6.5793632e-02   5.7272079e-02  -6.0395061e-01   1.3382761e-01  -9.3888921e-01  -6.2613067e-01  -7.9803128e-01   8.7768689e-01  -5.0320300e-01  -9.9147690e-01   4.2641289e-01  -6.2710763e-01  -1.6844417e-01   5.3950874e-02   9.2764330e-01  -4.6546742e-01   8.7850563e-03   8.4518583e-01  -9.1708986e-01  -1.5951106e-01  -9.5833207e-01   7.5383130e-01   1.1444566e-01  -4.8073661e-01  -6.1810714e-01  -6.3557144e-01  -6.4085288e-01   1.4493550e-01   5.6882701e-01  -9.1816679e-01  -9.5416627e-01  -4.4862490e-01   2.9501213e-02  -7.4725725e-01  -6.4214965e-01   6.3584964e-02  -1.2607546e-01   8.1323371e-01  -5.0840731e-01   7.4792577e-01  -9.7725433e-01   5.4853307e-01   5.7211043e-01  -9.4257506e-01   8.1484317e-01   5.1080872e-01   4.4207724e-01  -7.7699178e-01   6.9501268e-01   1.4433771e-01  -3.1720025e-02  -4.5467062e-01  -9.2639686e-01   4.5176878e-02  -5.0956985e-01   5.8968718e-02   2.4529915e-01  -3.6848953e-01  -4.1447159e-01   2.3722790e-01   9.3542752e-01  -2.6253034e-01  -9.1432160e-01   7.6680093e-02  -5.3023049e-01  -1.8694777e-01  -4.4879535e-01  -8.7902030e-01  -7.3911593e-01  -1.9856237e-02  -5.9795568e-01   3.1705369e-02  -4.5121093e-01  -4.3336246e-01  -2.8176242e-01   9.8137817e-01  -3.0508708e-01  -3.0885195e-01  -7.2986922e-01   2.3768556e-01   8.2343002e-01   3.6295591e-01   5.6139020e-01   8.9293525e-02  -4.9502489e-01   3.7260296e-01   1.4422731e-01   4.4156852e-01  -3.1560849e-01  -7.7092715e-01  -4.4888100e-01   5.5065645e-01  -1.4893383e-01   9.4892511e-01  -6.0861141e-02   7.2364269e-02  -1.7897665e-01   7.1310160e-01  -3.2124289e-03  -4.8293317e-01  -5.0974957e-01   6.6346973e-01  -9.2532958e-01  -4.3695520e-01  -1.7587906e-01  -2.3149775e-01  -5.3098884e-01   7.6097449e-01  -2.5737264e-01   6.7479784e-01   3.6265244e-01  -3.3567654e-01  -7.5926983e-01  -9.4074991e-01
   9.0804900e-01  -9.1085253e-01  -8.0068871e-01  -5.2908313e-01  -9.5857406e-01  -2.7498370e-01  -8.0060119e-01   3.4495564e-01   1.0388302e-01  -2.6860483e-01  -2.8347599e-01   5.1625249e-01  -6.9011421e-01   9.8281559e-01  -7.1217645e-01  -6.7860301e-01   1.5752955e-01  -5.7064801e-01   9.4937232e-01   4.1901646e-01   6.4819377e-01   1.4424253e-01  -7.0574727e-01  -3.1521135e-01  -5.3557469e-01  -6.9650518e-01  -2.4012844e-01  -2.5201474e-01   5.2145487e-01   2.5815009e-01  -4.0063963e-01  -5.9768802e-02   6.6379200e-01  -8.4489272e-01  -2.8831151e-01  -6.6507847e-01   1.7163296e-01   9.7939661e-01   2.0618714e-01  -3.4328661e-01  -7.8069352e-02  -2.9468260e-01  -5.7549621e-01   9.7538621e-01   8.3120784e-02   7.1487214e-01   9.9207186e-01  -5.5891245e-03   3.8100684e-01   9.2337754e-01  -1.9035033e-01  -5.8110646e-01  -7.8135746e-01  -6.1576106e-01  -1.7108197e-01   3.3753678e-01  -1.2003470e-01   6.1996744e-01   2.7084526e-01  -9.6348946e-01   2.6298662e-01   6.1373703e-01  -1.9373648e-01   1.4117128e-02  -5.2775282e-01   4.8532864e-01  -1.5682103e-01   5.7233994e-01   7.4244991e-01   8.3259028e-01   1.6765958e-01  -2.2946819e-01  -5.6939193e-01   8.8446408e-01   3.2357320e-01  -6.9899874e-01   1.2927003e-01  -4.3645434e-01  -9.2125256e-01   3.1218667e-01   1.1735445e-01  -8.1714991e-01  -1.0268401e-02  -6.5195273e-01  -6.6187352e-01  -8.9665892e-01  -9.8682271e-01   5.3318834e-01   7.5305457e-01  -3.0800440e-01   8.9083148e-01  -3.5891946e-01   7.9263949e-01  -1.0426954e-01  -4.4618226e-01  -1.0391107e-01  -4.8384027e-01   5.1202502e-01  -7.7216277e-01  -3.3464640e-01   2.4274950e-01  -8.8033711e-01   9.1214962e-01  -2.9690393e-02  -7.7144856e-03  -8.2339184e-01  -4.6985373e-01  -9.0148622e-02   7.1765695e-01  -8.5301845e-01  -5.2257155e-01  -6.5888717e-01  -2.4133163e-01  -4.7982593e-01  -5.7764158e-01   5.2989899e-01  -7.8719448e-01  -8.4838815e-01  -3.8660383e-01   8.5192944e-01  -1.3242791e-01  -4.8023411e-01   6.8436407e-01   6.2872759e-01   1.4400363e-01  -3.4881551e-01   9.9914082e-02   5.8475935e-01  -7.8772828e-01  -6.2630542e-02   7.1987955e-01  -3.5456633e-01   9.6198312e-01   7.8468962e-01  -3.1682149e-01   6.6307363e-01  -4.0003783e-01  -9.3667308e-02   4.2819767e-01   4.2947031e-01  -5.5740480e-01   2.8209902e-01  -1.7314460e-01   4.1696515e-01  -2.0408987e-01   1.4214861e-01   9.3142087e-01  -4.2484132e-01  -2.9702663e-02  -2.8759979e-01  -3.5007275e-01  -6.9948048e-01   3.8642927e-01  -8.8510424e-01   8.3651952e-01   4.4116458e-01  -5.9689651e-01  -6.1829431e-02   2.1023935e-01  -8.4484151e-01  -3.1384246e-01   5.3487131e-01   3.0743370e-01   8.2419604e-01  -1.9584424e-01   9.7430450e-01   2.9042784e-01   7.5161407e-01   8.0102351e-01  -4.4597634e-01  -5.4604190e-01  -8.2581025e-01  -9.1919590e-02   3.0998448e-01   3.9552240e-01   1.1408164e-01  -7.4295138e-01  -6.5789817e-01  -5.5838158e-01  -1.6150394e-01  -1.7245930e-01  -4.4800510e-01  -4.8619500e-02   9.8951185e-01   3.5634756e-01  -1.0120425e-01   8.1645209e-02   4.5989649e-01   4.2307977e-01   9.6455470e-01  -4.2874426e-01   6.4579925e-02   4.0668745e-01  -4.4302406e-01  -3.5053615e-01  -9.1007065e-01  -5.3763211e-01   9.8749355e-02   6.1423330e-01  -5.9318217e-01  -7.3957895e-01   7.4265191e-02   3.8376327e-01  -2.3874853e-01   8.0744941e-01   7.8223163e-01  -4.1876416e-02  -1.9721946e-01   7.5437654e-01  -2.3373037e-01  -4.7734682e-01  -2.5305662e-01   8.9916286e-01   5.5602204e-01  -7.9622817e-03  -1.8917158e-01  -5.8024644e-01  -1.2605063e-01  -7.0664505e-01   3.1657935e-01  -6.5983365e-01   5.7622537e-01  -6.4100763e-01   5.2250979e-01  -6.7897955e-01   4.7972016e-01   7.3052670e-01   3.9729840e-01   3.2735856e-01   8.8495731e-01   6.5762452e-01   9.3926195e-01  -2.6273853e-01  -8.7379130e-03   2.3555976e-01  -8.2100580e-01   5.1026140e-01   9.9861232e-01  -4.5410076e-01  -8.0008375e-01  -2.7563472e-02  -9.8439288e-01   1.4930349e-01  -2.6044787e-01   7.7259207e-02  -8.0669462e-01   1.2037541e-01   1.0956511e-01   6.0286057e-01   5.2562558e-01   3.7011878e-01   8.6136524e-01   5.0186070e-01   1.6716876e-01  -7.9273802e-01   6.3475389e-01   5.6828894e-01   3.0274856e-01   7.6260563e-01   6.2196503e-01   3.2521782e-02   2.6014289e-01  -5.7767966e-02  -2.9207631e-01   3.3218987e-01   4.2380981e-01  -9.5144102e-01  -9.7852401e-01  -3.2771135e-01  -8.2749260e-01  -4.1318144e-01  -3.4171788e-03  -1.2599438e-01  -3.5578539e-01  -5.9067878e-01   5.7994796e-01  -1.2767224e-02   7.6111275e-01  -8.1246111e-01  -3.4304517e-01   5.5730703e-01  -6.1235149e-01   4.3403697e-01   1.5145890e-01  -7.5744100e-01   1.0850219e-01  -7.8280221e-01  -2.0526946e-01  -4.3879601e-01  -6.8267555e-01   8.4638123e-01  -3.1752098e-01  -8.1891077e-01   9.0288673e-01   9.5239195e-01  -8.1378782e-01   9.4410994e-01   2.0080172e-01  -7.4770034e-01   7.5930206e-01   3.6616595e-02  -6.8928225e-01   8.7486017e-01   2.5166407e-01   8.5018370e-01  -9.9375306e-01   8.2895823e-01   8.4489157e-01   7.4457940e-01   1.7449486e-01  -4.0180370e-02   2.7211068e-01  -8.4434021e-01  -3.8407165e-01  -2.6587175e-01   4.0889067e-01  -4.9996731e-01   3.4850495e-02   4.2069718e-01  -1.6065065e-01   3.7778284e-01   1.1243088e-01   6.0556490e-01   7.1674212e-01  -2.1837150e-01   7.4435043e-01   5.9274640e-01  -2.4918633e-01   8.3897209e-01   8.2358897e-01  -3.7900633e-01  -7.6227325e-01  -4.7188018e-01  -2.8301591e-01   7.9160299e-02   1.0117557e-01   9.7647324e-01  -6.6452221e-01   3.7177267e-01  -4.9017943e-01  -3.4567768e-01   5.0677146e-02   9.5093847e-01   8.7408406e-01   2.8872425e-01   8.3902965e-01  -2.1558773e-01  -2.4926908e-01  -1.8954758e-01   2.2514308e-01   2.2467976e-01   1.8994288e-01   4.0634818e-01  -1.6327747e-01  -7.5521140e-02   4.3594337e-01  -9.2543061e-01   9.1691676e-01   2.6870907e-01   8.5149468e-01   2.4254445e-01  -6.2093923e-01  -2.1326470e-01   5.6859155e-01   6.9325676e-01  -2.0406283e-01   6.7163072e-01  -6.7176544e-01   1.6745230e-01  -7.7153811e-02  -7.3881201e-01   3.5195939e-01  -5.7262206e-01  -1.2991807e-01  -8.2371046e-01  -3.7537321e-01  -2.3751116e-01   3.6027445e-02  -5.1590299e-01  -7.2883930e-01   9.0204098e-02  -6.6684534e-01   6.5058351e-01   3.2268420e-01   4.5218069e-01   9.2274233e-01   9.7906845e-01  -3.9427918e-02  -2.9371756e-01   5.2042836e-01   6.3162241e-01   9.6691957e-01   6.8703732e-01   3.7021951e-01   6.6547453e-01  -6.0247249e-01   6.8659774e-01   2.5639277e-01   2.4261095e-01   9.5664227e-01   1.9220012e-01  -1.0590818e-01  -8.0881677e-01   1.7125491e-01   4.3916088e-01  -9.8987144e-01  -2.2388432e-02  -9.1509479e-01  -9.1111090e-01   5.7247278e-01  -1.5211258e-01  -6.5910012e-01  -8.5519136e-01  -9.8023475e-01  -8.7417282e-01  -4.7230660e-01  -8.3672051e-01  -4.1507034e-01   9.0036818e-01   9.3215862e-01   9.8735377e-01   7.8857378e-01  -5.8029640e-01   1.7471522e-01  -1.0247053e-01  -2.3270712e-01  -4.1003216e-01   4.0239807e-02   7.4905181e-01   9.1873856e-01  -6.9632333e-01  -1.0335888e-01   5.9334533e-01   5.8662303e-01  -8.6833846e-02  -3.7646371e-01   9.6238614e-01   5.8142765e-01  -5.7156048e-01  -9.9413934e-01   5.7132965e-01   2.6181942e-01   7.2183193e-01  -7.4019485e-01   4.9203811e-01   6.1662756e-01  -2.0819419e-01   9.0006203e-01  -3.4049436e-02  -3.7675739e-01   7.4754861e-01   9.0234386e-01   3.8652251e-01   3.0194636e-01   3.3833008e-01  -3.3696579e-01  -1.7736421e-02   4.7306170e-01   9.6370689e-01  -3.2044641e-01   6.8800134e-01   5.9244671e-01  -8.2392683e-01   6.4681017e-01   3.6415867e-01   1.8946692e-01  -8.6717081e-01  -1.8272829e-01   5.6111193e-01  -9.9858897e-01  -9.3925027e-01  -6.9462960e-01  -8.4405970e-01  -3.8005774e-01   7.0809947e-02   9.3800176e-01  -8.7180743e-01  -6.3877359e-02  -4.4537645e-01   5.7143606e-01   1.0781463e-02   3.1191602e-01   2.6522887e-01  -8.9586058e-01   1.2519948e-01   1.3445929e-01  -5.7118282e-01  -1.2944315e-01   1.1390911e-02   6.9879618e-01  -4.9142294e-01   8.5393563e-01  -4.5026248e-01  -6.6032017e-01  -6.3194262e-01  -5.7641378e-01   1.0845990e-01  -9.0482767e-03  -6.4124293e-01   4.9823040e-02   7.6897925e-01   7.6400575e-01  -1.0650447e-02  -5.8899384e-02   1.2171086e-01  -4.7725368e-02  -7.3671572e-01   9.4583483e-01   8.8591092e-01  -6.0856594e-01  -7.8078235e-01   1.5340297e-01  -6.7065947e-01   2.3848042e-01   6.4231301e-01  -1.2907980e-01  -9.1177625e-01   6.1864958e-01  -9.7546287e-01   3.3158393e-01   4.6328949e-01   3.1571745e-01  -8.8495117e-01   2.6794146e-01   5.8086918e-01   6.5970059e-01  -3.7456737e-01   5.0839029e-01  -5.1554337e-01  -3.0667617e-01   2.8547460e-01   9.5166877e-01   8.7504135e-01   6.1923672e-01   8.8813624e-01   4.8243521e-01   2.0279618e-01  -3.8021908e-01   8.1123616e-01  -5.7185252e-01  -7.2301618e-01   5.9952669e-01  -8.8976357e-01  -5.5445473e-01  -8.1044037e-02   5.4325769e-01   8.8300047e-02   7.2789015e-01  -9.5170229e-01  -9.8693171e-01   3.1495698e-01   6.5383943e-01  -7.4835708e-02  -2.2525781e-01  -6.9975983e-01   7.7481697e-02  -4.6272451e-01   6.2311178e-01  -6.5529377e-01  -1.2760458e-01   6.4477370e-01   2.0998630e-01  -1.9723956e-01  -5.6918813e-01  -2.3706328e-01  -2.5622436e-01   4.5979571e-01   9.4626853e-01  -5.0468964e-01   5.0245153e-03   6.1132211e-01  -3.3583646e-01   8.7056583e-01   6.8494733e-01  -1.2585163e-01  -1.0744886e-01   1.0601610e-01   7.0239648e-01   3.6014428e-01   5.2366956e-01  -9.3700146e-01  -3.5409116e-01   1.8273998e-01  -5.6664333e-01  -3.8338243e-01   4.3731594e-01   6.5089776e-01  -1.9526579e-01   7.5335487e-01   8.5600147e-01  -8.2795923e-01   1.1891750e-01  -4.3854203e-01  -3.2019257e-02  -7.9882488e-02  -3.0430494e-01  -6.2584460e-01  -4.3021916e-01  -8.5923799e-02  -4.0349510e-02  -8.6485510e-01   2.8535783e-01  -9.3086793e-01   1.6194884e-01  -4.9806687e-01  -8.3724271e-01  -3.1325243e-01  -6.4430604e-01  -4.2718844e-02  -2.4030607e-01   3.9065715e-01   3.3602904e-02   9.1112801e-01  -7.6829453e-01  -4.3959099e-01  -3.2824265e-01  -2.6044712e-02  -8.5891002e-01   6.1942782e-01  -7.2365337e-02   3.8262824e-01  -6.4658998e-01   3.0577352e-01  -1.8140308e-01  -7.3991166e-02   4.1464797e-01   1.5861857e-01  -7.2987536e-02   4.3536351e-02   6.1035524e-01  -9.5899963e-01  -6.3261604e-01  -5.9015302e-01  -1.1757502e-01   3.5681386e-01   3.7807913e-01   6.8734163e-01   2.3798040e-01   5.4375040e-01   2.0080671e-01   6.5850274e-01   3.2550113e-01   1.8157497e-01   2.2331509e-01   7.8469740e-01  -4.0988475e-01  -8.1558432e-01   7.2356041e-01   6.1598029e-01   7.7441356e-01  -1.0304993e-01  -5.7153887e-01   1.1331685e-01  -9.3894800e-01  -9.5029037e-01   2.2271395e-01   5.0525105e-01  -2.7063340e-01  -4.3055059e-01  -3.4536643e-01  -3.2399251e-01  -8.3218377e-01   6.7213349e-01  -9.3739372e-01  -9.7917223e-02   5.5886051e-01  -6.6580946e-01   8.5704031e-02   9.7923442e-01  -4.1830583e-01   8.6306097e-01  -9.2232883e-01   5.4534560e-01   3.1586800e-01   5.0570386e-01   4.8362574e-01   2.3437273e-01  -3.3189328e-01  -3.7653640e-01   6.9515040e-01  -2.3565790e-01   4.9019858e-01  -4.1709061e-01  -3.5495772e-01   3.2727810e-01  -2.3170339e-01  -2.9431131e-01  -7.3588517e-02  -7.3756672e-01  -7.7904923e-01  -2.1142513e-01  -8.3114137e-01  -9.0312520e-01   8.2306452e-01   9.3497779e-01  -9.2906883e-01  -9.6014592e-01  -7.5362990e-01  -4.2227268e-01   5.5395008e-01  -1.4593255e-02   4.9237982e-01   7.4288354e-01  -6.3096762e-01   7.4285940e-01  -8.9641886e-01   1.0422805e-01  -9.6968019e-01  -8.5563968e-01  -2.9758902e-01   5.3802495e-01   8.8367573e-01   3.3866670e-01   9.5107864e-01  -3.6365575e-01   4.8605765e-02   3.9014643e-02  -4.4480619e-01   1.2157215e-01  -7.6603141e-01  -6.8087962e-01   5.2290423e-01  -7.3364004e-01  -7.7617332e-01  -6.5128085e-01   5.4237280e-01   6.7301875e-01   7.8957806e-01  -6.2523481e-01  -7.3810755e-01  -7.9265238e-01   2.3471205e-01  -5.7663529e-01   4.4673474e-01  -7.1835889e-02   5.1007488e-01   6.9529699e-01  -6.7491983e-01  -8.4688196e-01   5.1344009e-02  -5.7291643e-01   6.9978485e-02  -1.3313870e-01   2.1347510e-01   3.3097882e-01   6.7723607e-01   2.4473277e-01   8.4073621e-01   2.3064701e-02  -4.8755632e-01  -6.7194088e-01   7.2894998e-01   9.2539295e-01   8.7882596e-01   9.8589892e-01   4.5012175e-01   7.1024889e-01   2.1607693e-01  -7.2696854e-01  -8.5388341e-01  -7.7701666e-01  -3.7234916e-01  -4.5733945e-02  -8.3436781e-01   4.2792509e-02  -8.1861609e-01   7.7878304e-03   3.5594335e-01  -4.4177497e-01  -2.8475081e-01   3.3252598e-01   4.5241771e-01   5.2336077e-01   6.1748500e-01  -1.2531781e-01   5.0734422e-01   1.4945655e-01   6.4384884e-01   8.5692693e-01  -6.3601314e-01  -6.7845256e-01  -4.7078535e-03  -9.1583288e-02   3.9765126e-01  -8.4564817e-01  -9.5310544e-01  -3.4888357e-01  -4.5538628e-01   9.6315422e-01   4.4358270e-01  -1.2144728e-01   8.4510138e-01  -6.2523613e-01   9.0004567e-01   4.3333876e-01  -1.0828319e-01  -7.6672808e-01  -8.4924348e-01   9.4222405e-01   7.4688196e-01   8.8451664e-01  -8.4879879e-01  -3.9584181e-01   4.9512805e-01   1.8723151e-01   2.8696760e-02   4.5631779e-01  -6.4254397e-01   7.9180754e-01   6.3954731e-01  -6.9479971e-01  -1.5119285e-01   8.3406615e-01  -6.3597301e-01   6.0107908e-02   2.1545546e-01  -4.9152461e-01  -5.3617777e-01  -7.6032886e-01   8.8040950e-01  -9.5449885e-01  -4.4989889e-01  -8.7133825e-01  -6.5597777e-01   3.3708797e-01   1.0895721e-01  -4.0147778e-01   5.2094829e-01  -5.7224673e-01   7.0885372e-01  -8.6399132e-01  -9.2167990e-01  -6.2057163e-01  -4.7947612e-01  -6.3237926e-01   2.2619968e-01  -1.2095230e-01  -3.3588770e-01   6.4567608e-01  -4.9675054e-01   3.8529638e-01   9.9057733e-01  -2.9279528e-01  -3.4548646e-01  -7.1599609e-01  -2.1401566e-01   6.2282696e-01  -4.9786727e-01   5.8300520e-01   4.5165084e-01   8.7088196e-01  -6.1478600e-01   9.4541016e-01  -6.6742162e-01   4.1530149e-01   3.9108613e-01  -9.2127925e-01  -5.4570604e-01  -2.2806510e-01  -9.7260730e-01  -7.0051430e-01   4.7130278e-01  -3.1084470e-01  -1.1777939e-02   1.9507612e-02  -1.0513340e-01  -2.3767631e-01   5.9017840e-01   6.9843105e-02  -1.4851242e-01  -2.8434095e-01  -4.9945519e-01  -2.1159968e-01  -3.5310774e-02   7.2161076e-02  -2.6229556e-01   7.5195648e-01   1.3783165e-01  -6.9438693e-01  -5.3671359e-01   2.3294381e-01  -3.1479148e-01   1.0727003e-01   7.5231104e-01   7.9793158e-02   6.6025657e-01  -2.5235142e-01  -1.8013193e-01  -8.1275867e-01   2.1966442e-01   8.0926940e-02  -4.5641486e-01  -8.2996561e-01  -5.2084965e-01  -2.3802969e-01  -8.6729030e-02  -2.8457470e-01  -4.5409794e-01  -1.0466433e-01   3.7810875e-01   1.2479000e-01   7.2573640e-01  -8.4860560e-01  -1.9008415e-01  -3.3604179e-01  -7.5759625e-01   2.8637304e-01   9.8138902e-01  -1.1998260e-01   9.2090945e-01   2.1567104e-01  -2.6867792e-01  -8.1513277e-01   6.4322173e-01   2.6229429e-01  -3.1423931e-01   9.4608829e-01   3.0781962e-01  -3.3666221e-01   2.0753450e-01  -7.1748551e-02  -2.2129755e-02  -2.4120216e-01  -3.7986680e-01  -2.9087175e-01   4.4343871e-01   6.6906490e-01   2.6376935e-01  -6.8663143e-01  -5.8008399e-01   9.8206245e-01  -8.7154704e-01  -3.6579528e-02   6.2304072e-01   5.4226291e-01  -4.4772667e-01   8.7210279e-01  -7.8953775e-01   4.4659670e-01  -9.2365133e-01  -7.0470597e-01  -5.2492515e-01  -6.2533955e-01   4.1608209e-01   3.9589305e-01   9.4891744e-01  -1.9230199e-01  -1.1707634e-01  -2.6940673e-01   7.6849023e-01   4.8600700e-01  -8.1878370e-01  -6.9478699e-01   3.8969516e-01  -2.7041853e-02   2.2318715e-01  -2.9915109e-01   5.6575821e-01   9.3664891e-01   3.4141129e-01   5.4776765e-01  -8.0512947e-01   3.5448259e-01   1.0886179e-01  -9.8508784e-01   1.2528023e-01   3.4022045e-02   3.6123679e-01  -8.8573169e-01   1.4122573e-01  -7.8452450e-01   3.3653684e-02   8.9999601e-01   2.1855598e-01  -3.3813772e-01  -2.9243505e-01  -3.6629243e-01   6.7681133e-03  -7.5929031e-01  -5.0659725e-01  -3.3856611e-01   7.2386546e-01   5.9822404e-01  -2.4573290e-01   1.3871204e-01  -3.5879628e-01  -9.8427479e-01  -4.5475066e-02  -5.3481038e-01  -6.4695873e-01  -3.9800983e-01  -2.2706945e-01   6.7394995e-01  -5.5259285e-01   5.5069302e-01   1.0191074e-01   1.4871920e-01   5.1231805e-01   4.2937712e-01   2.1878288e-01
