   2.0765136e-01  -8.5409648e-01   8.0243899e-01  -6.5191035e-01   1.4618085e-01   8.8528556e-01   6.2788727e-01  -3.4950830e-01   5.6891042e-01  -3.8550969e-01  -3.4800968e-01   3.7661503e-01   1.6423724e-01  -2.1178223e-01  -3.7837732e-01   6.3829359e-02   9.0141217e-01  -8.4503896e-01  -4.8918491e-01   8.2265402e-01  -3.3261111e-01  -9.7550484e-01  -7.6258812e-01   3.8136523e-01   5.7666065e-02   8.5595899e-01   7.0321378e-01   3.9607023e-01  -2.6168669e-01  -9.7371480e-01  -2.4847400e-01  -5.6957317e-01   6.9113083e-01   9.0753160e-01  -9.3851191e-02  -2.3048388e-01   4.7899844e-01  -5.5076794e-01   7.1843501e-01   5.3203453e-01  -4.8543507e-01   1.6526000e-01  -4.4858954e-01  -4.5733227e-01  -3.2860540e-01  -8.8632110e-02   5.3532070e-02   1.1304935e-01  -9.6413584e-01   1.3300398e-01  -8.6077848e-02   7.1687879e-01  -5.8459512e-02  -5.7952859e-01  -7.6626363e-01   1.5828769e-01  -6.3565221e-01   5.3389252e-01   2.3933982e-01   4.9236584e-01   1.8733855e-01   3.6407569e-01  -4.8102706e-01  -2.7916691e-01   1.6189776e-01  -9.8739811e-01   9.3187818e-02   2.2689785e-01  -1.4210167e-01  -8.1170026e-01   3.3450839e-01  -5.7856567e-01  -8.1012070e-01   2.7819683e-01  -8.3101449e-01  -8.1231590e-01   6.9765090e-01   7.5742028e-01  -4.9158592e-01  -9.1226359e-01   5.0333748e-02   2.6838031e-01   4.4402660e-01   3.8989938e-01   1.7289986e-02  -3.3958112e-02   7.4651459e-01   2.0058157e-01  -1.3579426e-01  -8.1633952e-01   1.9295585e-01  -5.9782719e-01  -2.5471274e-01   5.6351769e-01  -4.3296398e-01   7.1239397e-01   1.8654362e-01   5.3432198e-01   2.0810264e-01  -1.4641877e-01   9.2873486e-01  -9.1522658e-01   5.9141546e-01  -2.4634936e-01  -7.2488941e-01   2.8504210e-01   6.6054159e-01   7.6962115e-01  -4.9856984e-01  -6.9954778e-01  -8.3575277e-01  -8.0630953e-01   8.5083775e-01  -1.8556279e-02  -5.9376936e-01   2.5019344e-01   5.1680502e-01   7.8071821e-01  -7.9660957e-01   1.0543308e-01   5.0188637e-01   3.6513785e-01  -7.0463667e-01  -7.9539718e-01  -5.1852595e-01  -5.9922427e-01   1.3321198e-01  -2.2585359e-01   6.7919903e-01  -7.8024588e-01  -5.5204204e-01  -9.4855671e-01  -6.7458330e-01  -5.4833682e-01   7.1973063e-01  -8.7891975e-01   8.3509344e-01  -3.2273685e-01   8.7882339e-01  -8.9233415e-01  -7.5409496e-01  -4.1932856e-01   6.9172873e-01  -8.2637516e-01  -8.5183162e-01   7.9234171e-01   5.9752471e-01   6.3029034e-01   5.2799140e-01   2.1613521e-01   1.0423280e-01   4.9283494e-01  -1.6350905e-01  -5.8073875e-01  -3.7055540e-01  -6.1005351e-02   6.3754827e-01  -9.7106790e-01  -7.1681805e-01   7.1653816e-01   7.6885427e-01   9.8189555e-01  -3.4374238e-02  -7.8458497e-01   2.3379390e-01   8.8147313e-01   2.8896091e-01   5.6646951e-01   3.9859838e-01  -6.7409802e-01   5.9625498e-01   5.9052339e-01   7.7280591e-01  -1.3582954e-01   7.7331962e-01   4.3727808e-01  -5.7424445e-01   7.7864403e-01  -4.7489251e-01  -6.4712313e-01  -4.5539452e-01  -1.7558414e-01  -1.9036448e-01  -7.2785966e-01  -5.3644936e-01   6.1971088e-01   2.0169215e-01   3.1645840e-01  -7.6339063e-01  -2.5710881e-01  -4.6886563e-01  -7.9458806e-01  -8.2489620e-01   5.6594195e-01  -9.4144503e-01  -2.2686047e-02  -9.3728410e-01  -7.8282855e-01  -6.4654051e-01   8.0101313e-01  -5.5912778e-01   4.3670736e-01   1.3931949e-01  -5.2447786e-01  -3.8647025e-01   2.2201256e-01   9.9530863e-01   6.9307355e-01  -2.0116785e-01   7.3635809e-01  -7.7276990e-01  -4.1069541e-01   9.3019106e-01  -2.6386096e-01  -4.7988485e-02  -7.8184236e-01  -6.5772245e-01  -5.0848542e-01   1.3324121e-01   3.1243492e-01  -3.8919039e-01  -4.3449622e-01   7.0309380e-01  -2.8604693e-01  -3.7667005e-01  -4.8119751e-01   1.8360776e-01  -7.2286518e-01   9.4972113e-01   3.3793299e-01  -3.3858252e-01  -5.1918260e-01  -5.7049905e-01   9.7083978e-01  -7.9144910e-01   9.8532427e-02  -2.3294984e-01  -9.1951826e-01  -1.1983827e-01   5.3225120e-01   2.5418319e-01  -7.0122493e-01   6.9232726e-01  -5.6933905e-02  -9.6809381e-01  -8.3143119e-01  -5.8546520e-01   9.3928741e-01   8.1819438e-01   2.2329099e-01   4.2349510e-01   8.5619460e-01  -5.9987564e-01  -4.3369022e-01  -9.8822096e-01  -7.4699667e-01  -7.1168251e-01  -7.8495565e-01   3.6504985e-01   5.9251590e-01  -2.7195625e-02  -9.0860436e-02  -3.8408946e-01   7.1253638e-01   2.5261499e-01   4.2628800e-01  -6.4203958e-01   4.1294233e-02  -2.2320534e-01   9.0257340e-01   2.3897335e-01  -7.7639802e-01  -7.8551471e-01   7.7949082e-01   8.5733916e-01   7.7999758e-01  -8.7760805e-01   4.3074486e-01   2.7821622e-01  -5.2205097e-01   7.2889898e-01  -7.0279539e-02   6.2553949e-01   1.6521411e-01   5.4252582e-01  -5.4459402e-01  -5.6556866e-01   2.6065909e-01   5.9283567e-01  -8.8359481e-01  -7.3442539e-01  -9.5301396e-01  -6.8593771e-01   8.7357308e-01  -9.0134961e-01   6.9299513e-02  -7.3546310e-01   3.3364255e-01   5.7698693e-01  -7.4643463e-01  -5.0570101e-03  -8.5139530e-01   4.3751361e-01   5.3163555e-01  -5.0967708e-01   3.8548201e-01   6.2232016e-01   5.7725297e-01  -3.0349438e-01   4.9897627e-01  -5.2904380e-01   5.4300167e-01   7.4696658e-01  -2.1002003e-01  -1.2682654e-01  -4.2649980e-01  -9.0827092e-01  -7.8416277e-01   4.1158957e-01   6.8544144e-01  -2.0902025e-01   1.6998188e-01  -7.7021530e-01   5.2046101e-01  -5.3759907e-01   5.1887588e-01  -4.6387078e-01  -2.2907057e-01   3.0484504e-01  -9.7231999e-01  -5.9226460e-01   8.3044473e-01  -4.3198873e-01   7.1415440e-01  -1.2488842e-01  -3.8695180e-01   2.0146376e-01  -7.0414800e-01   4.3446437e-01   3.6742976e-01  -9.2909781e-01   1.4140162e-01   1.5637394e-01  -3.3283524e-01   4.4810612e-01  -7.7053822e-01   7.1507039e-01  -9.5330516e-01  -5.0773977e-01  -6.8503983e-01   6.3247566e-01   8.1449760e-01   7.3205662e-01  -8.5772099e-01   9.4586464e-01  -7.0989473e-01  -7.9200325e-01   9.4084007e-01   1.6027593e-01  -5.7726290e-01   7.3359933e-01   4.7388216e-01  -9.1777689e-01   6.5839156e-01  -3.7692418e-01  -1.7130907e-01   9.7657078e-01   5.3800318e-01   8.0029149e-01   4.0476625e-01  -7.0289581e-01   6.5387676e-01  -6.7582327e-01   6.2166614e-01   6.0548685e-01   5.5111879e-02  -2.3255217e-01  -2.1640517e-01  -3.0666775e-01   2.3699133e-01  -4.0476151e-02  -8.4854756e-01  -4.6122860e-03   7.5239481e-01   5.9731518e-01  -4.2520341e-01  -6.3994956e-01   3.6117978e-01  -5.0480495e-01  -1.8509599e-01   2.1189843e-02   5.1895631e-01   7.9480839e-01   1.0915153e-01  -7.9085035e-01   9.9690628e-01   8.1741178e-01   9.4075717e-03   1.6574279e-01   6.4403160e-01  -1.3788731e-01  -5.5048920e-02  -6.5594363e-01  -3.6294994e-01  -9.6927562e-01  -1.2995477e-01   6.7487845e-01   3.3730158e-01   3.2107429e-01  -6.9770044e-01  -5.7491893e-01  -3.8102050e-02   7.5493771e-01  -5.4571884e-01  -3.7775329e-01  -8.1763731e-01   5.4263469e-02  -4.0893744e-01   7.9450054e-02  -6.0731899e-01  -8.0751815e-01  -7.0385841e-02  -6.7228396e-01   9.5913757e-02   8.6117866e-01   9.8524238e-01   6.0126805e-01   1.7949432e-01   6.5683740e-01  -8.6124009e-01   2.2437762e-01  -5.1374163e-01   2.9341836e-01   1.6077553e-01  -4.0631828e-01  -3.4356759e-01   6.7360127e-02   4.7237476e-01  -5.7003122e-01  -4.7951075e-01   5.9366110e-01  -2.8218858e-01  -2.0193545e-01  -3.2706427e-02   2.1347038e-01  -8.5128827e-01   9.0837977e-02  -2.1143562e-01  -5.0770324e-01  -1.5941188e-01  -4.6557407e-01   3.6756047e-01  -6.9006394e-01  -2.7803807e-01  -1.0984977e-01  -8.0307801e-01   5.0958325e-01   6.1507009e-01   2.8521000e-01   3.9153077e-01   6.2816250e-01   3.7094785e-01   9.3289179e-01   3.4462419e-01  -9.3471038e-01   2.3742396e-01  -1.5797267e-01  -8.4669087e-01  -3.7088180e-01   8.0869541e-01  -3.6327990e-01   6.5291787e-01  -8.7467537e-01  -1.5539098e-01  -5.0593856e-01   8.2543279e-01   3.3015766e-01  -3.6507057e-01  -3.1130297e-01   6.8152265e-01   2.4619493e-01   2.8103676e-01   4.1180371e-01  -7.8646626e-02  -6.2404518e-02  -7.7836054e-02   2.6549270e-01   8.9438332e-01  -5.3229222e-01  -3.8480611e-01   9.4102997e-01   6.5663426e-02   5.9640330e-01  -1.1054419e-01  -5.2855593e-01  -2.3660960e-01  -3.2854108e-01  -5.0849924e-01  -7.9761924e-01  -7.8893730e-01   1.8431033e-01  -6.8271720e-02   6.5690909e-03  -6.4335794e-02   1.6978308e-01  -6.0179167e-01  -3.7927986e-01  -3.2648203e-01   7.2436533e-01  -3.3557415e-01   5.5886582e-01   1.2250131e-02  -5.8269269e-01  -8.2022308e-01   2.7676160e-01   6.2613093e-01   7.3276948e-02  -3.6391041e-01   6.0365199e-01  -1.2235654e-01   1.9832737e-02   2.4052589e-01   3.1952983e-01   6.1453161e-01   9.2732813e-02  -3.9017881e-01  -5.6994681e-01   5.0777931e-01   3.3083072e-01   7.3983745e-01   8.3188315e-01  -7.4095969e-01  -2.2904357e-01   4.4613067e-01   8.3560573e-01   2.5126608e-01   7.9273047e-01   2.5362441e-02   6.2258888e-01   2.1384319e-02   6.5885314e-01   9.6851957e-01   3.4311186e-01   7.3114409e-01  -4.0046665e-01   7.9089308e-01  -8.6075885e-01   4.0483031e-01   9.9525650e-01   7.0488867e-01   8.2324062e-01   3.1461903e-01   8.6320181e-01   2.5002599e-01   9.7997661e-01  -9.9290055e-01  -5.6764238e-01   8.9842564e-01   3.7885214e-01   5.5900416e-01   6.7661151e-01  -9.3066955e-01  -7.9764414e-01  -2.2967527e-01   1.3935094e-02   8.5873227e-01  -5.9257333e-01   7.5439574e-02  -4.1101061e-01   2.4433336e-01  -6.9822959e-01  -8.6969755e-01   8.4047179e-01   9.8249843e-01  -9.8377255e-01   3.7322189e-01  -5.7219418e-01   2.5078001e-01   7.3866732e-02   3.5143119e-01   2.5613731e-02  -4.2887023e-02   1.2408556e-01  -6.5905667e-01  -7.6645208e-01   3.1230479e-01   1.0594976e-01  -4.2396278e-01   1.5966166e-01   9.0598372e-01  -2.9031041e-02   3.6915056e-01  -5.7386052e-01   8.1665807e-01   5.1104703e-01  -2.7658564e-01   3.0448011e-01  -5.9937417e-01  -4.9375471e-01  -7.7452126e-01   4.4092421e-01  -4.9956558e-01   9.2686813e-01  -3.8178990e-01  -1.1164790e-01  -8.2872751e-01  -1.3093897e-01  -4.8744788e-01   4.3478912e-01  -5.8922459e-01  -5.5091927e-02  -1.9519056e-01   3.3248703e-02   6.0645741e-01   2.2494106e-01  -4.6165470e-01  -2.6198401e-01  -2.5112936e-01  -7.6818202e-01   1.2849311e-01   2.0323963e-01  -3.0609379e-01   4.8780127e-01   9.1600214e-01  -2.9714373e-01   1.5527630e-01  -3.2464198e-01   3.0727954e-01  -3.4857177e-01  -6.2685732e-01  -7.2488031e-01  -3.0793610e-01   6.7490280e-01   8.7724529e-01   4.4423241e-01  -4.1686846e-01  -3.1129373e-01  -8.1798737e-01   2.7231199e-01   1.0186814e-02  -8.0786839e-01   2.9176572e-01  -3.1983678e-01  -4.8083772e-01   3.5410693e-02  -1.4046063e-01  -2.7126617e-01  -3.3410901e-01  -4.9797287e-01  -7.4628488e-01   5.3106385e-01   7.9082018e-01  -8.7452311e-01   2.8293393e-01  -6.1965333e-01   8.7439468e-01  -1.1925561e-02  -6.0682320e-01  -4.7243178e-01  -4.0988641e-01   7.0845623e-01   9.4437769e-01   9.7482909e-01   8.4717731e-01   9.7211531e-01   5.1207940e-01   5.3075429e-01  -4.1017290e-01   2.3630395e-01   3.7349587e-01   8.3073871e-01  -1.8746097e-01  -8.0754644e-01  -1.5669613e-01   3.2936353e-01   6.2200038e-04  -7.5983378e-01  -9.3680712e-01   7.4321423e-01   4.7369452e-02  -8.7951690e-01  -5.4419806e-01  -4.9717054e-01   2.0658971e-01   6.1349402e-01   4.6386043e-01   2.5712510e-01  -2.5242582e-01  -6.6251499e-01   4.3121473e-02  -9.1104203e-01  -2.5301778e-01   2.8444290e-01  -4.8719034e-01  -7.6623192e-02  -1.9356317e-01   3.3569819e-01  -3.0515402e-01  -7.6229599e-01  -7.9566100e-01   5.5226036e-02   5.6723347e-01   4.3054767e-02   7.9537857e-01  -1.1588399e-01  -7.6325801e-01  -9.3935609e-01  -7.1613190e-02  -3.6362378e-01   3.8323160e-01  -2.8409042e-01   5.4609084e-01   7.4333637e-01   1.8748839e-01  -3.8122856e-01  -5.4537732e-01   4.3426187e-02  -5.6102504e-01   4.6773682e-01  -2.3062804e-01   5.1886732e-01   6.7419468e-01  -8.5574896e-01   8.8844259e-01  -9.6266682e-01   5.4530176e-01   9.7081672e-01   9.4350262e-01  -5.6032669e-01  -4.8921331e-01   5.0450506e-01   4.5595808e-01  -7.6267506e-01   3.1877305e-01   7.9699106e-01   5.2051977e-01   8.2667465e-02   6.0970623e-01  -7.7195898e-01  -9.1312399e-01  -6.8120175e-01   2.2289042e-01  -2.0020937e-01  -3.6916984e-01  -9.3133857e-01   9.4604230e-01   4.4888994e-01  -7.1917380e-01   4.5114703e-01   4.8142310e-02  -6.8159871e-01   6.5095470e-01   6.8418493e-01  -8.2367161e-01  -4.5536409e-01   9.4409887e-02   8.7223829e-01   1.7872737e-01   3.9021021e-01  -7.9142456e-01  -1.9183511e-01   6.3042861e-01  -4.5221938e-01   7.4495495e-01   7.0782321e-01   9.3716835e-01  -3.9886217e-01  -4.2204770e-01  -5.3702098e-01  -3.0802880e-01  -8.0094213e-01   2.6767900e-01   4.6809481e-01   4.1455527e-01   4.7621033e-01   4.6663583e-01  -6.3187562e-01  -2.3317317e-01   7.8854725e-01  -7.0528250e-01   6.7112342e-01   7.6829167e-01   6.9229456e-01   5.2159646e-01  -7.1691840e-01   8.8837435e-01   9.0218532e-01  -9.0702176e-01  -7.9497145e-01   6.9356472e-01  -8.0375767e-02  -6.3463354e-01   4.4686044e-02   3.1090537e-01   4.3152488e-01   6.7357281e-03   6.0969044e-01   3.8645319e-01   3.0217258e-01  -6.3138208e-01  -8.0831297e-01  -4.5207112e-01  -6.2123017e-01   4.8856602e-01   1.9792048e-02   5.3305678e-01   3.9549996e-01  -8.1516663e-01  -6.7888697e-01   7.0509366e-01  -7.6443290e-01   4.3986804e-01   9.1595859e-02   9.6460278e-01  -5.6090063e-01  -5.7702466e-01   3.5572490e-01  -2.3686170e-01  -7.8293165e-01   8.8540247e-01   8.6714610e-01  -2.5327377e-01  -2.6593172e-01  -1.8731263e-01  -8.4232565e-01  -2.8451176e-01  -1.8820551e-01   8.6880473e-01  -5.6615059e-02   3.9654063e-01  -4.6715385e-01   8.2435495e-01  -2.9898579e-01  -7.7562018e-01   5.2049510e-01   5.3396235e-01  -2.1824619e-01  -4.2743442e-01  -9.2930791e-02   5.5150560e-01   6.4882665e-01   9.9122632e-01  -8.0285895e-01   5.6707830e-01   8.3630539e-01   2.2871875e-01  -2.7561495e-01   2.0323365e-02  -7.9666831e-01  -6.0838573e-02  -2.9741983e-01   3.2599682e-01  -1.9397881e-01   9.6293457e-01  -3.8152630e-01   6.2287824e-01  -3.6274978e-01   6.5985785e-01   1.7016475e-02   5.9793825e-01   6.9893375e-01  -1.3722734e-01  -7.4430370e-01   8.2900909e-02   7.3649444e-02  -7.0225638e-01  -5.3041250e-01   5.2019703e-01   5.2038406e-01   2.0540154e-01  -8.7262054e-01   4.3525964e-01   8.1653912e-01  -4.0840813e-01  -1.0486537e-01  -7.1168202e-01   7.8832238e-01   8.6434494e-01   9.4383115e-01  -6.8771203e-01   2.6676740e-02   4.9522848e-01   4.9633153e-01   5.2179554e-01   5.9151704e-01   6.3324056e-01  -8.8857833e-01  -6.3496825e-01  -8.0029721e-01  -2.6506222e-02  -6.3226332e-01  -9.2915081e-01  -1.0253425e-01   9.5507025e-01  -1.3180100e-01  -6.1246060e-01   7.8789701e-01   2.1621164e-01   5.3699095e-01  -3.6629590e-02   1.4989340e-01   7.7427978e-01  -9.5780824e-02  -6.5467098e-02  -7.6740828e-02   4.2768986e-01   4.7270279e-01  -6.8858030e-01   1.9055872e-01  -1.0925274e-02  -7.3650251e-01  -2.9525879e-01  -7.4277928e-01   3.9877126e-01   7.5751762e-01   8.5106392e-01   3.6122415e-01   6.1914547e-01  -4.7282937e-01   6.4933603e-01   7.0476437e-01  -8.9036288e-01  -4.2405680e-01   7.9063488e-01   6.4494780e-01   5.2975947e-01  -7.9506567e-01   5.9429556e-01  -5.8925122e-01   2.3776320e-01   8.1733401e-01   3.8976099e-01  -8.6497843e-01   5.5836975e-02   4.3272286e-01  -5.0078846e-01  -3.2505949e-01  -9.3450510e-01  -9.7034797e-01  -4.9564812e-01   2.8464217e-01  -7.1846484e-01   6.7934237e-01  -6.8874986e-01  -9.3572444e-02   3.2136066e-01   7.5955604e-02  -7.8047612e-01  -6.5510790e-01  -8.9042273e-01  -1.3712848e-01   7.6638453e-01  -4.7074484e-01   4.1998884e-01   2.2145257e-01  -6.3257842e-01   3.7740113e-01  -4.7631808e-01   8.8645277e-01  -9.8227841e-01  -5.1905221e-02   6.0589386e-01  -1.8137890e-01   9.9518152e-01  -6.1830837e-01   6.0856061e-02   1.7413589e-01   3.5810912e-01   9.6662247e-01   9.5865911e-01   7.9637299e-01   7.7166298e-02  -3.2374578e-02  -8.7736436e-01  -7.4804530e-01   7.2642454e-02  -1.6467753e-01   2.7071851e-01   7.2807767e-01   4.6447983e-01  -1.3559325e-01   6.9485656e-01   7.0780811e-01  -6.5110422e-01  -8.4672014e-01  -4.1917342e-01  -1.9234134e-01  -1.1850876e-01  -5.0100018e-01  -2.4804972e-01  -1.0228630e-01  -8.6110044e-01  -1.1641640e-01  -5.4508279e-01  -8.8606017e-01   3.1550434e-01  -9.3283213e-01  -5.4097973e-01   6.6242821e-03  -4.3685680e-01
   7.0043932e-01  -8.8951903e-01  -9.1056357e-01  -6.3337839e-01  -9.2179917e-01   3.1177063e-01   8.9526737e-01   8.2549857e-01   3.2497064e-01  -6.5366985e-01  -6.6120867e-01   4.1422360e-01  -4.8432103e-01  -8.0308184e-01  -3.9195500e-01  -9.7416626e-01   4.8063645e-01   3.1960907e-01   6.4855334e-01   8.5179235e-01   6.5995189e-01   3.7460109e-01   6.7066885e-01  -5.5828962e-01   5.2326195e-01   2.1781904e-01   8.3098421e-01   5.6410200e-01   1.1747332e-02   1.3561008e-01  -2.2970008e-02   9.5592038e-02  -4.8174511e-01  -3.5298728e-01   1.7257279e-01  -4.1079259e-01  -8.8270879e-01  -2.7241753e-01  -1.3019534e-01  -6.8766992e-01  -1.9905031e-01   5.6034616e-01  -7.2735857e-01   4.4913377e-01   9.6332380e-01  -5.4357045e-01  -8.0799782e-02   5.0187043e-01  -7.3586997e-01   3.2016911e-01  -5.9304017e-01  -9.3858906e-02   4.2917353e-01  -9.1558135e-01   5.5303384e-01  -1.6404183e-01   3.6967226e-01  -3.7515622e-01  -7.8395748e-01  -3.8248945e-01  -2.8159645e-01   8.9605071e-01   5.7291640e-01   1.8846266e-03   8.9901698e-01  -5.4467698e-01  -3.1245285e-01  -4.9732843e-02  -6.5601033e-01  -5.9448170e-01  -9.5122670e-01   4.7370884e-01   1.4804165e-01  -6.9348297e-01  -3.4301105e-01  -4.8412687e-01  -5.5708289e-01   2.6744793e-01   5.9999898e-01   1.1479817e-01  -2.3167964e-02   6.5945724e-02   1.2688068e-02  -6.1121884e-01  -3.9781597e-01  -1.9133792e-01  -5.7566164e-01  -7.8807940e-01  -7.2675684e-01   7.0435860e-01  -7.6380131e-01   2.3291800e-01   1.1932107e-01   9.5984199e-01   6.5653092e-01   4.4971791e-01  -5.9291190e-02  -1.8536242e-01   2.2226356e-01   8.3905445e-01  -2.7407790e-01   1.6576231e-01   4.7443484e-03  -4.6533275e-01  -2.3025521e-01  -5.6918792e-01  -8.7112999e-02  -7.9240470e-01  -8.3837566e-01   4.2971333e-01   2.0323032e-01   2.3319119e-01   1.1594832e-01   1.0997904e-01  -2.4735639e-01  -3.5330075e-02  -7.8548885e-01   5.4849700e-01   3.7779323e-01  -5.5881076e-01  -5.8156605e-01  -2.0531718e-01   9.8706412e-01  -9.9529716e-01  -8.6967844e-01  -8.4117456e-01   7.1478228e-01   9.2627926e-01  -6.9877438e-01  -4.9516105e-01  -5.6911434e-02   3.3020643e-01   5.0877112e-01  -6.2054320e-01  -6.6513943e-01   3.5925382e-01   5.2240030e-01   7.4615154e-02  -9.9523766e-01   3.7710781e-01  -3.6534712e-01   1.8378091e-02   7.4417373e-01   4.4417345e-01  -9.2784161e-01   4.0945272e-01  -8.9427286e-01  -7.4820885e-01  -3.8418904e-01  -6.6751984e-01  -7.2687170e-01  -8.3769920e-01   4.6557932e-01  -9.6642744e-01   6.9760282e-01   9.0672785e-01  -6.8314853e-01  -1.4113648e-01  -6.2919719e-01  -6.5419003e-01  -8.7981638e-01   4.2741389e-01   7.4305167e-01   2.2899092e-01  -1.4209565e-01   1.3938506e-01  -1.5984058e-01   5.0092533e-01  -6.1109618e-01  -7.3056948e-01   1.8569519e-01   6.1886901e-01   3.3275818e-01   8.6608646e-01  -5.1778497e-01   6.2969404e-01   3.7138181e-02   2.6780223e-01  -3.1652758e-01  -7.2627885e-01  -7.5437785e-01  -7.2533890e-01   5.1721267e-01  -3.9566031e-01   7.5460346e-01   6.6698484e-01   8.0318696e-01  -2.8148000e-01  -1.1734887e-01  -2.4921285e-01   4.2754271e-02   2.0529105e-02  -8.9231025e-01   8.5956535e-02  -7.1227453e-01  -8.9298888e-01  -7.3948184e-01  -4.5906802e-02   4.6434089e-01  -2.3644043e-01  -4.1376682e-01   7.7566915e-01  -8.4821087e-01  -7.9880148e-01  -5.0105677e-01  -6.8591195e-01   4.7150853e-01  -3.5780399e-01   3.4515019e-02  -5.2681373e-01   8.9814615e-01   5.1763556e-01   3.9101606e-01  -9.5438124e-01  -2.9919036e-01  -3.3342415e-01  -9.1922863e-02   1.9608905e-01   8.1898481e-01   4.3357619e-01  -9.5065512e-02  -7.2864578e-01   8.1559201e-02   6.4518966e-01  -1.3411312e-01   3.3949877e-01  -7.9077853e-01  -8.5104347e-01   4.3682207e-01   5.2015343e-02   3.1570467e-01   8.0684142e-01   4.0373629e-01  -3.5000705e-01  -5.5001751e-01   7.3871758e-01   2.4379785e-01  -2.9546175e-01   2.3980074e-01  -1.9108427e-01  -3.9073791e-01   7.9522922e-01  -3.9177422e-01  -7.5356110e-01   8.2766389e-01   9.9566036e-01   9.7717741e-01   1.8042579e-01  -9.0932808e-01   2.3812308e-01   3.3635324e-01   4.4893261e-01   3.5088843e-01   6.8768762e-01  -1.1101104e-01  -4.6883052e-01  -7.0823020e-01   7.1038333e-01  -6.6995722e-01  -2.5645861e-01   6.4303605e-01   9.3310176e-01   5.5744907e-01  -1.0066519e-02   1.0228393e-01   9.7894139e-01   4.7503426e-01   9.7198796e-03   7.6739927e-01  -8.8827188e-01   7.9182899e-01   6.2566421e-01   9.5952468e-01  -4.4986695e-01   3.8680148e-01  -7.2555709e-01   3.0550975e-01  -7.4467510e-01  -4.1157208e-01  -8.8465658e-01  -4.5587961e-02   9.1429894e-02  -2.4955468e-01  -4.2085773e-01  -1.1667839e-01   3.5679877e-01  -4.7624671e-01  -9.0616413e-01   4.4079791e-01  -7.0978456e-01  -3.5912141e-01   5.5808006e-01   6.8497679e-01   8.1535924e-01  -9.2761126e-01  -3.2301357e-01   3.4708988e-01  -2.7063269e-01  -6.1072166e-01   5.2333996e-01   9.9867782e-01   1.5951491e-03  -1.7861592e-02  -9.4934925e-01   8.2290285e-01   2.6345822e-01  -2.8422581e-02  -6.2091516e-01   9.4012055e-01   4.8782358e-01  -6.9945076e-01   5.4399373e-01  -9.6327480e-01  -4.5798434e-01   3.9827635e-01  -3.0673172e-01  -5.3528040e-01   4.4613248e-01   5.5051571e-02  -2.9790325e-01   5.8004295e-01  -8.2768392e-01  -8.5913538e-01  -5.2558677e-02  -1.8212514e-01  -8.5173518e-01   2.0844503e-01   6.8034021e-02  -6.1856499e-01  -4.9306651e-01   9.9485507e-01   2.7832995e-01  -9.3662086e-01  -5.3941540e-01   6.8261432e-01  -9.3308274e-01  -9.0830714e-01  -2.0378424e-01   9.8712033e-01  -3.3731268e-01  -6.3515454e-01  -8.0729442e-01   4.4546559e-01   7.5840673e-01  -7.2645648e-01  -2.2344062e-01  -8.8622784e-01   7.4901599e-01   9.4248504e-01   7.4180591e-01   3.1803378e-01  -8.6825177e-01  -8.9784450e-01  -3.2354710e-01  -1.2514736e-01   1.5050360e-01  -5.6226299e-01   3.5724446e-01  -4.2513726e-01  -9.4682218e-01  -7.1245072e-02  -3.8858158e-02  -3.3585396e-01   9.2271699e-02  -6.9036045e-02   6.5918353e-01   8.6728964e-01  -5.2937617e-01   2.0636588e-01   9.5362473e-01  -8.3085411e-01   5.7945682e-01   6.2580257e-01   9.0922519e-01  -7.1357336e-01  -6.7783072e-01   8.4454873e-01   8.7655630e-01   3.4541442e-02   7.3144811e-01  -1.0276265e-01  -8.4867242e-01  -5.1763609e-02   3.9326709e-01  -4.6944239e-03  -2.4943163e-01   1.3633703e-01   2.7747203e-01   1.1523581e-01   8.1568525e-01  -8.9159468e-01  -7.0825291e-01   6.6132985e-01  -3.9996484e-01   1.0244901e-01   2.1044742e-01   7.4298243e-01  -4.9065449e-01  -7.3520956e-01   3.0455130e-01   1.6848042e-01   7.3862060e-01  -2.0827160e-01   5.5461209e-01  -8.6161802e-01   4.3081783e-01   3.7760288e-01   3.2064623e-01  -1.7130720e-01   4.5232686e-01   5.7074083e-01   4.7996653e-01   8.4455743e-01  -1.2407766e-01  -5.3307753e-01   8.2609028e-01   9.1227343e-01  -6.2612558e-01   2.5060336e-01  -1.6209270e-01   4.9184483e-01   4.7616928e-01   4.7177313e-01  -6.3124883e-01   5.2748851e-01  -4.1974476e-01  -4.3536989e-01   9.6993545e-01   9.3514799e-02  -1.3040304e-01  -6.5241307e-01   8.4912028e-01   5.0943294e-01   8.7813432e-01  -7.4545890e-01  -6.7466267e-01   7.3007169e-02  -9.7287758e-01  -3.2599455e-01  -1.9312844e-01  -5.8349659e-01   1.5821994e-01   7.4988666e-01   5.5130535e-01   1.2537276e-01  -9.1246217e-01   3.5807248e-01   8.2933351e-01   9.2323650e-01  -5.7393450e-01  -6.3820810e-01  -5.1338597e-01  -2.5064445e-01  -5.3340509e-01  -5.3609125e-01   7.3891286e-01   2.5484768e-01  -2.3675941e-01   3.2087421e-01  -3.0985269e-01   9.4993881e-01   8.3464723e-01   9.2721076e-01   2.1371145e-01   8.4182758e-01   3.4642136e-01  -9.1769770e-01   3.1457031e-01  -1.5505490e-01   9.2411986e-02  -1.8721065e-01  -4.0531919e-01   4.5971411e-01  -8.4315450e-01   6.3950159e-01   6.1413964e-01   1.4435918e-01  -1.3237691e-01   6.4265903e-01  -8.0246964e-02   9.6578774e-02   6.6967581e-01  -5.5845205e-01   4.2329568e-01  -5.9091453e-01   7.0994845e-01  -5.6207780e-01  -4.4322067e-01   9.4886745e-01  -7.9285528e-01  -7.3758295e-01  -1.8384255e-01   4.0113324e-01   3.7901432e-01   1.0922143e-01   3.7523650e-01   5.2324656e-01   7.7714667e-01  -6.4727125e-01  -2.3422644e-01   1.0369478e-01   5.7111574e-01   5.3913638e-01   1.1380815e-02  -8.7632764e-01  -5.3302845e-01  -2.6152636e-01  -6.1068620e-01   8.8691393e-01  -9.9597913e-01  -9.9339609e-01   6.0287229e-02   6.4745735e-01   5.7105351e-01  -8.6578808e-01  -7.8629971e-01   1.0734685e-01  -2.0221216e-01   7.2488729e-01  -7.9693321e-01   5.8801314e-01   6.5957024e-01  -1.5621363e-01  -8.1365961e-01  -3.4913748e-01   5.1180713e-01  -8.2052448e-01  -4.8082303e-01   9.3459903e-01   9.9688138e-02  -8.2703216e-01   5.7234552e-02  -4.9105933e-01  -2.8011395e-01  -4.1370087e-01   7.3325009e-01   3.8102073e-01  -2.9339361e-01  -8.1466634e-01  -6.5192915e-01   1.2191503e-02  -6.1986378e-01  -2.2946849e-01  -5.7309090e-01  -1.2649592e-01   3.7541643e-01   3.6290784e-01  -3.6820562e-01  -2.5885980e-01   4.2055469e-01   9.8609968e-01   8.7499827e-01  -7.9564362e-01   6.2225847e-01  -7.7145507e-01  -1.2603192e-01   7.7622722e-01  -3.8636155e-01  -4.0280981e-01   3.5026221e-01   2.7631392e-01  -1.3317648e-01  -6.6446572e-01  -3.0902710e-01   6.1638368e-02   7.3310435e-01  -3.3722644e-01  -3.9810679e-01   3.9854660e-01   7.2940222e-01  -4.1686449e-01  -1.2155481e-01   1.0728467e-01   1.1943573e-01  -4.6108425e-01   2.6807332e-01   2.9251597e-01  -7.6173765e-01  -5.9333611e-01   1.7675835e-01  -8.7311405e-01   7.7788494e-01  -8.8050583e-02  -7.1710926e-01  -5.6066441e-01  -3.2231675e-01   7.6876421e-01  -4.3972628e-01   5.3874716e-01   5.9946438e-01  -5.6259508e-01   8.4950141e-01   4.9289802e-01   3.9364295e-01   1.5016915e-01   6.5161227e-01   1.1168724e-01   8.6083559e-01  -9.6029763e-01  -6.2806289e-01   7.5327909e-01  -1.9634374e-02   8.0250394e-01   1.9030342e-01  -2.6635246e-01   7.0221653e-01  -1.7008130e-01   9.9087305e-01  -2.4701402e-01  -1.7101906e-01  -5.7083902e-02  -1.2484767e-01  -3.9106532e-01   4.6954766e-02  -4.3621022e-01   4.6208814e-01   7.9625226e-01  -3.7732487e-01   4.8602089e-01  -1.7756100e-02   3.9875686e-01   8.4193525e-01  -6.7153620e-02   6.8632979e-01  -1.5263709e-01  -4.6327990e-01  -8.0385395e-01   5.8063004e-01  -6.4431701e-01   9.7626448e-01   8.2230955e-02  -6.1737654e-01   2.1596277e-01   5.2684458e-01   2.7686964e-01  -8.5014937e-01   3.3492194e-01  -8.2046414e-01  -6.0531111e-01   4.7508757e-01   6.6276286e-01   3.8622693e-01  -7.8379949e-01   7.2832320e-01   6.5923697e-01  -2.3187754e-01   5.7100874e-01  -4.1614457e-01   6.1117465e-01   9.0648863e-01   5.2315041e-01   7.6290851e-01   5.4534018e-01   8.1784282e-01   8.8518717e-01   7.1934511e-01  -2.6928162e-01   4.7729423e-01  -2.3316628e-01   4.2903017e-02   3.6789948e-01   5.4580547e-01  -9.1117722e-01   4.8144920e-01  -6.5225604e-01  -2.8452398e-01  -8.0586622e-01   7.7770437e-01  -4.0662325e-01   8.9736666e-01  -4.1558658e-01   5.6186149e-01   1.6288601e-01   2.8845540e-01  -7.8323823e-01  -1.5330151e-01   4.8164704e-01  -4.3636354e-01   9.7203401e-01   7.7118103e-01   1.7627888e-02   6.4216186e-01   3.9237547e-01   6.8091692e-01  -9.3870481e-01   1.9661089e-01  -5.9852885e-01  -3.3703901e-01   2.6755999e-01  -2.5001769e-01   4.6758756e-01   1.6111183e-01  -5.8332993e-02   7.2383175e-01   4.4676708e-01   7.4630250e-01   8.3781151e-01   7.6142832e-01  -7.5440535e-01   2.0615835e-01   2.1462179e-01   1.6389885e-01  -8.0677935e-01  -9.2014700e-01  -2.8388066e-01  -6.9596112e-01   4.0427929e-01   8.5444446e-01  -3.5617796e-02   2.2381728e-02   4.5714376e-01   8.3964518e-01  -1.1373488e-01   8.7942874e-01  -9.8420799e-01  -1.3870549e-01  -5.1995952e-01   7.5187182e-01  -5.2318013e-01   6.8397356e-01  -5.9057959e-01   4.1304133e-01   1.1630271e-01   2.0418486e-02   5.1273796e-01   2.2599876e-02   3.0454797e-01   6.9021708e-01   3.3530502e-01   9.4864313e-01   8.9365660e-01   1.6433411e-02  -5.5695715e-03  -9.8180929e-01   9.1213230e-01   2.4847501e-01   9.5576765e-01   3.7217511e-01   2.6970429e-01   8.0621483e-01  -8.6384036e-01   9.1696704e-02  -6.2955582e-01   7.8928489e-01   2.1677647e-01   3.6127445e-02   3.9031815e-01  -6.8767651e-02  -6.7838553e-01   9.8410263e-01  -1.3636123e-01  -7.1692448e-01   7.9679949e-02  -2.0231926e-01   4.3736571e-01   7.7778731e-01  -5.5233781e-01   9.2548595e-01  -6.3392752e-01  -3.0650951e-01  -9.3706178e-01  -6.9097127e-01  -7.8576463e-01   1.4669816e-01  -2.6834392e-01  -7.6928333e-01   3.8582180e-01   5.0748399e-01  -7.2724557e-01  -3.4873235e-01  -6.8996790e-01  -9.6369395e-01  -7.4293385e-01   7.1985446e-01  -8.7043098e-01   5.4136365e-01   5.8634823e-01   2.2283482e-01   5.5635543e-01   1.4195540e-01  -2.0455643e-01   9.6067718e-01  -1.9840624e-01   2.4858966e-02   2.7020768e-01   7.5513291e-01  -2.9541012e-01   7.2862555e-01  -7.4851528e-01  -4.1753266e-01  -7.8024448e-01  -7.3580194e-01  -6.1133538e-01   7.0323827e-01   3.7189799e-01   3.7285801e-01  -8.0270131e-01   7.4336496e-01   5.7219655e-01   9.5536362e-01  -5.6062728e-01   7.3422084e-01   2.1275671e-01   5.6112368e-01  -4.2654281e-01   5.9665425e-01  -5.3257519e-01   3.7429968e-02   3.2900694e-01   6.1552459e-01   4.2442412e-01  -2.3142272e-01   4.0167753e-01   2.6487398e-01  -5.8672942e-01  -7.9189246e-01   6.7556390e-01  -9.9319647e-01   8.9554860e-01  -1.7894682e-01  -8.3501439e-01   1.5826627e-01   4.4856117e-01   2.2774695e-01   1.9188874e-01  -9.1418793e-01  -2.3830119e-01  -9.6139136e-01  -7.1012602e-01   4.2186563e-01  -9.8942917e-01   9.7784396e-01  -9.7149424e-01   2.5730558e-01  -7.7564678e-01   4.5677335e-01  -4.6122384e-01   8.5599268e-02   5.5680123e-01  -7.1141415e-01   7.2558545e-01   7.2875874e-01  -3.0516648e-01   7.4603361e-02   9.3012766e-01  -2.0321432e-01  -2.6835432e-01  -8.4656722e-01  -1.9323302e-01  -1.2904452e-01  -3.9572051e-01   8.6482265e-01  -2.0343641e-01   7.0426562e-01  -6.4996693e-01  -4.8311779e-01  -6.6043438e-01  -2.5313336e-03  -2.1591002e-01  -8.8785129e-01   1.6610564e-01  -6.3066986e-01  -4.3984878e-01   7.3517117e-02  -1.0313321e-01   4.4820719e-01  -7.4986888e-01  -4.7599270e-01   6.8136409e-01   9.1516015e-01  -2.2353546e-01  -3.9037185e-01  -4.3955301e-01   3.2084750e-01  -5.2391679e-01  -5.6398173e-01   5.8131801e-01  -9.5237152e-01  -5.6870460e-01  -8.5701146e-01   2.9701133e-01   3.5366637e-01   8.1378476e-01   6.9077647e-01  -1.2403942e-01   6.6881807e-02   5.6448699e-01  -7.0400889e-01   8.0542822e-01  -7.1122316e-01  -6.0610200e-01  -5.4692447e-01   7.8520388e-01  -4.5608778e-01   1.9918742e-01   9.9283198e-01  -9.5620932e-01   6.2129172e-01  -8.6323031e-01  -7.3821447e-01   5.3250783e-01  -8.0966056e-01   8.8359497e-01  -4.1208380e-01   1.6734863e-01   7.1262992e-01  -8.4667623e-01  -7.6797239e-01   9.1905709e-01   8.9520648e-01   7.8550010e-01   6.1121095e-01   8.9187032e-01  -1.9511585e-01  -7.4298052e-01  -4.1146658e-01  -7.2759867e-02  -8.0540385e-01  -5.8428356e-01  -3.7613152e-02  -1.9321537e-01   8.0146670e-02   2.5226706e-01  -1.0016520e-02  -4.4832807e-01   5.5307410e-02  -3.3148999e-01   5.1938260e-01   5.3578512e-01   9.8506421e-01   8.9693704e-01   7.3298008e-01  -5.4143297e-01  -8.4766913e-01   4.1689192e-01  -4.7188304e-01   4.4318603e-01   6.1754211e-01  -2.0446090e-01   8.3127432e-01  -1.6595760e-01   9.7125339e-02   9.1283202e-01  -1.6490269e-01   9.7736987e-01   2.1873876e-01  -5.6019164e-01  -4.6752972e-01   6.3518799e-01   3.9715709e-02  -7.5300370e-02  -3.5465294e-01   7.0346236e-01   7.2736448e-01   3.0978174e-01   6.6122352e-01   8.8674346e-01   8.6182663e-01  -9.3081928e-02  -6.7015645e-01   5.1318898e-01   3.3848783e-01   2.0587222e-01   2.4832246e-02   2.0538606e-01   6.2715434e-01   1.2677699e-01  -3.4820539e-02   6.5963816e-01   6.7385095e-01  -5.6830993e-01   6.1996401e-01   8.7497341e-01  -2.8857764e-02   6.0331909e-01   6.5436482e-01  -6.0526105e-01  -4.1614277e-01  -8.0284444e-01   1.2054486e-01  -2.7289514e-01  -5.9750549e-01  -7.9466838e-02   7.2542033e-01   3.4571265e-01  -9.9458679e-01   7.8892291e-01  -4.8857180e-01   8.4334477e-01   7.4491709e-01   6.4313822e-01  -6.2771267e-01   3.3449096e-01   4.0834925e-01  -3.1279451e-02   1.6717135e-02  -5.5241842e-01  -2.7841132e-01  -1.0171481e-01  -9.3584893e-01
   8.6450825e-02   9.5051241e-01   1.8185287e-01   8.5296047e-01   7.6220286e-01   2.6835804e-01  -9.2449587e-02   1.9068593e-01  -5.4897315e-01   5.7638376e-01  -3.7278081e-01  -6.3900969e-01  -3.0068980e-01   1.7558501e-01   6.7247235e-01   5.9239286e-01  -4.7080241e-02  -2.6080825e-01  -3.5806671e-01   6.6970959e-01  -2.0855033e-01   4.7893380e-01   3.4553865e-01  -3.4032877e-01   1.1238824e-01  -1.1384564e-01  -6.5648448e-01   1.9252860e-01   2.5116801e-01   5.9332459e-01  -6.6809974e-01  -2.4139042e-01   8.0485635e-01   9.5113868e-01   7.2716046e-01   5.1945737e-01   7.9620965e-01  -3.7116386e-01  -1.6613177e-01   1.5550118e-01   2.9749188e-01   2.2394037e-01   6.5706319e-01  -5.7709421e-01   3.4171109e-01  -4.3717298e-01  -7.7068956e-01  -2.8859004e-01   6.6513780e-01  -9.4611697e-01  -7.9008079e-01   5.3165876e-01   8.7037883e-01  -2.6213972e-01   5.3481982e-01   6.4683599e-01  -2.6616911e-01  -4.7763592e-01   7.3794097e-01   8.7434731e-02   1.3527945e-01   4.7646338e-02  -1.9541952e-02   9.8780392e-01   1.9124340e-01   3.4974079e-01   4.9573517e-01  -1.2066702e-01  -3.9771357e-02  -5.6144277e-02  -1.6411808e-01  -5.3364387e-01  -6.6912221e-01  -7.9831808e-01  -1.1685044e-01   1.1208625e-03   3.0885524e-02   8.0871155e-01   1.0059692e-01   7.9065476e-01  -6.1067405e-01   1.8010339e-01  -8.8838067e-01   8.4837494e-01  -7.2502251e-01  -7.0693375e-01  -5.8081136e-01  -4.2949710e-01  -7.5840148e-01  -3.7858432e-01  -3.4687674e-02  -6.1915633e-01  -7.5569820e-01   6.3020701e-01  -3.0563911e-01  -3.0116194e-01   5.5564985e-01  -9.4125180e-01   2.5425767e-01  -6.3819891e-01  -5.9396299e-01   5.0147262e-01   3.1225631e-01  -8.6923597e-01  -1.0601770e-01  -4.2301878e-02  -6.7884407e-02   7.1370717e-01  -7.0554373e-01  -7.6079019e-01  -3.6848853e-01   4.3261394e-01  -2.4281007e-01  -2.8747759e-03   6.6330050e-01   2.2077537e-01  -9.9423815e-01   2.2871893e-01  -4.7335076e-01   6.9311752e-01   5.4245439e-01   9.4425484e-01  -8.2994022e-01  -3.9138883e-01   1.0068280e-01   5.8982478e-01   4.0689190e-01  -5.8233948e-01   3.5785220e-01  -6.7414859e-01   5.7612813e-01  -5.0718532e-01  -8.7505279e-01  -4.1848788e-01  -8.6799108e-01  -7.7499710e-01   4.7039985e-01  -1.2537242e-01  -8.6983372e-01   2.4607443e-01   2.0612039e-01   6.5617278e-01   4.7743076e-01   7.5944013e-01   1.0403598e-01  -2.5543921e-01   1.2320957e-01  -1.8550333e-01   4.7534877e-01   7.8293361e-01   1.4768257e-01   8.5039330e-01   5.1146751e-01  -2.6054408e-01  -7.6818482e-01   5.0709159e-01  -1.8477593e-01   2.1027897e-01  -4.3649598e-01   7.5854886e-01   1.5867484e-01   8.9303927e-01   2.0941494e-01  -3.3521964e-01  -8.5501236e-01  -3.7986892e-02  -4.9271217e-02  -2.4108986e-01  -6.4829728e-01   4.6897150e-01  -8.2559941e-04  -4.2048273e-01  -3.7068429e-01  -8.4860667e-02  -3.1048517e-01  -1.2974880e-01   7.1917106e-01  -1.1317487e-02   1.7935206e-01   8.8686421e-02  -4.4266536e-01   7.6788133e-01   9.8446924e-01  -9.6160613e-01   8.3173005e-01   8.2725861e-02   2.1387552e-01   7.7087729e-01   7.3544643e-02   5.0288526e-01  -1.4717375e-01  -8.4701465e-01  -9.1943888e-01  -9.9907046e-01  -3.6346964e-01   8.1566634e-01  -7.3433862e-01  -9.8442965e-01   2.3957911e-01   8.7197592e-01  -3.8413255e-02   5.0348014e-02   5.9866435e-01   3.7479843e-01  -4.3033982e-01  -2.9044260e-02  -6.8226857e-01   6.1366749e-01   6.5586514e-01   1.1145356e-01  -7.3047263e-01  -2.5873862e-01  -9.7944366e-01   7.7632031e-01  -4.7137459e-01  -2.1281407e-01   6.5266247e-01  -1.5864461e-01   5.6858959e-01   3.7978553e-01  -6.1613601e-01  -6.6742849e-01  -4.9543812e-03   8.7338819e-01  -3.0180642e-01   6.0024293e-01   3.2657139e-01   9.5426701e-01   1.2804068e-01   7.2624380e-01  -3.8767710e-01  -7.9126226e-01  -5.4434572e-01   1.6136584e-01  -1.2872704e-01   9.9843505e-01  -2.7047389e-01  -7.2352107e-01   7.2761845e-03   4.6345233e-01   9.3399740e-01   4.5802039e-01  -7.3963254e-01  -3.7696775e-02   3.0078681e-01   3.3808931e-01   2.9544040e-01   9.6834539e-01   1.1646513e-01   8.4686735e-01   8.7088285e-01  -5.8041656e-01   6.5312664e-01   2.0479452e-01   3.2581444e-01  -9.8554038e-01  -1.9076824e-01   7.5872511e-01  -3.3853525e-02  -1.9024426e-01   3.1123417e-01  -7.6301178e-01  -1.8575124e-01   9.8371631e-01  -1.0395653e-01   6.6583636e-01   4.8723711e-01  -1.0425610e-02   6.5532758e-01  -8.2534353e-01   6.3578312e-01  -5.4923981e-01  -9.0710961e-01   8.8412067e-01  -2.1695926e-02   4.7400759e-01  -9.9289693e-01  -3.5198577e-02   2.1226150e-01   2.9050629e-01   7.1907948e-01  -4.6625428e-01  -1.4062369e-01  -9.7204200e-01  -5.1074990e-01  -8.9160946e-01  -2.4009145e-01  -6.7608097e-01  -9.6062044e-01  -9.8414796e-01  -3.4521623e-01  -8.9773516e-02   2.4375509e-01  -5.6217186e-01  -7.3294233e-01  -8.3902760e-01  -4.1081144e-01   8.6087693e-01   7.7640855e-01  -3.2168066e-01   3.6321194e-01   5.0262742e-01   9.8432433e-01  -6.1540837e-01   9.1503271e-01  -7.1241559e-01  -1.9454776e-01  -5.4866890e-01   6.1708543e-01  -7.7595622e-01   2.6319646e-01   9.5486427e-01   4.0745213e-01   1.9389392e-02   5.5138699e-01  -4.0391909e-01  -1.9982201e-01  -1.9651605e-01   7.6111602e-01  -9.3972014e-01   4.6501913e-03   3.8621213e-01   5.4597100e-01   8.9885609e-01  -5.0653397e-01   6.9767304e-01  -5.6046197e-01   4.8978196e-01   5.2425415e-01   2.3632315e-01   5.8622702e-01   7.3678215e-01  -4.4049439e-01   1.1639371e-01  -6.6848946e-01  -4.6144534e-01   7.8023696e-01   9.8105878e-01   9.3855092e-01  -6.4683266e-01  -4.0028639e-01  -3.5228735e-02   4.3874190e-01   2.8924036e-01   4.8660777e-01  -1.8773417e-01  -2.7545236e-01  -6.8820343e-01  -6.1719823e-01   6.1039981e-01   6.7825033e-02  -6.0883553e-01  -5.4424403e-01   4.5283774e-01  -8.5353745e-02  -2.1865659e-01  -2.4561979e-01  -3.1146783e-01   7.6259157e-01   6.0321107e-01   4.4418181e-01   1.5699151e-01  -8.0288715e-01  -5.0255978e-01   4.4500276e-01   6.5809964e-01   3.2811654e-01   7.5133586e-01   4.7186021e-01   8.2845550e-01  -4.9296632e-01  -4.5978265e-01   6.9815535e-02   6.7639640e-01  -8.1186144e-01   8.9478818e-01   1.7093173e-01   6.2212284e-01   8.2771973e-01  -7.7464004e-02  -3.9253449e-01   4.1058378e-01  -8.1383854e-01  -9.5192583e-01   2.4589532e-01   8.0865267e-01   3.5824805e-01  -9.4518073e-01   8.4950581e-01   5.9295087e-01  -7.1245777e-01  -6.7244123e-01   6.8246334e-01  -3.4822936e-01   7.1936089e-01   5.4244999e-02  -9.5659095e-01   4.0807580e-01  -8.7651782e-01  -2.5212553e-01  -4.2744708e-01  -2.8495270e-01   8.9227253e-01   9.5267605e-01  -4.9111700e-01   9.9304081e-01   9.2603872e-01  -8.0318759e-01  -4.5389859e-01  -5.0381894e-01  -9.3524277e-01   9.6711437e-01  -5.9389387e-01  -8.8256329e-01   7.9796384e-01   6.4681521e-01   8.5850027e-01   9.4788745e-01   1.5985909e-01   8.7222206e-01  -6.0485217e-01   9.9523772e-01  -1.0192959e-01   8.1379632e-01  -9.8052943e-01  -9.8831338e-01   4.2635757e-01   5.2956595e-01  -5.2414754e-01  -3.7432434e-02   4.8775477e-01  -8.7897151e-01  -6.5454556e-01   1.0889283e-01  -8.5601403e-01   5.3181550e-01  -4.1824171e-01  -6.7555431e-02  -7.1024396e-02   8.9160567e-01  -7.4589299e-01  -6.8129505e-01  -1.0482450e-01   1.2983529e-01   8.8144281e-01  -6.5637099e-01   5.0966155e-01  -8.7891652e-01   2.8535806e-01   2.3029371e-01  -3.9192137e-01  -6.6421060e-01  -5.3492202e-01   6.6659486e-01  -3.9401998e-01  -1.1771377e-01  -1.9803137e-01  -3.9823011e-01  -4.5149131e-01  -1.7723337e-01  -1.5393735e-01   1.2442424e-01  -6.9243214e-01   4.3969254e-01  -2.6411618e-01   1.2330956e-02   3.0260257e-01   1.7199533e-01  -1.7792944e-01   8.5924730e-01   5.3623833e-02  -1.0118286e-01   4.9388065e-01  -2.3422618e-01   2.5264386e-01  -9.7543656e-01  -9.5175045e-01  -3.8429784e-01   1.1560123e-01  -4.1119135e-01  -4.3474456e-01  -6.9091650e-01   9.7172673e-01  -1.2513536e-01   3.9692804e-01  -8.7914368e-01  -5.8010388e-01  -6.5163851e-01  -4.3772305e-02  -5.8394138e-01   8.7271587e-01   5.4440991e-02  -6.6287670e-01   9.9822973e-01  -9.6396732e-01  -6.2877145e-01  -6.1316074e-01  -6.9402174e-01   5.2829504e-01  -2.7910456e-01  -1.2497239e-01  -6.9735584e-01   9.2690494e-01   8.5502684e-01   5.0790030e-01  -6.4240342e-01  -3.1640565e-01   3.4139252e-01   2.4171063e-02   5.7953036e-01   1.5848852e-01   4.9700605e-01  -6.9662436e-01  -2.3416028e-01  -5.2450540e-01   3.3063768e-01   6.3407473e-02   5.8224215e-01   1.8971034e-01   8.7208343e-01  -5.0015538e-01  -2.0651869e-01  -6.3424470e-01   3.0772285e-01   5.1251122e-01  -8.2292267e-01   6.8313860e-01  -9.8778676e-01   4.6501834e-01  -3.0236503e-01   1.6344666e-01   3.1877973e-01   8.9114027e-01   5.8444656e-01  -9.4393095e-01   3.1852356e-01  -9.7624932e-01   7.7997665e-01   7.1908322e-01  -5.0221836e-01   1.1936907e-01  -1.8325937e-01   7.4742054e-01   5.4482451e-01   6.8665911e-01   6.0422028e-01  -6.9301886e-01  -9.3665983e-01  -1.9832436e-01  -4.1267931e-01  -6.6284192e-01   5.8258847e-01   3.5551256e-01   3.7991375e-01   8.8493303e-01  -4.4676148e-01  -9.4217652e-01  -7.8197948e-01  -6.7115813e-01  -2.6892373e-01   6.9327030e-01   4.4583826e-01   5.3616968e-01  -9.2105613e-01   2.8027446e-01  -6.7281206e-01   9.5641059e-01   9.9445187e-01   9.9528120e-01  -6.6600871e-02  -6.4354002e-01   3.5935313e-01  -6.0544611e-01   5.6712027e-01   7.6481278e-01  -3.2416578e-02   1.7068163e-01   7.4157256e-02  -9.6438720e-02  -9.7272871e-01  -4.0892976e-01  -8.7069916e-01   6.9367290e-01  -1.7839477e-01  -2.7220478e-01   2.5127446e-01  -9.2290611e-01   9.3977145e-01   9.3536057e-01  -4.5441854e-01  -1.8556023e-01  -8.0493003e-01   2.3823229e-01   1.3338036e-01   2.4602970e-01  -7.8714422e-01   5.8902818e-02   9.3857562e-01   3.2076494e-01  -8.9515999e-01  -1.9072669e-01   9.7908333e-01   9.3971193e-01  -5.1310305e-02   9.0384121e-02  -6.0993434e-01   5.4514886e-01  -2.4148375e-01  -8.8006286e-01   7.9041698e-01   5.5242203e-01  -2.6591735e-01   5.2641686e-02   3.9581881e-01   8.4490649e-03   2.3545225e-01  -5.5520271e-02   1.1063097e-01  -2.4195081e-02  -4.7916852e-01  -6.0961722e-01   3.4578790e-02   4.4703784e-01  -6.7620119e-01   2.9681789e-01   2.0296791e-01  -9.7224769e-01  -1.8477561e-02  -5.5679384e-01   7.9352379e-01   3.9607293e-02   9.3832621e-01   2.8720817e-01  -3.9893366e-01  -8.5568062e-01  -1.2240978e-01   6.1274839e-01  -2.3582650e-02   5.6894506e-01  -4.6891092e-01  -8.7346045e-01  -4.8146136e-01  -8.1815596e-01   6.2279560e-01   6.7866614e-01  -9.5409959e-02  -1.0324459e-01   7.6272517e-01   3.4558132e-01  -6.3141373e-01   8.6817096e-01   8.7320327e-01  -2.0916310e-01  -7.1665106e-01   2.5607127e-01   6.1123647e-02   1.2698514e-01   8.7721308e-01   9.4710214e-01  -8.9582713e-01   6.5211744e-01  -2.2364266e-01  -1.2714944e-01  -6.9084645e-01   8.4852431e-01   9.7387746e-01  -2.3917541e-01  -2.1324010e-02   4.0049165e-01   8.9995360e-01  -2.6722533e-01   7.4693172e-01  -3.4853037e-01   3.4748979e-01   2.2923646e-01   4.6015284e-01   8.4235400e-01  -8.8368335e-01   2.1379709e-01  -6.3441290e-01   9.0899136e-01  -1.8508160e-01  -1.5440749e-01  -6.9699540e-02  -6.6793409e-01  -9.4854358e-01  -9.4096298e-02  -6.5541345e-01   9.5576683e-01  -9.6524636e-01   5.0324916e-01  -1.2998532e-01  -4.1515230e-01  -6.9765208e-01   7.9744413e-01   3.6285015e-01  -3.9016862e-01  -5.3834461e-01  -4.0714284e-01   2.4283305e-01   2.8772272e-01   9.7727661e-01   3.6223276e-01   6.9014179e-01  -6.0403514e-01   2.4645478e-01  -1.5615735e-01  -6.7808539e-01  -6.8531664e-01  -7.2363464e-01  -9.4550934e-01   3.4119491e-01  -6.7845681e-01   8.6859978e-02  -9.9708032e-01  -1.5878219e-01   2.6356760e-01  -9.8946223e-01   8.4738079e-01   3.0550933e-01   6.2886113e-02  -1.4716665e-01   4.0780952e-01  -6.1381777e-01   1.8744059e-01   3.8837923e-01   3.9312299e-01   4.0030657e-01   4.7311877e-01  -9.0319732e-01  -6.6231930e-01  -3.8913196e-01   1.8015924e-01  -5.6444135e-01   7.4411746e-01  -5.1718462e-01   6.5287921e-01   9.7763574e-02   3.0037288e-01  -2.7528748e-01  -3.8284071e-01  -9.0070031e-02  -3.2546162e-01  -9.0977215e-01   4.5836148e-01   5.9966002e-01   6.6791477e-01   7.3751660e-01   3.5754540e-01   2.9586545e-01  -3.0273179e-01  -9.5196901e-02   6.7364081e-01  -1.7536762e-01  -7.2497360e-01  -1.3797463e-01  -9.8969806e-01  -7.4000848e-01  -9.1878083e-01  -6.0073136e-01  -6.1432055e-01   5.6545741e-01  -2.4427446e-01  -2.8845450e-01   9.3482154e-01  -2.9010544e-01  -4.0774284e-01   8.9735084e-02  -5.6545513e-01   5.3680081e-01  -4.5153612e-01  -1.8153952e-01  -4.8813627e-01  -4.1926419e-02  -1.4733275e-01  -6.0594128e-01   8.9852851e-01   4.7244412e-01   8.0234669e-02   3.3571374e-01  -6.6184739e-01  -4.2067671e-01  -9.9391667e-01   5.9862856e-01  -7.6722281e-01  -6.2297106e-01   7.6819485e-01  -6.8474196e-01  -9.7460890e-01   5.3170569e-01  -5.7697890e-01  -2.4156178e-02   1.3493371e-01  -9.1051050e-01   5.6711916e-01   7.3460937e-01   1.8999297e-01   2.8156607e-01  -6.0263834e-01   3.4796850e-02   4.2146283e-01  -3.5523537e-01   2.6515412e-02  -3.3201367e-01   5.3647037e-01   6.3162895e-01   4.0634832e-02  -2.3149209e-01  -4.7195340e-01   7.6685958e-01   7.2395117e-01  -8.4193625e-01   1.0133189e-01  -2.8360745e-01   1.8201509e-01   2.0149115e-01   3.8857436e-01  -4.8984126e-01   5.4019959e-01   4.0816180e-01  -6.5716094e-01   4.9977457e-01  -9.8877848e-01   1.6112568e-01   4.2755231e-01   1.8131843e-01   1.0801573e-01   7.4947998e-01   9.1520761e-01  -4.3886443e-01  -9.7166803e-01  -1.2750469e-01   2.6053215e-01   2.6396857e-01   6.7652632e-01  -8.0013963e-01  -4.4003543e-01  -7.1874259e-01  -7.2514881e-01  -2.0356969e-02  -4.8686815e-01   7.5116112e-01  -7.2837464e-01  -5.2093204e-01  -7.6378130e-01   2.1260764e-02   8.0267420e-01  -1.9439865e-01  -8.0613258e-01  -9.2226044e-01  -3.9854446e-01   2.0521460e-01  -7.9289565e-01  -1.0791906e-01   5.5000174e-01  -3.6978964e-01  -7.4387305e-01  -4.0042412e-01   7.2363131e-01  -7.5673265e-01   1.3218383e-01   7.4759098e-02   8.2841622e-01   4.3716353e-01   7.4218767e-01  -2.4961057e-01   2.6361838e-01   6.2066607e-01  -6.2213313e-01  -3.6267529e-01   5.2871804e-01  -5.2867917e-01  -2.8285116e-01  -1.4227344e-01  -3.6051950e-01  -6.4357563e-01   4.4924522e-01   4.3802771e-01   6.0450974e-01  -8.7371479e-01  -6.8667451e-02  -7.8799974e-01   1.2667556e-01   8.6638759e-01   9.7252286e-01  -8.9337337e-01   1.1598653e-01   1.4492462e-01  -4.9888986e-01  -1.6231282e-01   9.0704327e-01   7.0567115e-01   3.8138145e-01   7.4630345e-01   1.3479933e-01  -4.1044033e-02  -1.9587292e-01   1.4359748e-01  -2.1615300e-01   1.5304276e-01   5.0952856e-01  -8.0651237e-01  -6.1445050e-01  -4.4600813e-01  -3.5285016e-01  -1.4059744e-01  -8.8943489e-01  -1.9191431e-01  -7.6123114e-01  -1.6936002e-01  -4.6169102e-01  -7.9565840e-01   5.9225795e-01   7.5615253e-01  -3.0714684e-01  -2.5634844e-03  -7.2988661e-01   4.7988281e-01   8.9029527e-01  -2.3554155e-01   2.1848384e-01   8.5549217e-01   9.2101429e-01   9.2853547e-01  -8.3049493e-01  -3.1436136e-01  -3.1945219e-01  -2.6970773e-01  -8.6495692e-01   9.7807123e-01  -1.5142724e-01   2.5490813e-02   2.9948116e-01  -8.7752112e-01  -3.5772684e-02  -9.5212255e-01   7.5410675e-01  -9.4284447e-01  -5.7395743e-02   1.8434887e-01  -5.9818419e-01  -4.6053358e-01   9.6182199e-01  -4.4401355e-01   5.5204747e-01   1.0594429e-01   6.0311740e-01   6.8320020e-02   4.7855285e-01  -9.3071557e-01   4.3080222e-01  -5.1788707e-01  -5.4730431e-02   2.2878673e-01   2.1716450e-01  -6.6837598e-01  -2.3560739e-01  -3.5232004e-01  -5.1125483e-01  -3.2196301e-01   2.2412971e-02   7.3237029e-01  -1.1214918e-01   1.9660988e-01  -9.2984772e-01  -4.3193993e-01  -1.0631700e-01  -4.7460461e-01   8.5407816e-01  -3.4736558e-01   4.8540287e-01   6.6050854e-01  -9.9898323e-03   9.2439007e-01   5.7375738e-02   6.7691904e-01  -5.0568421e-01   3.8270486e-01  -1.7217724e-01   7.9624954e-01  -7.4346169e-01   8.6519211e-01  -4.2657842e-01   5.7728743e-02  -9.5962780e-02   2.8400476e-01  -7.0887066e-01  -9.1743289e-02  -5.9897931e-01   4.9274511e-01  -2.9966413e-01  -5.8113295e-01  -4.6095176e-01   3.4622981e-01  -1.9338368e-01  -2.6283470e-01   9.0351124e-02   8.8383822e-01  -8.9504139e-01  -4.1151782e-01
  -2.4565761e-01   6.3359921e-02  -3.2933045e-01   7.2021775e-01   4.7591363e-01  -4.3007235e-01   5.4575976e-01  -2.9912122e-01   4.1033125e-01   9.4984975e-01   7.1094882e-01  -7.6070706e-01   7.9851180e-01  -6.6017409e-01  -8.0060396e-01  -9.3471375e-01   8.6086675e-01  -3.7113367e-01   7.7938928e-01  -4.1576928e-01   8.5951436e-01   2.4387932e-02   4.2299410e-01   3.7407668e-01  -9.2233574e-01   3.4260167e-01   4.5187789e-01  -6.9063001e-01   6.1961706e-01   5.2858651e-01  -5.5168998e-01   5.7687625e-01   4.4563618e-01   7.7999789e-01  -9.3240840e-02   1.5546020e-01   1.4216278e-01   3.1776901e-01   9.5081275e-01   7.2892394e-01   3.3674582e-01   2.9381086e-01  -1.9177155e-01  -3.9946365e-02   2.1417322e-01  -5.8675177e-01  -2.9819875e-01   1.7802713e-01   9.3455560e-01  -6.5130739e-01  -7.6632476e-01  -4.2418789e-01   6.4884413e-01   5.9771721e-01   3.6049252e-01   5.5752891e-01  -8.4621302e-02   6.2299977e-01  -9.1661067e-01  -3.6832231e-01  -7.0750540e-01   6.4730644e-01  -3.4346650e-02   5.7169665e-01   7.4029693e-01  -9.5299915e-02  -2.8446117e-03  -7.2716884e-02   4.7656001e-01  -1.5647218e-01  -8.5855574e-01  -9.5456681e-01   5.7482332e-01  -3.1920837e-01  -4.8466700e-01  -6.3580267e-01   7.2592145e-01  -9.0229000e-01   7.9326091e-02   4.2599285e-01  -6.2346942e-01   7.9951983e-01   4.1310665e-01  -4.2969218e-01  -3.2589988e-01  -7.2691822e-01   1.4609262e-01  -5.5195557e-01  -7.3684283e-02   4.9078260e-01  -3.8094560e-01   8.4206214e-01   4.6913657e-01  -6.4421416e-01   6.4270558e-01  -1.0055235e-01  -3.9962123e-02  -9.4376722e-01  -1.9347779e-01  -4.5121133e-01   7.2245970e-01   1.5355507e-01  -5.5529277e-01  -7.0995160e-01  -9.9109819e-01   5.7133402e-01   5.2469069e-01   9.4812940e-01  -1.7485359e-01  -4.1691487e-02   4.6465675e-01  -1.9645878e-01   8.4372854e-01  -4.6414350e-01  -6.5030718e-01   1.6387798e-01   3.7457085e-01  -5.9107952e-01   7.6764521e-01  -7.0703829e-01   6.5527658e-01   6.6971588e-01   6.3830115e-01   7.8159699e-01   3.7459199e-02  -8.2871124e-01  -3.5686649e-01  -2.5278473e-01  -6.5603015e-01   7.8327149e-01  -4.9895108e-01   6.3056997e-01   9.0234488e-01  -9.7422852e-01  -6.2689448e-01   7.1584247e-01   4.1089813e-01   2.0538455e-01   7.4461830e-01  -4.9585535e-01  -4.3604698e-01   4.8675479e-01  -7.6746965e-01   1.1540470e-01   9.3117904e-01  -4.4655054e-01   9.3743491e-01  -8.1308042e-01  -9.2543505e-01  -1.0344610e-01  -5.6281696e-01   5.1804566e-02   2.2684309e-01  -1.0064023e-01   8.7879207e-02   1.0324634e-01   4.3166830e-01   1.0838854e-01   5.5389807e-01  -7.6846629e-01   9.0773955e-02  -9.4351905e-01   2.1476510e-01   8.7254570e-01   7.1120002e-01  -3.3652263e-01   8.7979135e-01   2.0273205e-01  -3.9187610e-01  -5.4587845e-01   7.4176704e-01  -7.9268894e-01   4.1960066e-01   1.5760356e-01  -2.8793898e-02   3.9905095e-01  -1.8627483e-01  -6.0208992e-01  -2.8778376e-01  -3.2455713e-01  -6.6932670e-01  -3.8238886e-02  -1.8784595e-01   7.3240377e-01  -9.8961551e-01  -2.0558351e-01   8.4444696e-02   3.8274560e-01  -4.7669330e-01   9.5963573e-01  -4.5748070e-01  -6.0839366e-01  -5.7980817e-01   9.4702717e-02  -9.7963432e-01   3.6457556e-01  -6.6714438e-01   4.8835343e-01  -5.3277717e-01   8.8741037e-02   9.7251008e-01  -4.1218926e-02   6.5339461e-01   8.7463145e-01   5.5804956e-01   3.1006328e-01  -5.3854491e-01   5.7115960e-01  -5.6508580e-01   5.4030632e-01   1.4327357e-01  -3.0277514e-01  -3.1529540e-01  -1.0089855e-01   6.7291337e-01  -5.8418334e-01   4.1597307e-01   8.9031729e-01   1.7060831e-01   6.7651289e-01   9.3249242e-01  -7.9525667e-01   1.4992255e-01   6.9988324e-01  -9.2446526e-01   2.7055841e-01  -7.6820354e-01   4.8238082e-01   8.3773228e-01   7.4967098e-01  -6.3744435e-01   4.6787304e-01   1.9762554e-01   2.7769910e-01   5.2479554e-01  -7.1217787e-01  -6.0778730e-01  -2.5839286e-01  -9.7869055e-01  -7.9292032e-01  -7.8199375e-01   8.8968444e-01   4.9801155e-01   7.2836023e-01   8.0395755e-01   5.9459773e-01  -6.1159172e-01  -5.4575890e-01  -3.0916148e-01   4.8353843e-01   8.8553360e-01  -8.0417912e-01  -7.4106747e-01   7.5352466e-01  -9.7454842e-01   1.4734350e-02   2.0326727e-01   4.7461056e-01  -5.9212354e-01  -9.4996066e-01   8.3444355e-01   5.2651078e-01  -8.4271530e-01   9.4702122e-02   2.6887013e-01  -8.0637370e-01  -7.5121825e-01   1.9970614e-01   2.6926421e-01   7.0505911e-01  -8.6525159e-01  -2.3958683e-01   7.8970617e-01   3.9040200e-01  -5.0272069e-02   4.9844183e-01  -9.7753201e-01  -9.9085693e-01   9.9385512e-02   7.4412015e-01  -4.6272646e-01  -1.3607490e-01  -1.1832806e-01   1.2989084e-01  -6.9288746e-01  -5.8872210e-01  -8.7739126e-01   2.5855950e-01  -3.7541712e-01  -2.9015120e-01   4.2664964e-01  -1.2710462e-01   6.7155235e-01   7.7365362e-01   8.7338811e-01  -7.3874792e-01   4.7349411e-01  -7.6971466e-01  -2.9663867e-01   5.7787450e-01  -4.1821517e-01   3.8186496e-01   2.2108419e-01  -5.3957051e-01   1.7714852e-01  -9.0758641e-01   5.2047417e-01   4.4064785e-01   2.5021919e-02   9.1762912e-01   6.2490930e-01  -2.4349105e-02   3.9305774e-01  -6.9447271e-02  -1.9486778e-01  -6.7032567e-01   5.5780253e-02   2.2581655e-01  -9.5693928e-01   7.4560233e-01   9.7695533e-01   1.9152201e-01   4.4843094e-01  -1.0822286e-01  -2.1844014e-02  -4.7009589e-01  -1.5987586e-01  -4.9515664e-01   6.4044402e-01   1.4888418e-01   9.7067820e-02  -4.5509571e-01  -2.4952716e-01  -2.4595890e-01   6.6411120e-01  -8.3033064e-01  -5.5087448e-01  -3.8603671e-01   4.3218784e-01  -2.8451513e-01  -1.0058121e-02  -6.8113757e-02   1.1452609e-01  -6.7990942e-01  -9.1250439e-02   3.5420363e-01   7.2359675e-01  -3.9820022e-01  -8.5950942e-01   1.3655116e-01  -8.3014402e-01   3.1838951e-01   5.6194387e-01   6.7698997e-01  -6.8644262e-01   7.7947013e-01   5.4505909e-02  -9.2182546e-01  -9.2121382e-01  -1.5275043e-01   2.2582510e-03   5.3443459e-02   9.2751305e-02  -5.3414416e-01   8.5988845e-01  -3.3916328e-01   8.5251243e-01   7.8510353e-01   9.9569991e-01   8.7279154e-01  -2.8561744e-01   5.7187447e-01   7.5161140e-01   6.6248605e-01   5.8275137e-01   2.8105070e-01  -6.4391238e-01   6.7894016e-01  -7.9902908e-01  -1.4148089e-03   2.0030576e-02  -3.1853196e-01   8.7914834e-02   7.5892877e-01  -3.4211989e-01  -9.2394753e-01   9.2971011e-01  -6.4424895e-01  -6.0430643e-01  -5.4111856e-01   2.9280511e-01   1.7726466e-01  -6.0393233e-01   2.7474046e-01  -6.3272820e-01  -2.6838879e-01  -5.0046953e-01   9.2246819e-01  -9.4966250e-01   8.9261599e-01  -5.0855973e-01   8.6206836e-01   2.6976684e-01   4.0090519e-01  -7.4783758e-01  -8.5933297e-01   1.3097491e-01   4.3942727e-01   2.0987365e-01  -1.4491425e-01  -4.3406378e-01   7.0692958e-01   6.9772280e-01  -9.7255315e-03  -7.1856178e-01   6.8941921e-01  -8.1853547e-01   6.3509625e-01  -3.3290908e-01  -2.9902265e-01  -6.4562601e-01  -5.0978574e-01   2.1347680e-01  -1.2311956e-01   7.8948497e-01   5.5625632e-01   1.0258245e-01   9.7308140e-01   7.5850350e-01   6.1746366e-01  -4.9876154e-01  -7.5019185e-01   3.4302429e-01  -6.9206895e-01  -7.1889730e-01   4.5472683e-02  -6.3872983e-01  -2.6227691e-01  -8.6025885e-01  -5.3227710e-01   6.1090482e-01  -3.6562685e-01  -3.4590847e-01  -2.9439264e-01  -5.1510052e-02  -8.6509921e-01  -2.0569783e-01   6.5077780e-01   8.0979183e-01  -4.0137430e-01   1.4018515e-01   8.3027060e-01  -6.8621678e-01   3.8590630e-01   2.8405274e-01  -6.8773005e-01  -9.6118090e-01   3.0870163e-01  -2.9319110e-01   6.2268406e-01  -5.4242023e-02   3.4912852e-01  -6.6086887e-02  -8.3731515e-01  -5.1445228e-01  -6.4667355e-01  -7.1328294e-01  -2.3196268e-01   4.4856174e-01   1.9161169e-02   2.2066338e-02   4.3668891e-01  -5.0338325e-01   9.3215153e-01   9.0355821e-02   3.4619291e-01  -1.5529724e-01   6.6056442e-01  -5.6743855e-01   9.6139171e-01  -8.0405856e-01   3.9709115e-01   7.3058664e-01  -8.7076707e-01  -7.5353253e-01   6.4515366e-01   2.1126863e-01  -1.5796171e-01  -8.1933069e-02  -9.0382258e-01  -3.6199177e-01   9.2769562e-01   4.4657021e-01   7.5958974e-01   4.7003241e-01  -1.2041603e-01   4.9547574e-01  -8.9424007e-01  -6.1674553e-01   2.6973435e-01   7.8891484e-01   8.6325893e-01   4.0705535e-01   3.4082802e-02  -6.7539950e-01   4.5024679e-01  -8.0504885e-01   4.2099937e-01   5.9320541e-01   1.2515844e-01   5.1170580e-02   4.5885718e-01  -7.9496640e-01   9.8855160e-01   4.2793016e-01   6.1847806e-01   4.4809191e-02  -4.4410116e-01  -3.3043168e-01   4.6989067e-01   6.4851086e-01  -9.6118911e-01  -6.3626173e-01  -8.5173505e-01  -7.6224818e-01   2.8982398e-01   2.7458823e-02   8.5160534e-01   3.2325750e-01  -2.1194447e-02   7.9841409e-01  -9.2933587e-01   6.8205654e-01   7.7355283e-01   7.4431353e-01  -4.5125095e-01  -8.2258802e-01   7.3677829e-01   6.0211266e-02  -1.8113420e-02  -1.7255978e-01   3.2607928e-01  -5.7701818e-01  -8.4581807e-01  -4.5447707e-01  -3.4956897e-01   1.7975767e-01   8.6092496e-01  -5.5672783e-01  -9.4517088e-01   4.5261862e-01  -2.6389634e-01  -6.3277194e-01   3.0083965e-02   4.3491898e-01   6.6957950e-01  -2.7962504e-01  -1.2021357e-01   8.6675765e-02   8.5407952e-01   6.8346167e-01  -7.9057294e-01   3.1429935e-01   9.0980500e-01  -3.3008186e-01   3.4203875e-01   3.6777679e-01   1.4180832e-01   8.3963756e-01  -3.9772705e-01  -9.9487783e-01  -3.9231716e-01  -8.6081295e-01   8.3701567e-01  -1.8456462e-01   5.4268906e-01  -2.9104087e-01  -6.2405639e-01   4.4218223e-01   5.7068681e-01   7.4455243e-02   1.8114293e-01  -8.3535496e-01   7.6934915e-02   6.8132854e-02  -2.4980330e-03   8.2367684e-02  -8.1939067e-02  -4.5860136e-01  -4.0081400e-01   8.4442955e-01   8.9281885e-01  -9.2391560e-01  -8.6889485e-01  -3.9628116e-01   1.2181166e-02   9.4927632e-01   7.9377019e-01  -2.7114896e-01  -5.1616345e-01  -8.9011955e-01  -9.8181934e-01   2.7624794e-01  -8.5541978e-01  -5.6517967e-01   5.9612698e-01  -6.4465869e-01  -7.1425469e-02  -5.6515754e-01   6.9153427e-01  -2.4710780e-01  -5.9676316e-01   9.0004455e-01  -9.0814593e-01   2.6919069e-01   3.4062129e-01   8.7786808e-01   2.9039306e-01  -3.7851523e-01  -4.9791572e-01   9.2043791e-02   3.3781594e-01  -2.3910983e-01  -6.8860478e-01   7.2033055e-02  -4.6875683e-01  -6.4464600e-02  -3.0072077e-01  -8.5566208e-01  -2.8187305e-01  -4.3914484e-01   8.9435529e-01   1.8395178e-01   7.0822879e-01  -4.2160161e-01   3.2491078e-02  -2.2748609e-01  -7.8496723e-01  -6.1300380e-01   5.6770898e-02  -9.0708625e-01   3.8357041e-01  -2.1991266e-02   9.7854841e-01   9.7670821e-01   6.2564688e-01   5.9504196e-01   6.2678725e-01  -1.9392139e-01  -8.5478868e-01   2.6990603e-01   8.7087200e-01  -2.7155299e-01  -9.8805128e-01   3.6552352e-01   3.4321227e-02  -2.7553738e-01  -9.5304718e-01  -9.5489021e-01  -8.9267919e-01   5.5551720e-02  -5.8502986e-01   5.9728317e-01   2.3769855e-01  -7.7206313e-01   5.5617469e-01  -1.1352171e-01  -2.4319418e-01  -1.8574890e-01  -4.4996344e-01   5.0190467e-01  -9.0787757e-01   4.8783463e-01   1.4037753e-02  -1.1154560e-01   9.8312813e-01  -5.7063795e-01  -1.5308815e-01   5.8704053e-01  -2.2137352e-01   9.6244968e-01   3.2683145e-02  -3.7069422e-01   7.1996073e-01   6.5151996e-01  -2.4609249e-01  -4.2562045e-01  -5.3468285e-01   9.8807731e-01   8.7246350e-01  -8.5027980e-01  -4.3705657e-01  -8.0451509e-01  -8.4882469e-01   3.6718359e-01   9.1864328e-01  -9.8275372e-01  -2.1240121e-01   5.9032365e-01  -8.8735693e-01  -7.9248898e-01   9.0502616e-01   3.6262853e-01   5.0944564e-01  -5.3329172e-01  -1.7943653e-01  -3.0491688e-01   5.2506804e-01   8.5243116e-01  -9.8334146e-01  -5.6710217e-01   6.4252941e-01   1.2249872e-01   8.4150766e-02   5.6514463e-01   2.3042844e-01  -5.5739549e-01  -2.8460911e-02  -3.0059955e-01  -2.8986926e-01  -2.3999217e-01   5.4969909e-01   7.6929358e-01   6.6995547e-01  -4.8823473e-01  -9.4211099e-01  -6.1769447e-01  -7.5606759e-01   5.1647076e-01   2.4801647e-01   4.1081249e-01   2.5677614e-01   9.1414912e-01   4.2583302e-02   6.5934943e-02   2.7084276e-01   4.1175193e-01  -8.4261129e-01  -1.9793226e-01  -8.4260637e-01  -5.2542064e-01  -9.0030624e-02   2.0928631e-01   3.0028103e-01  -1.8067401e-01   1.1971922e-01  -2.4289992e-01   3.3890345e-01   1.5624757e-01   4.3462247e-01  -1.2858073e-01   5.9106829e-01  -1.7864884e-02   1.2183823e-01  -5.5539081e-01  -8.7294878e-02   4.8803440e-01  -5.0235425e-01  -4.3064306e-01   1.1074573e-01   7.0937602e-01   6.3743956e-01   4.0845154e-01  -5.5703586e-01   1.8900487e-01   8.2007945e-02   3.0731390e-01  -1.5791212e-01   9.0792346e-02  -6.7072201e-01  -8.8343212e-01  -9.4243602e-01   2.3515892e-02  -8.3465017e-01  -8.2805578e-02  -9.0474087e-01  -2.8452359e-01  -1.5016339e-01   9.1501022e-01   5.3677924e-01  -5.9546429e-01  -9.9104352e-01   7.1605207e-01   1.2893243e-02   5.0187823e-01  -2.9581447e-01   9.3062050e-01   2.7755533e-01   9.1224847e-02   5.6537541e-01  -2.4821879e-01  -2.8555710e-02   9.8018680e-02  -7.6189877e-01   3.4234724e-01  -3.5268963e-01  -1.9101382e-02  -5.8040780e-01   5.0446406e-01   1.3943319e-01   6.0293863e-01   5.6312099e-01   6.4024936e-01  -9.3122170e-01   3.3721492e-01   5.2558413e-01   6.8095673e-01   2.2860887e-01  -4.4189558e-01  -8.7090768e-01   6.4516389e-01  -1.6516093e-02  -2.2026970e-01  -4.3385847e-01  -6.8905527e-02  -3.6141840e-01   9.7027583e-01   5.0580715e-01   5.0873728e-01  -8.4091455e-01   8.9004544e-01   9.2589899e-02   7.0890921e-02   3.4113547e-01  -7.9110628e-01  -7.2684350e-01  -3.5761627e-01   5.6321546e-01   8.1607488e-01   9.9009188e-02  -9.2820725e-01  -7.9247046e-01  -2.4725714e-01   2.7896690e-01  -1.7351363e-02   3.4301936e-01   8.3647956e-01   9.6858772e-01  -6.2871585e-01  -5.9285728e-01  -6.4626060e-01  -1.4432175e-01   2.2291888e-01  -1.7412041e-01  -7.5395429e-01   1.7953061e-01   5.4956099e-01   8.1083222e-01   7.4624450e-01  -2.7589586e-01   7.1828909e-01  -7.7266548e-01  -9.2135167e-01   1.1204917e-01   8.6408680e-01   5.8547247e-01  -4.1931543e-01   9.5062082e-01   8.0927867e-01   1.8555011e-02   9.4091422e-01  -6.8985559e-01   5.8558923e-02  -5.3103055e-01  -4.9758979e-01   9.2251276e-01  -5.5662994e-01  -6.0107834e-03   5.1734871e-01  -7.8030370e-01   9.0470829e-01  -9.9118035e-02  -7.4229610e-01   8.1168964e-01   7.9305504e-01   2.9927670e-01   9.9794071e-02   6.2945124e-01  -6.7809724e-01  -9.7128372e-01   9.7508366e-01  -1.6191540e-01   5.7715855e-01   9.6479701e-02  -2.4692526e-01   3.7038071e-01  -4.4217950e-01   9.4109465e-01  -5.9806368e-01  -6.0886989e-01   1.8976987e-02  -2.0927933e-01   7.9177247e-01  -8.1631910e-01  -5.5500327e-01  -9.1058900e-01  -4.2337551e-01   8.9916357e-01   5.4384289e-01   4.8949197e-01  -2.7512323e-01  -4.4938659e-01  -4.6301918e-01  -7.6447322e-01   9.3403069e-01  -9.5456455e-01   9.3284710e-01  -6.2407957e-01   6.7437625e-01   4.4779079e-01  -6.9179750e-01  -5.2477727e-01  -4.5103167e-02   2.4665330e-01   3.4622947e-02   3.2834480e-02   7.0983508e-01   5.4610187e-01   1.4020605e-01  -7.1788020e-01  -6.3914185e-01  -6.1996636e-01   1.5898056e-01  -3.2849145e-01  -4.0543695e-01   8.1467822e-01  -7.2741412e-01  -8.6908158e-01   5.0224793e-02   7.2200607e-01  -7.2407959e-01  -1.4523031e-01  -1.6418976e-01  -7.7668332e-01   8.1156709e-01   1.9980066e-01   8.5561805e-01  -7.8839227e-01   2.2224291e-01   4.3918806e-01  -3.8295206e-01   4.0554925e-01  -5.1950505e-01   8.5452591e-01  -7.8324489e-01  -1.3041482e-01   2.3190671e-01  -3.5031204e-01   5.3803276e-01  -9.1155618e-01   2.8987922e-01  -7.4368289e-01   7.9780050e-01   7.7219307e-02  -3.8830975e-01  -8.6057867e-02   2.6664046e-01   3.5109001e-01   4.9924033e-02   4.9921625e-02  -5.6495673e-01   9.8082693e-01   6.7194340e-01  -5.4990627e-01  -9.1531831e-01  -1.9163073e-01  -4.5933357e-01  -3.8144122e-01  -5.1153412e-01   4.0783996e-01  -9.1211188e-01   2.0206032e-01  -2.9038952e-01   9.7199654e-01  -5.0089516e-01   9.3169634e-01  -5.5745047e-01   2.4855519e-02  -6.6882571e-01  -2.6926829e-01  -1.7478574e-02   6.7183278e-01  -2.7930979e-01   5.9856354e-02  -9.5041812e-01   7.4824786e-01   9.2858736e-01  -4.9431834e-02  -3.7674844e-01  -2.7352380e-01  -6.7874903e-01  -9.6182137e-01  -1.0303668e-01   9.4027815e-01  -8.0051647e-01  -7.3067058e-01  -2.5137708e-01  -5.3153382e-01   8.7183506e-01   4.3519819e-01
  -3.2290263e-01  -9.4362776e-01   5.7607216e-01   3.3777874e-01   9.2395654e-01  -1.8551670e-01   4.4788961e-01   3.1894871e-01  -8.0851991e-01   1.9397081e-01   5.2388215e-01  -7.0804247e-01   2.6192734e-01  -4.1964813e-01   8.6907433e-01   2.5835747e-01  -2.5847539e-01   4.1527389e-01   2.8880386e-01  -2.0523451e-01   6.1943731e-01   1.9834342e-01  -7.5655236e-01   6.2670035e-01   8.0719262e-01   3.6216866e-01  -8.0615870e-01  -7.7652913e-01  -9.7885652e-01  -6.3485620e-01  -7.5033048e-02  -3.3475616e-01   8.0775079e-01   9.8026577e-01   5.1190571e-01   6.0669914e-01   4.4702794e-01   5.2039872e-01  -4.6816396e-01  -5.0730307e-01  -6.6479697e-01  -8.0683521e-01   3.5661460e-01   1.9319528e-01  -5.9740567e-01  -7.5925242e-01  -8.8387466e-04   3.9052863e-01   6.2154798e-01  -5.8266783e-01   5.7174722e-01   3.4204549e-01  -5.4273235e-01   3.4951274e-02   9.4390973e-01   1.5086755e-01  -4.4484333e-01  -9.0807281e-01  -6.1602142e-01   3.3941804e-02  -4.6554116e-01   9.1022553e-01  -9.8414831e-01   4.0827935e-01   6.8591301e-01   6.5497310e-01  -2.3200609e-01  -9.0352412e-01   1.3546268e-01   5.7218079e-01   3.5153139e-01   9.4878072e-02   5.0269024e-01  -8.4287288e-01   4.5637171e-01  -1.2553673e-01   6.2782084e-01  -1.2703136e-01  -1.9449115e-01  -9.0463885e-01  -2.7162391e-01  -4.5000432e-01  -3.4640180e-02  -5.8362596e-01   2.0601668e-01  -7.5676961e-01   8.0777597e-01  -7.3016840e-01  -8.8328644e-01  -5.9349578e-01   5.2339969e-02  -3.9209020e-01   1.2557469e-01  -2.7805699e-01   2.6731451e-01   9.0064943e-01   4.2772753e-01  -2.8047785e-01  -7.7158805e-01  -3.2140538e-01  -6.0611167e-01   2.4336185e-01  -3.4650594e-01   3.4753969e-01   5.5895498e-01   7.9424298e-01   9.0679074e-01  -6.8327867e-02   1.5894059e-01  -7.8800292e-01  -7.6544634e-01  -5.3578439e-02   7.5728082e-01  -1.1656103e-01  -3.7546149e-01  -1.7541907e-01  -4.3929481e-01  -3.5051680e-01   6.3013173e-01  -6.4127079e-01   7.8196255e-01  -3.1066345e-01  -4.6667281e-01  -5.3303316e-01  -3.1309893e-01  -5.7989021e-01  -5.0006176e-01   3.9820357e-01   3.7843616e-01   7.5089027e-01  -5.5350027e-01   3.9938013e-01   2.8744891e-02   9.0186703e-01  -4.7298852e-01   2.6640906e-01  -6.3602626e-01   8.3311685e-01   8.0688818e-01   3.8890989e-01  -3.9638754e-01   5.2292125e-01  -2.4120908e-01   3.1419063e-01  -5.5178006e-01   2.1763791e-01  -5.2478257e-01   7.2035666e-01  -1.5558637e-01  -9.7026209e-01   8.7703587e-01   8.2458748e-01   7.8825657e-01  -5.5041667e-01   9.9549227e-02  -4.4006213e-01  -5.4554737e-01  -7.2035501e-01  -1.0466804e-01  -6.2127218e-02  -5.0500664e-01  -3.8700235e-01  -9.5642784e-02   5.4221618e-01   3.8300070e-01   1.1530093e-01   8.4617769e-01   9.6669898e-01  -2.9842405e-01  -2.3415023e-01   4.9584385e-01  -8.4558264e-01  -9.8810746e-01   4.9415669e-01  -7.4635424e-01  -1.1688951e-02   4.7922496e-01  -4.7753769e-02  -7.2677230e-01  -6.9818470e-01   9.3909764e-01   5.4583981e-02  -9.2713395e-01   3.1790184e-01   7.6432874e-01   3.9220726e-01   8.5650146e-02  -8.5878215e-01  -8.4072291e-02   2.4326077e-01  -1.6141596e-01  -5.8794836e-01  -3.5873054e-01  -1.6308232e-01  -6.9265028e-01  -5.2307720e-01   6.9878263e-01   6.2109566e-02   3.0531477e-01  -2.3482759e-01  -4.1657303e-01   7.3054556e-01   2.7466904e-01   6.2263297e-01  -8.9771107e-01  -7.7401635e-01   2.4161383e-01  -1.4347276e-01  -5.0817896e-01   6.4015281e-01   7.6548937e-02   1.2290741e-01   4.8800056e-01  -5.9683707e-01  -8.2170609e-01  -3.2636652e-01  -2.0617890e-01   4.7345867e-01  -1.4964254e-01   7.6187002e-01   4.2824491e-01   6.1112385e-01   3.8571340e-01  -4.9676100e-01  -7.8410244e-01  -3.9418009e-01   5.2172855e-01  -1.9341367e-01  -3.7216471e-01   3.1943158e-01  -8.9295604e-01  -5.4156637e-01  -8.8189967e-01  -8.5311084e-01  -1.7007979e-01  -1.8607554e-01  -9.5641057e-01  -7.5427722e-02  -2.8338348e-01  -3.4325805e-01  -3.0824753e-03   3.2686421e-01  -2.0734713e-01  -7.4283569e-02   4.9914651e-02  -9.6981593e-01  -6.1468937e-01  -9.0380535e-02   8.7912132e-01   3.4526591e-01   8.2817583e-02  -6.0298012e-01   9.8758726e-01   1.1891903e-01   9.2002606e-01   6.6267251e-01   9.5795276e-01  -3.1232593e-01  -7.4139382e-01  -4.6720445e-01   6.6793517e-01   9.9360469e-01  -4.3108903e-01   4.9366800e-01  -6.0629667e-01   5.9702322e-01  -3.3675016e-01   1.5452991e-01  -2.3259731e-01  -9.1348820e-01  -5.3793923e-01   5.7330299e-01   9.0119508e-01   6.4809572e-02   6.1704836e-01  -6.5576612e-01   9.6169198e-01  -7.0630592e-01   5.0240707e-01   9.7258142e-02  -2.6670054e-01  -9.8833314e-01   1.4919728e-01   7.3197830e-01   9.4912512e-01  -9.3698603e-01  -3.7119948e-01   9.8706758e-01   3.6862610e-01  -7.1741262e-01   7.3879361e-01   7.8305637e-01   2.3449991e-01   8.8977462e-01   6.5513749e-01   9.8695156e-01  -4.6538402e-01  -2.1100361e-01  -7.4568940e-02  -8.7358458e-01   8.1668472e-01   8.5001088e-01  -8.2926423e-01   5.6072505e-01   3.2101458e-01  -6.5612576e-01  -5.3619385e-02   6.3650215e-01  -9.9743470e-01  -8.9375028e-01  -6.0254189e-01  -3.2488019e-01  -4.3158474e-01  -5.4239971e-01  -6.3069436e-02   5.0399235e-01  -7.9153623e-01   6.4569683e-01  -9.1129374e-01  -5.7924505e-01  -6.1691524e-01   7.6739633e-01  -2.0440196e-01  -9.3765171e-01  -5.7565353e-01  -6.0076083e-01   7.9210333e-01  -2.6454223e-01  -4.3834363e-01  -6.0790611e-01  -6.2336227e-01   1.2985387e-01   8.4398415e-01   8.2487375e-01   2.0386183e-01  -6.4384142e-02   4.4143488e-02  -8.2316343e-01   3.0794491e-01  -6.2480982e-01  -2.5022882e-01  -2.5854777e-01  -4.1358880e-01  -8.8429437e-01  -9.4171174e-01   5.9052666e-01  -5.6125118e-01   2.8956595e-01  -8.3573733e-01  -9.3263226e-01  -9.2053860e-01   7.7545649e-01  -9.7985802e-01   5.0432266e-01   1.4285027e-01   6.3243879e-01   7.6942118e-01  -8.5472514e-01   1.9740463e-01  -4.6086748e-01   7.4209421e-01  -1.8038974e-01  -4.3819594e-01  -5.7088255e-01   1.0964074e-01  -2.0089697e-01  -8.3517350e-01   9.6077131e-01   2.2757173e-01  -6.7028596e-01  -3.5241618e-01  -9.6811934e-02   5.1757243e-02   4.3741052e-01   9.1749743e-01  -2.9076490e-01  -8.9117764e-01  -6.0654212e-02   6.6074965e-02  -7.3529850e-01   5.6431819e-01   5.3688814e-01  -5.8446534e-01  -7.9620208e-01  -1.6325932e-01  -1.2131993e-01  -3.5944482e-01  -7.4618114e-01   6.2316377e-01   9.8794922e-01   3.6496712e-01  -4.2370118e-01  -4.9295286e-02  -6.9295711e-01   9.8857484e-02  -5.0605668e-01   2.3545125e-01   9.5999380e-03   5.7047094e-02  -2.0581531e-02   3.1265009e-01   2.8312576e-01  -5.3042076e-01  -6.3071023e-01  -5.0242411e-02  -9.1631860e-01   1.0702450e-01  -1.9524598e-02   3.2730712e-01   8.1244174e-01   1.7071627e-01  -3.1953049e-01  -6.5454668e-01   9.9536497e-01  -8.9798047e-01   6.1730950e-01   4.2116286e-01   5.9883322e-03   3.2791489e-01  -4.0714262e-02   6.0771847e-01   6.4984363e-01   3.4157652e-01   7.6415358e-01  -5.0413698e-02  -3.8039245e-01  -5.2594202e-01   2.2192934e-01   3.4579095e-01   8.8362662e-01  -7.4459047e-01   2.5004485e-01   7.6248466e-01   4.6622749e-02   2.3915709e-01  -2.7287029e-01   9.6015035e-01   1.4372244e-01  -4.2719204e-01  -1.8327454e-01   1.1377623e-01  -7.1154458e-01   3.3459076e-01  -3.9856596e-02   6.7463152e-01  -4.4656792e-01  -4.6263544e-01   4.9245210e-01   6.5445401e-02  -1.5167576e-01  -4.7513601e-01   2.4000497e-01  -6.4288454e-01  -9.9867634e-01   5.8907242e-01   1.3041791e-01   6.8873851e-01   1.8032436e-01  -6.7609535e-01   5.6891687e-02   6.4435003e-01   2.2086907e-01   6.5963677e-01   7.7950218e-02   3.7281203e-01   1.0184690e-01   7.0534388e-01  -9.4457621e-01  -4.0191155e-01   2.5375445e-01   9.2234418e-01  -6.3889298e-01  -8.5532253e-01  -7.7104795e-02   3.4320088e-01   4.6834390e-01  -8.8968508e-01   1.7628496e-01  -1.6064850e-01   3.2745524e-01  -5.7033117e-01   8.7443072e-01  -1.6541560e-02  -5.2220674e-01  -3.1502694e-01  -8.3427571e-01   9.8798662e-01   9.9171836e-01   9.4177902e-02  -2.1352403e-01   2.0453979e-01  -7.4136292e-01   7.2569409e-01   6.6238908e-01   9.8408366e-01   2.8894426e-01  -4.6104759e-01   1.6470844e-01   7.8795328e-03  -7.6205014e-01   9.2067882e-01  -1.9670716e-01   4.0011451e-01  -7.6539255e-01  -7.0510683e-01  -8.7339662e-01  -9.5632073e-01   8.4728074e-01   2.9449238e-01  -3.1522940e-01  -1.2249021e-01   2.9214884e-02  -7.6868092e-01  -9.1124287e-01  -3.8740308e-01   9.8943216e-01  -6.4876277e-01  -1.3754807e-02  -2.2236117e-01  -7.6948490e-01   7.5496269e-01  -4.9024130e-01  -6.8141739e-01  -1.0099006e-01  -4.9632740e-01   5.1098323e-01   7.1177454e-02   7.7800816e-01  -3.8438678e-01   3.8268001e-02   1.1001753e-01  -1.0490553e-01   5.9143528e-01  -5.5533638e-01   1.6671171e-01  -8.5458819e-02  -4.1476950e-01   8.9846856e-01  -7.9463493e-03  -9.2981602e-01  -1.3828649e-01   4.8395601e-01   4.5727589e-01   5.3818672e-01  -7.6591604e-01  -8.9236358e-01   8.4490546e-01  -9.1745454e-01   6.7998312e-01   5.3390014e-02  -7.4143423e-01   7.7422954e-01  -6.3437827e-01   7.8599032e-01   9.4781943e-01   9.2625994e-01   3.9019595e-02   8.8426638e-01  -1.0436795e-01   6.9458020e-01  -4.9981687e-01   8.8782938e-01  -5.7322044e-01   4.5234726e-02   2.4418432e-01   7.3849777e-01   7.7494214e-01  -6.0861627e-01   2.0657368e-01   2.8596645e-01  -8.5729283e-01   3.8007179e-01   5.1743120e-01  -8.5052793e-01   8.7952110e-01   6.0837006e-02  -7.4621398e-01   6.9401714e-01   1.5719795e-01  -1.8999915e-01   4.4764201e-01   9.2598098e-01   6.6556449e-01   3.3146984e-01  -6.3323993e-02  -4.5168242e-01   2.8404529e-01   9.5446270e-01   4.2926578e-03   6.6244044e-03   1.1388678e-01  -6.6359801e-01   1.7485076e-01  -5.6826883e-01   1.6842037e-01  -9.7525845e-01  -2.6752114e-02   3.8394180e-01  -5.0640931e-02  -7.1697191e-01   8.9864242e-01  -8.2438614e-01   2.4773985e-01   3.3576559e-02  -7.2575660e-01   2.8874464e-01  -7.0296967e-01  -1.0413309e-01   7.0422638e-01   7.7668750e-01   9.2072408e-02  -6.3465006e-01  -6.6587577e-01   5.8301701e-01   1.7770347e-02   3.1379999e-01  -6.2608430e-01   8.5247269e-01   6.7441354e-01   9.3949214e-01  -3.5012565e-01  -5.9798670e-01  -3.0454184e-01  -4.1919420e-01   6.1101244e-01   6.1369271e-01  -7.7292501e-02  -6.7604150e-01  -7.0868131e-01   6.5739647e-01  -8.4147555e-01  -2.2699739e-01   3.9891442e-01   9.6597764e-02   2.9373470e-01   2.7080333e-01   7.8658994e-01   8.5342238e-01  -7.3003572e-01   3.0293294e-02   6.5988720e-01   6.0409777e-01   5.0262455e-01   7.7761694e-01  -5.8728476e-01  -8.7055415e-01  -4.8693716e-01  -4.1982982e-01  -8.1076268e-02   1.6835940e-01   8.1239417e-01  -1.6016461e-01  -7.8503071e-02  -3.8289781e-01  -6.8875386e-02   1.5575420e-01  -4.4655976e-01  -6.3907836e-01   3.0749035e-01   2.7075375e-01   5.6083760e-01   9.0108149e-01   2.2424240e-02   3.1080521e-01  -8.1902837e-01   2.4944672e-01   6.2622767e-01  -1.8713052e-01   5.4122764e-01  -1.6195379e-01  -1.9475505e-01   8.6073039e-01   6.2639397e-01   9.7394166e-01   5.7212535e-01  -1.1958563e-02   8.6752958e-01   8.0204159e-01  -2.4925883e-01  -3.1088227e-01  -1.9701791e-01   8.2624741e-01  -4.4195640e-01  -1.5133931e-01  -5.1593245e-01  -2.6278883e-01  -2.8189060e-01   2.8862043e-01   1.5475071e-01   6.7526705e-01   1.9889420e-01  -3.9961554e-02  -3.6306356e-01   2.7539270e-01   4.0503428e-01  -3.1811514e-01  -4.6855063e-01  -7.3266611e-01   1.6085136e-01  -3.3871370e-01  -5.9185748e-02  -9.7554895e-02   7.0568154e-01   7.2906539e-01  -7.2840213e-01  -9.8516499e-01  -3.1922985e-01   2.7127488e-01   6.3251668e-01   6.0718623e-01   2.6910755e-01   2.8077381e-01  -6.4676635e-01  -6.2536997e-01  -4.8436931e-01   1.0730852e-01   9.7383296e-01  -6.8242961e-01  -5.2317412e-01   2.5391212e-01   3.3294762e-01   1.3713804e-01  -8.2409730e-03  -3.9680975e-01  -2.6453382e-02   8.3144357e-02   2.5156669e-01  -3.6608064e-01  -9.1259325e-01   1.5259022e-02   4.8919564e-01  -5.3780816e-01   4.9537783e-01   9.6994860e-01  -4.7479029e-01  -6.3589056e-01  -1.1653046e-01  -8.2594312e-01   4.9082478e-01  -7.0561286e-01   3.7551331e-02  -8.6815926e-01   5.0181288e-01   5.7969600e-01   6.0553900e-01  -5.0705325e-01   6.4107378e-01  -6.4696111e-01  -6.8097952e-01  -5.6514334e-01  -8.0963479e-01  -4.2478632e-01  -8.3773131e-01   6.7182662e-01   8.5150755e-02  -5.5549663e-01   9.7318102e-01  -8.7394429e-01  -6.6381638e-01  -8.9849128e-01   5.5228349e-01   1.4479539e-01  -5.2528133e-01  -8.5762202e-01   4.1808245e-01   8.9861546e-01  -5.6190188e-01  -4.4516631e-01  -3.6873806e-01   6.0396416e-02   5.5694099e-01   5.6325102e-01  -5.0456690e-01   2.8922908e-01   5.5945716e-01  -7.2087581e-01   4.2979285e-01   5.4589664e-01  -8.9619212e-01  -5.7437032e-01   9.3262990e-01   4.6571194e-01  -6.8802029e-01  -3.6391295e-01   7.4969933e-01  -8.6151117e-01   6.1387458e-01   4.2879999e-02   5.9407868e-01   3.4372062e-01  -7.1906548e-01   4.0691399e-01   8.0569810e-01  -7.1654949e-01  -4.6490387e-01   7.0593714e-01  -6.7749013e-01  -8.7834965e-01  -5.4142205e-01   6.1302280e-01   1.7214728e-01  -1.0420816e-01  -4.8580907e-01  -9.8310029e-01  -6.1308325e-01   1.1860769e-01  -3.2640171e-01  -2.0335496e-01  -4.9821879e-01   2.2604041e-01  -2.4759115e-01  -2.7167305e-01   6.0304286e-01  -1.3600155e-01   6.7305740e-01   3.2065689e-01  -9.9473263e-01  -8.0009803e-01  -1.7994560e-01   1.1939451e-01   2.5995433e-01   7.3505110e-01   7.6635260e-01   8.8443210e-01   7.0441638e-01   8.2027610e-01   4.2357718e-01  -4.5982544e-01  -7.5693538e-02   6.3917940e-01  -1.5080863e-01   3.6243864e-01   2.6402208e-01  -6.5895075e-01   9.2318887e-01   1.1707444e-01  -4.5210271e-01   8.7015396e-01   9.3629180e-01  -4.9185227e-01   8.4017650e-01   7.6630000e-01  -1.6643386e-01   5.9614113e-03   3.9068240e-01  -7.4102123e-01  -3.3046508e-01   2.3378702e-01   8.7678827e-01   5.4047792e-01  -9.0909915e-01   6.1692330e-01  -4.9959045e-01  -3.3251351e-01  -4.4651343e-01   2.0606861e-01   1.2316115e-01  -6.2965388e-01  -6.6879097e-01  -1.5473423e-02   3.2806446e-03  -5.5153883e-01  -7.1323892e-01  -2.2859243e-02   5.9662015e-01  -8.1285889e-01   8.1184842e-01  -6.8592880e-01  -3.4859988e-01   4.8724796e-01  -8.1630304e-01  -8.0096407e-01  -6.2971194e-01   7.1788437e-01   8.4518951e-01  -3.8886201e-01  -3.6255800e-03  -5.0196009e-01  -1.1449280e-01  -7.5625186e-01  -5.5601499e-01   9.8178955e-01   5.3338135e-01  -2.7984760e-01  -8.4094685e-01   2.1075824e-01   1.7012868e-01   6.3283461e-01  -4.7433127e-01   7.9288587e-02   9.2244055e-01   7.2640318e-01  -8.1559624e-01   7.4258827e-01  -1.7004319e-01  -1.2646381e-02   6.7068054e-01   1.2440684e-01  -7.4691991e-01  -9.8949293e-01  -8.7541751e-01   2.6077323e-01   2.5837803e-01   5.5565375e-01   2.6691664e-01   4.1631067e-01   5.6409398e-01  -4.1829876e-01  -9.2436733e-01  -7.9084275e-01  -3.1865937e-01  -4.4748276e-01   8.0429019e-01  -2.6759718e-01   9.7623620e-01   4.8857715e-01   1.4284709e-01   5.1762387e-01  -7.3738886e-01   6.2388504e-01  -3.7377063e-01  -9.3269332e-01  -6.1895501e-01   4.0335580e-01  -9.1834634e-01   9.7826974e-01  -1.9702534e-01  -2.5734948e-01   4.9213112e-01   1.7001575e-01   4.3616261e-01   6.6597428e-01  -1.9704624e-01  -3.0826532e-01   8.9684540e-01  -6.4967263e-01  -3.9672860e-01  -1.1446208e-01   8.8814404e-01  -9.1269048e-01  -7.7200998e-01   7.8480444e-01  -4.2860282e-01  -8.4869193e-01   6.5825777e-01  -8.4151648e-01  -9.7544303e-01  -4.3694860e-01  -5.0275529e-02  -6.9271105e-01  -3.2496854e-01   1.2615448e-01  -2.3441060e-01  -9.5960308e-01  -8.4354062e-02   2.7017716e-01   7.7490491e-01  -5.5699490e-02  -2.5637141e-01   3.2173581e-01   2.2485648e-01   5.3278290e-01   7.1357260e-02   6.7500055e-01   7.6510804e-01   1.7192998e-01  -6.8574465e-01  -5.0450212e-01  -9.6713503e-01   2.3238544e-01   2.7491573e-01   8.7897921e-01   4.6461557e-01  -6.2180751e-01   4.4738526e-01  -1.7566256e-01  -8.1935594e-01  -2.8029430e-01  -4.1904030e-02  -6.4400814e-01  -2.3286899e-01  -6.3505451e-01   6.7829989e-01  -4.0395389e-02  -8.5166955e-01  -3.5700521e-01   6.0282248e-01  -5.6495633e-01  -5.2698788e-01   6.3484005e-01   9.8865163e-01  -5.0581937e-01  -4.1201988e-01   8.8911118e-01   2.1031061e-01  -5.3113774e-01  -1.1438647e-01   5.9571921e-01   5.0823369e-01   3.0657665e-01
  -6.2849449e-01   2.2475442e-01   5.4244413e-01   6.3461666e-01   6.0587662e-02   7.1088367e-01  -5.6316116e-01   1.6271995e-01  -9.3205228e-01  -3.0122526e-01   8.9879541e-01  -6.4408245e-01   1.1415339e-01   4.2520517e-02   6.7713966e-02   5.9545479e-01   5.0980881e-01  -1.3835297e-01  -2.0350409e-01  -4.4168404e-01   5.8570600e-02   1.6129737e-01  -6.4517621e-01  -2.0234234e-01  -7.5921288e-01   2.1176512e-01   8.2218704e-01   3.3843938e-01   3.0608076e-01   5.3687353e-01  -4.8653696e-01   8.6049504e-01  -8.5683121e-01   8.3665163e-01  -5.0250120e-01  -9.1668117e-01   1.6988904e-01  -9.5916661e-01   7.3870972e-01   7.7142618e-01   6.3517255e-01  -1.9035656e-01   4.6655324e-01   9.5890886e-02  -9.7057336e-01  -4.3970297e-01  -5.5549704e-01  -6.4835954e-01  -4.4228501e-01   9.2688889e-01   3.4554606e-01  -5.7856779e-01  -2.6437040e-01  -8.4390571e-02   8.7056201e-01   3.7401167e-02   1.7169622e-01  -6.2336246e-01  -2.3068007e-01  -5.5122934e-01  -1.4517759e-01   5.0404818e-01  -8.4144704e-01  -7.5757451e-01  -7.8446581e-01   1.6767436e-01  -2.6251080e-01   8.4684349e-01   4.4137063e-01   9.1663634e-01   4.8206532e-01   7.6551281e-01   1.1085027e-01   2.1304907e-02   3.4709226e-01   6.3912419e-02   6.7356828e-01   9.0848896e-01  -1.5355375e-01   5.7043819e-01  -4.2625387e-01   8.4159818e-01  -1.0452220e-01   8.2979751e-01   3.7993558e-01  -8.8764941e-02   7.6112995e-01  -2.3829580e-01  -8.4315678e-01   6.1860657e-01   5.3230965e-01   3.2253168e-02  -2.4060829e-01   4.3780829e-01  -1.3758642e-01   3.3921143e-01   3.7288452e-01   9.5754357e-01   8.5249025e-01   5.0496175e-01  -1.6211110e-01   4.1454724e-01  -6.1859598e-01   7.1603814e-01   8.1625678e-01   5.8473441e-01  -1.0992001e-01  -7.9350282e-01   7.0561243e-01  -1.9228451e-01   2.9117749e-01   8.8195049e-01   2.0057874e-01  -2.7313819e-01  -8.3942595e-01  -4.3765792e-01  -2.6578656e-01   4.7187626e-01  -4.2724130e-01  -1.0824910e-01   2.5878712e-01  -6.6790350e-02   2.2823784e-01  -4.7532880e-01   5.8189446e-01   2.4436489e-01  -8.4881040e-01   6.2789180e-01   5.3961890e-01  -9.2000895e-02   4.0668919e-01   7.5205642e-01   2.6908058e-01   9.0858534e-01  -2.0722691e-01   3.7789913e-01  -8.6753123e-01   1.4208284e-02   4.7644729e-01   1.8244934e-01   7.8443760e-01  -6.4503808e-01   9.0014978e-01   8.0116356e-01   2.0408028e-02   1.8863979e-01  -7.0671662e-01  -3.2418513e-01  -3.8884496e-01   1.9705237e-02  -9.9212121e-01   7.0673528e-01   2.7139690e-01  -3.2716237e-01  -1.1007033e-01  -6.0336944e-01  -2.6284938e-01   2.0761046e-01  -6.9466493e-02   8.5911710e-01   6.2574771e-01   4.4911385e-01   2.5819155e-01  -4.0525092e-01  -6.5540945e-01   9.9671345e-02   3.2106985e-02  -6.9517195e-01  -5.7426795e-02   1.4549394e-01   8.3661364e-02  -8.2587813e-01  -8.4934090e-02   4.7459115e-01   2.5353309e-02  -3.4651078e-01  -2.6931898e-01  -9.9416619e-01   5.8572547e-01  -4.8235668e-01  -1.6746194e-01  -3.0929647e-02   2.0741533e-01   4.4215861e-01  -7.0878460e-01   8.0173425e-01  -5.6099830e-01   7.9578019e-01   6.8193722e-01   1.8192588e-01   6.7506734e-01   8.6644004e-01  -5.2113637e-01   4.6993436e-01  -1.1526315e-01  -2.5162180e-01  -2.8611653e-01   5.3313789e-01   4.8287345e-01  -8.7468018e-01  -3.3694552e-01  -7.8606540e-01  -7.7831022e-01   7.1824172e-01  -5.6418242e-01  -9.9512958e-02   1.6572536e-01  -8.0384947e-01   5.9273789e-01   1.8984283e-01  -2.6151000e-02  -8.7091415e-01  -8.7384820e-01  -9.2711316e-01  -4.3259675e-01   2.2284616e-01   5.4674013e-01   3.8299265e-01   2.5633685e-01  -9.2611414e-01  -4.9642463e-01   9.4129771e-01   8.0252823e-01   7.2623919e-02  -9.3993178e-01  -4.1181953e-01  -3.6513692e-01   8.8815979e-01  -5.4207353e-02  -3.5064876e-01   6.1030408e-01   6.2138860e-01  -7.4320363e-03  -6.4311083e-01  -3.4992938e-01  -4.9296571e-01  -9.6691615e-01  -1.1402122e-01  -3.4624948e-02   7.8588460e-03  -8.1015123e-01   9.5339522e-01   5.8511078e-02   5.8626353e-01  -8.3917706e-01  -3.7749540e-01   6.3552197e-01  -8.6614442e-01  -3.7601717e-01   9.1494395e-01  -9.6425373e-01  -4.3838933e-01   9.3707707e-01  -8.5174938e-01   6.2017655e-01   1.5956873e-01  -1.0512702e-01   4.0481917e-01   6.5745451e-01  -1.8391495e-01   5.6775120e-01   2.4366313e-01  -6.5523864e-01  -9.3514314e-02  -4.6793659e-01   2.6391004e-01  -2.3784944e-01  -1.3730064e-01   2.3959095e-01  -9.6929358e-01   9.1107663e-01   6.5872472e-01   4.2140958e-01  -1.8685877e-01  -2.8299794e-02   7.9896869e-01   7.4082058e-01   4.6049132e-01   3.4331137e-01  -9.8622432e-01  -1.1249288e-01   9.3512359e-01   1.7216452e-01   9.8129366e-01  -5.3187590e-02  -2.8118819e-01  -6.4350566e-01  -9.9263271e-01  -4.1127713e-01  -2.5439456e-01  -2.1243146e-01  -5.1312323e-01  -3.5905331e-01   1.5867254e-01   4.5339221e-01  -2.0329472e-01  -4.0961733e-01   1.6584488e-01  -4.5365914e-01   4.7372305e-01   6.7003538e-01  -6.7975461e-01  -4.1517591e-01   3.4219121e-01  -1.8026226e-01   4.0698749e-01  -5.9229752e-02   5.7242612e-01   4.8387731e-01  -8.1943280e-01   4.7207245e-01   4.5699106e-01   5.9607013e-01   8.5954804e-01   7.6786176e-01   4.5576634e-01  -3.6410496e-01  -2.6123288e-01  -5.6029920e-01  -9.8377120e-01   7.9178298e-02  -1.7587572e-01  -4.1544807e-01  -9.1368951e-01   7.3258917e-01   2.9849165e-01   2.9681129e-01   1.1170068e-01   6.7576723e-01   6.5925980e-01  -6.8534299e-01  -1.6446602e-01   3.1716924e-01  -1.7266486e-01  -3.2350009e-01  -1.3204092e-01   9.3909943e-01  -5.5633337e-02  -3.2047462e-01  -3.0962038e-01  -7.7767984e-01   1.8095790e-01   2.8912864e-01   3.2124005e-01   6.6789071e-01  -5.8963237e-01  -6.9451962e-01  -2.1150496e-01  -8.1262296e-01  -7.3838353e-01  -6.9643604e-01   5.0410966e-01   9.3335802e-01  -9.9148689e-01  -9.7638047e-02  -7.3628015e-01  -2.8899862e-01   1.8393019e-02   1.9300188e-02   9.3515904e-02   7.7889795e-01  -4.8744467e-01  -8.1371283e-01  -4.0193473e-01   7.7338333e-01  -1.3006362e-01  -3.2329733e-01  -8.6940022e-01   6.2324915e-01  -2.8716543e-01   1.1878606e-01   6.3968509e-01  -1.8082219e-01  -9.2482997e-01  -2.1560180e-01   3.8966234e-02   1.0055740e-01  -9.0188902e-01   3.7729563e-01   8.0266477e-01   1.8397902e-01   1.5952980e-01  -9.5820779e-01   5.7108776e-01   5.2177738e-01   8.3092399e-01  -7.2606830e-01  -5.6265530e-02  -3.0498557e-01  -3.4808934e-01  -8.0744217e-01  -7.0915791e-01  -2.3147883e-01  -4.0044784e-01   5.7789000e-01  -9.1835770e-01  -7.4010633e-01   5.1834014e-01   9.6883188e-01  -3.1707828e-01   8.6643621e-01  -1.1648541e-01  -4.1641405e-01  -1.8637867e-01   2.4188293e-01  -9.0011138e-01  -9.9751488e-01   9.5918923e-01  -6.3068216e-02   5.1623821e-01   7.7232230e-01  -6.3143400e-01   6.5985362e-01   7.3933587e-01  -7.8888007e-01  -6.9069464e-01  -3.6293111e-01   2.4768448e-01  -3.5867723e-01  -9.0240595e-01  -2.7889944e-01   4.6637963e-01   5.4281771e-01  -7.0680395e-01  -1.1432097e-01  -3.3886479e-01   1.6407494e-01  -6.7285110e-01  -1.6197926e-01   4.9121995e-02   7.1051752e-01  -8.8763631e-01   5.4990522e-01  -4.8326848e-01  -4.3063220e-02  -3.5136783e-01  -1.9760153e-01   2.5493739e-01  -8.9312620e-01  -6.2483506e-01   5.7519549e-01   4.4444989e-01   6.3742739e-01  -1.8832825e-01   3.2377950e-01   8.7285132e-01  -9.7049659e-01  -6.2735951e-01  -7.6753476e-01   8.4228922e-01   4.3736724e-01   2.2379882e-01  -1.5189566e-01  -5.2455092e-01   3.0148454e-01  -9.7348533e-01  -1.9153221e-01  -7.7337801e-01   5.5009666e-01   2.3840537e-01  -7.5157217e-01  -2.0546265e-01   2.2894927e-01   9.4688882e-01  -7.0556952e-01   9.3209588e-01  -2.0991880e-01  -2.5603047e-01   4.1410958e-01  -7.5512867e-01  -1.1612344e-01  -1.1846043e-02   3.1558242e-01   5.0314110e-01   9.0294408e-01   7.2604436e-01  -9.2218886e-01  -6.7981249e-01  -4.3020423e-01  -3.1587727e-01  -7.2022041e-01  -8.8058911e-01   9.4912478e-01  -6.1155146e-02  -9.2540347e-01  -1.3228718e-01   3.1507650e-01   7.0587109e-01   3.0180587e-01  -4.1499163e-01  -2.4629058e-01   7.2457387e-01   7.0463998e-01  -9.9173901e-01   9.0813049e-01  -6.8662155e-02  -3.5288527e-01   2.7442952e-01  -8.3753156e-01  -5.5678251e-02  -8.4491674e-01  -3.0382931e-01  -3.3852639e-02  -3.8941070e-01   1.7679167e-01   1.4781199e-01  -8.3396911e-01  -3.2406091e-01  -8.7257674e-01   6.8776556e-01   9.2088109e-01   2.5257652e-01   6.0067349e-01  -4.7826366e-01  -1.9812686e-01  -4.7282882e-01  -5.5788095e-01  -6.2854401e-01  -2.8153846e-01  -1.5975138e-01  -7.8108469e-01  -1.7513474e-02   2.2968532e-01   4.3208264e-01  -1.2607066e-01  -2.1353414e-01  -3.8543521e-01   3.2116405e-01   9.4388102e-01  -5.3682645e-01  -5.2583260e-01   7.1873258e-01  -7.6683011e-01  -8.6164858e-01  -7.9045303e-02   5.9283668e-01   4.3177526e-02   1.9165087e-01  -2.6470375e-01   7.5171847e-01   6.1254505e-01   9.6535316e-01  -8.2157187e-01  -3.5430832e-01  -2.9043302e-01   1.4863379e-01   8.3301962e-01   1.0100635e-01  -7.5299119e-01  -1.3065487e-01  -8.4960177e-02   4.6606952e-01  -1.3461802e-01   9.8260816e-01   1.9375980e-01  -9.3986464e-01   2.9494170e-02   7.7209675e-01  -6.2142687e-01   8.4364649e-01  -3.5583738e-02   7.2525383e-01  -7.6968910e-01   2.3986095e-01   9.1076860e-01  -9.7496823e-01   3.7001777e-01   7.6711444e-01  -1.1387549e-01   3.9809145e-01   9.7528116e-01  -6.8713827e-01  -6.0736055e-01   1.4498583e-01  -7.6360121e-01   9.3214767e-01  -4.6584851e-01  -2.7118714e-01  -3.2194240e-01   8.0363576e-01   1.4813927e-01  -2.7304322e-01   2.2701691e-01  -9.9612821e-01  -7.8340916e-01   7.3124663e-01   2.7905062e-01   6.1421114e-01   5.7735733e-01   3.6129548e-01   3.3759047e-01  -5.1573773e-01   6.3463784e-01  -7.6815375e-01  -7.0502693e-01  -6.9927694e-01  -4.7764332e-01   7.7127936e-01  -4.0766459e-01   3.5530580e-01  -6.7866672e-01   7.2004361e-01  -4.2929071e-01   6.8464031e-01   5.1189535e-01   5.7347146e-01  -4.9164254e-01  -9.5605011e-01   6.0457821e-01  -6.4318637e-01   9.1007159e-01   3.9177197e-01   9.2398768e-01  -1.9694755e-01   3.3370553e-01  -6.4895829e-01   6.3320020e-01   2.2819541e-01   1.2738099e-01   7.7077350e-01   8.0713120e-01   2.1604540e-01   6.3920009e-01   5.0647906e-01  -6.5252498e-01  -4.3354129e-01  -7.6236622e-01   5.3680579e-02   8.8886562e-01  -4.8636121e-01   3.5550616e-01   7.0783101e-01   2.3263560e-01   3.1384183e-01  -8.0661711e-01  -6.1590938e-01  -1.5721216e-02  -3.9583102e-01  -6.2087385e-01  -3.2637252e-01  -3.0725087e-01  -2.2608077e-01   2.9549007e-01   8.3341257e-01   4.5918645e-01   6.2676062e-02  -3.1925115e-02  -3.6335963e-01   5.0618697e-01   1.6582278e-01  -2.6087608e-01  -3.8315189e-01   9.6380642e-01   4.0554274e-01   3.0674020e-01   8.0312398e-01   8.3492529e-01  -5.1068682e-01   5.3807427e-01  -3.5399784e-01   3.1431834e-01   3.4224692e-01  -7.8108722e-01   9.5395574e-02   6.6189792e-01   7.7115952e-01  -8.7497995e-01   5.9313047e-01   5.5165909e-01  -3.4900738e-01   1.7755816e-01   8.7847434e-01  -3.3851186e-03   6.5250363e-01   8.0121439e-01  -7.0743646e-01  -4.8005349e-01   2.2501729e-01  -7.5830811e-01   8.0010527e-01  -8.8037735e-01   3.2720037e-01   4.3226855e-01   2.7957804e-01   3.4402372e-02   4.1792770e-01  -5.6252256e-01   8.4620548e-02  -4.2928949e-01  -3.6022966e-01  -4.2712898e-01   2.5528427e-01  -8.7758378e-01   2.4308396e-01  -7.0216239e-01  -1.2919564e-01  -9.6132167e-01   7.8054605e-01   5.9384363e-01  -8.9946723e-01   2.6793946e-01   7.5672679e-01   5.4628487e-01  -1.2240865e-01   2.7115876e-01  -1.7578146e-01   9.6335009e-01  -2.5395962e-01   2.6241636e-01  -1.3362288e-02   7.0964822e-02  -9.1391354e-01  -3.6069950e-01   5.3704326e-01  -7.3997171e-01  -5.0337593e-01   4.6872589e-01  -4.0909102e-01  -5.0046433e-01   5.3016993e-01   5.8834291e-01   6.8461524e-01  -2.1128389e-01  -1.9623496e-02   2.8031737e-01   4.2920238e-01  -4.7595737e-01  -4.4866981e-01  -1.1923594e-01   7.9677169e-01  -5.9722361e-01  -4.9537778e-01  -4.0571709e-01   3.0872898e-01  -2.7999335e-01   2.5510672e-01   8.6745755e-01   1.8869846e-01  -8.8255617e-01  -1.1416123e-01  -8.1640576e-01   1.6299623e-01   2.8763323e-01  -1.2363433e-01   4.2330795e-01  -6.9884209e-01  -2.5461906e-01  -2.1302148e-01   9.5212471e-01  -7.1711104e-01   7.5559254e-02  -8.8464500e-01  -5.4746091e-01  -1.7525542e-01   8.9998899e-01   4.8234428e-01   6.9189299e-01  -5.0396781e-01  -3.7366883e-01  -2.0523070e-01  -4.5755309e-01   3.4835911e-01  -2.4703649e-01   9.6114574e-01   4.6275270e-01   6.2816604e-01   9.8824279e-01   6.0462872e-02   1.1179661e-01  -7.1988808e-01   3.5357693e-01   5.0419778e-01   7.1134560e-02  -6.0418874e-01   8.2480921e-01  -1.3122967e-01  -5.8393931e-01  -7.9477905e-02  -8.2958343e-01   9.7791894e-01  -2.0747991e-02  -3.0317161e-01   5.8676987e-03  -8.5781733e-01   1.4932829e-01  -9.6893490e-01  -3.2645621e-01   3.4414344e-01   7.1750237e-01   4.1631815e-01   1.5833962e-01  -5.7010242e-01  -5.5235758e-01   6.4718363e-01  -4.4948346e-01  -2.0872138e-01  -6.2125280e-02   2.9384833e-01  -4.2139505e-01   1.2701118e-01   3.1094637e-01   6.0593154e-01   9.3629046e-01  -9.3081381e-01  -3.8478674e-01  -4.7586728e-02   8.0996222e-01   9.7134228e-01   5.0056845e-01  -2.1106400e-01   8.8669165e-01   3.1301255e-01   9.1059048e-01   5.8718687e-01  -2.0894244e-01  -4.4821920e-01  -5.8032619e-02  -2.1446988e-01   3.4783774e-02  -6.4458998e-01  -4.3172117e-01  -2.7696904e-02   4.4861398e-01  -6.2046379e-01  -6.5238011e-01  -2.1942513e-01  -9.4954243e-01  -7.7554909e-01   9.4884450e-01  -4.6448098e-02  -1.8734781e-01   2.9745872e-01   3.6151671e-01   4.2507747e-01   1.6384378e-01   8.9000652e-01  -2.4263562e-01   5.7434348e-01   1.6204140e-01   4.7830257e-01   2.7772317e-01   1.8307633e-01   7.2434861e-01  -6.6934240e-01  -4.4533867e-02   8.6800283e-01   5.5939337e-01  -7.3043746e-01   5.8940886e-01  -8.6410606e-01   1.4137746e-02  -6.8009039e-02   1.3364695e-01  -6.6611878e-01  -9.3101986e-01  -8.8398297e-01  -1.2078010e-02   6.4622305e-01   6.8587548e-01   4.9617871e-01   2.9009522e-01  -2.6634077e-04   8.7417149e-01   3.8679945e-01  -5.8987245e-01   3.6850909e-01  -7.8581229e-02   1.1913073e-01   8.6978729e-01  -4.8052035e-01  -1.5658223e-01   5.2299942e-01   6.8806095e-02   6.5151060e-01  -5.7564676e-01  -5.4692795e-01   4.6098491e-01   4.5979546e-01   1.7117534e-02   1.1077452e-01  -8.0005315e-01   3.3586666e-01   8.7807681e-01   3.3934569e-01  -8.8930380e-01   4.0064679e-01  -6.5347311e-01  -1.8149798e-02   5.0348634e-01   4.1835846e-01  -1.3727368e-01  -5.4484398e-01  -5.1572532e-02   9.9173529e-01  -2.4390068e-02  -3.3448728e-01   4.2141730e-01   1.9937878e-01  -7.1200733e-01  -9.8942628e-01   8.9104042e-01  -5.6113473e-01   6.8818391e-01  -1.9891257e-01   8.5376309e-02  -3.0929838e-01   5.4690832e-01  -8.7271384e-01   2.2129959e-01   4.7831568e-02   2.7169121e-01  -2.4347665e-01   1.8812551e-01  -4.0953314e-01  -9.4335744e-02  -3.6652778e-01   3.9676445e-01  -4.5622986e-01   2.0877626e-01  -6.9856896e-01   1.5067263e-01  -8.7167540e-02  -5.6947854e-01  -8.2766880e-02   3.2464444e-02  -5.5574897e-01   3.3267487e-01   3.1244981e-01  -4.5049872e-01   7.0621206e-01  -7.1320676e-01  -8.4247480e-01   8.2047741e-01   7.3634459e-01  -2.3437519e-01  -2.7973092e-01  -8.8328208e-03   7.3733332e-01  -8.1927086e-01   5.4297173e-01   3.0630284e-01  -6.8110820e-02   5.8125252e-01   7.8881589e-01  -5.1340385e-02   1.4701188e-02   3.8139167e-01  -1.8747992e-01   7.5897475e-01   8.8161577e-01  -9.2868550e-01  -4.3971996e-01   3.1818441e-01  -8.1820451e-01  -5.4215446e-01  -4.8200144e-01  -8.2582538e-01   6.7156898e-01   4.2464465e-01   9.5794491e-01  -2.0515069e-01   8.4662197e-01  -8.0218910e-01   8.9072790e-01  -9.8611767e-01  -9.8094518e-01  -4.8218573e-01   6.7704240e-01  -1.3450340e-02  -8.2640211e-01   9.7180699e-01   8.1580727e-01   8.2655570e-01  -6.9898533e-01   5.8724008e-01   1.3046118e-01   7.8722284e-01   9.4653973e-01  -3.2222037e-01   7.6113647e-01  -7.8704699e-01   4.0540574e-01  -1.1675060e-01  -5.8633942e-01  -3.5718778e-01  -4.0669687e-01  -4.2546746e-01  -1.7344211e-01   1.7432966e-01   2.4096884e-01  -4.8588423e-01  -6.2857380e-01   6.6739605e-01   3.7397119e-01  -6.1223031e-01  -6.0762907e-02  -4.5067052e-01  -3.5054319e-01   3.3475268e-01  -4.4672969e-01
   6.7161468e-01  -4.1618602e-01   5.3881568e-01  -7.5219973e-01   5.1939492e-02   4.1083755e-01   2.4448585e-01   9.8864412e-01  -3.6577468e-01   3.4460853e-01  -1.3391629e-01   4.3959847e-01   5.6762194e-01   2.9640306e-01  -4.3472937e-01  -1.5349558e-01  -5.9879338e-01   9.8381995e-01   5.1001798e-02  -1.4399941e-01   4.5973395e-01   8.8424175e-01   1.5146735e-01  -2.8191162e-01   5.3671500e-01  -9.5979147e-01   8.2644414e-01   8.9105688e-01  -2.9987758e-01   1.9341531e-01   6.9983769e-01  -1.0744328e-01   8.5221409e-01  -9.4245106e-01  -3.2461690e-01  -2.7643741e-01  -7.5069550e-01   2.5683172e-01  -6.0089817e-01   4.1266836e-02   6.1404234e-02   8.8187740e-01   4.7316152e-02   3.1289398e-01  -5.7430245e-02   8.8263007e-01   4.3988527e-01  -1.3742791e-01   8.1505099e-03   1.5042445e-01  -7.2977378e-01  -4.7392694e-01  -4.6848005e-01  -2.4754439e-01  -1.0183967e-01  -9.2037079e-01   4.7064037e-01   1.8407642e-01   6.3143263e-02   8.0576418e-01   6.9542778e-01  -7.3914072e-02  -8.9588647e-01   5.8392249e-01   7.7219749e-01  -6.7102957e-01  -7.6124474e-01   8.4601035e-01   6.7479380e-03   7.6859028e-01  -2.5228069e-01  -4.7087664e-01   6.9796554e-01  -3.1500803e-01  -4.7209157e-01  -7.7804234e-01  -5.3014390e-01   3.4831321e-01   2.0159935e-01  -7.7369722e-01  -1.6530837e-01  -9.8808302e-01  -6.5066048e-01  -6.6765370e-01  -2.2254832e-01   7.9096328e-01  -8.3160093e-01  -1.1038222e-02  -9.5825986e-01  -3.1269835e-01   3.5425668e-01  -6.4843561e-01  -1.4927333e-01  -5.0469765e-01  -1.6653859e-01  -6.6665640e-01  -3.4845821e-01  -1.1611273e-01   1.1596472e-01   2.8750428e-01   6.1655836e-01   5.9315003e-01  -7.1954930e-01   4.5506666e-01   1.6607820e-01   7.6009213e-01   6.4607878e-01  -1.2584715e-01   3.5278322e-01  -9.9968319e-01  -5.8168774e-01   5.3849691e-01  -1.0199994e-01  -2.9908568e-01  -7.2146078e-01   4.5409276e-01  -7.6847377e-01   1.4512842e-01   9.5538474e-01   3.5113634e-01  -3.5780228e-01   8.6828473e-01  -8.4794767e-01  -7.7118914e-01  -3.8408651e-02   4.2878710e-01  -4.3318423e-01   5.7969310e-01   1.7550273e-01  -6.4960616e-02  -8.4669274e-01   6.6541580e-01  -9.0403783e-01   9.4564404e-01   2.9264814e-01  -6.6822836e-01   2.6364861e-01  -4.3655607e-01   1.9472973e-01  -5.6014713e-01  -9.6634719e-01  -1.4245292e-02   2.7945896e-01  -9.5145645e-01   1.2556136e-01  -7.6628267e-01   6.9608379e-01  -9.5203507e-01  -1.9198580e-01  -7.5764306e-01  -6.1231866e-01   1.5863862e-01  -5.8232796e-01   4.6764195e-01  -9.1500955e-01  -5.5917099e-01  -7.4094157e-01  -6.7535714e-01   4.3692736e-01  -9.6396397e-01  -7.6838273e-01   9.9916826e-01  -5.4774855e-01   5.2850933e-01  -5.4852901e-01  -3.4383377e-01  -6.4473979e-01   7.5024647e-01  -1.4935092e-01  -6.8542122e-01   8.9334721e-01   7.9778027e-01  -4.0929865e-01  -2.4372153e-02   5.5767895e-01  -7.5154770e-02  -5.8310783e-01   8.0186938e-01  -1.9610573e-01   9.0943204e-01  -5.3244526e-01  -1.6269088e-01  -4.0955503e-01  -9.1275526e-01   9.2626244e-01  -5.0066201e-01   3.0159243e-01   2.4584666e-01   7.9054031e-01  -8.8164158e-01  -5.2064168e-01   2.8877592e-01  -6.1064084e-01   3.8413373e-01  -7.6218456e-01  -3.3180809e-01   6.9625245e-01  -9.6711748e-01  -4.4189394e-01   7.3618706e-01  -9.9609599e-01  -2.4527071e-01   8.5454367e-01  -9.5434030e-01  -4.4956057e-01  -4.7840692e-02  -2.3015475e-01  -4.1909506e-02   5.2177269e-01   1.9891694e-01   2.3811555e-01  -3.0986519e-01   9.5745005e-01  -6.6296675e-01   5.1021804e-01  -8.7194489e-01  -6.5458576e-01  -9.6942091e-01  -1.9125881e-01   2.4416317e-01   2.1842151e-03  -6.9564936e-01  -3.8903193e-02  -2.1472488e-01  -8.4851326e-01  -6.8455743e-01  -2.1978928e-02   5.5095231e-01  -9.6128569e-01  -9.9367963e-01   1.6525366e-01   3.2712551e-01  -7.3873176e-01   5.6987271e-01   6.3459903e-02  -4.7442571e-01   7.0677044e-01  -3.6611434e-01   7.7919872e-01  -7.4424419e-01   5.8557236e-01  -4.5166417e-01   8.5642201e-01  -7.9071373e-01   5.7185537e-01   6.3942680e-01  -1.9311105e-01   9.4340053e-01   8.0721547e-01  -7.0765284e-01  -2.3159874e-01   4.0675524e-01  -8.9314827e-01   5.3065568e-01  -4.8330734e-01   8.0685808e-01   1.5291184e-01  -8.0158931e-01   3.5189081e-01  -9.8087657e-01  -1.5128614e-03  -9.3099935e-01   6.5751514e-01  -4.8366156e-01  -1.3092142e-01  -5.2323982e-01  -1.8046835e-01   5.3514868e-02  -3.7159649e-01  -7.1515208e-01  -8.0438287e-01   2.3748360e-01   5.4210804e-01   1.1770657e-01  -8.8660645e-01  -6.3646841e-01  -2.5855449e-01  -5.1134299e-01  -1.9369810e-01   6.4788907e-01   3.6035615e-01   1.6469620e-01   9.4123110e-01   9.4894740e-01  -7.8348649e-01  -6.8077167e-01  -3.1786593e-01  -8.9732013e-01  -9.8373926e-01  -2.8953762e-01   5.2170155e-01   8.4986847e-01  -8.2229523e-01  -6.7799886e-01   2.9738694e-01  -7.8183295e-01   9.4536598e-01  -9.8284796e-01   2.6337919e-01  -6.9193888e-01  -3.3444882e-01   3.1476320e-01  -2.0155558e-01  -8.3625298e-01  -2.6286043e-01   1.7195917e-01   4.7301962e-01   5.4127840e-01  -3.2885003e-01  -7.2814969e-01  -2.6733162e-01  -1.6707243e-01  -9.0922768e-01  -6.2043802e-01  -1.2668341e-01  -6.8831521e-01  -9.7327475e-01  -3.6268944e-01  -8.9246640e-01  -6.7604471e-01  -4.4553905e-01  -1.5622157e-01  -1.7897233e-01  -1.9918138e-01   7.2098785e-01   4.9829057e-02   8.9062266e-01   5.4909770e-01  -1.0312638e-01   2.9201478e-01   4.5276673e-01   2.9719175e-01   7.1937946e-01  -7.8705173e-01   9.8786457e-01  -4.9168922e-01   5.0314865e-01  -3.0844462e-01  -2.2216596e-02   1.7691930e-01   2.1568409e-01   4.4758478e-02  -7.2054195e-01   4.8704034e-01  -6.4351158e-01  -1.4439176e-01  -1.1806677e-01  -8.7173353e-01  -2.6038888e-01  -9.3943496e-01  -2.6639109e-01  -4.6054676e-01   3.6291338e-01  -2.8989115e-01   8.7366135e-01   2.0979093e-01  -5.3474351e-02  -5.5325430e-01  -3.1514989e-01   7.4112231e-01  -4.5274121e-01   1.4477033e-01   2.4770771e-01  -7.7661816e-01   3.0177393e-01  -1.7086539e-01   1.9690003e-01   7.8002127e-02  -1.0084707e-01  -2.6312785e-02  -2.4605164e-01  -9.4624958e-01   2.6597743e-01   1.7062064e-01   1.6152033e-03   7.2864181e-01   4.5638257e-01  -6.2931853e-01   2.8527470e-01  -9.3586917e-01  -1.4593206e-01   9.2474549e-01  -7.5810483e-01   5.3264615e-01   4.0618699e-01  -3.7867940e-01   8.8227399e-01  -2.8106457e-01   4.7764149e-01  -3.6305045e-02  -5.4639217e-01  -5.8201801e-01  -2.5654327e-01  -4.5164893e-01  -6.5347228e-01  -7.1058414e-01   9.2350678e-03  -9.8335094e-02   9.6567392e-01  -8.6860944e-01  -9.7605814e-01  -3.6914281e-01   3.5520804e-01  -3.4701663e-01   9.8377711e-03  -5.2926057e-01  -7.0730794e-01  -9.0016066e-01   9.7994562e-01   8.8228678e-01  -4.1712603e-02   8.1812202e-01  -4.0321257e-01  -9.9475795e-01   3.7244523e-01   2.4956875e-03  -5.6414589e-01   6.0735524e-01   2.2221691e-01  -2.9443602e-01   3.6993281e-01  -9.0433424e-01   9.7856786e-02   1.7267703e-01   7.6575717e-01  -3.1175818e-02   6.6623338e-01  -1.4108269e-01  -4.5524602e-01  -3.2885172e-01  -5.1487253e-01   1.5821707e-01   3.6299756e-01  -3.3648947e-01   3.9516406e-01   2.4267300e-01   8.4883503e-01   8.0088944e-01  -5.2134959e-01  -9.3590060e-01  -6.0046835e-01  -1.3213492e-01   8.2405601e-01  -8.4160481e-01   6.6780806e-01  -3.6529556e-01   9.4436355e-01   4.2065937e-01  -3.4049265e-01   2.4516700e-01   2.4465721e-01  -2.8022034e-01  -9.9414617e-01   1.1541220e-01  -6.5901619e-01   4.3219445e-01  -5.5923570e-02   5.6702238e-01   3.8780012e-01   2.8249080e-01  -3.5758714e-01   5.5149586e-01   1.0980085e-01  -1.8930470e-01   5.9228116e-02   3.6184613e-01  -1.2303141e-01  -7.9128067e-01  -7.9338506e-01   8.2290634e-01   9.2981554e-01   1.0053330e-01   8.2692059e-01  -8.3909834e-01  -7.6581185e-01  -4.4463327e-01  -5.2627688e-01  -5.1283047e-01  -3.7627939e-01   5.8529816e-01  -9.8525343e-01   8.7246713e-01   9.7389384e-01  -5.4261640e-01  -2.3578110e-02   5.8073203e-01  -8.2840299e-01  -9.6851928e-01  -3.4562711e-01  -2.5171743e-01   4.6807222e-01  -1.6934950e-01  -6.8039795e-01  -5.7841831e-01  -9.0600341e-01  -1.7683754e-02  -1.9391184e-01   5.9790581e-01  -8.1580955e-01   4.4984232e-01   1.9416968e-01   9.0261040e-01   8.8725534e-02   6.6651569e-02   8.5764826e-01   3.1564084e-01  -3.2702856e-01  -6.6149143e-01   7.1253312e-01  -5.9538080e-01   8.0653551e-02  -2.0810635e-02   6.5180833e-01   9.9976437e-02   1.1338106e-01  -8.2149958e-01  -4.0627851e-01   8.2403335e-01   4.1791397e-01  -6.1688407e-01  -9.2909524e-01  -4.1298286e-01  -9.1069948e-01   4.0413184e-01   3.3529844e-02   7.5872697e-01   1.8370884e-01  -8.9468461e-02   1.6538251e-01  -6.2601400e-01  -7.0300250e-01   9.2606465e-01   4.5337309e-01  -2.8572384e-01  -2.0899321e-01  -8.5239579e-01   4.3812549e-01  -9.8763754e-01  -6.2915201e-01   3.2811280e-01   1.3773027e-01  -9.8850393e-01   9.6136531e-01   5.9487985e-01   7.4053993e-01  -3.5631713e-01  -2.1116936e-01  -6.9375325e-01  -5.2832610e-01   3.3603036e-01   7.0788775e-01  -2.7238224e-01  -5.1048374e-01  -6.1721635e-01   9.8382657e-01   6.3477423e-01  -5.7394258e-01   9.1763828e-01   5.5690782e-01   1.1858788e-01   2.7788565e-01  -1.8961221e-01  -1.5093988e-01  -3.8180792e-01  -3.3819101e-01  -8.4289276e-01   5.8786057e-01   4.0092995e-01  -8.5755007e-01   7.8866623e-01  -4.4170857e-01   7.9486862e-01   6.8875566e-01  -2.4626650e-01   3.6084921e-02   7.5780277e-01   1.5884705e-01  -4.7496455e-01   4.6295869e-01  -5.8663984e-01   8.0062873e-01  -1.1288328e-01  -9.4568046e-01   8.7724973e-01   7.6367778e-01  -7.9317715e-01   9.1005833e-01  -1.0483148e-01  -4.3753570e-01  -1.8251222e-01  -9.9825436e-01  -1.9263344e-01   9.9521241e-01  -2.8238433e-01  -8.5958540e-01  -9.7963256e-01  -5.7579770e-01   9.2370970e-01   3.5790980e-01  -5.1898783e-01  -9.2573856e-01   7.0841403e-01   9.6742303e-01  -9.6408267e-01  -1.5730928e-01  -2.6174468e-02  -6.9961903e-01   8.7155202e-01   5.8768600e-04  -2.6878710e-01   7.2334912e-01  -2.6157722e-01   6.3477334e-01   8.1351784e-01   1.0621703e-01  -4.1859592e-02  -9.2068431e-01  -3.5317298e-01  -3.2199011e-01   1.4831331e-01   6.4861014e-01  -5.8181793e-02   6.7512599e-01   5.4175905e-01   6.9449410e-01   9.0542914e-01  -7.5480851e-01  -5.5899862e-01   9.9411475e-01  -8.6690035e-01   2.7632311e-01   1.0034662e-01   3.9758137e-01   1.9726042e-01   4.6066293e-01  -7.2776854e-01   2.9120070e-01  -1.7178801e-01   3.1926890e-01  -5.9389315e-01  -4.4606304e-01  -6.0177543e-01   2.4183384e-01  -3.7198994e-02   3.4907604e-01  -2.8243980e-01   8.5354741e-01  -7.1278503e-01  -1.5331732e-01   7.8040001e-01   2.9099923e-01   6.4190622e-01  -6.9245802e-01   4.7890017e-01   7.4767786e-01  -2.5406766e-01  -9.3851403e-01  -3.6923911e-01   8.3351798e-02   5.3742328e-01  -4.1316692e-01   1.8476667e-01   5.3092681e-01   7.3946135e-01  -2.0003122e-01  -1.3804344e-01  -3.4147356e-01   1.6857035e-01  -1.9980384e-01  -5.8638978e-01   1.1366124e-01  -7.1294497e-01   9.6536731e-01  -6.1606843e-01  -3.2851302e-01  -5.3093921e-01   1.3321431e-01   7.5910923e-01   7.2621057e-01  -5.2575193e-01   2.0367920e-01   1.8210336e-01   2.8342927e-01  -7.4334893e-01   7.1599182e-01   2.5420524e-01   7.6829245e-01  -7.6940368e-01   1.4981892e-01  -9.8670911e-01   3.1414219e-01   5.5246847e-01   6.8077965e-02   8.0884323e-01  -3.3560430e-01   9.3427392e-01   3.6012384e-01  -1.0326713e-01   2.9101011e-01  -9.6713555e-01  -7.1583706e-01  -3.3194268e-01   3.8012924e-01   8.3364017e-01  -3.1840261e-01  -1.7772859e-01  -9.7728822e-01   6.9171147e-01   7.4280296e-02  -4.1416708e-01  -7.7980123e-01   5.8312349e-01   6.6023559e-01   7.7382810e-01  -3.8420097e-01   7.1154443e-01   8.8665311e-01   1.9899913e-01  -4.0895428e-01   7.2068409e-01   2.2776867e-01  -9.3946076e-01   4.1892421e-01   7.6097334e-01  -9.9095116e-01  -6.3736937e-02   3.5882370e-01   1.4825487e-01  -3.8336384e-01  -3.1202961e-01  -8.7136330e-01  -7.8182500e-01  -8.8728218e-01  -4.8079003e-01   4.2893093e-01   3.8774051e-01  -8.8073092e-01  -8.9947346e-01  -5.2239844e-02  -9.0583650e-01  -8.1825572e-01   4.1211462e-01  -8.5845474e-01  -5.9555844e-01  -7.3593614e-01  -6.3447400e-01   7.4224773e-01  -1.4653406e-01  -9.8726526e-01  -8.8378779e-01   2.7512738e-01  -5.1777117e-01   7.5171494e-01  -7.1591398e-01   6.3511559e-01   5.5444517e-01   3.3197719e-01  -3.6501658e-01  -1.4342045e-01   9.1745878e-02   4.5216342e-01   4.8428765e-01   5.8908613e-01  -3.4807681e-01  -2.3349862e-01  -1.9535415e-01  -4.0999881e-01  -5.0044207e-01   3.2028785e-01  -8.4879487e-01  -7.5610966e-01  -1.0445222e-01   1.9983435e-01  -8.9496138e-01   6.9426696e-01  -5.8353095e-01  -8.6043713e-01  -1.1703081e-01  -3.0764560e-02   8.4374826e-01   2.5163322e-02   9.4081965e-01   3.7683525e-01  -3.4994093e-01  -4.2216019e-01  -2.3085055e-01  -9.6200178e-03  -1.4038282e-01   3.1289798e-01  -3.8084286e-01   2.9410642e-01   1.7947297e-01   3.1010241e-01  -1.0881109e-01  -6.4959115e-01  -7.8208050e-01   3.0090012e-01  -7.6924336e-01  -7.9976667e-01   3.1580518e-01  -9.5795180e-01   8.4182214e-01  -9.2890814e-01  -2.6205940e-01  -4.8938781e-01   9.3835070e-01   3.0574198e-01  -8.1777694e-01  -7.6865989e-01   8.5037210e-02   2.2043667e-01  -2.7646850e-01   1.5677972e-02   3.1588242e-01  -7.8002700e-01   1.7692107e-01  -9.7786780e-01   2.8743556e-01  -6.8188683e-01  -7.6916591e-01  -9.2802876e-01  -1.1108860e-01   3.8800447e-01   1.4153142e-01  -2.1948111e-01   6.4440758e-01   1.5823361e-01  -9.8282703e-01   9.7479584e-02  -1.9841537e-03   4.0573308e-01   6.3079344e-01  -7.6316905e-01  -4.7583400e-01   3.7272714e-01  -8.8362929e-01  -2.8022715e-01   6.7369471e-01   1.4443517e-01   7.2975947e-01   3.6044654e-02   2.3782234e-01  -9.3138180e-01  -3.7025612e-01  -8.9046452e-01  -2.0459864e-01  -1.6770910e-01   5.1591672e-01   6.7727215e-01   8.2736399e-03   8.1124925e-01  -9.4802725e-02  -5.9042035e-01  -8.2570698e-01   7.0093429e-01  -1.3609642e-01  -3.9184175e-01  -6.5339679e-01   2.0195852e-01   3.7567564e-01  -1.3953747e-01  -8.7970264e-01   3.4159118e-01  -1.3756502e-01   9.7866887e-01   2.2903790e-01  -3.8815432e-01  -2.1977177e-01   2.6916264e-01  -5.8711654e-02  -4.4354682e-01  -8.0962945e-01   9.5305462e-01  -5.4863660e-01  -8.4719676e-01   9.2082954e-01  -2.8407338e-01  -3.0819606e-01  -1.7810279e-02  -1.6703888e-01   8.3606387e-01  -3.7873799e-01   4.2154280e-01  -5.0114566e-01   7.3237770e-01  -6.5583503e-01  -6.0129876e-01  -7.2688787e-01   3.1755687e-01  -8.5306074e-01   4.0007599e-01   8.7735344e-01  -9.8380002e-01  -9.2460780e-01   9.1634454e-01   9.3026599e-01  -7.8147802e-01  -6.4858547e-01   7.5901713e-01  -1.2533817e-01  -9.1493611e-01   7.3715292e-01  -4.9138206e-02   3.3551433e-01   3.3457689e-01  -3.2581629e-01   3.3086222e-01   1.4915686e-01  -9.3831097e-01   1.0657181e-01   9.0351208e-02  -2.9712825e-01  -7.8433617e-01  -2.1598789e-01   9.2826085e-01  -5.8510779e-01   6.9503007e-01   9.2139793e-01   8.6378384e-02   9.9428152e-01   9.8984290e-01  -7.8790943e-01  -6.6822742e-01   2.5299702e-01   6.8877082e-01  -1.6947763e-01   2.2186786e-01  -8.1310145e-01  -8.0691794e-01   8.2824062e-01   4.0995453e-01  -8.0574448e-01  -4.3731268e-03   8.2117319e-01  -2.7868543e-01   4.8056959e-01   5.6659471e-01  -8.9446062e-01  -9.8496384e-01  -9.8638834e-01  -9.7824384e-01   6.8431542e-01   7.5844519e-01   5.4794234e-01  -9.0937982e-01  -4.0645901e-01   5.4647138e-02   1.1019666e-01  -8.5075475e-01   9.2192074e-01   8.0830761e-01  -2.9570644e-01  -1.7063879e-01  -7.5353384e-01  -8.2309516e-01  -5.7921814e-01  -9.3574293e-01  -4.2117064e-01  -2.4171344e-01  -9.9682274e-01  -5.6626688e-01   4.0125531e-01   6.0282317e-01  -5.0390126e-01  -8.8130786e-01   8.9513723e-01   5.6233153e-01   8.1456375e-01  -2.9780319e-01   4.2251466e-01   7.1405766e-01  -9.8665426e-01  -9.0491700e-01   2.2909767e-01  -4.3605539e-01   3.2279018e-01   9.4629321e-02   6.0044448e-01  -8.2627105e-02  -3.2465092e-01   4.6370667e-01   5.2265388e-01  -2.9308953e-01  -9.1199292e-01   4.4900601e-01   3.5790660e-01  -5.0004977e-01  -5.5006655e-01   9.6125018e-01   3.4970586e-01  -6.6617275e-01   6.2590236e-01   5.2969835e-01  -6.6056321e-01   1.5749015e-01   2.0924884e-01   3.1511124e-01  -1.5804496e-01   8.5145690e-01   9.7235050e-01
