   6.5652635e-01  -3.4921273e-01   8.0172403e-01  -7.0094105e-01   9.5273656e-01  -7.1714342e-01  -5.2324840e-01   6.6997817e-01   2.5990523e-01   8.3327586e-01   3.2296040e-01   5.0952604e-01  -2.9114246e-01  -7.7561137e-01   1.6287242e-01  -4.4830078e-01  -9.5218950e-01  -8.8137187e-01   2.5479196e-01  -1.0448317e-01  -3.2804263e-01   5.9837354e-01  -1.0179236e-01   8.1702168e-01  -9.2476395e-01  -3.7583976e-01   1.0395423e-01  -7.5935123e-01   7.1749983e-01  -5.2268902e-02   9.6628168e-01   3.6723022e-01  -3.4723643e-01   3.6272406e-01  -6.0321477e-01  -6.5079754e-01   9.6793372e-02  -7.8286595e-02   2.3979487e-01   3.4313869e-01  -6.1586253e-01  -9.4228305e-01   5.5781750e-01  -6.7490569e-01  -4.8220927e-01  -8.9110382e-01  -8.1662740e-01   6.0611480e-01   8.1382044e-01  -1.9244526e-01  -8.2345478e-01   8.9418062e-01  -6.2091203e-01   5.6256571e-01  -5.9545363e-01  -6.7741384e-01  -9.7818040e-01  -5.5104262e-01  -2.5287943e-01   9.5756051e-01   2.3915896e-01   4.6616936e-01   6.1357754e-01   3.7218350e-01  -1.9411210e-01  -7.4966132e-01  -7.5686800e-01  -5.7727751e-01  -1.4114914e-01  -9.3392165e-01  -2.0809438e-01   7.6324392e-01  -7.3098646e-01  -2.6544491e-01   2.8174565e-01   5.9033439e-01  -4.1100643e-01   7.6885817e-02   9.1252118e-01  -6.8371264e-01   9.8625951e-01  -9.0099378e-01   5.8342375e-01  -4.5758823e-01   2.4948999e-01  -2.8753463e-01  -4.9546177e-01   6.8123007e-01   4.8162447e-01  -1.4669270e-01  -2.9708055e-01  -9.1045672e-01   4.0453964e-02   7.9824667e-01  -1.4381275e-01  -4.0561977e-01  -8.3076978e-01  -6.6347491e-01  -8.9892784e-01   7.5199862e-01  -5.5903948e-01  -7.1982569e-01   5.0681678e-01  -6.4496806e-01  -3.3799812e-01  -9.1074366e-02   9.8973143e-02  -1.5605486e-01   3.9446044e-02  -8.2000521e-01   4.6637502e-01   8.1441489e-01  -3.4260982e-01  -5.4797175e-01   4.3171919e-01   7.1046101e-01   1.8466651e-01  -7.3371009e-01   9.4127369e-01   8.8133183e-01   7.2830380e-01  -2.2577610e-01   3.4352845e-01  -9.3687188e-01  -3.4077629e-01   6.0729612e-01   2.1462358e-02  -6.6095880e-01   9.2740163e-01  -7.6644605e-01  -7.0195341e-01   1.6962736e-01   9.1794447e-01   7.3926032e-01   9.3323725e-01  -4.5514174e-01   9.4524922e-01   4.4521378e-01  -2.0590665e-01  -1.0981937e-01  -7.7193638e-01  -1.7592070e-02  -1.4198807e-02  -3.7830066e-02  -1.0262994e-01   5.8883960e-01  -5.8731582e-01   6.8824392e-01  -1.8735087e-01   6.5186479e-01   5.1722473e-01  -5.7210959e-01  -7.2649763e-01   3.2195391e-01  -4.6860397e-01  -3.9352943e-01  -3.7139414e-02   9.6036621e-01   2.0271629e-01   6.7715197e-01  -1.1398855e-01  -9.9162828e-01  -7.6415440e-01  -8.4528127e-01  -1.3121541e-01  -7.5768712e-01  -7.8136182e-01   5.2949975e-01   4.5166346e-01   6.5722027e-01   5.3807302e-01   7.0114202e-01   3.3942266e-01  -1.0937362e-01   3.5491560e-01  -2.3228700e-01   2.9652415e-01  -9.1437257e-01   7.2597422e-01  -6.3167805e-01   4.2567846e-01  -5.4898657e-01   6.7791167e-02   6.5882691e-01   5.9912562e-02  -1.1319225e-01   1.8098284e-01   6.0108588e-01  -8.3811899e-01  -5.1282805e-02   8.1278207e-01  -8.5329215e-01   8.7002162e-01   8.4425129e-01   2.2468044e-01  -3.8681531e-01   8.3735716e-01   4.7538116e-01   7.0025453e-01  -3.7076915e-02   3.2175878e-01  -8.7458641e-01   7.9440265e-01  -5.4695042e-02  -2.1567871e-01   8.8648338e-03   3.2598724e-02   3.3520961e-01  -3.3474691e-01  -1.7261262e-01   9.0950743e-01   7.2697340e-01  -2.4253226e-01  -6.8694040e-02   2.0025279e-01  -1.8029464e-01   2.6710446e-01  -1.1944443e-01  -1.8934326e-01   2.7027650e-02   2.5858735e-01   8.4921452e-01  -6.4692603e-01  -8.5801961e-01   4.0028210e-01  -1.3337262e-01  -8.2614433e-01  -7.9353164e-01  -4.1685415e-01   9.9383638e-01  -9.9622949e-01   1.3578638e-01  -4.7064472e-01   4.6874766e-01   8.5642117e-01  -7.0616069e-01  -2.6756072e-01  -6.6218550e-01   6.8867403e-01  -5.4612592e-01  -1.9079262e-01  -7.9536506e-01   7.9628026e-01  -5.8166400e-01  -6.8788285e-01   3.1177039e-01  -9.1400230e-05   7.5808503e-01   3.7845719e-01  -6.8592877e-02  -2.1536470e-01   2.0343777e-01   5.9380891e-01   6.8927605e-01   6.8856570e-01  -8.9267879e-01  -4.7982137e-01  -4.0156142e-02   9.2179016e-02   8.4923455e-01  -1.1150424e-01  -8.8047514e-01   4.1804702e-01  -2.4906948e-01   5.5906803e-01  -3.8530252e-01   4.1972761e-01   5.3237194e-01  -9.1516684e-01   5.4721250e-01   8.7578825e-01   3.7605399e-01   4.3651628e-01  -3.5384970e-01   8.0985284e-01   4.0813862e-01  -6.3476218e-01   2.8204660e-01  -5.9477747e-02   9.5585132e-01   4.8753154e-01  -1.3842400e-01  -8.7677076e-01  -5.0249015e-01   2.1861169e-01   4.5453990e-01   4.4728575e-01  -3.6660046e-01  -6.8469344e-01   7.3880984e-01  -4.9064280e-01   9.7987612e-01   6.7550453e-01   8.0614707e-01   5.0208847e-02  -6.5676900e-01  -3.2686834e-01   2.2440471e-01   4.6928519e-01  -8.8363273e-01   6.8495925e-01   7.4945152e-01  -7.0816226e-01  -3.6205566e-01   3.9865985e-01  -8.3678857e-01   5.3752589e-01  -5.5266561e-01   3.2929960e-01  -3.8514864e-01  -8.3315747e-01   6.3438905e-01  -4.3109560e-01  -8.6904528e-01   4.5713472e-01   2.9107265e-01  -1.9452309e-01  -7.6495405e-01  -1.4386730e-01   5.6372079e-02   6.9014909e-01   3.2744501e-01   6.3281512e-01  -6.3899344e-01   4.5988454e-01  -7.4452308e-01   6.1058153e-01  -3.6131806e-01   6.5806469e-01  -2.4977557e-02  -7.8190316e-01  -8.1890115e-01   5.4467529e-01  -2.8553067e-01  -7.1894512e-01  -4.9564221e-01   7.1728572e-01   8.9328317e-01   1.1259275e-01   2.8640979e-01  -6.9424730e-01  -8.4869301e-01   6.9290016e-01   5.8314662e-01   7.9629028e-01  -6.1744147e-01   1.4264919e-01   2.5388344e-01   4.9114201e-01   5.0704603e-01  -8.4337401e-01   1.8502302e-01  -5.1791298e-01   1.4074100e-01   7.0827096e-01   4.2340440e-01   2.8937598e-01   6.9557240e-01  -5.8799034e-01   6.2700878e-01  -7.6842143e-01   7.8052398e-03   9.9242456e-01   7.3968738e-01   1.2020276e-01  -3.7201676e-01  -7.6162707e-01   1.1596253e-01   2.9037297e-01  -7.6616828e-01   5.6902169e-01  -9.4451519e-01  -9.4295008e-01  -1.3984343e-01  -6.4394715e-01   7.4207113e-02   2.6524471e-01   8.9606349e-01  -4.3605464e-01  -2.3100034e-01   9.4834148e-01   2.4184446e-01   8.3845341e-01   7.0099475e-01  -9.9310556e-01   5.1240310e-01  -7.7839970e-01  -8.8479082e-01   1.0790999e-01  -7.3255381e-01   2.1384922e-01   7.2407083e-01  -1.2387764e-01  -9.5231767e-01   4.2174152e-02  -4.9708772e-01   9.0096098e-01   1.6555662e-01   3.5431051e-01   1.7344491e-01   3.3719233e-01   9.8313545e-01  -6.1613034e-01   7.4895251e-01   5.6763460e-01   9.1004345e-01  -8.7008499e-01  -4.4856559e-01  -4.2591801e-01  -9.7541545e-01   4.5279731e-01  -9.5222743e-01   4.7173769e-01   1.5380387e-01   6.6638253e-01   5.8667003e-01   2.9005428e-01   9.0849350e-01  -5.7220333e-01  -7.4514459e-01  -5.0292982e-01   5.4230584e-01   4.7959889e-01  -3.7715955e-01  -6.6578705e-01  -9.7184179e-01  -4.5456644e-01  -5.5562254e-01   7.1216355e-01  -9.3012065e-01  -3.5554647e-01   4.1863509e-01  -9.4768647e-01  -5.4544938e-01   9.5859382e-01  -7.6580420e-01  -4.3124695e-01  -1.1660177e-01  -7.7139318e-01   2.9648004e-01  -8.4150373e-01  -2.4997477e-01   7.7843264e-01   1.1268886e-01   9.0168594e-01  -3.9377447e-01  -4.1579348e-01   7.9800337e-01   2.9932665e-01   8.5474464e-01  -3.8060554e-01   5.0500295e-01   9.7288652e-01  -1.2405577e-01  -9.6148052e-01   9.7295823e-01  -7.1728726e-01  -4.8529320e-01   4.4901206e-01   6.9133198e-01   9.4923989e-02  -7.2895306e-01  -9.1541827e-01   5.6777875e-01  -7.4262946e-02  -4.0814300e-01   3.6862582e-01   5.9503736e-01   3.7789651e-01  -4.6819836e-02  -9.3108243e-01  -3.6670265e-01  -6.4891103e-01   2.8260810e-01   8.5495890e-02   9.4734432e-01  -1.5877444e-01  -4.9163872e-01   7.2626894e-01  -8.1812609e-01   5.7403928e-01   2.4019634e-01   6.8860096e-01  -9.7671279e-01  -2.4679753e-01  -3.3202335e-01  -6.7339462e-01  -7.4509982e-01  -5.9826752e-01  -3.5183572e-01   3.3473161e-01   8.6573978e-01   1.4023473e-01  -2.2539150e-01  -4.7415139e-01   4.3742319e-01  -8.4708206e-01  -7.5439738e-01   5.0008942e-01   4.8774139e-01  -9.7597748e-01  -8.3968215e-01  -1.5313400e-01   4.0408045e-01   5.4333822e-01   3.6405196e-01   6.1952208e-01   1.9585604e-01  -1.1292552e-01  -1.1975754e-01   7.7745720e-01   6.6825763e-01   9.8379419e-01  -2.8665778e-01  -8.0571435e-01   6.2391437e-01   2.8620535e-01   8.5217870e-01  -5.8474915e-01  -1.0222236e-01  -8.8203563e-01  -6.8046606e-01  -9.4909130e-01  -7.0400651e-01  -5.9995804e-01   9.0704906e-01  -9.7147420e-01   9.7163060e-01   4.2523423e-01  -1.8325603e-01   2.8910817e-01  -2.6580759e-01   6.4608343e-01   4.1527004e-01  -9.7974537e-01   4.3809812e-01  -4.1323145e-01  -9.7885273e-01  -2.5420387e-01  -8.9655524e-01   3.3245044e-01  -3.0675403e-01  -6.1453494e-01  -4.2652381e-01   1.8706688e-01   3.1280280e-01   9.7479775e-01  -1.2822877e-01   2.0672667e-01   6.0012903e-01  -9.2271382e-01   8.1410940e-01  -4.3392103e-01   6.6827340e-01  -5.7712663e-01   1.3157210e-01   8.4932279e-01  -3.2671177e-01   2.7195435e-01  -2.0823617e-01   2.5708298e-02  -6.4594292e-01   9.4054893e-01   8.7252421e-01   9.1540962e-01  -4.9275366e-01  -4.9774893e-01  -6.4013324e-01   7.0578039e-01  -3.2474719e-01   6.6602681e-01   8.1468991e-01  -6.0470245e-01   3.4976970e-02  -8.3042717e-01   9.3105683e-01  -8.8502897e-01  -4.4781585e-01  -9.7981734e-01  -5.5702433e-01  -3.2086086e-01   3.4304769e-01  -7.5999891e-01   9.4525329e-01   7.6860434e-01   4.4142586e-01  -3.6059855e-01  -3.7655709e-01  -9.9783637e-01   7.9559935e-02   9.0383359e-02  -6.4141131e-01   3.2045931e-01   4.7813519e-01   1.0970050e-01   1.5330754e-01  -5.3554767e-01   4.6022348e-01   1.6140242e-01   1.4848156e-02   9.5561692e-01  -8.4935230e-01  -1.3282471e-01  -5.3560968e-01   3.0894867e-01  -3.5617100e-01   6.8650645e-01  -5.5667612e-01   9.7977137e-01  -6.7757925e-01  -2.4598376e-01  -1.0222713e-01   1.6134475e-02   5.8970077e-01   1.1319348e-01   2.1152455e-01   8.6533899e-01   3.2614871e-01  -5.1670445e-01  -4.6611210e-01  -8.3314847e-01  -2.1989577e-02   3.8525701e-02  -7.7881347e-01  -4.4484702e-01  -5.1893608e-01  -8.4814724e-01   3.1456112e-01   9.4655698e-01   8.9316712e-01   9.9499487e-01  -6.9302926e-01  -9.7940128e-01  -4.5339997e-01  -6.6939889e-01  -4.6972405e-01   5.1951486e-01  -1.6079809e-01   7.0471022e-01   2.1390779e-01  -2.7821235e-01   9.9528179e-01  -6.8459098e-01  -6.4155367e-01   6.6416418e-01  -9.9593744e-01  -7.6538248e-01   9.7624897e-01  -9.4408415e-01   7.6779863e-01   8.6852133e-01   2.9766598e-01   1.5852159e-01  -4.1243272e-01  -2.8895814e-01  -4.7331521e-01  -7.8457874e-01  -5.8038950e-01   8.5129545e-01  -5.0099364e-01   2.0580525e-01   4.0056831e-01   6.9010466e-02  -6.0069193e-01  -1.6381104e-01  -2.9094971e-01   7.6449327e-02  -6.8997393e-01  -7.0587250e-01   1.2320307e-01   9.7931411e-01  -9.5317553e-01  -9.4918657e-01   7.9526502e-01   3.7246622e-01  -4.4106947e-01   5.6390950e-01   7.6826364e-01   3.4492354e-01  -6.2293345e-01   4.8533272e-01  -9.4046175e-01  -4.4693597e-01   3.9953850e-01  -7.0535238e-01  -7.6116726e-01  -3.1397255e-01   7.5861573e-01  -3.5864908e-03  -7.3119367e-01  -8.1251577e-01  -2.4879145e-01  -8.5538831e-01   3.7613269e-01  -1.7832571e-01   5.8580433e-01  -7.4933842e-01  -4.2401177e-01   1.9442161e-01   5.4675555e-01  -7.2639110e-01  -6.7572524e-01   2.5591703e-01  -5.8795432e-01  -8.6154472e-02   3.0102184e-01  -3.9285093e-01  -6.0732872e-01  -9.7662827e-01  -1.7962885e-01  -4.8927259e-01   5.8257214e-01  -9.6058533e-01   1.2614232e-02  -3.7357804e-01   7.6418213e-01  -1.7479739e-01  -1.9332996e-01   5.0154476e-01   5.4174653e-01   8.9018795e-01  -9.1171723e-02  -3.5912966e-01  -3.1652176e-01   4.1923032e-01  -2.2303653e-01  -5.6209006e-01   1.4835742e-01  -1.7435879e-01  -6.9781734e-01  -7.1103665e-02  -7.6725487e-01  -7.9800097e-01  -3.2462703e-01   1.4623449e-01  -9.1588012e-01  -9.4850273e-01  -6.3618875e-01  -3.7242722e-01   4.7005638e-01  -5.1928687e-01   2.7830875e-01   2.7564535e-02  -8.6791391e-01  -7.4041510e-01  -4.9912545e-01  -2.2315230e-01  -2.4904746e-01   8.1052306e-01   2.1092176e-01   5.3667825e-01  -7.5204661e-02   3.4500907e-01   9.1057034e-01  -1.1360684e-01  -9.4072726e-01   1.2137928e-01   1.7616284e-01  -4.2284408e-01  -6.5168483e-01  -6.0768851e-01  -8.7713148e-01  -8.5644244e-01  -4.9932866e-01  -6.7603220e-01   1.5464904e-01  -7.5836322e-01   2.0732334e-01   5.8583650e-01   3.3231632e-01  -2.6784155e-01  -3.7059563e-01   9.6665002e-01   9.7237334e-01   9.5272296e-01   5.1850508e-01  -4.3978759e-01  -2.1729289e-01  -3.3424207e-01   6.6320249e-01   8.7978502e-01   2.0281532e-01   5.1963631e-01  -3.3612439e-01  -3.7843893e-01   9.9260132e-01  -9.6629968e-01  -5.9076061e-01  -4.5140499e-01  -1.9244772e-01   5.6936367e-01  -8.1424577e-01   1.3936988e-01  -3.7588444e-01   8.1149259e-01  -9.9481061e-01  -2.9185612e-01  -5.9584467e-01   4.0706609e-01  -9.1454256e-01  -6.7887297e-01   2.2879865e-01  -8.5557208e-02   4.5310404e-01  -7.8694350e-01  -1.7279581e-01   5.4130129e-03   5.1458170e-01   3.0864724e-01  -4.3853528e-01  -7.2496866e-01  -8.6154226e-01   2.3394949e-01   3.0347912e-01   4.5227307e-01   2.9645313e-01  -3.9856879e-01   9.3168898e-01  -8.3712595e-01  -1.6271692e-01  -7.8139719e-01  -3.4922231e-02  -6.1714487e-01  -5.6627304e-01   6.1048525e-01   2.7060673e-01   6.6399787e-02  -9.6730725e-01   2.4440333e-01  -5.1432246e-01   1.3511194e-01  -2.3225140e-01  -6.5539693e-01  -3.9927106e-01   3.9468381e-01   1.8535468e-01  -1.4860490e-01   4.9055599e-02   4.7398669e-01   2.0827865e-01  -7.2547595e-01   8.7646503e-01  -5.1617857e-01  -9.4060571e-01  -3.3909294e-01  -8.0861294e-02  -4.7686730e-01  -7.2771299e-01   4.4646748e-01   7.0194353e-01  -2.5099583e-01  -1.1614327e-01   6.8009021e-01   5.6183204e-01   1.6904714e-01  -6.9282226e-02   9.9638628e-01  -5.3418583e-01   5.6371470e-01  -1.4307724e-01  -1.6372400e-01   7.2981341e-01  -9.6238558e-01   1.9010088e-01   9.1733507e-01  -5.6280586e-01  -3.7673287e-01   7.2351788e-01   2.2315040e-02   6.8974216e-01   2.2377358e-01  -1.1679269e-01   5.5736049e-01  -4.5820005e-01  -8.4689428e-01  -2.3342068e-01   6.9157030e-01  -1.7816594e-01  -1.2862241e-01   7.4266772e-01  -1.5249857e-01   5.2885452e-01   4.4963093e-02  -4.7076559e-01  -7.2136298e-01   5.2732736e-02  -3.1293264e-01   9.0614177e-01   3.9867793e-01  -8.0961577e-01   7.8882802e-01  -2.6629173e-01  -9.5648819e-01  -4.9317621e-01   5.7262762e-01   2.4840213e-01   3.2250133e-01   7.8006829e-02   9.5699018e-01   9.9257575e-01   3.1972716e-01  -8.2614090e-01   3.5774208e-01  -3.5974776e-01   5.5956975e-01   3.2642842e-01  -2.5203059e-01  -1.6771348e-01   6.8409255e-01  -7.7618036e-01  -3.4728354e-01  -6.4462687e-01  -4.5942940e-01   7.8041722e-01  -3.9986023e-01   2.0712507e-01   4.2723132e-01  -2.5588045e-01  -3.3682369e-01   4.8412224e-01  -7.5997269e-01   7.1519928e-01  -9.0533494e-01  -5.1606594e-01  -5.3897310e-01  -4.2068289e-01   9.4488948e-01  -5.8110141e-01  -1.6410315e-02   1.5052465e-01   8.0861448e-01  -9.1275376e-01  -3.6348870e-01   4.4058871e-01   4.1194900e-01  -1.8474869e-01  -7.5887987e-01  -5.3998632e-01   6.1210395e-01   7.9236966e-01   4.0273581e-01  -2.8150095e-01  -2.8948504e-01   4.1214721e-01   9.3735604e-01  -5.8170501e-01  -7.6356380e-01   2.3920504e-01   9.7149970e-01  -9.9199357e-01  -3.8110797e-01  -7.2079585e-01  -9.8475516e-01   2.2451988e-01   6.8440396e-01   2.7063932e-02  -2.0011467e-01   1.4950919e-01   6.8491995e-01  -5.4821659e-01   7.3777379e-01  -7.0294654e-02  -2.8802897e-02  -5.9462207e-01   1.2481155e-01  -1.3945519e-01   1.6678564e-01   9.3039884e-01   7.1178694e-01   6.9370040e-01  -6.2202556e-01   1.0404643e-01  -1.8200913e-01  -7.9422129e-01  -2.4617434e-01  -2.4650395e-01   3.0992978e-01   8.6050484e-01   6.7930337e-01  -6.4218527e-02   7.6832079e-01   9.1028971e-01   4.7396127e-01  -3.9191544e-01   9.5777187e-01  -1.8376065e-01  -9.8917910e-02   7.1811737e-01  -5.7550400e-01  -4.7657067e-01   4.5414776e-01  -3.0826161e-01   1.6825466e-01   4.7583547e-01  -5.2076257e-01   5.8970297e-01  -3.6076927e-01   8.7096748e-02  -1.0060762e-01  -2.6597346e-01
   9.7424680e-01   1.2510641e-01   2.4418959e-01  -8.1079273e-01   7.4136514e-01   5.8973837e-01   3.9030506e-01  -4.8228786e-01   2.1980271e-01  -6.8294588e-01   5.6028505e-01   4.1002070e-01   3.8345314e-01  -3.9169790e-01  -3.5672585e-01  -7.1057553e-01  -5.8610201e-01   9.6796836e-01   3.4177478e-01   3.4093171e-01  -2.8013976e-01   4.0267528e-01  -1.5076720e-01   7.3035888e-01  -9.4760407e-01  -2.1647145e-01   5.1195211e-01   8.3771722e-01  -7.1322585e-01   7.2054488e-01   1.2145154e-02  -5.9739130e-01  -1.4151681e-01   7.2753100e-01   9.6356968e-01   2.3086173e-01  -2.7885277e-01   3.0942452e-01   9.3042965e-01   9.5734404e-01  -8.3594079e-02   2.2112064e-01  -1.3014633e-02   4.7348802e-01   4.0810521e-01   5.4220786e-01  -7.5187538e-01   5.4686636e-01  -9.8624037e-01  -3.2635642e-01  -2.2860807e-01  -6.3999035e-01   1.1370731e-02  -5.9801330e-01   6.8041172e-02  -8.4396352e-01  -1.6458133e-01   4.7957436e-01  -1.6131449e-01  -9.5424311e-01  -1.0502590e-02   4.8559391e-01   8.7833285e-01   2.3882663e-01  -1.7956246e-01  -6.2903555e-01  -7.9133827e-01  -2.4948474e-01  -3.3445541e-02  -1.1305830e-01  -9.9862879e-01   5.3326055e-02  -8.8315387e-01  -5.4146549e-01   3.8763996e-01   1.8419993e-01   7.1385690e-01  -5.6732758e-01   2.4006648e-01  -9.2503442e-01   8.2541853e-01  -3.6350552e-01  -8.6999519e-01   5.1193855e-01  -5.9950964e-01   2.1602481e-01   5.5760879e-01   5.1898438e-01  -3.1287149e-01   1.8049584e-01   6.5455241e-01   5.4216689e-01  -5.9221557e-01  -4.2255645e-01   5.2002447e-01   4.4597247e-01   5.7512018e-01  -8.2603769e-01  -9.1685246e-01   8.2064285e-01  -5.9981336e-01   9.5070786e-01  -3.5840010e-01   8.1084008e-02   8.9637369e-01  -2.1776192e-01   1.8966825e-01  -2.8108650e-01  -9.1175546e-01   2.2723132e-01   5.6686419e-01   4.1673309e-01  -2.7469412e-01   2.9730454e-01   2.9683017e-01   3.6317253e-01  -7.0376218e-01   3.0564581e-01   4.4181221e-01  -8.3282249e-02   7.5982679e-01   7.6189527e-01   7.4242646e-01   7.7378674e-01  -4.4598774e-01   5.5392309e-01   9.7716806e-01   1.6652273e-01   1.1319532e-01  -3.5814643e-01  -2.3889805e-01   1.6815803e-01  -5.8221137e-01  -4.1581221e-02   4.0762738e-01  -6.1820502e-01   9.8396148e-01  -5.0714214e-01  -4.2323105e-01  -5.3828657e-01  -2.4903349e-01  -7.1606488e-01  -5.3532080e-01   1.1132919e-01  -4.9382711e-02  -6.6561070e-02   5.8009990e-01  -4.3590219e-02   4.5036810e-01   6.7274101e-02   6.6347428e-01   6.2903879e-01   2.4814407e-01  -2.2197348e-01  -3.4298633e-01  -9.8177427e-01   2.8491327e-01   3.0628574e-02   4.5303799e-01  -9.6052594e-01   9.3733280e-01  -7.8776656e-01  -8.7034626e-01   5.0330702e-01  -3.4945818e-01  -1.5939420e-01  -3.0975166e-01   1.2151737e-01   3.2819688e-01   2.3860353e-01  -1.2254680e-01  -6.0513905e-01   1.0082322e-02   2.0486048e-01  -2.6892107e-01  -9.9451903e-01  -2.4918735e-01  -2.0942819e-01   7.0040696e-01  -7.5128574e-01   4.9603644e-01  -1.8462170e-01  -1.9965693e-01  -4.3204309e-01  -9.6393918e-01   4.3898570e-01  -4.7525896e-01  -8.8037699e-01  -5.3167964e-02   7.0894646e-01  -1.2265311e-01   2.5065349e-01  -1.9615966e-01   7.9841877e-02  -4.2721835e-01  -1.2658493e-01   3.6393216e-02   1.9435450e-01   4.4012612e-01  -6.3211818e-01  -9.9437619e-01  -9.7885941e-01   4.5492243e-02  -1.5637853e-03   5.2294700e-01   7.3390656e-02  -4.3391647e-01  -3.6094613e-01  -1.6804546e-01   8.0028424e-01   9.9102680e-01   6.5258143e-01  -4.0881240e-01  -3.8488924e-02   7.9549066e-01  -7.3095520e-01  -7.6820065e-01   4.9171384e-01  -6.1181417e-01  -5.9314790e-01   4.3237720e-01   6.1283462e-01  -3.2076996e-01  -8.2827119e-01  -7.1154354e-01   9.6465785e-01   1.9879503e-01   4.8535475e-01  -7.0286774e-01   5.3791879e-01  -3.2775399e-01   5.3069980e-02   8.4794850e-01   5.1442449e-01   1.3550190e-01  -2.7995348e-01  -1.8106569e-01   5.8816184e-02   2.3575568e-01   6.5450100e-01  -5.8344278e-01   6.7825317e-01  -3.3465530e-01  -9.7452915e-01   4.9618765e-01   4.3736438e-01   5.8436547e-01   6.1912580e-01   4.5433344e-01  -3.7215551e-01   5.0858358e-01  -2.7888783e-01  -1.9564995e-01   1.0806311e-01   8.4891829e-01  -1.3212414e-01   6.0460054e-02   8.9503205e-01   6.1355188e-01  -2.0870795e-01   3.0519262e-01   8.3497505e-01  -7.0820515e-01   5.4650555e-01  -6.1871848e-01   5.5763680e-02   6.4391980e-01  -2.8779617e-01   7.8666965e-01  -2.3027684e-01  -5.5438257e-01   8.2677687e-01   6.1659763e-01  -8.1131265e-01  -5.3317888e-01   7.3202180e-01  -8.3310082e-01  -1.1612986e-01   9.3710390e-01  -6.6966247e-01   9.3590147e-01  -2.2219346e-01   3.9950469e-01   5.8841201e-01   8.3216691e-01  -2.6800745e-01   3.7892918e-01  -1.2149931e-01   8.9430950e-01   2.8226252e-01   3.6690042e-01   9.1694326e-01   5.7370105e-01   1.2428984e-01  -2.7206386e-01  -6.2691994e-01  -7.9151507e-01  -5.4616709e-01   1.4207865e-01   8.5317224e-03   4.5751901e-01  -3.8412443e-02   2.0874486e-01  -3.2444410e-01   5.1568135e-02   9.0052354e-01  -1.4506781e-01   8.5867927e-01  -9.0871329e-01  -2.7100550e-01  -1.4935203e-01  -4.1224534e-01   6.4461217e-01   9.9485211e-01   4.9405343e-01   8.2613096e-01  -4.7052452e-01   6.2091197e-01   1.7276238e-01   8.6766488e-01   6.4774557e-01   8.0484926e-01  -1.8571841e-01  -3.6455526e-01   2.8424905e-01   6.5997422e-01   6.7790359e-01  -6.3193340e-01  -9.4720130e-01   7.5527475e-01  -7.5546157e-01  -5.1842678e-02  -7.2298121e-02  -7.5221256e-02  -4.7128198e-01  -3.3038681e-02  -1.2462646e-01  -1.5940934e-01   7.0942353e-01  -5.0817647e-01  -5.7610677e-01   4.6685015e-01  -4.5549994e-01  -7.6483410e-01   1.2522180e-01   2.7260931e-01  -3.6769449e-01   6.4364655e-01  -4.2777219e-01  -8.9071775e-01   8.8623999e-02   1.1328661e-01  -3.9003953e-01   3.5957716e-01   8.6458167e-01  -1.8008245e-01   4.4426020e-01  -1.0751374e-01  -4.9731876e-01  -1.8005381e-01  -2.6950073e-02  -4.8130846e-01  -8.9262698e-01  -1.3722355e-01  -5.7889385e-01   4.5069571e-01  -8.5068370e-01   5.7498070e-01   5.5747061e-01  -7.8775137e-01  -1.9636007e-01  -5.3104633e-01  -5.1842838e-01   9.2947926e-01  -4.5173480e-01  -3.4685706e-01  -9.2728811e-01  -8.3973898e-01   3.5054870e-01  -3.4868135e-01  -1.7342849e-01   8.2490620e-02   4.4743588e-01  -5.0928625e-01   4.5799058e-01  -1.7895034e-01  -4.1202750e-01   1.1319914e-01   7.4674290e-01   7.6886149e-01  -2.0296118e-01   3.5610584e-01   4.3071532e-02  -3.6265700e-01  -9.6866129e-02   8.8007537e-01   3.2123260e-01  -2.3745616e-01  -5.9205220e-01  -2.2624388e-01  -4.5557956e-01   3.2192917e-01   4.7182256e-02  -2.8090845e-01  -6.7885009e-01   7.6442046e-01   9.1641186e-01  -4.3753530e-01   9.4766314e-01  -8.8827012e-01   5.4594568e-01   7.9169169e-01   2.2458731e-01  -8.2864731e-01  -2.1767876e-01  -9.4579149e-01   4.6605968e-01  -8.4541479e-02   5.3549709e-01  -8.6184521e-01  -8.8021773e-02  -1.7783741e-01  -6.5519333e-01   1.7935936e-01   3.5638148e-01  -4.4070210e-01   1.5799411e-01  -3.4619040e-01  -7.2099188e-01   7.4386508e-02   1.7165936e-02   1.4612438e-01  -3.1062187e-01  -9.2740852e-01   3.8349246e-01  -1.5158333e-01   7.7099994e-02   6.4740648e-01  -1.9463990e-01  -6.3212058e-01  -1.2995261e-01  -7.7463929e-01  -1.6208269e-01   9.1387404e-01   6.1917891e-01   2.3342898e-01  -7.9077700e-01   5.5808165e-01  -4.3715638e-01  -5.5756929e-01   3.6212495e-01   3.8128254e-01   7.4368342e-01   4.8022898e-01   4.1372358e-01  -1.4327304e-02   4.2425387e-01   4.7542003e-01   8.1999035e-01   5.6166391e-01  -5.1316527e-02   1.4235906e-01   8.6229476e-01   4.2648348e-02   2.2602543e-01   1.7954884e-01  -2.1356065e-01  -3.3276513e-01  -5.0966853e-01   6.3841414e-01   3.4985916e-01   9.4967373e-01  -6.7908080e-01  -7.3545525e-01   5.5849011e-01   6.0207044e-01   3.6688859e-01   6.7860773e-01  -6.7497254e-01  -4.7720506e-01   5.7594959e-01   2.9930601e-01  -3.0924167e-01  -8.7941084e-01  -4.7602214e-01  -4.2104456e-01   8.9531818e-01   4.6830033e-01  -5.1220599e-01  -2.6229722e-01   5.8439050e-01  -8.6725301e-01   9.6066210e-01   5.8644899e-02   6.1145794e-02  -2.7833507e-02  -3.9529637e-01  -9.6049672e-01   7.8961832e-01   4.3608908e-01   1.5007628e-01  -1.8982432e-01   2.1023559e-02   6.8130640e-01  -9.9560807e-01   4.9216129e-01   3.2492279e-01  -3.0028321e-01  -5.4088122e-01  -8.5396713e-02   8.1799210e-01  -1.4110533e-01   1.7255880e-01   5.2611428e-01   2.0266831e-01  -7.6216786e-01   7.8650961e-01  -7.8050899e-01   6.1073689e-01   4.8977145e-01   7.9224531e-01   4.2105698e-02  -8.8762420e-01   9.6392591e-01  -3.5403959e-01  -1.3680529e-01   5.0767026e-01   2.9504758e-01   9.2110586e-01   5.4234199e-01  -7.8276788e-02  -4.3924461e-01  -2.0321363e-01   8.4792273e-01   5.2445261e-01  -7.6841572e-01  -9.1906345e-01   4.9203302e-01   9.9926942e-01   9.7443648e-01   4.8136509e-01   4.5755085e-01   6.1638291e-01   6.2335209e-01   2.1951346e-01   5.7136022e-01   4.6217162e-01   9.4394505e-01  -8.3640062e-01  -9.9364352e-01   4.2376593e-01   2.6819107e-01   6.2575396e-01   5.8449594e-01   2.1244729e-01  -8.5457421e-01  -6.5004198e-01  -1.2232314e-01   9.1768137e-01   9.5278383e-01   2.8710573e-01   1.3375379e-01  -5.2039349e-01  -2.5101626e-01   6.7276844e-01   3.0426554e-01   9.6856418e-01  -6.5404004e-01  -9.9611253e-01   6.8509601e-01  -9.3176660e-01   2.8525754e-01  -2.6422545e-01  -5.3019454e-01   4.6989697e-01  -2.7768144e-01  -9.9414725e-01   3.9989254e-01  -5.2567918e-01   3.5365768e-02  -1.4566512e-01   1.3386854e-01  -2.2219444e-01   5.5626406e-01  -5.2568489e-01   2.1071881e-01   2.3653277e-01   4.7973518e-01  -9.9551157e-01   9.4130166e-01   6.2507994e-01  -2.8383411e-01   2.5219409e-01   3.8604661e-01  -4.7899679e-01  -4.2130905e-01  -5.5352157e-01  -8.8529577e-01  -6.5215858e-01   7.2617133e-01  -8.7186467e-01  -3.3668124e-01  -8.8922785e-01   9.7412802e-01   5.7427558e-01   4.8091407e-01  -7.9086206e-01  -9.5817099e-01   2.6738545e-01   2.2141116e-01   5.9339899e-02   6.1453200e-01  -8.7800199e-01   9.4778285e-01  -6.2034754e-02  -9.8370110e-01   8.0742529e-01  -7.8903417e-01  -9.9593551e-01  -3.5957787e-02  -4.8223171e-01   9.1669440e-01   8.0531479e-01  -3.0560072e-01  -5.2248793e-01  -9.1885531e-01  -3.1606347e-01  -4.4631361e-06   8.1158979e-01   5.2016369e-01  -1.8675651e-01  -3.7239699e-01  -1.6324170e-02   5.7689796e-02   3.8002775e-01   5.6276897e-01   9.9900644e-01   3.6306612e-01  -5.7568529e-01   8.5631703e-01   1.0499234e-01   5.2510428e-01   8.3495139e-01  -2.1622061e-01   6.7947156e-01  -3.9149966e-01   4.5734092e-01   7.8450706e-01   5.8674117e-01   5.3470670e-01   8.3664682e-01   3.1643059e-01  -3.8710593e-02   5.2430464e-01  -2.3692770e-01   9.6842838e-01  -8.4981175e-01  -8.6101172e-01   3.9031628e-01  -5.7792742e-01  -3.9741111e-01  -4.4340124e-01  -2.5730355e-01   2.8639315e-02   9.8839916e-01  -5.0806664e-01   1.0094680e-01  -7.2866439e-01   1.9240267e-01   2.9579497e-02  -1.0462432e-01   6.9016564e-02   3.5480213e-01   6.8552790e-01  -3.0228391e-02  -4.3259415e-01   4.5267557e-01   8.3088765e-01  -2.1002553e-01  -8.0254793e-01   9.6276758e-01  -8.5206015e-01  -9.6924762e-01  -2.7212954e-01  -5.6372369e-01   3.3942429e-02   9.3201247e-01   5.7718066e-01   9.4464772e-01   2.4999339e-01   2.9355394e-01   9.2307942e-01   3.4642411e-01   5.9502767e-01  -4.6451913e-01  -3.5868495e-01   2.6076926e-01   7.4862817e-01   7.3010199e-01  -6.1444932e-01   9.9258395e-01  -8.2569922e-01   7.2334187e-01  -6.1898984e-01   7.6818265e-01  -2.4618531e-01   1.1209714e-01  -3.0957494e-01  -7.7239552e-01   2.0493816e-03  -6.6424773e-01   1.6221740e-02  -8.4758390e-01   9.3672752e-01  -3.7056515e-01   5.1693017e-01   3.5671932e-01   4.4644962e-01   2.3193851e-01   7.3122235e-01  -1.2363680e-02  -1.2923122e-01   9.7006547e-01   7.9968367e-01   1.5714304e-01   9.0934065e-01  -3.6094666e-01   3.6503960e-01  -6.0379379e-01   3.5002271e-01   2.6211545e-01  -9.3968646e-01  -5.7980737e-01  -4.4635070e-01  -1.1982294e-01   7.2729544e-01  -3.0835417e-01   4.7280664e-01   5.2491033e-01   6.5291283e-01  -1.2331681e-01  -8.8113604e-01  -5.8144597e-01   7.8832934e-01  -8.6227327e-01   4.0125876e-01  -4.8035786e-01   2.0569762e-02  -4.8357972e-01   7.5628603e-01  -9.5084495e-01   2.4762848e-01  -7.3415904e-01  -1.7720027e-01   2.6137386e-02  -7.9940382e-01   4.9490838e-01   3.9024780e-01   4.8997322e-01   3.0160505e-01  -2.2047148e-01  -9.8518163e-01  -4.0290530e-01   5.7834497e-01   4.0018735e-01   1.9193339e-01   6.6368687e-01   1.7734450e-01  -6.9560278e-02   1.0904973e-01  -4.4382392e-01  -1.7266559e-01   9.0703320e-01  -7.7091638e-01   2.7915277e-01   9.5844939e-01  -7.0658691e-01  -6.7802163e-01  -9.7638652e-01   7.4830195e-01  -3.8895193e-01   5.2505432e-01  -9.1720977e-01   2.1097530e-01  -3.2594383e-01  -8.3998089e-01   2.6513858e-01   6.7863100e-01   8.8950595e-01  -6.1038861e-01   8.1700939e-01  -6.5570968e-01   8.3226066e-02  -1.2750641e-01   3.9799363e-01   3.9838854e-01  -2.4680533e-01   9.9442737e-01   2.7141054e-01   3.0803934e-01   9.7635854e-01   4.1227506e-02  -4.6353589e-01   6.7945356e-01   7.7824541e-01  -7.0889811e-01   3.0611681e-01   9.6316688e-01  -2.3278107e-01  -4.4456802e-01  -8.3681207e-01   6.0959810e-01   9.3170113e-01  -5.1365181e-01   9.3460810e-01  -7.0173211e-01  -3.9687487e-01   8.8170310e-01   8.6029032e-02   7.9706543e-01  -4.8473656e-03   1.8012443e-01   2.4120043e-02   6.3500553e-01   7.2977359e-02  -9.4695598e-01   9.4426690e-01  -1.2631560e-01  -1.6726049e-01   1.6592470e-01   6.5851900e-01  -5.0218527e-01  -8.6769360e-01  -9.8027501e-01  -5.3808143e-01   8.4947433e-01   1.7324039e-01  -3.4087853e-01  -6.9523574e-01   6.1779066e-01  -5.0293206e-01  -4.2793728e-01   4.3421321e-01   2.6578176e-01   5.1161858e-01   3.7258974e-01  -9.5649090e-01  -5.4705101e-01   8.0960593e-01   3.0817728e-01   9.2646507e-01  -1.4384664e-01  -2.7394426e-01  -2.7341511e-01  -5.9715948e-01  -4.4282635e-01   4.1232399e-01   5.5653957e-01  -9.9749805e-01   1.4084827e-01   1.3390168e-01   4.4943951e-01   2.5648990e-01  -2.7064084e-01   9.6990821e-01  -1.8189384e-01   5.6442638e-01   4.4077830e-01  -1.9205744e-01   6.5610721e-01   9.0297526e-01   7.3131104e-01   4.9749444e-01   8.3193962e-01   8.4034390e-01   6.4878759e-01  -9.1948966e-01   7.2598367e-02   8.0564758e-01  -6.6900649e-01   4.5556468e-01  -5.6979410e-01  -4.6268907e-01   6.4840640e-01   2.8225988e-01  -6.2777591e-01  -7.0229627e-01   6.5273154e-01  -1.3187866e-01  -5.5579682e-01  -3.6633270e-01   1.4282988e-01  -8.7539626e-01  -4.3693002e-01  -2.3274386e-01   7.2477888e-02   1.3014622e-01   1.9715368e-01  -6.0409771e-01   3.6712923e-02   7.7698322e-01   3.6876657e-02  -4.6615211e-01  -5.5953711e-01  -8.7648702e-01   4.2331765e-01  -9.8648400e-01  -9.1842666e-01  -8.2761916e-01   3.7786564e-01   7.5660240e-01   8.3859093e-01  -8.8408639e-01   1.3400401e-02  -7.5476335e-01  -5.5546631e-01   3.8038671e-01   7.3333540e-01   8.1640736e-01   7.9417174e-01   4.9513593e-01  -4.2278206e-01  -5.8999133e-01   8.3706898e-01  -8.1235055e-01   5.8480290e-01   1.6710971e-01  -5.3511855e-01   9.9029428e-02   5.9871191e-02   3.1384265e-01   4.7097578e-01  -4.8650470e-01   6.6198148e-01  -6.7158318e-01   9.9387166e-01   4.3412930e-01   4.6641512e-01  -7.5872771e-01   8.2199116e-01   8.2344663e-01  -4.9062932e-01   5.1039837e-01   7.9873316e-01   1.4775025e-01   6.2097552e-02   6.6902231e-01  -2.3038072e-01  -7.1712227e-01  -5.9916891e-01  -6.6945961e-01   1.5111464e-01   4.8203856e-01  -1.1148184e-01   9.9016633e-01  -8.8440228e-01   8.2184924e-01  -4.3123664e-01   3.1147886e-02   6.7126477e-01   4.7832530e-01  -3.7579749e-01  -8.8025741e-01  -7.2032261e-01   9.3512778e-01  -4.6331844e-01   6.1183614e-01   1.8100869e-01   4.2950810e-02  -7.7008311e-01  -3.3404542e-01   6.5576698e-01   4.7930724e-01  -3.7893056e-01  -5.5459998e-01  -8.4427887e-01   9.3538160e-01  -3.9494447e-02  -9.1507023e-01  -1.2282123e-01  -4.5838941e-01   6.1729218e-02  -8.7684032e-01   9.4990778e-02  -4.6330581e-01  -7.0140102e-02  -8.0400763e-01  -1.7785311e-01   4.3741843e-01  -1.3592305e-01   4.3652686e-01   4.2503403e-01  -3.6843285e-01  -9.1581975e-01   5.7304706e-01  -8.3452854e-01   6.8925020e-01  -7.2796082e-01  -1.0164444e-01  -5.8851637e-01
   5.3422423e-01  -8.9059945e-01   4.4130446e-01   1.2548675e-01  -4.5456738e-01  -5.6833567e-01   9.7408785e-01  -8.8289769e-01   6.8473421e-01   4.5356347e-01   3.1354858e-01   2.9753432e-01   7.5999928e-01   1.7504863e-01   8.7678303e-01   7.9146118e-01   4.5744254e-01  -6.6681612e-01   9.0874841e-01   5.0412800e-01   3.0521648e-01  -4.8560670e-01   4.7106966e-01   7.0267770e-01  -5.6431916e-01   8.5445196e-01  -4.0025383e-01   4.5949013e-01   8.7351495e-01   9.9061996e-01  -8.7854500e-01  -5.0225532e-01   7.5137151e-01  -9.7614241e-01  -3.3916916e-01   8.6861772e-01   8.4680686e-01  -1.2674689e-01   5.9899383e-01  -5.4080341e-01   3.4569532e-01  -5.1077064e-01  -9.8787165e-01  -8.3134298e-01   8.4898467e-01   6.7117224e-01  -7.4373593e-01   3.3029908e-02  -1.6125273e-01   7.6701401e-01  -1.5997072e-01   7.0848392e-01   4.3906715e-01  -9.2760936e-02   8.1678818e-01   6.9707665e-01   6.5121192e-01  -6.5230677e-03   1.3917888e-01  -6.7955434e-02   9.7499964e-01  -4.8815244e-01  -1.1451046e-01  -5.5449776e-01   1.2033286e-01  -5.8991162e-01  -6.4298113e-01   8.3503724e-01  -7.1398360e-01  -6.8028120e-01   6.7748077e-01   1.3603497e-02  -2.2929243e-01   1.7815914e-01   8.8455384e-01  -8.3668414e-01  -7.5605388e-01   2.2997333e-01  -4.8231610e-01  -8.6373297e-01   8.5179666e-01  -8.8089341e-01   2.4329667e-01  -2.0393111e-01  -4.3763506e-01   8.4651196e-01  -4.2890052e-02  -7.8512872e-01   2.6163101e-01  -1.0280369e-01  -3.3219739e-01  -4.4534898e-01  -5.3147074e-01  -5.6300192e-01   5.5922174e-01  -8.4282251e-01   8.0413302e-01  -8.8100070e-01  -7.7047827e-01   3.0162907e-01  -5.5685538e-01  -9.9697385e-01   6.2364307e-01  -2.1513416e-01  -5.7430826e-01   2.2763788e-01   1.7034019e-01   7.3553603e-01  -9.6679212e-01   4.9936895e-01  -1.4499333e-01   4.1109750e-01   1.3794795e-01   4.3795469e-01  -5.6219820e-01   8.4237102e-01  -3.5661089e-01   5.1338841e-01  -6.6597513e-01   5.4502706e-01   9.9924572e-01   2.5346988e-01  -2.9284626e-01   7.8391354e-01  -8.9875423e-01   3.0373614e-01  -6.3194260e-01  -2.5561362e-01  -5.4640853e-01  -6.7790835e-01  -2.5307443e-01  -8.3983662e-01   5.4094472e-01   7.6729826e-01   2.6743043e-01  -7.6714705e-01   7.8087796e-01   1.9043834e-01  -1.5106115e-01  -7.4102798e-01   7.1861594e-01   6.7678964e-01  -7.5152116e-01   3.5762171e-01  -1.5648340e-01  -9.4908548e-01   9.9024190e-01   3.9397916e-02   4.0685194e-01   4.8137137e-01   1.6773315e-01   9.1945644e-01   1.1114634e-01   6.0127160e-01  -6.0563058e-01   2.3084256e-01  -7.2584027e-01  -5.6521882e-01  -8.8504654e-02   8.8896798e-01  -2.1724058e-01  -3.8173701e-01  -7.0257588e-01   6.6568788e-02  -1.1435703e-01   8.2662329e-01  -5.8435085e-01   5.9894236e-01   1.2691754e-01   6.9332973e-01  -8.7234698e-01   9.5958436e-01   2.0846510e-01  -9.7376826e-01   8.9611683e-01  -8.0205163e-02   5.8339287e-01   5.0696032e-01   8.7130679e-01   9.1671453e-01  -4.0938061e-01   4.8234078e-01   5.8716537e-03  -7.0325947e-01  -5.6313535e-01   5.5793921e-01   5.5958632e-01  -5.0981774e-01  -6.7865513e-01   6.8045059e-02  -4.5087560e-01  -6.7035714e-01  -7.1581335e-01  -8.8095321e-01  -8.4213098e-01  -7.6619759e-01   4.3821570e-01   8.1634813e-02   3.8841945e-01   2.7040828e-01  -5.2350170e-01  -6.9282522e-01  -4.9810182e-01   9.9840146e-01  -9.6406277e-01   6.5122022e-01  -7.2819347e-01  -8.7290054e-01  -6.9280646e-01   1.2619221e-02  -7.1770323e-01   7.0650717e-01  -2.8503310e-01   2.7949938e-01  -6.4978324e-01  -3.7874293e-01   4.2069473e-01  -9.0530785e-01   5.1089062e-01  -9.1069022e-01   7.9157235e-01   5.6094300e-01  -2.0788458e-01   7.7070703e-03   5.2249073e-01   3.0871952e-01   3.8581503e-01  -8.0897083e-01  -2.9147406e-01   1.7109663e-01  -7.4118686e-01  -5.7235205e-01  -8.0816454e-01  -4.0220624e-01   9.7121988e-01  -2.4290452e-01  -1.6321210e-01  -8.6849910e-04  -4.9344501e-01   4.3710633e-01  -2.6427433e-01   4.5475444e-01   4.4960211e-01  -9.8886199e-01   1.2832185e-02  -1.2601617e-01  -1.4004756e-01   3.7880543e-01  -5.3217980e-01  -3.1153444e-01   1.4103434e-01  -3.5137856e-01   8.7678356e-03   9.5821660e-02   5.5906710e-01  -8.0176877e-01   1.1569600e-01   8.9024650e-01  -5.9185826e-01  -3.7458804e-01   5.0498267e-01  -6.0478250e-02   5.0339558e-01   9.1887098e-01  -4.8342392e-01  -4.2638145e-01  -4.6339265e-01  -9.9742147e-01  -8.0094639e-01  -9.4005499e-01  -3.5265426e-01  -4.5720426e-01  -2.2401650e-01   6.2118448e-01  -2.8408042e-01  -4.3051458e-01   6.8430003e-01   7.7329405e-01  -6.9657823e-01  -3.7879812e-01   6.4068790e-01  -9.2805852e-01   7.9992527e-01   6.8326594e-01   4.3267093e-01  -7.6615079e-01  -3.2851041e-01  -2.2015504e-01   1.9929959e-02  -2.9478131e-01  -2.2424508e-01  -4.1326357e-01  -7.2161780e-01  -6.7984849e-02   6.2804432e-01   6.7023024e-01  -8.3354198e-01  -1.8035355e-01   1.2025810e-01  -3.2338107e-01   3.5774795e-01  -2.8776708e-01   9.8423698e-01   8.3411976e-01   8.4662766e-01  -2.7067703e-02   2.7748883e-01   3.6700865e-01  -2.4802412e-01   5.6297672e-01   9.6538071e-01   4.4223455e-01  -6.2767659e-01   7.9681304e-01   9.9479827e-01   9.9593917e-01  -2.8927740e-02  -8.4543443e-01  -6.9609409e-01  -1.4994685e-01  -7.2307099e-01   5.6188899e-01   1.0401846e-01   6.3658614e-01   2.4413909e-01  -1.2030498e-01  -2.7613095e-01  -6.6200005e-02  -1.0727260e-01   8.2976490e-01   1.4504631e-01   5.6017789e-01   3.4223555e-01   7.7318987e-02   3.7973678e-01  -9.5975968e-01   9.4803798e-02  -1.1910140e-01  -2.9007092e-01   8.1925481e-01  -1.6314048e-01  -6.5658123e-01  -1.6312403e-01   3.6665053e-01   6.8189220e-02   6.2828803e-01   1.1617921e-01   7.5125844e-01   2.1183804e-01   2.9200362e-02   2.5897626e-01  -1.5330981e-01   3.0942231e-01   3.7697074e-01  -8.4054842e-02  -6.4412750e-01   8.6616811e-01   6.2352259e-01   1.3749439e-01   6.4991680e-02  -6.0063191e-01   3.3081280e-01  -6.3801307e-01   2.7806938e-01   4.2937495e-01   5.2558914e-01  -6.5946218e-01   1.2316331e-02  -5.0962670e-01  -5.7308103e-01   7.2833260e-01  -2.0480493e-01  -8.1075940e-01  -5.0990888e-01   3.9099896e-01  -3.2801297e-02   8.9264121e-01  -9.0644374e-01   4.6293876e-01  -1.6290652e-01   7.7211564e-01  -3.5101807e-01   5.4060234e-02  -9.4495062e-01  -4.3070489e-01   5.9982651e-01  -7.6132304e-02   3.9099168e-01  -5.7351536e-01  -2.7928551e-01   9.7438274e-01  -7.2092741e-01   2.8760536e-01   4.5532603e-01   5.3492012e-01  -8.3442389e-01   4.5769692e-01   9.6018929e-01   9.3411681e-01  -8.6774366e-01   1.8477739e-01  -8.0719660e-01  -1.1733113e-01  -8.0662804e-01   5.4741109e-01  -7.1358103e-01   1.9987966e-01  -8.3962352e-01  -3.7341068e-01  -1.0597405e-01   3.2602338e-02   1.4446484e-01  -3.3106556e-01   7.3226165e-01  -5.9219211e-02  -4.4588112e-02   4.0279446e-01  -8.2626661e-02  -8.0883860e-01   3.7069367e-02  -2.5421747e-01  -7.6484657e-01   6.3880853e-01  -9.3857677e-01   5.0053905e-01   9.4814798e-01   3.5221853e-01  -4.6102560e-02  -2.7810730e-02  -7.3799555e-01  -6.7835325e-01  -6.6991661e-01  -6.5753359e-01  -3.5612488e-01  -9.5061725e-01   2.5651600e-01  -1.7075565e-01   8.1597732e-01  -3.3917805e-03   6.8700750e-01  -5.8283167e-01  -2.8590530e-01  -4.6833876e-01  -4.2214109e-01  -9.4640881e-02   2.3301360e-01  -9.0442096e-01   7.8230597e-01   6.2824743e-01   6.8145039e-01  -7.9407905e-01  -1.2864900e-01  -5.9117697e-01  -3.2520085e-01  -1.5445133e-01   2.0399671e-01  -6.4984629e-01   4.8227460e-01   3.5745671e-01   8.6508674e-01   8.3017257e-01  -3.6064871e-01   4.1464755e-01  -5.6643659e-01  -2.4949150e-01   6.9984653e-01  -9.8967081e-01  -6.7883925e-01   2.1750027e-01   6.3260707e-01   3.4595297e-01   7.1920764e-01  -6.6951317e-01   1.7243878e-01  -9.1664605e-02   4.2610363e-01   5.1505909e-01  -2.9025417e-01  -7.7332064e-01   7.4952370e-02   9.3857120e-02  -2.9590161e-03   6.5419080e-01   6.1413372e-01  -7.4095091e-01  -2.4076417e-01  -8.5467927e-01   7.5281416e-01  -5.6726472e-01  -6.7881237e-01  -6.9957708e-01   7.9335433e-01  -4.3643600e-02   2.6906220e-01   2.3868726e-01   6.1218964e-01   8.7166316e-01   6.4329487e-01  -9.5866675e-01  -6.7041503e-02  -2.5207900e-01   2.9793173e-01  -8.1462959e-01   6.6287789e-01  -1.3079600e-01  -3.5416400e-01   3.2237387e-01   7.3570897e-01   7.7572048e-01  -8.9431289e-01  -4.5168255e-01   9.3416512e-01  -5.2376616e-01  -2.5301608e-01   2.8461352e-01  -8.7542567e-01   7.8795275e-01  -9.0361073e-01  -2.0343644e-01  -9.1219212e-01  -4.3060929e-01  -8.3409511e-01  -2.9433113e-01  -9.3663811e-02   3.0652776e-01   1.0213186e-01  -5.7249766e-01  -4.5451591e-01  -6.7167473e-02  -7.5412801e-01   5.9780724e-01  -4.0932130e-01   6.2064417e-01   7.6705984e-01  -2.2528837e-01   2.9170976e-01   2.4368211e-01   8.2883823e-01   8.3470912e-01   7.5501151e-01   7.2124782e-01  -3.2295609e-01  -6.0262513e-01  -7.8921473e-01  -4.0367898e-01  -7.9826653e-01   3.2644225e-01  -2.3158198e-01   6.3040073e-01   3.2991149e-01   2.1913640e-01   7.9849446e-01  -8.0445398e-01  -1.4537747e-02  -1.1523542e-01   3.1599594e-01  -5.4111081e-01  -2.0671681e-01  -2.1975447e-01   1.4587560e-01  -2.0383116e-01   6.3567149e-01  -1.9205526e-01   3.5044386e-01   1.0033869e-01   2.5692457e-01   3.5609965e-01  -7.6835640e-01  -6.4985245e-01   1.0106421e-02  -7.0116007e-01  -1.8210175e-01  -4.9280316e-01   1.6446941e-01  -5.4386308e-01  -4.8316842e-01   3.6452335e-01   4.3370214e-03  -2.5692820e-01   9.7783587e-01   2.5159621e-01   9.3113213e-01  -5.7024263e-01   1.3535717e-01  -4.9773152e-01  -4.5413967e-02  -9.0463353e-01   7.6110010e-01  -3.8389743e-01  -6.1402328e-01  -4.5020877e-01   3.9234479e-01   2.8055185e-02   7.6681968e-01  -6.6268851e-01  -5.5595382e-01  -8.5413948e-01   2.4710772e-02  -5.4406338e-01   3.8640640e-01  -3.6832483e-01   1.4233511e-02  -3.8773393e-01  -7.6910010e-01  -1.9437192e-01   3.5403302e-02  -8.0512809e-01   3.7641788e-01   7.8467525e-01   5.4179577e-02   8.1991773e-01   5.4458884e-01   1.7727614e-01  -7.6498526e-02  -7.0333140e-01  -7.7698455e-01   8.4093782e-01  -4.7364591e-01  -5.9793094e-01  -1.4225053e-01   1.5724503e-01  -1.7358930e-01  -2.1669657e-01  -8.2306566e-01  -5.2909330e-01  -6.4578869e-01   6.6255629e-01   2.1701896e-01   1.9511041e-01  -8.0580071e-01   4.8284329e-01   6.1945425e-01   4.6402912e-01  -6.1232982e-01   8.2653475e-01   4.1358329e-02   8.6024877e-01  -9.7042047e-01  -9.6152015e-01  -8.5643914e-01   4.6852032e-01  -8.5611593e-02  -6.8476912e-01   3.6367298e-01   7.6907144e-01  -6.3614413e-01  -8.4247991e-01   9.5588874e-02  -2.7218511e-01  -7.7225683e-01  -9.1895999e-01  -4.7652859e-01   6.4910615e-01   2.7767014e-01  -7.1146709e-01  -8.0708228e-01   6.8968487e-01   2.4130901e-01  -3.5023249e-01  -3.3238977e-01   4.5643653e-01  -9.4381119e-01  -5.1583810e-01   3.3184998e-01  -3.2359566e-01  -7.1758258e-01   1.5950193e-01  -2.1985684e-01   2.3646796e-01   3.1119529e-01  -1.4076698e-01  -8.6640992e-01  -7.2099049e-01   6.7739811e-01  -2.1068715e-01   8.7407862e-01   8.7846915e-01   6.4144628e-01   9.4831108e-01  -5.8383820e-01   3.7400799e-01   9.7997533e-01   5.3970111e-01  -4.1293492e-02   4.1789803e-01   9.8431243e-01   3.0288248e-01  -1.2067473e-01  -3.3315800e-01   4.1538551e-01   7.8355138e-01  -5.5747845e-01  -9.8661807e-01  -4.1157004e-01  -5.8480028e-02  -5.1800140e-02  -3.0162277e-01   7.1734636e-02  -3.4983672e-01   3.0766172e-01  -4.2663533e-01   8.2938146e-01   4.6080895e-01   8.5056749e-01   5.7928218e-01  -1.3295470e-01   5.0679176e-01   2.9885262e-02   4.9912077e-01   6.2439956e-01   4.4234191e-01  -9.8671050e-02  -9.2282936e-01   1.2671737e-01  -9.4634574e-01   4.5362943e-01  -5.4381321e-01  -1.4555638e-01   2.1112559e-01   9.9303614e-01  -5.7910156e-02   1.8028951e-01  -4.9421773e-01  -5.8367067e-01   4.7786678e-01   5.8883901e-03  -5.3531512e-01  -1.7499472e-01  -3.8689738e-02  -5.5048886e-01   2.9801683e-01  -7.6471171e-01  -5.6492330e-01  -2.4972847e-02   8.7968404e-01   5.8306762e-01  -5.9960557e-01  -6.4741213e-01  -2.0222809e-01  -2.8925746e-01  -4.5683050e-01  -2.5125694e-01  -5.9602719e-01  -2.7833747e-02   4.3278476e-01   1.7128844e-01   4.1018253e-01  -3.8456346e-01  -8.7837237e-01  -9.8628538e-01  -9.1925329e-01  -8.9920430e-01  -8.8256901e-01  -9.2427592e-01   5.3227780e-01  -5.3679448e-01   8.7659882e-01  -3.1962841e-01  -1.0689296e-01   1.1041195e-01  -1.9238962e-01  -2.4764742e-01   2.4567377e-01  -4.8164152e-01  -7.2698410e-01  -8.7847793e-02  -2.3358791e-01   9.2253796e-01  -1.1764304e-01  -3.0299793e-02   5.6589238e-02  -9.7061597e-01  -3.2220662e-01  -2.3542571e-01   6.1362667e-01  -1.6199755e-01  -4.6025065e-01   5.7664308e-01   8.8721988e-01   3.0145226e-01   6.7503419e-01   7.7884193e-01  -3.7853856e-01  -8.0701234e-01   6.1211476e-01  -4.4751425e-01  -5.2973298e-01   6.9898740e-01   1.2443794e-01  -8.3107504e-01   6.1093995e-01   9.8986872e-01   4.6461802e-01  -4.8609726e-01  -4.0167837e-01  -6.4777866e-01   5.2958602e-01  -2.0831060e-01   6.9808162e-01   1.6031226e-01  -6.0698435e-01  -7.9966054e-01   1.2587452e-01   3.0382091e-01  -1.5687492e-01  -3.2490160e-01  -4.6456178e-01  -9.1920611e-01   2.2046294e-01  -2.3038753e-01   3.3781355e-01  -5.8317984e-01   3.2074015e-01  -6.9381654e-01  -2.4417359e-01  -6.2397376e-01   5.4802897e-02   1.1057314e-01  -5.3933226e-01   7.2484782e-01  -9.6012580e-02   3.1107121e-01   7.8140006e-01  -5.4252261e-01  -6.8754311e-01  -4.7134808e-02  -4.2619513e-02  -6.5108354e-02  -2.1224165e-01   7.3082381e-01   6.7577587e-01   7.7163469e-02  -3.0635651e-01   1.0247592e-01  -2.1518878e-02   3.1799812e-02  -6.2215373e-01  -1.1878170e-01  -1.4053154e-01   2.7247343e-01   9.7852092e-01  -1.1711813e-01  -9.8657409e-01  -2.0549898e-01   3.8012265e-01  -3.8655140e-02   6.0591976e-01  -9.5627967e-01   3.5682694e-01  -8.4081960e-01   9.1269477e-02   5.5989900e-01   2.1281945e-01   8.0296611e-01   4.0868955e-01   3.9484651e-01  -1.4387551e-01   8.5871291e-01  -3.6924462e-02  -8.9791303e-02  -4.9563831e-02   7.2665244e-01  -5.5501415e-01  -5.7502653e-01  -8.6761866e-01   2.9247701e-01  -6.0278221e-01  -4.4074961e-01   1.2598713e-02  -1.4315580e-01   6.1539667e-01  -7.0788137e-01  -6.8151771e-01  -7.0150062e-02  -5.4898156e-01  -5.7480379e-01  -8.7111417e-01   4.1596096e-01   8.8727050e-01  -7.4181629e-02   8.2308987e-01  -3.2342716e-02  -4.5757833e-01  -6.7932612e-01  -2.7144074e-04   5.2256512e-01  -7.1752148e-02   2.6510657e-01   5.1489469e-01  -9.8707083e-01   3.2281729e-01   5.0231141e-01   1.2882869e-01  -6.3288575e-01   3.8244388e-01  -8.1470984e-01   7.6515144e-01   3.6818110e-01   2.4912678e-01   2.6663067e-01  -2.6823667e-01  -9.1749739e-01   8.1147165e-01   6.9025276e-01   8.2007746e-02  -1.7971339e-01   2.5088752e-01   7.0062494e-01  -4.6567176e-01   9.8560187e-01   1.3147143e-01   7.8649832e-01  -4.5165569e-01  -8.8272572e-01  -8.1569494e-02   4.3190407e-01   8.4409222e-01  -4.4339435e-01  -7.0009686e-01   2.3446400e-01  -1.3761894e-01  -8.9640710e-01  -8.5706271e-01  -1.9121449e-01   5.7482204e-01  -8.1838058e-01   7.6566772e-01   6.7807967e-01  -1.9073463e-02  -9.4468138e-01  -4.3785001e-01  -2.7778983e-01  -2.4026167e-01   4.0856705e-01   9.3772473e-01  -7.9107169e-01   6.3020227e-01   4.5095521e-01  -8.7231743e-01  -1.8070904e-01  -8.6984646e-01   1.7672979e-01  -2.8037324e-01   2.3248290e-02  -3.2254658e-01  -7.6316327e-01   7.5354031e-01   8.6683241e-01  -3.3783033e-01   3.9337833e-01   3.0749179e-01  -5.9615391e-01  -3.5179056e-01  -9.0507126e-01  -1.4740984e-01  -3.2463943e-01   8.8319606e-01   8.8803147e-01  -1.8408821e-01  -6.4850162e-01  -9.3126473e-02  -8.7424001e-01  -5.9050509e-01   7.3932166e-01   6.0558669e-01  -7.8698600e-01   4.5070366e-01   7.1545050e-01   4.5555223e-01  -8.9588962e-01   6.1552870e-02  -8.2750574e-01   9.0540403e-01   6.6896381e-01  -4.1705985e-01  -3.5971190e-01  -3.8988475e-01   7.4416492e-02   2.4835508e-02  -7.7145643e-01  -6.1829375e-01   9.7403317e-01  -7.7561913e-01   5.3097162e-01   9.2144885e-01  -2.3037783e-01   1.5965723e-01  -3.8551828e-02   3.7614496e-01   4.5005577e-01  -1.0067583e-02   9.3621501e-01   7.0900322e-01   5.8475013e-01   2.9451113e-01  -1.7441202e-01   1.7476212e-01  -4.4890610e-01   2.9020832e-01   6.7175208e-01
  -7.3199216e-01  -1.5430855e-01  -9.1331622e-01   8.4941011e-01  -9.7919664e-01   3.1281530e-03   9.7751834e-01  -8.2896284e-01  -1.4787291e-01  -4.3379493e-01  -3.9834658e-01  -6.2236411e-01  -8.4278787e-01  -1.7030170e-01  -9.3978192e-01  -3.1086501e-01   3.7178935e-01  -3.7687139e-01   7.3274633e-01  -6.0834871e-01  -5.2830055e-01  -2.9218899e-01   4.2111061e-01   4.3739602e-01  -2.1654348e-02   6.3392425e-01   5.9054378e-01  -9.5715063e-01  -7.5462109e-01  -6.3860985e-01   5.3522535e-03  -9.6374557e-01  -1.5550064e-03  -3.8842070e-01  -6.1981518e-01  -3.6098628e-01  -3.5580248e-01   7.6283961e-01   1.7946611e-02  -3.0449645e-01   5.4795217e-01  -8.1692895e-01   3.1911865e-01  -2.0030017e-01  -1.6096753e-01  -4.0423727e-01  -1.7904831e-01  -9.1573738e-01   5.7583585e-01   2.8810945e-01   7.8510801e-01  -9.4651180e-01  -1.1720220e-01  -7.1458087e-01  -4.3200081e-01   7.8639375e-01   8.8654727e-01   8.2758925e-01   7.5697075e-01  -5.3175323e-01  -4.6555299e-01   5.3985465e-01   7.6779947e-01   1.8385993e-01  -2.3908619e-01   9.1145393e-01   4.1075610e-01   2.9732319e-01   4.6935532e-01  -1.5555617e-01  -7.7104285e-01  -9.4305139e-01  -1.7970676e-01  -2.6988448e-01   3.7828384e-01  -8.2339872e-01  -3.2761254e-01  -9.3488504e-01  -4.5714003e-01   4.7947551e-01   9.2874580e-01  -8.4435204e-01  -1.1863788e-01   8.1167996e-01   1.0276974e-01  -8.6440060e-01  -9.2277410e-01  -7.7288890e-01   9.2992832e-01  -5.9393425e-01   6.4060971e-01  -1.6605969e-01  -7.9879572e-01  -4.0817536e-01  -8.6953316e-01  -6.8555597e-02   1.3221755e-01  -9.2697692e-01  -7.8072901e-01  -1.0262563e-01   3.5677537e-01   7.0962999e-01  -2.1901822e-01  -5.3317834e-02  -2.1254007e-01  -2.9945092e-01  -7.3793176e-01   8.8045635e-01  -4.5522388e-01  -6.9674209e-01  -5.4495883e-01   4.6686681e-01   4.6290495e-01   1.5185096e-01   1.6482144e-01  -1.3862222e-01   9.7352911e-01  -5.6547706e-01  -7.0041606e-01   1.3608142e-01   5.0295193e-01   6.6333633e-01  -1.7616520e-01  -5.5506338e-01  -9.1790665e-01   4.0147628e-01   4.6510793e-01  -8.0270616e-01   2.2473521e-01   7.1623824e-01   4.5176606e-01   1.4246928e-01   6.9574215e-01  -8.3375168e-01   5.3266161e-01  -3.3777746e-01  -7.4445919e-01  -2.9832282e-01  -1.9761563e-01  -6.3156798e-01   5.4639398e-01   7.4598903e-01  -7.9050352e-01   3.6012900e-01  -4.5092968e-01   1.4190035e-01   2.5259585e-01  -8.8475157e-01   9.9837361e-01  -3.7689182e-01  -4.1591765e-01  -3.8071328e-01   5.2063426e-01  -3.6779925e-01  -8.7616895e-01  -2.2495869e-01  -5.6863689e-01  -5.3721030e-01   4.4934838e-01   4.0229118e-01   1.5558470e-01   4.0606421e-01   6.3544077e-01   3.2215085e-01  -1.5320925e-01   6.4948725e-01   3.2374391e-01   1.5299234e-01  -6.3735123e-01  -9.9723148e-02  -5.1124733e-01  -2.3173000e-02  -9.5738585e-02   9.4587701e-01  -8.7442389e-01  -4.6812117e-01   8.4809506e-01   3.4472317e-01  -1.6646761e-01  -5.8595918e-01  -6.1737102e-03  -3.5873797e-01  -7.8673670e-01  -9.5712636e-01   8.8678216e-01   7.7160917e-01  -9.9436799e-01  -2.7948686e-01  -3.0420184e-01   5.8655827e-03   9.1465019e-01  -1.9981700e-01  -3.7409489e-01   5.1376817e-01   1.3293054e-01  -6.5066865e-01   4.7887707e-01   1.8212987e-01   3.3880353e-01   2.9220716e-02  -1.9886137e-01  -3.9469299e-01   9.5933092e-01   1.9976049e-01  -4.6480322e-01   9.5799057e-02  -1.7675781e-01  -5.7248372e-01   9.5482202e-01   8.1448810e-01   5.6275992e-02  -7.4094237e-01   3.6965925e-01  -3.8835352e-01  -3.6163563e-01  -3.6539483e-01   2.8312301e-01  -8.8139906e-03   4.4065601e-01   3.7306561e-01  -3.6285081e-01   4.5932650e-01   4.0255017e-02   9.4954306e-01   3.9411392e-01  -6.6140592e-01   7.0945159e-01  -8.5413519e-01   2.1268688e-01  -4.1640512e-01  -5.6350606e-01  -9.1822870e-01  -7.5905847e-01  -5.6129212e-01  -7.0226607e-01   9.3415310e-01  -6.7435694e-01   6.1505507e-01  -1.2433899e-01  -1.7007387e-01   4.7755826e-01  -6.5476283e-01  -5.9421490e-01   2.4142288e-01   7.3797067e-01   5.6846335e-01  -8.8527290e-01   5.4262935e-01   3.8375188e-01  -2.6268754e-01  -1.8398065e-01  -4.3839725e-01   6.4444988e-01   4.9229879e-01   8.0425519e-01  -3.8378091e-01   4.4345572e-01  -3.2035628e-03  -5.6981341e-01  -8.5103112e-01   7.7695261e-01   2.6060760e-01  -3.9297455e-01  -8.9397584e-01   2.1994470e-01  -7.5748743e-01  -1.6650818e-01  -8.3026112e-01  -6.7434524e-01   9.4877883e-01   2.1565975e-01   6.7147727e-01   3.3963633e-01   5.4724986e-01  -4.9720101e-02   5.3256034e-01   8.1154538e-01   7.9448936e-01   6.4674279e-01   3.4425414e-01  -2.0641575e-01  -5.9672086e-01   7.5022618e-01  -5.9374521e-01   8.1515442e-01   4.5444912e-01  -8.2890870e-01   1.7526861e-01  -9.1410378e-01  -2.4425069e-01   6.9949818e-01   6.0521729e-01   4.7689024e-03  -7.3112504e-01   3.4446618e-01  -5.9465163e-01   9.0800522e-01  -2.4652509e-01  -4.2549982e-01  -7.6641393e-01   7.9090205e-01  -3.7478754e-01  -2.7544392e-01  -6.5141698e-02  -9.9558364e-01  -8.2026291e-01   1.0436720e-01  -3.7548097e-01   4.1579172e-01  -9.3641611e-01  -1.7737415e-01   4.7620622e-02   7.4462199e-02   6.9842312e-01  -4.2574671e-01   8.6859474e-01  -9.4517751e-01  -4.4657265e-01  -8.2844543e-01   1.5805497e-01  -2.6281585e-01  -5.3639851e-01  -2.9311296e-01  -2.1334501e-01  -9.0609205e-01  -1.8584122e-01  -4.0428191e-01  -2.8113335e-01  -4.1417503e-01  -7.9092989e-01   6.0624994e-01  -3.2486474e-01  -1.1980077e-01   3.6089288e-01  -9.1337763e-01   4.8416880e-01   8.6887474e-01  -5.5716515e-01  -1.0338652e-01   7.6938443e-01  -3.6089762e-01  -9.5555501e-03   7.9631146e-01  -5.1424847e-01  -9.1161407e-01   2.7621155e-01  -8.9186812e-01  -4.7060558e-01   6.0695857e-01  -7.8464601e-01   8.2617266e-01  -6.7584423e-01  -2.0407822e-01  -3.1808581e-01   5.2879267e-01  -5.5242691e-01   8.2272196e-01   4.3586516e-01  -7.0887643e-01  -1.9669073e-01  -1.4214499e-01   4.4807222e-01   9.8005084e-01  -2.5826970e-01  -3.8880013e-01   5.1144907e-01   4.1817214e-01  -2.1071868e-01   2.8043355e-01  -5.8753470e-01   2.4124552e-01  -8.1880103e-01  -5.4881436e-01   2.6528701e-01   7.0155873e-01  -6.5243914e-01  -7.9605201e-01  -2.7570881e-02   5.3318671e-01  -4.4364144e-01   5.3579828e-01  -6.1325493e-01  -3.5131751e-02   4.8149141e-01  -4.0184053e-01  -2.1137280e-01   9.6620553e-01  -6.1667248e-01   9.6603974e-01  -7.4894988e-02   9.3370588e-01  -2.6379120e-01  -9.7341019e-01  -5.1643004e-01   3.8492978e-01  -7.4764009e-01  -9.4046485e-02   3.5685539e-01   9.5621774e-01  -3.2524527e-01   4.2032800e-01  -4.3510187e-01   3.3752460e-01   6.6423659e-01   1.8300582e-01  -3.3766108e-01  -8.9818441e-01  -1.6565100e-01  -7.0613495e-01   5.6382982e-01  -5.7009863e-01   8.8124744e-01   7.1850726e-01   5.9834217e-01  -5.6526095e-01  -5.9636820e-02   9.3966479e-01   1.5747914e-01   2.7165454e-01   2.4335823e-01  -2.6676671e-01  -4.2297280e-01   8.2138262e-01   2.0180957e-01  -7.1135494e-01  -6.7664310e-01   7.6319376e-01   3.7555294e-02   4.0796995e-01   7.6353197e-01  -7.5980974e-01  -2.5956976e-01  -8.8542544e-01  -8.3837430e-01  -3.9140418e-01   8.1761156e-01   1.2208428e-01  -6.4793315e-01  -1.0595249e-01   9.5082416e-01  -3.7811884e-01  -5.0806525e-01   7.8813424e-01  -7.7674640e-01  -1.9769606e-01  -5.1272745e-01   3.7669156e-01   5.9709349e-01   6.0118070e-01  -5.0059441e-01  -6.2042933e-01  -5.4154032e-02  -3.9106960e-01   3.3443039e-01   8.7473101e-01  -6.4164694e-01   4.3394818e-01   4.4597978e-01  -4.9809379e-01  -3.6519012e-01  -3.9134879e-02   8.0499447e-01   3.8308409e-01   9.6604651e-02   6.0317607e-01  -4.7979037e-01   1.8877512e-01   4.3919675e-01  -3.9850757e-01  -4.6640823e-01  -1.8021336e-01   5.5792608e-01  -7.4292545e-01  -6.5991191e-01  -5.6297024e-01   3.3591125e-03  -2.7944559e-01  -5.4492704e-01   9.6964460e-01   1.7956387e-01  -4.8748613e-01  -5.6556160e-01  -7.6962117e-01   7.3363058e-01  -8.0641703e-01  -3.4024869e-02  -7.0924526e-01  -3.2117008e-01  -7.4456951e-01  -5.0375773e-01  -7.9336343e-01   3.1985001e-01   5.2192367e-01  -3.4801894e-01   2.1803330e-01   4.6197353e-01  -5.8707925e-01  -5.6512169e-01   1.1678433e-02  -8.2686144e-01  -3.6440566e-01   6.7739966e-01  -6.8076289e-01  -3.7603628e-01  -3.1645071e-01  -7.6853037e-01  -1.0459225e-01  -7.2993112e-01  -2.2373935e-01   8.3385509e-01   2.1098777e-01   5.6022379e-01   4.8059438e-01  -1.4358073e-01  -5.3681255e-01  -2.7047794e-01  -8.5916059e-01   7.0704508e-01  -9.8602146e-01  -1.9222441e-01  -5.8881759e-02   9.6891452e-02   1.5135840e-01  -9.0952525e-01   6.1888099e-01   2.5006034e-02   7.3163204e-01  -4.3771998e-01  -5.8654692e-01   9.2411842e-01   5.1417651e-01  -9.6044145e-01   9.5937419e-01   8.0978149e-01   1.0643310e-01   2.0215756e-01  -1.1850010e-02  -9.3347263e-02   7.3198226e-01   8.7482599e-01   3.4974706e-01   7.0924159e-02  -4.9302304e-01  -1.9309275e-01  -9.5981794e-01   1.0444088e-01  -7.0959375e-02  -1.3959628e-01   8.2697460e-01  -8.3249820e-01   3.1950745e-01  -8.7045099e-01  -3.0797229e-02   5.0811039e-01  -8.8989570e-02   7.2229705e-01  -5.5614079e-01  -1.6556449e-01   2.9758460e-01   7.1024308e-01   2.5188435e-01   6.1158027e-01  -1.4414276e-01   4.4003124e-01  -5.6529085e-01  -8.2191193e-01  -4.1306830e-01   8.6487960e-01   7.0042874e-01  -9.1692718e-01   5.7205270e-01   2.7119539e-01  -8.1403051e-01  -7.8035214e-01  -7.2667130e-01  -8.0091043e-01   7.0182803e-01  -8.4736502e-01  -3.4519035e-01  -7.4799866e-01   9.6062611e-01   4.6310582e-03   8.6836188e-01   5.0002686e-01   3.2677605e-01   2.4986117e-01   7.5210622e-01  -8.6811434e-01  -5.3526772e-01   7.3124900e-01  -1.9226848e-01   9.5326552e-01  -3.6517717e-01   4.5248915e-01   8.6023667e-01   5.0739765e-01  -4.6090631e-02  -1.1429345e-01   5.2998768e-01   8.2095053e-01   4.2309992e-02  -9.2825939e-01   6.5652476e-01   3.0298026e-01  -9.8297842e-01  -4.7775523e-01   1.2153248e-01  -2.9911477e-01   2.9227001e-01   4.6802237e-01   6.1697320e-01  -5.6018531e-02  -2.3855158e-01   8.3864176e-01  -3.9924522e-01   6.8380234e-01  -1.7670337e-01   5.9087960e-01   8.4504377e-01  -8.9534007e-01  -3.6307661e-01   4.7873577e-01  -5.4912033e-01   6.6698856e-01   4.9469188e-01  -2.9022961e-01  -2.5035990e-01   4.5907192e-01  -4.1172734e-01  -4.5281728e-01   7.3387070e-01   9.6557892e-01   4.5520152e-01  -2.5295180e-01   1.1104249e-01  -3.1868346e-01  -1.2136701e-01   3.5957052e-01  -2.4591589e-01   2.2397179e-01   9.6637137e-01  -1.6936056e-01   3.3372807e-01  -8.6006704e-01  -3.6127837e-01  -4.8996851e-01   9.6829709e-01  -1.3483135e-01   7.4946360e-01  -7.9861547e-01  -5.5874493e-01  -2.4564412e-02   2.7420177e-02  -1.1206985e-01   2.5967404e-01   9.2101444e-01   6.1660435e-01   2.5890084e-01  -3.1835172e-01  -5.5455022e-01  -5.2163484e-01  -6.8690175e-01  -9.8874577e-01  -6.5661870e-01   2.2148925e-01   7.4492244e-01  -1.3527804e-01   1.2602984e-01   1.9685621e-01  -4.7550650e-01   4.2127632e-01  -4.3900612e-01   2.2470570e-01  -5.7970535e-02  -3.6573001e-01   3.3549221e-01   7.8964255e-01   3.8649572e-02   2.9131735e-01  -9.3656308e-01   1.7937411e-01  -8.2292536e-01   9.8724161e-01   5.4881222e-01  -4.7771874e-01  -6.3479332e-01  -5.3538592e-01  -5.3395503e-01  -5.0816884e-01   2.1883734e-01  -3.3315122e-01  -9.1127824e-01  -4.5049952e-01   5.8695676e-01  -6.8869776e-01   8.8931063e-01  -7.9580506e-01  -4.2362956e-02   2.9261665e-01   3.2276733e-01   1.4199516e-01   9.2473153e-01   9.3495277e-01  -2.0461357e-01   4.4998700e-01  -7.4895072e-01   8.2871396e-01   1.0371756e-01   2.5417432e-01   7.7527692e-01   1.2626012e-01  -6.5133940e-01  -5.9980755e-01   3.7771514e-01   5.8809740e-01   9.6382990e-01  -6.6245548e-01  -1.2496427e-01   9.8349895e-01   9.1553919e-01   6.2432925e-01   5.9475294e-01  -9.7108563e-01  -3.9802378e-01   9.9565483e-01  -3.0544406e-01   1.8368757e-01  -8.5834376e-01  -3.7951993e-02   6.9375886e-01   8.4909260e-01  -5.2431878e-01   3.4324552e-02  -4.7945803e-01  -5.7166360e-01  -8.8127804e-01  -6.8474131e-01  -5.9198859e-01   6.0313384e-01   3.3404079e-01  -5.4739225e-01   3.4018392e-01   2.0221867e-01   7.5686456e-01  -2.4723097e-01   3.4621690e-01  -3.7295578e-01   6.5193481e-01  -6.8098145e-02   8.6164080e-01   3.0844719e-01  -5.0276686e-01  -1.8624188e-01   3.9108428e-01  -4.9901151e-01   5.9774106e-01  -9.5284816e-01   8.4672653e-01   4.5271837e-01   2.5621452e-01   1.1296981e-01  -9.5686319e-01   5.9152940e-01   6.7635165e-01   4.8096781e-01   9.2306320e-01   9.5061663e-01  -9.8823168e-01   1.9804835e-01  -4.4672668e-01  -9.7549605e-01   1.6388862e-01  -9.4871196e-01  -3.8402125e-02   2.0102582e-01   1.2235310e-01  -2.9976833e-01  -5.1402306e-02  -8.1111904e-02   8.5475745e-01   1.8961288e-01  -5.2876367e-01  -8.1596424e-01   4.6655347e-01   8.2537154e-02   7.6780765e-01   6.9907520e-01   9.3172791e-01   4.0518873e-01  -8.2026568e-01   3.9998561e-01   2.1861219e-01  -8.3198647e-01  -4.1661571e-01   9.1832610e-01  -7.0464611e-01  -5.8883132e-01   6.1090901e-01  -5.1650861e-01  -4.2198149e-01  -8.3204736e-01   7.4574368e-01   1.8525520e-01   3.5206461e-01  -9.9450508e-01  -5.9313755e-02   7.9414486e-01   3.3029912e-01  -3.6062704e-01   5.6451671e-01   4.3551727e-01  -9.3035269e-01  -3.5797748e-01  -9.6404194e-01   5.5752363e-01   5.8169778e-01   3.0921675e-01  -2.7885214e-01   7.1705930e-01   5.0251299e-01   9.8379100e-01  -5.4152426e-01   3.3977963e-01  -2.3090367e-01   5.9471227e-01  -1.6113873e-01  -9.6039739e-01   1.6757341e-01   2.7265192e-01  -9.1473871e-01   9.2249956e-01   9.6515795e-01  -2.1429601e-02   4.8849923e-02   8.3267842e-01   9.1580188e-01  -6.7117231e-01  -4.2387866e-01   5.4482572e-01   5.0943071e-01   8.0800426e-01   3.9978204e-01   5.5361840e-01  -4.2417979e-01   7.0045642e-01  -5.4864721e-01   5.4696656e-02   6.6200178e-01   2.1509396e-01   4.4747906e-01  -4.7454904e-01   6.0600828e-01   7.8104278e-01  -9.0375549e-01   3.3907639e-01   1.1391875e-01   2.0094494e-01   8.1206624e-01  -7.1030037e-01  -1.6527272e-01   7.1279055e-02   2.2059889e-01  -2.0789290e-01   8.5663012e-01   7.6063357e-01  -5.2572744e-01   5.2482489e-03   1.7853814e-01   4.3151281e-01   9.3523995e-01  -1.0197860e-01  -6.3165132e-01   7.9718498e-02  -6.1341443e-01  -5.3852582e-01   6.1986250e-01  -7.6583622e-01  -5.4301470e-01   8.5107768e-01  -7.9560123e-01   8.9544085e-01  -7.7901279e-02  -7.8808104e-01   7.3027679e-01   9.7338152e-01  -1.4873341e-02  -6.9937890e-01  -6.2491667e-01  -2.6982557e-01   9.6313883e-01   2.2845532e-01  -1.2429417e-01  -4.5919715e-02   8.3420661e-01  -1.5558713e-01  -9.7277336e-01  -5.8638681e-02  -8.9711708e-01   1.2060707e-01   7.1008649e-01  -5.5296286e-01   1.9002902e-01  -5.5165681e-01   1.4333943e-03   6.5682533e-01  -3.6593271e-01  -5.4000522e-01   1.2314826e-01  -7.8910081e-01  -5.7594145e-01  -6.9515778e-01  -6.6032941e-01   8.2493624e-01   5.5977143e-01  -2.4327740e-01  -8.4685173e-01  -5.8804385e-01   4.9890576e-01   1.8916112e-01   6.9074584e-01  -2.7705682e-01  -1.7800549e-01   9.2185762e-01   5.1733693e-01  -7.2218992e-01   2.5242923e-01   9.6787784e-01   3.4575223e-02   9.2992154e-01  -3.7018968e-01   5.7711508e-01  -2.2311028e-01   8.8337354e-01  -8.7259180e-01  -4.7863538e-02   8.3776578e-01  -6.8488305e-01  -5.0610523e-01  -7.5528675e-01  -4.3633241e-01   1.7118742e-01  -7.0477356e-01  -6.2484592e-01   2.6459369e-01   8.3768676e-01   6.8824866e-01  -3.9668788e-01   4.6588665e-01  -4.5290021e-01  -1.1453384e-01  -3.1279512e-02   5.3705016e-01   7.5005367e-01   2.3720788e-01  -8.1767098e-01   5.4970971e-01  -3.8473608e-01   5.2898305e-01  -9.4317800e-01  -1.0426421e-01   1.8180957e-01   8.8536806e-01   7.3661495e-01  -2.2157780e-01  -3.5060575e-01   8.4716167e-01  -1.8089266e-01  -5.3790414e-01   9.7252139e-01   5.8350311e-01   5.3991132e-01   2.9780560e-01   3.3843780e-01   7.2887452e-02  -6.3569656e-01   3.2621268e-01  -4.9146657e-01  -1.8977110e-01   3.5159401e-01   1.4135314e-01  -3.3672948e-01   5.6275927e-01  -4.2784414e-01  -2.3647448e-01   7.5230462e-01  -6.5109104e-01   8.7641920e-01  -7.5576226e-02  -5.7827827e-01   8.2264036e-01   7.2608026e-01  -7.9789476e-02   4.7973115e-01  -7.7321094e-01   2.2507447e-01  -2.4719817e-01   2.6898554e-01  -6.9597724e-01   8.1353615e-02  -9.8922891e-01
  -9.0767379e-01   1.0801201e-01   6.2836746e-01   9.5676431e-01   4.0722073e-01  -3.9531824e-01   4.7797466e-04  -7.0022360e-01   2.2326610e-01  -3.3061479e-01  -2.4072681e-01  -4.7788794e-01  -5.3503885e-01   3.6889253e-01   6.9874876e-01   3.3971634e-01  -2.3160278e-01   7.2372241e-01   4.5340165e-01  -8.2334803e-01  -5.8656738e-01   5.2255113e-01   9.4356278e-01  -5.9123883e-01  -9.8872451e-01  -7.2471145e-01  -8.1205877e-01  -3.0256880e-01  -4.0694084e-01   6.6229933e-01  -1.4286642e-01   3.0112529e-01   1.6675597e-01   6.2584429e-01  -7.1322871e-01   3.0302090e-01  -2.4199600e-01   1.8299499e-01  -4.6967670e-01  -1.8227380e-01   7.6434485e-01   7.8788729e-01   8.7797917e-02   7.9905557e-01  -8.1164228e-01   3.3084372e-01   8.5511050e-01  -8.0639487e-02   9.4758766e-02   2.5001687e-01  -9.2223165e-01  -5.9133886e-01   3.5193419e-01   9.2761479e-02   8.8807418e-01   6.1952844e-02   2.7356917e-01   4.8087305e-01  -5.7692126e-01   6.1363488e-01   6.1370112e-01  -2.5725883e-01  -2.4598379e-01  -2.7318841e-01  -2.7657218e-01  -9.9840213e-01  -6.1454015e-01  -5.9557983e-01   9.2480369e-01  -3.1133096e-01  -5.0475028e-01  -6.4915048e-01   9.6449393e-01  -9.1944324e-01  -4.4737147e-02   2.9850292e-02   6.7028357e-01  -6.8923597e-01   7.2766068e-01   1.4040171e-01  -5.3323754e-01   3.3666903e-01  -9.1306567e-01   7.9944933e-01   1.0085669e-01  -2.9516838e-01   5.1553096e-01   1.0419547e-01  -8.6584665e-01  -1.5414184e-01  -3.0252583e-01  -3.7869121e-01  -5.5765883e-01  -3.1458566e-02   5.6448189e-01   1.1360034e-02   6.8645842e-01  -9.3923915e-02  -9.4004577e-01   4.0818527e-01   7.4426130e-01  -7.5131061e-01  -8.4015046e-01   1.4811044e-01  -5.8113705e-02  -1.7742849e-01   8.2844573e-01  -2.5058629e-01   7.3499653e-01   4.9197584e-01   3.3875842e-01   7.6310651e-01   8.8811584e-01   1.7693346e-01  -3.7440153e-01  -6.7196491e-01  -6.9031469e-01  -5.6737520e-01  -7.1808908e-01   3.2939330e-01   7.3183287e-01  -2.6843638e-01   4.6311527e-01  -5.3510386e-01  -8.9266348e-01  -1.1093542e-01   3.8099341e-01  -1.9115818e-01  -6.0235034e-01   7.3754582e-01  -5.1766331e-01  -7.9490447e-01   3.6204881e-01  -8.3036097e-01   8.3736699e-01   7.9301579e-01  -1.9970434e-02  -9.6722196e-01   5.1218629e-01   1.2402719e-01   7.6459056e-02   8.5934351e-01   7.7423810e-01  -6.7303336e-01   9.5413160e-02  -4.7317669e-01  -7.3193603e-01   8.8197244e-01   1.9128755e-01   1.6403697e-01   8.4908536e-01  -4.6361633e-01   2.7215356e-01   8.8859066e-01   9.5493416e-01   8.3735936e-01   1.1104355e-02  -7.1678394e-01   8.9770850e-01   6.7050769e-01  -3.6599561e-01  -4.4950312e-01   8.3211870e-01  -4.8353558e-01   7.6662929e-01   8.9483278e-01   5.8116805e-01  -1.9698353e-02   4.9731411e-01   3.6554124e-01  -7.2191914e-01  -1.7641012e-01   1.2692021e-01   1.1248132e-01  -2.5719495e-01   1.5909024e-01   6.3340546e-01  -8.7253807e-01  -7.2931584e-01  -9.9622772e-01  -6.3694163e-01  -5.3319095e-01   2.6947451e-01  -8.9124732e-01   1.5444898e-01  -2.5298640e-02   3.8953765e-01  -7.3099600e-01   4.3824463e-01   8.0831074e-01  -1.4619628e-01  -6.4577987e-01  -4.1091190e-01  -4.5774453e-01  -9.0972734e-01  -4.5000037e-01   7.6408940e-01  -2.0520695e-01   4.2482553e-01  -1.4597287e-01  -3.1997922e-01  -9.9373509e-01   9.7550511e-01   2.7346210e-01  -4.2779012e-01  -6.9774607e-01  -2.6789167e-01  -6.2870111e-01  -4.0071470e-01  -7.0622728e-01   2.2646878e-01  -8.1126202e-01   4.0110193e-01  -9.5193126e-01   8.4575320e-02  -7.0340023e-01   3.9715715e-01   3.1780205e-01  -6.7992204e-01   9.4492146e-01   5.8452108e-01   9.8718707e-01  -2.7546225e-01  -1.4529271e-01   8.5907531e-01  -3.6885625e-01  -3.0689444e-01  -7.5674475e-01  -9.1121653e-01  -6.8412068e-01   8.7294950e-01   6.7306420e-01  -7.9745869e-01  -9.5609296e-01  -5.4361495e-01  -1.8785959e-01   1.2886321e-01   5.6862934e-01   4.4565447e-01  -2.6899463e-01  -4.6744041e-01  -9.9584254e-01   7.3975660e-02   4.7098143e-02  -1.0631066e-02  -4.9984628e-01   1.1770625e-01  -2.0274073e-01   2.2045896e-02  -2.8711316e-01   7.3096661e-01  -3.4179407e-01  -8.6500340e-01  -5.4226081e-01   9.5086756e-01   8.9962205e-01  -6.3842042e-01  -4.2184364e-01  -3.9640274e-01  -4.1882789e-01   6.8901258e-01  -4.9648724e-02  -9.6085863e-01  -5.3077353e-01  -7.5164606e-01  -5.8473781e-01   6.1240756e-01  -7.5642073e-01  -5.1080421e-01  -8.6820548e-01   9.1084515e-01  -7.4466366e-02   4.4231992e-01   1.2651481e-01  -9.6117948e-01  -8.1097461e-01   1.7334731e-01   6.5088392e-01   5.3270471e-01  -5.4201693e-01  -1.0143589e-01  -4.9262641e-01   5.5637924e-01   7.9493144e-01  -3.5249556e-02  -8.5811926e-01  -7.0001523e-01  -8.5670431e-02  -9.1851405e-02   1.2628956e-01  -1.1474931e-01  -6.2788200e-01   7.5187539e-01  -7.2459237e-02   7.7734925e-01  -5.7311747e-03   6.0722131e-01  -8.4704102e-01   9.6283436e-01   2.1834954e-01   6.2351627e-01   8.9985730e-01  -7.1278683e-01   7.7888958e-01   3.1417815e-01   4.0531401e-01  -8.2593686e-01  -5.1482132e-01  -2.6204938e-01  -4.9777988e-01   4.0247971e-01   3.9710640e-02   1.1410971e-01  -1.9261968e-01  -7.4182047e-01  -9.8891686e-01   7.4686323e-01  -9.4488949e-01   7.1050019e-01  -4.1923592e-01  -2.0154478e-01  -2.9969812e-01  -9.1568014e-01  -7.8685405e-01  -7.5537167e-01   9.8084162e-01  -4.3705382e-01  -7.6284521e-01  -3.6480531e-01   9.7202762e-01  -8.5629930e-02   1.8317053e-01  -7.4391419e-03  -5.6228902e-02   1.2645213e-01  -7.8716699e-01   3.1515628e-01  -1.3007226e-01   7.6805050e-01   5.7652494e-01  -3.2975224e-01  -5.8628253e-01   1.5822402e-01  -6.1260391e-02  -4.1361988e-01   9.7065316e-01   3.2233594e-01  -8.1601912e-02  -7.2312210e-01   5.0896470e-01   2.7303350e-01  -9.8539517e-01   8.4449639e-01  -5.6383119e-01  -7.6582583e-01  -6.5231671e-01   2.1683374e-01   7.5105637e-01  -4.8904145e-01  -4.9276689e-01   3.4531113e-01   2.7122221e-01   5.2607123e-01  -8.4278629e-02  -5.7168405e-01   3.4150307e-01   1.9526682e-01  -9.5290134e-01   7.2596879e-02  -1.2370426e-01   4.8899699e-01  -9.8192285e-01  -9.9607534e-01   2.9693786e-01  -8.3887648e-01   9.5936746e-01   3.5927338e-01   9.2819726e-01   3.2964820e-01   9.0333614e-01  -3.3062134e-02   7.7602859e-01  -6.4290889e-01  -6.6196259e-01  -3.1326920e-01  -3.6783765e-01   5.0064495e-01  -7.1385393e-01   8.5842027e-01   5.1493367e-02   2.6654956e-01   1.8006821e-01  -3.8643167e-01  -1.0470022e-01  -2.0229145e-01  -2.6033467e-01  -5.5268654e-01  -6.6585955e-01   7.5183951e-01   3.4278200e-01   4.5274208e-01  -1.8438347e-01   8.4597481e-01  -9.4935983e-01   8.7585970e-01   6.3691353e-01  -3.7803669e-01  -7.8375604e-01   2.5863211e-01   4.7032080e-01  -5.8226824e-02  -3.5451911e-01   2.7493559e-01  -8.8100306e-01   7.0059412e-01  -1.3330468e-01  -9.2460819e-01   1.4531220e-01  -2.5681343e-01  -2.0171372e-01  -8.9698543e-01  -2.7424620e-01  -9.8417588e-01  -1.1567547e-01   2.1829829e-01  -8.4607026e-01   4.0028970e-01   4.0092251e-01   6.1077646e-01   3.8311964e-01   4.5780150e-01   2.9387815e-01   2.0749228e-01   3.3456183e-01   4.3197121e-01  -6.0165724e-01   2.2250543e-01   3.0906219e-01   9.6435914e-01  -8.3301464e-01  -2.3375155e-01   5.3848643e-01   3.3955533e-01  -5.3223118e-01   7.7826057e-01   5.8218321e-01   2.5133386e-01  -4.7067954e-01  -2.1376767e-01   8.5265670e-01   6.4034759e-01  -4.9912637e-01   6.6531271e-01  -5.5378621e-01  -1.6318350e-01   2.8769750e-01  -7.9258883e-01  -4.2038699e-01  -2.6467411e-01  -4.8026598e-01   1.8664752e-01   4.8327730e-01   2.1055431e-01  -1.7856223e-01  -4.7584014e-01   6.0883049e-01  -1.6856609e-01  -8.3352467e-01   1.8525084e-01   2.1844641e-01   1.1327462e-01   9.4484551e-01   5.7636103e-01   4.8287631e-01   3.6769368e-01   1.7255779e-01   8.2223655e-01   1.2800041e-02   5.9319592e-02   6.8470684e-01   5.3592803e-01   5.3707913e-01  -8.8828271e-01   4.6856630e-01  -6.6586535e-01   7.4126012e-01  -9.6859068e-01  -4.3385747e-01  -7.5733908e-01  -8.2762817e-01   7.9757838e-01   4.6312716e-01   5.3056068e-01   2.5033897e-03  -3.2731444e-01   7.8592373e-02  -7.1430785e-02  -4.1327160e-01  -6.0593390e-02   9.0094968e-01   6.4187057e-02  -3.2781749e-01   5.7961078e-01  -2.0112874e-02  -7.8092332e-01   9.1051630e-01   3.1398637e-01  -3.3320265e-01  -6.1120868e-01  -6.0389614e-01   6.1619034e-01  -7.5127547e-01  -4.6728058e-01  -1.2165160e-01  -4.4518508e-01   7.7009422e-01  -4.5435216e-01   2.0140432e-01   9.6735933e-01   6.6323666e-01   9.0594121e-01  -2.6460829e-01   7.6124544e-01   5.0667926e-01   6.8493866e-01  -9.4248681e-01  -2.7879328e-01   6.1745974e-01   2.8525369e-01   9.8528035e-01   7.4370533e-01  -7.5170850e-01   3.7386281e-01  -3.1611783e-01  -8.5342685e-01  -9.1788412e-01   7.9565714e-01  -9.1993199e-01   4.6138268e-01   1.8940115e-01   6.9740372e-01   5.9108958e-01   1.2490895e-01  -4.2233910e-01  -1.8123811e-01  -9.8085227e-01  -8.5676327e-01   9.6819835e-01   1.0858948e-01  -6.4660546e-01  -1.4639779e-01  -6.0838604e-01   5.3946497e-01   5.5991399e-02  -1.3319061e-01   2.3798341e-01  -1.4139398e-01  -8.7727538e-02  -6.0655414e-01  -8.5860519e-01   3.1980270e-01  -1.0219004e-01   8.7380344e-02  -6.4669542e-01  -4.4221851e-01  -2.6093195e-01  -7.5248782e-01   7.1969368e-01   4.1506189e-01  -3.4625821e-01   1.4145796e-01  -1.0041772e-01   7.1313770e-01  -4.1357140e-01  -9.9831525e-01   4.0820686e-01   1.7804954e-01  -4.5852534e-01   5.9396044e-01   9.6167158e-01  -5.5444682e-01   1.7837371e-01   7.6724773e-01   9.4344177e-01   8.8078347e-01  -8.9781213e-01   4.2920154e-01   7.3098507e-01   6.5645624e-01  -2.9627833e-01  -5.6687852e-01  -4.9663902e-01  -3.8149223e-01   8.8355456e-01   7.6802078e-01  -6.2704480e-01  -2.1166522e-01  -6.8141407e-01  -6.2514848e-01   3.7624676e-01  -9.9678491e-01  -4.5696142e-01   9.7821445e-01   7.5372378e-01   3.4385360e-01  -6.9881267e-01   7.2833493e-01  -1.8329220e-01   8.5877520e-01   4.1121498e-01  -6.7437783e-01  -2.4521795e-03   2.2858452e-01   9.0537062e-01   3.5888449e-02   6.1576033e-01   2.8023014e-02  -7.7324159e-01  -6.5541078e-01   2.8858746e-01   9.6927407e-01   2.7304264e-01   4.0936707e-01   1.7024431e-01   3.3216070e-02   4.0354755e-01  -6.3049280e-01   8.9162211e-01   6.6218250e-01   8.4021736e-01  -7.0518134e-01   8.9888177e-01  -3.8700433e-01   7.4990226e-01   7.1461979e-01   8.9081785e-01   1.2008553e-01  -8.9555318e-01   3.8811713e-01   4.5580230e-01   6.1238353e-01  -1.5855989e-01  -7.0103888e-01   5.3200667e-01   4.9326769e-01  -9.7236527e-01   6.0237995e-01  -5.3355008e-01  -7.6643220e-01  -4.1725517e-01  -5.6216068e-01   7.9938519e-01  -7.1300573e-01  -3.6896253e-02   5.2060778e-01  -1.3644413e-01   3.1581754e-01  -7.2938229e-02   1.6431248e-01   5.6923507e-01   5.4866276e-01  -6.5151366e-01   8.3673480e-01  -6.7033019e-01   7.7103832e-01   2.2989316e-01  -7.7811480e-01  -9.7948637e-01   6.5263478e-01   9.8671788e-01  -3.4720693e-01  -1.6101475e-01  -4.3608442e-01  -8.0430430e-01   4.5435292e-01   3.8912275e-01   4.4139404e-01  -8.8625000e-01   8.7059319e-01   4.7449385e-01  -7.6607455e-02   4.7361305e-01   9.6227184e-01  -4.6467408e-01   7.9194846e-01  -9.1409982e-01  -4.0099514e-01   3.6906915e-01  -4.8407514e-01  -5.0339746e-01   3.4169268e-01   8.8616194e-01   6.8016604e-01   1.5075494e-01  -1.4991772e-01  -2.0456179e-02  -3.8492826e-01  -7.8660590e-01  -1.9786007e-01   1.1858836e-01  -6.7251991e-01  -8.9283622e-01   4.5435105e-01  -3.5016753e-02  -8.6962345e-01   2.1190541e-01  -6.3608045e-01   1.5896447e-02   6.2780806e-01  -3.6647551e-02  -4.5915891e-01  -7.8353240e-01   5.9311679e-01  -6.8316558e-01  -4.9675762e-01  -5.2027191e-01  -7.0318847e-02  -5.9581647e-01  -5.5465980e-01   1.2366790e-01  -9.4887223e-01  -3.5164392e-01   4.7034642e-01  -4.5650579e-01   7.9643604e-01  -9.9796561e-01   5.6431468e-02   7.9700951e-01   8.0452117e-01  -4.7565924e-01  -2.8921521e-01   5.3983945e-01   2.4992975e-02  -1.7472800e-01  -3.5589469e-01   6.4776468e-01   8.3823050e-01   7.0999001e-01   7.1977140e-01   4.9566783e-01  -4.9951264e-01  -1.6579758e-01  -2.3612101e-01   2.3764697e-01   9.7176207e-01  -9.8289842e-01  -7.3523651e-01  -2.5523484e-01   2.9077051e-01  -3.4594585e-02   8.4548800e-01   8.4073288e-01   6.7809381e-01  -2.5021857e-01   4.7339267e-01  -1.9439162e-01   1.0734390e-01   9.4669357e-01  -1.1635591e-01   3.1293840e-02  -8.8225482e-01   6.9612678e-01   2.5425557e-01  -8.7862608e-01  -4.1494330e-01   5.1614681e-01  -2.4114641e-01   3.4798437e-01  -4.4564874e-02   3.7860331e-01   7.9339819e-01  -5.4466661e-01  -2.6111299e-01   5.5101823e-01  -8.6131178e-01   9.1778685e-01   2.3669186e-01  -1.2206816e-01  -2.0290449e-01  -7.8660985e-01  -6.8284856e-01  -6.2463198e-01   8.9356126e-01  -5.5641677e-01   9.3637125e-01   8.3669492e-01  -1.9616191e-01   2.1571790e-01   1.0781541e-01   4.7108071e-01   2.3394578e-01   9.0652471e-01   5.8073265e-01   2.8289399e-01   8.0413899e-02   9.6829384e-01   5.5092485e-01  -3.8859762e-01  -1.6855681e-01  -7.5132709e-01  -4.8514297e-01  -1.3753719e-01  -3.7431614e-01   4.5466433e-01  -8.2503314e-02   8.4311640e-01  -8.7907840e-01  -5.1137229e-01  -1.2682448e-01  -5.1146014e-01  -7.5684356e-01   1.8026082e-01  -4.4583147e-01  -3.2853347e-01  -5.6424566e-01  -7.4467894e-01  -1.1709267e-01   5.4481912e-01  -5.3850538e-01   5.1239708e-01   8.4750764e-01   5.4400771e-01  -3.5880416e-01   6.0112949e-01   6.2080514e-01   8.5005287e-01  -9.9629598e-01   8.4051135e-01   7.2925328e-01  -5.4930879e-01  -5.6784932e-01  -8.7441436e-01  -9.4745484e-01  -3.3402822e-01  -4.0113475e-01  -1.6642697e-02   8.1317617e-01   9.9473178e-01  -5.8601129e-01   3.5664817e-01   1.4718131e-01   7.8684695e-03  -1.1815984e-01   3.8404257e-01   8.1324236e-01   2.0282155e-01   8.4903496e-01  -1.2758407e-02  -4.1903240e-01  -1.2811091e-01   3.3555513e-01  -5.0867968e-01   8.0342998e-01  -4.1153116e-01  -8.3627342e-01   8.3619648e-01  -5.1220431e-02  -2.8284001e-01  -2.0129195e-01   8.2464885e-01  -8.9553708e-01  -9.8084999e-01  -7.9783397e-01   9.9862981e-01   1.9832558e-01   1.8047411e-01   1.0546800e-01  -5.5484416e-01  -8.4487992e-01  -6.3482343e-01   8.9746866e-01   8.7625497e-01   4.9887803e-01   9.1266775e-01   6.2624608e-01   4.8087277e-01   7.0259087e-01   4.0158343e-01   5.2781266e-01  -7.3830213e-01  -8.4799106e-01   5.3761853e-01  -7.7180281e-01   8.6353155e-02  -7.6658853e-01  -6.2859448e-01  -6.7478780e-02  -8.4986732e-01   8.4294467e-01  -6.4337591e-01   6.7180226e-01   8.9024424e-02  -1.2094977e-01   9.0372858e-02  -1.2904373e-01  -5.9974447e-01  -6.2307800e-01  -2.5368583e-02  -8.6285898e-01   4.9448760e-01   1.3609848e-01   2.3604972e-01   5.7236459e-01  -7.6848507e-02  -8.4229790e-01  -2.9186319e-01  -5.8685243e-01  -8.5352965e-02   8.2018824e-01  -9.2552496e-01   3.6749572e-02  -2.5094798e-02   7.4458995e-01  -9.4097510e-01   6.7119248e-01  -4.1804918e-01   4.3110313e-01  -1.1103721e-01  -2.0593506e-02  -1.3652488e-01   4.7943760e-01   3.4716997e-01   6.6208053e-01   2.8556530e-01   8.8047810e-01   3.2564324e-01   1.0126551e-01   7.7371531e-02  -1.5496595e-01  -9.1379867e-02  -1.1963083e-01   3.0466445e-01   2.9736520e-01   9.2344755e-03  -7.3389059e-02   5.4003539e-01   5.0781261e-01   2.3587344e-01   6.1948125e-02   6.4602595e-01  -8.0272532e-01  -4.8219158e-02  -9.3514180e-01  -2.0938848e-01  -6.5502701e-01   4.3932753e-01  -5.5996430e-01  -4.9142916e-01  -1.4178909e-01   1.6324848e-01   8.7634434e-01   8.9483778e-01  -3.1203546e-01   6.7909593e-02   8.3960823e-01   8.5999926e-01   6.6547953e-01  -5.7521768e-01   7.9971313e-01  -6.1029771e-01  -4.1841940e-01  -3.2591702e-01  -4.3850910e-01  -3.9501665e-01  -6.4094170e-01   9.0580338e-02   8.2278183e-01   7.3266606e-01   4.3204472e-01   2.1519851e-01  -2.5088778e-01  -1.0993604e-01  -1.8516416e-01   7.4410835e-01  -5.9648791e-01   9.0975250e-01  -6.2236929e-01  -9.4848108e-01  -1.1212862e-01  -1.0165449e-01   6.6121056e-01   1.7124237e-01   1.1425391e-01   8.0942557e-01  -7.2468133e-01   2.6557877e-01  -2.5673746e-01   1.1717594e-01  -4.9421332e-01  -9.5382493e-01   8.9731678e-01  -3.2764760e-01  -1.4128118e-01  -7.2403460e-02   7.6194844e-01  -4.8702366e-01  -7.9146824e-02  -5.5085078e-01   1.2788907e-01   6.6906050e-01
  -2.6965447e-01   2.7461400e-01   5.3057767e-01   9.4397146e-01   6.8102223e-01   1.3574784e-01   2.3402911e-01  -7.4919506e-01   9.5696416e-01  -7.2849199e-01  -2.5825233e-01  -8.3616504e-01  -5.8773211e-01   8.0643882e-01   2.1525342e-01  -3.9623850e-01   1.3952104e-01  -7.5858278e-01  -4.6831038e-01   7.2793310e-01   8.4581519e-01   8.0189986e-01   3.6023716e-01  -9.2207940e-01   5.2453320e-01   7.7940397e-01   3.7219709e-01  -2.8154604e-02  -4.4245424e-01   4.7277227e-01  -3.7708482e-01   9.1808097e-01   3.6528650e-01  -6.5218195e-01  -5.9192688e-01  -1.4806797e-01   5.5152821e-01   5.4897536e-01  -4.6694465e-01  -6.1318724e-01  -7.9794711e-02  -1.1858798e-01  -8.4863319e-01  -5.9064710e-01  -4.9702890e-01  -9.2731441e-01  -8.6420125e-01  -7.6875507e-01  -6.3809004e-01   1.6872292e-01  -5.1161224e-01   5.7501257e-01   4.0937032e-02  -4.3875320e-01  -3.7046209e-01   4.3669647e-01  -5.5146717e-01   9.6773820e-01   6.9675472e-01   5.9582897e-01  -4.8128632e-01  -5.0670785e-01  -8.0211862e-01   1.7131418e-01   9.0460808e-01  -3.2174367e-01   5.1431767e-01   2.4555551e-01   4.1847960e-01  -1.1592147e-01   7.9216527e-01  -2.0196785e-01   7.3915543e-01   8.3330823e-01  -7.0896508e-01   5.0651740e-01  -9.4728346e-01   6.1497100e-01  -7.6667097e-01   6.8949674e-01  -3.9444591e-01   3.6655440e-01   4.0629362e-01   6.6312275e-01   8.7278931e-01   1.9884417e-01  -4.4597100e-01   7.8132885e-01   7.5787536e-01   8.3190767e-01  -9.2520048e-01   6.8560447e-01  -8.8805328e-01  -7.4627284e-01   7.6500963e-01  -1.0339827e-01   4.1328168e-01   9.9554715e-01  -6.7518793e-01  -8.6354968e-01   1.7538230e-01   6.8157637e-02  -4.0666428e-01   6.0379730e-01  -9.2367837e-01  -7.3602050e-01   7.3120858e-01   1.7427915e-02  -3.3895175e-02  -9.5175052e-01  -4.2140961e-01  -8.9496021e-02   3.3646994e-01  -3.2602398e-02   4.1480745e-01  -5.2898090e-01   2.3117298e-01  -2.6794486e-01  -5.9817582e-01  -8.8171962e-01   3.6191633e-01   2.6681852e-01  -5.9920325e-01   3.5231289e-01  -6.8906425e-01   3.0971775e-01  -7.6397241e-01  -5.4924045e-01   7.1167678e-01   2.1221049e-01   6.1410846e-01  -4.1775812e-01  -5.5742266e-01   9.3710437e-01   9.3202523e-01   8.8900276e-01  -9.9919954e-01  -3.2442677e-01  -2.2948904e-01   8.0118238e-01  -2.9918280e-01  -3.3011831e-01  -7.3773620e-01  -7.0110895e-01  -6.1679591e-02  -3.4502355e-01   5.6472476e-01  -8.2667109e-01   5.1998242e-01  -7.9099614e-01   1.8913174e-01  -4.5459790e-01   2.7285507e-01  -3.1766213e-01   7.8561495e-01  -6.7599648e-01  -6.9023631e-01  -2.4670059e-01  -7.9081182e-02   4.7653417e-01  -2.8994023e-01  -3.0241553e-01   3.7631373e-02   6.3803503e-01  -5.7253504e-01  -7.9545803e-01   6.5986465e-01   9.0214625e-01  -9.1437988e-01   5.3868476e-01   3.1949364e-01   4.8339256e-01  -7.4863186e-01   2.7577434e-01  -4.8394365e-01  -5.4770810e-01  -2.1706131e-01   8.9495876e-01  -2.1281562e-01  -3.3100027e-01   6.1452406e-01  -8.8799358e-01   2.1149611e-03   1.2563679e-01   3.7340898e-01   5.3987095e-01   4.8574073e-01   1.6623961e-01   5.8634436e-01   1.3053268e-01   1.2778586e-01  -8.0417733e-01   2.6882555e-01   6.5144447e-01   9.4271740e-01   4.2367454e-01   5.0934681e-01   7.6108882e-01   3.0313041e-01  -4.4784781e-01  -8.5306696e-01   8.9514437e-01   2.6205320e-01  -8.1755769e-01   4.6336593e-01  -7.2214689e-01   4.6733193e-01   9.2646017e-01  -4.3964673e-01   9.8363256e-01   6.6345530e-01   4.8771392e-01  -4.8022779e-02  -9.1286728e-02   9.3162294e-01   6.9957898e-01  -4.4187510e-01   4.7705508e-01   9.0637735e-01  -9.2770437e-01  -4.7511115e-01  -6.9289590e-01  -3.8874902e-02  -3.8951960e-01  -1.7847987e-01  -1.4690919e-01  -8.5737541e-01  -7.5076879e-01   4.8093433e-02   6.8735524e-01  -5.6869895e-02  -3.8645629e-01   1.6833968e-01  -6.7482542e-01  -4.1054440e-01  -4.5867871e-01  -1.5582925e-01  -4.5147557e-01   9.0783187e-01   7.8711159e-01   9.3400225e-01   4.4328245e-01  -7.0380026e-01  -7.1182842e-04  -4.0653914e-01   7.8056760e-03   7.5898896e-01  -9.7033740e-02  -6.4374701e-01   6.2064777e-01  -7.1338981e-01   9.9883302e-01   9.2205111e-01   3.8112564e-01   4.9300580e-01  -7.9634090e-01   3.9103489e-01   1.2616038e-01   1.9115111e-01   9.7859444e-01   1.4919766e-01  -8.1641201e-01   7.2002405e-01   5.9754285e-01   7.2247802e-02   3.2585665e-01   2.8876846e-01  -8.0566118e-01   5.0685441e-01  -4.9232265e-01   2.2975321e-01   4.5518443e-01   5.3772077e-02  -9.2143073e-01  -8.9228213e-01   1.9873068e-01  -4.6728468e-01  -8.9498229e-01  -4.7046421e-01  -3.9194895e-01   1.9709462e-01   3.0232592e-01   8.9157571e-02  -6.4980238e-01  -3.0294625e-01  -3.5543400e-01  -3.8801554e-01   3.3865363e-01  -1.6573949e-02  -4.3213520e-01  -7.4486904e-01  -1.7864948e-01   1.4973818e-01   7.6674923e-01  -7.0812665e-01  -4.7249854e-01  -2.4691588e-01   7.3377650e-03  -2.4044249e-01  -5.0947132e-01  -3.9896268e-01  -6.1598573e-01   5.1070412e-01  -3.5779282e-01  -4.6228120e-01   3.7451390e-01   4.2149606e-01  -1.9547671e-01   5.3891682e-01   6.3004929e-01   7.3468353e-01   4.4191838e-01  -9.7467818e-01   5.2046362e-01   4.6139246e-01   9.0120638e-01   1.0443451e-01   5.3113347e-01   7.1350205e-01  -5.8315502e-02  -1.8915298e-01   5.7855992e-01  -6.5194126e-01  -3.9334193e-01   1.8673202e-02  -1.5693367e-01   3.5731776e-01   3.6486853e-02   7.8370422e-01   7.8442143e-01  -2.0756444e-01  -9.6812972e-01  -2.2876354e-01  -1.0415449e-01  -8.2360032e-01   4.3141248e-01  -3.7310221e-01   8.0255014e-01  -4.3732340e-01  -5.2821429e-03  -3.3714394e-02   1.1610119e-01  -3.6620689e-01   7.3350174e-01  -1.0986141e-01  -3.7464070e-01  -9.1277115e-01   7.3114581e-01   6.7995312e-01   5.9991424e-01   6.7084786e-01   3.4977916e-02   2.9788304e-01   6.6887747e-01  -8.3975833e-01  -1.0083083e-01   8.5317174e-01   6.8007171e-01  -5.2213188e-01   4.6116291e-01  -8.5064160e-01  -2.5096071e-01  -5.4072813e-01   3.1195359e-01  -6.0090938e-01  -9.9033186e-01   2.8549646e-01   9.0276676e-01   8.9590303e-01   9.0666796e-01   7.9391432e-01   8.0277676e-01   3.9956098e-01   2.2593671e-01  -2.4909781e-01   2.9736581e-01   3.7740253e-01   8.4141697e-01  -2.6912733e-01   7.3740453e-01   8.6689279e-01  -7.7442779e-01  -3.7331168e-02  -1.7461566e-01   2.4139539e-01   9.5067173e-01   9.7374425e-01  -4.1888500e-01  -3.6795360e-02   6.4097302e-01   1.5929199e-01   2.8934792e-01  -2.7864618e-01  -2.0014679e-01  -9.9140224e-01  -4.7116969e-01  -1.5981497e-02  -1.5430389e-01  -6.1798580e-01   7.2004728e-01   5.7936338e-02  -4.1933707e-01  -9.5348880e-01  -6.8105446e-02   4.7585444e-01   5.6849412e-01   2.7763813e-01   3.2811745e-02  -7.1161900e-01   2.1666018e-01  -7.9528326e-01  -7.1804410e-01  -4.3961326e-01   5.4351894e-01  -6.4841620e-01   9.5688370e-01  -7.9887900e-01   4.8799534e-01  -4.1970497e-01   4.2196444e-01   2.1028000e-01  -3.6630924e-01   2.8008524e-02  -4.1811855e-01   3.9759472e-01   4.2188171e-01  -8.1962414e-01  -4.4731874e-01   4.9022794e-01   1.7715028e-01   2.1479034e-01  -8.9346551e-01   9.0603803e-01   9.7277927e-01   6.6726261e-01   8.2305350e-01  -1.5925321e-01  -9.4643480e-01   4.4605180e-01  -6.0825349e-01   3.9714324e-01   8.4087136e-01   4.7099903e-01   8.1747420e-01   3.3227204e-01  -6.3462315e-01   4.7291654e-01   1.2030940e-01  -2.0748272e-01   1.3050556e-01  -2.3752244e-01  -7.9326928e-01   4.3510466e-01   5.2754190e-01   2.2446150e-01   5.7113405e-01  -6.9552723e-01   2.3698192e-01   8.4525142e-04   5.2082437e-02   1.1649460e-01  -7.7338333e-01   5.3833082e-01   2.3722749e-01  -2.0670816e-01  -3.5852945e-01   8.6581036e-01   9.4566913e-01  -5.6821100e-01  -3.6007965e-01  -4.5171442e-01  -9.1935162e-01   8.6573705e-02   1.5288104e-01  -1.6784301e-01  -9.6789775e-01   7.6668223e-01   1.9058485e-01   6.9103992e-01   1.9416415e-01  -7.2274091e-01  -6.2123427e-01  -3.9367333e-01   3.5188793e-01  -3.0131479e-01  -5.3504636e-01  -2.5025091e-01  -2.2420683e-01  -1.8308718e-01  -5.0064651e-01   9.0975819e-01  -8.9610066e-01  -2.5459686e-01  -7.8429048e-01  -8.5329352e-01   6.9300124e-01   4.7655458e-01  -9.1624770e-01   6.8981537e-01  -6.2473438e-01  -1.4801873e-01   4.2387653e-01  -3.4919800e-01  -8.8109667e-01   8.5335168e-02  -8.2596005e-01   6.7778203e-01  -8.2716727e-01  -4.5748982e-01  -2.4515529e-01   6.6743096e-01  -3.2292590e-01   3.7833857e-01   4.0824202e-01  -5.2786311e-01  -6.8949329e-01   1.6779109e-01   5.9192806e-01   5.3576630e-01  -6.1017027e-01  -6.8360779e-01  -7.6365722e-01   4.1946948e-01  -3.6005272e-01   2.2839546e-01   2.6188390e-01  -3.2578989e-01  -6.3409975e-01  -1.2008657e-01  -1.0298126e-02   4.2125140e-02  -2.4626882e-01  -8.0573493e-01   7.0704707e-01  -2.4096517e-02  -9.7524677e-01   2.3427265e-01   5.9907583e-01   1.2241897e-02  -7.9713618e-01  -2.6168177e-01   9.7098280e-02  -6.8653979e-01  -2.4373081e-01   8.3023724e-01  -7.9673914e-01   9.0644727e-01  -9.3487944e-01  -7.6720255e-01   5.2817706e-01   9.9808542e-01   7.5430980e-02  -1.5452693e-01  -5.7459921e-01  -3.2661625e-01   4.9517587e-01   2.9814772e-02   5.7954632e-01  -5.4558547e-01   1.4022640e-01  -8.3518906e-01  -2.7556033e-01   4.9272957e-01  -4.4935929e-01  -5.7109181e-01  -5.1904667e-01   9.6891326e-01  -9.3593885e-01   6.0576790e-01   9.3991287e-01  -5.2569762e-01  -2.6962350e-01  -6.2304840e-02  -2.6359516e-01  -1.8203208e-01   1.4073710e-01   2.0738853e-01  -2.7117608e-01  -3.4201181e-01  -6.2435914e-01   8.8884094e-01   4.0569585e-02  -3.5152794e-01   7.2125891e-01   8.9833205e-01  -2.1600021e-01   2.6331504e-01  -7.8396313e-01   3.6924362e-01   4.6034288e-01   6.4278496e-01  -8.6086471e-01   7.1996934e-01   8.7217093e-01   1.1961740e-01  -5.4485176e-01  -6.7957572e-01  -7.1508843e-01   3.1592158e-01  -2.6729598e-01  -3.0549531e-01  -6.2151868e-01   8.2662732e-01  -3.2797601e-01   9.0098927e-01  -1.1343849e-01  -7.3702703e-01   5.1579092e-01  -1.1222595e-01  -4.6972681e-01   5.1705454e-01   1.2264483e-01  -5.3941629e-01   3.3280900e-01   7.6658168e-01  -3.4078360e-01  -4.4129628e-01  -3.8030222e-01   8.5173209e-01   1.8890231e-01   2.3814708e-01   6.2803358e-01  -2.0744566e-01   5.6276899e-01  -9.3209935e-01   1.5150204e-01  -3.1537578e-01   5.6395000e-01   2.0968085e-01   4.0197726e-01   5.8492875e-01   2.6863370e-01   9.9304664e-01  -2.9893143e-01  -4.5661152e-01   2.4201293e-03  -4.8444892e-01  -2.5602461e-01  -4.4617368e-01   5.6527687e-01   8.7227287e-01   6.6253556e-01  -8.2213469e-01  -5.7710080e-01   2.5363203e-01   2.9187541e-01   1.9988775e-01  -9.8019257e-01  -6.4559208e-01  -5.9103457e-01  -8.6392835e-01  -1.1324260e-01  -2.6878010e-01  -6.7169644e-01   7.8825475e-02   1.6543497e-01   6.6066963e-01   3.9814862e-01   3.4506439e-01  -3.8747066e-01   7.3004761e-01   3.9484548e-01   6.1598102e-01   1.5123025e-02  -5.0636494e-01  -9.7446105e-01   9.8142622e-01   2.7325971e-01   5.6547340e-01  -5.7910923e-01   8.0822215e-01   9.7556568e-01   7.5197549e-01   3.2791130e-02  -2.1044352e-01  -8.5877290e-01  -3.8083062e-01   8.5331996e-01  -2.1833868e-01   7.2465440e-01   4.0276764e-01   3.4402167e-01  -8.1162879e-02  -1.2751363e-01  -3.9547831e-01   4.7111119e-01   9.9194627e-01  -1.7305407e-01   2.4742495e-01   6.4632851e-01  -6.8077436e-01  -2.9177680e-01  -7.7957255e-01   9.4513008e-01  -1.4647050e-01   1.1705093e-01  -6.2973086e-01   5.2726542e-01  -4.8348147e-01  -9.0905438e-01   8.1091090e-01   1.3271567e-01  -6.6305567e-01   6.3472958e-01   5.8342142e-01   9.2590965e-01  -7.6694594e-01  -6.0059424e-01  -1.8324035e-01   8.2959530e-01  -1.9064254e-01   1.0664704e-01  -3.9051285e-01  -8.1109414e-01  -1.7588642e-01  -6.9421648e-01  -6.6175584e-02  -4.0775526e-01  -3.7822943e-01  -6.8514309e-01   2.2040379e-02  -7.1302859e-02  -5.9528898e-01  -3.6804718e-01   5.4718614e-01  -5.1794620e-01  -6.9968718e-01  -9.1832664e-01  -8.0136523e-01  -7.1794402e-01   8.5967568e-01   4.7020027e-01  -3.6817212e-01  -9.2222930e-01  -8.6664196e-01   9.2867682e-01   7.1087200e-01   1.9733410e-01  -8.5864891e-01  -4.3989175e-01  -5.1567212e-01   1.7337563e-02  -1.6530298e-01  -3.6797145e-01   8.7106871e-01  -4.4398447e-01  -7.2507449e-02  -1.2158806e-01   1.3376298e-02  -5.5038907e-01  -4.1023373e-01   3.0592748e-01  -1.8371089e-01   1.3286758e-01   8.5044609e-01   9.5937896e-01   5.0072898e-02  -7.1316496e-01  -8.8470035e-01  -8.6524012e-01   6.4329982e-03   6.3445378e-01   5.8689378e-01   7.3609680e-01  -7.6201801e-01   4.6358832e-02   5.9881380e-01   4.4845393e-01  -1.6761547e-01   5.9523259e-01  -3.3394871e-01   2.4485081e-01  -6.6379384e-01  -4.6438808e-01   5.0975370e-01  -9.7444874e-02  -1.8360820e-01   9.0667407e-01   5.8416749e-01  -7.0703102e-01   6.0741976e-01   2.6436008e-02  -2.4392062e-01  -7.2900002e-01  -5.3059256e-01  -5.1517532e-01   7.3173433e-01   1.9309344e-01  -5.5015907e-01  -6.1960703e-02  -7.9071841e-01  -7.6326931e-01   3.1228622e-01   6.3349158e-01   6.9251557e-01   9.8074293e-02   6.0869460e-01   3.5675376e-01  -2.5664123e-01  -5.6709563e-01  -6.6911408e-01  -3.0677529e-01  -1.0081701e-01  -9.6612633e-01   5.9322142e-01   7.0414600e-01   1.0018325e-01  -2.5630243e-03  -7.0344354e-01   6.3420685e-01  -7.5937962e-01  -5.5280340e-01   8.5807241e-01  -4.8047514e-02   3.6634002e-01  -8.9920256e-01   2.2124143e-01   8.2396236e-02   6.0069693e-01  -1.0463564e-01   1.9686419e-01   8.4577996e-01  -4.4476898e-03  -6.0120339e-01  -1.2372698e-01   7.9327278e-01   2.8404512e-01   9.0496820e-01   8.2950176e-01  -5.1080091e-01   7.1814124e-01  -5.7474158e-02  -9.7900344e-01  -1.5017663e-01   5.7732616e-01  -1.9705230e-01   5.8202310e-01   9.6617245e-01  -3.3750574e-01  -9.8667912e-01   9.7324560e-02   6.3828134e-01  -9.2444627e-01  -9.6539174e-01  -5.8876642e-02  -7.2644905e-02  -4.6689130e-01   7.9946764e-01  -9.5452023e-01  -6.1773223e-01  -1.0712768e-01   4.2719607e-01  -9.6611629e-01  -4.6655224e-01   6.9587348e-01   6.7635308e-01  -6.8713354e-01  -6.7678685e-01   1.5967700e-01   1.8743751e-01  -4.5201592e-01   9.1115282e-01  -4.7482839e-01   2.5246944e-01  -1.8509258e-01   7.0187410e-01   4.4808336e-02   5.5630687e-01   7.6549040e-01   5.1510262e-01   2.9780278e-01  -1.3726849e-01  -9.9647901e-01  -2.0949643e-01  -2.7022003e-02   5.6899422e-01  -7.5476088e-01  -4.2407594e-01   1.0953466e-01  -6.7043541e-01  -6.2052038e-01  -1.6728936e-01  -2.7457434e-01   1.8757738e-01   6.5874165e-01  -7.0339943e-01   7.6810841e-01   8.2675257e-01   1.4903254e-01  -2.5814964e-01  -2.4877232e-02  -5.5061818e-01  -9.7675070e-01  -2.4667545e-01   7.8930585e-01  -5.2579349e-01   1.0444569e-01   6.8569026e-01  -3.8126174e-01   8.3489265e-01   5.2394695e-02  -5.3589933e-01  -4.7779683e-01  -8.3526733e-01  -3.3690389e-01   6.2636370e-01   3.3130654e-01  -5.8766798e-02   3.2411504e-01  -2.7455114e-01  -6.6096499e-01   2.7420046e-01   2.1799083e-01  -3.2331573e-01  -3.4015738e-02  -9.0332855e-01   8.2701761e-01   5.6269945e-01  -2.4921046e-01  -9.3803382e-01  -1.7128698e-01   1.1761375e-01  -3.4491464e-01   4.0654818e-01   5.1156803e-01  -2.8244646e-01  -8.3356174e-01  -5.7253507e-01  -3.8063930e-01  -7.0272462e-01   4.4831316e-02  -9.2393584e-01  -9.9045806e-01  -9.6621209e-01  -3.3535461e-01   1.1157717e-01  -2.9677572e-01  -9.0097516e-02  -6.6007064e-01  -5.3135157e-01   3.9492917e-01   9.3027521e-01  -5.4923470e-01   4.9976580e-01   4.3355108e-01  -9.5014950e-01  -4.9459517e-01  -7.9810647e-01  -6.6302860e-01  -6.5141550e-01   8.4846193e-01   5.5006386e-02  -7.6853596e-01   4.5972030e-01   2.3134272e-01   4.1214645e-03  -1.5274150e-01  -5.7526239e-01  -7.3687860e-01   4.7354308e-01   3.5511974e-01  -8.5395152e-01   1.2402854e-01   6.1668622e-02   8.7860767e-01   1.2071049e-01   1.0236927e-01   7.2203870e-01  -9.9929537e-01  -2.0537891e-01  -8.8490170e-01  -5.5491347e-01   2.6885967e-01   8.7440397e-01   9.9371329e-01  -7.6944732e-01  -2.9330725e-01   6.4628223e-01   7.1263745e-01   8.9182849e-01  -3.7657743e-01  -7.3579188e-01  -2.8978036e-01  -4.3389394e-01  -6.6719552e-01   2.5650085e-01   9.9884794e-01   5.8443930e-01   7.4588458e-01   5.3265025e-01   7.2073906e-01  -9.0262601e-01   1.7196208e-02  -8.1851985e-01  -8.0894356e-01  -7.8464834e-01   3.1104303e-01   8.1781171e-01  -1.2439268e-01  -3.4697643e-01
   7.7488881e-04   8.8413888e-01   9.0443697e-01   3.6949960e-01  -6.3469236e-01  -7.2318267e-01   8.8550840e-01   9.8699383e-01  -2.0088747e-01  -6.2968940e-01   6.2282962e-01   6.9109620e-02   8.7515896e-01   8.9849707e-01   3.8395461e-02  -9.3520374e-01   8.8533146e-02   6.3781460e-01   7.1529418e-01  -8.0725442e-01  -7.8578620e-01   9.5869811e-01   4.8051216e-01   6.7354525e-01   7.9187254e-01  -1.5264167e-01   8.0098240e-01   1.8694225e-01  -3.8857832e-01   4.6304802e-01   9.6291543e-01  -3.8507693e-01   7.9865978e-01  -6.5335622e-01  -5.0268186e-01  -5.6520341e-01   9.0985747e-01  -2.2466512e-01  -6.5533845e-01   8.9350569e-02  -9.8142389e-01   4.6575666e-02  -9.0965126e-01  -1.0621671e-02   1.8654278e-01   1.2891721e-01  -6.9103301e-01   4.1788391e-01  -3.9841633e-01   3.9914315e-01   9.5435327e-01   7.1342473e-01   9.2357700e-01  -5.9869675e-01  -7.0267240e-01   2.4856930e-01   6.8173951e-01   1.4795875e-01   1.7971990e-01  -6.1472368e-01   9.4497355e-01   4.8830450e-01  -2.4655661e-01   4.9597750e-01  -6.2640232e-01  -7.3065391e-01   1.8688816e-01  -8.9463443e-01   1.2294767e-01   3.9799371e-01  -5.6442100e-01  -4.4472144e-01  -2.3782532e-01  -5.5718406e-01  -5.8839823e-01  -4.0938856e-01   1.0342613e-01  -1.2293369e-01   9.5518609e-01   5.2884111e-01   9.7775781e-01   7.0097257e-01   6.6658278e-01   3.3781276e-01   4.9867162e-01   2.2543507e-01  -4.8542065e-02   4.4250180e-01  -1.0300600e-01   8.8961295e-01   8.2277068e-01   9.0148638e-01  -8.8800763e-01  -2.0417884e-01  -9.4629136e-01  -7.1181962e-01   6.9261571e-01   8.7186623e-01  -5.5015504e-01  -2.8086331e-02  -5.7379429e-01  -2.4865719e-01   6.7336971e-02  -7.6669123e-01   3.5648944e-01   4.4910222e-01  -8.9253917e-01   1.0845679e-01  -8.7465367e-01  -6.7869158e-01  -1.3887819e-01   7.0069260e-01  -3.3507956e-01  -4.4109870e-02  -5.2056373e-01  -7.8275978e-01  -3.1796452e-01  -8.2827013e-02   1.8844274e-01  -4.1422268e-01  -1.7288756e-01   6.1339078e-01   4.8144143e-01   1.0150746e-02  -7.3688450e-01  -8.3687396e-01  -5.3972207e-01   9.5577847e-01  -1.3325868e-01   2.8221549e-01   3.8708124e-01  -4.7921614e-01   7.4769340e-01   2.2306233e-01  -1.2492913e-01   7.8658648e-01   4.4970717e-01   5.1506711e-01   7.3458054e-02   3.2801761e-01  -8.3524469e-01  -3.2762280e-01  -9.8495903e-02  -2.9462555e-01   3.8307607e-01  -6.6823361e-01   8.8115693e-01   9.6106749e-01   1.6434294e-01   8.0992294e-01   9.4240433e-01   1.4052859e-01  -9.7928211e-01   4.2731199e-01  -6.5992713e-01   6.0972977e-01  -6.4779411e-01   7.8613357e-01   8.5704792e-01  -9.0182728e-01  -6.7598647e-01   3.8070331e-01  -1.8766662e-01   5.3848805e-01   9.3698004e-01   1.7653221e-01  -9.6915377e-01  -6.3879611e-01   9.0661187e-01   2.2517440e-01  -5.4315386e-01   9.6737125e-01  -7.6792309e-01  -7.0824066e-01   7.8082317e-01  -2.9350378e-01  -6.2624818e-01   8.4338715e-01   7.2037352e-02   7.5652800e-01  -7.5061276e-01   4.0376291e-01  -7.0435634e-01   6.1063203e-01  -5.8101760e-01   9.7488863e-04   5.9049911e-01  -6.0840179e-01  -7.2632923e-01   6.4816802e-01   6.1354792e-01   1.2466505e-01  -4.9354525e-01   2.6909951e-01   6.9069964e-01   2.1505695e-01   3.9894894e-01  -9.9695211e-01  -8.9413413e-01   5.9212532e-01   6.0418691e-01  -6.9802368e-01  -3.2907676e-01  -9.0208972e-01  -6.8700347e-01   7.8564212e-01  -4.5194755e-02   4.7851456e-01   5.3941600e-01   8.6618586e-01  -5.4843566e-02   2.5753751e-01   8.9930691e-01  -1.1012567e-01  -3.1305027e-01   2.6284686e-01   3.0793498e-01  -3.3518663e-01   1.7239102e-01   8.4045139e-01   7.0608319e-01  -5.1066550e-01  -7.6386754e-01   8.3272903e-01   1.8301755e-01   4.7734296e-01  -2.4452883e-01   3.2580623e-01   1.7063009e-01   6.6912525e-01   5.2218421e-01  -6.6942650e-01  -8.2896895e-01   2.7015657e-01   3.1787405e-01   6.0811050e-01   4.5988647e-01  -8.9989676e-01  -1.7832650e-01   7.3722730e-01   6.8506785e-01   2.6361921e-01   7.5666298e-01   2.3186851e-01   2.8812952e-02  -2.6353527e-01   2.5335723e-01  -1.4683678e-01  -8.0129230e-01  -9.0278242e-01   6.5364437e-01   4.4796959e-02  -2.0106433e-01  -6.1472229e-01   1.8144859e-01  -1.7024125e-01   8.9202499e-01   3.6686604e-01   7.4922776e-01  -4.4218253e-01   1.3171050e-01   1.9889612e-01  -2.7122194e-01  -3.1638679e-01  -3.7926009e-04  -9.1375690e-01  -7.5821798e-01  -8.3100934e-01  -6.6184073e-01  -6.5582512e-01  -8.3331908e-02   4.6087388e-01   1.5081623e-01   1.8454003e-01  -2.2044277e-01  -5.3500144e-01   1.9654757e-01   9.0573577e-01  -9.0513906e-01  -3.7761845e-01  -2.2501519e-01  -9.2641170e-01  -9.4638026e-01  -4.3208881e-01  -9.2249317e-01  -4.2531900e-01  -7.0028657e-01   9.9741529e-01   1.1209465e-01  -9.5034829e-01   5.7210006e-01   7.6164387e-01  -4.7552457e-02   1.4661889e-01  -5.5385593e-01  -6.8341498e-02  -5.3716587e-02  -1.9027267e-01   4.6277839e-01  -2.7837196e-01   1.2344400e-01  -1.3335603e-01   4.1291232e-01  -7.8853743e-01   4.6137556e-01   5.5395701e-01   5.9864755e-01  -4.6398448e-01  -2.3623758e-01  -6.9812066e-01   9.7799041e-01   4.5035875e-01   5.2025550e-01   9.7117930e-01   8.0171440e-01  -6.1298748e-01  -1.9410441e-01  -6.0313887e-01  -4.0645268e-01  -9.0749591e-01  -8.0859245e-01   5.0492376e-01   2.5638619e-01  -8.8728764e-01  -1.3693663e-01  -8.8547749e-01  -8.1821682e-01  -3.0421245e-01  -1.5858631e-01   7.4498292e-01   7.5111460e-01  -7.6300624e-01   3.3273924e-01  -7.9112079e-01   3.6238122e-01  -4.1893877e-01   6.6046660e-01   4.6758496e-01   9.2263403e-01   8.3527506e-02   2.9010452e-02  -1.2640484e-01  -6.5684963e-02   1.7617376e-02   5.2430753e-01   7.3398998e-01   3.4111331e-02  -5.7738264e-01  -7.5671382e-01  -5.4736733e-02   1.8867476e-01  -5.7867886e-01  -3.2079384e-02   9.1289819e-01   7.3045569e-01  -1.6005948e-01  -2.9477885e-01  -3.0246467e-01  -7.0899114e-02  -8.7425772e-01  -1.0263807e-01  -6.3859523e-02   6.4124639e-01  -5.5420441e-01  -3.4563989e-01  -8.6086327e-01  -3.9975503e-01  -1.7272565e-01  -7.5990680e-01   6.3587526e-01  -5.1363543e-01  -8.7325135e-02  -6.5130066e-01   5.8853078e-01  -9.3783412e-01   2.7376286e-01   1.2290219e-01  -9.8376816e-01   1.7361865e-01  -2.4380949e-01  -8.8316174e-02  -5.4569636e-01   2.5271036e-01   7.6806166e-01   3.9565900e-01  -6.6577848e-01   8.0591570e-01  -3.5714624e-02   4.8716390e-01   9.6099793e-01  -1.0947222e-01  -3.2888431e-01   4.3659598e-01  -5.2302585e-02  -3.9675243e-01  -1.7470306e-01  -1.9871301e-02   1.1007988e-01   5.7681485e-01  -7.1427247e-01   1.9879472e-01  -7.1507092e-01   9.5482113e-01   8.3276499e-01  -1.3057970e-01  -7.6084141e-01   2.3118948e-01  -3.6204185e-01   6.7549292e-02  -8.2434952e-01   1.2760474e-01   7.2677169e-01  -9.7617780e-01   5.6310218e-02   3.3141468e-01   8.0427039e-01  -4.4043156e-01  -4.4460819e-01  -1.5541804e-01  -9.8988625e-01  -5.0786415e-01  -8.7674180e-01   9.4563195e-01  -6.3181110e-01  -7.6975262e-01   8.0286950e-01  -5.6154373e-01  -7.7647085e-01  -5.6427567e-01  -4.9542830e-01   1.9102498e-02   3.6745868e-01  -9.1646836e-02  -9.1280319e-01  -5.3522799e-01   5.5055399e-01  -9.1679432e-02   2.3663707e-01  -7.3675086e-01  -6.6545696e-01   8.6603965e-01   6.6267934e-01   8.7569337e-01   7.5099901e-01   9.7971229e-01  -2.9427777e-01  -6.0646281e-01   3.1131708e-01   1.0667790e-01  -3.8442953e-02   9.1867537e-01   8.3598408e-01  -7.7108757e-01  -5.2343625e-01  -5.8537902e-01   6.9530518e-01   8.6704134e-01   7.4618798e-02  -1.7792058e-01  -4.6845793e-01   7.1052005e-01  -8.7416791e-01  -5.2912526e-01  -4.5829650e-01  -2.6605098e-01   3.1528057e-01  -8.0148353e-01  -3.3339941e-01  -8.6144044e-01   1.2926187e-01  -3.9491676e-02   3.2798641e-03  -9.7332380e-01  -3.4604333e-01   5.5446554e-01   6.6294657e-01   7.1565945e-01   6.9396696e-01   3.9128528e-01   1.1167358e-01   1.4510845e-01  -6.9282412e-02   9.7843171e-01   6.9022126e-01  -5.1932505e-01  -9.0219144e-01   3.6331870e-02  -3.0110934e-01  -5.3586677e-01  -4.3328014e-01  -5.4231181e-01   4.0208781e-01   2.6445320e-01   6.3390142e-01  -6.2166895e-01  -3.5988691e-01   1.5936277e-01   7.3410388e-01  -5.3401514e-01   7.5630404e-01   9.4202225e-01  -9.1271851e-01   9.7370098e-01   7.0734353e-01  -8.0483471e-01   5.7860203e-01  -4.5174906e-01   6.3252588e-01  -7.7126236e-01  -6.8625049e-01   2.7690312e-01   5.2675834e-01   8.2818011e-01   3.3270331e-01  -8.9287336e-01  -2.3163653e-01  -5.3619380e-01  -3.6012737e-01  -4.6960132e-01   8.2569933e-01  -2.0530488e-01  -2.6921122e-02   6.8708572e-01  -5.9044086e-01  -7.5981118e-01  -3.3880518e-01  -8.1818702e-01   8.1083541e-01  -1.6853991e-01   8.2048084e-01  -1.7231481e-01   5.4076213e-01   9.8531513e-01   9.9028121e-01  -9.2460024e-01  -1.9956475e-01  -4.8445689e-01  -4.1966341e-01  -3.6697542e-01  -9.5061199e-01   3.9085897e-01   2.8803880e-01   3.6345281e-01  -1.7794343e-02  -1.3636317e-01  -1.6972355e-01  -9.7372104e-01   8.8180074e-01   8.1287235e-01   5.7278186e-01  -7.2471262e-01  -6.3144502e-01  -7.3840254e-01  -7.4587481e-01   7.3337782e-01   7.1643626e-01   4.7477092e-01  -7.1181290e-01   3.8312645e-01  -7.0652476e-02  -7.7067137e-01  -8.8497183e-01   7.2248594e-01  -5.7084798e-01  -2.3392385e-02  -8.9153401e-01   5.5363077e-01   3.9519637e-03   2.7191680e-01  -5.9656169e-01  -1.1904450e-01   4.8729339e-01   9.0150016e-01   9.6053861e-01   6.8213515e-01   9.3897674e-01   4.9495636e-01   5.9686761e-01  -7.5622931e-01   6.4463847e-01   8.3398569e-01   8.7897676e-01   2.6955878e-01  -1.9746025e-01   3.4931770e-01  -3.4890660e-01   5.6339330e-01  -4.5814012e-01   9.9737681e-01  -3.8134099e-01   7.2070306e-01   5.8413669e-01   1.3775691e-01   4.3317935e-01   2.5577093e-01   9.1699068e-01   6.5524461e-01   6.6971226e-01   4.5537750e-01   1.6229425e-01   1.7549307e-01   2.1468802e-01  -8.0924883e-01  -5.0744221e-01   6.7244001e-02  -9.2644286e-01  -8.5455520e-01   9.5461383e-01   2.0515161e-01  -5.0249638e-02   4.3192018e-01  -3.2357964e-01  -8.0520739e-01   5.4685392e-01  -7.9755336e-01   7.7702535e-02   3.9657765e-01  -8.3681796e-01  -2.9544409e-01  -8.3682895e-01  -8.3642074e-01  -3.8490702e-01  -1.0780915e-01  -4.8980243e-01  -9.9051221e-01   9.6555765e-01   9.2405188e-01   9.1877056e-01   3.1108839e-01   6.4242741e-01  -6.5616098e-01   7.7337572e-01  -6.6855431e-01  -1.6826374e-01   5.6996268e-01   8.4864668e-01  -1.4296185e-01  -4.8029429e-01   9.4553739e-01   6.1736398e-02  -4.2086483e-01  -7.5884667e-01   5.0814750e-01   4.0007874e-01  -8.4858428e-01   2.3254376e-01  -2.0921418e-01  -9.6719858e-01   2.9019860e-01   3.8773108e-01   9.5443698e-01  -1.5690791e-01   5.0182086e-02  -2.0107440e-01   6.0457917e-01  -5.1038133e-01  -1.1876118e-01  -1.1787675e-02   7.3914318e-01   6.2668491e-01   7.6428688e-01  -9.1546436e-01   1.1419337e-01   4.0603691e-01   8.8520948e-02   9.3774663e-01   1.0877743e-02   6.8411219e-01  -1.1781097e-01  -9.7827243e-01  -6.1621220e-01   5.6986075e-01   8.9449112e-01  -5.6924236e-01  -1.4496818e-02  -3.8118051e-01   4.2453402e-01  -8.0213284e-01   9.7217416e-01   9.9690998e-01   1.2859925e-01   9.3985556e-01   1.9769294e-01  -6.6735408e-01  -4.2316415e-01   2.7840079e-01   7.4175995e-01   6.2301610e-01  -7.0581115e-01  -2.7424165e-01  -7.4620915e-01  -1.5951244e-01   3.9493731e-01   3.7442521e-01  -6.7513817e-01  -7.3131353e-01  -8.8144203e-02   5.3314685e-01  -4.3844873e-02   1.1999453e-01   1.0858950e-01  -2.1018634e-01  -7.2551101e-01  -4.8790563e-01  -3.3282810e-01  -5.2148952e-01  -6.0316808e-02  -2.3486621e-01  -4.5450632e-01   8.5805068e-01   2.4530892e-01   8.3286124e-01  -3.5638883e-01  -6.7062639e-01   1.3983728e-01  -8.6485879e-01  -1.5138989e-02  -5.6925994e-01  -1.7992911e-01   4.8283311e-01  -3.9423106e-01  -3.7869971e-01  -9.9291495e-01  -6.7036264e-01   9.8753282e-01   7.8417670e-01  -5.7243936e-01   2.4359220e-01  -9.6352282e-01  -6.1716270e-02   1.7979318e-02  -5.8426280e-01  -9.5304517e-01   8.9980476e-01   7.1232773e-01  -4.9504976e-01  -6.9174591e-01  -1.5002257e-01  -8.9144458e-01  -4.4952337e-01   7.5331810e-01  -1.3286162e-01   4.9455190e-01  -5.3509324e-01  -2.7256374e-01   9.3637551e-01   1.1864197e-01   4.1808860e-01  -6.6943865e-01  -2.3605155e-01  -7.6757507e-01  -3.6832237e-01   5.7512594e-02   6.6724854e-01   9.4885324e-01  -3.6116507e-01   6.9859471e-01  -9.3756127e-02   3.5892953e-01  -6.9766110e-01   9.0397495e-01  -5.5719361e-01   3.4989195e-01  -2.5790320e-01  -3.0527493e-01   6.4411000e-01   1.1017137e-01   9.5486562e-01   9.7988507e-01   6.4231868e-01  -7.2949036e-01  -5.0944485e-01   1.5025910e-02  -4.4290412e-01  -9.2106036e-01   3.7311528e-01  -1.0617041e-01  -9.4841386e-02  -7.4648385e-02   6.1756720e-01   1.5143207e-01  -6.0806596e-01   1.9358340e-01  -2.9196137e-02   9.3962763e-01  -8.9868543e-01  -3.3656198e-01  -8.3363502e-01   2.8712741e-02  -4.0608155e-01   9.7827724e-01   6.3785335e-02   3.4132187e-01   2.2080663e-01   2.9941726e-01  -4.1101815e-01   4.7901524e-01  -8.1526196e-02   6.9756080e-01   6.6684136e-02   4.4977556e-01   5.7634903e-01   8.7094968e-01  -6.2590600e-01  -3.4432503e-03  -7.3411983e-01   6.0590169e-01   4.2089343e-01  -3.2045567e-01  -4.8124513e-01  -2.5184046e-01  -8.5449020e-01  -8.7772446e-01  -3.7001049e-01   3.1036487e-01   8.3569166e-01  -5.9133234e-04   2.0737030e-01   4.5036069e-02  -4.1064524e-01   1.2520238e-01   7.3217052e-01   4.7020339e-01  -9.4142367e-01  -2.8004200e-01   9.8585990e-01  -2.1436303e-01   6.4318381e-01   6.3652177e-01   1.8225149e-01  -9.4620805e-01  -7.1393513e-01  -6.0106200e-01  -9.1435741e-01   9.1529422e-01   9.4237819e-01   7.5446857e-01  -5.1980629e-02   1.6514864e-01  -2.4599866e-01  -4.5951228e-01   9.2672044e-01   4.3135841e-02  -4.1709380e-01   7.3421782e-01  -9.5204536e-01   5.1078430e-02   1.4139710e-02   4.7284451e-02  -1.5692711e-01  -2.9810588e-01  -6.7921849e-01   9.5454420e-01  -5.7436891e-01   6.4526578e-01   3.9782089e-01  -5.3735953e-01  -6.5366825e-01   6.0246034e-01  -4.9466107e-01   8.7333632e-01  -2.6357455e-01  -5.5683458e-01  -7.3569245e-01  -2.5364951e-01  -6.5246123e-01  -6.2508418e-01   4.9040592e-01   5.5938113e-01   7.4958169e-02  -9.1603197e-01   3.6634955e-01  -9.1413313e-01   6.1859150e-01  -8.3855889e-01   6.5687834e-01  -4.6012972e-01   4.8561306e-02   6.3113266e-01   7.7004254e-01   6.7715960e-01  -2.9181817e-01  -3.0097061e-01   4.5952567e-01   9.6585797e-01   4.0493797e-01   9.3604323e-01   2.9762609e-01   4.3401788e-01  -9.2758591e-01  -7.9886510e-01   3.4560177e-01  -5.7739407e-02   5.7363146e-01  -8.9806753e-01  -9.4688126e-01   9.4565634e-01   8.4976893e-01   9.6582095e-01  -9.8105491e-01   2.8005781e-01  -4.5007249e-01  -6.7441806e-01  -7.7513020e-01   5.6224212e-02  -9.6508563e-01  -7.5150238e-01  -9.4828352e-01   5.8379182e-01   2.5340904e-01   3.8758478e-01  -3.5224127e-01  -7.9773152e-02   4.0490938e-01  -4.8933542e-01   6.5679983e-01   8.0239749e-01  -5.3764103e-01  -3.1633875e-02   1.6126628e-02  -8.7152861e-01  -6.1420289e-01   1.6784651e-01   1.1431890e-01  -9.4268716e-01  -7.7189742e-01  -1.7407298e-01   5.1988443e-01   1.2659575e-02  -4.6495352e-01   3.7392468e-01   2.6711684e-01  -8.6800924e-01  -4.6415479e-01  -3.0607788e-01   5.4649402e-01   3.3368491e-02  -8.3789306e-02  -7.7084863e-01   8.4498081e-01   7.5238403e-01   7.2322083e-01   7.8422707e-01  -7.0169116e-01   1.3084383e-01   4.7331978e-01  -5.7088071e-01   6.5888910e-01  -9.0484362e-01   4.2020648e-02  -8.7355125e-01   7.9114016e-01  -1.0582722e-01   1.5442921e-01  -6.5620354e-01   9.2818618e-01  -2.6773718e-01   8.7265150e-02  -5.8200971e-01  -8.3187084e-01  -9.7799379e-01   8.0746017e-01   1.2544707e-01   3.4319078e-01   2.4052617e-01  -1.4118505e-01   2.7945644e-02   9.3709655e-01  -5.0825213e-01  -2.8728918e-01   7.3625993e-01   7.8021545e-02  -5.5568268e-01  -8.5010598e-01   1.1351838e-01  -8.0357048e-01  -5.0587939e-01   2.8584459e-01   2.7287854e-01  -9.8915464e-01   8.5228741e-01   7.5737989e-01  -3.7383640e-01   9.9772893e-01   7.7872799e-01  -1.8800336e-01   1.0611821e-01  -9.2824030e-01   2.9921316e-01   3.5557930e-01   2.0854134e-01  -8.4677531e-01   9.3519075e-01   8.4740200e-01   1.9372566e-01  -9.1267553e-01   6.0358419e-01   8.4437069e-01  -5.1244120e-01   5.1904396e-02
