  -1.3694475e-01   3.4985312e-01  -6.4086990e-01  -6.2196657e-01   4.3044878e-01   3.2516438e-01   3.0156226e-01  -2.5582352e-01  -9.5082619e-01   7.5340000e-01   2.0941671e-01   9.2740022e-01   7.0744446e-01   2.8151277e-01  -8.6231886e-01   9.9290685e-01  -7.9529619e-01  -4.8320502e-01   3.9881951e-01  -7.0347118e-01   2.1667314e-01  -9.3112553e-01  -3.6122264e-02  -5.6588875e-01   1.9253831e-01  -7.6927497e-01   9.7234943e-01   9.6070328e-01   8.9346829e-01  -1.5699915e-01   9.5515892e-01   1.5477519e-01   9.1780988e-01  -9.3180542e-02   2.4373141e-01   1.3538863e-01   3.8544501e-01  -9.4677511e-01   6.6348901e-01  -4.4194225e-01  -7.7589447e-01  -5.5721527e-01   8.3319993e-01  -3.2117487e-02   8.0031897e-01  -4.1646733e-01  -5.5227583e-01  -1.5439451e-01  -6.6195528e-01  -3.6069445e-01  -8.8923608e-01  -5.7319533e-01  -9.7476318e-01   6.2898809e-01   3.0699294e-01   1.5351944e-01   3.2898776e-01  -1.6462695e-01  -9.1509297e-01   5.2325226e-01   7.1851785e-01   9.1248140e-01  -3.0113631e-01  -3.5597248e-01  -8.1521496e-03  -5.0389670e-02   1.7409556e-01  -5.9265525e-01   7.4492839e-01  -2.5745566e-01   5.4308580e-01   8.7276266e-01  -2.7328897e-01  -1.9546004e-01  -1.3626967e-01   5.7289947e-03  -1.1668833e-01  -2.3350037e-01   4.9247466e-01  -8.5893653e-01  -8.0550773e-01  -2.0825009e-01   7.9917465e-01   5.1242415e-01  -7.4662119e-01  -4.7554055e-01   3.1778265e-01  -6.2968036e-01   2.3101098e-01   1.8764082e-01   2.0315875e-01  -6.3514132e-02   6.7644914e-01   5.2875768e-01   4.6470073e-01  -1.5658357e-01  -7.8184906e-01  -8.2657142e-01   8.0411885e-01  -3.0883726e-01   4.5546095e-01   5.8096313e-01  -7.4405597e-01  -9.9491214e-01  -4.6725784e-01  -1.7858158e-01  -4.0933681e-01   7.2169394e-01  -7.1223257e-01  -7.4457390e-01   1.2608896e-01  -4.7249651e-01   2.3524758e-01  -9.3723866e-01   4.8634486e-01  -4.6837384e-01   5.3547035e-01  -2.4891625e-01  -5.6310193e-01   5.9665945e-01  -6.0038860e-01   4.9010756e-01   5.3317661e-01   7.4477380e-01   8.8640479e-01  -7.9875305e-01   6.1237404e-01  -1.1410212e-01   5.0750173e-01   3.1473565e-01   4.9088290e-01  -9.4350979e-01  -3.2542075e-01  -6.9361055e-01  -7.3185500e-01   9.8440868e-01  -9.4807574e-01   1.5623657e-01   1.8407151e-01   2.6682028e-01  -4.9243878e-01   1.4665773e-01  -5.1122441e-03  -4.8358718e-02  -2.5268178e-01   4.1321432e-02  -5.9925838e-01   6.4775359e-01  -9.7432730e-01  -8.7020547e-01   9.0108990e-01  -3.8168045e-01   7.8829443e-01   3.6295126e-01   2.0438529e-01   4.7837035e-01   5.6441717e-01   7.2080419e-01  -4.4310173e-01   3.6201431e-01  -8.6667073e-02  -4.6094888e-01  -6.8887391e-02   2.0867734e-01   2.5094227e-01   2.7956960e-01   3.8573960e-01  -5.0161368e-01   6.5239689e-01   2.4250404e-01  -1.3400296e-02  -4.8512762e-01   8.5758214e-01   8.8432300e-01   8.0294177e-01   9.7295332e-01  -8.2056975e-01  -2.4281365e-01   9.7957584e-01   9.0233794e-01  -6.7725983e-01  -7.7547312e-01   1.1781278e-01  -6.4545024e-01  -5.4121844e-02   5.3828789e-01  -2.4101484e-01  -8.3459489e-02   6.0094592e-01  -3.3457260e-01   3.2107765e-01  -3.4172785e-01   1.6745660e-01   1.1629511e-01  -1.8871413e-01  -6.9664236e-01  -4.3448579e-02  -3.8755451e-01   1.1157790e-01   2.8752985e-01   5.0605795e-01  -3.5685683e-01  -4.7233351e-01   5.2507095e-01   5.8637549e-01  -4.0325661e-01  -7.4983191e-01  -1.7533360e-03   8.9681094e-01  -4.1479484e-01   6.3222907e-01   8.4228650e-01  -2.4912046e-01  -5.7939294e-01  -3.0167036e-01  -7.2950812e-01   5.5622676e-01   4.9171187e-01  -8.4624669e-01  -5.1295391e-01  -2.7057352e-01  -7.9523711e-01   6.7438480e-01   1.3140985e-02   6.7982428e-01   1.8748961e-01   3.0721664e-01   1.4236001e-01  -1.2620427e-01  -9.2192634e-01   2.3008610e-01  -9.9327013e-01  -2.4417241e-01   6.6331767e-01  -2.5855781e-01   1.5274113e-01  -6.2953905e-01  -5.4580486e-01  -8.9647664e-01   5.6941235e-01   6.0055336e-01   2.0708429e-01  -7.3966275e-01  -3.8445189e-01  -5.7657166e-01  -8.6581853e-01  -1.4631968e-01  -7.3248784e-01   4.4686454e-01   5.7489750e-01   4.6470499e-01   9.5573957e-01  -6.2913344e-02   3.0709753e-01  -7.8076029e-01  -1.5946666e-01  -1.9106362e-01   7.2926256e-01  -7.0178118e-01   3.6115764e-01   4.3161042e-01  -1.2392694e-02   4.6374847e-01  -8.0089291e-02  -6.9206369e-01   4.1503166e-01   6.0138148e-01   8.6063217e-01   2.3289844e-01   2.6306569e-01  -7.5114123e-01   3.1324356e-01   3.4876239e-01  -2.0471790e-01   2.7596252e-01  -6.5786657e-01  -2.5653716e-01   1.1131814e-01   9.8987004e-01   8.3984545e-02   3.0966824e-01   9.5634223e-01  -1.6638897e-01  -7.4040439e-01   4.2728878e-01  -5.0812900e-01  -6.0351615e-01   9.9080691e-01  -1.3997890e-01  -9.5199210e-01  -4.5916265e-01  -5.3121125e-01  -5.0940271e-01  -6.1728088e-01  -4.4633142e-01  -2.0531924e-02   4.2731701e-01   1.8417940e-01   1.9934631e-01  -3.0556381e-01  -6.6391578e-01   4.6164561e-01   3.2959491e-01  -6.9985694e-01  -2.5390430e-01  -6.4197947e-01  -3.4229272e-01   2.5173858e-01  -3.0909536e-01   9.8964126e-01  -2.0311195e-01   4.2107360e-01  -5.6805684e-02   7.0905743e-01  -8.9103458e-01   1.0069991e-02   2.6866726e-01  -7.8065886e-01  -8.9784141e-01   1.5314348e-01   6.1219137e-01   3.2253338e-01   9.3172391e-01   8.8311522e-01   9.1081806e-01   1.1157274e-01   9.3722312e-01   6.3428413e-01   7.3837446e-01  -7.5941417e-01  -6.6546627e-01  -4.3168958e-01   5.4844541e-01  -6.2523512e-01   5.8842791e-01   7.6564332e-01  -2.6416790e-01  -1.6609511e-02   6.0832686e-01   7.8201553e-01  -9.9463957e-01   8.1567302e-01   3.5722208e-01   2.1183179e-01  -6.0817814e-01  -5.1294035e-01   5.7719408e-01  -7.9751032e-02  -8.2749711e-01  -2.8372840e-01  -1.8706411e-01  -4.6157819e-01  -3.7981924e-01  -9.5788482e-01   5.9313322e-01  -4.6028632e-02  -7.8551234e-01  -6.5394945e-01  -3.5152166e-01   3.4803172e-01  -8.7301589e-01   8.7272814e-01   3.7784811e-01  -1.7680435e-01   3.3722934e-01  -5.6482545e-01  -9.0239733e-01   4.3070293e-02  -1.2212907e-02   8.3741354e-01   8.9541945e-02   5.0190532e-02  -2.7346127e-01   5.2754361e-01   1.7666247e-01   4.0520364e-02   3.5060630e-01   5.1792499e-01  -2.1979179e-01  -6.1671040e-01   8.3186092e-01  -2.4747589e-01   9.1608193e-01   4.0748775e-01   9.3534000e-01   6.6942543e-02  -6.3396946e-01  -4.8802704e-01  -5.2086537e-01   6.3038398e-01  -7.6852753e-01  -9.9972245e-01   4.3004960e-02  -8.0515155e-01  -1.0990872e-01   2.2211773e-02  -4.0695086e-01  -9.9196860e-01  -7.7120313e-01   1.5253346e-03  -5.2224280e-01  -1.8679074e-01   7.9632374e-01   3.3790311e-01  -4.5428019e-01  -6.3374582e-01   8.2749286e-02  -2.2252934e-01   2.6438750e-01   4.4539272e-01   5.8258721e-01  -2.3337283e-01  -2.7192608e-01  -9.4840445e-01  -1.9381434e-01  -4.2987220e-01   4.9981700e-01  -1.8115865e-01  -3.8169136e-01   5.8875698e-01   7.8394608e-01   1.6762128e-02  -3.9844979e-01  -6.2776667e-01  -3.2393030e-01   1.1731980e-02  -2.4497621e-01   7.9312907e-01  -2.1366675e-01   7.5437972e-01  -4.8518488e-01  -9.5939062e-01  -4.6132802e-01   7.8401089e-02  -5.4573026e-01   8.7049503e-01  -3.9995291e-01   9.5063739e-02  -7.3705490e-01  -2.7448924e-01  -4.3133221e-01  -1.9919679e-01  -3.6763808e-01  -4.2058853e-01   6.1479773e-01  -6.2302467e-02   4.6853844e-01   2.9348239e-01   1.7514004e-02  -2.9062796e-01   1.1691457e-01  -4.6348232e-01   4.0793767e-01   9.2572997e-01  -5.1050287e-01  -8.1937643e-01   9.6711796e-01   1.1760031e-02  -8.8176339e-01   6.7396865e-01  -1.7383493e-01   6.7564250e-01  -7.1379058e-03  -9.2365209e-01   3.8363039e-02   3.7289597e-01  -5.8026599e-01   3.8932501e-01  -4.3158212e-01  -1.8867357e-01  -6.4452259e-01  -5.4554173e-01   7.7202500e-01   6.2986898e-02  -8.1985914e-01   6.6887699e-01  -2.3953426e-03   6.9262011e-01  -9.1192133e-01  -3.2763545e-01   7.8080908e-01   2.2442649e-01  -6.5256246e-01  -2.0051302e-01  -1.1150075e-01  -6.8471571e-01  -7.3745754e-02  -4.9660846e-01   4.3930875e-01   6.2476290e-01  -2.0143491e-01   5.7321102e-02  -1.0578479e-01  -5.7204714e-01  -9.3514564e-01  -2.1955570e-01   6.9811255e-01   2.6595140e-01   2.9913438e-01   3.7100165e-01  -7.0232850e-01   5.5786974e-01  -5.2514779e-01  -4.1046791e-01  -8.5387044e-01  -9.7960123e-01  -2.8623800e-01  -6.6609383e-02   4.2842708e-01  -9.8956340e-01  -9.6330029e-01  -5.2377374e-02   5.4193127e-01   4.8751429e-01  -3.7824627e-01   9.2164957e-01  -1.4556122e-01   3.3369741e-03   5.0636499e-02  -3.5158001e-01  -4.2064729e-02   7.0100921e-01   4.9130230e-01  -9.9340258e-01   2.1509986e-01   9.2620286e-01  -5.4986867e-01   2.4329267e-01   8.1810782e-01  -7.5024652e-01   6.4239195e-01  -9.1762505e-01  -4.2741404e-01  -1.4043432e-02  -3.4999500e-01   2.9995880e-01  -7.1943740e-01  -8.1189000e-01   7.6302037e-01  -9.8831442e-01  -5.1088856e-01  -1.0406713e-01  -3.4365838e-01   8.0021100e-01   9.3784951e-01  -4.5335397e-01  -7.4708209e-01  -2.3944008e-02  -4.5935044e-01   8.1442937e-01  -5.6655388e-01  -9.7104211e-01  -1.0786135e-01   6.9613200e-01   7.7040598e-01  -7.0125184e-01  -2.0820357e-01   2.2277582e-02   8.5310844e-01   2.9764895e-01  -4.0785167e-02  -5.3977001e-01  -5.6793812e-02  -7.2186785e-01  -8.4927688e-01   8.3178442e-01   6.8423652e-02   7.4424845e-01  -3.3672771e-01  -8.9240621e-01   8.0691843e-01  -3.5721999e-01   3.1948582e-01   9.0535666e-01   7.9315178e-01  -3.4090679e-01   5.8524192e-02  -7.5352329e-01  -6.3920794e-01   1.7394746e-01  -8.0020227e-01   6.0516381e-01  -9.1483268e-01   9.8801311e-01  -5.3120598e-02   1.2598849e-01  -1.9310058e-01  -7.1625876e-01  -7.2317713e-01   3.7080593e-01   4.3873570e-01  -4.6664117e-01   7.5463787e-01   3.7520216e-01  -8.4813248e-01  -2.5490156e-01  -3.6570057e-01  -6.1220207e-01  -5.3377752e-01   9.1729979e-01   1.6873797e-01   5.9256852e-01  -6.3119934e-01   8.9520459e-01  -4.7778220e-01  -8.9054698e-01   1.7653984e-01  -2.1502576e-01   1.2863914e-01  -9.2541824e-01   7.9422085e-01  -8.3452218e-02  -8.3524842e-02   4.2242350e-01  -7.6821334e-01   2.1396481e-01  -7.3745999e-02   1.5931080e-01   6.5491878e-01   5.0379691e-01  -3.4662407e-01  -2.1975479e-01  -1.8750586e-01   6.3773580e-01   6.3341605e-01   9.2731188e-01  -4.0113513e-01   7.1303662e-01   5.5964271e-01  -1.4047891e-01  -9.3075248e-01  -8.1072843e-01  -9.2958946e-01  -7.7440041e-01   1.5183928e-01   5.9000996e-01   4.5602446e-01   9.0044246e-01   4.0591756e-01  -5.6817478e-01  -7.2833931e-02   9.0501807e-01  -1.0286924e-01   3.9519948e-01  -8.1026748e-01   9.9972944e-01  -3.7412116e-02  -8.1988561e-01   1.8626802e-01   8.3617638e-01  -7.4756199e-01   3.9508152e-01  -1.8114674e-01   9.3521010e-01  -4.1784612e-01  -1.1602292e-01  -9.0478818e-01   9.6186110e-01  -4.0780472e-01   4.4732329e-02   6.6647318e-01   3.6829643e-01  -6.8233387e-01  -8.6572608e-01  -2.7484666e-01  -2.1407629e-01   3.3845304e-01   4.9848680e-01  -3.9554981e-01   4.7896753e-01   6.3089481e-01  -4.4330386e-01   2.1549945e-01   1.3982390e-01  -4.0572624e-02   6.2342357e-01  -1.6826518e-01  -7.3168323e-01  -2.4747874e-01  -4.0344473e-01  -8.7916524e-01  -9.5036515e-01  -8.4846937e-01   1.6306911e-01  -7.9539144e-01  -1.7663609e-02   2.2727687e-03  -4.9049638e-01  -2.6338069e-01  -2.6933204e-01   4.5965527e-01   4.5493745e-01   6.6887045e-01   5.4941052e-01  -1.3387627e-02   5.7403870e-02   4.4617385e-01   1.0682227e-01  -3.8252118e-02  -9.6376163e-02  -1.9807357e-01   1.8208200e-01  -1.1555923e-03   4.6640415e-01  -5.3380563e-01   7.3415558e-01   1.2182544e-01   7.8940423e-01   2.9175106e-01  -6.8401469e-01  -2.7608406e-01   2.0554571e-02  -7.6563088e-01   1.6398010e-01  -5.6493165e-01  -8.2566468e-01  -7.1149816e-01  -9.4032749e-01  -8.0078546e-01  -9.0110870e-01  -9.2640150e-01  -1.4958497e-01  -8.8697483e-02   9.6486487e-01  -4.7871602e-01   1.6812831e-01   4.5712658e-01  -8.7155099e-02  -1.4031746e-02  -9.3931503e-01  -9.4349452e-01  -9.4964718e-01  -8.7506334e-01   8.8672709e-01  -9.3657887e-01   1.1966531e-01  -6.6489682e-01   9.1014755e-01  -5.5689736e-01  -5.2951083e-01  -3.5493118e-01  -4.4258367e-01  -1.6610797e-01  -1.3749358e-01   7.5441880e-01   2.8380697e-01   5.8570404e-01  -6.2810524e-01   7.9411153e-01  -2.2281215e-01  -3.0343845e-01   5.0970402e-01  -1.5278417e-01  -7.8326407e-01  -1.8815892e-01   1.7347152e-01   2.8967277e-01  -3.1012541e-01   5.8634492e-01  -3.2329117e-01   9.6873500e-01   9.5815375e-01  -4.1022235e-02  -3.8186440e-01   9.4343436e-02   6.3628569e-01  -9.8092323e-01   2.9819439e-01  -4.2662089e-02  -2.9321241e-01  -2.3075419e-02   3.9719115e-01   3.1211409e-01  -1.9736160e-02   7.8571637e-01  -5.0634880e-01  -4.9282188e-01  -5.0424378e-01  -9.5664380e-01   3.1497777e-01  -8.0089577e-01  -4.5109300e-01   9.7011020e-01  -2.3468015e-01  -7.3701233e-01  -5.3729341e-01   5.2832618e-02   2.6576958e-01  -6.7507309e-01   4.2433193e-01   9.8124153e-01   3.2188355e-01   6.0634212e-01  -7.2382900e-02  -2.9371994e-01   6.7496428e-01   3.2343045e-01   2.0373191e-01  -8.1267759e-01  -7.3791528e-02  -8.2787104e-01  -8.7085165e-01   3.6005342e-01   6.7629803e-01  -2.2652721e-01   5.5127897e-01  -1.0094473e-01   2.4251289e-02   2.3992990e-01  -6.3868531e-01  -5.3860076e-01  -5.9064615e-01   2.2115997e-01  -2.0245276e-01  -2.7449744e-01   6.1692338e-01   5.5481324e-02  -8.7598058e-01  -7.4344081e-01   9.4846269e-01   3.2106209e-01   1.1462809e-01  -2.3078127e-01   9.0432875e-01  -5.9680419e-01   3.0914210e-01  -1.0620205e-01   7.6280704e-01   7.8745782e-01   8.2989632e-01   8.7727447e-01  -3.3483194e-01   7.6428226e-01   2.3012996e-01   4.9814407e-01   9.3782757e-01   4.1416635e-01   1.2330218e-01  -3.6743695e-01   7.5003637e-01  -1.7191541e-01  -9.2720822e-01   8.4386572e-01  -2.4508227e-01  -4.4558424e-01  -8.4781980e-01  -1.5030685e-01   5.2046245e-01   6.4663006e-01  -1.2322831e-01  -7.1671899e-01  -3.0964651e-01  -6.9422685e-01   3.6646962e-01   8.4280757e-01   5.2693551e-01   3.2941904e-01  -2.0717481e-01   9.3847987e-01   9.0418538e-01   6.2256659e-01  -4.7856070e-01  -3.1476077e-01   8.1216404e-01  -7.1915707e-01   3.5393518e-02  -9.9341669e-02   5.2226002e-01  -3.3054985e-01   9.5765064e-02   7.7549288e-01   3.7187230e-01  -7.4274026e-02  -4.5275500e-01  -9.0897338e-01  -6.2578490e-01  -1.6866756e-01  -7.2776853e-01  -2.8944185e-01   5.2549074e-01   1.9473232e-01   2.5415630e-01  -4.8091064e-01   9.6268459e-01  -8.9972861e-01   6.6660471e-01   3.8277760e-01   7.5898296e-01   9.4797176e-01   3.2363406e-01   9.1897183e-01   9.8448251e-01  -2.2667789e-01  -1.7097939e-01  -7.5146847e-01  -1.4115123e-01  -2.5042019e-01  -5.5562089e-01  -9.2266971e-01  -1.8698102e-01  -1.8631355e-01  -4.5346400e-01   3.2224322e-01  -1.5922363e-01  -2.1879769e-01  -1.7310587e-01  -3.4999767e-01  -8.5478721e-01   9.5777504e-02   9.2865316e-01   6.3107214e-01   5.7782480e-03   5.4490676e-01  -4.9773448e-01  -2.1729492e-02  -8.6787815e-01   4.4490611e-01   1.2678807e-01   2.9503488e-01  -2.1003728e-01  -5.7352258e-01   1.9047451e-01   6.0320791e-01  -5.4512005e-01  -7.6602138e-01   6.2558958e-01   8.7280059e-01   9.2884249e-01   5.8227316e-01  -3.1678835e-02   1.4236628e-01   7.7780728e-02  -3.4729970e-01   5.9272403e-01   9.2685664e-01  -4.3396820e-01   5.3004349e-02  -2.3913562e-01  -5.8553463e-01  -2.8086921e-01  -8.8907573e-01   6.2180178e-01   5.7533009e-01   5.8350315e-01  -4.7296178e-01   2.0744050e-01  -3.2473605e-01   1.5984234e-01   7.7189087e-01  -2.9288568e-01  -6.8054289e-01  -1.6820965e-01  -3.1818662e-01   9.8259694e-01   6.9862312e-01  -8.3338618e-02   5.0875213e-01   7.3158878e-02   7.2047627e-01  -6.3771959e-01   7.8129099e-01  -3.2058439e-01   8.2053120e-01  -8.7623393e-01   3.3829671e-02   4.8539713e-01  -1.9159533e-01  -1.0037077e-01   5.1839212e-02  -3.2667428e-01  -6.4946386e-01   4.7100614e-01  -1.5479370e-01   9.8644819e-01   6.0966143e-01   6.2162983e-01   4.1668582e-01   8.1928987e-01   5.8448228e-01   6.4262173e-01   9.7508986e-01   4.0600636e-01  -8.1111167e-01   6.5409888e-01  -8.6190286e-01  -3.0988189e-01  -4.8760486e-01   9.8520103e-02  -1.3255416e-01   8.3084982e-01   1.4110477e-02  -3.2047672e-01   8.2366124e-01  -7.2282458e-01  -6.8773885e-01   9.5947568e-01  -7.0279145e-01  -8.9272391e-01  -2.1010201e-01  -7.4197736e-01
  -8.2788565e-01   5.0702015e-01  -4.8097235e-01   2.4221389e-01  -5.3241534e-01   8.7654669e-01   2.5233558e-01  -5.6194082e-01  -9.4026798e-01  -2.6793836e-01   9.2434517e-01  -3.8742956e-01  -5.9840962e-01   6.1079675e-01  -8.7102704e-01   8.2845002e-01   7.7167889e-01   1.2884845e-01  -5.3889108e-01  -9.9831854e-01   7.6468242e-01   6.7521323e-01  -6.0034382e-01  -3.4261556e-01  -6.9760900e-03   6.3054138e-01   1.0619124e-01  -3.2269711e-01  -2.6994079e-01  -8.7071279e-01   4.6185464e-01  -8.8088642e-02  -1.1732983e-01   1.7063257e-01   6.7574671e-01  -6.4806467e-01   9.2676751e-01   2.2295992e-01   9.9505588e-01  -3.1404367e-01   5.7772293e-03   3.7110512e-02  -2.2189436e-01  -8.8927095e-01   1.1940116e-01   8.8155620e-01  -4.2134188e-01  -1.4742837e-01  -2.8572659e-01  -5.9322163e-01   7.2907990e-02   8.8247814e-01  -7.7257939e-01   7.6520010e-01  -6.6148839e-01  -6.2211525e-01  -9.7944749e-01  -1.4712695e-03  -3.2350801e-01   4.0909422e-01  -6.5794769e-01  -3.2011640e-01   8.1872753e-01  -6.2457737e-01   4.6498943e-01   2.2137960e-01   4.9040718e-01  -2.7033259e-01  -4.2810625e-01   3.9363150e-01   3.7353766e-01   7.3489287e-01  -6.7572183e-01  -3.6681760e-01   4.4754875e-01   1.3098657e-01   9.6737417e-01   2.7682933e-01   7.9799799e-01  -8.4117217e-02   2.9879682e-01   4.0140324e-01   3.1207718e-01   7.9027144e-01  -4.1650385e-01   6.4332744e-02  -1.9894670e-02   5.5986122e-01   9.3925551e-01  -5.6904808e-01   5.4536472e-01   5.3079087e-01   7.3228403e-01  -9.6583696e-01  -7.9119101e-01   9.1858572e-01   2.6574914e-01   8.0235594e-01   2.5586747e-01   4.5182230e-01   5.0777621e-01   4.5459687e-02  -5.7623934e-01  -3.3754969e-01   3.6566731e-01   6.6664409e-01  -3.4088971e-01   6.5033987e-02  -3.2022187e-01  -8.4444146e-01  -7.6771222e-01   2.8289050e-01   6.9569329e-01  -8.7956190e-01  -6.4381586e-01   3.3486327e-02  -7.1478126e-01  -4.3611651e-01  -5.8730129e-02  -4.3855780e-01   6.1655782e-01  -2.3186256e-01  -9.9780932e-01   5.2041543e-01   7.7229684e-01   5.9924829e-01   2.1094462e-01  -4.9001922e-01  -1.6903483e-01  -7.6076739e-01   4.2323626e-01   1.2482986e-01   3.5833922e-01   3.2097552e-01  -4.8342401e-01  -8.4054286e-01   8.6584052e-01   4.2710649e-02  -7.9039244e-01  -5.6982316e-01   2.1714677e-01   7.9113078e-01   4.2937432e-01   7.3406889e-01   3.9326132e-01  -3.0967052e-02   9.9881549e-01   9.1811686e-01   9.5359729e-02  -5.6617948e-02   8.4915842e-01   6.8300305e-02  -1.6312337e-01  -9.1775593e-01   4.3971420e-01  -5.1288722e-01   7.5966730e-01  -7.2927990e-01  -3.9872294e-01   4.9149898e-01   2.7266285e-01  -4.6440935e-01   3.6322514e-01   3.3408139e-02  -4.8491283e-01  -4.9243627e-02  -9.7522639e-01   4.3383515e-01   8.9076758e-01  -5.0711077e-01  -8.1195482e-01  -8.6594087e-01  -9.9295103e-01  -7.6246038e-01   4.3510644e-01   6.6868760e-01  -4.0025905e-01  -4.4092738e-01  -6.4520084e-01   1.5187706e-01  -6.9391429e-01   8.2842980e-01   2.8601700e-01   9.6611903e-01  -8.0761289e-01  -4.6418947e-01   6.6342590e-01   8.0057222e-01   3.3604416e-01   6.5492951e-01  -8.1398536e-01   2.1968065e-01  -3.1445003e-01  -3.2656197e-01  -8.5222431e-01   2.3885438e-01  -7.0611301e-02  -3.8135700e-01   9.8967453e-01  -5.2176692e-01   3.0969033e-01   2.3199427e-02   9.1350921e-01   3.0498280e-01  -3.1444168e-01  -7.0926385e-01  -1.8360280e-02   7.1131041e-01   1.3184094e-01   8.1884961e-01   4.1151221e-01  -2.1607353e-02  -8.0418298e-01   5.4165849e-01  -3.3896489e-01  -9.0497244e-03   9.8527074e-01   1.4273130e-01  -9.9681878e-01   4.6720510e-02   6.6343260e-01   2.6162754e-03   5.4158600e-01   8.8865301e-01  -1.2478253e-02   2.9493919e-01   6.2591523e-01  -6.9410403e-01  -4.6392176e-01   9.7198064e-01   9.5869512e-02   7.8172177e-01   9.3697928e-01   2.4475231e-01  -5.9246011e-01   5.7476915e-01  -4.1974847e-02   8.8328803e-01   9.2243199e-01   9.9633520e-01  -8.6880233e-01  -7.8271017e-01  -7.9207283e-01  -3.6028745e-01   9.7287516e-01  -2.9725156e-01   2.0058841e-01   7.8511923e-01   8.5771743e-01   9.6923021e-01  -2.8080755e-02  -5.1612014e-01  -2.5816748e-01   9.1484603e-01   1.6610317e-01   4.3275072e-01   4.1431544e-01  -6.6721552e-01  -7.4692264e-01   1.9812615e-01  -1.4744468e-01  -5.6861171e-01  -4.5664318e-01  -2.5891943e-01  -3.0397996e-01   1.8279451e-01  -1.4152340e-01  -6.8395585e-01  -6.9612829e-01   5.6627987e-01   4.7941777e-02  -6.6544915e-01   4.8977620e-02   3.7564413e-01   8.6847600e-01   4.2167707e-01   1.1843403e-01   2.6786159e-01  -8.7900645e-02   3.1855411e-01  -9.1873880e-01   9.1317026e-01  -8.8405027e-01   7.5690222e-01  -8.8130687e-01   2.0412221e-01  -7.8209623e-01   2.4695398e-01  -6.6797466e-02   2.1351714e-01   7.2975480e-01   9.0845353e-01  -5.1357872e-01  -5.9281500e-01   6.7524340e-01   6.3086203e-01  -4.5177910e-01  -6.4101054e-01   8.3965909e-01   9.2062945e-01  -1.5463899e-01  -9.9527279e-01   2.8579021e-01   6.7929580e-01   9.4542857e-01   9.4752750e-01  -2.6415552e-01  -6.8637453e-01   5.8839740e-02   2.0795168e-01  -7.5138552e-01  -7.1413286e-01  -8.3784724e-01  -5.5172644e-01  -6.3801988e-01   5.8092028e-02  -3.7671432e-01  -8.5937523e-01  -4.9415373e-01   2.7411871e-01  -4.3736316e-01  -2.3204517e-02  -2.3181164e-01   1.6670670e-01  -4.5741460e-01   5.0365052e-01  -4.7456808e-01   4.4976842e-01   5.0021117e-01  -2.7540952e-01  -6.2890206e-01   1.1339611e-01   7.8153036e-01   4.6004265e-01  -6.0329959e-02  -7.6126894e-01  -3.5445661e-01   7.8440818e-01   3.1012151e-01  -7.6564278e-01   7.2657945e-01   1.4421947e-01   1.6690072e-01  -6.5047682e-01  -5.3254026e-01   5.7379430e-01   3.6602887e-01   1.0463106e-01  -1.5375820e-02  -7.9336506e-01   6.0820057e-01   2.6178596e-01   6.7677569e-01  -4.2689762e-01  -1.5818530e-01  -4.4069635e-01   8.8798863e-01  -4.8145148e-01  -7.5868448e-03   7.3234913e-01  -9.2379449e-01  -4.7642369e-01  -9.9629927e-01   6.0650322e-01  -6.4475506e-01   3.4449514e-01  -7.3123953e-01   3.8546084e-01   4.4924948e-01  -2.2880817e-01  -5.8747170e-01   9.4609643e-01  -7.5165327e-02   6.5174425e-01   9.1175294e-01   1.6872733e-01  -3.0986079e-01  -2.9027693e-02   7.8456062e-02  -5.5181327e-01   2.3464070e-01  -9.4778932e-01   5.6171834e-01   4.4614468e-01   1.3257286e-02  -4.2396108e-01   3.0782891e-01  -8.6849620e-02  -9.2094890e-01  -9.2845118e-01   3.3551939e-01  -3.1531556e-01   4.1404519e-02   8.0458064e-01   6.3983448e-01  -9.2510324e-01  -9.7426840e-01   9.4244077e-01  -4.6796716e-01   6.6909114e-01   8.3518310e-01  -5.1416888e-01  -1.4649293e-01  -2.8506361e-01  -5.2660123e-01  -7.6088376e-01  -5.0157225e-01  -5.7233942e-01  -8.3936904e-01   8.0418890e-01  -2.7801921e-01   3.6936678e-01  -1.8579338e-01   3.5978369e-01  -4.7881582e-01  -4.1988721e-01   8.8532506e-02  -6.4100387e-01  -5.9036663e-02   8.4656719e-01  -4.0944502e-01  -6.5752265e-01  -7.2600845e-01  -5.5078032e-01   9.9409707e-01  -9.9984581e-01   6.6285575e-01   3.8061099e-01   7.2837298e-01  -7.2359302e-01  -6.2542952e-01   3.4124903e-01  -8.9437794e-01  -7.9745312e-01  -1.4020015e-01  -7.6619129e-01   6.7560637e-01  -6.1476464e-02  -4.3513109e-01  -4.6069291e-02   1.6167548e-01  -8.7392118e-01   3.9904997e-01   1.1643561e-01  -8.9353682e-02  -9.2455466e-01   1.2643268e-01  -7.9447427e-01  -1.5408161e-01   9.7017956e-01   4.1905871e-01   3.4108251e-02   6.5612803e-01   4.2482873e-01  -2.0164287e-01  -9.6853171e-01  -9.1589193e-01  -2.3982389e-01  -3.5143292e-01   7.7384801e-01  -8.4397048e-01   6.3262313e-01   3.8355428e-01  -3.5164569e-01   3.7739181e-01  -6.8886348e-01   7.1414210e-01  -8.9056523e-01   3.5974561e-03   2.1876769e-01  -6.2776913e-01  -9.4660930e-01  -8.5683765e-01   5.1605741e-01  -8.6934385e-01  -1.2531688e-01  -4.3778521e-01   4.1744685e-01   7.7232993e-01   5.4569243e-01  -3.8898842e-01   3.1114857e-01  -9.0948280e-01   4.1882586e-01   6.6610728e-01   9.4290575e-01  -4.7444634e-02  -5.0222788e-01  -9.1854032e-01  -7.4122010e-01  -4.6326301e-01  -7.6111237e-01   9.2342753e-01   7.8406305e-01  -4.0734005e-01   6.5361977e-01   5.1125464e-01   8.1794237e-01   3.4525429e-01   8.0150179e-01   2.2960318e-01   4.3034967e-01  -9.9742826e-01  -3.1103877e-01   6.9441166e-01  -1.0215845e-01   1.2762836e-01   7.9695234e-01   8.3944289e-01  -1.1816474e-01  -4.1985792e-01  -2.3368666e-01   5.1119854e-01  -6.8947494e-01   8.9179034e-01   9.0160415e-01  -2.4024824e-03   9.9214000e-02   7.2702475e-02   6.7700257e-02   3.2386141e-01   6.7121814e-01  -9.1514777e-01  -9.3558391e-01  -7.2088260e-01  -1.4415756e-01  -2.8007338e-01  -1.6105912e-01   4.4115483e-01  -6.3813870e-01   1.6188223e-01  -5.2662460e-01  -2.6967526e-01   1.2906239e-01   2.9474838e-01   9.5871021e-01  -4.0883803e-01  -8.8542940e-01  -9.2483897e-01   7.0090083e-01  -5.9418674e-01  -1.3557888e-01  -1.6767559e-02  -1.5024916e-01  -4.4039279e-01   3.5088140e-01  -1.0014052e-01   1.5059681e-01   4.2365197e-01   6.7163219e-01  -9.8257678e-01  -8.8094541e-01  -3.2493207e-02  -6.2189012e-01  -3.7263465e-01   7.6724407e-01   7.3383873e-01   3.0965016e-01   3.2215401e-01   3.4706711e-01  -1.0282202e-01  -7.9169872e-02  -1.6307743e-01   2.7657108e-02  -1.5138748e-01   7.0686091e-01  -2.4684343e-01   3.0120720e-01   5.9032793e-01  -1.2922028e-01  -4.4669887e-01   2.9960628e-02   6.7436618e-01   2.2049443e-01  -2.1747733e-01   9.7546416e-01   5.9059923e-01  -5.5499907e-01  -2.8749726e-01  -4.5921339e-02  -9.7558070e-01  -4.2043360e-01   6.8640003e-01  -6.3466780e-02   3.1452159e-01  -2.5851606e-01  -9.2471596e-01  -9.7265693e-01  -1.0845905e-01   4.9620313e-01   1.9192258e-01   2.9177030e-01   5.7312922e-01  -1.9917462e-01  -8.6883511e-01   1.3060246e-01   2.4144686e-02  -9.9213577e-01  -6.9027323e-01   9.4645790e-01  -4.5985469e-01  -9.1215621e-01   3.3633393e-01  -6.4116905e-01   4.9581282e-01   7.3995579e-01  -8.3407166e-01   3.2136389e-01   1.7067828e-01  -6.4589581e-01  -7.4907333e-01   8.4495094e-01   5.7898404e-01  -5.2545248e-01   8.6518442e-01   5.6142077e-01   6.2942551e-01   9.5622991e-01  -6.3029252e-01   5.7867271e-01   4.5622728e-01  -6.2255192e-01   2.2444162e-01  -6.5201146e-01   6.2045671e-01  -7.2585919e-01  -2.2115932e-01   5.0683467e-02   3.0445576e-01   6.0397445e-01   8.8657598e-01   6.6777502e-01  -6.8706968e-01  -5.2028751e-01  -4.0477717e-01  -9.3391803e-01  -2.4987532e-01   7.2307554e-01  -3.7165286e-01   8.5485170e-02  -3.5255276e-01  -8.0493466e-02   5.5415089e-01   9.2614617e-01  -3.7809161e-01   8.1796682e-01   7.7078800e-01  -8.3168138e-01  -9.0570465e-01   4.6557432e-01   5.7827623e-01   7.3759728e-01   7.8108664e-01   5.8449959e-01   1.2260900e-01  -4.4382904e-01   8.7937882e-01   8.4474454e-01  -7.0674947e-02   2.0324193e-01  -1.8630018e-01  -6.7052892e-02   1.1960872e-01   6.4503574e-01   7.0435995e-01   5.7196452e-01   4.1243508e-01   9.8076388e-02  -6.8223357e-01  -3.6129313e-01   8.6059476e-01  -1.4790839e-01   6.3702194e-01  -3.4908322e-02  -7.3425848e-01   6.2666789e-01   3.3281288e-01   4.2701262e-02   7.2132551e-01   2.2421037e-02  -3.9326539e-01  -2.0732908e-01  -2.7254456e-01  -5.6426289e-02  -9.8428995e-01  -7.8356446e-01   7.3843174e-01  -8.3031789e-01   5.9325017e-01   9.1965199e-01  -1.9219269e-01   9.4342480e-01  -8.2527694e-01   5.8441517e-01   2.0695179e-01   2.8411479e-01  -4.0283192e-01   5.3870531e-01   6.9479873e-01  -2.6624406e-01  -1.0343857e-01   9.2538826e-01   8.1417801e-01  -8.9644374e-01  -8.6988079e-01   5.4561451e-01  -2.1149758e-01  -8.4590991e-01   8.2411921e-01  -1.1272562e-01  -5.7301873e-01   8.3227787e-01  -5.8025620e-01  -1.5660372e-01  -4.6944580e-01  -8.6756282e-01  -6.1789689e-01  -4.4239069e-01   8.1725901e-01   1.2510922e-01   3.0314921e-01  -9.8747386e-01  -4.0889499e-01   7.7725748e-01  -2.1097294e-01  -7.4313358e-01   9.7613317e-01   5.1413726e-01   2.3158463e-01   4.2922173e-01   4.5248760e-01   8.9431726e-01   9.8552730e-01  -3.8863136e-01  -6.8983481e-01  -6.7098608e-01  -1.0783431e-01  -3.3153407e-01  -4.8227989e-01  -3.6413262e-01  -6.5076951e-01   9.3728006e-01   1.2683034e-01  -7.1199617e-01  -5.6734675e-01   9.2424520e-01   3.1153538e-02   8.5659714e-01   5.9639221e-01  -5.0293811e-01  -1.0367999e-01  -8.1981819e-01  -4.2220331e-01  -5.1233603e-01  -1.8526425e-01   1.5807872e-01   9.0387395e-01  -9.4969904e-01   5.1500658e-01   8.1200232e-01   2.9372091e-01  -8.3518593e-01   2.4216567e-01  -4.1655556e-01  -5.6283799e-01   8.8410374e-01  -1.5972490e-01   9.4847473e-01  -7.9871227e-01   8.1803129e-01  -5.0551910e-01   3.8245573e-01  -9.5140582e-01  -2.7896564e-01  -7.2093077e-01   6.1159049e-01   9.2056263e-01  -4.7492330e-01  -4.4611023e-01   6.8732650e-01   8.2719623e-01   5.8826385e-01  -6.3607889e-01   6.8427486e-01  -8.9146050e-01   1.5859899e-01  -6.8327874e-01   8.4479943e-01   7.5942658e-01   3.6871768e-01   7.8829699e-01  -1.6175925e-01   6.2826400e-01  -5.5816466e-01   8.1534486e-01   5.9213283e-01  -2.3845921e-01   9.5173354e-01  -6.1165984e-01   7.7097240e-01  -7.1637283e-01   9.0774410e-01   3.4176648e-01  -7.2152566e-01   8.3419396e-01  -2.4281266e-01  -1.9426732e-01   9.9143654e-01  -2.9584206e-02  -8.0340088e-02  -3.7491759e-01  -5.8606091e-02   1.4675636e-01   7.6898962e-01   6.1038979e-01  -1.8151122e-01   6.3552682e-02   6.5519268e-02  -5.3453254e-01   6.4927028e-01   9.7942765e-01   5.7452215e-01  -8.5344552e-02  -6.6472198e-01  -9.6439279e-01   8.4023021e-01   5.9810698e-01  -5.3041141e-02   5.1360513e-02   3.0631817e-01  -1.8150121e-01  -1.3017045e-01  -1.5243369e-01  -4.9206726e-02   1.4498429e-01   7.8363860e-01   9.1838638e-02  -3.8757066e-01   2.3613886e-01   8.7258145e-01   7.8744582e-01   1.9807634e-01   5.0383288e-01  -8.0886955e-01  -2.5978755e-01  -2.2938343e-01  -4.6446896e-01   1.0797963e-01  -7.8416375e-01  -6.5461602e-01   5.0829529e-01  -8.2858247e-01   8.8767689e-01   6.0078328e-01  -8.3753737e-01  -1.1910122e-01   4.1749471e-01   1.1910169e-01  -7.4929195e-01  -4.3558329e-02  -8.8051808e-01   6.1244378e-01   8.8264726e-01   9.9443813e-01  -4.2631971e-01   2.6396349e-01   3.4951150e-01   9.1087061e-01   5.2984707e-01   1.1494630e-01   3.7206906e-01  -4.7488443e-02  -7.4662319e-01  -6.6953843e-01   4.4951742e-02  -9.4783771e-01   3.7405703e-01   9.3844899e-01   8.0374716e-01  -1.4475220e-01  -1.7775491e-01   3.8095077e-01  -4.9470140e-01  -7.3661392e-01   1.7100824e-01  -8.8547978e-02   8.9700818e-01  -5.3210398e-01   5.3669260e-01   9.7587077e-01   6.2693154e-01   8.8119874e-01   3.8093239e-01  -1.7186382e-02  -4.5521088e-01  -1.4683885e-01  -1.4472674e-01   7.2337068e-01  -5.1170248e-01  -4.1118153e-01  -9.8128363e-01   1.4269697e-02  -7.7980789e-01   3.4994378e-01  -5.9303365e-02  -7.6701542e-01   6.2026521e-01  -1.3180403e-01  -7.2063678e-01   4.1821205e-01  -5.5156443e-01   6.7844453e-01  -5.1961636e-01   2.0351338e-01   9.6141592e-01   2.0375242e-01   4.1523731e-01  -6.9884255e-01  -6.7363175e-01  -8.3558121e-01  -9.7166436e-01  -1.5929494e-01   3.3355993e-01   2.8275602e-01  -1.0135811e-01   2.2110287e-01   9.8617528e-03   6.8516625e-01   4.7895542e-01   1.5295937e-02  -6.2826374e-01   5.6450185e-01  -5.8907065e-01  -8.9695669e-01  -1.2330362e-01   3.3270850e-01   9.3581597e-01   9.5271922e-02   7.2136011e-01   1.9695541e-01   9.0507296e-01   1.3749536e-01   4.0746682e-01  -4.9617496e-01   7.3645909e-01  -8.0122539e-01   2.6469985e-02  -8.4461505e-01  -2.5824945e-01   1.1176821e-01  -4.3509082e-01  -8.5531096e-01  -1.1258482e-01  -2.3806672e-01   6.0285900e-01   6.2527072e-01  -6.1457852e-01   6.7150850e-02  -6.5361635e-01  -5.1038147e-01   9.2644006e-01   1.4599421e-01  -4.1233534e-01  -5.9904177e-01  -1.9378318e-01  -8.4129122e-01   8.1223842e-01   2.3824630e-01   9.0882225e-01  -7.9656308e-01  -3.7247387e-01  -7.8784559e-01  -2.0516099e-01  -9.4002537e-01  -7.2590703e-01   3.9865162e-01  -1.1795664e-01   4.5400559e-01   1.8461152e-01   4.1094562e-03   9.3694045e-01   5.6240518e-01  -7.3317753e-01  -5.8517565e-01   7.9828885e-01   5.5418396e-01   5.5925601e-01  -7.7984583e-01  -8.0007834e-01  -7.2699997e-01  -2.6268261e-01   1.9418489e-01   4.5893545e-01  -5.1989735e-01   4.1562089e-01  -3.7362238e-02   8.7643584e-01  -5.2000941e-01   5.3319474e-01  -9.5526704e-01
   4.2373306e-01  -2.1515222e-02   7.1968765e-01  -1.6528897e-01  -2.5411768e-02  -5.7348586e-01  -1.0143494e-01  -7.6892497e-01  -6.0861724e-01   9.4006135e-01   7.2606067e-02  -6.8034885e-02   2.8268530e-01   3.1468567e-01   1.0926809e-01  -6.6071859e-02   9.2397326e-01  -7.7820968e-01  -4.3716552e-01  -7.5753845e-01   5.8090487e-01   2.2196735e-01  -9.9868500e-01   7.0723543e-01   3.4785606e-01   9.4401001e-01  -8.9714272e-01   3.7395863e-01   1.6795023e-01  -2.9724191e-01   9.6906318e-01  -9.6970313e-01   6.3563686e-02   6.1755014e-01  -2.2450209e-01  -9.1449763e-01  -8.1494094e-01  -5.3750577e-01   1.1713952e-01   4.2098751e-02  -1.3005139e-02  -8.0570720e-01   2.4768482e-01  -3.9621239e-02   8.2933484e-01  -2.6082329e-01  -6.6883088e-01   7.5852509e-01  -2.7983431e-01   1.0189951e-03  -6.0733717e-02   3.1958761e-01  -8.8666498e-01  -2.8978341e-01   8.7558421e-03   8.1175198e-01  -2.3462691e-02  -8.7275372e-01   2.6650480e-01   7.8245259e-02  -7.5585412e-01   2.2018897e-01  -1.6342668e-01   1.6952521e-01  -1.3864769e-01  -6.4333872e-01   1.7567384e-01   7.5225206e-02   2.4235047e-01  -2.5511081e-01   7.2010809e-01   1.5402048e-01  -9.5135787e-01   1.5405020e-02  -3.9613988e-01   1.0612624e-01  -5.4749142e-01   7.9938546e-01  -4.7488280e-01  -8.8456140e-01  -1.8295605e-01   9.9956957e-02   9.9427139e-01  -9.8087568e-01  -4.9071107e-01   2.5859594e-01   4.6042438e-01   2.9743456e-01   6.2718471e-01  -4.2709404e-01  -4.3679746e-01   2.5660523e-01  -2.8151094e-01  -8.6694206e-01  -9.1045410e-01   7.9243610e-01   4.3484527e-01  -1.4844431e-01   2.7979753e-02  -7.3055378e-02  -1.9631159e-02   7.7939273e-01   4.2131432e-01  -9.0416733e-01  -3.1047715e-01   2.4053152e-01  -6.8848405e-01   2.6030715e-01   4.0894961e-01  -8.7035600e-01   4.6812607e-01   7.1726973e-02  -9.3237120e-01  -6.1085959e-01  -1.8843454e-01   7.6470315e-01   7.4148190e-01  -7.5109448e-01   4.5719453e-01   2.1853814e-01  -9.1049600e-01   8.4264501e-02   1.3064580e-01  -1.3980361e-01   3.3936411e-02  -9.7468207e-01   9.8821531e-01   1.5350344e-01  -8.2663903e-02  -2.8762622e-01  -4.8398082e-02  -2.4724271e-01  -9.2136666e-01   4.5829332e-01   5.5785477e-01  -9.9284292e-01  -2.3192818e-01   3.6762983e-01  -7.5407435e-01   8.9847893e-01  -9.8528525e-01   2.8091892e-01   8.6858037e-01  -7.3501544e-01   8.1295121e-01   5.7635601e-02  -1.3709209e-01   8.1239603e-01   1.5142251e-01  -7.4808043e-01  -4.7837103e-03  -2.9633929e-01   2.5359419e-01   1.3823880e-01  -8.0179914e-01  -4.1629368e-01   4.6194654e-01  -8.2032828e-01   9.8550867e-01   1.4718478e-01  -4.4192474e-01   8.1523258e-01  -9.3750141e-01  -7.4582778e-01   7.4957893e-01  -6.3042815e-01   4.4989903e-01   9.8559900e-01  -7.6650417e-01   1.7257867e-01   6.8676020e-01  -2.8758148e-02   4.7853626e-01  -1.9775588e-01   1.8615489e-01   1.7381671e-01   2.7248742e-01  -1.9579099e-01   7.4915614e-02  -8.6385873e-01  -6.3471333e-01   2.4280992e-02   2.2521315e-01   3.8524029e-01  -3.3929546e-01   4.8884639e-01  -2.8739038e-02   5.2626712e-01  -7.3039971e-01  -4.6994129e-01   4.7705198e-01  -1.4870358e-01   7.6362147e-02   3.7712079e-01   7.1708471e-02  -7.5229296e-01  -4.4813850e-01   5.8145961e-01  -7.9863972e-01   9.4624917e-01   4.5192818e-01   3.3832165e-02   1.5813600e-01   2.4942683e-01  -5.9187097e-01   3.9367135e-01   1.9749148e-01   5.1224412e-01  -2.9822438e-01   6.6154374e-01  -3.8599888e-01  -2.9533370e-02  -8.5178495e-01  -2.3287718e-01   9.2485667e-01  -8.8470969e-01   3.4745667e-01  -9.4420335e-01   9.6284968e-01  -1.3596769e-01  -5.9239212e-01  -5.4027436e-01  -1.3727152e-01  -5.0488775e-02   3.2926778e-01   8.1568523e-01  -1.9561170e-01  -5.0743117e-01  -2.5049670e-01   5.8594606e-01  -6.7282751e-01  -8.0542775e-01   8.1417596e-02   3.8829776e-01   6.5327105e-01   9.8816321e-01  -9.2201784e-01   1.9978129e-01   1.7415637e-01  -1.5018237e-01  -4.1279253e-01  -6.7128860e-01   1.2413190e-01  -7.2461724e-01  -4.3693974e-01  -1.2303430e-01  -3.6692387e-01   8.2240001e-01   9.2603299e-01   3.9558982e-01   6.2995873e-01   4.3893399e-01   5.2966642e-01  -2.7454606e-01  -3.3329819e-03   6.4209675e-01  -1.4665070e-01   5.2395110e-01   9.1615275e-01  -5.7453383e-01  -1.7176007e-01  -6.2774040e-01  -6.9649774e-01  -5.2861014e-01   6.1732874e-02   9.9832852e-01  -8.8087669e-01   9.1319791e-01   8.2662545e-02  -4.7538933e-01   4.6047091e-01   6.7357196e-02   9.0177063e-01  -2.8695496e-01   2.0159915e-02   7.1930215e-01   3.9380415e-01   2.8578190e-01  -4.5757717e-01   9.4269105e-01  -6.1481190e-01   3.6650308e-01  -1.1103588e-02   6.3856127e-01   7.1188700e-01  -6.0386838e-01   5.8362147e-01  -7.4553134e-01  -7.9308441e-01   5.6531551e-01   1.3023067e-02   6.6283069e-01  -2.5669555e-01   6.7657521e-01   2.2900721e-01   8.5256003e-01  -9.1822350e-01   7.9328524e-01   3.2707034e-01  -8.4040943e-01   4.1479824e-02   6.8554106e-01  -1.6282469e-01  -6.5510647e-01   9.5542227e-01  -8.9335661e-01   1.8978449e-01   6.0543721e-01   9.1707862e-01   1.1608579e-01  -9.6468772e-01  -4.0479548e-01   3.4575869e-02   4.1093354e-01   6.5844090e-01  -8.0993579e-01   9.6758560e-01  -3.7704909e-01  -2.7988884e-02  -6.9065733e-01   4.6254606e-01  -9.4769167e-01   5.8596329e-01  -8.4819115e-01   2.1474901e-01   7.0810161e-01  -2.4685440e-01   2.1406151e-01   2.7673886e-01   9.2932572e-01   2.3985333e-01  -7.7369599e-01   3.9421328e-01  -9.5836834e-01  -8.9851649e-01  -6.9003816e-01   3.8569132e-01   4.3669674e-01   9.8002084e-02   9.7583006e-01  -4.6455754e-01   6.1605225e-01   8.6363540e-01  -3.6277389e-01  -5.5258593e-01   2.4906990e-01   3.3189676e-01  -2.2608777e-01   4.8243710e-01   9.0436217e-01   4.0575172e-01   1.4844669e-01  -4.5934795e-01  -7.6429638e-01  -9.8517435e-01  -4.2585206e-01   9.5344376e-01   6.2448997e-01   2.9038303e-01  -6.9252253e-01  -7.3523559e-01  -9.1528939e-01   4.6604191e-01   4.1111520e-01   7.7303929e-01  -3.6651527e-01  -9.2352426e-01  -4.9686124e-01   4.4192366e-01   7.4132913e-01  -6.1409224e-01  -2.5831884e-01   8.3309526e-01   3.9267960e-01   7.2097998e-01  -6.8363392e-02  -1.1490751e-02   3.8012758e-01  -6.4955493e-01  -4.9026043e-02  -9.1897483e-02  -3.0481536e-01   6.7294239e-01  -5.8199318e-01  -4.5176159e-01  -3.7124330e-01  -5.2298497e-01   7.5567240e-01   1.3375087e-01  -1.0945716e-01   6.4711802e-01  -6.1562371e-01   2.8096420e-01  -4.9463911e-01  -6.5299927e-01  -6.1493726e-01   5.1594123e-01  -6.3048666e-01   9.5537416e-01  -2.8200088e-01  -6.0461057e-01   4.6617643e-02  -4.0885215e-01  -2.0538275e-01   1.5088513e-01   8.7257824e-01  -5.9986156e-01  -6.8716537e-01   9.8029220e-01   4.7415145e-01  -2.6983069e-02   6.8199313e-01   9.5671164e-01   5.3908926e-01   2.5189484e-01   2.7996163e-01  -6.3711081e-01  -5.8832333e-01   1.5322696e-01  -5.0209330e-02  -7.4664503e-01   8.4090860e-01   8.9208744e-01  -4.5356209e-01  -4.9024974e-01  -9.7308305e-01   5.7330583e-01   7.9902523e-01  -8.8933802e-01   9.6874655e-01   3.3168773e-01   7.7419612e-01  -9.0454061e-01   3.8484237e-02   1.6876015e-01   3.4342897e-01   3.5347519e-01  -9.9271775e-01  -5.3427064e-01  -8.1207729e-01   4.1117571e-01  -9.5874308e-02  -5.6252457e-01   8.1969326e-01  -9.1389612e-01  -3.0979284e-01  -2.9387332e-01   5.6726478e-01  -6.1018247e-01  -3.6333631e-01   2.3025770e-01  -4.0664612e-01  -1.8609629e-01   6.2675941e-01  -2.6805759e-01  -5.0458801e-01  -3.4868602e-01   3.6285421e-01  -3.1743912e-02   6.7326767e-01   6.8230943e-01  -5.4296522e-01  -7.9099111e-01   4.0107406e-02  -1.2124235e-01  -6.5180678e-01   5.4725972e-01  -1.2528704e-01   5.4747983e-01  -6.4353178e-01   7.0253756e-01  -8.2776250e-01   5.4359534e-02  -5.3527478e-02  -1.4236844e-01   4.7251663e-01   8.7690063e-01  -5.7756279e-01  -7.7099743e-01  -4.7597251e-01  -4.3410081e-01   5.5364589e-01   5.6968756e-01  -1.4671088e-02   5.3715675e-01  -8.0614311e-01  -6.1189623e-01  -3.9635454e-01  -3.9764352e-01   6.5382884e-01   8.1718103e-02  -3.5948752e-01   7.6494421e-01  -5.9613415e-01  -7.4559706e-01   3.6481523e-01  -8.1860335e-01  -4.9705974e-01   7.6256257e-01  -9.1200628e-01   7.1842036e-01  -7.3254718e-01   6.9169026e-01   2.4141995e-01  -2.4526577e-01   3.2698999e-01   2.7254263e-01   5.1888765e-01   5.0348995e-01  -9.1445178e-01   9.3854589e-01   8.8664670e-01  -4.0602474e-01  -7.1778513e-01   3.3236342e-01  -4.6732751e-01  -1.3191996e-01  -7.6740498e-01   6.6406399e-01  -6.0719173e-02  -5.5082372e-01  -2.4589534e-01  -9.8310973e-01  -5.8298402e-01  -4.1005592e-03   1.6729885e-01  -2.2658548e-01  -4.3293982e-02  -4.6757898e-01   8.9565969e-01  -4.8274960e-01   2.1540905e-01   2.7405569e-01  -7.1937907e-01  -2.0274843e-01  -4.9290374e-01   7.9629329e-01   6.5536551e-01  -5.2789009e-01   6.6154299e-01   9.6370695e-02   2.0866732e-01  -5.9172602e-02   4.7214584e-01  -6.1797921e-01   7.4763722e-01   5.5082428e-02   9.3870912e-01   7.2418939e-01   9.8992793e-01   3.5062007e-01  -7.0136190e-01  -1.9243188e-01   4.9206042e-01   6.0282737e-01   2.8232980e-01  -2.8309373e-02   7.1101623e-01  -5.8454807e-01  -7.5415178e-01  -3.6532217e-01   5.1067731e-01   6.8370047e-01  -1.9801503e-01   2.7629321e-01   5.3906541e-01  -4.1122960e-01   2.6532163e-01   1.6304615e-01  -3.2619289e-01   9.5261755e-01   2.1518743e-01  -5.0447157e-01   2.4759099e-01   7.7926197e-01  -9.0705053e-01  -1.2635418e-01  -3.9201063e-01   9.0915391e-01  -2.8974012e-01  -7.0666345e-01   7.4744884e-01   6.3489194e-01   1.3117504e-01   3.4064058e-01   9.7681036e-01  -2.8627990e-02  -7.9614976e-01  -5.8219319e-01  -7.9320410e-01   2.2340395e-01  -4.9929360e-01  -3.9946736e-01   9.8065016e-01   9.8044829e-01  -7.3285337e-02  -4.4495392e-01  -7.2840026e-01   3.6359479e-02   5.7865779e-02   4.3384927e-02  -8.1578668e-01   9.0673114e-01   1.5032576e-02   2.0414102e-01  -2.2641738e-01  -6.5999021e-01  -3.0665837e-01   3.6591018e-01  -8.7642442e-01  -7.7569438e-02  -7.6654042e-01   1.5253233e-01   6.0407266e-01  -3.2296177e-01   4.2998733e-01  -7.9894008e-01   3.6903263e-01   9.2716382e-01  -4.2186882e-03  -8.0020806e-01  -5.8441477e-01  -5.9301645e-01   1.1666702e-01  -2.6346263e-01  -2.2069844e-01   7.2597208e-01  -5.2453849e-01   2.7318500e-01   4.2103256e-02   7.0893229e-01  -1.7331097e-01   6.4631745e-01   9.9627667e-01   7.9338584e-01  -6.0891905e-01   5.7788631e-01  -2.4262450e-01  -2.7564014e-01   9.2504979e-01  -3.0053475e-01   2.0735109e-01   2.8453304e-01   6.9141416e-01  -8.3377498e-01   7.2814953e-02  -1.9010063e-02  -6.2972961e-01  -2.1707035e-01  -7.5868882e-01   5.5076746e-01  -4.3283463e-02  -4.1622634e-01  -7.7155539e-01   8.0645142e-01   8.0623363e-03  -6.9301862e-01   1.6331415e-01  -2.9271849e-01   2.8426750e-01   9.2468422e-01  -8.0268497e-01   6.8483241e-01   7.5991085e-03  -3.2756273e-01   8.3938850e-01  -2.9968641e-01  -8.7702605e-01  -4.3916540e-02   9.3239109e-01  -6.6891132e-01  -1.7845558e-01   6.8505357e-01  -7.7991120e-01  -8.9335339e-01  -4.0585046e-01  -3.0181794e-01   9.3669004e-01  -9.4220694e-01  -3.0976853e-01  -3.8716822e-01  -4.5608133e-01   6.1875268e-04   2.1019374e-01   5.8990756e-01  -1.7470472e-01  -4.1424878e-01   6.6627290e-02   5.7927325e-01  -8.6376877e-01   3.6861052e-01  -4.6854094e-01  -2.9209731e-02   3.0680904e-01   5.8490705e-01  -4.3975663e-01   6.4608927e-01  -5.3454643e-01  -2.6032285e-01  -8.5853891e-01  -2.1705583e-01  -5.9914011e-01  -7.0606308e-01   6.5303404e-01   9.9424082e-01  -9.2586620e-01   4.0959333e-03   1.2443569e-01   5.1649152e-02   8.4691421e-01   4.6627290e-01  -4.5044926e-01   6.8252934e-01  -5.4208554e-02  -5.2798110e-01   2.8242394e-01  -8.1425178e-01  -6.8983905e-02  -4.9833109e-02   4.5032795e-01   8.4881715e-01   2.1408870e-01  -9.7180869e-01   7.5615479e-01   4.2308033e-01   2.4072857e-01  -7.0756056e-01  -4.7549245e-01   8.1520170e-01   7.7034964e-01   5.0409734e-01  -7.8662875e-01   9.8854357e-01  -8.9031303e-01  -5.1144970e-01   4.9467814e-01  -1.6045983e-01  -9.6027633e-01  -7.0643968e-01   1.0039532e-01  -7.8389185e-01   6.0119170e-01   1.0052165e-01   5.2035291e-02  -6.1128779e-01  -3.7787102e-01   6.8273803e-01   9.3709128e-01   6.1214216e-01  -4.9226846e-01   9.0271974e-01   8.6860060e-02   4.7920946e-01  -1.7836954e-01   8.1086954e-01   5.9581380e-01  -7.8864012e-01  -2.5024954e-02  -8.9710261e-02  -3.5694174e-01   5.0174958e-01  -8.2262460e-01  -3.6730540e-01   8.6666096e-01  -4.7943585e-02   1.4329696e-01   6.8947141e-01   6.9636131e-01   4.2453440e-01  -9.0429662e-01  -4.0472637e-01   9.7909807e-01   3.8884214e-01  -5.7502082e-01  -8.1242874e-01  -6.4486908e-01   4.2680918e-01  -1.3517317e-01   5.6349384e-01   9.1655362e-01   2.6034264e-01  -7.7643725e-01  -1.8343068e-01  -4.1506054e-01   9.0863974e-01   6.7855793e-01  -9.3135123e-01  -5.5734285e-01  -1.9662808e-01   8.0118500e-01  -5.1185059e-01  -7.0848614e-01   7.8163397e-01   4.1498804e-01  -6.1150065e-01  -9.0416972e-01  -2.1093879e-01   3.7279497e-01   5.8419183e-01  -9.8114248e-01   6.4889859e-01   7.8715262e-01  -3.1681265e-01   7.6440240e-01  -1.3019529e-01  -3.0008962e-01   6.9569557e-01  -4.7102339e-01  -1.8923014e-01  -4.0898722e-01  -3.8335479e-01  -7.5870501e-01  -9.2069340e-03  -3.2506889e-01  -6.1908546e-01  -1.9818311e-01   7.2894005e-01  -2.5491094e-01  -2.3081106e-01   6.8668421e-01   8.1835196e-01   2.9948743e-01   7.5494882e-01   5.6895166e-01   9.6580284e-01  -1.9715690e-01   4.5995386e-01  -8.1350765e-01  -1.6073018e-01   2.9872999e-01   1.4477146e-01  -8.2159129e-01  -5.4659785e-01   7.8038449e-01  -5.3757930e-02   8.1266732e-01  -3.0675164e-01  -8.4455518e-03   4.1827903e-01  -2.2571651e-01  -6.7427178e-01  -7.2065219e-03   8.4949321e-01  -9.0759300e-01   2.8801242e-01  -6.6857125e-01  -3.1462184e-01  -6.8751573e-01   7.2066488e-01  -7.0302644e-01   3.2885070e-01   9.2035887e-01   2.1430997e-01  -2.4808326e-01   7.4443575e-01   1.5339918e-01  -4.6186904e-01   7.9296693e-01   1.4695337e-01   3.1944243e-01  -2.6369750e-01   5.9789400e-01   6.2934118e-01   7.6100515e-01  -4.5184941e-01  -5.2342954e-01   1.6560173e-01   2.8363892e-01  -3.9103610e-01  -2.3808407e-01  -3.5524174e-01   8.9304161e-01   7.9220931e-01   6.7430799e-01  -2.0398637e-02   6.4824768e-01   6.7270241e-01   9.2534673e-01  -7.4434022e-01   5.5348906e-01  -7.6257241e-01   4.6692349e-01   2.1166872e-02   9.4031754e-01   3.8189536e-01  -7.7616236e-01  -8.9354550e-01  -8.2865819e-01   1.9227111e-01  -6.4358680e-01   5.2086576e-01  -9.3677335e-01  -7.0597738e-01  -2.1317492e-01  -6.1825046e-01  -8.5407447e-01   6.2144945e-01  -7.0602530e-01   4.9553257e-01  -4.0307160e-01  -3.2140103e-01  -5.7800795e-01  -5.7946119e-01   8.5179003e-02  -2.7838526e-01   1.1967261e-01  -6.2565124e-02  -2.3290902e-01  -2.0215762e-01   5.1609542e-01   9.9995521e-01   5.5563669e-01   9.9478876e-01  -9.8628487e-01  -3.0863062e-01   6.3316480e-01  -2.4734318e-01  -4.1057255e-01  -8.9064993e-01   3.0949898e-01   9.6963709e-01   9.9018039e-01  -5.0668479e-01   2.8409747e-01  -5.6756126e-01   2.5371290e-02   6.2116280e-01  -7.3114982e-02  -9.1325199e-01   4.5400349e-02   1.9301778e-02  -1.9049992e-03   2.3277456e-01  -5.3876130e-01  -6.7962475e-01  -4.2706842e-01   9.1468954e-01   8.1375038e-01   2.2021833e-01   1.9651763e-01   9.5819794e-01  -5.9648337e-01   8.5239117e-01  -4.9351434e-02   5.6728923e-03   3.4926324e-01  -2.2072600e-01   6.9380481e-01  -5.0792537e-01  -7.2577062e-01  -8.6301125e-01   5.0426537e-01   3.1889019e-03  -7.9973727e-01  -9.8771196e-01  -1.1091434e-01   7.5931089e-01  -9.0848781e-01   2.2807049e-01   1.7573097e-01   4.3842995e-01  -2.9052275e-01   8.8464954e-01   6.3513414e-01   4.1498049e-01   4.2865431e-03  -4.7438140e-01  -4.3589079e-01   3.6250849e-01  -1.4482095e-01  -6.8864361e-01  -5.2321926e-01  -4.2914518e-01   1.3714200e-01   6.8644285e-01   8.2540024e-01  -3.0162416e-01   2.6458335e-01   9.4722707e-01  -1.8726157e-01   5.4840026e-01  -2.5360130e-01  -3.5614932e-01  -6.7556834e-01  -3.1564632e-01  -1.2924974e-01  -6.9046858e-02  -8.6946075e-01   8.5515068e-01  -9.8959609e-01   5.1743712e-01   4.7322805e-01  -3.1399983e-01   6.5669024e-01   9.1540936e-01   4.4896233e-01   1.1618709e-01  -1.1725908e-01   3.7877570e-01   9.2151627e-02
  -7.3184815e-01  -3.0040982e-01   6.1774019e-01   8.6178352e-01  -4.4657847e-01   5.8609931e-02   8.3641259e-01   5.8970874e-01  -2.1397961e-01  -6.8841806e-02  -8.7961486e-01   7.9817724e-01  -1.6664186e-01  -4.1123111e-02  -4.6911532e-01   5.2648133e-01   6.5905314e-01  -9.8556543e-01   2.1087051e-01   2.6223920e-01  -1.5354329e-01  -1.3608029e-01  -3.9673021e-01  -1.3933888e-02   7.3250306e-01  -8.2756065e-02   2.9821792e-01  -5.4629082e-01   2.9968085e-01   9.3364820e-01  -3.3017954e-01   5.8991188e-02  -1.7931625e-02   1.0990201e-01  -6.7807177e-01  -7.8555408e-01  -5.2218225e-01   4.0527192e-01   3.8171762e-01  -9.8036392e-01   1.9296618e-02  -8.5375789e-01  -9.7258713e-01   1.0484439e-01  -6.0750662e-01  -3.7712422e-01   8.4694743e-01  -5.0445037e-01  -3.4236684e-01  -6.6911213e-01   8.1808704e-02  -6.5719978e-01  -7.5741459e-01  -9.6140634e-01   9.7451186e-01  -1.7423385e-01  -6.9296311e-01  -8.6166025e-01  -7.5774212e-01   8.7949247e-02   2.0934241e-01  -1.0224638e-01   4.2358970e-01  -7.6782204e-01   3.0841497e-01   3.5878077e-01   5.0613346e-01   4.2395508e-01  -2.1330454e-01   3.9772821e-01   9.1965705e-01  -4.7486931e-01  -3.8151985e-01   4.4665820e-01   4.5557445e-01   3.7699510e-01   3.0870266e-01  -7.9566741e-01   3.5322850e-01   7.3369011e-01   9.3533991e-01  -1.0824483e-01   3.5866519e-01   1.7841549e-01   9.6937332e-03  -9.1958846e-02  -9.8272652e-01  -2.7203012e-01  -7.0272111e-01   1.6091274e-01  -9.7872461e-01  -4.8909728e-01  -6.9773124e-01   9.1139813e-01   7.0899528e-01   6.0615807e-01  -8.6387409e-01  -4.2182791e-01  -3.0918019e-01  -6.7906145e-01   1.7605307e-01   9.0882797e-01  -6.9678245e-02   7.3714509e-01   8.2030539e-01  -3.3855560e-01   1.4681792e-01  -3.0278231e-01   2.8550021e-01   5.8757811e-01  -5.7035316e-01   4.2031752e-01   2.6330560e-01  -2.4034069e-01   5.4650906e-01  -1.2806647e-01  -1.7179400e-01  -8.3425246e-01  -2.9926113e-01   9.9692235e-02  -6.4704043e-02   1.1871384e-01  -6.9942958e-01  -9.4144248e-01   6.5225926e-01  -2.4047641e-01   1.4268325e-01  -8.0084546e-01  -6.3990598e-01  -1.4263624e-01   5.6311690e-01  -2.1850867e-02  -1.3385605e-01  -9.4008144e-01   4.7161481e-02  -9.0197751e-01   7.1467058e-01   3.1186688e-02  -6.2824686e-02   7.3766611e-01   7.5205170e-01  -4.5171527e-01   7.4410115e-01  -6.9376765e-01   3.9056408e-01  -6.8362873e-01  -7.0518166e-01   4.2809734e-01   6.9656770e-01  -4.9793734e-01  -3.2707340e-01   4.7480308e-01  -6.4038100e-01   7.1870071e-01  -4.7372750e-01  -2.3661275e-01   1.1699345e-02  -6.5311755e-01  -7.7720805e-01   4.1858129e-01   1.1159209e-01   9.7487874e-01  -2.4779054e-01  -3.9373206e-01  -6.4668606e-01   5.5764228e-01   5.8370008e-02   1.7625047e-01   3.3928467e-01  -4.7839263e-01  -8.0720203e-01  -8.5467561e-01  -6.2542295e-01  -8.9400338e-01   7.4426304e-02  -3.4703303e-01  -7.8981368e-01  -7.7469721e-03   8.5800799e-01  -7.7999533e-01   8.0509490e-01   1.6980471e-02  -5.0147142e-01  -8.5373622e-01   4.5047111e-01  -4.3462904e-01  -7.9245353e-02  -6.3172368e-01  -6.9388546e-01   8.3379293e-01  -7.8798676e-01   5.0946510e-01   8.3615069e-01   2.3937891e-01  -6.7588974e-04  -8.7001685e-01   9.0833494e-01  -4.9654687e-01  -9.2199266e-01   7.2811980e-01  -3.7305350e-01   6.3605664e-01   9.7517050e-01  -2.3150864e-01   5.7189246e-01  -8.1807458e-02   6.7078852e-01  -8.6239528e-01  -1.1574216e-01  -8.7031028e-01  -8.2927262e-01  -2.0211348e-01  -1.3389509e-01   8.4303388e-02   6.9694723e-01  -6.9762582e-01   7.1410805e-01   6.5374462e-01  -5.0450043e-01   7.7710136e-01   8.7412753e-01   4.8502231e-01   2.7268319e-01   3.8705629e-01  -6.1194341e-01  -5.6071934e-01   9.2602100e-01  -6.7431917e-01   9.5074362e-01   2.3777518e-01  -1.9605782e-01  -4.8454805e-02   8.4285392e-01   6.3248282e-02   1.7197851e-01  -4.2179246e-01   9.1775253e-01  -8.1876213e-01   2.2443947e-01   6.4390682e-01   3.9708263e-02  -6.2734859e-01  -2.0143098e-01   6.2741831e-01   7.0559183e-02   2.7181900e-01   8.7858167e-01  -7.8210958e-01   3.8607201e-03   3.7442387e-02   6.5813727e-01  -8.6143742e-01   4.0071939e-01   4.8224893e-01  -8.8266931e-01  -2.9516789e-01   6.4010334e-01   2.2180864e-01   3.0677497e-01   7.5683058e-01   2.2789477e-01   7.0034613e-01   8.0270703e-02   6.3210199e-01   8.7505425e-01  -7.1759933e-01   2.7648259e-01   9.2572253e-01   5.1048340e-01  -1.6418781e-02   7.1491768e-01   1.4784325e-01   4.1156683e-01   2.7158574e-01  -8.7844722e-01  -2.4420991e-04   6.3482667e-01   7.4771647e-02   9.9294262e-01   9.7556307e-01  -1.2879505e-01  -4.0964359e-02  -1.1672841e-01  -7.8809396e-01   5.3311460e-01   5.5980638e-02  -9.0408196e-01   8.6669788e-01   3.2316086e-02  -2.0615868e-01  -9.5535780e-01  -9.7964388e-01   5.5084918e-01  -6.2871695e-01  -3.0773536e-01   1.6704300e-01  -9.3461855e-01   5.0874911e-01  -1.2463950e-01   3.8341101e-01  -1.5355728e-01   9.9783973e-02   3.6965565e-01   1.0027868e-01   2.4569996e-01  -1.3128542e-01   9.5432248e-01  -7.3887902e-01   9.8006348e-01   4.8466925e-01  -5.3873321e-01  -3.8530863e-01  -4.2171640e-01   9.6648326e-01  -6.8704316e-01   4.7984392e-03   2.0387637e-01  -2.9743929e-01  -1.9829606e-01   9.7021275e-01   4.2362277e-02  -7.2269406e-01  -6.0650891e-01   9.3467306e-01   2.5308812e-01   9.0813179e-01  -9.8476283e-01   1.2423984e-01  -1.0480933e-01   3.8238264e-01  -4.1090661e-01  -9.6257032e-01  -5.6213505e-01  -8.6578017e-01   6.7477590e-01   2.3928827e-01   3.0247192e-01   3.0272082e-01   5.3874548e-01  -4.9789212e-01  -7.4885966e-01  -1.3224503e-01   7.8045195e-01  -8.4250699e-01  -8.7875034e-02  -2.0864454e-01  -5.8070521e-01   8.8537307e-01  -4.5728855e-03  -8.4155667e-01  -2.6614981e-01   6.0543568e-01  -3.2583509e-01  -2.6479948e-01   6.2058370e-02  -6.8655892e-01  -1.9358012e-01   7.9128376e-01   6.2321529e-01  -3.6790129e-01   7.8072553e-01  -4.2752984e-01   5.6132656e-01  -4.9938764e-01   8.1053604e-01   9.2325793e-01  -7.7257405e-01  -5.9046730e-01   4.2712093e-01  -2.7322830e-01  -9.0141983e-01   1.4207996e-01  -9.8980262e-01  -4.2591277e-01  -9.9810964e-01   5.3326538e-01  -1.6543160e-01   9.5926820e-02  -8.8275433e-01   9.5630721e-01   1.3264124e-01   7.8757628e-01  -9.0200135e-01   3.1139018e-01  -8.0258700e-01   8.9893686e-01   1.0472211e-01   4.3322732e-02   5.5826808e-01   7.6691692e-01   9.8934091e-01  -1.9567359e-01   3.3287322e-01  -1.8326307e-01   7.2705881e-01   2.3031814e-01  -2.9141326e-02   6.3014501e-01   9.3786906e-01  -3.9737754e-02   6.5828689e-01   2.0989352e-01  -7.6155214e-01  -5.7236128e-01  -1.4063302e-01   9.6140784e-01  -9.1668383e-01  -6.7031519e-01   9.2073908e-01   2.7824865e-01   5.9195577e-01  -1.1598036e-01  -8.9465764e-01  -4.3136826e-01   3.8353342e-01   7.9142108e-01  -8.4839511e-01  -5.2596289e-01   6.0685603e-01  -7.6475056e-01  -6.0925122e-01   8.8796279e-01   6.1606407e-01   5.7546757e-02  -4.6216192e-01   4.8389923e-01   6.6792500e-02   2.1929009e-01   6.3534941e-01  -4.9248434e-01   1.4203233e-01   2.3688891e-01  -4.3836466e-01  -6.5440359e-01  -6.2495631e-01  -7.3645644e-01  -7.6899178e-01   4.2998566e-01   1.5027753e-01   2.6314557e-01   9.4082606e-01  -2.6595467e-01   3.5961868e-01   8.9521108e-01  -7.7762473e-01   6.9270253e-01   7.2435654e-01   3.6843422e-02  -7.3339760e-02   4.3881617e-01  -9.6245632e-01   8.4202728e-02  -4.7047868e-01   9.0090919e-01   4.8989473e-02   9.7850442e-01  -9.7199057e-01   2.5666869e-01   7.5588933e-01  -8.5351252e-01   3.5894270e-02   8.3276687e-01  -4.9853026e-01  -4.1532880e-01   5.2169473e-01   4.5311257e-01   4.4515928e-01   6.8968992e-01   8.8805757e-01  -4.2475865e-01   4.3074546e-01  -5.9462512e-01   8.7899819e-01   5.5953573e-01  -1.6911684e-01   8.2115348e-01   4.1136608e-01  -3.0818975e-01  -9.8368309e-02  -9.0243096e-02   9.8103370e-01   3.2759870e-01   4.9911535e-01  -7.7927608e-01  -9.6716958e-01   1.9564372e-01   5.6476175e-01   3.8877241e-01   3.9887209e-01   7.2738014e-01  -9.6391409e-01  -1.0180453e-01   6.5838002e-01  -2.1762940e-01   8.7961748e-01   2.2631349e-04  -6.4602348e-01   7.2434764e-01   4.7358566e-01   9.1742237e-01   5.1784407e-01   5.9845878e-01   6.0415703e-01  -5.8864659e-01   1.1961050e-01   4.1083163e-01  -6.9415906e-01  -4.7636576e-01   6.2756221e-01  -7.5310288e-01  -3.7281658e-01  -2.6648227e-01  -1.9915408e-01  -1.3926849e-01   3.0785615e-01   4.2880365e-01  -3.7429201e-01   9.7489418e-01   1.8617568e-01   7.5594184e-01   8.9974174e-01  -3.2540069e-01   9.5655041e-01  -4.8905177e-02   7.5909377e-01  -6.9944414e-01  -8.3168867e-01  -9.4579970e-01   5.5206772e-01  -7.1451460e-01   8.5891389e-01  -4.9878821e-01  -3.1019916e-01   3.8855907e-01   8.0606129e-01  -4.6384918e-01   1.8760807e-01   2.0729978e-01   8.3278426e-01   2.4055104e-01   5.4113996e-01  -5.3205782e-01  -4.0051626e-01  -2.3648532e-01   5.5154177e-02   7.0145280e-01   9.3247704e-01   2.7680690e-01  -8.2418533e-01  -5.2146545e-01   2.9590424e-01  -8.5878794e-01   9.0958633e-01   1.1163435e-01  -1.2958280e-01   7.4900037e-01   7.4830804e-01   5.5437281e-01   5.5156951e-01  -2.6735878e-02  -3.8827623e-01  -5.4386480e-01   8.7686761e-02  -2.9312558e-01  -1.2576200e-02  -4.2451329e-01   4.8455610e-01   2.3332965e-01  -6.0307648e-01   3.2664840e-01   6.4157899e-01  -8.1195843e-01  -1.2577861e-01   3.9699639e-01   7.7519571e-01  -4.0346765e-01   1.8937530e-01  -4.8234363e-01   7.6142997e-01   2.6767361e-01  -9.4006161e-01  -5.5463711e-01   9.0715330e-01   7.5784270e-01   7.5007463e-01   1.9322887e-01  -5.8417434e-01   1.2899492e-01   3.3643081e-01  -3.5191921e-01   5.8239706e-01   1.9955417e-01  -5.7284608e-01   4.2224817e-01  -4.3443582e-01   7.3990836e-01  -2.6826890e-01   6.5255297e-01   2.8072747e-01   6.3826740e-01   2.7686475e-01   2.1104789e-01  -6.1754343e-01   1.8438093e-01  -8.5286503e-01   4.4107295e-01   6.3926435e-02   9.9746306e-01   1.5585152e-01  -3.5226181e-01   5.4153749e-01   6.5894215e-01   5.0373900e-01  -4.4992455e-01   4.5022570e-01  -1.7559591e-01  -5.9959093e-01  -5.4887013e-01  -4.3123445e-01  -4.9487214e-01   2.6967509e-01   6.4435828e-01  -5.8262404e-02  -7.9831264e-01   9.6336855e-01   6.9314554e-01   7.8924127e-01  -9.0696025e-01   7.2435606e-01  -8.2402620e-01   6.2303733e-01   1.8297244e-01  -2.6205998e-01  -1.6507560e-01  -7.8304366e-01  -7.5557419e-01   3.6008565e-01   3.3164186e-01   4.1537717e-01  -5.6402089e-01  -3.3474085e-01  -2.8962972e-02   6.4107916e-01  -3.9789185e-01  -1.2107864e-01  -1.8039855e-01  -2.7245675e-01   3.2420956e-01  -3.7999175e-01  -1.9206248e-01   4.7677603e-02   8.0125806e-01   4.0878445e-01  -6.4363081e-01   4.5517175e-01   2.5541880e-01   5.3684785e-01  -3.1263681e-01  -3.4883049e-02  -3.3422499e-01  -6.3313125e-01  -1.9837454e-01  -6.1717469e-01   3.5573514e-01  -4.6010558e-01  -2.4061907e-01   5.4577055e-01   7.0789512e-01  -5.4830889e-01   2.8995554e-01  -9.9592860e-01  -5.8029286e-01  -7.5605459e-01   5.8199914e-02  -1.3198740e-01  -2.2009842e-01  -7.3169351e-01  -1.3429949e-02   7.4075561e-01  -9.4833855e-01  -1.6388147e-01  -2.9933711e-01   8.2970576e-01   8.4503462e-01   8.0890638e-01   4.9552757e-01   5.2299305e-01   7.9190381e-02  -5.4157566e-01   2.7553599e-01  -4.3845949e-02   3.2783836e-01   5.5390078e-01  -5.0696950e-01   1.8781444e-01  -9.3363284e-01   3.6233591e-01  -2.7580596e-01  -5.9288349e-01  -1.3171652e-01  -8.1873844e-01  -9.5258852e-01  -4.5005234e-01  -3.7598548e-01   7.4827789e-01   3.7171747e-01   2.7627821e-01   3.4716261e-01  -6.8244979e-01   5.7906375e-02  -3.8547362e-01  -1.1772473e-01   3.8583709e-01  -7.8611666e-01  -3.5565139e-01   7.2741011e-02  -8.5187076e-02  -3.7767918e-01   4.3969851e-01  -8.5855510e-01   9.6524436e-02   6.0665314e-01  -3.6254122e-01   9.1326790e-02   1.0076821e-01  -7.8476817e-01  -8.1072789e-01  -9.7267584e-01   2.6557042e-01   5.5444667e-01   9.2075509e-01  -2.6227246e-01  -8.0571948e-01  -7.0121568e-01  -3.6433954e-01   1.7502624e-01  -9.8520156e-01  -8.1400918e-01   5.4226207e-01   7.2878859e-01   5.6002793e-01   4.3657175e-01   6.4923649e-01   4.1860698e-01  -3.1954273e-01  -4.0296864e-01   6.7042241e-01   7.8119543e-01  -7.1745017e-02  -8.4269370e-01   4.9985383e-01  -8.5998102e-01  -7.7021078e-02   9.0081597e-02  -9.7637744e-01   5.5990333e-01   2.9107650e-01  -1.9165656e-01   5.0586309e-02  -9.8834807e-01  -4.6815073e-01  -3.1776352e-01   7.6533861e-01  -6.1681483e-01  -7.5756746e-01  -5.7501326e-01   4.3111827e-01   9.5785839e-02  -4.7863641e-01  -1.8869403e-01  -2.5251615e-01   9.6102979e-01  -3.8773874e-02   7.9471528e-01  -8.4915595e-01  -4.8103019e-01  -1.6762889e-02  -2.2198559e-01  -7.6433379e-01   3.3743526e-02   3.4823155e-01  -4.6940467e-01   6.7190055e-01   2.8667315e-01   5.6284558e-01   2.6376225e-01  -2.0471902e-01   5.3532868e-01  -2.9243888e-01   1.4784590e-01  -1.0255092e-01   3.3022080e-01   2.4188145e-02  -1.4127372e-01   2.8377516e-01  -8.2141881e-01  -9.8107509e-01   5.7751931e-01   6.0944430e-01   1.6914339e-01   6.1447754e-01   9.4750865e-01   3.9849237e-01  -4.6477281e-01   3.3252148e-01   6.5392059e-01  -8.3411956e-01   2.6472980e-01   4.7068899e-02  -8.5427193e-02   6.1996277e-01  -2.9635402e-01   1.2295670e-01   6.2351891e-01   4.2070732e-01   8.5957180e-02  -1.0544692e-02   1.0649927e-01   5.1499480e-01  -1.8243723e-01  -2.9011667e-01  -7.7215276e-01   1.4229199e-01   8.3475202e-01   7.8288531e-01  -5.6445635e-01   2.9142302e-01  -6.6614532e-01   6.4722126e-01   1.0802407e-02   1.7088378e-01   6.2458317e-01  -2.9102112e-01   2.7988420e-01  -2.4025244e-01   4.0875210e-01  -2.2324305e-01   9.1096304e-01  -7.4383555e-01  -9.0346482e-01  -7.5225413e-01  -6.5489527e-01   3.9292854e-01  -8.1889901e-01   4.6265497e-01   8.6597023e-01   5.7018349e-01   6.0789124e-01  -2.3602182e-01  -9.1740643e-01  -9.6325165e-01   4.9331181e-01   7.3448521e-02  -7.3245627e-01   2.2676940e-02  -2.3155162e-01  -4.4938755e-01   8.8419388e-01  -3.1951148e-01   5.2939459e-01   1.4677502e-01  -2.6822952e-02   9.8074315e-01   6.0153118e-01  -4.9431751e-01   1.3931594e-01   7.4155166e-01   7.2133306e-01   1.0915494e-01   3.5629272e-01   1.7138544e-01  -8.5810422e-01   2.9109061e-01   8.5390896e-02   7.4275442e-01   6.4504594e-01   8.9842339e-02  -3.6440367e-02   5.4202741e-01   7.8050751e-01  -5.1937599e-01   7.1790322e-01   5.8728102e-01   1.2703961e-01  -2.0889958e-01   6.0475011e-02   6.1426254e-01  -4.6555811e-01   2.7299296e-01  -6.6622161e-01   8.5227140e-01   4.7643143e-01   3.6109476e-01   3.8183007e-01  -3.8641529e-01  -6.7150537e-01  -6.3043462e-01   3.9044967e-01   4.1357526e-01  -3.3585187e-01   5.8502458e-01   3.7481651e-01  -8.9557386e-01  -2.4419556e-01   3.0720921e-01  -6.7640224e-02  -3.3122314e-01  -5.0381850e-01   6.1181917e-01  -8.7039779e-01   1.2520088e-01   2.9054525e-01  -6.6519509e-01  -8.7497493e-01   2.4554001e-01   5.8152918e-01   4.9151457e-01  -6.9014766e-01  -9.2759862e-01  -8.7778834e-01  -5.8123954e-01  -2.3935531e-01  -8.1723248e-01  -6.1602320e-01   4.0792701e-01   6.6683220e-01  -6.0906467e-01  -2.1601813e-01   2.6637582e-01   5.5006234e-01  -6.8077019e-01   8.6826005e-01   9.0464675e-01  -2.0464646e-01   9.7827486e-01  -7.0707451e-01   7.4729859e-01  -8.5664427e-01  -8.5103147e-01   9.1990393e-01   4.9255894e-01  -3.6453781e-01   2.5355920e-01   1.5100865e-01   5.7103375e-01   9.6512761e-01  -9.3164574e-01   6.8627785e-01  -2.0223874e-01  -4.9812923e-01   3.8442468e-01  -9.5760999e-01   5.1115851e-01   6.5361103e-01  -8.6443903e-01   4.8570767e-01   7.0045147e-01  -1.6476076e-01  -5.0782377e-01   4.3398253e-01   5.5167214e-01   9.2637327e-01  -1.4106995e-01  -2.2434196e-01   1.8753618e-01   8.3482456e-01  -4.5585936e-01   2.3840629e-01   8.6408152e-01  -2.9759868e-01  -6.2796938e-01  -9.1038359e-01   5.4741759e-01   6.8095407e-01  -9.0592684e-01   1.0862707e-01   9.6666895e-01  -6.8589689e-01  -5.8823183e-01   6.7030313e-01   4.4725289e-01  -2.7978023e-01   6.7471284e-01   6.4988308e-01  -9.3360507e-01   1.4034200e-01  -1.0989278e-01   8.3504751e-01  -3.4724155e-01   4.2086401e-01  -8.4246667e-01   8.8533455e-01   3.6942769e-01   1.1615889e-01  -5.7367197e-01  -6.2253933e-01   2.4237457e-01  -8.4110755e-01  -6.0292550e-01   2.3724170e-01
   1.1357225e-01   2.8396543e-01   5.4644922e-01   6.8236600e-01   3.6225963e-02   7.6548402e-01   8.8287102e-01  -5.8667744e-01   9.4670695e-01   1.3052078e-01   6.2157631e-01  -2.6503377e-01  -6.9738290e-01  -1.4422032e-01   1.3912914e-02  -3.8801852e-01   6.0943623e-01   6.7513003e-01   5.6092499e-01   5.4227019e-02   9.0180480e-01  -8.9134442e-01   1.1060238e-01  -1.9701640e-01  -6.0224422e-01   5.6646403e-01   5.8949113e-01  -9.1054397e-01  -5.8342568e-01   7.8540983e-01   6.5492804e-01   3.0790874e-01  -4.2119831e-02  -5.5232994e-02   9.2563342e-01  -2.9148460e-01  -9.0701669e-01  -9.6604816e-02   1.5558628e-01   2.1328678e-01   8.5431603e-01  -4.8428909e-02  -4.7530713e-01   5.0872173e-01  -7.2188038e-01  -3.7382132e-01   5.2225874e-01  -5.5964488e-01  -5.1184649e-01  -1.2753568e-01  -8.2165889e-01  -6.8033046e-02   2.0765899e-01  -7.7136658e-01  -5.7513085e-01   6.0277499e-01  -5.6268521e-01  -5.1450188e-01  -2.4742563e-01   7.7102807e-01   3.4004968e-01  -6.9817837e-01  -2.7799467e-01  -3.7512819e-01   6.5141922e-01   8.7306763e-01  -9.5021635e-01  -3.4203620e-01  -2.0835846e-01  -2.5886721e-01  -8.4180638e-01  -5.0692140e-01   3.7599481e-01  -2.4332338e-01   5.7077150e-01  -7.9805817e-01  -6.8924362e-01  -5.2701359e-01  -5.8286549e-02   4.0699929e-01   1.2513715e-01  -2.3141548e-02   3.0437927e-01   3.5929972e-01   4.4848457e-01   6.6558215e-01  -8.6878390e-01   2.8865208e-01   7.3585288e-02   4.6801125e-01   4.6373206e-01   1.3949927e-01   5.9876215e-01  -1.2191196e-01   3.2270431e-01  -2.1275923e-01   8.9393375e-01   4.5703475e-01  -8.0650613e-01   4.4468404e-01   7.6787266e-01   7.7069004e-01  -5.0239127e-01   8.1296669e-01  -9.8672397e-01   2.1095250e-01   8.1765363e-01   5.8077974e-01  -4.2352758e-01  -3.3285654e-01  -7.9617648e-01  -2.5785692e-01  -5.8691807e-01  -9.2611171e-01  -9.4111028e-01  -9.6444104e-01   5.4181414e-01   9.0156647e-01   2.4146759e-01   8.7039118e-01  -6.2888099e-01  -7.2483289e-01  -6.1998675e-01   1.7298024e-01   1.8658693e-01   6.2846650e-02   1.8152262e-01   8.5579438e-01  -2.8360993e-01  -4.3675199e-01  -6.3559151e-01  -5.6058357e-01   4.5936432e-01   2.5447564e-01  -1.0895773e-01   7.0732052e-01   9.3837871e-01   3.3072919e-02  -2.1891068e-01   9.2603150e-01  -8.3560745e-02  -2.6755469e-01  -6.5702232e-01  -4.1527373e-01  -4.7242606e-03   8.9163848e-03   4.2278284e-02   3.6184396e-01  -2.6322767e-01  -3.7274028e-01   3.1475154e-01   8.3434333e-01   5.5729019e-01   8.4985990e-01   9.8715653e-01   2.5244109e-01   5.1820993e-01   1.8114353e-02  -4.3998202e-01  -5.7284298e-01  -6.8852691e-01  -4.4859812e-01   2.7699042e-01   8.4384614e-01   1.0159363e-01  -1.8845123e-02   8.9210182e-01  -7.1142980e-01  -1.2715371e-01  -1.1741955e-01  -1.3371348e-01  -3.8885131e-01   5.8614049e-01  -1.6027860e-01   1.5322863e-01   8.5157189e-01   9.2701007e-01  -3.0414560e-02   7.6197488e-01  -2.2759105e-01  -5.9734369e-01   9.3987002e-01   4.9051803e-01  -1.7927171e-01   3.0807258e-01  -1.8091160e-01   2.6928475e-01  -3.1417102e-02  -8.5937394e-01  -5.4522960e-01   4.7564449e-01  -9.7721946e-01  -1.7176585e-01  -3.6882440e-01   2.1355352e-01   1.0638570e-01   7.6874645e-01   2.7979174e-01   2.2995680e-01   1.6683319e-01  -7.4206573e-01  -5.7595842e-01   7.8104647e-01  -1.1110934e-01  -6.0767850e-01  -4.3416508e-02  -2.0485436e-01   8.9000075e-01  -2.9308160e-01  -2.8321403e-01   3.0770171e-01  -1.1499462e-01   8.3355607e-01   9.2616119e-01   5.8392621e-01  -3.3110212e-01   3.3712898e-01   7.5959696e-01   9.4611726e-02   1.7876418e-01   6.3675463e-01  -1.9845432e-01  -3.8891922e-01  -3.7317409e-02  -2.8649942e-01   6.2874547e-01  -1.5606047e-01  -9.5932683e-01   7.9964452e-01   7.9426695e-01   7.4008775e-01   1.1844811e-01   5.1571723e-01   8.7253798e-01  -5.8701090e-01  -4.9048573e-01  -4.2660330e-01   8.6803367e-01   6.1597717e-01  -5.6915390e-01   1.7196031e-01  -9.3655326e-01  -1.8594337e-01  -9.5302312e-01  -8.3413659e-02  -8.6274859e-01   4.0940034e-02  -8.3997198e-01   3.4741250e-02  -6.5093693e-01   7.4867860e-01   3.5044417e-01   2.5936126e-01  -1.4418052e-01  -5.6125780e-01   8.1031060e-02   5.3362315e-01  -2.2068823e-01  -1.7287527e-01  -6.1235516e-01   1.1724178e-01  -2.9637160e-01   3.5130769e-01  -6.2103616e-01   5.0584332e-01  -8.2572744e-01   2.5239347e-01   2.9345089e-01  -6.4637998e-01  -9.3431033e-01  -1.2881771e-02   7.4750480e-01  -7.8682837e-01   4.3373075e-01  -9.3884513e-02   4.1586242e-01   5.5623492e-01  -9.9408797e-02  -4.2167526e-01   8.9865694e-01   1.2978641e-01   1.7965163e-01  -6.9938884e-01  -4.4270974e-01   6.5074790e-01   7.4976470e-01   8.7050010e-01  -5.9671562e-01   8.2207390e-01   9.1669553e-01   8.0644924e-02  -7.4265698e-01   8.1407714e-01  -8.5834045e-01   7.4885780e-01  -5.2787498e-01   6.6030813e-01  -4.7044317e-01  -4.8144307e-01  -7.0170034e-01   5.0654955e-02  -7.6355776e-01   8.3060137e-02   5.4753031e-01  -4.5005660e-01  -9.4953905e-01   9.7811171e-01   2.8058638e-01  -3.3179443e-01   7.9267916e-01   4.2940793e-01  -3.2792482e-01  -3.7988322e-01  -1.2020119e-01  -9.5097856e-01   5.6905938e-01   9.4040359e-01   8.1269040e-01   6.2265758e-01  -2.7695124e-01  -2.5612366e-01  -1.1682659e-01  -6.9075477e-01  -2.6554377e-01   8.9420024e-01  -5.9204218e-01  -8.7260470e-01  -5.0959485e-01   2.2500999e-01   5.7995976e-01   5.5171142e-01  -6.6022998e-01   6.1767211e-01   5.1316924e-01  -1.8739293e-01  -3.4970718e-01   3.0997203e-01   3.4741983e-01   8.5032266e-01   4.4608154e-01  -8.5700254e-01  -9.1681233e-01   8.9401622e-01   5.0529823e-02   5.1014707e-01   3.2651272e-01  -3.8161466e-01   4.1909957e-01   3.8821650e-01   6.4795066e-01   7.3502838e-03   2.6647209e-01  -4.3647485e-01   7.5513758e-01   2.0716337e-01   2.4972546e-01   8.8338590e-01  -8.5926840e-01   5.0416516e-01  -7.2927749e-01  -7.4387629e-01  -6.7109556e-01  -8.7352507e-01   6.5542725e-01  -7.4825886e-01   9.6579129e-01   7.0989963e-01  -6.7316907e-03   2.9648315e-01  -4.4877800e-01  -6.5441706e-01  -1.1199811e-01   7.8437075e-01  -8.0214098e-01  -8.2850826e-01   8.1949839e-01   2.2795006e-01   8.6616027e-01   9.0104186e-01   4.7526750e-01  -7.6784119e-01   5.2784681e-01  -9.5930586e-01   7.2315881e-01   6.6970267e-03   1.8609750e-01   2.1165829e-01  -2.1134016e-01  -1.2810535e-01  -7.2561852e-01  -5.1916529e-01  -7.9909539e-01  -2.2166629e-02  -1.8122624e-01   8.8281712e-02  -3.7465904e-01  -1.9269899e-01  -7.1258406e-02  -6.8431359e-01   5.1296053e-01  -9.4008547e-01   9.6759518e-01   6.2355262e-01  -6.0116718e-01   1.4484314e-01  -7.6922191e-02  -2.3500599e-01  -8.3911252e-01   1.7028224e-01   5.3588472e-01  -4.7712459e-01  -7.6288584e-01   8.5483646e-01  -1.5208837e-01  -6.0578632e-01  -9.5596060e-01   1.1357789e-01   5.6536987e-01  -5.5138184e-01   7.9170169e-01   7.6373347e-01   9.0472758e-01  -5.6846994e-01  -1.6776956e-01   3.0699018e-01  -9.4682043e-02  -7.5381374e-01  -9.7192001e-01  -4.0141395e-01  -1.0142635e-01  -3.6317824e-01  -3.0367357e-01  -2.4097649e-01   7.6891672e-01   7.6492050e-01  -7.4242456e-01  -9.6793987e-02   5.6920377e-02  -7.6009632e-01   6.3904192e-01   3.2768608e-01  -8.1704205e-01  -1.7619774e-01   3.6108866e-02   6.3846372e-01   8.3392060e-01  -4.2944359e-02   7.2039380e-02   5.3142563e-01  -2.2856125e-01  -9.7196517e-01   6.8091194e-01  -6.8969503e-01   9.8421075e-01  -8.9490605e-02  -5.0644469e-01  -6.2999443e-01  -4.9058948e-01  -8.8441995e-01  -8.4776226e-01  -6.6001894e-01   7.2164623e-01   4.2611793e-01  -7.0009170e-01  -6.5381063e-01  -8.5418189e-01   1.1997259e-01  -7.0903356e-01   9.1433793e-01  -7.3380576e-01  -2.2680649e-02  -7.4754208e-01   2.3569629e-01   4.3223162e-01   4.2240030e-01   3.5293889e-01  -6.7915930e-01   2.8434711e-01  -3.7535224e-01   6.5413764e-01   2.0395073e-01   1.4890172e-01  -4.6270485e-01   3.9421190e-01  -9.9775665e-01  -4.7224881e-01   9.0519582e-01  -1.3192095e-01   7.9936012e-01   4.4981296e-01   8.8201213e-02  -3.5715752e-01  -2.3035276e-01   1.0196977e-01   4.7239522e-01   9.6964438e-01   5.6305040e-01  -2.1306398e-02   9.6845598e-01   8.1310591e-01   7.3489660e-02  -6.3403756e-01  -5.2936210e-01  -4.7487239e-01   2.3343768e-01  -7.8357515e-01   7.6644089e-01  -4.7883152e-01  -7.7985566e-01  -5.0995496e-01   9.8862952e-01  -2.1653916e-01  -2.9410611e-01  -2.4502272e-01   4.3790588e-02   1.8465786e-01  -4.7237442e-01   1.8395311e-01  -6.2764613e-01  -9.3674824e-01  -3.1182223e-01  -1.4255203e-01  -1.8903698e-01   3.4625166e-01   7.5406090e-02  -9.5105407e-01  -9.0514096e-01  -5.3623838e-01   1.7437159e-01   8.2127584e-01   7.1640380e-01   8.9321050e-01  -8.8537258e-03   8.5647062e-01   8.8007205e-01  -7.1810939e-01  -3.2667785e-01   7.5479133e-01  -6.5677577e-01  -9.2748826e-01  -6.1961976e-01   8.5527777e-01   4.5652841e-02  -1.9602932e-01   7.2723373e-01   5.6950527e-01  -3.5752345e-01  -1.2577043e-01   8.1077698e-01  -9.4497548e-01   8.5285210e-01  -6.2203752e-01   7.6691121e-02   6.8898637e-01  -9.1740581e-02   5.0302902e-01  -5.5167219e-01  -5.1982547e-02  -3.9488289e-01   2.0865645e-02  -4.6035969e-01  -3.8925159e-01  -4.5739556e-01   7.1679719e-01   7.5151915e-01   9.1550644e-01   9.4155188e-01  -9.5398517e-01   4.3530550e-01   6.1094257e-01  -3.0015048e-02  -3.0088279e-01  -4.5829112e-01  -6.8907011e-01  -9.6714913e-02   7.9055735e-01   7.1566683e-01   3.0345996e-02  -4.3460077e-01  -1.5788816e-01   5.3880471e-01   2.4591434e-01  -2.6206150e-01   7.1753583e-01  -7.5899993e-01   3.3075293e-01   1.1526572e-01  -5.9752583e-01   5.8585341e-01  -2.4011484e-01  -8.7286700e-01  -6.8317669e-01  -4.3074203e-02  -2.6055282e-01  -2.3828836e-01   2.0459640e-01  -8.3116906e-03  -5.8473792e-01  -9.8650402e-01  -6.8394348e-01   8.6189655e-03  -1.9207640e-01   1.2688162e-01   5.6338507e-01   9.0360031e-01   4.5503232e-01   2.7210279e-01   4.0911212e-01   7.0864996e-01  -4.2219115e-01  -5.4978221e-01  -7.6386286e-02  -4.6811127e-02  -4.1731333e-01  -8.5622915e-02  -7.3210390e-01  -9.1056071e-01   9.7547170e-02  -3.4598598e-01   3.4682710e-01  -6.0148413e-01  -7.9576668e-01  -1.9164309e-01  -3.0452358e-01  -1.7645334e-02  -6.9960468e-01   4.6387742e-01   2.3103518e-02  -7.3278089e-01   9.1910133e-01   3.9717978e-02   1.7277552e-02   3.7164688e-01  -5.1242381e-01   1.8261202e-01   4.5222080e-01   7.6883939e-01   9.7667693e-02   2.7067382e-01   2.0805846e-01  -2.5015803e-01  -6.4031442e-01   3.3258096e-01  -1.8053109e-01   6.5828105e-01   8.6829965e-01  -2.3215741e-01  -6.1490342e-01   4.4886445e-01   4.8888101e-02  -8.6546514e-01   3.0551449e-01  -9.9523085e-01   4.9935013e-01   9.1087232e-01   1.8531780e-01   1.5491065e-01  -9.8575461e-01   5.2671027e-01  -5.5257618e-01   2.4348675e-01   1.1426002e-01  -3.0632058e-01   1.6274103e-01  -5.1738958e-01   8.1309324e-01   6.1032832e-01  -1.9860827e-01  -9.9425803e-02  -3.9469305e-01   8.1731541e-01   3.8289808e-01   2.3440315e-01   7.9529997e-01  -1.7929031e-01  -4.2618687e-01   2.7910444e-01   1.1586974e-01   4.7174646e-01   9.3419536e-01   9.0761383e-01  -5.4412322e-01   4.7847413e-01   9.0588658e-01  -5.5614665e-01   7.8955908e-01  -7.5394863e-01   3.1419002e-01  -7.1580723e-01  -6.6542459e-01   7.1444173e-01   2.6530677e-01   6.3040279e-01   3.8822690e-01   1.8862142e-01  -7.7815620e-01   3.9357486e-01  -8.1186757e-01   1.2028522e-01   3.7216029e-01  -9.8403658e-01   9.6412591e-01  -5.5529502e-01   9.1574701e-01  -9.8323146e-01   1.5027490e-01   9.4567220e-01  -1.5599930e-01  -9.8419550e-01   6.5315021e-01  -7.1696102e-01  -9.1959830e-01   7.3176383e-01   2.3725312e-02   4.7869892e-02   4.0130591e-02   1.0935356e-01   9.7621555e-01   1.7777928e-01  -4.1666907e-01  -4.1580555e-01  -6.3443091e-01  -3.2252123e-01   1.7164429e-01  -1.3286648e-01  -2.2761697e-01  -5.9310963e-01  -9.8940036e-01   1.8868512e-01  -2.0764927e-01  -8.1820207e-01  -3.7631146e-02   8.0828102e-01   6.0979429e-01   9.9568795e-01  -3.9320339e-01   7.8160743e-01   8.7769302e-01  -6.4309874e-01  -1.8041907e-01   5.9211545e-01  -9.0581187e-01  -5.6401304e-01   1.5228625e-01  -7.3978148e-01   5.7335782e-01  -7.7613790e-01   3.1273859e-01   3.6964743e-01  -2.1982257e-01  -1.0430698e-02   6.3136801e-01  -2.3577513e-01  -4.2288210e-01  -5.1124275e-01  -7.1142077e-01   4.3683065e-01  -7.0884177e-01  -8.5503308e-01  -3.1398330e-02  -1.9082581e-01  -5.0929634e-01  -7.9633277e-01  -9.0299866e-01  -1.7831277e-01  -6.1612990e-01   8.4825619e-01  -6.3356970e-01   7.3073770e-01  -4.4097491e-01  -2.0746910e-01   4.8956216e-01  -8.1922526e-01  -9.0386676e-01  -6.2063168e-01   5.0137707e-01   2.2336971e-02   8.2296518e-01   6.4835665e-01  -2.2641877e-01   1.2467644e-01   9.3256741e-01   9.6432240e-01  -1.5721900e-01  -6.8098288e-01  -1.7427521e-02  -4.1034708e-01  -8.1858949e-01   6.8191083e-01   2.9770210e-01   3.5604715e-01  -2.6200213e-01   5.5258391e-01   8.9790202e-01  -8.1539731e-02  -7.2829821e-01  -9.4191428e-01   1.2744001e-01  -6.1274742e-01   4.0037420e-01   4.4982568e-01  -9.3114852e-03  -6.6893140e-01  -1.2897214e-01   2.8059243e-01   5.3926064e-01  -3.5051332e-01   5.4491221e-01  -6.7245068e-01   2.3810047e-01   3.3386844e-01  -3.5295951e-01  -2.7442710e-01   7.4245390e-01   8.6725703e-01  -1.4808040e-02   4.8568064e-01  -2.1339064e-01  -1.5391951e-01   8.0521711e-01   6.6306263e-01  -9.8085915e-01  -4.8639826e-01   3.1693237e-01   3.6293655e-01  -3.8856937e-01  -2.9814913e-01   5.2312960e-02  -7.6259433e-01  -5.0188644e-01   2.2738513e-01   5.5514784e-01  -8.1024562e-01   8.3985231e-01   7.0947501e-01  -7.9714950e-01   8.1465455e-01   9.5560974e-01  -6.1841945e-01   6.3534446e-01   5.5741144e-01   3.9647428e-01  -7.7849496e-01   6.5547272e-01  -5.3695565e-01  -1.1034632e-01  -7.0239503e-01  -7.7788778e-01  -1.6057045e-01   4.7728867e-01  -7.4530110e-01  -1.9835291e-01   8.7236292e-01  -3.0656103e-01  -2.1477941e-01   3.4002193e-01   5.5163536e-01   2.4785230e-01   4.6744497e-01  -3.3453470e-01  -7.6674986e-01   4.0756377e-01   9.6464424e-01   6.7490421e-01   2.9744671e-01  -1.6465920e-01  -2.3334112e-01   3.9825342e-01  -2.3168954e-01  -5.6096923e-01  -3.1353282e-01   2.9926770e-01   9.0902798e-01  -6.5365077e-02   7.7974331e-01  -8.0250743e-01  -2.7508084e-01  -5.2883900e-01  -9.9164508e-01   1.6046101e-01  -3.9101844e-01   9.1024970e-01  -4.0445458e-01  -2.3714180e-01  -3.7941961e-01  -6.4547706e-01   2.3214222e-01   2.9859585e-01   3.7294006e-01  -9.0412245e-01   1.2458083e-02   7.8147829e-01  -8.9669903e-01  -9.5181031e-01  -1.2423305e-01   4.7142566e-01  -9.5012380e-02   7.0914745e-01   5.1578746e-01   1.1256201e-02  -5.9554771e-01   5.7054632e-01   6.6425387e-02  -2.2580625e-01  -2.4354859e-01   5.6499738e-01  -3.7834885e-01   3.0903614e-01  -1.4589264e-01   3.5914603e-01  -5.0538110e-01   7.7376867e-02  -9.7219811e-01  -2.4239538e-01  -2.4590800e-01   6.7528804e-01  -2.9619676e-01  -5.1512493e-01  -1.7153863e-01  -5.8360291e-01  -7.8478609e-01  -7.6895546e-01   6.1459734e-01  -4.1838266e-01  -7.9868771e-01   1.8568213e-01   4.1338103e-01  -8.2733168e-01   3.4535484e-01   7.3469295e-02  -1.5486314e-01  -8.4081205e-02   1.9888798e-01  -5.8084843e-01   8.6822338e-01  -6.2759508e-02   1.1113003e-01  -8.5797219e-01  -2.8452769e-01  -5.0653153e-01   9.7881422e-01  -4.3899834e-01  -8.0936837e-01  -7.0642766e-01  -1.4302360e-01   6.6797475e-01  -9.5053151e-01  -7.7061103e-01  -2.2462267e-02   5.9690988e-01  -9.5442384e-01  -6.6602079e-02  -6.4178047e-01  -6.8501863e-01   7.5004001e-02   3.0230038e-01  -2.2842374e-01   5.1778996e-01  -1.3046555e-01  -8.2563936e-01  -8.0871033e-01   2.0843947e-01  -6.7128353e-01   4.9232222e-01  -4.0277363e-01   2.7983333e-01  -2.9640874e-02   5.4675901e-01  -9.6342361e-01  -9.2196026e-01   7.5355136e-01  -2.5527447e-02   2.6240983e-01  -7.7745451e-01   8.3376955e-01  -2.8322657e-01   3.4685552e-01  -7.6568519e-02   7.4890881e-01  -6.3343578e-01   2.9479098e-01  -3.6437546e-01   2.9861604e-01   1.9505069e-01  -8.4110549e-01  -7.6129590e-01   6.4576338e-01   4.6908732e-01   7.5108982e-01  -8.7333020e-01   2.7809434e-01   5.3362011e-01   9.7120461e-01  -5.2208171e-01   1.4241161e-02  -8.4799599e-02  -3.7826782e-01   9.8607801e-01   7.7389720e-01  -3.6438593e-01
   8.1365614e-01   3.7908803e-01   8.2071085e-01  -5.4674457e-01   2.1307746e-01   9.0244960e-02   2.2304111e-01  -8.2655431e-01   1.9236512e-01  -2.6393324e-02   8.9739983e-01  -1.6535073e-01   5.3508099e-01  -6.5350970e-01  -5.4609609e-01  -5.0377158e-01  -4.3909764e-02   6.5011160e-01   9.3101880e-01  -6.4975937e-01   1.8767632e-01  -7.8934596e-01   8.8852777e-01   8.6433173e-01  -9.4843164e-02   8.2732860e-01   9.9779280e-01   4.5391487e-01   9.9219637e-02   2.6996298e-01   9.2058560e-01  -1.6795596e-01  -9.0125737e-01  -7.0596244e-01   1.9400957e-01  -7.0475571e-01   5.4712191e-01  -8.6188502e-01  -5.8486416e-01  -3.6382711e-02  -9.3343823e-01  -1.0801420e-01   5.4869403e-01  -1.3190350e-01   9.5145402e-01   2.6267790e-01   2.3006097e-01   2.6281444e-01   6.1282008e-02  -7.5968300e-01  -4.5038736e-01   6.9785294e-01  -7.1492444e-03   5.0688645e-01   2.0202176e-02  -5.2686972e-01   7.8605804e-01   8.0163597e-01   5.0908851e-01  -3.3644540e-01   8.1903270e-01  -9.3676109e-01   6.9512559e-01  -8.2287604e-01   3.2091239e-01   2.9049209e-01   1.3632428e-02  -2.9927015e-01   4.3455994e-01   4.1072960e-01  -1.6590134e-01   7.9981794e-01  -8.4705618e-01   5.1877869e-01   6.1143254e-01   9.3675881e-01   2.4451133e-01  -9.2910037e-01  -2.7017569e-01   8.8940340e-01  -7.9046912e-01  -9.9840081e-01  -8.6748898e-01  -3.7138191e-01  -1.5483259e-01   3.6928170e-01   9.7156001e-01  -1.4238700e-01  -8.9889109e-01   3.9305497e-01  -9.3479244e-01   6.3057951e-01  -6.7373681e-01   7.5393899e-01   1.8659670e-01  -7.0908517e-01  -5.8104325e-01   5.4011610e-01   3.1586790e-02  -1.1497995e-01  -3.1873845e-01   7.5547083e-01   6.5043656e-01  -7.1461025e-01  -2.6376308e-01   3.8460834e-01   2.5560554e-02  -8.7629155e-01   2.4083664e-01  -4.3357018e-01  -2.5913543e-01   7.8624993e-01  -1.6711212e-01   9.5635491e-01  -3.6802279e-01   4.0307128e-01   3.7865694e-01   2.6101656e-01   2.9151274e-01  -8.6445199e-01   8.5938219e-01  -2.0698157e-02   6.5767014e-01   2.6330637e-01  -8.9217080e-01  -5.3540931e-01   8.4266326e-03  -6.6974437e-01   6.2298014e-01   7.6830305e-02   5.5209442e-01   9.5873472e-01   7.5306817e-01  -1.8740312e-01   3.9909896e-02   4.3121753e-01   3.1135596e-01   2.5414350e-01  -6.9167047e-02   9.4347704e-01   7.9435793e-01   1.6590917e-01  -8.6828996e-02   4.7075091e-01   7.9442534e-01  -1.3591489e-02  -7.9602244e-02   7.7876366e-01   8.5317468e-01   3.5217886e-01   7.6281510e-01   2.7124491e-01  -7.1647214e-01  -5.6583001e-01   8.6282996e-01  -8.4354286e-01   9.3431667e-01  -2.3571272e-01  -6.4104781e-01   8.5589063e-01  -2.3695489e-01  -4.6699866e-01   8.7265197e-01  -6.8574623e-01  -7.3082726e-01   1.8290587e-01   1.5621564e-01   7.8437208e-01  -5.5910744e-01   6.3691224e-02   3.7235726e-01  -1.2109296e-01  -4.5181291e-01  -6.9873174e-01   4.6204219e-01  -4.3928744e-01   7.9799500e-01   8.2769140e-01   2.9679153e-01   2.0062045e-02   1.1092338e-01  -6.8504311e-01   7.3909036e-01   5.9131497e-01  -9.2652620e-01  -4.9519075e-01  -4.6449473e-02   4.0564893e-01  -6.8240501e-01   4.3784275e-01  -1.4469648e-01  -1.8431752e-01  -6.7950111e-01   8.3447984e-01   6.5454011e-01   2.3000633e-01   7.8488955e-01   3.1169920e-01   7.2693874e-01  -8.3013646e-01  -3.7090242e-01   2.8166372e-01  -1.7841162e-01  -9.4309824e-01  -4.1047534e-01   9.4321090e-01   5.0151583e-01   4.5158783e-01  -6.3955103e-01  -5.9572516e-01   9.5299625e-01  -2.9875440e-02  -8.0051422e-01   3.5354152e-01   6.5449494e-01   8.3925317e-01   6.7638998e-01  -1.2560050e-03  -1.5945045e-01   1.8771477e-01   7.3688496e-01  -4.9936009e-01   6.0165130e-01   4.7178224e-01  -2.5587546e-02  -4.0087976e-01  -6.5329169e-01  -1.4286394e-01   1.5904720e-01   3.1513894e-01   2.7650177e-01  -9.5616826e-01  -2.9720142e-01  -5.2943718e-01  -9.9105520e-01   6.2001819e-01  -8.4732165e-01  -3.3634782e-01   5.2949075e-02   8.9219054e-01  -6.5979075e-01  -3.5528722e-01  -8.5700201e-01   5.9794987e-01   2.6178309e-01   8.0079763e-01   3.7058883e-02   9.6450986e-01  -7.5470304e-01  -2.8658592e-02   5.9119240e-01   6.1363503e-01  -7.3782153e-01   4.8953722e-01  -6.0265926e-01  -6.1774427e-01  -8.4444922e-02  -4.1009816e-01  -3.3779699e-01   8.4326861e-01   4.8105202e-01  -3.0790957e-01   8.8310244e-01   3.6885089e-01  -8.4256259e-01  -5.2721791e-01   3.2049360e-01   2.4388043e-01   7.1555440e-01   3.5671536e-01  -8.8230458e-01  -7.8901176e-01  -7.8275789e-02  -8.2423150e-01  -5.5499407e-01   9.7459338e-01  -5.9523195e-01  -1.4273847e-01   1.2304273e-01  -4.4202245e-01   9.0929144e-01  -2.1101677e-01  -5.3369316e-01   2.4678923e-01   1.4015727e-01   8.4883058e-01   3.1835043e-01  -4.6322120e-01  -2.2960919e-01   2.2083769e-01  -2.9180248e-01   8.3757151e-01   9.4077866e-01  -6.4505801e-02  -6.7066521e-01   8.6096247e-01  -3.0506892e-01  -7.3867910e-02   7.0837932e-01   5.0522992e-02  -6.2817446e-01   9.1625051e-01  -5.0563264e-01   2.3272996e-01  -1.8512933e-01  -9.9224676e-01  -4.9892288e-01  -7.9974884e-01   1.1320192e-01  -6.9628270e-02   2.8049838e-01  -1.6050056e-01   6.0117693e-02  -8.2915767e-01   6.5260013e-01   6.7307308e-01  -5.9022269e-01  -2.5802192e-01  -8.4749342e-01  -4.7223545e-01  -9.6261449e-01  -8.6577204e-01  -3.8585924e-01  -8.1543801e-01   3.7026583e-01  -7.7186709e-01   2.4791737e-01   6.9295323e-01  -8.1857532e-01  -2.8513354e-01  -2.1159902e-01   1.7269584e-01  -5.2692163e-01  -5.7307203e-01  -6.0744477e-01   5.0806258e-01  -6.2168415e-01  -4.4006585e-01  -6.8248788e-01  -4.2023967e-01  -3.6987566e-02   4.3657320e-01  -4.4240024e-02   1.4030638e-01   3.3564629e-01  -7.2441260e-01   5.9616062e-01  -4.2974047e-01   2.3173508e-01  -6.8312871e-01   9.3061955e-01   2.3188801e-01   4.0222549e-01   9.5499698e-01  -8.8944710e-01  -5.6300629e-01  -4.2790400e-02  -8.8996207e-01  -5.9159572e-01  -8.9932670e-01  -8.6115691e-02   6.5686751e-01   1.2296609e-01   8.4905816e-01   3.9835204e-01  -8.1658588e-01   5.3347530e-01  -3.3248319e-01   6.4044106e-01   6.8045773e-01   8.1761000e-01   5.6582895e-01  -2.4595870e-01   2.7170284e-01   4.9849054e-01   9.4596735e-01   6.3884922e-02  -3.6861175e-01   6.9403026e-01   4.4671090e-01  -6.0620244e-01  -5.7773123e-01  -2.2527371e-01   8.3721875e-01   3.7507898e-01   8.4661953e-01   4.9995781e-02  -3.2445300e-03   2.9094701e-01   5.4942163e-01   1.0574046e-01   9.7094908e-01   2.6127612e-02  -9.0083918e-01  -1.0024686e-01   5.4442695e-01  -6.7494383e-01  -1.3064661e-01   3.2015752e-01   9.2958716e-01   9.2354420e-01   3.3752023e-01   6.5934790e-01   3.9924723e-01  -1.3656284e-01   8.0572448e-02  -6.6825877e-01  -3.3929024e-02  -8.1612165e-01  -3.5406150e-01  -7.3234889e-01  -7.0020062e-01  -2.4781728e-01  -7.9540858e-01  -6.9123856e-01  -6.8901762e-01   8.2284400e-02   8.0477336e-01  -8.1937172e-01   4.4785060e-01   7.0750505e-01   7.8979038e-01   5.0129237e-01  -7.3356458e-03   5.5201470e-01   6.2131908e-01   5.1594289e-01   3.9651567e-01   1.3350487e-01  -4.9977372e-01   6.3778283e-01   4.4701508e-01   7.5629710e-01   1.2598700e-01  -7.5965901e-01   7.1019855e-01   9.6599037e-01   8.7554933e-01  -7.2760799e-01  -8.5949517e-01   5.2440361e-01   6.1182121e-01   6.7547517e-01  -4.9781229e-01  -6.6593985e-01  -2.0854070e-01  -5.0857089e-01   2.7808952e-01  -1.8660046e-01   2.6426665e-01  -9.5203792e-02  -8.1531563e-01   3.2863747e-01   6.8856159e-01  -4.1171502e-01  -3.6706387e-01  -7.3719827e-01   6.0457341e-01  -8.9958641e-01  -2.0777111e-02   5.4444307e-01   2.1183718e-02   8.4085022e-01   6.0789269e-01   6.7001026e-02  -9.3295070e-01  -3.4207666e-01  -6.6552243e-01   5.4051077e-01  -8.8788807e-01   2.1542794e-01   6.2805404e-01  -6.7992896e-01   5.1867168e-01   1.4260782e-01   6.1218719e-01   9.6401246e-01  -5.8283059e-02   1.5613531e-01   5.2176110e-01  -9.6847414e-01  -9.2123728e-01  -4.9118942e-01  -1.1996063e-01  -1.9791455e-01  -7.3075049e-01   5.5100169e-01   5.1705181e-01  -7.1676990e-01   7.4867942e-02  -6.3061050e-01  -1.2443631e-01  -1.2527420e-01   7.1192996e-01  -4.8532533e-01   8.0428263e-01   6.7295305e-01  -2.3428132e-01   1.6069898e-01   9.7673613e-01  -5.0364234e-01  -3.1669068e-01  -3.0312937e-01   7.4868275e-01   9.0667384e-01   4.6161089e-01   8.2922293e-01   5.0317331e-01  -5.6481280e-01   4.5785054e-01  -4.0017234e-02  -1.1375434e-01  -6.1843848e-01   4.8447494e-01   2.0835749e-01  -2.3902332e-01  -8.7559349e-01  -3.5472189e-01   6.4257106e-01   1.4880320e-02  -1.1917981e-01  -4.2609953e-01   9.6032513e-01   6.7732810e-01  -8.0089954e-01  -7.0718241e-01   1.8255169e-01  -7.5719847e-01  -5.2155601e-01   3.2356094e-01  -4.5930032e-01  -9.5089748e-01   7.3408033e-01  -1.6629934e-03   7.1706247e-01   6.0888457e-01  -5.1016177e-01  -3.5735091e-01   7.0257916e-01  -8.5185035e-01   8.4267195e-01   6.6423718e-02  -5.8299785e-02  -4.7892135e-02   3.5480991e-01  -2.7234617e-01  -4.1396727e-01  -7.0698553e-01   8.7962734e-01   5.1093573e-02   7.1160408e-01  -7.8165267e-01  -8.2873811e-01   4.7521277e-01   4.9212155e-01   4.2060348e-01  -1.2262119e-02  -4.4636738e-02  -1.7497928e-01  -3.0414453e-01  -8.9849714e-01  -1.1184793e-01  -2.3199090e-01   1.8010348e-01   8.1242103e-02  -3.9590230e-01   8.4850630e-01   8.0253938e-01   4.6713849e-01  -1.7947101e-01   5.7225922e-02  -2.2643040e-02  -8.0106585e-01  -9.0402647e-01  -3.1855050e-01   1.1068948e-01  -4.9723832e-01  -5.3086816e-01  -5.5955082e-01   4.0905675e-01   8.5928372e-01  -8.6729783e-01   7.1750285e-01  -9.5203017e-01  -8.9757511e-01  -2.2445098e-01   7.6539710e-01   5.2677472e-01  -9.0642923e-01   1.2943114e-01   7.2386324e-01  -3.5505489e-01  -9.8883042e-01  -5.8387082e-01   6.6660243e-01   8.9096522e-01  -2.7080935e-01   4.3405524e-01   7.0817022e-01  -6.3465988e-01  -4.5046986e-01   1.3846134e-01   9.1840033e-01   8.3992200e-03   4.9676782e-01   1.3182822e-02   6.1144754e-01  -5.9209908e-01  -2.4566000e-01  -3.1011618e-01   4.5537615e-01   9.9620188e-02  -9.1685296e-01  -8.1662048e-01   6.4895803e-01  -9.5672433e-01  -7.3041526e-02  -3.7551948e-01   6.4813856e-01  -6.8317224e-01   8.4863603e-02  -6.0622716e-01   8.1252306e-02  -4.1738877e-01  -3.6127110e-01   7.9780329e-01   9.5795182e-01   9.3925848e-01   1.0716081e-01   7.8475054e-01   4.4577709e-01  -1.5696257e-01  -4.8132366e-01  -7.5281580e-01  -4.4527166e-01   6.3404008e-02  -2.3017369e-01  -4.6331344e-02   5.9560283e-01  -9.1676419e-01   7.5461269e-01  -3.3110484e-01  -6.3858125e-02   8.1617818e-01  -1.5844043e-01   5.6330509e-03  -8.6622136e-01  -1.2930995e-01   2.9314612e-01   4.1346855e-01  -4.0621590e-01  -5.9498051e-01   9.0573388e-01   7.4136950e-01  -3.7391297e-01   1.5890058e-01   9.6528447e-01  -3.1674950e-01   7.2657051e-01   9.2479528e-02   6.4847356e-01  -1.6090722e-01   6.8642043e-02   1.3534314e-02  -3.1361550e-01  -2.1280430e-01  -8.7707398e-01  -6.5668620e-02  -1.0518300e-01   2.4713030e-01   8.8665809e-01   7.8841660e-01   4.7006744e-01  -2.9898663e-01   3.4386109e-01   7.1439430e-01   3.4984533e-01  -1.1937686e-01  -6.3859580e-02   7.7664577e-01  -8.7644188e-01  -8.5176980e-01   4.5902876e-01   2.1457906e-01   5.7268152e-01  -5.6874894e-01   4.4312278e-01  -6.3808175e-01   6.6540491e-01  -2.1453029e-01  -6.7735675e-01  -7.3058754e-01   6.3576326e-01   3.1094002e-01  -9.6647053e-01  -2.4078118e-01  -1.7151426e-01  -4.7863877e-01   8.4897667e-01   2.8569723e-01   7.1809992e-01  -4.6018216e-01   5.1306028e-01   8.2915906e-01  -2.7886117e-01   1.5767963e-01   5.9079201e-01   2.2410363e-01   9.7848538e-01  -7.6415090e-02   6.4482752e-01  -1.9239128e-01  -9.8082953e-02   3.0978428e-01   4.2294249e-01  -2.5574345e-01   1.9858829e-01   5.9370706e-01  -1.7971440e-01  -5.9530110e-01  -8.9448265e-01  -2.6301122e-01  -2.5362258e-01  -5.7905670e-01   6.9655367e-01  -5.3043297e-01   7.7116842e-01   9.0273707e-01   3.8571463e-01   2.0483264e-01   3.7688366e-01  -6.0854855e-01  -8.0527093e-01  -1.4770358e-01   5.1890366e-01   7.8175105e-01   9.4637024e-01  -2.3141359e-02   1.7129118e-01  -5.8958193e-01   4.8059636e-01  -6.3669693e-02  -3.3962398e-01   8.9785311e-01   5.8085403e-01   5.7959200e-01  -6.0004759e-01   8.3396916e-01   1.5176858e-01   3.8471945e-01  -9.7104519e-01   1.4567070e-01   5.7531733e-01  -2.5237007e-02   9.6271565e-01  -3.1082949e-01  -6.3118212e-01   8.1818223e-01   9.1256773e-02  -3.2457563e-01  -3.1018151e-01  -7.4199442e-01  -6.7674719e-01   7.8160754e-01  -1.1170448e-02  -9.7774014e-01   8.5204024e-01   8.0748854e-01   6.2755322e-02   6.6450482e-01   5.0938310e-02   1.0052666e-01  -5.4184677e-02  -8.9142493e-01   6.8862309e-01  -3.3131703e-01  -7.2773619e-01  -4.9910199e-01  -8.8036972e-01  -4.5508774e-01  -3.8750219e-01   6.9131334e-01   7.6350375e-01   1.2419952e-01  -9.2200836e-01  -7.8713170e-01   8.0673993e-01  -5.4975476e-01   5.2375036e-01  -9.3536844e-01  -6.4484783e-01   4.4598087e-01  -4.6825338e-02   8.9532639e-01  -6.4622206e-01  -9.8161544e-01   7.0513705e-01  -6.5863849e-01   8.6910864e-02   8.1229617e-01   4.1407211e-01  -8.9720055e-01  -8.4239195e-01  -1.2545139e-01   2.4891808e-01   9.3648635e-03  -8.2124498e-01  -4.7437465e-01   8.4603671e-01  -7.2339761e-01  -3.9819712e-01   4.4735086e-02  -7.8501422e-01   3.8934926e-02   5.6513938e-01  -7.5154498e-01   2.6492999e-02  -3.1775718e-02   3.2265011e-01  -9.6396922e-01   1.5456292e-01  -3.6974302e-01  -5.8621975e-01  -9.3595213e-01  -5.7811289e-01  -2.2673563e-01  -3.9847459e-01   3.6465217e-01  -1.9394176e-01   1.1941030e-01  -3.8349610e-02   1.0068527e-01   3.3679746e-02   7.4819164e-02   1.6337660e-01  -9.1219601e-01   9.9599416e-01   9.6381251e-01  -2.3216576e-01   9.3797533e-01   9.3856338e-02  -6.7114387e-01  -7.0936944e-01   2.0892047e-01   5.8546416e-01  -3.4197204e-01  -7.6668477e-02   4.3602993e-01   9.7918763e-01  -5.2202440e-02  -3.7782353e-01   9.2216584e-01   9.4374210e-01  -1.3902221e-01  -7.4868670e-01  -4.0247250e-01  -5.6506390e-01   4.3956737e-02   4.5623784e-02  -6.3675003e-01   9.2050822e-01   6.3494165e-01  -3.3593085e-01   8.6042441e-01  -8.4512202e-01   5.1262350e-01  -9.3006118e-01  -8.9188243e-01   4.4821029e-01  -7.0135324e-01  -1.5293682e-01  -8.1353452e-01  -4.9155985e-01   1.7034282e-01   9.7165870e-01  -5.1209135e-01   6.4481891e-01   8.6468140e-01   2.5581351e-01   4.7126496e-01   2.3033145e-01   8.0179354e-01  -4.8212081e-02   9.9234486e-01   2.8764960e-01   9.1669338e-01  -2.1049962e-01   1.6454764e-01  -8.0441738e-01   8.4080817e-01   5.9274179e-01  -1.3279646e-01   4.3250872e-01  -3.0889301e-01   4.2974702e-01   7.2889566e-01  -7.3426273e-01   9.0240244e-02  -8.6308593e-01  -4.9101139e-01   6.0183258e-01   3.6385744e-01  -7.0288420e-01  -4.4445279e-01  -9.5965719e-01  -3.2310048e-01  -4.8478390e-01   7.7658925e-01   6.2790254e-01  -9.7123665e-01   2.0997160e-01   6.7141344e-02   2.7615012e-01   3.5802620e-01  -5.8852856e-01   1.7977509e-01  -3.4399079e-02  -5.2473084e-01  -5.7466772e-01   5.3120601e-02   3.8491133e-01  -1.1092131e-01  -1.0784350e-01   5.2963486e-01  -8.2139550e-01   7.1760883e-01  -8.6434293e-01   1.3570793e-01   6.4466317e-01   5.1193308e-01   4.5730011e-01   7.4927447e-01  -8.9925988e-01  -5.5684469e-01   7.2192573e-01  -7.8006499e-01  -6.7469548e-01   7.1831092e-01   9.2006405e-01  -1.0100167e-01   1.3523557e-01  -1.8786222e-01  -6.3448850e-01  -9.6367394e-01  -4.9535412e-01  -4.9115100e-01  -1.6370897e-01   7.1771349e-01   4.3112975e-01  -8.7370477e-02  -7.8462973e-01  -5.7705164e-01   7.9252356e-01  -9.8236277e-01  -7.0024479e-01   8.4115502e-02   8.6230660e-01   1.1029304e-01   1.2212088e-01   3.9081921e-01   6.3817989e-01   1.1333864e-01   1.6140947e-01   6.4355436e-01   1.3939366e-01   6.8737904e-01   6.9007469e-01   2.5755310e-01   4.7147939e-01   9.1695108e-01  -5.6051003e-01  -4.3651855e-01   3.6627145e-01   6.6679069e-01  -5.2131247e-01  -5.6346064e-01   7.3913042e-01  -1.6495050e-01   7.3333011e-01  -6.3576475e-01   3.6697791e-01  -7.0770313e-01  -8.8641878e-01   7.6885509e-01   1.2803923e-01   3.5729974e-01  -9.5092944e-02  -6.8091821e-01  -9.2087407e-01   1.6824029e-01  -6.7425533e-01  -9.7043961e-01  -5.8572394e-01   3.0430511e-01   2.9425296e-01   4.0536203e-01  -1.0926287e-01  -3.3091960e-02   4.1604318e-01  -3.3224876e-01
  -6.8179101e-01  -1.9378374e-01  -5.0274881e-01  -7.6673842e-01  -7.4334457e-01   2.7756283e-01  -5.3956719e-01   7.3235880e-01  -2.4587979e-01   9.2885403e-01  -9.5468243e-02   8.0681873e-01  -6.4238911e-01  -3.7739915e-02   3.4073119e-01   3.6707125e-01  -6.6814256e-01  -1.6658789e-01  -8.5282167e-01  -9.3474888e-01  -7.3233845e-02  -1.8345584e-01  -4.2741797e-01  -3.4236823e-01  -7.6006056e-02  -1.5084852e-01   2.3334772e-01   3.2232290e-02   1.4470689e-01   9.9675640e-01  -7.2931984e-01  -9.5467149e-01   9.3826493e-02   5.2109751e-01  -7.8244010e-01   7.1586223e-02  -4.6456186e-01  -5.4534303e-01   7.2559955e-02  -5.2391472e-01  -2.5969005e-01  -8.2109002e-02  -2.4038268e-01  -1.5420206e-01  -2.0756099e-01  -4.3380383e-01  -7.5862213e-02  -7.6258278e-01  -4.4168148e-01   7.1829748e-01   5.5250670e-01  -8.5992109e-01  -1.7385452e-01  -5.6836657e-02   9.2297696e-01   8.8971554e-01   6.1761314e-01   9.3371744e-01  -8.4875558e-01  -6.7144329e-01   8.2452192e-01  -4.0001475e-01   1.0004379e-01  -1.7021272e-01   3.6908913e-01  -2.1606949e-01  -4.6858884e-01  -1.2293079e-01  -6.5961652e-01   8.9310126e-02  -3.3163968e-01  -7.1615851e-01   4.3080377e-01  -3.6673885e-01  -4.5948944e-01  -8.7703973e-01  -7.6021839e-01  -5.0476173e-01  -4.1982923e-01  -9.0676663e-01  -3.4249157e-01   9.7430565e-01   6.9701810e-01  -7.3394927e-01  -2.4081999e-01  -9.5384632e-01   8.1093690e-01  -1.7333826e-01   5.1334297e-01   5.0981329e-01  -8.9591559e-01   9.8222950e-02  -2.6135475e-01   9.1099529e-02  -4.3088893e-01   4.7676800e-01  -8.3129209e-01  -7.3980739e-01   2.4148886e-03  -4.1772262e-01   2.4079144e-01  -8.8872916e-01   3.0657407e-01  -5.9743890e-01   1.6181385e-01   4.3698434e-01  -9.4860902e-01   6.8497323e-01   4.0843020e-01   3.3884109e-01  -4.9523191e-01   4.8281683e-01   8.9463419e-01  -6.9024715e-01  -9.3206312e-01   9.0865486e-01  -9.3578989e-01  -2.6271264e-01  -6.3301527e-01  -5.6620295e-01  -8.6638965e-01  -3.5984332e-01  -5.1481939e-01  -5.8301585e-01  -6.3887027e-01  -7.9643798e-01   2.7624907e-02  -2.7022465e-01  -5.6079552e-01  -6.8553406e-01   5.5136863e-01  -6.1882857e-01   6.2058506e-01   6.5709258e-01   8.6547597e-01   1.1866560e-01   4.7949725e-01   7.4284944e-01   8.9234466e-01  -2.4389001e-01   7.9459726e-01   8.9108161e-01   3.8537466e-02  -8.0442565e-01   1.7508268e-01  -2.7098343e-01  -6.3853170e-01   7.4644998e-01   8.3245084e-01  -6.2975307e-01  -2.4284332e-01  -2.8384012e-01  -9.8814902e-01   5.5871037e-01   6.0115625e-01  -5.0804096e-01   1.6177691e-01  -7.2393744e-01   9.3549676e-01  -6.2760325e-01   4.0007555e-01  -2.2528727e-01  -3.7741036e-01   3.3977233e-02  -4.3387801e-01   4.1117336e-01   2.3470841e-01   2.7957819e-01  -9.0789442e-01  -5.3256983e-01   9.6175112e-01  -3.1957038e-01  -6.8930630e-02   9.4343192e-01  -3.0174334e-01   9.1763502e-01   2.6200517e-01   3.6566198e-02   2.3035906e-01  -5.1735469e-01  -2.9851334e-02  -1.7545984e-02   6.0975826e-01  -1.5473437e-01  -4.9924263e-01   8.6558751e-01   4.2664911e-01  -7.9041394e-01   9.6885169e-01  -6.2195721e-03   2.4173354e-01   5.4862375e-01  -8.1117486e-01   4.5878003e-01   4.3156794e-01  -4.2539796e-01  -5.4499010e-01   4.0465287e-01   6.5335474e-01  -8.0067321e-01   5.2276601e-01   9.2570658e-01  -1.1265495e-01   8.7337213e-01   5.8921821e-01  -5.9233830e-01   3.9239824e-01   4.9022540e-01   7.5726406e-01  -1.6358361e-01  -7.3397423e-01   8.5941188e-01  -5.5796530e-01  -2.7326475e-01   3.2529173e-01  -4.8368963e-01   1.1804799e-01   5.9298777e-03   2.5021868e-01   9.3066926e-01  -4.1900354e-01  -2.3803522e-01   8.4118887e-01   4.2639019e-01  -5.1638209e-01  -3.4686889e-01   7.5033398e-02   5.3325487e-01  -1.2101633e-02   7.0070700e-01   4.7281609e-01   8.2803086e-01   9.3368890e-01   9.6198004e-01   4.5965163e-01   4.1729846e-01   7.2087295e-01  -6.4931051e-01  -3.9951686e-01  -4.3642745e-01  -7.8478290e-01  -3.2249028e-01  -3.7913609e-01  -7.9622672e-01  -9.6497115e-01  -8.3324062e-01   6.9028712e-01  -3.3626775e-01  -8.9365463e-01  -9.8398057e-01  -1.3360734e-01  -2.6095786e-01  -5.6336769e-03  -9.4158681e-01   3.2018476e-01  -4.6689385e-01  -1.4665906e-01   1.9370855e-01  -7.1070436e-01   6.6961045e-01   5.9356547e-01   4.4599545e-01   8.8186919e-01   4.2003156e-01   7.3290350e-03   4.0315421e-01  -6.3094616e-01   1.3719330e-01   4.1401476e-01   3.8152828e-01  -9.8131320e-01   8.9970899e-01   8.4455999e-01   2.1541505e-01  -9.6703257e-01  -4.0048886e-01  -8.0978327e-01  -2.6291834e-01  -9.4802145e-02   2.3710378e-01  -3.7907511e-01   5.6598075e-01  -4.8183593e-01   7.4953533e-01   8.1556371e-01  -4.5726428e-01  -3.8174087e-02  -7.7972982e-01   4.8654156e-01  -9.5136072e-01  -9.7584317e-01  -4.0032657e-01  -6.6619887e-01   3.3546182e-01  -2.3092374e-01   9.7197062e-01  -2.7735256e-01   3.5239763e-01  -3.6625993e-01  -8.3992304e-01   6.8172981e-01  -2.8543852e-01  -9.3149288e-01  -3.1030436e-01   1.1637262e-01   8.7813516e-01   9.0514565e-01   6.4117888e-01   2.0468078e-01   1.6463059e-01  -9.5855219e-01  -9.0970946e-01  -6.1732250e-01   8.3032341e-02   7.5961473e-02   2.4577991e-01  -9.1541278e-01  -2.7946117e-01  -1.1098422e-01   5.7432964e-01   7.7866640e-01  -3.9176820e-01   4.6664974e-01  -3.1666354e-01   7.3653489e-01   5.3951660e-01   4.4918801e-01  -4.1850008e-01   8.6487331e-01   4.1679958e-01   1.5345001e-02   8.7679958e-01  -5.6328832e-01   6.2329603e-01  -5.1674143e-01  -6.6590976e-02  -6.6691029e-01   4.3332302e-02   8.7992223e-01  -4.8071744e-02  -3.8164104e-02   6.3270122e-01   1.8176085e-01  -7.7992922e-01   2.6407148e-01   1.1281683e-01   4.1864783e-01   5.1674635e-01  -2.8476623e-01   9.7659993e-01  -5.9857866e-01   9.7766764e-01  -3.0584310e-01   5.1920284e-01  -5.2498434e-01  -8.5665975e-01   7.4214470e-01  -8.2894993e-01   1.8050464e-01  -8.6129307e-01   7.0301189e-01   7.3724258e-01   5.2781190e-01   7.1898079e-01   6.2376312e-01   8.0977369e-01   8.6166931e-01   7.3149456e-01   9.4814427e-01   9.4151343e-01  -6.8089058e-01   1.8758315e-01   2.8388688e-01  -3.3482978e-01  -2.2892011e-01   6.3857295e-01   5.7226609e-01   5.3879170e-01   7.8854811e-01   9.9054585e-01   7.1848653e-02   6.2839687e-01   6.6426757e-01  -4.5930278e-01  -9.6406793e-01   2.6346585e-01  -9.5657414e-01  -1.4713362e-01  -3.9221985e-01  -8.3528342e-01   9.2423003e-01   2.6410258e-02   9.3784273e-03  -1.1424214e-01   8.1761387e-01   5.6343287e-01  -3.1304261e-01   2.1533301e-01   8.0519333e-01  -3.8308852e-01   9.5156073e-01  -9.5909884e-01   6.6954804e-01   4.0566975e-01   7.4146548e-01   4.9780494e-01   2.0056397e-04   7.9341478e-02   6.5954343e-01   2.6500037e-01  -4.4593758e-01  -1.9642307e-01  -9.3405167e-01  -8.9788481e-01  -3.8448086e-01  -7.0368165e-01   6.4139484e-01  -6.3785697e-01   5.4417724e-01   8.9080784e-01   5.5435230e-01  -3.3890227e-02   3.7285874e-01   6.5813052e-01  -2.2259652e-01   2.0213683e-01  -7.0289033e-01   2.9355865e-01  -6.6358159e-03  -7.1307948e-01   7.6599682e-01   3.8824658e-01   3.1330943e-03   7.1485344e-01  -1.0711854e-01  -4.4370465e-01  -1.8197621e-01   2.8887864e-01  -7.1150610e-01   4.1912083e-01   1.9644375e-01   2.4814563e-02   9.4321231e-01   1.2648933e-01   6.8179282e-02   4.5341882e-01  -9.6731799e-01  -8.5511559e-02  -6.1906850e-01   4.0908313e-01  -2.7300703e-02  -9.6537268e-01  -8.2528480e-01   9.5543382e-01  -7.1964523e-01   3.3758179e-01   1.8096996e-01  -7.3769259e-01  -2.4102248e-01  -2.3737791e-01   7.9852728e-01   3.6186426e-01   6.3876903e-01  -4.1131290e-01   5.9061520e-02  -2.9377378e-01   7.3155423e-01   4.4750970e-02  -9.7016811e-01  -4.8772759e-01   1.7314842e-01   2.5882234e-01  -4.0715741e-01  -6.8456459e-01  -3.0137233e-01   9.4069622e-01  -9.7525099e-01   6.5820069e-01   8.7768204e-01  -2.5871667e-02   5.0786746e-01  -6.7367230e-01   1.3023545e-01   3.5901217e-01   5.1304842e-01   5.8360652e-01   9.5024486e-01  -6.9531631e-01  -6.8843403e-01   7.0277983e-01  -4.7858921e-01  -2.9466081e-01  -5.6529972e-01  -9.4549694e-01  -7.9098336e-01  -9.6674367e-01   8.4918465e-01   1.6251627e-01  -7.1598077e-01  -6.1022608e-03  -4.2891215e-01   2.2066665e-01  -8.3299309e-01  -6.6412859e-01  -7.7416145e-01  -5.7881216e-01   9.6855131e-01   3.1237503e-01  -6.7794721e-01  -4.3739500e-01  -4.0116763e-01  -8.3535342e-01   5.4603928e-01   4.0253915e-01  -8.9265454e-01  -5.0611055e-01  -9.0053845e-01  -1.3301776e-01  -4.8440260e-01   6.9428218e-01  -2.6541591e-01  -1.3855240e-01   3.1479102e-01   6.0332364e-01   2.8936004e-01  -2.8739893e-01  -6.4709087e-01  -8.4770694e-01  -2.6234940e-01  -4.3788897e-01  -3.4976328e-01   9.4908408e-01   8.4943911e-02  -9.6487786e-01  -5.5364362e-01   4.5312725e-01  -6.3398046e-01   6.2435431e-01   7.2068111e-01   3.6359934e-01  -6.6266944e-01   1.1256261e-01  -5.6400291e-01   2.7786735e-01  -2.0920741e-01  -2.6466344e-01  -6.3785888e-02   2.9011494e-01   5.1350662e-01   6.3686167e-01   8.2187009e-01   3.6519703e-01  -7.8799656e-01  -6.9475354e-01   3.7400254e-01  -6.3755810e-01   9.3268534e-01   8.2756260e-02  -4.8676483e-02  -2.7628003e-01  -4.1815663e-01   4.2742625e-01  -8.9772935e-01  -3.8161544e-01  -8.6646111e-01  -8.9259053e-01   6.7155409e-01  -1.4662655e-01  -1.4521432e-01   7.3365110e-01   6.5639273e-01   8.0823235e-01  -7.4476925e-01   9.5383549e-01   7.9914915e-01  -8.6181973e-01   9.9572116e-01  -2.9468084e-02  -4.5259476e-01  -3.0164534e-01   8.8599174e-01  -3.5771991e-01  -8.9721942e-01   6.2816645e-01   5.6885373e-01  -7.2442599e-01  -5.6106048e-01  -5.8698214e-01   7.5569576e-01   6.9329674e-01   4.4399676e-01   8.5045926e-01   8.5448785e-01  -8.8496620e-01  -8.1939877e-01   7.2991300e-01  -8.3420468e-01   5.3381977e-01   2.1665831e-01   2.7839114e-01  -2.1644169e-01  -7.3527276e-01   4.3945813e-01   2.0598716e-01  -2.1947404e-01  -6.3183538e-01   6.3464445e-02   9.8100650e-01  -2.0049573e-02  -7.7439825e-01  -8.4878043e-01   3.1918868e-01  -5.8389379e-01   4.6567020e-01  -9.2214122e-01   7.3301404e-01  -8.4959628e-02  -9.7118078e-01  -9.8638349e-01   9.5325853e-02   4.2676162e-01   2.9302225e-01  -8.6944441e-01   3.8391302e-01   8.3182546e-01   7.8261360e-01   7.8896467e-01  -5.3765285e-01   1.7110068e-01  -8.1107851e-01   2.4050270e-02  -8.7390373e-01  -6.4939955e-01  -9.5793571e-01  -2.5514874e-01   9.4247396e-01   5.2076419e-01  -2.0455355e-01  -8.8256253e-01   7.3770225e-02   7.3234657e-01  -7.8375700e-01  -9.1475661e-01  -4.0128937e-02   5.9842033e-01   9.4455968e-01  -6.3623227e-01  -9.5704180e-02  -4.1963892e-02   7.1783151e-01  -4.2016877e-01  -6.6698331e-01  -8.3076812e-01   8.0538945e-01   8.5959319e-01  -3.1575523e-01  -8.1559947e-02  -7.5656418e-01   9.3745262e-01  -7.5213830e-03  -7.0199701e-01   5.7785498e-01  -8.3190891e-01   4.4900553e-01  -8.7429963e-01  -3.2420547e-01  -6.8885976e-01  -7.5621024e-01  -4.4071149e-01   8.5191333e-01   4.5242489e-01  -2.8761671e-01  -6.9202881e-01   9.6157682e-01  -9.6527736e-01   1.1808739e-01  -5.0766604e-01  -5.1579817e-01  -3.6014928e-01   1.9745487e-01   2.5363469e-01  -9.7596232e-01  -8.9709607e-01  -6.2786521e-02   2.0910744e-02  -4.3297976e-01   9.8068378e-01   6.7957533e-01   2.2107303e-01   9.3060306e-01   8.9363023e-01   5.6330775e-02  -8.3690587e-01   7.1992277e-01  -8.7186209e-01  -4.8762590e-01   8.7299627e-01  -4.7132178e-01  -6.5085519e-01  -1.4334790e-01  -5.9478569e-01  -2.3267928e-03   6.7114931e-01  -7.9192646e-01   4.8151659e-01   2.6064758e-02  -5.4342895e-01   2.5699435e-01  -4.5577555e-01  -1.5171804e-01   3.3499569e-01   6.8390262e-01  -4.2498788e-01  -3.5583327e-01  -6.5082293e-01   9.4721505e-01   5.0854164e-01  -4.1462125e-01  -9.0599543e-01  -1.0544133e-01   9.3616594e-01  -7.7378744e-01   5.9276192e-01   5.6187643e-01   3.1917913e-01  -7.4282555e-01   4.7300656e-01  -2.3629587e-01   4.6610980e-02  -3.0428457e-02  -6.5000776e-02  -8.8804318e-01   8.6156980e-01  -9.5022872e-02   7.9561790e-01  -4.3758559e-01   6.7846639e-01   6.1136521e-01  -4.0784047e-02   9.5472472e-01  -7.3094997e-01   6.9327373e-02   6.5827138e-01   7.5672495e-01  -2.3917099e-01   9.5050986e-01  -9.0446008e-02  -3.1401529e-01   5.9388420e-01  -9.5584558e-01  -8.0343269e-01  -9.5336575e-01  -4.1194842e-01  -5.0073079e-02  -1.5501676e-01   1.7321740e-01  -7.3822326e-01   5.7723738e-01   2.5387776e-01  -7.6724983e-01   9.4872349e-01  -8.2486588e-02   9.0415931e-01  -2.7053544e-01   2.1479329e-01   5.3698029e-01  -4.5280510e-01  -3.4430691e-01   9.3795820e-01  -4.5886945e-01   6.9743877e-02  -9.4320897e-01  -4.6214299e-01  -4.1174918e-01   5.4708846e-01   5.6529352e-01   3.0437528e-01  -7.9940517e-01  -6.4850988e-01  -8.3847665e-01  -6.8660532e-01  -4.0683565e-01  -4.8344720e-01  -4.0689209e-01  -6.8306550e-01  -9.5215102e-01   1.0110206e-01  -3.7511910e-01  -8.3699277e-01  -7.1134126e-01   8.8088328e-01  -9.0610189e-01  -7.4218179e-01  -1.9249549e-01  -9.9475670e-01   8.3221352e-01  -1.4556455e-01   9.6604057e-01  -8.6100594e-01  -6.6757849e-01  -2.4741708e-01  -9.5946704e-01  -3.6432846e-02  -8.7363315e-01   9.7824014e-01  -8.2688972e-01  -2.0934779e-01  -5.1652214e-01   2.8157457e-01   5.7935125e-01   6.1001306e-01   7.5720696e-01   6.9365513e-01   9.1371988e-02   8.8376896e-01   1.2521606e-01   8.5916050e-01  -9.3260723e-01   5.7424300e-01  -2.0909692e-01   7.5556847e-01   9.9954603e-01   5.7313128e-01   4.6589535e-01  -8.5961956e-01   1.7265932e-01   8.6397530e-01  -6.1284315e-01   2.5379092e-01   9.5389357e-02   9.0233579e-01   3.5942688e-01   2.7387192e-01  -6.5240993e-01   1.6342092e-01  -3.8957317e-01  -5.2049336e-01  -5.1229877e-01  -3.6603820e-01   1.3241154e-01  -9.7103945e-01   1.1968729e-02   4.6175478e-01   5.5945144e-01  -1.2719957e-01  -4.1369277e-01  -1.0769651e-01   8.9616825e-01  -7.6573939e-01   9.5590406e-01   4.1306107e-01  -7.5658314e-01   2.7048016e-01  -9.4015902e-01  -8.4998345e-01   3.3850212e-01  -2.1452898e-01   6.2216401e-01   6.9375631e-01   4.2392995e-01  -8.9443201e-01   7.6443195e-01  -9.0680249e-01   1.5723124e-01   8.9719688e-01   8.3601102e-02  -5.1856970e-01   7.7690565e-01   2.7082656e-01  -8.8168847e-01  -6.8277830e-01   6.9022989e-01  -9.7274646e-02   1.7242795e-01   6.4953498e-01  -5.8876264e-01  -4.5205653e-01   7.6546603e-01  -4.4379963e-01  -3.1368096e-01   3.7030330e-01  -1.0627029e-01   2.3911956e-01   8.5930410e-01  -3.3829384e-01   5.1637672e-01   8.4037080e-01  -3.7240917e-01   6.3381877e-01  -1.2094567e-01   3.3548390e-01  -4.3010027e-02  -7.5760447e-01   2.8001693e-01  -4.7803559e-01  -6.1612730e-01  -4.3259008e-01   4.4237389e-01   3.8784216e-01  -5.1148633e-01   2.8145859e-01  -3.2299651e-01  -3.2876623e-01   6.6330866e-01  -5.8662637e-01  -2.2288170e-03   9.7571099e-01  -3.9179134e-01   8.8480290e-01  -9.0988764e-01   5.7235828e-01  -1.7608242e-02  -4.5320503e-02   4.8447584e-01  -6.6717079e-01  -6.7219156e-01  -1.6609045e-01   5.3911604e-01   4.1233471e-01   6.7498386e-01   1.7062484e-01   5.1629003e-01  -8.2427985e-01  -2.4446519e-02   8.0698694e-01  -8.6149207e-02  -3.3455358e-01  -4.1861078e-01  -8.3595982e-01   8.1469438e-01   9.0058409e-02  -7.6065984e-01   1.0877386e-01  -6.7946887e-01  -9.5924873e-01   7.6058090e-01   8.1736201e-02   5.5527040e-01  -2.9306236e-01   9.1892235e-03   1.5425993e-01  -6.6170872e-01   7.3887781e-01   3.4965318e-01   6.6961891e-01   4.2469144e-01  -3.0311728e-01  -6.5762479e-02  -8.0945973e-03   7.8055505e-01   3.9388623e-01  -7.4732753e-01  -4.9275305e-01   9.6649102e-01   8.5205465e-01   8.9201120e-01   7.0775494e-01  -7.8858136e-01  -6.0456220e-02  -2.6207430e-01  -6.7131655e-01   9.4383557e-02  -6.9440029e-01   2.4889755e-01  -7.7164449e-01  -7.8722889e-01   4.4481976e-01   6.3874026e-01   9.8465088e-01   3.4456516e-01  -6.2559932e-01  -6.4838384e-01  -9.4292492e-02  -9.6287746e-01  -9.8888027e-01  -2.2206657e-01  -4.4421931e-01   4.7252467e-02   8.4543055e-01  -5.8591740e-01   5.3119419e-01   5.5335645e-01   8.2132863e-01   2.5643153e-01   2.6092652e-01  -5.8391591e-01   9.3024447e-02   7.6504059e-01   5.1519210e-01  -9.0153306e-01  -8.0443256e-01  -7.3547774e-01  -4.8966685e-01   6.9309255e-02   5.1541832e-01   5.4169402e-01   2.0999774e-01  -7.1422867e-01  -4.6279659e-01  -4.6443913e-01
