  -5.7099916e-01  -4.7900713e-01  -5.0386180e-01   3.1643850e-01  -9.3862971e-01   2.1221859e-01   9.1230387e-01   6.1442294e-01  -6.1359861e-01  -4.2265405e-01  -7.9712500e-01   5.3638012e-01   7.7600926e-01  -3.0462130e-01  -2.3714713e-01  -4.2901412e-01   5.2281343e-03   3.4219172e-01  -1.1416811e-01  -9.1002541e-01  -3.3444671e-01  -7.5233676e-01  -1.9635026e-01   1.3483972e-01   2.4800482e-01  -6.0581896e-01  -8.6585958e-01   2.2503940e-01   5.1776444e-01  -8.7118586e-01   5.9308798e-02  -8.0685730e-01   8.0190345e-02  -2.2159873e-01   6.0605372e-01   3.6817079e-01   9.6272083e-03   6.7968007e-01  -1.5140600e-02  -9.9122478e-01   5.3526456e-01  -7.3978432e-02   2.8172198e-01   6.6407612e-01   5.5291452e-01   5.7436698e-01  -1.8916386e-01   8.6916656e-02   5.2620196e-01  -2.1600744e-01  -8.3659943e-01   5.0161737e-01  -5.9059387e-01  -9.8729228e-01   5.3568886e-01  -5.7753139e-01   2.1296168e-01   5.8318002e-01   9.0134227e-01  -8.1436986e-01   7.2748282e-02  -7.9347313e-01  -9.0026913e-01   2.6869365e-01   8.6299177e-01  -2.5227313e-01  -1.4946688e-01   5.1019868e-01   6.1674005e-01   2.1499026e-01  -8.4511589e-01  -3.9380124e-01  -4.1994464e-01  -5.7057415e-01  -4.4030476e-01   1.4237787e-01  -9.9783059e-01  -6.4231845e-01   7.9183421e-01   5.3181482e-01   9.0172482e-01  -6.8876335e-01  -9.4438429e-02   6.4493236e-01  -5.8710144e-01  -7.7046900e-01   5.0172937e-01  -2.3453775e-01  -3.2140917e-01   6.0020406e-01  -1.2615755e-01   4.0948351e-01   5.0871101e-01  -3.3101182e-01   6.4565295e-01  -1.4652085e-01   3.8608490e-01  -3.7014673e-01  -8.3716457e-01  -1.0834587e-01  -6.0995944e-01  -7.3569989e-01  -8.0763277e-01  -5.8670279e-02   5.1567537e-01   8.1437503e-03   1.7293264e-01   1.5418545e-01   8.7234073e-01  -6.4410438e-01  -7.2251081e-01   7.3547484e-01   3.6973693e-01  -2.2085920e-01  -6.8835726e-01   2.9899133e-01   5.9885556e-01  -3.2885469e-01   1.9964297e-01  -7.2381632e-01  -6.7890061e-04   5.5860646e-01   6.3100037e-01   1.5998532e-01  -6.7636758e-01  -1.0189380e-01   3.2491934e-01   6.0778639e-01  -4.2273995e-01   6.8614496e-01   2.8549610e-01  -7.5717226e-03  -8.3154901e-01  -5.2141483e-01  -5.2738069e-01  -4.5179079e-01   7.0742762e-01   2.1121512e-01   5.7309565e-01   4.1705880e-01  -2.5935204e-01   7.0794732e-01   1.2706489e-01  -1.0350407e-02   8.5943240e-01  -7.1014991e-01   7.7344452e-01   9.2677464e-01  -8.7558828e-01  -8.4437385e-01  -4.5635940e-01  -8.0476209e-01   6.7926987e-01  -8.2413670e-01   9.4810830e-01   8.8975597e-01   4.0617179e-01  -2.8740983e-01  -3.4988002e-01  -6.6497350e-01   4.4520130e-01   6.9113135e-01  -4.2701893e-02   4.3108991e-01   8.6805808e-02  -3.7726202e-01   4.7913900e-01  -5.8919403e-01  -6.1833199e-01  -6.6678843e-02  -9.6881521e-01   2.8687469e-01   2.2506179e-01  -8.1296830e-01   8.8786057e-01  -7.4108531e-01  -5.7121907e-01  -6.7467730e-02  -4.3076226e-02   2.6604969e-01  -4.5843636e-01  -6.4213811e-01  -4.9474975e-01  -5.8624569e-01  -9.0002438e-01  -9.0489397e-01   4.8064643e-01  -5.7861853e-01   3.3361496e-01  -7.5905987e-01   3.8206248e-01   3.2704087e-01  -6.6833100e-02   3.9924377e-02  -7.4602295e-01  -4.2412380e-01   9.6029364e-01  -7.6896524e-01   9.0520871e-01   4.7430927e-02  -3.4250732e-01   9.1037628e-01   4.6280032e-01   4.1424845e-01  -9.5372734e-01   6.5014148e-01   2.3313328e-01  -3.7645428e-01   5.7258304e-01   3.1593262e-02  -9.8330548e-01  -7.4955396e-01  -1.3930876e-01   8.4744051e-01   6.4219404e-01  -4.4756930e-01  -2.1141179e-02  -4.2666053e-01   5.3997259e-01   5.0165490e-01   7.9235822e-01   1.2615784e-01   2.4279082e-01   5.3900831e-01   9.2284975e-01  -8.5609242e-01   2.2858528e-01   7.6880978e-01  -7.1991266e-01   3.6095226e-01   4.7421198e-01  -3.0943770e-01   2.5273014e-01  -1.6152349e-01   4.9715706e-01  -6.7326178e-01   9.4394198e-01   1.6071237e-01  -8.5611615e-01   9.9288133e-02  -4.1440742e-01  -3.6155657e-01   2.0287185e-01   8.3620522e-01   5.1487515e-01   4.3454755e-01  -2.1015987e-01  -1.0840766e-01   9.5662059e-01   7.1596338e-01  -8.4152858e-01  -4.3455694e-01   2.4873526e-01   7.1055949e-01  -3.6651438e-01   9.0894727e-01  -5.3754488e-02   4.8915055e-01  -4.0476434e-01   2.1102097e-01  -6.4956912e-01   6.3743743e-01  -4.7219822e-01  -5.6654013e-01  -3.6670590e-01  -5.3739936e-01   8.8363441e-01  -3.8476005e-01   5.7944138e-01  -2.5553850e-01   4.8763222e-01   6.0093460e-01   5.6196800e-02  -5.3571381e-01   6.1051901e-01   9.1001975e-01   1.3903434e-01  -4.0046293e-01   3.7441505e-01   2.1864647e-01  -8.1906024e-01   7.6914826e-01  -1.9451327e-01   4.1776561e-01   5.4952215e-01   3.1528034e-02   7.8257238e-01  -4.7081286e-01   8.7244573e-01   8.0799929e-01   1.4844825e-01  -7.0981310e-01   8.8911974e-01  -8.9767550e-01   1.8649443e-01  -6.3453162e-01   7.4929880e-02  -8.5216257e-01   5.6978642e-01  -9.6635024e-02  -6.7187798e-01   6.7182581e-01  -7.2132141e-01   3.8212217e-01   6.3374891e-01  -8.4886586e-01  -9.8806357e-01   7.6770745e-01   3.9041552e-01  -7.6109269e-01   2.7195556e-01  -2.4777049e-01   6.0148223e-01   6.0343142e-01   7.3030272e-01  -1.4791706e-01   6.1627665e-01   2.4518474e-01  -6.4522689e-02  -6.6693055e-01  -5.9868582e-01   6.9744593e-01   7.4180975e-01  -7.6746937e-01  -9.0364705e-01   7.5866815e-01   1.1370305e-01   4.8927951e-01   7.0950416e-01   4.7974043e-01  -5.5005542e-01   6.1214153e-01  -6.4018234e-01   1.4733148e-01  -5.8648878e-01   7.2139639e-01  -2.1944534e-02   3.4181827e-01  -4.1679051e-01  -5.3727122e-01   6.3015970e-02  -3.2005379e-01   8.7155937e-01   8.2555515e-02   8.9879026e-01  -4.1338491e-01   5.4729043e-01  -6.7147287e-01   2.9774495e-01   4.4154128e-02   8.3950953e-01  -5.4111292e-01  -9.3212920e-01   9.6809589e-01   1.5729977e-01   3.6775714e-01   8.2028959e-01  -6.2950897e-01   5.3970753e-01  -5.8937354e-01  -2.6242319e-01  -2.4754583e-01   1.8153498e-01  -4.9451140e-01  -4.6386347e-01  -3.2518796e-01  -8.7125296e-03  -5.6083120e-02  -1.6696125e-01  -6.2987868e-01   8.3688919e-01   9.6937436e-01  -3.2022651e-02  -4.7606265e-01  -7.5243283e-01   9.7705440e-01   2.3829987e-01  -2.2986855e-01  -3.9207104e-01  -9.6487242e-01   7.0200711e-01  -7.3178729e-01  -9.1849399e-02   2.7180075e-01  -1.2434838e-01  -1.1125438e-01   2.6780607e-01   1.5172185e-01  -9.8809879e-01   2.1075067e-01  -9.6498794e-01  -8.6615309e-01  -3.3752857e-01   3.0371786e-01  -5.3753652e-01   6.9314480e-01   9.9389471e-02   4.8750574e-03   7.1385911e-01  -5.5872192e-01   9.6946547e-01   2.2619224e-01  -6.8348186e-01  -4.1739413e-02  -5.2941489e-01   3.0884281e-01  -9.2223079e-01  -2.9594751e-01  -7.9971949e-01  -8.1040758e-01   5.9809958e-01   9.1955792e-01   7.1027880e-01   8.4989001e-01   9.5815401e-01   8.9907043e-01  -1.3343164e-01   6.5294215e-01  -7.4943902e-01  -8.5785221e-01  -6.5642767e-01   7.1216154e-01  -3.9190323e-01   1.2455146e-01   8.2847712e-01  -8.4742927e-02  -5.8492185e-01  -7.0830723e-01   7.4511874e-01   9.6683563e-01   6.4085897e-01  -6.2475404e-01  -6.7513527e-01  -3.8488361e-01  -1.5985602e-02  -2.2217034e-01   8.2724975e-01  -4.8721550e-01  -6.5484890e-01  -6.1320192e-01  -4.2944364e-01   7.8436367e-01  -5.6253139e-01   3.2378449e-02   3.9893027e-01   4.3278681e-01   3.0033524e-01  -2.3202974e-01   6.7257434e-01  -1.4603700e-01  -5.3129668e-01  -9.5144319e-01  -6.9403910e-01   7.7323382e-01  -1.2888845e-01   4.2478890e-01  -3.8410472e-01   6.9312721e-01  -7.6480691e-01  -6.1333842e-02   6.2540610e-01  -4.2113227e-01   7.9720556e-01   2.9600228e-01  -9.7251364e-02  -2.9369325e-01   7.2209353e-02   9.8646756e-01   7.5359373e-01   7.0549626e-01  -8.4269517e-01   5.0254358e-01  -4.3983027e-02  -9.7673535e-02   5.3448386e-01   1.5489199e-01  -4.7936880e-01  -5.5112741e-02   6.3166789e-01   3.6102595e-01  -4.7021738e-01   7.3177843e-01   2.5262773e-01  -4.0850374e-01   4.0892343e-01   3.6456707e-01   7.1951165e-01   8.4036632e-01   9.3139223e-01   4.2412406e-01   6.9376333e-01  -5.3581526e-01  -8.8990065e-01   2.4847793e-01   2.7971365e-01  -1.7859527e-01  -8.5634312e-01  -1.0470237e-01  -6.4092171e-03   9.1788486e-01  -8.4139271e-02  -2.4640052e-01   7.3787584e-01  -9.0124566e-01   6.5104225e-01  -8.2634107e-01   4.8021190e-01  -2.3233393e-01  -4.1280881e-02   5.8677815e-01  -4.5901924e-01  -8.3520647e-01   9.1352065e-01   7.6357531e-01  -4.1509512e-01   2.1127530e-01   8.6161931e-01  -2.3441542e-01  -2.7119266e-01   8.7168359e-01  -5.9405458e-01  -1.5669782e-01   3.3221630e-01   6.5920985e-01   9.8726290e-01   5.4908940e-01   9.0480410e-01  -9.9430857e-01   5.2726335e-01  -9.1299586e-01  -3.5502415e-01   9.8971021e-01   2.9590204e-01   1.3642830e-01  -6.3562565e-01  -7.4801331e-01  -6.6619236e-01  -1.2829984e-01   2.5299249e-01   3.5042326e-01  -8.9560984e-01   6.6514358e-01  -2.7294948e-01   8.1920044e-01   5.8727741e-01   3.5705260e-01  -8.7774501e-01   1.1153016e-01   2.3805172e-01  -7.8297335e-01  -7.6586106e-01  -5.4331186e-01  -2.8920363e-01  -7.1460386e-01  -4.2754150e-02   8.0480649e-01  -1.8580145e-01  -2.7334824e-02  -9.5865604e-01  -4.1118405e-01   2.9071585e-01  -2.1508953e-01  -1.2804669e-01  -8.0471990e-01  -7.5242947e-01  -7.6179931e-01  -2.0022601e-01   2.1331927e-01   7.3320355e-02   2.5264521e-01  -5.1873809e-01   2.7472827e-01   5.2707942e-01   4.5642252e-01  -5.1963321e-01   2.5979742e-01   9.7092681e-01  -4.5064167e-01   5.1239476e-01   3.7163061e-01  -8.8007454e-01   9.5763066e-02  -2.5629628e-01  -1.4205532e-01  -7.4225325e-01   4.7313204e-01   6.3753995e-01  -9.3155867e-01  -3.5618821e-01  -7.5451521e-01   2.6841466e-02   2.2212155e-01   1.9338050e-02  -5.9159304e-01   2.3098169e-01   3.0569232e-01  -4.5365529e-02   1.5295566e-01  -7.4438475e-01  -7.5854497e-01   4.9389948e-01  -4.5243839e-01  -2.4699934e-01  -9.4757742e-01   2.3041754e-01   6.9718626e-02  -2.1320583e-01  -2.0069620e-01   8.3551849e-01  -3.5765844e-01   9.2063563e-01   3.1373741e-01   7.6990538e-01  -6.4303891e-01  -9.7267977e-01  -7.2129278e-01  -5.1388427e-01  -4.1711607e-01   2.7926216e-01  -6.3544579e-01  -2.1379484e-01  -7.3261940e-01  -4.6751128e-01  -8.2802775e-01  -7.8394053e-01  -8.7659738e-02  -4.4392183e-01  -5.4978840e-01   5.4541851e-02   9.7456430e-01  -8.9332189e-01   7.1120742e-01   5.7152231e-01  -7.8434291e-01   5.9810505e-01  -4.3311318e-01   6.6611098e-01  -3.9497918e-01   5.7338978e-01  -4.0321144e-01   6.7200102e-01  -2.8955558e-01  -7.3698426e-01  -6.9193432e-01  -9.9731924e-01   9.1242762e-01  -1.8368922e-01  -7.9581606e-01  -2.7075921e-01  -6.6244161e-02   8.6994108e-01  -8.2842504e-01  -8.3150944e-01  -3.7899133e-01   9.1445993e-01   4.4024056e-01   7.2196443e-01  -1.7074030e-01  -7.7160881e-01  -9.9665121e-01  -6.8226265e-01  -1.6475206e-01  -6.1820963e-01   9.2912854e-01  -4.0622510e-02   6.4537536e-01   9.7816545e-02   6.9443570e-01  -9.4996183e-01   3.6520989e-02  -7.3923865e-01  -4.2498873e-01  -4.0042967e-01   9.2980081e-01  -6.6708704e-01   2.3738611e-01   8.0284053e-01   1.8575398e-01   4.6692282e-01   9.0138957e-01   4.6921250e-01   9.4862473e-01  -7.6564308e-01   9.7892048e-02   3.0903048e-01  -2.4554352e-01   5.5012256e-01   2.0901711e-01  -1.2401993e-01  -4.8515039e-01   3.5213561e-01   3.6277898e-01   8.3868879e-01   8.2376976e-01  -7.3234786e-01   8.7337953e-01  -1.0394401e-01  -5.5650869e-01  -5.3791008e-01   2.7339548e-01   3.6380438e-01  -1.7140085e-01   7.8746611e-01  -5.3519842e-01  -2.3094248e-01   2.1441544e-01   8.6043479e-01  -8.4814973e-01   2.5283038e-01   9.3768968e-01   8.8504753e-01   2.5263933e-01   7.0026969e-01  -9.9985680e-01   8.8591259e-01   5.1592746e-01  -7.1513068e-01   4.0010137e-01   9.1722744e-01  -8.8982469e-01  -1.7789301e-01  -9.4110575e-01   7.0722940e-01  -5.0999288e-02  -8.9193733e-01  -5.0912697e-01  -1.8492410e-01  -1.4805173e-01   9.6265635e-01  -8.0531631e-01   9.8395073e-01  -4.5799152e-01   6.8154542e-01  -4.6339482e-01  -3.8563073e-01  -7.9859200e-02  -6.3248692e-01   7.9945613e-01  -2.1285540e-01  -7.8931708e-01   9.1984079e-01   3.0056538e-01   4.2331580e-01  -8.3119227e-01   2.0583751e-01   5.9045567e-01   4.8306039e-01  -3.2775357e-01   5.6074217e-01  -4.2864638e-01  -7.2337102e-01   6.7236050e-01  -1.6487320e-01  -3.6637560e-01   9.0885311e-01  -3.8174051e-01  -5.3492755e-02   4.0693787e-01   5.1269166e-01   5.9960161e-01  -3.5149955e-01   2.0635490e-01  -2.8743102e-01  -1.3472688e-01  -9.5000697e-01  -5.2972963e-01  -9.5072398e-01   6.6043835e-01  -5.1679631e-01   9.6806797e-01   8.2713221e-01   6.6595914e-01  -2.5727114e-01  -4.2958984e-01   3.1845704e-01  -7.6429041e-01  -4.2895007e-01   4.4803029e-01  -2.5535945e-01  -7.5857954e-01   6.4825141e-01   6.6085768e-01   1.3035976e-01   2.0074980e-01   8.7327924e-01  -5.6865205e-01   1.6093369e-01   6.6248972e-01  -6.2799519e-01  -7.2024565e-01   8.0228310e-01   9.3215879e-01  -3.7004051e-01  -3.7813291e-01  -8.6260742e-01   5.7934317e-01   9.0226091e-01  -8.2806444e-01   3.7802749e-01   7.7468530e-02  -7.3883659e-01   2.4057125e-01  -7.5078446e-01  -6.4526575e-01   8.1380649e-01  -1.3271386e-01   3.8991562e-01   9.5524291e-01  -5.1222349e-01  -9.2030591e-01   6.5664829e-01  -2.0114415e-01  -4.9314372e-01  -6.7297045e-01   1.3075335e-01   9.2827201e-01  -9.9924975e-01  -3.9768971e-01  -7.0381550e-01   1.1691197e-01   9.7663544e-01   2.8113544e-02   5.2324590e-02   5.9212056e-01  -1.0398742e-01  -4.1438313e-01  -3.3377254e-01   3.2186418e-01  -7.2460550e-01  -4.1666347e-01  -7.6667419e-01   1.8669909e-01  -8.8984981e-01  -6.1330639e-01   7.2710004e-01   2.0226799e-01   3.8189225e-01  -8.3488754e-01   9.8512674e-01   1.0688593e-01  -8.1357110e-01  -9.6055368e-01  -4.2638405e-01   3.2584295e-01   7.3835010e-02   6.2917400e-01   7.9345756e-01  -5.3004647e-01   4.1082380e-01  -5.3513495e-01  -2.1456085e-01  -7.3689506e-01   2.7072137e-01  -4.7410990e-01  -9.6722800e-01   6.5923733e-01   7.4604174e-01   7.3444296e-01   2.5106929e-01   1.6470427e-01   7.3884067e-01  -3.0417541e-01   7.7217172e-01  -1.4365824e-01   4.1895604e-01  -2.9754198e-03   5.4328229e-01  -6.7019716e-01  -2.9787292e-01   1.3690565e-01  -2.9336155e-01  -2.5832752e-01   5.9353613e-01   5.2633117e-01  -2.9492982e-02  -6.4355831e-01  -9.2365377e-01  -1.6490480e-01   3.7702989e-01   6.0587191e-01   4.7572401e-01  -8.8251654e-01   5.3665103e-01  -3.6094872e-02   6.5370711e-01  -9.3744353e-01  -8.2102288e-01  -4.1651578e-01  -1.7877742e-01   7.0108155e-01   2.0173608e-01  -9.9734524e-01  -1.4463342e-01   1.1020672e-01   8.7105503e-01  -6.4449838e-01   5.5459234e-01   8.2632011e-01   6.0180843e-01   6.4038459e-01   9.9136525e-01  -6.8730396e-01   3.7478454e-01   7.6720123e-01  -4.7409506e-01  -7.7480957e-01   6.2548381e-01  -4.0534045e-01   4.1724984e-01  -4.5012556e-01  -1.1103284e-01  -9.2324535e-01  -2.8026643e-01  -2.4306265e-02   4.5732888e-01   9.2092672e-01  -4.5742522e-01  -7.4520211e-01  -3.2471258e-01  -1.4234054e-01  -4.8666989e-01  -4.2883243e-01  -9.6523170e-01  -2.4289902e-01  -7.6571535e-01   9.3930202e-01   8.2834371e-01   9.6790060e-01  -3.9074682e-01  -3.2697796e-03   3.7423522e-01  -8.6959477e-01   2.1755925e-01  -3.1811655e-01   1.5183254e-01  -3.0175305e-01  -1.6439694e-01   3.8926909e-01   3.5977874e-01  -7.1812468e-01   1.0762258e-01  -6.0096738e-03   1.4223979e-01   2.2301943e-01   7.5268925e-01   4.4605308e-02  -2.2853874e-01  -4.9435467e-01   7.4124522e-01   1.9973414e-01   2.4131658e-02  -7.5732174e-01  -6.7997969e-01  -8.0442647e-01  -2.2951122e-01   8.2743875e-01  -6.9799096e-01   5.5492137e-01  -4.8389197e-01   9.9950544e-01  -9.8633797e-01  -2.9602135e-01  -1.5466288e-02   2.6242636e-01   5.6672985e-01   5.2458702e-01  -6.0881024e-01   8.0162431e-01   2.3820186e-02   1.8720868e-01  -9.4347030e-01   1.1791806e-01  -5.0553526e-01   7.4437813e-01   2.8515868e-01  -1.0742299e-01   7.5280109e-02  -2.3399544e-01   2.0510575e-01  -4.1762096e-01  -9.5689996e-01  -8.6370005e-01  -3.1885186e-01   2.6211732e-01   3.9329478e-01  -9.4765169e-01   5.1345274e-02   4.7704512e-02   9.8140725e-01   9.4360694e-01  -2.5669852e-01   1.4176793e-01  -1.2250742e-01   5.0342925e-01   9.7835655e-01  -9.2730577e-01  -7.0491340e-01  -9.1805415e-01  -6.8579693e-01  -1.6929607e-01
  -9.6048159e-02   2.0938882e-01  -7.0425881e-01  -9.7840838e-01  -7.9665152e-01  -5.6886955e-01   3.8459731e-01  -7.6265164e-01   9.1326723e-01   3.6616481e-01  -1.5540490e-01  -7.2312388e-01   9.1664945e-01   1.5244264e-02  -6.7922513e-01  -4.2006413e-01   6.8186944e-01  -2.9849721e-01  -7.3799688e-01  -2.8963069e-01  -5.8119089e-01   1.4310863e-01  -8.7080421e-01  -6.3270895e-01  -8.7014945e-01   8.3357740e-01  -3.7222702e-01   4.3247071e-02  -8.6586595e-01   2.8495381e-01  -8.6581225e-01  -7.2494338e-01   4.4923079e-01   9.4792587e-01  -7.1730247e-01  -1.6783802e-01   7.9062164e-01  -1.6448340e-02   1.8299021e-01  -1.9782115e-01  -6.6906361e-01  -2.9455197e-01   6.8582842e-01   6.2712973e-01  -4.6678010e-01   8.8320893e-01   2.7744758e-01  -9.0759008e-02   8.3569470e-01   7.4684427e-01   9.4244365e-01  -7.0654176e-02   7.8125703e-01   3.5843133e-01   3.4794221e-01  -4.4647537e-01  -4.9101081e-01   5.9313717e-01   3.5769850e-01  -6.7664185e-02   3.2368323e-01   2.6355345e-01   3.4100879e-01   1.2706913e-01   1.2940656e-01  -1.1375436e-01   6.2193415e-01  -8.6371369e-01  -8.4222147e-01  -6.6078927e-01  -2.3153414e-01   3.1100976e-01  -6.3233887e-02   1.7437001e-03  -5.0067386e-01   1.8022583e-01   4.4533452e-01  -6.5641321e-01   3.6912747e-01   2.1255033e-01   7.0067841e-01   3.7357003e-01   2.0987629e-01   2.2307232e-01   7.6613025e-01   5.9024039e-01   7.4803785e-01  -6.7696496e-01  -4.3582838e-01  -7.5297392e-01  -5.6489638e-01   9.5224253e-01   6.5193218e-01   9.3107493e-01   7.6945218e-01  -4.2923372e-01   4.2256812e-01   6.7477806e-01  -7.6292547e-01   4.5341104e-01   9.4271457e-01   4.8030243e-01  -5.7063264e-01  -6.1770092e-01   6.9165969e-01  -6.1045620e-01  -9.2558680e-01  -6.0448718e-01  -1.6018036e-01  -1.3867653e-01   9.5407632e-01   5.2903419e-01  -6.9646118e-01   3.8510193e-01  -3.9586467e-01  -8.9101885e-01   9.3024156e-01  -7.3824062e-01  -9.2487604e-01  -3.0440821e-01  -8.5581241e-01   2.3975817e-02  -8.3545149e-02  -6.4918883e-01  -6.5511674e-01   8.5780872e-01   6.1763920e-01   8.6676582e-01   8.4841360e-01  -7.6663416e-01  -7.4133077e-01   2.0340514e-01   7.5001158e-01  -8.9414343e-01   3.2883161e-01   2.5862697e-01  -3.5500570e-01   4.3974396e-01  -3.7322988e-01  -8.4243757e-01   1.5031749e-01   9.9527161e-02  -5.8839228e-01  -9.2237824e-01   1.6457386e-01   5.6859231e-01   3.6694358e-01   6.7468914e-01  -7.6067552e-02   1.6680857e-01   3.1278260e-01   9.5472979e-01   8.5743520e-02  -2.8133738e-01  -5.3280979e-01   8.6310453e-02  -2.5104844e-01  -5.8198075e-01   9.7581854e-01  -1.7582039e-01  -5.2120842e-01   9.9769676e-01  -3.4464410e-01  -4.2259064e-01   2.1960674e-02  -3.0065221e-01  -9.1391010e-03   6.6152582e-01   5.0378968e-01  -3.2267545e-02   3.6137473e-01   2.2235465e-01   8.0647759e-01   1.2079436e-01  -8.0230284e-01  -5.1076006e-01  -5.4950080e-01   8.1972317e-01  -8.9397607e-01  -3.7744434e-02  -2.6608266e-01  -2.9776376e-01   2.0102271e-01  -3.0502714e-01  -8.7473587e-01   7.1317147e-01   9.8272464e-01   2.7907983e-01   3.0573245e-01   9.1898585e-01   8.9503137e-01  -1.5827498e-01   5.7578497e-01  -7.8882305e-01   2.8136418e-01   6.5052904e-01  -7.0651843e-01  -1.0287840e-01  -9.0992641e-01  -5.6083418e-01  -1.0682963e-01  -8.9716702e-03  -7.0474817e-01   9.6173733e-01   5.2278383e-01  -1.1779559e-01   3.1720553e-01   7.0397199e-01   7.0691914e-01   7.0746007e-01  -1.5941226e-01  -6.2110665e-01   7.1360523e-01   6.2342143e-01   3.7503764e-01  -6.5414524e-01  -6.1777791e-01   6.7143190e-02  -7.9014874e-01  -8.7568208e-01   3.5972900e-01  -2.4472005e-01   9.0190667e-01   6.3332304e-01   4.3428817e-01   4.0407203e-01   9.9221672e-01   9.1817296e-01  -7.8026676e-01  -4.9022819e-01   9.8529300e-01  -4.8540131e-01   4.1411721e-02  -8.6850845e-01   6.4694813e-01   2.0512770e-01   5.9095146e-01  -8.7190821e-01   6.9028056e-01  -4.7896124e-01  -1.9549102e-01   3.5228298e-01  -1.1204427e-01  -4.5071918e-01   6.3720762e-01   5.5148691e-02  -1.3382643e-01   8.9232001e-01  -2.5643334e-01  -6.5584075e-01  -4.9314488e-01  -6.1589729e-01   8.9561620e-01   4.4051669e-01  -4.2766457e-01  -3.2191366e-02   3.2158526e-01  -9.4206421e-02   7.4899650e-01  -4.0487634e-02   9.8311388e-01   4.7937591e-01  -1.8309931e-01  -4.0861140e-01   6.6795528e-02  -8.9917421e-01  -3.3595934e-01   4.3764943e-01  -8.2642930e-02  -7.5401993e-01  -1.9815801e-01  -6.4081757e-01   1.9428995e-01   1.6469904e-01   3.4736570e-01  -9.6298934e-02   1.3800155e-01   3.5976693e-01  -6.0761810e-01   1.6943250e-01   1.8645267e-01   2.8095276e-01  -8.7926304e-01   3.6042012e-01   2.3362516e-01  -7.7007609e-01  -5.7299071e-01   4.5694815e-01  -4.7624048e-01  -9.0220878e-01   4.1093467e-01   4.2030406e-01  -4.7247368e-01   9.7343641e-01  -2.3613437e-02  -8.3621126e-01   4.3124847e-01   5.3206335e-01  -4.8835352e-01  -2.8868325e-01  -7.0948329e-01   9.0635418e-01  -7.0201735e-01   9.2643879e-01   3.8709312e-02  -3.5538259e-01  -6.5994469e-01  -9.4418033e-02   6.3958057e-01  -3.5645434e-01  -7.0359901e-01  -2.2361512e-01  -5.1912421e-01   8.2977492e-01  -9.0669373e-01  -4.7277607e-01  -5.6383714e-01  -9.2302838e-01  -6.5349758e-01   7.5790156e-01  -5.5617304e-01   6.1469676e-01   8.6720800e-01  -6.1759532e-02   5.1633912e-01  -3.2856773e-01   6.0597990e-01   7.2125919e-01  -6.3623658e-01   3.8444656e-01   4.5421054e-01  -7.4298587e-01  -1.0755031e-01  -5.4447834e-01   7.2682462e-03  -3.2143444e-01  -1.1034392e-01  -7.5201495e-01   9.6824209e-01   6.2016893e-01  -3.6058876e-01  -7.5279347e-01   1.3140111e-01  -1.4045387e-01   4.4201647e-01   2.8287789e-01  -6.9761756e-01   7.6920971e-02   6.3837411e-01   4.6658666e-01  -5.5875163e-02   9.0351330e-01  -1.7290612e-01  -4.9417526e-01  -5.0619594e-01   3.6659463e-01   5.0166523e-01   9.2963839e-01   7.0165703e-01   9.9729364e-01  -7.8394994e-01  -9.7669435e-01  -4.2574787e-01   7.6029521e-02  -4.2958649e-01  -6.4340719e-01   2.6008511e-01  -6.9074958e-02  -1.8413160e-01   6.5420188e-01   2.3186755e-01   1.7058106e-01  -1.9608016e-01  -6.9220254e-01   1.9756293e-01  -9.0987229e-02   2.6300346e-01   4.3767282e-02  -3.7073035e-01  -9.2336434e-02   9.3241473e-01   2.2395334e-01  -8.2313441e-01  -4.3119373e-01  -9.8284080e-01   6.1997496e-01   2.8598397e-01  -2.2036569e-01  -7.1943387e-01   2.2619797e-01  -9.2629133e-01   2.1757368e-01  -7.7751144e-01  -5.4920656e-01  -2.8113225e-02   7.2158063e-01  -7.4677351e-01   8.5771940e-01  -4.7051325e-01   6.6252833e-01   5.6884465e-01  -8.6481023e-01   3.5076865e-01  -5.1281945e-01   1.0204464e-01  -1.4626591e-01  -7.2267989e-01   8.8952260e-01   9.7349603e-01   3.7272637e-01   3.5002609e-01  -2.2693657e-02   6.9230535e-01  -2.6628801e-01  -6.6842819e-01   2.3469491e-01   2.0514414e-02  -8.1802430e-01   3.8699498e-01  -2.6217943e-01   9.9456345e-01  -4.9189900e-01   7.8203900e-02   4.7634975e-01  -7.3728245e-02   6.4121943e-01   8.2415182e-02   7.4616025e-02  -5.4088684e-02  -6.3373911e-01  -4.7360599e-01   8.2389299e-01  -1.0790949e-01  -5.2136850e-01   9.9523610e-01  -2.2464269e-01  -1.7033706e-01   2.0415662e-01  -4.2045454e-01  -7.8661555e-01   1.7055144e-01   6.0897434e-01  -5.0265891e-02   6.5939097e-01  -6.6781652e-01  -3.6954314e-01  -9.1179860e-01   6.3151997e-01   5.8491739e-02  -3.4981016e-01  -9.1203397e-02  -2.5746074e-01  -9.6891665e-02  -9.1961227e-01   2.1311509e-01   6.8111683e-01  -5.0090378e-01   7.6178309e-01  -2.5274674e-01  -8.9379218e-01   6.4782370e-01   2.9339408e-01   5.3329340e-01   1.3761965e-02   8.0751776e-01   1.3096153e-02   2.0170770e-01  -1.6450540e-02  -9.5965614e-01   9.1811553e-01   5.0588065e-01   3.0255668e-01   2.3078899e-01  -1.3365867e-01  -3.7240830e-01  -8.5528251e-01  -8.7044380e-01   9.8173419e-01   1.3584066e-01  -7.3786672e-01   1.9630712e-02   4.7954804e-02  -4.1796353e-01  -9.2933159e-01  -9.0637235e-01  -3.8735411e-01  -9.9041375e-01   7.7151416e-01  -7.7434280e-01   4.8505123e-01   6.4891633e-01  -7.7038206e-02  -5.2439027e-02  -2.7798983e-01  -9.8737652e-01   2.4835787e-01   9.3455754e-01   1.2333672e-01  -1.4722280e-01  -2.8403665e-01   1.6821583e-01  -1.2477747e-02  -1.5198717e-01  -1.5051775e-01  -9.7424066e-01  -3.6170755e-01   5.5061758e-01  -5.4429523e-01  -4.4483539e-01  -2.5855958e-01  -1.6278752e-01  -1.4738620e-01   8.2810302e-01  -4.9663463e-02   6.1786662e-01   3.4557622e-02  -3.9692916e-02   3.3229890e-01   5.4617455e-01   1.7638022e-01  -6.9459751e-01   8.9706571e-01  -7.1827401e-01  -7.0278120e-01   1.5082592e-01   4.1024463e-01   1.3281800e-01   3.1284518e-02  -5.3067087e-01  -3.1306647e-01   7.9754749e-01  -3.1268452e-01   8.9903651e-01  -5.0253838e-01   6.3455637e-01   9.3403649e-01   4.0682450e-01   7.7315754e-01   1.1839307e-01   7.8720458e-01   8.8040006e-01  -2.1687465e-03   6.0867096e-02   1.8796276e-01   4.1129329e-04   3.2765529e-01   3.0704815e-01   4.2475557e-01  -4.1397426e-01  -4.2531787e-01   6.4490403e-01  -4.7663313e-01  -6.4085028e-02  -8.5926590e-01   1.6101239e-01  -5.9406408e-01  -1.4999151e-01  -9.8805627e-01   5.0108334e-01   5.4071846e-01  -9.4549029e-01   4.1192211e-02  -7.7100680e-01   8.7464933e-01  -8.3208871e-01  -8.4548245e-01  -7.9695535e-01  -1.8094879e-01  -8.8569450e-01  -3.7076582e-01  -9.1071627e-01  -7.5635510e-01   5.9020719e-01   7.3396696e-01  -7.0792663e-01   6.1745263e-01   7.4238616e-01   6.2358673e-02   7.5800657e-01  -7.5580950e-01   3.6791990e-01   5.4575360e-01   5.9130995e-01  -8.7069953e-01   4.0144771e-01  -5.0021230e-01  -5.5752898e-01  -1.5838885e-01  -7.9732194e-01   3.9422812e-01  -6.2665966e-01   1.1174668e-01  -5.7283122e-01   3.2807405e-02  -9.0561923e-01   9.0424835e-01  -3.2663081e-01  -8.5551833e-01   2.7667524e-01  -9.8373915e-01   1.9050143e-01  -2.9450079e-01   7.0500181e-01   1.6513578e-01   9.7461173e-01  -5.0690674e-01  -5.2817938e-01  -4.5028634e-01  -3.7870254e-01   6.4761256e-01   2.8272590e-01  -9.2713190e-01  -3.1852114e-01   5.0833321e-01   7.6199475e-01   5.1663520e-01   2.9617771e-02  -1.7309016e-01   5.1314150e-01   8.8162026e-01  -3.3670982e-01  -6.6879374e-01  -3.6761058e-01  -1.7905820e-01   2.8710284e-01   2.9930992e-01  -9.5637923e-01   7.8849484e-01   6.2837578e-01  -1.5228015e-01   3.3161397e-01  -5.7436976e-01  -7.8525122e-01  -4.2885928e-01  -9.2268454e-01  -6.3166707e-01  -9.8188909e-01  -4.4519952e-01  -4.0394127e-01   7.6916232e-01  -7.5255729e-02  -9.0939610e-01  -7.4211381e-01  -9.4030467e-01  -5.8938734e-01  -7.1793848e-01  -7.0354328e-01   7.2120609e-01  -4.9081967e-01   9.4949633e-01   5.3394378e-01  -5.6008760e-01  -4.6487584e-01  -3.4797791e-01   8.0629732e-01  -7.1549123e-01   3.5974360e-01   9.8136547e-01   1.9425200e-01  -8.7196206e-02   1.7468362e-02  -8.8725572e-01   3.3692481e-01  -7.5234850e-01   1.5961383e-01   4.7656147e-02   8.3548939e-01  -7.0274567e-01   8.1271689e-01   5.3991153e-01  -3.2068932e-01  -8.9932263e-01  -8.1058294e-01   1.1100006e-01   9.8611301e-01   8.2338974e-01   3.9293590e-01  -7.1008856e-01  -8.9321400e-01   3.2657672e-01   1.9974282e-01  -8.9018454e-01   4.6261517e-01  -5.0502111e-01  -2.9548221e-02  -5.7587900e-01  -6.0725098e-01  -3.5795700e-01  -4.9774046e-01   1.5521140e-01  -6.6060319e-01  -1.1309598e-01   9.9357285e-02  -5.6105282e-01   8.3785768e-01  -8.7954044e-01  -9.4260664e-01  -1.0832605e-01  -6.9905501e-01   9.7524258e-01  -7.5222808e-01  -2.3627759e-01   2.4918208e-01   6.6993906e-01   4.2400555e-01  -2.3215786e-01   3.1257312e-01  -4.9438563e-01   5.4596188e-01   6.8032923e-01  -7.6000891e-02   5.6734573e-01  -2.0886009e-01  -1.8782547e-01  -1.2014066e-01  -7.8813081e-01  -8.3499651e-02   6.3102235e-01   8.2449793e-01  -7.4749063e-01   3.3332173e-02   4.7867666e-01   5.2086722e-02   1.9538594e-01  -3.0117146e-01  -3.8515549e-01  -6.0443867e-02  -4.1201305e-01  -7.1977522e-01  -4.7103658e-01  -6.4914237e-01  -7.9099638e-01  -9.6981569e-01  -9.7086920e-01   5.5743013e-01  -6.3439211e-01  -2.2808735e-03  -5.2249522e-01   2.1604289e-01  -3.0400799e-01  -7.9625727e-01   2.4136457e-02  -8.9972286e-01   3.6737725e-01  -1.2704026e-01   2.1719792e-01  -9.7987625e-01  -9.3608633e-01  -7.5648328e-01  -3.0105179e-01  -5.5457528e-01   5.4876252e-01  -9.8660019e-01   7.4243716e-01  -7.9547928e-01   8.6074479e-01   2.8898364e-01  -3.3205045e-01   3.2812988e-01  -6.8306633e-01  -6.5305644e-01  -5.1056223e-01   3.3025557e-01  -8.2729195e-01  -5.7536585e-01  -2.7183813e-01   5.8965905e-01  -6.5077948e-01  -7.6992671e-01   2.1395264e-01  -8.6092327e-01  -8.6410287e-01  -5.6457181e-01  -9.6725664e-01   7.5610845e-01   5.0232867e-01   8.2390937e-01  -2.1563246e-01  -2.0898127e-01  -3.4704117e-01  -6.9229151e-01  -7.6890136e-01  -8.1790236e-01   5.0904868e-01  -2.7473893e-01  -2.4199498e-01   1.2046345e-01  -9.4847983e-01   1.5375440e-01  -6.6380513e-01  -6.7001154e-01   6.1970410e-01   6.1494617e-01  -1.4917318e-01  -3.7115358e-01  -8.6769745e-01   3.1619140e-01  -9.5262176e-01  -9.0055535e-01   7.5466620e-01  -7.9575726e-01  -4.4554225e-01  -2.0487339e-01  -3.4071287e-01   6.0717318e-01   6.2369217e-01  -9.1984363e-01   5.7825257e-02  -8.9990553e-01  -4.5579658e-01  -9.9311544e-01   6.9218225e-01   1.4710226e-02  -4.3258180e-02  -6.6165906e-01   2.5387683e-01   1.1642099e-01  -3.1685501e-01  -8.0386127e-01   3.5345314e-01   5.5004115e-01   7.1506197e-01   7.1658583e-01  -6.6726216e-01  -1.9061790e-01   7.9542008e-02   5.7293019e-01  -2.2583354e-01  -9.8474363e-02  -3.9412955e-01  -9.2339842e-01   9.4026777e-01  -2.3633982e-01  -6.0896322e-02  -8.9231606e-01   9.7492866e-01  -3.4379934e-01  -9.3932213e-01  -1.9440777e-01   3.7575517e-01   4.7488374e-01  -4.4928240e-01  -9.6989867e-01  -1.6166539e-01   1.0410030e-01  -7.5323874e-01  -5.4730284e-01   8.7397658e-01   5.0172874e-01  -9.0762869e-01  -2.6895167e-01  -1.7029976e-01   6.4299043e-01  -5.3374940e-01  -3.8712166e-02  -9.6359870e-01   4.3086529e-01   2.0641976e-01   2.3878873e-01  -6.3692036e-01   9.7179350e-01   2.7693835e-01   3.1292185e-01  -5.4557509e-01  -4.7749833e-01   4.4303385e-01   8.2410941e-01  -8.9923937e-01   9.2768581e-01  -7.3859734e-01   1.8417938e-01   6.5049569e-01   7.6991588e-01  -8.4428463e-01  -7.1131878e-01   2.3244787e-01  -1.2367262e-01   3.7252944e-01   1.0248489e-01   7.5844739e-01  -5.2218657e-01  -2.6033000e-01  -6.1187116e-01   9.9196557e-01   6.9487171e-01  -9.2580676e-01  -1.7521831e-01   3.2128925e-01   1.1700725e-01  -9.9118659e-01  -5.3864754e-01   2.5565382e-01  -9.7271446e-01  -9.3942823e-01  -1.9805870e-01   9.4477268e-01  -8.7557336e-01  -7.5793200e-02   9.2409557e-01  -8.6229764e-01   2.3096703e-01   6.0942243e-01  -9.1760142e-01  -9.9244182e-01  -9.2013554e-01   7.2797319e-01   7.2491660e-01  -1.1964240e-01   5.7096198e-01  -2.7988814e-01   9.2469981e-01   7.8503451e-01  -2.4862950e-01  -1.0264441e-01  -3.3119514e-01   4.2095066e-01   1.9964148e-01   8.7495224e-01   5.8074935e-01   5.6887856e-01  -9.8048158e-01   4.7626028e-01  -2.3306842e-01  -4.0053926e-01  -1.9773292e-01   7.6874222e-01  -2.3400275e-01  -1.7335048e-01   7.2327611e-01  -3.5549168e-01   5.7344938e-01  -3.1620005e-01   7.8837127e-01  -4.6318333e-01  -6.8200020e-01   3.0029822e-02  -8.2336865e-01   5.4196358e-01   4.7033374e-01   9.9055143e-01   8.2475600e-01   7.4711037e-01  -9.5295392e-01  -9.5627695e-01  -4.2126790e-01   9.2623741e-01  -3.3473333e-01  -9.0683444e-01   2.1810997e-01  -8.2039239e-01  -2.4917535e-02   6.9731807e-02  -4.1392328e-01  -5.3529792e-01   4.9016644e-01   5.7049162e-01  -4.2662002e-01   2.8567201e-02  -1.9064343e-01  -6.2740965e-01   8.1908706e-01   7.2938086e-01   1.6766543e-01  -8.6852935e-01   6.6299320e-01   8.5009520e-01  -4.2030173e-01   5.0424972e-01   3.7302165e-01   9.6599451e-01  -3.6548253e-01   4.8964386e-01   6.7176110e-01   5.5499221e-01  -7.6864520e-01   7.7424408e-01   3.3776665e-02  -8.7653191e-01   6.9547901e-01  -5.1658412e-01  -9.4285836e-01  -9.6943783e-01   7.4503906e-01  -4.6587092e-01  -9.1747735e-01  -9.0307705e-01   9.1217033e-01  -6.2725159e-01   4.2734874e-01   2.4810950e-01   1.7873140e-01   4.4781986e-02   1.5856740e-02  -6.2226459e-02   6.0024558e-01   3.5454181e-01  -5.3648037e-01   2.4556759e-01   9.7492303e-01  -5.2185341e-02
   5.9423344e-01   4.3691333e-02   5.4748987e-01  -7.0602721e-01   1.3653515e-01   9.4896226e-01  -4.4936100e-01  -9.1141214e-01  -4.4434367e-01   2.8116691e-01   9.6864022e-01   8.7085564e-01  -7.0150284e-01  -6.3123996e-01  -7.6876561e-01  -8.5731694e-01  -7.5244556e-01   2.8604754e-01   1.8468822e-01   1.9090157e-01  -7.2505582e-01   6.4180393e-01   9.4254127e-02  -7.9497516e-01   1.9372138e-01  -9.0753936e-02  -3.0026242e-02   3.3595081e-01  -6.4761025e-01  -4.0700787e-01  -5.7325894e-01   3.1274594e-01  -6.8267874e-01   9.7841290e-02   6.6387609e-01  -2.2009190e-01  -8.2085016e-01   6.3343922e-01   2.9337616e-01   8.8049158e-01  -2.4362648e-02  -4.1734923e-01   3.4279604e-01   3.1046022e-01   7.9412259e-01  -7.4562405e-01  -2.8592767e-01  -7.0603557e-02  -5.5691900e-01  -6.4596803e-02  -2.5034605e-01  -4.5271114e-01   5.6981020e-01   9.7894363e-01   5.1954237e-01  -9.9734327e-01  -8.2142806e-01   6.8108557e-01   8.8536273e-01  -8.0146959e-01  -6.8196710e-01   1.4678525e-02   3.5450162e-01   6.2969351e-01  -5.6466509e-01   1.4089658e-01   1.9477253e-02  -3.9920177e-01   8.2230497e-01   6.1513690e-01   7.9659004e-01  -2.1601701e-01   2.4167511e-01   6.6020164e-01   2.0334198e-01  -6.7312707e-01  -7.2385609e-01  -2.6914223e-01   9.3282694e-01  -1.8209832e-01   2.4321672e-01  -3.6471318e-01   9.7613229e-01  -9.8550250e-01  -1.5965427e-01  -5.3369165e-01   1.0669688e-01  -3.5407541e-01   4.5864512e-01   6.1511974e-01  -9.1266045e-01  -1.4483271e-02  -1.3287397e-01   6.3228738e-01  -7.3541752e-01  -9.7239226e-01   4.1206879e-01   8.2496623e-01  -1.7471146e-01  -9.6523438e-01  -2.0418836e-01  -7.3596547e-01   8.0506026e-01  -8.6269498e-01   6.9423358e-01  -5.5974685e-01   5.8369543e-01   7.0560706e-01  -5.7526214e-01   1.6473283e-01  -8.8628740e-01   3.3118585e-01  -8.3638477e-02  -9.6393521e-01   6.3660854e-01   2.2831044e-02  -1.8988963e-01   7.8256968e-02   1.3019376e-01   3.3549016e-01   8.3433599e-01  -6.0675399e-02   4.8196263e-01   2.3080439e-01   6.5876263e-01  -5.5965828e-01  -1.2348801e-01   1.4372394e-01   3.2505578e-01  -5.5163143e-01   6.7248614e-01  -9.1058398e-01   5.5077232e-02  -9.9378158e-01  -9.4910613e-01   4.4861318e-01   8.9174379e-01   5.3226780e-01   5.1475423e-01  -5.8750405e-01   5.5245983e-01  -7.7241967e-02   8.5306100e-01   5.0170528e-01  -5.0245542e-01  -2.5334675e-01  -1.1067213e-01   8.9804734e-01  -4.8889222e-01  -6.8380706e-01  -6.5148483e-01  -1.0699719e-01   4.8654666e-01   4.4062150e-01  -2.5731120e-01  -5.2959291e-01   8.1464374e-01  -4.7820190e-01   7.9689992e-01  -9.8100526e-01   8.2352278e-01   2.5678497e-01   4.3942637e-02  -9.2885979e-01  -9.6445661e-01  -5.5338041e-01  -7.2982895e-01   8.2447555e-01  -1.6334531e-01  -8.6721839e-01   5.5952339e-01   7.4520833e-01   9.3185981e-01  -7.6133362e-01  -6.4723959e-01   3.9024769e-01   4.6576584e-01  -8.8596896e-01   9.4860192e-01   6.3372074e-01   1.4992411e-01  -6.6481623e-01  -6.9702946e-01  -6.5304045e-01  -6.0429814e-02   8.9003037e-01   9.1307220e-01   3.7804772e-02   4.8599108e-01  -6.3684568e-02   9.5280149e-01  -1.5270532e-01  -9.1031574e-01   4.5347260e-01  -5.9371616e-01  -3.9999691e-01   9.9207110e-01   4.7152154e-01   6.2992329e-01   9.9029960e-01  -8.3559074e-01  -1.5402744e-01   5.9219480e-01   2.3887095e-01   8.5511587e-03  -8.6441869e-01   3.3766583e-01  -8.6614810e-01   6.1136821e-01  -5.5224862e-01  -3.1702066e-01   8.5424297e-01   7.5278358e-02   5.2398190e-01   1.9518761e-01   5.7891684e-02   6.1214813e-01   2.8749481e-01  -3.9162677e-01   4.7033995e-01   1.9886808e-01  -2.6113874e-01  -7.1056994e-01  -4.3920703e-01  -4.8585711e-02   8.6370569e-01   2.3867659e-02   7.0936916e-01  -4.7592940e-01   8.6304994e-02   5.2167014e-01  -7.5990571e-01  -1.7638942e-01  -2.2188648e-01  -5.1432298e-02   5.9808914e-01  -5.4564658e-01   5.6409762e-01   6.9246140e-01   5.7568844e-01   8.2751822e-01   8.2108224e-01  -4.7262962e-01  -8.2744449e-01   4.0905480e-01  -9.4007560e-01  -2.1904749e-01  -4.2943361e-01   8.1991294e-01  -4.3592101e-01   1.1003194e-01   2.8359388e-01  -3.0246599e-01   9.5515707e-02  -8.0911441e-01  -1.1998982e-01   7.1047448e-01  -2.0857244e-01  -8.1864107e-01   2.3906882e-01   8.2618853e-01  -9.8497377e-01  -5.5265443e-01   9.7539009e-02   3.0726997e-01  -2.6845843e-01  -7.5213945e-01   2.4902343e-01   4.2138916e-01  -1.2113811e-01   1.2278633e-01  -5.9590727e-01   5.6037627e-01  -5.6632319e-01  -7.9120406e-01   9.7624629e-01   6.0745071e-01   7.4006609e-01  -9.3952757e-01  -4.6949571e-01   7.5468196e-01   6.1990696e-01   6.4283449e-01  -9.8871628e-01  -3.3948322e-02  -7.1160727e-01  -9.8097029e-01   7.2276046e-01   4.5442391e-01  -6.3715666e-01   1.3105519e-01   3.7308106e-01   6.8455783e-01   9.3572926e-01   2.9770351e-01  -5.2342307e-01  -8.9759596e-01  -7.9123762e-01   8.4539748e-01  -8.7075818e-01  -5.1160237e-01  -5.3260263e-01   4.6392501e-02  -3.1299659e-01  -3.2578917e-01  -9.9342038e-01  -5.0006388e-01  -1.9006809e-01  -2.0240402e-01   7.0883690e-01   2.4192071e-01   5.2452558e-01   7.2038777e-01  -7.0545130e-02  -8.1493723e-01  -4.3259378e-01   9.0135416e-01   7.4084697e-01  -6.1573410e-01   6.8168754e-01   7.8932423e-01  -2.0552022e-01  -5.4370993e-01  -3.1177221e-01   4.9924655e-02  -4.7291288e-02  -1.4846600e-01  -8.9563139e-01   7.5016342e-01   9.0868917e-01   9.3362849e-01   9.8093980e-02  -7.2313827e-01   5.7967475e-01  -3.1181736e-01   6.1885294e-01  -6.6006912e-01   5.0010650e-01  -7.2712023e-02   9.6971966e-01  -4.9229097e-01   5.0966714e-01   8.3361373e-01   8.7474744e-01   4.5118212e-01  -3.9247608e-01  -5.9740587e-01   8.1346556e-02  -3.4926986e-01  -4.1437980e-01  -4.6981554e-01  -7.6609177e-01   3.1140708e-01  -9.7365024e-01  -5.3581969e-01  -7.6776435e-01  -1.3439302e-01  -9.7355825e-01  -3.6675943e-01   7.2659304e-03  -1.5628951e-01  -5.0362751e-01   5.9670223e-02  -3.5969388e-01  -3.7372236e-01   3.3631589e-01   3.0924109e-01   4.5314247e-01   9.2960869e-02   6.1027755e-01   3.4637615e-02   2.1352676e-01  -9.7554501e-01   7.6895034e-01  -2.6478973e-01   5.4970585e-01  -4.1506045e-01   1.3166075e-01  -6.1099783e-01   3.2916929e-01   6.1662394e-02  -9.3737426e-01  -2.6225511e-01   1.6613409e-01  -8.5498400e-01  -6.0018182e-01   2.6506704e-01   8.9751708e-01  -6.6671669e-01   4.2675685e-01  -8.2283865e-01  -6.6303505e-01   3.4387649e-01  -2.4136018e-01  -8.6462571e-01  -7.8896011e-01   5.8429671e-01  -9.8782360e-01  -1.2373503e-01  -5.5157590e-01  -1.3986363e-01  -4.2774343e-01  -6.0389682e-01   7.6248240e-01  -8.0027786e-01  -5.1142743e-01  -8.1377418e-01   6.8001758e-02  -7.2095872e-01  -5.1349839e-01   1.2386715e-01   7.7133150e-01  -2.5595995e-01   6.8681361e-01   1.4126258e-01   1.7051629e-01   1.4462657e-01  -9.8909068e-01  -6.8993409e-01  -5.8750280e-01  -9.7211338e-01   3.8803610e-01   3.3201372e-01  -6.2801419e-02  -3.2130495e-01  -5.4280462e-01   8.2320966e-01   7.6124920e-01  -1.5253235e-02  -7.3745408e-01  -2.4150252e-01   1.6665685e-01   3.5630266e-01  -9.3282035e-01  -4.5423145e-01  -6.1650472e-01  -1.9012137e-02   6.8836528e-01  -3.1248496e-01   4.6795126e-01   1.4970689e-01   8.6358916e-01  -7.9754076e-01   7.5868888e-01   1.4063434e-01   5.7037375e-01  -4.7606096e-01   6.8591894e-01   7.1179886e-01   1.6600471e-02  -6.7049828e-01  -8.2218549e-01  -3.6939680e-01   1.3242107e-01   9.6215102e-01  -6.7482537e-01  -2.4237107e-01  -5.1552810e-01  -4.6791027e-01   1.1844934e-01   4.4555453e-01  -7.5240638e-01  -8.2270158e-01  -3.5889811e-02  -5.0751752e-01   8.9083718e-01  -4.8935508e-01  -1.9999544e-01  -6.9997012e-01  -1.3139677e-01   6.2762197e-01   7.1608820e-01   4.8097753e-01  -8.3618389e-01  -4.7724829e-01   7.7614639e-01   6.6666854e-01  -5.2820232e-01   5.7828184e-01  -1.8228561e-02   7.1063191e-01   6.1202972e-01   5.1806289e-01  -4.1207766e-01  -3.9169589e-01   8.7697564e-01   3.2065224e-01  -3.3169278e-01   4.0078208e-01  -8.8558611e-01  -7.6450339e-01   1.3518146e-01  -3.0670153e-01   7.3219623e-01  -3.8431520e-01   1.9196458e-01   9.4340690e-01  -5.5239865e-01   9.1692584e-01   3.6270673e-01  -1.4417329e-01   2.5689012e-01   9.0251815e-01  -8.1326419e-01  -1.2187231e-01  -9.8157179e-01  -1.1716140e-01   7.2664976e-01   9.7028399e-01  -7.4164128e-01  -6.7133363e-01   6.8139665e-01   4.1194136e-01   9.3552608e-01  -8.6259818e-01  -2.3899052e-01  -2.2706340e-01   8.2254095e-01  -3.6862068e-01   4.5595068e-01  -9.3616535e-01  -9.4685477e-01  -8.1454932e-01  -7.2730256e-01  -2.8566504e-01  -7.1855687e-01  -2.5173234e-01  -1.1242710e-01   7.0329070e-01   4.7626652e-01   7.9564958e-01  -7.9164894e-01  -8.3040211e-01   6.7015302e-01   4.8506257e-01  -6.4664165e-01  -7.1952467e-02   6.4161435e-01   5.2743899e-01  -7.8856468e-01  -1.1980174e-01  -9.0109141e-01   1.5652300e-01  -7.8911311e-01  -3.5839988e-01  -6.0850631e-01   6.4079365e-01  -4.8627537e-01   2.8722486e-01  -6.8543527e-01   4.7231771e-01  -3.8613876e-01  -6.7992790e-01  -9.6835542e-01   9.7358711e-01  -5.7490824e-01   8.6063815e-01  -8.8766856e-01   3.8499518e-01  -1.2090304e-02   4.7041094e-01   2.9321306e-01  -5.0438963e-01   5.1727708e-01   9.9073464e-01  -7.3154950e-01  -5.2746652e-01   8.5974462e-01   8.1335467e-01   8.2547165e-01  -7.8371152e-02   8.4419702e-02  -1.6732953e-01  -8.5564994e-02   5.2355677e-01  -3.7094917e-01   9.9716792e-01  -4.9598672e-01  -5.1110384e-01  -3.1301184e-01  -6.7479944e-01  -8.4352664e-01   3.2637031e-01  -9.5017437e-02   1.7899011e-01  -5.0429955e-02  -7.0345831e-01  -9.5738096e-03  -6.5004829e-01  -8.7996205e-01   8.0413072e-01   7.4102659e-01  -6.8907043e-01  -8.2791966e-01  -9.2653383e-01   4.2204714e-01   6.2031282e-01   7.3351313e-01   6.2076198e-01  -8.3529373e-01  -5.9940306e-02   9.6961294e-01   8.0982085e-01  -1.2353884e-01  -9.6675814e-01  -2.2906351e-01   6.4800622e-01  -1.5016698e-01   4.3170046e-01  -9.3056274e-01  -2.1853998e-01   7.7776679e-01  -7.4209003e-01  -5.9367616e-01  -6.4358373e-01  -9.5890390e-01   1.6680313e-01  -8.6351930e-01  -9.8243713e-02   9.2404766e-01  -1.2058395e-01   2.4337649e-01   2.0089314e-01  -3.5915883e-01   9.3462329e-01   2.0377004e-01  -4.1802837e-01   7.2320062e-01   4.5277756e-01  -7.4623057e-01   4.5541915e-01  -3.0373318e-01   2.0377495e-01   4.0438683e-03  -5.6572135e-01  -3.5707328e-01   7.9723467e-02  -8.0079227e-01  -6.9833366e-01  -4.8670838e-01   3.0811201e-01   8.7158286e-01   9.1765262e-01  -2.6649494e-01  -4.5632405e-01  -8.0197935e-01   3.8945858e-01  -4.6891927e-01  -1.1717617e-01  -6.5556274e-01   2.8647852e-01  -2.7287777e-01   7.9273612e-01  -7.0233309e-01   6.1236274e-01   5.4875087e-01  -4.9414864e-01   8.8074285e-01   7.7648603e-01   1.2702025e-01  -3.6934254e-01   7.6477116e-01  -1.3122198e-01  -5.7041766e-03  -4.9948499e-01  -3.7726409e-01   7.4863416e-01  -1.7357134e-01  -4.8655769e-02   5.4950770e-01  -8.2154005e-01  -1.7750343e-01  -8.5702297e-01  -3.0085109e-01  -7.9878759e-01   7.7986595e-01  -8.2761548e-01   6.1427209e-01   6.7137414e-02   9.3233232e-01   7.1900427e-01  -6.6484645e-01  -5.3020193e-01   4.5121269e-01   1.2132667e-01   9.0092857e-01   4.9065732e-01  -3.0895718e-01  -5.5198146e-02   5.0150349e-01  -8.0531688e-01  -5.9647522e-01   9.1724497e-01  -6.0056499e-01  -4.7045339e-02   1.1874115e-01  -5.8572832e-01  -5.2147428e-01   7.6793416e-01   4.5187292e-01  -9.4624455e-01  -1.8286135e-01  -9.7768141e-01   5.4245972e-01  -5.6452377e-01  -9.6932094e-01  -8.0982092e-01   3.8680393e-01   4.5469552e-01  -5.8243476e-01   9.6079264e-01  -7.7958019e-01   8.4143127e-01   4.1480951e-01  -7.5383975e-01  -5.7276474e-02   6.1260761e-01  -6.4153588e-02   1.6570390e-01  -4.7260660e-01  -8.6402663e-01  -6.9642909e-01  -5.4840693e-01   5.7884657e-01  -4.1197466e-01   1.6207430e-01   6.5622636e-01  -4.0420539e-02  -4.0533824e-01   6.1145806e-01  -9.8028990e-01  -7.8190453e-01  -1.7669807e-01  -8.9398449e-01   6.6845966e-01  -6.9029795e-01  -3.3374452e-01  -3.6204801e-01   5.8116251e-01   9.5242357e-02  -1.7412522e-01  -6.5651783e-02  -4.9363533e-01   8.2057727e-01   2.0177668e-01   8.5572589e-01   3.1093307e-01  -6.3562561e-01   6.7638061e-01  -9.2579211e-01   3.2387909e-01   3.5252656e-01   4.3833584e-01  -5.1477804e-01   5.9579432e-02   9.4297236e-01   9.1985049e-01  -5.0106874e-01  -3.2944424e-01   3.6329220e-02   6.2325346e-01  -3.1778710e-01   8.8321556e-02  -2.7585470e-01  -2.1069053e-01   7.3027184e-01  -3.9524895e-01  -9.5082524e-01  -6.8901687e-01   4.2851227e-01  -5.2105688e-01   7.8948041e-01   5.3152601e-01   8.0384380e-01   7.9163756e-02   7.5702313e-02  -5.8345053e-01   5.1238147e-01   6.9479964e-01   2.0206250e-01  -1.7206382e-01   6.2197027e-01  -1.2571863e-01  -9.4670757e-01  -4.8598103e-01  -4.8346608e-01   1.2322447e-02  -2.0678571e-01  -8.8317469e-01  -1.9486292e-01  -7.1197447e-01   3.1835812e-01  -2.2010558e-01  -4.1292788e-01  -2.9250124e-01  -4.3404951e-01  -4.0530202e-01  -5.7686997e-01   4.9174658e-01  -5.8150119e-01  -6.3735209e-01   7.0681133e-01   1.7458930e-01  -3.7497869e-01  -5.0311609e-01   5.2430893e-01  -7.8686119e-01   1.0312567e-02  -9.9968313e-01   7.0220354e-01  -2.0703473e-01   7.9826951e-01   3.4804483e-01  -9.2253700e-03   9.1941989e-01   6.5844175e-01  -9.6915370e-02   4.3533998e-01   6.3452706e-01  -5.2548432e-01   2.7374375e-01   7.9986584e-01   2.2026481e-01   6.2753888e-01  -1.7845851e-01   4.0322865e-01  -8.9193942e-01   9.8083604e-01   5.6608282e-01   2.1625809e-02   9.7636427e-01  -5.9534307e-01  -5.9401306e-01   4.5785404e-01   7.5256487e-01  -4.9709295e-01   5.6354281e-02  -7.6093259e-03   7.1046231e-01  -3.5870774e-01  -3.7912062e-01   7.2242863e-01  -9.0183795e-01  -2.2985899e-01  -3.6707238e-01   8.8595512e-01  -8.3115578e-01  -1.1714809e-01  -2.4224611e-01  -9.7813764e-03   2.5208370e-01  -6.6181594e-01   2.2034633e-01   4.0922006e-02   4.5125767e-01  -7.3918166e-01   2.5114140e-02   2.3341421e-01   7.7409684e-01  -4.7401167e-01  -4.2943433e-01   2.7661427e-01   4.7318506e-01   6.0411941e-01   8.3917440e-01  -4.7032832e-01  -2.4882330e-01  -3.0761913e-01  -9.5297784e-01  -4.1585848e-01  -3.4065896e-03  -9.2832914e-01   6.2553481e-01  -5.0537885e-01   8.4966355e-01   5.8285046e-01   1.4903274e-01  -2.6822886e-01  -1.4288810e-01   6.6884249e-01   4.2446473e-01  -3.5036432e-01  -1.7922953e-01   4.0703620e-02  -7.6091055e-01   7.0468723e-01   7.3781025e-01  -6.0488716e-01  -7.4847751e-01   6.9527034e-01  -5.7082408e-01   7.1482949e-01   2.8726793e-01   8.5587405e-02  -5.2097867e-01   1.6821117e-01   7.7627585e-01  -3.5169133e-01  -7.3544400e-01  -6.8231625e-01  -4.0719283e-01  -8.9179886e-01   4.7166089e-01   4.5429195e-01   8.4000418e-01  -4.6446810e-01   5.8136714e-01  -5.0421967e-02  -4.2180502e-02  -8.4706037e-01  -9.9588151e-01  -8.4458846e-01   7.4899517e-01  -7.6166990e-02   7.9769946e-01   2.7127822e-01   3.9929499e-01   3.8842573e-01   8.8954105e-01   5.6583099e-02  -3.9461434e-01   1.8989932e-01   6.5747165e-01  -5.3962946e-01  -1.0968905e-01   7.3306970e-01   9.6564189e-01  -5.7288409e-01  -9.3847074e-01   5.6861740e-01  -3.6657456e-01  -7.2449527e-01  -9.9830351e-01  -3.8568301e-01   5.8810777e-01   3.5772558e-01  -7.9958634e-01  -8.7041542e-01  -2.1807567e-01   5.1558161e-01   7.8452019e-01   4.3348437e-01   9.0676467e-01  -6.5985619e-01  -3.8608614e-01   5.6979747e-01   6.5519790e-01  -2.7784817e-01  -3.7503858e-01  -8.3296342e-01   6.2383926e-01  -4.1665176e-01  -6.5155909e-02   4.6167634e-01   5.7125103e-01   9.4077188e-01   6.1372744e-01  -7.7416169e-01  -7.5686141e-01   1.3884804e-01   3.9497245e-01   9.8920118e-01  -8.2530441e-01  -3.7503198e-01   9.9363687e-01   2.3405420e-01  -4.5583785e-01  -5.6481901e-01  -8.6918675e-01  -2.5328505e-01   7.2164564e-01  -3.5845467e-01  -9.0225093e-01  -7.7330449e-01  -9.2008960e-01  -1.9504244e-01  -5.5535882e-01  -1.9813049e-01  -4.9252854e-01  -6.5021424e-01  -9.7239843e-01  -6.5228768e-01   6.4997885e-01   9.4718500e-01   6.4923220e-01  -6.6556144e-01  -2.4186873e-01  -9.0942211e-01   5.3810580e-01   7.8551406e-01   5.4161560e-02  -5.7300896e-01  -7.8207977e-01  -9.5871021e-01   7.3860117e-01  -3.4382856e-01  -2.8181824e-01  -7.0625268e-01   9.8519633e-01   9.4585614e-01
   8.3952224e-01  -9.1715071e-01   3.5892813e-02   6.5214205e-01  -4.0066976e-01   8.5194790e-01  -6.1163425e-01   9.9896257e-01   8.7673889e-01   6.3541828e-01   7.9902680e-01  -7.4837315e-01   5.8410432e-02  -6.2893974e-01   1.3358551e-01   1.2535364e-02   6.6269690e-01   3.6511919e-01  -1.7971320e-01  -1.9955727e-02  -8.8775962e-01  -4.2748444e-01  -9.6426452e-02  -5.8718452e-01   2.1600902e-02  -9.7921050e-01  -2.3590869e-01   1.7534228e-01  -8.9883240e-01  -6.2016231e-01  -3.7067094e-02  -9.6944068e-01  -5.3640677e-02   9.4050486e-01   2.4362395e-01   4.9504387e-01  -1.0066216e-01   3.3223477e-01  -8.6153987e-01  -7.3570187e-01  -5.8300367e-01   2.9854406e-01  -7.4656076e-02  -5.0501670e-01  -7.9046286e-01  -7.8701101e-01   6.6246035e-01   7.7295702e-01   3.9661479e-02  -8.4995924e-01   5.0617106e-01   3.8503738e-01  -9.3033287e-01  -2.1765017e-01  -8.0390990e-02   4.7932682e-02  -1.3800108e-01   9.1287647e-01  -7.9192567e-01  -1.7105008e-01   8.3382484e-02  -1.8251820e-01   5.0486689e-02  -3.7312642e-01  -6.5892999e-01   8.1955809e-01   2.8788560e-01   1.2137578e-01   1.7525837e-02  -1.5915105e-01  -4.1788100e-01  -8.9724841e-01   2.4945031e-01   5.9977425e-01   1.0286473e-01  -2.0865108e-01   2.7219252e-01  -4.3143341e-01   5.4762610e-01   8.9835711e-01   1.8939215e-01   3.1467004e-01   3.8349061e-01   8.2487342e-01   7.3489195e-01  -9.5031388e-01   1.6587085e-01   4.0446372e-01  -1.0461840e-01  -7.7759708e-01  -5.5918375e-02  -3.1683320e-01   6.9011969e-03   9.8548564e-01  -1.9063820e-01   6.3792557e-01  -1.0159265e-01   4.2562233e-01   8.7725889e-01  -5.1215680e-01  -1.4019638e-01   9.6456219e-01  -5.2715915e-01  -5.9197038e-01  -3.5900121e-01  -3.5266040e-01  -5.2985399e-01  -6.5984953e-01  -4.2725588e-01  -7.2001429e-01  -4.9670714e-01   1.2714251e-01   5.3941942e-01   6.6988164e-01  -5.9609355e-01   1.0708229e-01   3.7309434e-02   9.4106623e-01  -3.4578680e-01   4.5668743e-01   2.6156440e-01  -1.8335162e-01  -5.7551558e-01   4.2116827e-01   2.9267910e-01   5.5250053e-01   4.3602417e-01  -8.3868800e-01  -6.7602995e-01  -4.3470109e-01  -9.7485748e-01  -8.3607080e-01  -5.9137491e-01   9.0643926e-02  -6.5452204e-01  -3.5298073e-01  -6.4527867e-01   7.2429102e-01   6.9334855e-01  -1.6159515e-01  -1.3801952e-01   5.7305821e-01  -6.9175917e-01   8.1052716e-02  -9.2588059e-01  -1.4722973e-01  -8.9425273e-01   4.1490733e-01  -6.5185719e-01   3.5672510e-01   1.8658203e-01  -3.5660877e-01   5.0475493e-02  -1.4760793e-01  -9.4591390e-01  -8.4950923e-01  -8.0996447e-01  -7.1331884e-01   7.6421977e-01   1.5907263e-01  -1.3847943e-01   2.0137940e-01  -8.0152455e-01  -7.0399540e-01  -7.3704873e-01  -2.5868145e-01   1.4895540e-01   9.6980116e-01   1.5861209e-01  -7.2192215e-02   4.9840907e-02  -9.7573446e-02  -7.4330065e-01  -7.8022220e-01   8.6679967e-01  -5.1968512e-01   5.4270700e-01  -8.6219280e-01   3.4151415e-01   9.6799574e-01   4.4325734e-01  -8.4385220e-01   2.9580420e-01  -5.4236600e-01   5.6366991e-01   2.8324060e-01   7.9887055e-01   6.6366992e-02   5.6066443e-01   6.1637647e-01   1.3880308e-01  -6.8918172e-01  -1.9621412e-01   4.7842736e-02  -8.5470840e-01   6.4179055e-01   3.6798208e-01   1.7157870e-01  -1.2450773e-01  -4.9231984e-01   1.7615881e-02  -8.2047335e-01  -5.4605497e-01  -1.4465937e-01   6.2627415e-01  -8.8282682e-01  -2.0156048e-01  -9.2155367e-01   5.8284868e-01  -1.6149001e-01  -5.2944361e-01   7.0367516e-01   2.8989639e-01   8.7568412e-02  -5.1185719e-01  -4.0976842e-01   4.0461179e-02  -5.1080799e-01  -4.9572110e-01  -1.5265917e-03  -5.9735013e-01  -5.2539955e-01  -4.1514759e-01   9.0745404e-01   8.3462333e-01   3.8566078e-02   2.8290353e-01  -2.8650956e-01   1.4019615e-01  -1.0962371e-01   9.8580624e-01  -9.5425217e-01   5.5959161e-01  -8.3476821e-01   6.5897023e-01   3.9084213e-01  -8.2640664e-01  -3.4628320e-02  -8.4853678e-01   7.9195527e-02   7.5520633e-02   3.5625580e-01  -8.6156653e-01   5.3919628e-01  -8.4795332e-01   8.5374358e-01   5.2759030e-02   1.6992949e-01  -9.2038055e-02  -3.1666451e-01  -9.5240281e-01  -2.4736817e-01  -3.1153421e-01  -9.9564188e-02   9.1881736e-01  -8.6520285e-01   5.6065226e-01   3.1989329e-01  -3.2892142e-02   2.7896486e-01   4.3028697e-01   4.0301499e-01   2.7571914e-01   6.7330721e-01  -3.5757579e-01   2.3717562e-01  -9.7578937e-01   9.8179712e-01   5.5662119e-01  -1.0284500e-01   4.1619347e-01  -8.5260825e-01   3.2020013e-01  -9.4206383e-01  -7.4380064e-01  -4.0216999e-01   7.2680856e-01   6.9468151e-02   2.1037444e-01   9.8314762e-01   8.8849505e-01   4.9592389e-01  -2.6812836e-01  -9.7771311e-01   3.6211050e-01   5.0489179e-01  -4.2467379e-02   3.2710646e-01  -6.3650255e-01   9.7051691e-02  -4.9145429e-01  -1.7905954e-01   7.7422821e-01   4.6394575e-01   7.3277481e-01  -6.0186094e-01   6.5497305e-01   9.5536986e-01  -4.2225980e-01  -5.7402908e-01  -5.6640163e-01   7.7574840e-01   8.9002490e-01   4.1765354e-01   6.9155089e-01  -7.0988679e-02   6.9218198e-01  -9.4073139e-01  -5.3756271e-01   4.5294545e-01  -1.8692964e-01   2.2066693e-01  -8.7757483e-01  -2.6594456e-01  -9.8161234e-01  -6.0933750e-01  -1.3372458e-01   5.9487514e-01   2.3910575e-01   7.3379565e-01   6.0127726e-01   6.1020744e-01  -6.5313070e-02  -6.7287184e-01  -3.2353932e-01  -6.3901863e-01  -7.6392390e-01   4.1742625e-01   7.4727317e-01  -6.9994156e-01  -3.5630446e-01   7.2650406e-01  -6.1477422e-01   3.4302245e-01  -1.5044909e-01   4.5683118e-01  -8.5632497e-01  -2.8358753e-01  -1.0680699e-01   2.1601958e-01   2.4869508e-01   9.4826781e-01   1.5425391e-01  -6.9190525e-01   3.1221713e-01  -4.2087127e-01   7.3841409e-01   9.9784876e-01   3.5284002e-01  -4.0668497e-01  -6.5136144e-01   6.0307083e-01  -1.9193947e-01   6.6930928e-01  -9.6523275e-02   1.7181620e-01   4.6398212e-01   6.0211649e-01  -8.1123301e-02  -2.4281818e-01  -9.3584200e-01   7.5039553e-01   2.2548061e-01  -1.5024174e-01  -4.8723670e-01  -3.2567121e-01   8.1986869e-01   3.2345446e-01  -4.1856329e-01  -9.8686118e-01  -7.3352593e-03   6.5480943e-01   8.5634081e-01  -3.6793370e-01   4.9509875e-01   5.6860103e-01  -1.1260766e-01   1.7520495e-01   3.6202781e-01  -7.6319152e-01   6.6973959e-01  -5.3218895e-01  -8.2670652e-01  -9.8087020e-01  -8.7328215e-01  -1.9426992e-01  -6.4147271e-01  -7.5010677e-01  -7.8560586e-01  -4.9321024e-02   6.3020246e-01   7.8312788e-01   3.8998001e-01   9.5453924e-01  -5.0534350e-02  -7.8625715e-01   7.0523407e-01  -6.0155728e-01  -3.3773637e-02  -5.5419372e-01  -7.4321861e-01   6.1546390e-01   4.4682557e-01   5.4396673e-01  -7.9699872e-01   8.4921769e-01   9.8160087e-01   3.3699478e-01   1.9976283e-02  -7.7534585e-01  -6.7185588e-01   7.5664471e-01   2.4246182e-02  -4.7430886e-01  -3.5723009e-01  -1.3237012e-01   3.7045547e-01  -8.1669440e-01  -5.3071839e-01  -9.5341032e-01   4.3726703e-01  -1.1797198e-01   5.6024940e-01   4.9790423e-01  -4.9288121e-01  -1.2434800e-01  -5.6066645e-01   6.1877210e-02  -5.8730035e-01  -5.4680097e-01   3.0279396e-01  -6.5765065e-02   1.8383087e-02  -2.9430002e-01   6.7918588e-01   4.0622768e-01   5.4838570e-01  -3.0663077e-01   1.7407344e-02  -8.9954851e-01  -9.3984729e-01   7.2999751e-01   8.7138979e-01   6.2462467e-01  -9.6754152e-01  -3.6154016e-01   1.9139020e-01  -1.4306511e-01  -1.0803922e-01   8.6721420e-01   7.1419780e-01  -7.0935210e-01  -9.4945171e-02  -4.3008344e-03   5.5770392e-02   1.3303709e-01   3.2320667e-01   7.8957425e-01   6.4103794e-01  -4.1092162e-01   3.7329684e-01   8.6892121e-01   3.6968425e-01  -7.9920242e-01  -9.4826894e-02   4.5514327e-01   4.6900849e-01  -4.2312934e-01   4.1783246e-01  -2.8019359e-01  -2.7415745e-01  -4.3000394e-01  -8.9211052e-01   5.7390311e-02  -3.4318509e-01   5.9997444e-01   6.3742098e-01   2.8927244e-01  -8.1049695e-02  -1.1476830e-01   8.4031502e-01   8.8674262e-01  -8.2066010e-01  -2.8465873e-03  -9.1799002e-02  -2.0758210e-01   9.7102504e-01  -1.2561852e-01  -5.9881672e-01   5.0003286e-01  -4.4037478e-01  -1.7229234e-01   4.7201220e-01   5.8622538e-02  -8.2912506e-01   1.6922515e-01  -2.7126475e-01   3.4275478e-01  -7.6326267e-01   7.7343021e-02  -6.8924865e-01  -4.1720498e-01   4.2847048e-01   6.5138244e-01  -1.4822323e-01  -3.5969623e-01  -8.6486540e-01   2.0685588e-01   9.2035193e-01  -5.6841619e-01  -6.8263639e-01   7.4840745e-01   6.9951804e-01   2.7085242e-01  -6.2857498e-01   1.0494371e-01  -8.3873250e-01  -7.9110483e-01   8.0683271e-01  -9.5230275e-01  -6.4423275e-01  -3.9469028e-01  -2.3319924e-01  -9.7381341e-01   7.4968028e-01  -6.8692774e-01  -2.0994193e-01   7.1484421e-01  -8.9272630e-01  -8.4952727e-01   3.8579803e-02   9.3827857e-01  -9.8575307e-01  -2.2722800e-01  -9.0465080e-01   6.2435608e-01  -8.0981934e-01  -6.4183859e-01   5.0359656e-01  -1.9561351e-01   5.5825397e-01  -7.6508538e-01   2.4782324e-01  -5.5381137e-01   5.2195590e-01   4.0159640e-01  -1.0286522e-02  -6.7020948e-01   1.2751422e-01   8.4001033e-01  -4.8458984e-01  -4.7828632e-01  -4.0936827e-01  -5.6661073e-01  -7.1776810e-01  -2.6547285e-01   4.2450259e-01  -9.5103406e-01   6.0116180e-01  -2.0891381e-01  -5.1213790e-01   2.3458552e-01  -7.3902936e-01  -6.2968631e-01  -8.0293715e-01   2.5979642e-02  -1.5257863e-01  -3.3011728e-01  -4.8759146e-01   3.1715121e-01   8.4845190e-01   3.1733406e-01   4.3378906e-01   7.6737004e-01   3.5154643e-01   5.0806996e-01  -7.5273167e-01  -4.4683665e-01   1.5186807e-01   3.3359073e-01   8.0037368e-01  -6.9962412e-01  -4.6571312e-01  -1.0766838e-01  -2.3569521e-02   2.1440521e-01   8.6341915e-01  -6.9490363e-01   6.7515695e-01   2.0393099e-01   8.6541399e-01   3.0525468e-01   5.0894663e-01   9.6694999e-01   6.2359304e-02   2.0364597e-01  -2.8472890e-01   4.7455061e-01  -7.8393585e-01   9.1329275e-01   1.3668227e-01  -1.6245363e-01   4.1563590e-01  -7.5878292e-01   6.2180191e-01   7.7987424e-01  -5.9864749e-01  -4.9648986e-01   7.8194218e-01   7.0121477e-01  -1.2104024e-01  -9.6278507e-01   7.8399553e-01   9.8108148e-01   4.6104787e-01   8.0865818e-03   2.2595911e-01   8.8584208e-02   5.6447102e-02  -3.4717870e-01  -7.3691268e-01  -6.8962890e-01  -3.6584976e-01   4.2433727e-01   7.3765438e-02  -6.4644231e-01   3.3459470e-01  -3.0844580e-01   6.3769538e-01   1.9013363e-02   5.0501169e-01   6.1586712e-01   5.0118501e-01  -9.5289063e-01  -9.7454963e-02   9.2011870e-01   5.9057326e-01   7.3323984e-01  -6.7469777e-01   5.3284605e-01  -2.2210892e-02  -6.5603099e-01   3.4641678e-01   6.5792410e-01  -2.7162605e-01  -6.2995777e-01   9.5847611e-01  -7.9708436e-01   8.2609957e-01  -5.6914799e-01   2.6903931e-01  -7.7281777e-03  -1.1426340e-01   2.9387933e-01  -4.7555696e-01   8.0223325e-01  -8.3522423e-01  -9.4132590e-01  -7.0489732e-01  -4.9245956e-01  -3.9004443e-01   1.5985708e-02  -4.9518238e-01  -3.1674198e-01   9.5850708e-01  -9.7289742e-01   1.7414493e-01  -3.9903143e-02   1.4003451e-01  -3.1555503e-01  -6.8799806e-01   5.3370830e-01   1.6029329e-01   8.4258251e-01   4.1898247e-01  -8.6836422e-01   6.0713335e-01   7.1840454e-01  -2.8069306e-02   7.0939360e-01  -4.4574259e-01   2.4025827e-01  -3.3560399e-03  -4.2538379e-01   1.5460742e-02   6.6596864e-01  -6.0775253e-01   6.6865422e-01   7.4935254e-01  -7.5355750e-01  -3.7326914e-01   5.5469852e-01  -3.2383669e-01  -5.1861203e-01  -4.7458473e-01  -8.8097989e-01   6.6765103e-02   1.1695794e-01  -5.8385437e-01  -2.0883877e-01  -3.1047070e-01   6.7980280e-01   7.7593016e-01   2.3728980e-01  -9.9696828e-01   5.2630998e-01   2.2850036e-01  -2.2903310e-01  -5.7473514e-01  -2.8442519e-01  -4.2692806e-01   4.6986272e-01  -4.5009103e-01   9.0320711e-01  -7.6235790e-01  -6.2966202e-01  -7.4061759e-01  -5.1679419e-01  -6.1240169e-01  -8.9630839e-01  -5.3380168e-01  -7.4983157e-01   8.1187500e-01   2.2667402e-01  -7.0095862e-01  -1.5346068e-01  -3.2089006e-01   6.1426635e-01  -5.7561978e-01  -4.9274705e-01  -3.3016233e-01   4.0536504e-01  -2.5718562e-01   9.2044399e-01  -6.6258723e-02  -4.5339734e-02  -6.5662117e-01  -6.9311345e-01  -3.9298435e-01   5.5368198e-01   6.7385505e-01  -4.0320884e-02  -2.1669165e-02   6.0128197e-01  -9.7222631e-01   4.9305304e-01   9.2259781e-01   6.5275395e-01   2.4224650e-01  -6.4019168e-01   4.5526093e-01   1.9579106e-01   6.0108140e-01  -3.0610717e-01  -1.5265257e-03  -9.8690342e-01  -7.3123747e-01  -8.5700701e-01   4.1367482e-01  -6.6369122e-01  -4.9897022e-01   5.5724173e-01  -2.3267206e-01  -4.5044229e-01   2.8486279e-02  -3.1632211e-01  -9.1041368e-01   8.4944904e-01   3.0319739e-01  -4.8087482e-02   5.1486969e-01  -4.7810880e-02  -3.2450070e-01  -5.7377376e-01   7.6902389e-02  -3.8053939e-01   6.2668466e-01   3.1028184e-02  -8.5370948e-01  -1.5077836e-02   2.5091529e-01  -9.3011165e-01  -2.7140021e-01   7.4160475e-01  -9.0766216e-01  -3.2337943e-01   3.0682465e-01   3.4047342e-01   8.2155521e-01  -7.0089736e-01   9.2550637e-01   6.8721130e-01  -2.3569115e-01  -8.8695581e-02   9.4916755e-01   6.6160702e-01   6.9806356e-02   2.6995658e-01  -1.1095141e-01   3.4261757e-01   2.8679610e-01   5.1322313e-01   1.5022398e-01   4.6193390e-01  -3.7236420e-01  -7.2315899e-01   2.8176220e-01   6.8385203e-01   6.4981468e-01  -5.4881525e-01  -5.8328847e-01   1.1369789e-01   1.8535261e-01  -7.0427963e-01   9.0435686e-01   8.5973984e-01  -4.7565469e-01  -5.5758535e-01   2.0425990e-01  -2.4668706e-01   4.4926114e-01   1.2781967e-01   6.4724451e-01   7.5248336e-02  -8.6375636e-01   1.8949295e-01  -1.0418438e-01   6.6689082e-01  -4.7107746e-01  -5.4575287e-01   2.9109247e-01  -7.6828460e-01  -8.4301227e-01   3.6405750e-02  -9.6652785e-01  -5.6792724e-01  -4.8622198e-01   6.3178981e-01  -9.8760187e-01  -6.4217954e-01   7.6602698e-02  -2.9642170e-01   2.3251614e-01  -8.1722723e-01  -8.8484357e-01   2.2493720e-01   8.5595337e-01  -7.8544653e-01  -9.1180419e-01  -4.8701581e-01  -3.9647080e-02   6.5966535e-01  -6.6927614e-01  -1.0428043e-02   7.4959198e-01   3.1504381e-01  -8.0365956e-01  -9.2892858e-01  -7.5690957e-01  -5.9445740e-01  -2.2195631e-01  -8.8575696e-01  -3.8512242e-01  -8.1775320e-01  -3.6662252e-01  -1.1457705e-01  -5.3819790e-02   2.6214717e-01   6.9863616e-01   7.1464371e-01  -6.3897832e-01  -8.6858150e-01   9.1135686e-01  -5.8607587e-01  -9.4908710e-02   8.4404222e-01   3.9822904e-01   8.6379791e-01  -1.7540916e-01   9.0778927e-01  -9.8681730e-01   6.7569831e-01  -2.1692852e-01   1.9573229e-01   6.2266947e-01   2.4289100e-01  -6.2140024e-01  -4.3545176e-01  -8.3415559e-01   7.2137600e-01  -3.5541177e-01  -5.6043292e-01  -2.7409716e-01  -1.6548053e-01   8.1368742e-01   1.8270490e-01   6.8216941e-01   6.6706355e-01  -7.5993431e-01   5.4112528e-01   5.2662297e-01  -9.4408435e-01   4.7081166e-01   7.0675859e-01   5.1319438e-01  -5.0932263e-02  -6.3403663e-01  -3.6834065e-01   4.7508103e-01  -7.4956370e-01   8.3814413e-01  -8.9649784e-01   5.3057472e-01  -1.9088603e-01  -5.1301918e-01   5.3779717e-01  -9.8912181e-02   4.9830301e-01  -2.8535167e-02   5.9955339e-01   1.0176033e-01   4.2921955e-01   8.2496853e-01   6.5207150e-01   1.1149210e-01  -1.4150729e-01   1.9006403e-02   6.4719801e-01   5.3855557e-02   1.4363997e-01   9.3441585e-01  -2.9592102e-01  -3.5997556e-01  -4.8257890e-01  -2.1128192e-01  -9.0939244e-01  -4.1219735e-01  -4.3444282e-01  -5.2435894e-01  -2.3712390e-01  -9.8466496e-01   3.2282959e-01   7.5240408e-01   9.6452333e-01   1.4394502e-02   8.4726121e-01   3.3509143e-01  -8.2536627e-01  -2.2754488e-01   3.8168116e-01   5.0557488e-01   5.5717375e-02  -2.1937207e-01   8.1933562e-01   7.4363159e-01   4.8550863e-01  -4.7218762e-01  -5.4110492e-01  -6.8992015e-01  -6.0453350e-01   7.9337841e-01  -9.0708837e-01  -1.4008409e-01  -9.6017589e-01   2.4080777e-01  -9.3155894e-01   9.2691620e-02  -4.3174979e-01   8.3450417e-01  -9.3484584e-01  -2.8474331e-01  -1.7019131e-01  -6.7983351e-01   7.6272027e-01  -1.5091360e-01   9.7364522e-01   4.7647079e-01   4.9720382e-01  -9.4087231e-03   5.2189762e-02  -2.9603341e-01  -3.8228824e-01  -7.7631660e-01  -3.3425916e-01   1.2644339e-01  -4.4301994e-01   5.7803782e-01  -3.6185234e-01  -8.8831253e-01   3.3874561e-01   1.7464366e-01  -7.8400834e-01  -1.0811330e-01   5.0879330e-01  -5.0012821e-01  -8.5038237e-01   6.0334137e-01  -7.3166874e-01   7.4693040e-01   2.2990571e-01
  -7.5597840e-01   6.7275984e-01   3.1281032e-01   1.6808831e-01  -3.0393736e-01   4.9027077e-01  -7.6004293e-01   4.8810004e-01  -1.4789102e-01   3.0147418e-01  -9.5400632e-01   6.1350580e-01  -9.2675258e-02   8.8516559e-01  -4.2110477e-01   6.3538038e-02   1.3824184e-01   9.9803587e-01  -2.5149741e-01  -4.1403954e-01  -6.0689818e-01   2.7081315e-01   4.4368197e-01   4.8140890e-01  -7.8286961e-02   8.0736186e-01   6.1745752e-02  -4.2896173e-01  -8.1632171e-01  -5.0080387e-01   2.9122060e-01   2.0195394e-01   8.4854084e-01  -4.0061685e-01   2.2134375e-01   4.7360901e-02   4.2501045e-01  -7.6457732e-01  -1.5727161e-02  -3.3689718e-01  -3.0671695e-01  -8.6720318e-01   5.1268818e-01   1.4540674e-01  -5.2258071e-01   8.9035347e-01   5.5939814e-03  -2.4224626e-01   3.7423812e-01   4.1284745e-01   5.9015472e-01  -6.8577864e-01  -3.5054017e-01   6.9549174e-01  -8.0749372e-01   4.7100167e-01   9.3844944e-01  -7.0877115e-01   5.0401848e-01   5.0426972e-01  -4.6227812e-01  -3.8217739e-02  -6.0123253e-01   5.3275034e-01   6.4774399e-01   2.0463642e-01   8.2188158e-01   3.3293107e-02  -1.9526885e-01  -3.3383572e-01   5.3024390e-01  -8.3855370e-01  -7.6480067e-02   6.9334607e-01  -5.5071133e-01  -1.5539503e-01  -2.7969374e-01  -8.9552150e-01   1.0532315e-01   8.2092581e-01   9.1660810e-01   6.1385075e-01   7.0899241e-01  -4.3911150e-01  -2.0075136e-01   5.7984514e-02  -9.2818882e-01   1.1779165e-01   9.5871762e-01   6.7086960e-01   4.6184865e-01  -7.5919067e-01   6.6317299e-01  -3.3709724e-01  -4.1533399e-01   8.5262835e-01  -7.2384987e-01   2.1545219e-01  -1.5396278e-01   6.3578201e-01   9.9730666e-01  -5.2766536e-01  -5.0455718e-01   8.1198275e-02  -1.6968079e-01   1.9964197e-01   2.0293947e-01   3.8690142e-01   9.3492868e-01  -2.6754705e-01  -8.1737018e-01  -6.4569256e-01  -1.7130064e-01  -5.7530192e-01  -2.5412440e-01   1.2053311e-01   3.2279143e-01  -2.6882951e-01   2.7438969e-01   7.4216379e-01   8.1006527e-01  -3.3676788e-01  -1.2162167e-01   4.9901864e-03  -8.6215337e-01  -6.7435628e-01   5.9878571e-01  -8.0444330e-01   4.5999303e-02   9.4923005e-01   5.0753446e-01  -6.1522909e-01   4.8233309e-01  -6.8509442e-01  -9.9914258e-01   8.6751535e-01   3.2878665e-01  -7.9336139e-01  -3.4428741e-01   7.5132043e-01  -2.3294246e-01  -8.5325108e-01   9.0253068e-02  -2.6516976e-01  -1.1956022e-01   7.5913893e-01  -8.1446122e-01   5.2603616e-01  -8.4049324e-01  -4.3257617e-01  -2.5162488e-01  -4.3992140e-01   7.3211056e-01   1.5925133e-01  -1.9205139e-01  -5.6305635e-01   6.7555305e-02   2.6728845e-01   3.3806017e-01  -1.5689276e-01  -8.5278620e-01   9.5716225e-01   3.4064553e-02  -8.5292933e-01   2.9983071e-01  -7.6080723e-01  -1.5427986e-02  -6.0997043e-01   1.7472784e-02   3.2354279e-01   5.8841128e-01  -8.4929099e-01  -9.9279036e-01   5.9722532e-02  -4.1870298e-01   3.9453901e-01   7.5151434e-03   2.8699278e-01  -3.5283139e-01  -8.9852793e-01  -9.5758938e-01  -6.0111914e-01   6.9850577e-02  -8.2795875e-01  -6.2693864e-01   5.7510215e-01   3.1738058e-01  -8.2438472e-01  -1.9742153e-01   3.7940949e-01   4.3647482e-02   7.4118810e-01  -2.5131572e-01  -2.1265065e-01   7.1792628e-01   1.3345558e-01  -8.4065938e-01  -5.6047831e-01   5.0230128e-01   4.3160815e-01  -6.4583241e-01  -8.4871026e-01   8.1171954e-01  -1.5258406e-01   6.1378935e-01  -5.7654865e-03   3.8967273e-01  -9.5038589e-01  -3.0723448e-02   2.5023961e-01  -9.3679529e-01   9.0598094e-01  -6.1494982e-01   6.1751440e-01  -7.3432746e-02   9.8405044e-01  -9.7629549e-01   8.3610126e-01  -5.9069305e-01  -6.4324967e-01   3.9551829e-01  -6.4067591e-01   1.9701162e-01  -9.8422543e-01  -1.4359637e-01   8.3565235e-01   5.1737145e-01   8.8204592e-01   8.0979481e-01  -6.4768216e-01   2.0829789e-01  -3.8187532e-01   2.5437203e-01   8.5395252e-01  -2.4553828e-02  -6.1197977e-01  -3.3327915e-01   9.8003740e-01   3.9024360e-01   8.3131303e-01   8.6861099e-01  -9.9685305e-01  -5.6365885e-02   2.2868021e-02  -2.7527175e-01  -3.5956129e-01   9.4188294e-01   9.8395343e-01  -1.3471685e-01  -4.2614630e-02   7.8514701e-01   6.7193065e-01   8.7745230e-01   7.4347111e-01  -1.4649414e-01  -5.2667352e-01  -3.3321142e-01   5.6632077e-01   5.0748635e-01   7.4799200e-02  -2.6041567e-01  -7.4640355e-01  -4.5989546e-01   8.1384356e-01   5.9703724e-01  -5.3741461e-01  -7.7372976e-01  -7.5285166e-01  -7.1909922e-01  -7.3630529e-01   7.3546518e-01  -9.2074792e-01  -8.5541117e-01  -2.3145315e-01  -9.9488343e-01   8.5418464e-01  -2.9569343e-01  -8.4081656e-01   8.8336774e-01  -6.0988013e-01   2.3982040e-01   8.7208557e-01  -9.6121299e-01  -7.3960828e-01   1.3288180e-01   6.4408847e-02   8.2661807e-01  -9.2289198e-01  -8.2482379e-01  -7.3126949e-01  -1.0624017e-01   3.3808289e-01   5.9622433e-01  -9.2225896e-01   1.6598271e-01  -3.3082427e-02  -1.1923849e-03   6.4682119e-01  -5.4396019e-01  -2.2180108e-01   4.6939292e-01  -5.5952465e-01  -9.3382526e-01   9.5110190e-01  -3.9445417e-01  -7.6579940e-01   2.1185340e-01  -4.2624504e-01   5.7401097e-01   7.2496541e-01   3.7303739e-01  -1.7207265e-01   2.1433992e-01  -7.6820007e-01   2.2983603e-02  -8.9512207e-01  -1.7100075e-01  -1.9978572e-01  -6.4683425e-01   8.4800214e-01   7.2512327e-01  -8.2761810e-01  -4.1447714e-01   7.8613919e-01   4.1200363e-01  -1.4985380e-01   5.7098219e-01  -8.0834951e-03   1.2862646e-02  -8.0292301e-01   1.7407198e-01   3.3748947e-01  -6.3434798e-01  -9.1274158e-01   2.0385108e-01  -3.0755086e-01   3.7240728e-01   3.3570995e-01  -7.3637682e-02   7.0884280e-01   7.6111083e-02  -6.7267926e-01  -6.1124152e-01  -1.7954299e-01   9.9938578e-01  -7.8523795e-03   3.4939465e-01  -8.5131149e-01  -6.5640153e-01  -1.6127936e-01   5.6329672e-01  -9.4594114e-01  -4.5533329e-01   5.8353783e-01   4.6397355e-01  -6.0758718e-01  -9.2924596e-01   3.3141381e-02   9.8482890e-01   6.5024224e-01  -5.7299185e-01   8.3803682e-01  -2.7160757e-01   2.6378620e-01  -9.7472443e-02   5.4269690e-01  -1.5585128e-01  -4.4355415e-01   9.0700022e-01   3.6126065e-01   8.7656394e-01  -8.7881778e-01  -3.8355977e-01   3.2811978e-01  -9.2181429e-01  -8.5521055e-01   9.8865713e-01  -7.9739403e-02  -5.1844030e-01   2.0898662e-01  -3.8854870e-01   3.4452227e-02  -8.0757170e-01   2.1437074e-01  -1.9991819e-01  -6.2600219e-01   1.9091724e-01   2.1732326e-01   3.9590998e-01  -3.0299142e-01  -7.9076001e-01  -9.1068856e-02  -8.0789066e-01   7.7339875e-01  -4.2495580e-01   6.4969812e-02  -2.5828959e-01  -4.8687274e-01  -4.1473613e-01   2.5454539e-01   8.7758975e-01   5.0774950e-01  -8.7794162e-01   6.2691387e-02  -7.5005220e-01   6.3787245e-01  -5.7618399e-01   3.5657209e-01   6.0679208e-01   1.1223661e-01   3.4515766e-01   6.6820530e-01  -4.2218234e-01  -7.4334016e-01   6.4468030e-01  -1.4767974e-01  -6.5564200e-01  -7.4896318e-02  -7.6138889e-01   4.8373996e-01  -5.4017700e-01  -8.2093687e-01   4.4213577e-01   6.3085954e-01   7.5780788e-01   3.7383864e-02  -8.8112286e-01  -8.0998045e-02   1.6668795e-01   1.0794400e-01  -1.8856819e-01   1.1714755e-01  -9.2775847e-01   8.1736770e-01  -6.7728596e-01  -2.9807368e-01  -6.3846443e-02  -6.0184057e-01   4.4392960e-01  -8.3715692e-01  -1.8096800e-02  -4.0205256e-01  -4.3332878e-01   9.6596891e-01   3.4474185e-01   1.1180207e-01   3.9698384e-01   8.0561697e-01  -5.4155737e-01   7.9186643e-01  -2.2713214e-01  -1.5866826e-01  -9.9186875e-01   3.0872311e-01  -1.5666786e-01   8.4815615e-01   5.4642189e-01   8.9789000e-01   4.9316562e-01   8.5327221e-01  -1.5730151e-01  -3.3461892e-01   5.5965808e-01   7.3615322e-01   5.6587542e-01  -8.4042347e-01   1.2415088e-02  -7.2040505e-01  -1.9758889e-01  -6.0649423e-01   3.3656352e-01   8.0039383e-01   8.9375000e-01  -4.0110830e-01  -4.7399208e-01   6.0782086e-01  -1.1479306e-01  -3.7144435e-01  -9.1559906e-01  -3.9341576e-01  -7.8961582e-01  -3.2175875e-01  -7.8579524e-01  -1.4231936e-01  -7.7700245e-01   5.2931172e-01  -6.7597390e-01   6.6910037e-01   6.6945218e-01   5.1912687e-01   6.5195291e-02   5.9248236e-01   8.3152289e-01   5.6403478e-01   5.7542237e-01   8.0755391e-01   3.5842765e-01  -6.0632498e-01  -2.1622080e-01  -4.7519929e-01   2.2675289e-02  -8.8433073e-01  -5.6126962e-01   4.4294824e-01  -6.4613711e-01  -5.4562993e-01  -1.0679308e-01  -1.1721441e-01  -9.1445052e-01   4.4445992e-01  -5.7869129e-01   3.4367436e-01   1.0776660e-01  -5.8496239e-01  -8.9566295e-02  -7.9921511e-01  -5.7602054e-01  -5.8486076e-01  -5.0058161e-01   1.9121264e-01   6.0279991e-01   7.1333838e-01  -6.6100463e-01  -2.1960482e-01  -4.9802893e-01   5.4454147e-01  -9.7258373e-01  -5.1639216e-01   1.8987318e-01  -6.0913325e-01   6.7926737e-01   8.8077908e-01  -2.7579112e-01   7.6543246e-01   1.1852180e-01  -6.7226260e-01  -8.9968540e-01   9.7666045e-01   7.8654470e-01   8.4689240e-01  -7.3569496e-01  -7.9414471e-01   1.9340180e-01   4.4317795e-01   8.5597709e-01   2.3157453e-01  -6.2959737e-01   1.3365910e-01   9.0661061e-01   8.0547510e-01   1.8761248e-01  -6.1178275e-01   2.4975705e-01  -8.0380686e-01   1.8949018e-02   7.8177409e-01   2.9264904e-02   8.6938340e-01  -7.5746127e-01  -3.6878053e-02   9.6236102e-01   3.5317564e-01   1.8473430e-01  -7.2359008e-01  -4.5876454e-01  -9.1562911e-02  -3.2390841e-01   2.3548985e-01  -4.3230391e-01  -3.9704885e-01   7.3195597e-01  -8.2748397e-01   9.0249555e-01   1.3372239e-02   1.2670648e-01  -3.3442077e-01  -6.6994467e-01  -3.4943743e-01  -1.2393070e-01   8.5253413e-01  -4.9083518e-01   7.8006134e-01   1.9819447e-01   4.9858233e-01   6.9243715e-01   5.1133320e-01   4.9433980e-02   5.7075266e-01  -8.6857713e-01   1.3123931e-01  -4.0588416e-01  -3.4325403e-01   9.3034222e-01  -3.1322226e-01  -3.6016385e-01  -7.8015325e-01   8.5525487e-01   5.0970507e-01   4.0758717e-01  -2.7098943e-01  -4.2880111e-01  -2.2069106e-01  -4.6119113e-01  -3.4433457e-01  -3.7784305e-01  -8.2684954e-01   4.8015346e-01  -8.7490143e-01   2.8396015e-01  -6.5621126e-01   9.2474340e-01  -9.0874020e-01   1.4502335e-01  -8.5001305e-01   9.7291927e-01  -6.0577502e-01  -6.8828520e-01   5.3173065e-01  -1.1407933e-01   2.4552138e-01   5.8491474e-01  -6.8199703e-02  -4.8577645e-01  -6.9228010e-01  -7.7834694e-01  -2.0135746e-01  -1.5732308e-01  -5.8466380e-01  -8.3269916e-01  -3.6338079e-01  -8.3499592e-01   2.9019442e-01  -1.8617986e-01  -6.5733037e-01   2.7014233e-01   4.5028204e-01  -2.5916494e-01   7.8069963e-01   1.6648910e-01  -7.2714154e-02   8.7227431e-01   3.7714201e-01   2.2856703e-01   3.7996309e-01  -6.9102766e-01  -2.0550670e-01  -8.1154065e-01  -6.0494615e-01  -2.1237109e-01   5.7524227e-01   1.9926196e-01   8.1249547e-01   9.3773151e-01   5.6955109e-01  -2.0516260e-01   6.9851274e-01   6.5202279e-01  -8.0122491e-01   5.7245521e-01   2.3353587e-01  -8.4501882e-01   6.8796750e-01   8.8453169e-01  -9.8115247e-01  -4.7272532e-01  -1.5171987e-01  -5.2597127e-01  -3.0438471e-01   3.8285664e-01   2.1019965e-01  -9.2517367e-02  -6.9217466e-01  -6.0593849e-01   6.0237639e-01   6.6682573e-01   2.2045966e-01   7.5464876e-01   2.7065180e-02   1.0282123e-01   1.8274426e-01  -3.1361121e-01   9.0631106e-01   2.9526446e-01  -6.3753776e-01   5.8133984e-01  -6.5216820e-01   9.2329388e-01  -3.8366907e-01  -3.3838050e-01   6.6256364e-01  -6.1654276e-01   9.1235693e-01   6.4516055e-01   5.7679536e-01   1.9980098e-01   4.0643160e-01  -3.0063761e-01   8.3050005e-01  -3.6125434e-01   2.9507733e-02   7.6445330e-01  -5.3958386e-01  -6.5495219e-01   6.8634797e-01  -5.2069660e-01   7.0209325e-01  -5.2083385e-01  -3.9515547e-01   8.1186980e-01   9.1201310e-01  -4.6649569e-01  -1.5467295e-01  -2.0761630e-01   9.3111847e-01   6.7905878e-01  -8.5638377e-01  -6.7105023e-01   2.3006137e-01   9.0908419e-01  -6.2406719e-01  -6.4816414e-01  -9.4791082e-01  -5.8287789e-01  -3.0506352e-02   1.8712972e-01   8.7661634e-01  -7.4152013e-01  -5.0334542e-01   7.5323100e-01   4.4549226e-01  -9.0525144e-01   9.7304782e-01   7.5756149e-01  -2.9902869e-01  -5.3963158e-01  -7.5707804e-01   9.5218081e-01   1.2150712e-01  -9.9985756e-02   5.3025511e-01  -7.7272220e-02   9.9800897e-01  -8.3492394e-01   6.0818275e-01   5.1163172e-01  -7.0080789e-01  -5.3972812e-01   4.5327582e-01   9.7205083e-01   2.8108182e-01   9.7877161e-01  -1.1294300e-01  -9.2467575e-01   7.4720455e-01   6.8806111e-01   5.1690407e-01   6.0482787e-01  -9.5694779e-01   3.7678590e-01   9.5302141e-01   1.7167011e-01   2.6812718e-01   3.7657165e-01  -9.7513917e-01   9.2853606e-01   3.4871037e-01   1.2532412e-01  -7.7005283e-01  -7.8475235e-01  -6.3729883e-02  -6.8290113e-01  -7.4509062e-01   7.4384955e-01  -7.3525384e-01  -5.6992245e-01   4.7771231e-01   6.8150528e-02   6.9498491e-01   8.0952205e-01  -6.2818441e-01  -6.1651512e-01  -8.6253564e-01   3.8266363e-01   1.2800358e-01   7.4347525e-01  -3.5033329e-01  -4.0810462e-01  -2.1297340e-01   2.9490650e-01  -3.4008079e-01   7.9003986e-01  -6.1661720e-01   2.6639199e-01   1.1719555e-01   3.0155467e-01   1.5180088e-01   8.2714016e-01   5.6529906e-02  -7.5446589e-01   7.7096433e-01  -8.9409552e-01   1.9476363e-01  -4.1284180e-01   1.1709692e-01   3.5832571e-01  -3.4422249e-01   9.3939047e-01  -5.2194363e-01  -3.2993714e-01  -5.0892450e-01  -3.1139357e-01  -7.6508340e-01  -9.0320218e-01  -9.0914144e-01   9.8154480e-01  -7.2268331e-01  -9.1356544e-01  -9.6675229e-01   6.8349741e-01   8.2101644e-01   6.7172755e-01  -1.7773110e-01   7.7587657e-01   3.4530176e-01  -4.2525042e-01   3.3693307e-01  -9.1799418e-01   8.0348587e-01  -9.7479118e-01   3.6168938e-01   9.8167719e-01  -7.6041623e-01  -5.1563580e-01   7.4965956e-01  -3.2909111e-01   6.4130356e-01  -2.6141665e-01   8.8891388e-01   9.3435352e-01   4.1138136e-01  -6.5021347e-01  -7.5471357e-02  -2.1445564e-01  -1.3767346e-01   3.1707730e-02   1.9667348e-01  -3.2946115e-01   5.5438290e-02  -1.0324502e-01   5.0617235e-02  -1.3312537e-01   1.4553832e-01   4.0255172e-02   7.1350467e-01  -1.0143519e-01   5.6830794e-01   3.8841243e-01  -5.5285300e-01  -6.4457203e-02   7.6145175e-01   4.2367843e-01  -9.2160082e-01   6.1864942e-01   4.6880134e-01   4.4004114e-01   1.7920562e-01   2.9587135e-01  -8.0341686e-01  -2.8000038e-01   9.1586407e-01  -6.6927265e-01  -2.3310810e-01   6.6927978e-01  -6.6284817e-01  -4.9223812e-01  -5.0474041e-01   2.0864406e-01  -7.4611058e-01  -9.6889386e-01   8.2385252e-01   6.2359201e-01   7.6264507e-02  -5.4497001e-01   9.1442970e-01   7.4318705e-01   6.4903170e-01  -7.7808740e-01   6.0822665e-01  -8.3738106e-01  -7.6914338e-01  -1.0666261e-01  -8.8419207e-01  -2.5060114e-01  -7.7108694e-01  -3.5777536e-01  -8.9659159e-01  -2.7938792e-01  -8.7526617e-01  -1.1485318e-02  -7.4838765e-01   5.7825673e-01  -1.1913091e-01  -5.3811477e-01   7.4693250e-01   6.3511222e-01  -5.3765734e-01  -8.9183079e-01   2.4523555e-01   6.6221872e-01  -2.6970851e-01  -1.7436260e-01  -6.5788277e-01   7.1248560e-01   6.4569111e-01  -4.6774149e-01   6.8254239e-01   1.0103841e-01  -2.2440038e-01   6.9743065e-01   1.9072076e-01  -3.8283669e-01   5.2889736e-01  -7.3277538e-01  -8.4391537e-01  -2.4316292e-01  -1.9305094e-01   5.7360800e-01  -8.1504706e-01   6.4028918e-01  -3.5698041e-01   9.0600904e-01  -2.0121728e-01  -2.4899156e-01  -3.3952140e-01  -2.8509682e-01   2.7013484e-01  -9.5093573e-01  -7.2169737e-01  -3.7010640e-01  -4.9778873e-01   5.4383208e-01  -5.3653428e-01  -2.8578427e-01   9.7954933e-01   2.5599501e-01  -5.1146792e-01  -5.8057854e-01  -5.8684457e-01   6.6507569e-01   8.9485326e-01   1.3675509e-01  -8.1778474e-02   6.0080944e-01  -5.8619368e-01  -8.6584131e-01   1.9678938e-01  -8.7666979e-01  -5.5503510e-01  -5.8004712e-01  -1.1627031e-01   9.5923653e-02   4.4590650e-01  -8.4044848e-01  -6.4813016e-01  -1.3081679e-01  -1.9734618e-02  -8.1126329e-01   4.9646665e-01   8.4734433e-01   1.9215845e-01  -7.8408090e-01   5.1243069e-01  -7.1901598e-01   4.0013209e-01   8.0238966e-01   8.9689625e-01  -8.1228111e-01  -1.0670557e-01  -8.9850617e-01  -4.2707011e-01  -7.1248576e-01  -1.1276430e-01  -2.0493213e-01  -9.1988083e-01  -9.1622843e-02  -5.3805544e-01   6.8160541e-01   4.3036461e-01  -7.9779034e-01  -5.6853967e-01  -1.1680150e-01  -5.8975413e-01   7.0514213e-01   4.4616503e-01   8.7212444e-01   3.7629216e-01  -5.4139699e-01   7.0030575e-01   5.4566749e-01  -2.4949285e-01
   3.0957956e-01   1.6821528e-01  -3.5928244e-01   9.4460758e-01  -9.7877223e-01   2.2122777e-01  -6.2112732e-01  -3.9420694e-01   2.7759793e-01   1.9176103e-01  -5.7929665e-01  -1.4247042e-01   4.1438157e-01  -4.8571220e-01  -5.5274065e-01   7.5650691e-01  -2.8534059e-02   6.0385463e-01  -6.0923939e-01  -7.9851245e-01  -9.4094876e-01  -5.3286536e-01   1.9889316e-01  -7.0951999e-01   6.9767048e-01   6.7918918e-02  -4.1321958e-01   6.8468777e-01  -6.9249905e-02   8.6439694e-01   1.5912601e-01   4.9070449e-01  -2.2248859e-01  -7.2260371e-01   1.2392015e-01   9.8367896e-02  -1.5043798e-01   2.3450553e-01  -2.2576876e-01  -5.2163177e-01   9.0756005e-01   8.6773313e-01   7.8203092e-01  -8.6714323e-01  -9.3239133e-01  -1.3558985e-01   7.7519737e-01   3.0185816e-01  -6.3473290e-01   9.6010485e-01   3.2982978e-01  -5.5972083e-01  -7.1102863e-01  -1.9339711e-01  -3.5116874e-01  -5.6280162e-01   4.2889622e-01   3.4207617e-01  -1.3980056e-01   7.4831156e-01  -7.4105581e-01   3.6149978e-01  -8.2126769e-02  -9.0535396e-01   2.9912700e-01  -4.7310981e-01   6.7807911e-01   4.9396025e-01   4.6335091e-02   6.3939117e-01  -1.2628919e-01  -9.4290058e-01   6.9386821e-01  -7.4772098e-01  -6.7288907e-01   7.7613262e-01   6.7667985e-01  -7.9789514e-01   8.2903442e-01  -7.6702972e-01  -9.8834719e-01   5.4914177e-01   8.2316852e-02  -2.3837599e-01  -4.1002894e-01  -6.3222232e-01  -6.8695193e-01   7.3563071e-01   5.0056279e-01  -3.4397949e-02   6.3738281e-01   8.6905660e-01  -2.0433055e-01  -4.9095343e-02   3.4224427e-02   5.9203657e-01   8.4458198e-01  -1.1017884e-01   6.4288287e-01   6.8630777e-01  -4.5848394e-01  -5.4160402e-01   6.8713202e-01  -9.2122129e-01   7.9263598e-02  -9.2788758e-01  -8.8206992e-01   4.4771867e-01  -2.1558538e-01  -7.2521082e-01   2.5513371e-01  -9.4679081e-01   6.2345958e-01   2.8171068e-01  -1.5331331e-01  -2.6838201e-01  -1.7180328e-01   4.9943571e-01   6.8619168e-01   4.7326943e-01   9.9479832e-01   7.7380822e-01  -1.9556717e-01   5.9521219e-01  -2.5600641e-01   1.1980630e-01  -3.3315587e-01  -8.0019180e-01   2.8250254e-01   7.2277981e-01   5.4344909e-01  -6.5379891e-01  -2.5416665e-01  -7.8832459e-01   7.5643495e-01  -6.1947247e-01  -8.8234199e-01  -3.4009646e-02  -2.9008665e-01   2.3652596e-01   1.3745269e-01  -9.5117380e-01   8.1618491e-01   5.4480214e-01   4.5727685e-01   4.7085478e-01   3.6199984e-01  -8.8411693e-01  -1.9443915e-01  -3.5487615e-01  -9.4407149e-01  -8.7189535e-01   8.8572806e-01  -8.1151768e-01  -8.5639599e-01  -5.9303832e-01   5.9406744e-01   8.3948265e-01   4.8501822e-01  -3.3020251e-01  -5.3823668e-01   1.5989598e-01  -4.6706033e-01   1.0376866e-02   1.8599489e-02   9.9847695e-01  -8.5087501e-03   1.7881225e-01  -9.4884890e-01   4.0116651e-01  -6.4446616e-01  -9.4902494e-01  -9.5429526e-01   8.1927424e-01   7.1273131e-01   3.5394927e-01  -1.4877571e-01  -7.8698239e-01  -4.0912338e-01   6.5921248e-01  -2.2803818e-01  -7.3013837e-01  -7.9332272e-01   2.9662740e-02   8.8655453e-01   3.1267786e-01  -6.9643123e-01   8.2634382e-01   1.4196701e-01   4.4574112e-01  -6.7135160e-01   6.5722885e-02  -9.9153359e-01   8.3404948e-02   1.7156186e-01  -6.1661461e-02   7.5496882e-01   7.6557161e-01  -6.2643097e-01  -1.9552513e-01  -2.5117098e-01   2.8874845e-01   3.8048953e-01   2.5013784e-01  -8.8266797e-01   2.7199245e-01  -6.7886840e-01   1.1842249e-01   5.3134644e-01   1.7259310e-01   4.7140702e-01   6.4054223e-01   1.6549367e-01  -1.4616142e-01   8.1424197e-01   9.7863590e-01   6.6241005e-01  -9.9426236e-01  -7.1821202e-01  -2.6062338e-01  -6.6058277e-01   8.1370001e-01  -2.4209444e-01   8.8251112e-01   4.7965710e-01  -8.4036550e-01  -9.6852771e-01  -8.7964260e-01  -5.4954082e-01  -8.5346118e-02   6.5832230e-01   4.1775195e-01   6.3427785e-01   1.1289965e-01  -6.1278117e-02  -1.2809581e-01  -9.1034542e-01  -1.8400994e-01   9.9324962e-01  -5.1058391e-01  -1.0595863e-01  -8.8362280e-01  -9.6592936e-01  -8.3284890e-01  -7.4482672e-01   1.0547607e-01   5.6525839e-02   2.9214352e-01  -1.2202179e-02  -3.6808526e-01   2.0020905e-01   4.7184380e-01  -8.2036019e-02  -2.3744118e-01  -4.6413755e-01   6.7618671e-01  -2.7950944e-01  -8.9924125e-01  -3.2473467e-01  -4.0495136e-01  -4.5670275e-01   6.0817991e-01  -5.0436129e-01  -7.3309813e-01   2.9587484e-01   7.3399303e-01   3.9552054e-01  -3.2547814e-01  -3.0239870e-01  -8.2533306e-01  -1.4403858e-01   9.0040744e-01   3.3608805e-01  -8.2789543e-01  -6.6392210e-01  -8.1342110e-01  -7.8756273e-01  -9.1589906e-01   1.0669481e-01   9.7426175e-01  -3.2398718e-01  -7.3495901e-01  -4.4716230e-01  -7.2476385e-01  -1.6508203e-01   5.9229550e-01  -3.0873537e-01  -6.2979712e-01  -9.8888544e-01   2.8405842e-01   9.4386462e-01  -3.8813997e-02  -6.6810535e-01  -7.6282359e-01   6.1832746e-01  -6.9207184e-01  -6.6498711e-01  -1.4538709e-01   1.0041315e-01  -2.6161772e-01   1.4477329e-01   7.1828054e-01  -3.1477495e-01   7.5362104e-02  -8.5623675e-01   3.5574434e-03   9.0983148e-01  -5.5114072e-01   2.3841198e-01  -4.6265218e-01  -2.6336437e-01  -4.1517053e-01   4.2614331e-01   1.6628731e-01  -4.5960392e-01  -1.6763701e-01   6.5723387e-01   5.6272350e-01   4.5198679e-01  -4.7376115e-01   5.6855744e-01   1.1437357e-01   6.5366900e-01   9.7283420e-01   6.9858749e-01   7.5160971e-01  -5.7047917e-01   5.4262222e-01   8.8949672e-01   8.3333904e-02  -9.3532203e-01   2.1988347e-01  -6.5675295e-01  -7.0852154e-01   4.9790778e-01   6.8247882e-01  -1.4235434e-01  -5.5133094e-02   6.6489041e-01  -5.8721495e-02  -7.1606392e-01  -2.5852836e-01  -4.1605516e-01   5.8158386e-01   5.3965742e-01   8.7678804e-02   2.8525002e-01  -8.3913900e-02  -7.9545020e-02  -1.9359218e-01  -7.1647675e-01   1.2663437e-01   3.8707314e-01   5.2249338e-01   2.5874831e-01   2.5726443e-01   1.4417260e-02  -9.0978019e-01  -2.8634007e-02  -7.8358284e-01  -8.8940363e-01   3.0642387e-02  -6.4356072e-01  -1.2964333e-01   4.9717183e-01  -7.5711508e-01   4.2468754e-01  -3.8592895e-01   6.9411236e-01   4.8518514e-01  -4.6841950e-02  -3.8215305e-01   5.3089017e-01   7.3336431e-01  -1.3209872e-01   9.4005626e-01  -7.8153816e-01  -1.9298228e-01   4.5790126e-01   1.8802038e-01  -6.2644638e-01   8.5752596e-01   9.4914054e-01  -2.6366840e-01   7.8477624e-01  -6.1323068e-01  -6.1832215e-01   7.5296154e-01   9.5980713e-01   2.1207322e-01  -6.6679234e-01   8.4313653e-01   6.7357728e-01   6.0056734e-01   6.2872949e-01   6.0173392e-01  -2.3156818e-01   9.6866858e-01  -1.9610940e-01   2.4432542e-01  -4.1343783e-01   2.8570321e-01  -3.6493239e-01   8.3522270e-01   6.6309026e-01   1.7158307e-01   9.0949310e-01   4.8757128e-01  -5.1357752e-01  -9.1588340e-01   3.9751540e-01  -5.8110202e-01  -5.5966669e-01  -8.2724689e-01  -1.5980263e-01  -4.4348690e-01  -7.5409856e-02  -7.7323659e-01   7.4499053e-01   2.2019831e-01  -4.7453904e-01   6.7354136e-01  -4.7975732e-01   8.1231546e-01   3.6572974e-01  -3.7304416e-01  -4.3681512e-01  -1.1350444e-01  -9.9991134e-01  -2.7463320e-01  -4.4179166e-01  -3.1240587e-01   5.1961995e-01   9.8450658e-01  -9.2799833e-01   2.6028436e-01   7.4750667e-01  -2.2858269e-01  -2.6233473e-01  -3.9219473e-01   3.8135267e-01   4.4805029e-01   5.3809238e-01  -7.9768062e-01   9.9028300e-01   6.7069350e-01   6.5639891e-01  -2.7930454e-01   6.3665580e-01   3.5272469e-01  -3.3032735e-02  -8.0755083e-01   3.4095880e-01   9.8019063e-01  -8.4246832e-01  -5.3443699e-01  -6.6196458e-01  -5.6174862e-01   5.0492446e-02  -5.6592127e-01  -8.6630745e-01   7.2815098e-01   7.6435672e-01  -2.4704970e-01   6.0617320e-01  -7.6327798e-01   2.4597542e-01  -7.6874310e-01   2.9557837e-02   6.4439648e-01   6.5756684e-01   1.8106079e-01   4.9579758e-01  -8.8600710e-01  -8.8020280e-01   9.8093707e-01   1.6216264e-01  -3.3368241e-01  -5.2274447e-01  -1.6614963e-01   9.7320968e-01   8.5870863e-01   2.6227734e-01  -5.2233528e-01  -6.8907464e-01   3.1575303e-01   9.9113659e-01   8.4885675e-01  -8.0067723e-01  -8.4833252e-01   4.1838193e-01   3.6100426e-01  -1.5615570e-01   5.0774610e-01  -4.1931199e-01   2.8230785e-01  -7.0673941e-01  -7.1059956e-01   3.9574358e-01  -2.3283312e-01   9.8559948e-01  -3.4445933e-01  -4.1773003e-01   6.8131777e-01  -6.6340824e-01  -9.1563509e-01  -8.5484392e-01  -4.9924724e-01  -4.6221898e-01  -1.0799649e-01  -7.3975843e-01  -2.7568629e-01  -7.7904922e-02   8.2246190e-01  -2.7033367e-02   3.3992340e-01   5.4659027e-01  -9.0373553e-01  -5.1802681e-01  -2.5663620e-01  -2.3599956e-01  -2.2963740e-02  -7.2411729e-01   6.6992104e-01  -1.0240330e-01  -7.4517584e-01   5.4158473e-01  -6.3672056e-01  -8.1119996e-01  -4.6210120e-04  -8.6678920e-01  -9.4977868e-01   6.3547434e-01   5.1312632e-01  -6.5476499e-01  -7.9784640e-01  -7.6328908e-01  -6.0875002e-01  -9.3339503e-01  -9.0046928e-01   2.7889355e-01  -8.7912763e-01   2.7363764e-01  -8.2230591e-01  -5.4576736e-01   7.1479242e-01   4.9167646e-01  -4.7907809e-01   1.6505377e-01  -8.0648458e-01   7.8666683e-01  -8.7323281e-01   8.3222682e-01  -4.4322055e-01  -1.4057133e-01   9.8127000e-01  -6.2198943e-01  -5.3224931e-01  -1.0797445e-01  -7.4512762e-01  -9.0434625e-01  -7.9076207e-01   6.7848270e-01   2.4970617e-01  -8.8437568e-01   7.5884084e-01   7.7997853e-01  -8.7083445e-01   9.6680235e-01  -5.8745006e-01  -2.1135419e-01  -4.9732770e-02   2.3533761e-01   7.9120934e-02  -7.5430788e-01   5.2572080e-01   8.3139665e-01   8.8554686e-02   2.8439260e-01   9.0503624e-01  -1.7726598e-01   9.5620253e-01  -3.2042440e-01  -5.3941503e-01  -8.6492214e-01  -6.6282456e-01  -9.9700243e-01   1.0431117e-01  -4.0427786e-01   6.6777727e-01  -8.5656907e-01   4.7934941e-01   2.7011101e-01   1.9659223e-01  -3.6938552e-01  -3.2641933e-01   8.4496234e-01  -9.5856119e-01  -5.5041571e-01  -5.6641445e-01   9.4979512e-01  -4.8939470e-01  -8.8986369e-01   3.6271875e-01   2.6218376e-01   1.1360151e-01   2.1189831e-01   5.4316362e-01   5.9036689e-02   6.1914262e-01   7.4396604e-01   7.8673356e-01  -5.2147285e-01  -5.8422215e-01   3.2037013e-02   2.4258043e-02   5.9581126e-01  -5.3636226e-01   6.8099716e-01   2.2672783e-01  -5.8829433e-01   6.3768063e-01   9.3855154e-01  -5.9636401e-01   8.5585976e-02  -5.9450153e-01  -4.4370639e-01   4.6458160e-01  -6.4512631e-02   7.4302384e-01  -8.8007010e-02  -6.9003095e-01  -1.6751472e-01  -9.3168925e-01   5.0319417e-01   4.1355351e-01  -4.3411264e-01  -9.0456632e-01  -9.0703716e-01  -7.2288081e-01   1.1817142e-01   3.3286581e-01   3.6772991e-01  -2.7909259e-01  -9.5424707e-01  -6.9544130e-01  -5.3630508e-01   6.0241698e-01  -9.3814570e-01  -6.0593516e-01  -4.1716613e-02  -5.6236506e-01  -7.3749858e-01  -5.3456222e-01  -3.9303580e-01  -7.4607550e-01   7.9051180e-01   4.3293249e-02  -7.6553872e-01  -6.6925782e-02   4.6399235e-02   3.2869101e-01  -2.1350503e-01   5.2225176e-01   2.6060210e-01   3.6840655e-01  -6.6105276e-01   5.6136733e-01   7.1236340e-01  -8.7937856e-01  -5.3016690e-01  -1.7163722e-01  -3.8147331e-01  -5.5471018e-01  -4.1393591e-01   2.2602527e-01   4.9094528e-01   4.0776769e-01  -5.8697451e-01  -9.6548760e-01  -2.6987210e-01   9.4801427e-01  -1.8995040e-01  -4.8512635e-01  -1.3057247e-01   7.5591266e-01   4.7004549e-01   4.4511405e-01   3.9445859e-01   4.4474684e-01   3.2939666e-01  -5.1934951e-01   1.5472807e-01  -3.2381839e-01  -5.4268301e-01   9.4426962e-01   3.1398371e-01  -3.7669453e-01  -7.8034267e-02  -8.4416671e-01  -8.9464543e-01   7.1293161e-01   5.5980126e-02   9.7957535e-01   2.5171214e-01   9.8113285e-01  -5.6967261e-01  -8.8243393e-01   1.2492047e-01   3.5702679e-01   2.5607508e-01   1.3733255e-01  -9.6634201e-01   5.7487058e-01   1.4918809e-01   4.5039605e-02  -7.4769235e-02  -5.0538284e-01  -6.7511778e-01   6.7476958e-01   1.2209440e-02   5.3084868e-01  -2.1456850e-01   1.1661245e-01   5.4442982e-01  -1.8026279e-01   2.8523101e-01   1.2267658e-01   4.1566270e-01  -6.2084291e-01   8.3905531e-01  -2.1072219e-01  -6.5456120e-01   3.4008913e-02  -1.5328171e-01   6.1635223e-01  -1.0053267e-01  -3.4681760e-01   5.8528539e-01  -6.6920400e-02  -8.7246510e-01  -3.8179878e-01  -8.7466383e-01   7.3002268e-01  -4.7356292e-01   8.2607048e-01   4.3130717e-01  -9.4123224e-01   1.4640049e-03  -8.9204116e-02  -8.8332624e-01   6.1297359e-01   5.2331514e-01  -3.5647301e-01   2.2739236e-01  -8.8041151e-01  -6.7864142e-01  -3.7944397e-01   3.1091789e-01   5.2180804e-01  -7.7457380e-01   8.1327682e-01   3.5569922e-01   4.0099920e-01  -7.1189727e-01  -1.7950103e-01   1.2465398e-01  -3.0980606e-02   2.4132445e-01   1.0938434e-01   7.8663570e-01  -9.5287468e-01   2.2235586e-01   5.7276747e-02   9.3577490e-01   2.2201360e-01   2.1888664e-01   8.9177419e-01  -5.0795891e-01  -1.6013011e-01   3.5784600e-01  -9.1297200e-01   6.8568839e-02   3.9234062e-01  -4.1790935e-01  -8.3821846e-01   8.1964855e-01  -2.1532064e-01  -9.8771967e-01   7.5743318e-01  -9.3483346e-01   7.7958862e-01  -4.5837476e-01  -8.5453381e-01   1.6934170e-01   1.9535214e-01  -3.5206180e-01  -7.2891531e-01   2.6572082e-01   4.4635836e-01  -7.4757658e-01   1.2740717e-01   3.9303107e-01   6.3111162e-01   1.2639476e-01   2.3996749e-01  -3.8654301e-01   3.5530825e-01   9.1621595e-02   4.5103653e-02   1.8617274e-01   5.4905035e-02  -2.7428669e-01   6.9909526e-01   7.8007858e-01  -1.8851763e-01  -7.0722829e-01   9.6497394e-01   3.9739985e-01   9.1002086e-01  -8.8156430e-01   2.1119395e-01   3.2056094e-01   6.5279948e-01  -3.1071126e-01  -6.5366044e-01   3.5863944e-01   8.1562117e-01  -7.5258466e-01   6.0670153e-01  -9.9294843e-01   2.5171279e-01  -2.6825644e-01  -5.0914683e-01   2.7495557e-01  -7.9729844e-01  -5.9239792e-01  -8.6086352e-01  -8.9093879e-02  -2.2318563e-01   8.2548091e-01   2.3670227e-01   6.1843534e-01   5.6907604e-01   2.4915232e-01  -6.9235718e-01  -6.1364087e-01  -3.5206032e-01  -4.6516296e-01   9.5487555e-01   8.4211256e-01  -4.2199625e-01  -2.3657183e-01  -1.7774317e-01   3.6430282e-01   2.5898022e-01  -8.1064908e-01   6.3384475e-01   7.9928407e-01   6.2653028e-01   5.0433759e-01  -6.6251363e-01  -6.7154888e-01   3.1663769e-01   5.4725539e-01  -4.3612703e-01  -4.5027670e-01   1.4371913e-02   4.5372514e-01   9.2385603e-01  -3.2798051e-01  -9.2156828e-01  -5.2723533e-01   8.8840710e-01  -8.5449644e-01  -5.2953300e-01   7.9830982e-01   6.2393167e-01   4.2233285e-01  -4.0821309e-01  -1.1107759e-01   7.1463647e-01  -1.8091298e-01  -8.6984375e-01   8.4047874e-01  -2.3226089e-01   8.7488984e-02   6.8499234e-01  -7.3303345e-01  -8.5228944e-01   3.9226124e-03  -5.8840917e-01  -1.1913762e-01   1.3340538e-01   5.4984317e-01  -3.3836044e-01  -2.3795123e-04   1.3180365e-01   1.0007558e-01  -8.4203528e-01   2.9430114e-02   8.7732210e-01   7.8939788e-01  -2.8736646e-01   2.5411963e-01  -8.7446646e-01  -2.9438474e-02  -5.4094156e-01   8.5896020e-01   1.2506092e-02   7.3307915e-01   5.2878627e-01  -5.3991173e-01  -5.4889015e-01  -3.4248126e-01  -3.0974621e-01  -2.3355267e-01  -4.5410532e-01   4.0143929e-01  -6.3271641e-01  -6.9616415e-01   4.7091258e-01  -4.1608030e-01  -2.3577619e-01   6.7871434e-02   1.8797464e-01   8.6982942e-01  -9.4691059e-03  -9.6925081e-01  -3.9344435e-01   6.8618067e-01  -9.9374573e-01   9.6718340e-01  -2.8073067e-01   9.3244247e-01   6.9415171e-02  -4.8358876e-01   3.6453031e-01   7.9034484e-01  -6.9515596e-01  -2.2276521e-01   2.6974027e-01   1.1173815e-01  -7.3154443e-01  -8.8010298e-01  -8.6001442e-01   5.1540901e-01  -3.5552172e-01   8.3910209e-01   5.4627770e-01   2.5930816e-01  -2.4404164e-01   6.3139250e-01  -3.3644848e-01   8.6180260e-01   5.0336198e-01   7.9599890e-01   7.3433939e-02  -2.6105979e-01   8.5536875e-01   2.9243275e-01  -5.7599083e-01  -5.9067984e-01  -9.1953341e-01   9.6184442e-01   9.2590612e-02   1.6100746e-01   8.9325652e-01   5.8970432e-01   1.2575447e-01   3.7141581e-02  -6.2688729e-01   7.0764223e-01  -4.0450071e-01  -4.6018444e-01   3.3915304e-01  -2.2517332e-01   1.9302143e-01  -4.2617663e-01  -4.7210608e-01   3.0530412e-01   3.0576669e-01   3.2917243e-01   2.7102752e-01   8.9807294e-01   2.0888413e-01   2.2177407e-02  -2.2252128e-01  -1.9326794e-01   1.5778433e-01   5.3098650e-01  -8.1769448e-01  -3.5775243e-01  -1.9315998e-01  -7.7307294e-01  -8.0555940e-01   2.9234413e-01   1.0389185e-01   1.4023950e-01  -8.4541008e-01
  -7.0095791e-01  -8.0465292e-02  -1.8679114e-01  -7.5921817e-01   9.2616626e-01   6.2430677e-01   6.2429170e-01  -3.6672567e-01   6.3102617e-01  -2.1352942e-01   9.4383779e-01   1.1164216e-01  -7.7915418e-01   1.8917601e-01   1.1234952e-01   8.5415209e-01   1.6064752e-01   1.2046980e-01  -1.4893477e-01  -3.5241591e-01   8.8185743e-01   2.9521184e-01   3.6666265e-01  -6.1114352e-02  -2.0700798e-01  -1.5051073e-01   8.8568800e-02   7.2107468e-01  -7.9267469e-01   3.7414649e-01   1.1512563e-01   5.3303357e-01  -7.5125786e-01  -5.1135152e-01   4.0388075e-02   1.9016715e-01   5.3970479e-01  -1.9919947e-01   3.4093152e-02  -5.2535290e-01   1.9943124e-01  -6.7537066e-01  -4.9188968e-01  -6.3970434e-01  -4.5771377e-01   4.2580708e-01   2.9567876e-01  -5.5214982e-01   4.9297339e-01  -7.0212886e-01   1.6938421e-02   6.2842191e-02   7.4904812e-01  -7.5610794e-01   1.8449540e-01  -8.1808124e-01  -5.5979897e-01  -7.5108112e-01   6.1728657e-01  -2.2325995e-01   2.7396994e-01  -3.8754991e-01   9.4046781e-01  -4.5535766e-01  -1.9543994e-01   6.0376642e-02  -4.1934655e-01   1.4520118e-01   9.0981777e-02   1.5948301e-01  -4.1015829e-01  -4.7413481e-01   1.0544298e-01  -9.7037004e-01  -6.2793904e-01   5.6749910e-01   4.6712744e-01   5.9129023e-01   7.2603490e-01  -2.7592552e-01   2.5969187e-01  -8.3766809e-01  -8.4868417e-01   7.9680551e-01   4.0949774e-01   2.7570493e-01   2.2291237e-01   9.6809495e-01  -8.7941152e-01   1.3460870e-01   1.3142357e-01   8.1194783e-01   3.6335819e-01   8.4388704e-01  -7.9419601e-01  -5.5992114e-01  -9.1441754e-01  -2.1443285e-01   7.5797987e-01  -2.6597042e-01  -8.3267823e-01  -6.7970104e-01  -4.9910435e-01   9.5356123e-02  -7.5798114e-01   7.0779064e-01   8.2672030e-01   6.0133801e-01   5.8758455e-01   7.2562105e-01  -9.2632785e-02  -8.9307680e-01   8.4750766e-01  -7.3175836e-01  -7.4983869e-01  -9.1545767e-01   4.9850557e-01   3.3517650e-01  -9.5372090e-01  -7.1107390e-01  -3.9128320e-02   8.2976247e-01  -7.7230607e-01  -3.1432870e-01   4.1011046e-01  -5.6505083e-01   7.4599454e-01  -3.3812631e-01  -2.1697709e-01   5.3327554e-01   5.9853664e-01  -6.6337803e-01  -6.9970967e-01  -5.9513829e-01  -1.9656318e-01   2.3782515e-01  -6.1596370e-01   4.2161191e-02   5.6264152e-01  -2.2187585e-01   8.3255006e-01  -2.1574858e-01   6.9836393e-01  -7.4667482e-01  -2.5723413e-01  -5.5765075e-01   8.9640811e-02  -4.6417233e-01   3.5775513e-01  -3.2776207e-01   9.4351461e-01  -2.0400847e-02  -1.1331596e-01  -2.6420806e-01   5.9538473e-01  -8.5036987e-01   1.9292777e-01   9.3656228e-01  -7.1169753e-01   6.8790614e-01  -2.0332082e-01   4.9627194e-01  -6.5850852e-01   6.8789465e-01   9.3652991e-01   4.4426080e-01  -4.7419692e-01   6.2115262e-01  -7.2550302e-01  -8.0036747e-01   2.9703067e-02   7.1444167e-01  -7.4702432e-01  -1.4426960e-01   8.6531724e-01  -1.4600303e-01  -3.2391659e-01   2.8095640e-01  -7.5622247e-01  -6.4582461e-01  -1.4620696e-01   2.6997425e-01   5.2399611e-01   7.9443969e-01   8.1498124e-01  -7.2632968e-01  -5.3445601e-01  -8.1382586e-01   6.9942384e-01  -7.3669085e-01  -4.1936550e-01  -7.3262030e-01  -9.3591030e-01   8.9818432e-01  -9.0993533e-01   4.1501908e-01  -7.6145930e-01  -8.0835943e-01  -8.4096927e-01  -4.0958839e-01  -9.2484376e-01   2.3156071e-01   6.7329260e-01  -4.2668706e-01   6.0394442e-01  -9.9667635e-01  -1.6165304e-01   2.6471186e-01  -5.6649593e-01   8.2902291e-01  -9.8575509e-01  -2.0129071e-01   2.3505544e-01  -1.8106096e-01  -6.6375256e-01  -6.3775212e-02  -1.2472789e-02  -1.6272377e-01   4.5620002e-02  -7.4518530e-01   4.0212739e-01  -9.1534872e-01   9.1473268e-01  -5.4723388e-01  -3.6377732e-01  -3.7634170e-01   3.7142955e-01   4.0908097e-01  -3.4141544e-01  -1.4802340e-01   9.3372064e-01   3.7705231e-01   4.5631671e-01  -7.0397787e-01  -4.1162866e-01   1.7515072e-01   2.7689174e-01  -4.2674052e-01  -6.0866434e-01   7.0823232e-01  -4.3782309e-01   8.3349428e-01  -5.7801174e-01  -3.4654112e-01   4.0121109e-01  -4.2560880e-01  -1.5400582e-01  -3.9812805e-01   7.0231522e-02  -7.4185393e-01   2.1943811e-01   9.0568866e-01  -6.8451025e-01  -9.0320019e-01  -9.0465293e-01  -3.0894163e-01   3.7666911e-01  -1.2187430e-01  -2.5018408e-01  -9.8586873e-01  -4.0704094e-01  -4.4249218e-01   6.9890394e-01   4.5748013e-01   8.6231525e-01   3.7902682e-01   1.0227896e-01   3.5697603e-01  -4.0764626e-01   9.8663603e-01  -6.9988099e-01  -6.4671991e-02   3.0513578e-01  -2.1726988e-01   2.6066262e-01   3.8956054e-01  -7.0901539e-01   7.0870598e-04   3.1758101e-01   6.7597339e-01  -6.2860358e-01  -1.2905006e-01   3.1745703e-01   8.1861031e-01   6.1928231e-01  -3.1273671e-01   8.4742523e-01   2.4463888e-01  -8.4893253e-01  -9.0724153e-01   4.9830913e-01  -2.7371882e-02   8.9610304e-01  -9.3752209e-01   5.5453983e-01  -3.9796176e-01  -3.9189955e-01  -8.5300825e-01   5.8938004e-01  -2.2820024e-02   1.6550142e-01  -1.2456451e-01  -9.3729784e-01   5.3119239e-02   9.6441169e-01  -6.8856563e-01  -5.2574543e-01   9.5013977e-01   1.6631578e-01   3.2488510e-01  -2.8879379e-01   1.3435038e-01  -5.0327819e-01   8.6296463e-01   1.0038083e-01   4.8066825e-02  -6.5121775e-01   4.9933114e-01   9.1301390e-01   4.4263129e-01  -2.6969903e-02  -5.9508913e-01  -2.3644856e-01  -8.4111621e-01   9.4097274e-01  -7.8480440e-01  -6.4504532e-01   2.3672834e-01  -1.4728742e-01  -5.0253778e-01  -4.2635756e-02  -9.3403055e-01   9.0643531e-01   1.9926396e-01  -1.3883827e-01  -8.9401880e-01  -2.4644472e-01   4.5356721e-01   1.0675580e-01   7.6964866e-01  -8.9673849e-01  -9.5071205e-01  -4.3901116e-01   5.3621701e-01   7.7934110e-01  -8.8633333e-01   4.3907410e-01   1.0246220e-01  -7.7184525e-01  -1.2718884e-01   2.6437525e-01  -5.0884107e-01  -5.6101912e-01  -2.6808650e-01   3.0184831e-01  -8.9405537e-01  -8.9444138e-02   7.0119901e-01   1.3551574e-01  -6.7137087e-02  -6.4084802e-01   2.8836302e-01  -2.1221821e-01   3.2257129e-01  -7.7922700e-01   7.7742964e-01   3.7495940e-01   3.3347145e-01   1.5891095e-01  -4.6081760e-01  -4.0775137e-01  -9.5160626e-01   9.5578214e-01   5.7531287e-02  -8.9918869e-01   8.1548763e-01   5.1165618e-01  -9.2905049e-01   4.9170391e-01   1.3361508e-01  -4.1177763e-01   6.5164245e-01  -9.8668789e-01   6.5424912e-01  -3.6799954e-01  -4.8540820e-01  -7.2945894e-01  -9.3490114e-01   1.8797176e-02   6.0642134e-03   9.1652958e-01  -5.6664407e-01   8.6017019e-01  -5.4168655e-01   1.4345237e-01  -4.8198157e-02  -3.6336264e-01  -6.7464052e-02  -6.5203400e-02   3.2613497e-01  -9.9000525e-01   7.6648598e-01   2.5400866e-01   8.1810071e-01   3.2260091e-01   8.9321376e-01  -4.8137924e-01   3.3245738e-01   3.8140844e-01   9.3583076e-01   5.5151287e-02   5.4325257e-01  -3.9005987e-01   8.9430588e-01  -7.1495669e-01  -6.3312223e-01  -7.4845020e-01  -6.5579152e-01   8.3153559e-01  -2.6841828e-02   1.0533928e-01   1.1996195e-01  -7.2416100e-01  -6.1576960e-01  -9.3545447e-01  -1.9205079e-01   8.5608588e-01   3.5364474e-02   2.4601760e-01   9.3963707e-01  -9.4875155e-01  -3.6860186e-01   9.4992055e-01  -2.0777953e-01  -3.6609898e-01  -1.6826255e-01  -5.7198376e-01   6.9648582e-01   7.5077532e-01  -3.5536326e-01  -6.3411849e-01  -6.9199275e-01   9.7254300e-01  -9.6101849e-01  -1.4007104e-01  -6.8132662e-01  -2.3997838e-01   4.5742707e-01   2.3855852e-01  -6.9164188e-01   8.6269455e-01  -9.3202881e-01  -4.4853020e-01  -6.1524091e-02  -2.0269196e-01  -7.3118849e-02   9.6722240e-01   2.8335196e-01   2.2535971e-01   3.0337938e-01  -5.7504394e-01   9.4667516e-03   5.2861899e-01  -6.7996763e-01   7.1580318e-01  -3.1127478e-01  -8.4220070e-01  -6.7526555e-01  -5.2496995e-01  -7.7716906e-01   3.2974780e-01  -1.9496729e-01   8.1890244e-01  -5.3405313e-01  -8.1005559e-01   3.5120353e-01  -9.8490308e-01  -6.1336047e-01   1.4322439e-01   1.8929988e-01   2.8986548e-01   8.6438693e-01   4.6951773e-01   2.9070752e-01   3.5786052e-01   4.1569060e-01  -1.7156374e-01   5.9373242e-01  -8.9376267e-01   3.9062575e-01  -6.3170362e-01   8.3834412e-01   8.2296292e-02   3.2698587e-01   7.8541236e-01   3.1726284e-01   8.9904765e-01   7.1841871e-01  -5.1841310e-01   2.2963807e-01   9.8639757e-01  -8.4576487e-01   1.4939726e-02  -6.4449872e-01   1.2961365e-01   9.0889880e-01  -7.6604191e-01   4.1595792e-01   4.7947460e-01  -2.5893342e-01  -8.2035453e-01   3.0956888e-01  -2.9863865e-01  -6.5523420e-01   8.3858593e-01   6.4217060e-01  -6.4254368e-01   8.0598608e-01   5.8788862e-01  -4.5250631e-01   8.7698194e-01   8.5666706e-01   4.6247574e-01  -8.9315722e-01   1.9891669e-02  -9.0880571e-01  -5.9231963e-02  -2.6719265e-02   4.3127252e-01   6.4314719e-01   4.6425972e-01   4.2315202e-01  -5.3380702e-01   8.1640125e-01  -9.2348909e-01   6.4475835e-01  -7.3639341e-01   1.7749109e-01  -1.8953206e-01   7.3047773e-01   4.9013883e-01  -7.2128279e-01   6.9345985e-01   8.5785528e-01   4.7727201e-01   6.0190027e-01   4.5295714e-01  -1.9168784e-01  -5.4498047e-01   6.7739191e-01   9.7532628e-01   5.3052881e-01   4.7087052e-01   7.1083973e-01  -8.2477025e-01   8.6754041e-01  -5.3497956e-01   2.3853598e-01   4.8841895e-01   6.5321184e-01  -1.1013996e-01  -4.9732665e-01  -1.6272396e-01  -6.2111075e-01   6.2152393e-01   1.5639646e-01  -2.9526100e-01   6.4974811e-01  -8.0903012e-01  -4.9669687e-01   7.5294939e-01   3.1323670e-01  -2.4742652e-01   6.4430846e-01   2.6783677e-01   3.4410862e-01   1.8578622e-01  -5.4307784e-01   7.0107492e-01   1.5342950e-01   5.1377010e-01   8.4504178e-01   5.5998640e-02   7.6354505e-02   2.5718947e-01  -5.6445874e-01  -2.7531236e-01   2.5433585e-01   7.3094355e-01  -4.3058605e-01   1.5086394e-01  -3.7066252e-01  -8.4302178e-01  -4.5831975e-01   7.5017258e-01  -2.9936721e-01  -1.4413218e-01  -8.7831697e-01   6.5317284e-01  -1.7277996e-01  -1.1739133e-01  -3.5544502e-01  -2.9426203e-01   4.2012806e-01  -7.4927509e-01   6.4696170e-01  -2.1134106e-01  -7.7283611e-01  -2.6484224e-01  -5.1760166e-01  -7.6204635e-01   9.1145341e-01   5.7305705e-01  -3.2748601e-01  -4.1312713e-01  -8.3600759e-01  -6.8596817e-01  -2.1852087e-01   7.3428771e-01  -3.7753487e-01   8.4016657e-01  -2.7897843e-01  -8.0650999e-01  -8.8816177e-01   7.8085549e-01  -4.8542708e-01  -3.4685948e-01   3.7304720e-01   1.6055299e-01  -6.7625746e-02   3.6620017e-01   3.3301496e-02  -5.1510636e-01  -4.0369359e-01  -8.1779946e-01  -4.2517222e-01  -1.8564457e-01   9.5913430e-01  -3.4727276e-01  -4.7616540e-01  -4.4464448e-01   2.8075107e-01  -3.4090526e-01   5.5959072e-01  -3.9775978e-01  -8.5675512e-01  -9.2366471e-01  -7.1069794e-01   9.4272442e-01   7.5409621e-01   7.0588789e-01   8.1755233e-01   8.0280624e-01   5.1300013e-01  -8.8127215e-02  -3.2036482e-01  -5.7029831e-01  -7.4642345e-01   8.6864888e-01   7.5018905e-01  -4.4510753e-02  -8.8788205e-01   6.1732915e-01   2.2396716e-01   6.6998912e-01   6.9574469e-01  -6.9011016e-02  -6.8522054e-01  -3.8914679e-01   3.7950208e-01   5.6862535e-01   5.6375725e-01   8.5575662e-01  -7.6246261e-01  -4.3340176e-01   6.8884590e-01   1.0050093e-01   7.9340153e-01   3.3476945e-01   2.7622093e-01  -2.0698558e-01  -6.0417129e-01   3.9344959e-02  -9.1414289e-02   4.3269376e-01  -5.6783282e-01  -7.2942931e-01   2.8950026e-01  -5.8551561e-01  -3.0551946e-01   3.6351342e-01  -8.0516380e-01  -6.2336680e-01   4.7097224e-02  -7.8222340e-01  -6.7934030e-02  -2.0461991e-01  -7.7716834e-01   1.7689267e-01  -3.6572413e-01  -5.2110680e-01   8.2685636e-01   4.0346539e-01  -9.8476538e-01  -6.5537303e-01   7.1775512e-01  -1.5203678e-02  -2.3792208e-01  -3.3646482e-02  -1.4929278e-01  -8.6907388e-01  -3.0884298e-01  -5.1081833e-01   3.3398499e-02  -8.6156238e-02  -5.0261291e-01   6.2461344e-01  -4.8163808e-01   2.1638118e-01   9.2445496e-01   8.4142919e-01  -4.9711831e-01   1.6369397e-01  -8.4121843e-01   3.4646527e-01   2.3941018e-01   5.6049014e-01   1.3094770e-01  -7.3125429e-01  -6.6040934e-01  -4.9168886e-01   4.1548452e-01  -4.6063842e-01   2.2573963e-01   4.6049105e-01   4.5406903e-01  -2.6984718e-01   3.3035967e-01   9.6897417e-01  -9.9760626e-01  -2.2504681e-01   1.4094731e-01  -7.6617976e-01  -8.8773946e-01  -5.8933897e-02  -2.7842875e-01  -4.5531272e-01  -6.2517293e-01  -6.4337461e-01   9.8073915e-01   7.4492264e-01  -3.0840793e-02   5.4907739e-01  -6.0395415e-01   6.6591374e-02  -9.6334942e-01  -9.7371260e-01  -6.0394438e-01  -3.7772594e-01   6.9999586e-01  -5.2487858e-01   9.3148748e-02   5.1576381e-01   9.0756983e-01   5.8032079e-01  -7.5733779e-01  -5.8102558e-01  -9.5477258e-01  -8.8840547e-01  -6.9500723e-01   2.9418494e-01   8.6947520e-02   9.9208926e-02  -1.5073736e-02  -1.0486803e-01  -7.8482518e-02  -4.2610039e-01   4.8838745e-01  -7.6592750e-01   9.5876714e-02   7.5231124e-01   5.6004395e-01  -7.3176633e-01  -7.1303223e-01  -4.9567011e-01  -8.7163205e-01   1.2383519e-01  -3.5523574e-01  -2.0938493e-01   3.8062292e-01  -4.9732823e-01  -4.2473055e-01   3.5331385e-01  -9.2167576e-01   3.6129474e-02  -7.1063526e-01  -8.4959553e-01  -1.8133943e-01  -6.6273523e-01  -6.5852291e-01  -7.1512020e-01  -4.6294438e-01   7.5771833e-01  -3.5502131e-01   6.5576999e-02  -3.2924292e-01  -8.5837431e-01   6.6970668e-01   3.4789026e-01  -1.9565390e-01  -3.2332814e-01  -3.7416010e-01  -1.5392986e-01   3.8010672e-01  -5.0655813e-01  -3.3465126e-01  -6.7539804e-01  -1.1387608e-01   9.5921707e-01   5.7594626e-01  -7.4571384e-01   2.1221660e-02  -5.9856191e-01  -2.5717190e-01   2.4610317e-01   4.7535886e-02   5.0391850e-01  -9.7900927e-01   2.1254449e-01   4.7481354e-02   8.2983300e-01  -8.1180349e-01   1.3450417e-01  -6.8477677e-01  -3.4960335e-01  -7.2656090e-01  -5.8586297e-01  -8.8106573e-01   1.0556521e-01   5.7196773e-01   9.1931052e-01  -3.8720496e-01  -9.9261817e-01   4.4796435e-01  -8.6352595e-01   9.1281665e-01  -5.6706210e-01  -6.1089129e-01   9.8335734e-01  -2.9841965e-01   8.9701535e-01  -3.4442118e-01  -4.2669635e-01   5.0325010e-01  -2.1958518e-01  -3.2676808e-01   4.3460030e-01   2.0491533e-01   2.2051540e-01   3.1710210e-01   3.4406320e-01   9.4489022e-01  -6.3652485e-03   4.3070898e-01   8.1607313e-02  -9.1612842e-01  -7.9172539e-01   4.1955091e-01  -1.4176543e-01   2.4255574e-01  -2.3631709e-01   8.6549402e-01   5.6856096e-01  -1.5335572e-01   9.1589711e-01   3.6449043e-01  -3.8098564e-01   4.5885026e-01   2.0135336e-01  -1.8439120e-01  -5.8272776e-01  -5.8611989e-01  -6.8034387e-01  -8.2762552e-01  -9.8521707e-01  -4.6394809e-01  -7.0072605e-01   9.0189798e-01  -3.1167197e-02   7.9182631e-01   5.1025029e-01  -2.1168073e-01  -6.0619831e-01   2.4055429e-01  -3.8309036e-01  -2.0115384e-01  -3.0844171e-01   2.8894402e-01   5.8055892e-01   2.3532256e-01   3.5818324e-01  -8.8689156e-03   7.0780155e-01  -9.9908591e-02   7.8618404e-01  -8.7180564e-01   7.3971502e-01   3.3109186e-01   3.1470493e-02  -1.6417360e-01  -8.0402664e-01  -8.3542005e-01  -9.3702054e-01   8.0367449e-01   6.9066562e-01  -7.1806730e-01   6.2981038e-01   8.6298054e-01   1.0746566e-01  -8.1171082e-02  -3.1987968e-01  -2.9527546e-01   5.2878472e-01  -9.6182130e-01   2.8406064e-01   6.5961562e-01   8.2920060e-01  -8.7656358e-01  -6.9534183e-01   7.5639323e-02  -2.0217169e-01   1.8717219e-01  -8.2624747e-01   1.1306373e-01   5.7583544e-01  -8.3846555e-01   2.7800628e-01   5.9679645e-01   7.2485566e-01   6.4270653e-01  -8.7636931e-01   5.7435640e-01  -8.7303467e-01   4.9779934e-01  -6.3380036e-01   9.6841823e-01   2.4780636e-01   1.0070990e-02  -7.3924756e-01  -8.1356381e-01  -6.1351042e-01   8.0897553e-01   4.4893991e-01  -4.9463655e-01   9.9181984e-01   3.2521311e-01   7.2266010e-02   2.0341403e-01  -6.0325633e-01   2.6725778e-01   1.7625289e-01  -8.1442032e-01  -8.9566057e-01  -6.0661719e-01  -6.0055135e-01   4.4377089e-01  -3.7576869e-01   7.9546062e-01  -5.4670132e-01  -1.3896743e-01   6.6234105e-01  -2.9378454e-01   9.1554890e-01   5.5332660e-01   2.9428035e-01   8.2705076e-01  -6.5907574e-01   2.0827035e-01  -9.2531423e-01   9.7887795e-01  -7.7961685e-01  -8.0055369e-01   4.1181390e-01  -7.0633515e-01  -4.1592637e-01  -4.4478638e-01  -8.6655460e-01  -6.8612272e-01   6.6680474e-01  -4.0956234e-01  -9.2944057e-01   8.5924681e-02   5.7721564e-01  -3.3912574e-01   9.9942242e-01   4.1613278e-01   3.4193311e-01   7.4408287e-01  -9.3606986e-02  -1.6166176e-01
