   1.2014319e-01  -7.5650300e-01   6.7465981e-01  -4.5820105e-01   2.6637249e-01   8.7927620e-01  -9.3746125e-01   2.9737819e-01  -5.7706698e-01  -4.5933031e-01  -6.5226153e-01   6.4570235e-01  -8.2585778e-01  -3.5090701e-01  -2.6402571e-01   3.7664032e-01   2.3096979e-01  -9.9753409e-01   3.2751057e-01  -2.6609440e-01  -4.6015399e-01   8.7591918e-01   5.9818807e-01   8.5051120e-02   4.0886565e-01   2.3695035e-01  -5.6422566e-01   2.8818697e-02   6.3415010e-01  -1.8496144e-01   4.7386361e-01   9.7500756e-02  -4.3126920e-02   6.9956052e-01  -9.2991042e-01   8.2706849e-01  -1.7078895e-01  -8.8780289e-01  -4.6643908e-01   7.3218159e-01  -5.0002060e-01   3.8928543e-01   5.7618162e-01  -5.5767296e-01  -7.8380102e-01  -4.1565007e-01  -9.2309545e-01   1.1553146e-01  -9.4280828e-01   2.8951035e-01  -9.5294196e-01  -6.4289152e-01  -5.1070284e-01  -1.5058248e-01  -9.1906716e-02  -9.4122230e-01   8.5134992e-01  -2.6570653e-01  -8.4763125e-01  -9.9089779e-01  -5.2240664e-01   5.5066519e-01  -5.1870385e-01   8.9262678e-01  -2.3035675e-01  -1.3416629e-01  -1.8134294e-01   4.3895246e-01   6.2385608e-01   8.8903644e-01  -8.8409886e-01  -1.8239482e-01  -1.6892391e-01  -6.0295014e-01   4.4704801e-01   9.1912075e-01  -9.1331819e-01   4.1202958e-01  -9.9014994e-01  -5.2490632e-01   6.0852206e-01   4.1632240e-01   1.4475067e-01  -2.1293819e-01  -3.9899439e-01   6.4192745e-01   7.7660839e-01   6.6979306e-01   3.2211311e-01   7.7484968e-01   8.1314923e-01  -9.1927578e-01   7.0677082e-01  -4.6663132e-01   6.2936231e-01   8.8098370e-01  -5.1431500e-01  -9.3869226e-01  -8.8373394e-01  -1.9506961e-01  -6.4894993e-01  -3.8094178e-01   8.6894129e-01   3.9978288e-01   6.9483436e-01   4.1279584e-01  -1.9790279e-01  -4.5690342e-03   3.2938679e-01  -6.5762098e-01   7.1118274e-01  -5.5229515e-01   3.0688213e-01  -5.0005095e-01  -4.9099861e-01  -9.7396024e-01  -4.4066962e-01   9.2323879e-01  -1.8228707e-01  -9.3259791e-02  -3.8115228e-01  -9.4297156e-01   6.0539491e-01   2.6689376e-01  -3.7263448e-02  -8.6768403e-01   2.4181967e-01   4.6532876e-01  -1.9379993e-01   3.9010389e-02  -7.4033364e-02  -3.0973300e-01  -1.1832238e-03  -8.6240817e-01  -7.1519851e-01   9.3004180e-01  -4.5361110e-02  -5.1206565e-01  -3.8762805e-01  -5.7684247e-01  -6.5701018e-01   1.8533929e-02  -8.3397826e-01   4.4501683e-01   6.2770745e-01   5.7305623e-02   2.6896629e-01  -7.9169046e-01  -4.7326650e-01  -4.5889585e-01   6.8817880e-01   1.3341140e-01  -6.0338614e-01   8.5634206e-01   6.6506211e-02  -9.7968235e-01   4.2052108e-01   7.4820564e-01  -9.2866093e-01   8.4596675e-01   8.0607775e-01  -6.4625187e-02  -9.4862445e-01   4.2879537e-01   7.2215535e-01  -9.0885316e-01   9.3498074e-01   4.8739773e-01   1.4871291e-01   6.3308607e-01  -7.1196115e-01   2.6946773e-03  -1.8973539e-01  -6.0957633e-01  -2.1270020e-01   4.8002796e-01  -4.0966740e-02   2.9208501e-01   1.9778285e-01   9.4089313e-01  -9.9788259e-01   7.3392834e-01   9.1491962e-01  -2.5987510e-01   8.6777140e-01   3.0150196e-01  -1.0270566e-01   3.9928214e-01   2.1641009e-01  -8.4480099e-01  -2.2228863e-01   6.4022573e-01  -1.9476336e-01  -4.6442999e-01   3.3562590e-01  -2.3240418e-01  -4.4255864e-02   5.4960386e-01  -6.5795771e-01  -5.5517702e-01   7.0657591e-01  -4.8928290e-01  -4.7014848e-01   7.1053657e-01  -7.1752801e-02   2.5252466e-01   1.1173236e-01  -3.9589630e-01   5.6540875e-01  -3.8832366e-01  -6.4334001e-01   8.6838349e-01  -4.6788205e-01   5.1445878e-01  -3.1519729e-01   3.5586242e-02   6.8946582e-01   2.7332710e-01   2.9043128e-01  -7.4089250e-01   9.6542965e-01  -3.4918376e-01  -5.6112922e-01  -9.8477309e-01  -4.0029342e-03  -3.5436363e-01   3.7008610e-02   6.9337392e-01   3.4316312e-01   8.5770010e-02   4.8711214e-01  -3.9199664e-01   2.7519054e-01  -7.9887674e-01   4.9126777e-01   4.8760469e-01   7.0604163e-01  -5.1051060e-01   6.3063149e-01  -4.1104723e-01  -4.7987949e-01  -2.7705834e-01   9.2499694e-01   3.4357717e-01   1.4674775e-01  -8.6173706e-01   3.6578531e-01   1.2090440e-01   3.8464433e-02  -8.1210294e-01  -1.6015623e-01  -8.0624723e-02   6.0674624e-02   6.5420343e-01   6.6833541e-01   6.8149343e-01   7.8886071e-01  -2.1836067e-01   5.7579420e-01  -2.3091447e-01   1.3135793e-01  -6.8472922e-01   8.6797128e-01  -4.8513210e-01   6.1401643e-02  -8.8675975e-01  -1.1379369e-02  -9.2617112e-01   2.4299352e-01  -5.2763636e-01  -1.6370370e-02   9.5164048e-01  -5.3038893e-01   8.5027442e-01  -7.6167456e-01   9.7570990e-01   9.6134510e-01  -5.1064758e-02  -9.5196412e-02   2.5978323e-01  -4.6287414e-01   6.1900360e-01  -2.8519196e-01  -6.5633037e-01  -9.1570086e-01  -2.4597939e-01  -8.6589736e-01   6.0090281e-01  -3.3229524e-01  -3.0524833e-01   3.6881573e-01   9.7093278e-01   7.6466776e-01  -8.1660311e-03   8.5925164e-01   6.0171812e-01  -7.3184748e-01   8.5040746e-01  -4.0170223e-01  -5.9152663e-01  -4.9868053e-01  -6.9959544e-01  -8.4450804e-01   5.3387260e-01  -8.6154999e-01  -3.4925162e-01  -5.4056642e-02  -6.5076122e-01  -8.2752740e-01  -1.1582751e-01   9.4455275e-01  -6.9910653e-01   9.4108106e-01  -7.1786497e-01  -5.1163261e-01   6.4548236e-01  -5.9424940e-01  -7.4526981e-01   3.6422632e-01   1.8244862e-01   3.8630939e-02  -4.8079600e-01  -2.6877658e-01   7.7644819e-01   6.3995913e-02  -4.7525485e-01   1.2617557e-01   6.3426091e-01   9.3821168e-01   5.2055295e-01   2.4931183e-01  -2.0428063e-01   2.2645644e-01   9.4592322e-01  -6.8221133e-01  -4.7661911e-01  -6.8806755e-01  -9.3651241e-01  -3.6186104e-01  -8.6668941e-01  -1.6142432e-01   2.3899819e-01  -6.6135880e-01   7.5037863e-01  -5.7048284e-01  -6.6540729e-02   8.9092683e-01  -1.8232065e-01   1.2231459e-01   5.0453189e-01  -7.9686468e-01  -3.7692420e-01   1.4038149e-01   7.5855104e-01  -5.1990753e-01  -4.6426816e-01  -8.0030065e-01   4.1106918e-01   2.1763444e-01  -2.1104623e-01  -7.9056547e-01   8.0316760e-01   1.9252605e-01   7.0558670e-01  -8.4605758e-01   8.1673853e-01   3.1066561e-01  -8.3137092e-01  -1.9033369e-01   6.2885598e-01  -3.0080204e-01  -2.5518658e-01   1.2703645e-01  -8.1082720e-01   9.8681722e-01   4.0805235e-01  -7.6852014e-01   5.8674654e-01   4.5188742e-01   2.2699397e-01   4.9261114e-01  -8.3038002e-01   2.7590357e-01   2.2341562e-01   5.7665476e-01   9.6235772e-02  -7.6115232e-01  -5.5968533e-01  -6.2010111e-01  -5.4669763e-01   2.5890463e-01  -5.8927855e-01  -4.2869071e-01  -4.3560956e-01  -4.0009267e-01  -5.9219226e-01   9.4881592e-02   2.2062863e-01  -3.8401522e-01   2.8340977e-01  -3.4963659e-01  -2.5760757e-01   5.3027698e-01  -2.2439576e-01  -1.9261446e-01  -2.7694737e-01   9.1190701e-01  -5.8675248e-01   2.2163606e-01   1.7760244e-01  -5.8542004e-01  -7.7357628e-02   4.3755450e-01   9.6451762e-01   7.2663935e-01   8.0448734e-01   1.6289633e-02  -3.5534382e-01  -9.9029023e-01  -3.7186859e-01   3.0646107e-01   7.8117404e-01   2.2638481e-01   9.3620928e-01   8.9014222e-01   2.3779661e-01  -5.1240785e-01   5.8325751e-01   5.7949233e-01   9.6646282e-01  -5.1937591e-01   3.3272613e-01  -6.1124513e-01   6.3904268e-02  -7.2854759e-01  -1.4863044e-01   9.1633235e-01   1.6958277e-01   7.2668774e-01  -4.8064780e-01   8.3831306e-01  -2.9573787e-01  -7.4414510e-01  -5.8337680e-01   6.8806203e-01   4.0089634e-01   1.9345261e-01   7.4846100e-01  -9.2157480e-01   9.6683514e-01  -1.1558974e-01   6.8998078e-01  -1.0426364e-01  -5.4335178e-01   7.4687379e-01   1.3085081e-01   1.6263605e-01  -5.6428102e-01  -6.2937479e-01   1.6117375e-01  -2.1725579e-01   2.0355504e-01  -3.1517217e-01   1.4053788e-01   6.9152508e-01  -4.1802712e-01   6.0765796e-01   2.5057327e-01  -2.3351488e-01   3.7785619e-01  -2.4998812e-01   8.0465044e-01  -7.7603674e-01   9.9451829e-01  -8.7290695e-01  -7.1131021e-01  -9.9600274e-01  -4.4399083e-01  -9.8830263e-01   6.6330025e-01   6.0619308e-01  -1.2809958e-02  -1.6766739e-01  -5.9457529e-01   6.0229410e-01  -1.5165700e-01   5.3267925e-01   3.2804257e-01  -1.4790769e-01   8.4327880e-01   3.2480117e-01   4.6464614e-01  -3.5242956e-01  -2.9202073e-01  -1.7283341e-01  -6.8419466e-01  -2.7466018e-01  -4.6575735e-02   5.4525291e-01   9.5052973e-01   1.3953830e-01  -2.5986953e-01  -3.9144456e-01  -9.2573368e-01  -9.6431267e-01   8.9001582e-01  -1.6659089e-01  -6.2146488e-01   2.5948270e-02  -3.6488714e-01   4.0420265e-01   1.8528884e-01  -7.2815285e-01  -3.9315092e-01   7.3715647e-01  -2.4162060e-01   4.9017808e-01   7.9030161e-01  -9.6321188e-02   1.6740795e-02  -9.5281692e-02  -6.2422196e-01  -1.6299797e-02  -2.7465368e-01   9.8779259e-01   6.8493931e-01  -9.2821079e-01  -1.8530389e-01  -1.2873312e-01   2.2549506e-01  -4.8594969e-01  -2.5242185e-01  -9.6917492e-01   9.0441482e-03   8.9405207e-01   9.2178911e-01  -2.9783915e-01   5.2500166e-01   9.7369884e-04   6.9417218e-01   8.4122698e-01  -3.8105790e-01  -6.2349682e-01   6.9932701e-01  -7.5269436e-01   2.5066023e-01  -1.4413040e-01  -7.8849771e-01  -9.6426700e-01  -9.4680994e-02   8.2298747e-01   1.0089102e-01   3.1667895e-01  -1.9362008e-01  -1.3393067e-01   5.7842283e-01  -3.5720526e-01   8.8563774e-01  -8.1338136e-03   3.1479947e-01  -8.8450158e-01  -5.2420907e-01  -2.4279638e-01   1.8967980e-01   1.1523177e-02  -2.4267007e-01   2.2146401e-01   7.3677986e-01  -7.8258591e-01  -9.3402722e-01   7.7516141e-01  -5.3506465e-01  -5.8717741e-01   7.8151443e-01   1.7854485e-01  -6.5032169e-01   9.8553491e-01   9.6089924e-02   7.7092570e-01  -1.8481422e-01   5.3186422e-01   1.0653710e-01  -3.9182518e-01  -4.9906972e-01  -7.5867530e-01  -9.5162571e-02  -7.7033382e-01  -6.7152015e-01   5.1418818e-02   9.1974155e-01   8.6607911e-01   1.7000858e-01  -5.5530857e-01  -1.1263219e-01  -2.2110210e-01  -9.1816263e-01  -8.2581526e-03   2.2248289e-01   5.6527757e-01   7.9646276e-01   3.4220206e-01   8.2515583e-01   9.8573954e-01  -9.3509727e-01   8.4440792e-01  -1.6849050e-01   5.0043562e-01  -1.2391542e-01   2.6542339e-01   9.7847586e-01  -8.4215609e-01  -9.2256965e-01  -1.5036777e-01   8.7936393e-01  -4.8297794e-01  -2.0225067e-01  -1.9301842e-01   5.6127552e-01  -5.7734996e-01  -7.5123818e-01  -7.6100760e-01   5.2202492e-02   8.0833410e-02  -4.8715552e-01   6.7021367e-01  -9.4677880e-01  -9.4825419e-01   6.0424293e-01  -9.8748728e-02  -2.7767189e-02   7.2313573e-01  -4.5248593e-01   4.1853999e-01  -1.8095702e-01   7.3811042e-01   1.2880931e-01  -6.2592969e-02   5.4323335e-01   1.7358348e-01   2.0199768e-01  -9.5376947e-01  -1.8323519e-01  -2.3288591e-01  -5.9485928e-02  -7.4392518e-01   9.5032521e-01   8.0185661e-02   2.2061842e-01   5.5440300e-01  -5.3605329e-01  -9.1550422e-01   8.2547085e-02  -8.4863728e-01   5.7842039e-01   1.3959542e-01   2.2411183e-01   9.8420429e-01  -6.5290542e-01  -7.9388824e-01   9.3747055e-01  -7.5193670e-01  -6.0466689e-02   6.4975409e-01   9.6428469e-01   6.1929918e-01  -1.6120944e-01   3.3139533e-01   9.6799224e-01   1.5286873e-01   5.6349246e-01   3.3784719e-01  -1.5388367e-01  -5.9731328e-01   9.9135002e-01  -4.3495716e-01   5.4240733e-01  -6.7485589e-01   7.7515245e-01   1.5881759e-01  -9.1383272e-01   7.5339314e-01   8.4241848e-01  -4.0561350e-01   2.2499335e-01  -5.0835266e-01   7.6129201e-01  -3.1551890e-01   5.3928492e-01   7.3773983e-01   5.2513504e-01  -9.3689715e-01  -1.8561436e-01   4.9441126e-01  -2.1405462e-01   8.1607714e-01   6.6693603e-02  -5.9788070e-01   3.9032955e-01   6.3314331e-02   9.7790138e-01   9.4037873e-01  -4.8142689e-01   5.0128736e-01   8.9552365e-01   5.0707611e-01  -8.2791663e-01  -6.5067103e-01  -6.3299328e-01   6.0975322e-01   3.9523464e-01   8.0228125e-01   8.2544132e-02   3.5241408e-01  -2.9191545e-01   7.1788572e-01  -4.8503430e-01  -5.8681143e-01   3.9051571e-01   2.3203097e-02  -4.4273669e-01  -9.2213592e-01  -1.3577170e-01  -1.4126606e-01   6.6051644e-01  -1.5422299e-01  -9.5068906e-01   4.3953635e-02   7.6887610e-01  -9.2117645e-01   1.9946076e-01   5.4680743e-01  -4.6562206e-01   8.9906906e-01   6.9774191e-01   1.8212249e-01   3.3870422e-01   9.2891870e-01  -4.2576282e-02  -6.5120629e-01   6.5221283e-02  -7.6832958e-01   9.2638662e-01   6.1107403e-01   3.8997324e-01   1.2668714e-01  -2.6061360e-01  -7.1090710e-01  -3.6262968e-01   9.6248624e-02   6.1978020e-02   6.5132602e-01   4.8495550e-01  -4.1118690e-01  -8.4958182e-01  -3.3883239e-01  -9.0869014e-01  -7.1884249e-01   2.2175486e-01   6.2759007e-02  -4.0796062e-01  -5.1371022e-01  -9.5513577e-01  -8.1321447e-01   9.7163064e-01  -4.3241621e-01  -6.6620353e-01  -5.8456092e-01   9.3424870e-01  -8.4678708e-01   8.2206263e-01  -4.3646097e-01  -2.8355398e-01  -6.7881597e-01   6.5641813e-01   3.0631835e-01   1.4607967e-02  -3.0909704e-01  -5.0302559e-01  -2.6430860e-01  -5.5044665e-02   3.2485363e-01   9.3940119e-01  -1.0300814e-01  -9.1175588e-01  -7.2534610e-01  -1.4302595e-01   4.3758792e-01  -3.6254347e-01  -4.3456547e-01  -7.6328227e-01   5.4705544e-01  -5.6887796e-01  -2.8072526e-01  -2.6943191e-01   3.2386606e-01  -3.2658609e-01   1.9588349e-01  -9.1819904e-01  -9.2779080e-01  -8.3550489e-01  -9.4639072e-02   1.6586024e-01  -1.2065580e-03   2.1186315e-01   1.0897697e-01  -7.8792260e-01  -5.6838211e-01  -3.9631981e-02  -4.0965598e-01  -4.5752649e-01  -3.1927350e-01   8.6769895e-01   4.3839837e-01   8.6167541e-03  -5.4846991e-01   3.2031139e-01   5.3959035e-01   3.6269040e-01  -3.0245803e-01  -6.5084594e-01  -6.3774779e-01  -4.2358366e-02   3.1890422e-01   8.9850465e-02   4.4809664e-01   5.6318090e-02  -1.2870872e-01  -3.6509559e-01   8.0013466e-01   7.0926227e-01   5.9330054e-01   1.1449288e-01  -6.7836750e-01  -7.7238056e-01  -5.8573926e-01  -2.9445439e-01  -5.2710514e-01  -1.1614919e-01  -6.1131423e-01  -1.5852443e-01  -3.0644344e-01   5.6819792e-01  -8.5640137e-01  -3.7080128e-01  -4.8328698e-01   5.0268649e-01   4.0273512e-01  -5.4098030e-01  -9.2840596e-01  -4.8848960e-01  -8.3955762e-01  -1.3899208e-03  -9.1371172e-01  -2.1330316e-01  -9.0857038e-01  -1.8046116e-01  -5.6749630e-01  -4.9857761e-01  -8.7376893e-01   9.8914298e-01  -3.7887840e-01   1.0523672e-01   3.7486584e-01   6.2688280e-01   3.0347123e-01   3.0342943e-02  -7.0942694e-01  -2.6424178e-01   6.4029094e-01   1.5938127e-01   1.3534323e-01  -3.0900863e-01   8.6543920e-01   3.3997867e-01   2.7318524e-01  -3.7041537e-01   6.4622911e-01   9.3038907e-01  -1.5319927e-01  -3.3699300e-01   1.4243370e-01   4.4328515e-01  -8.2333815e-01   6.6748794e-01  -6.3155925e-02   1.2120065e-01   3.5409789e-01   7.7903841e-01  -1.5331159e-01   5.6829243e-01   2.2983240e-01   6.6939573e-02   1.0784161e-01  -8.1634666e-02   8.0383004e-01  -8.0813025e-01  -9.7396294e-01  -5.0059560e-01  -7.7337680e-01  -1.5203430e-01  -2.8924114e-01   7.3211375e-03  -7.8337548e-01  -1.3896697e-01  -3.1023664e-01   1.1051729e-02  -9.9413719e-01  -8.4954613e-01  -8.9622127e-01   7.0356762e-01   6.6294353e-01  -6.3393706e-01   7.0062529e-01  -7.6863041e-01  -4.5664557e-01   5.7754811e-01  -7.8701920e-02  -5.9920408e-01  -5.9270710e-01   9.0705547e-01   6.6460075e-01  -2.6381878e-01  -5.2179077e-01   5.1992540e-01  -9.9777055e-02  -3.9919000e-01  -4.4387697e-01   2.5134479e-01   1.7432986e-01  -1.6828272e-01  -5.0799910e-01  -9.9137543e-01   1.0352470e-01  -8.8487067e-01   1.7674384e-01  -5.0733917e-01  -3.7870502e-01   1.6477191e-01  -1.2584939e-01   4.9637549e-01  -4.9596924e-02  -5.0508001e-01   6.7804613e-01  -2.4586444e-01  -1.1409729e-01   9.2148645e-01  -3.9079328e-02  -4.6394988e-02  -7.5948027e-01   8.4535378e-01  -4.6341622e-01  -3.8333466e-01   3.8173868e-01  -7.8303150e-01  -8.6531909e-01   8.1526867e-01   9.3729231e-01   4.0140844e-01  -1.6923861e-01  -7.0188189e-01   5.7394794e-01  -6.9372518e-01   2.9896477e-01  -3.1652234e-02  -7.1292066e-01  -5.4440704e-01   2.1793877e-01  -7.3194032e-01  -9.3055733e-01  -7.3307677e-01  -3.6859020e-01   2.0708185e-01   5.9739387e-01   1.8817107e-01   9.3766466e-01   1.2738620e-01  -3.8214903e-01  -9.0741014e-01   7.1844227e-01   5.1137414e-01   8.4169089e-01  -7.6813712e-03  -3.0994169e-01  -5.0015049e-01  -7.2065872e-01  -1.6097362e-01  -2.3186394e-01   4.1536680e-01  -5.7181871e-02   3.7851632e-02   3.7115911e-01  -3.1125788e-01  -7.5066452e-01   2.4940383e-01  -4.0825756e-01   5.6468670e-01  -8.4631580e-01   1.7134549e-01  -4.5015665e-01  -2.4580276e-01
  -2.4535491e-01   7.7125406e-01  -6.2723257e-01  -9.6550636e-01  -9.7463444e-01  -4.8024912e-01  -4.7532403e-01   2.6371854e-01   2.5941912e-01  -7.9544561e-02   1.1469832e-01  -9.2440993e-01  -9.1787271e-01   8.4879946e-01   2.9502762e-01  -5.8028677e-01  -1.6638059e-01  -1.4504115e-01   7.2210458e-02  -3.7920631e-01  -9.2976119e-01  -7.6259944e-01  -2.0845577e-01   4.4406538e-01  -2.8982900e-02   2.7224440e-01  -4.6602603e-01  -3.7236717e-01  -7.1585054e-01   5.1004732e-02  -2.7089724e-01   7.7160486e-02  -2.3129932e-01   7.1269600e-01  -2.1986573e-01   3.1263229e-01  -1.2699589e-01   9.3956157e-01  -5.6471595e-01  -5.3517018e-01   4.0046902e-01  -4.3738656e-01   8.8225801e-01  -8.7076905e-01   6.3508236e-01  -2.0418671e-01   4.7204925e-02  -8.4161675e-01   5.0827458e-02   4.4430403e-02   7.4878597e-01   1.2260391e-01   6.2466917e-01  -2.4143840e-01   8.0975335e-01   3.0819503e-02   4.8244289e-01   2.2281124e-01  -7.4269556e-01  -1.6460416e-01  -7.3802390e-02  -7.2753145e-01   8.1626930e-01   3.7090712e-02  -9.6978999e-01   1.2792024e-01  -3.8638213e-01  -3.3264277e-01  -7.7707760e-02  -8.8983244e-01  -1.7485043e-01   1.2570278e-01   7.4086275e-01  -1.1895591e-01   5.1990086e-01  -6.7323877e-01   3.0787605e-01  -8.3532368e-01   8.2749066e-01   9.9876781e-01   1.1058434e-01   9.3978505e-01  -7.4618363e-01  -6.6752300e-01   3.0377255e-01  -5.9567269e-01   7.6752945e-01   9.3238956e-01   3.4058854e-01  -8.5232469e-02  -6.2102269e-01   4.5202578e-01   3.5928585e-01   5.3870809e-01   5.4830360e-02   1.8612787e-01   1.1011932e-01   8.8184308e-01  -6.3615603e-01  -4.3261880e-01  -3.9859345e-01  -3.9926233e-01  -7.3409622e-01  -8.1606240e-01   8.0183213e-01   2.7147341e-01   6.9412311e-01  -1.1999666e-01   4.8442083e-01  -1.2413714e-01   7.2112802e-01  -7.8359442e-01  -9.9134692e-01  -9.5729282e-01  -5.4834801e-02  -8.5713257e-01   8.5365310e-01  -4.2225068e-01   9.6080068e-01  -2.6952211e-01  -6.6184538e-01   6.5963357e-02   9.2820714e-01   6.1370938e-01   3.5508617e-02   2.3869584e-03  -6.9450697e-01  -8.8757912e-01   1.9308378e-01   1.5458599e-01  -1.2125426e-01   8.3983823e-01  -2.5094241e-01   5.4038707e-01  -4.2040645e-01  -4.0781463e-01   2.4297674e-01   3.7811796e-01  -9.9840051e-01   3.3231786e-01   2.6167329e-02   3.7452085e-01  -1.7239265e-03  -1.4099662e-01   5.1788629e-02  -7.1820104e-01  -2.4763376e-01  -1.0466580e-01   3.4517723e-01   1.3915719e-01   3.9047590e-01  -5.7498527e-02   6.6290738e-01  -1.7379646e-01   8.7789525e-01  -5.2227832e-01   9.7364239e-01  -7.7482983e-01   8.5215169e-01  -1.4181464e-01   1.3538163e-02   9.2203839e-01   4.8935368e-01  -4.9512880e-01   9.6349748e-01   7.3102306e-01   9.3402309e-01  -1.3397021e-01   2.5725345e-01   3.8897704e-01   6.2140149e-01  -1.3416629e-01  -2.7332607e-01  -5.8270267e-01   1.2386417e-01  -9.1276711e-01   3.1336919e-01  -7.0179143e-01  -2.4711557e-01  -1.7604427e-01   7.5756607e-01  -3.8998464e-01   4.8172578e-01  -7.5641960e-03   6.1557982e-01   1.9556317e-01  -4.6547416e-01  -3.3794481e-03  -8.4550616e-01   3.9395506e-01   7.0960632e-01  -2.9775314e-01   4.2573346e-01  -1.3336669e-01  -1.5721259e-01   4.7891426e-01   2.6816387e-01  -3.2779103e-01   4.2424814e-01   6.2879827e-01  -9.0918804e-01  -5.0565809e-01  -5.1430512e-01   7.0347375e-01  -9.2884659e-01  -4.9133314e-01  -9.2285699e-01  -8.1401845e-01  -8.1773464e-01  -9.9831546e-02  -5.8456077e-01   5.7065828e-01   2.8313884e-02  -2.8455213e-01  -2.1614513e-01   7.5628312e-02  -7.7183836e-01  -4.9401621e-01  -6.1479260e-01   5.2542522e-01   6.1445157e-01   3.3200273e-01  -3.5815298e-01  -9.2826309e-01   7.6101265e-01   4.3825714e-01  -7.9229404e-01   6.6648272e-01  -7.1586056e-01  -2.4771887e-01  -4.1278205e-01   9.2589529e-01   5.7462008e-01  -7.5959344e-01  -4.5539777e-01  -7.6562022e-01  -2.6887082e-01  -9.8875495e-01   9.4048440e-01   4.2319600e-01   5.4284704e-01  -7.3250063e-01   2.2346052e-01  -4.4182667e-01   5.8112952e-01   7.6859168e-01   8.5687984e-01   2.3134275e-01   7.1898065e-01  -2.9707960e-01  -5.7624167e-01  -7.1926038e-01  -6.2338954e-01  -9.4306876e-01  -6.0018911e-01   2.8266610e-01   8.8591423e-01   1.0982052e-01  -2.5613131e-01  -1.5553579e-01   6.5024089e-01   1.8516046e-01   1.2343283e-01   6.6039326e-01  -7.9163137e-01   9.2298222e-01  -2.0148809e-01   2.4312665e-01   2.3427577e-01  -4.6682799e-02   9.3747734e-01  -1.1071430e-01  -4.4793210e-01   7.5212455e-01   6.2028871e-01   4.1975979e-01  -1.0263927e-01  -2.7473063e-01  -2.0875899e-02   7.1490699e-01   5.7617445e-01   5.3689425e-01  -7.7811055e-01  -3.8978170e-01  -5.9161715e-01   9.6026170e-01  -6.4672797e-01   8.6706038e-01   6.4276339e-01   6.0782834e-01  -4.6595844e-01   1.9155983e-01   1.6223364e-01  -7.9000087e-02  -2.7311155e-01   1.7638300e-01   8.1280782e-02   5.7031195e-01   2.6237723e-01   7.9936988e-01   1.0624867e-01   1.3544021e-01  -4.0277341e-01   9.4329797e-01   7.1043300e-01   8.0564131e-01  -5.4243938e-01  -8.2560953e-02   3.6604836e-02  -3.2905388e-01   5.2668481e-01   1.9440485e-01   4.1015068e-01   4.4737943e-01   5.6455571e-02  -7.9975408e-01  -2.0697400e-01   4.6669350e-01  -2.4086753e-01  -7.5769564e-01   7.8023825e-01  -5.4464114e-01  -7.9277711e-01   9.9042742e-01  -2.4594179e-01   3.8912892e-01  -9.2845098e-01  -9.1508671e-01  -3.6215819e-01   5.5672331e-01   7.2058633e-01   1.9225299e-01   5.0848818e-01   9.6701737e-01  -3.6789274e-01   1.6869555e-01   8.2798373e-01  -5.1302197e-01   7.5567837e-01   3.2503315e-02   3.6753119e-01  -2.2394408e-01  -9.8714721e-01   8.4383307e-02   5.2489326e-01   7.6291829e-01   9.4542476e-01   7.9887433e-01  -1.1105254e-01   1.2049080e-01   8.1240070e-01   5.8423780e-01  -4.4893201e-01   9.9518396e-01  -8.8587269e-01  -4.9351299e-01  -5.9093921e-01   8.1591502e-01   1.2319510e-01  -5.9157082e-01   6.0231408e-02  -8.1988761e-01   5.0159227e-01  -1.8612018e-01  -4.9719693e-01  -9.4770631e-01   5.0972812e-01   7.1758560e-01  -8.6375266e-01   9.9087646e-01  -7.6724030e-01  -4.3981743e-01  -7.5345433e-02  -5.4285684e-01   6.5620546e-01  -9.0266327e-01   9.8162267e-01   3.3144941e-01  -8.7392311e-01  -7.2152378e-01  -8.5539570e-01  -3.4591490e-01   1.8678348e-01  -1.7788421e-01   8.1838901e-02  -9.8232705e-01   7.8263532e-01  -6.8562944e-01   4.3388017e-01   8.2828101e-01   6.3458023e-01   6.0643668e-01  -9.2436000e-01  -1.9366086e-01   7.3551410e-01  -5.8556036e-01  -6.9884489e-01   4.9383467e-02  -5.6246735e-01  -8.8683004e-02  -4.7246131e-01   5.4988575e-01  -6.6741373e-01   1.4044155e-01  -1.2166436e-01  -6.9970480e-01   8.9422220e-01   2.0517045e-01   7.1132314e-01   3.7873698e-01   1.9886743e-01  -8.9768069e-01   9.3747227e-01   8.2916700e-01  -6.5110466e-01   7.4656745e-01  -8.7944460e-01   5.6602511e-01  -7.4529215e-02   9.0137635e-01  -8.9349757e-01   2.5650034e-01   4.3387094e-01  -4.8286050e-01  -5.0061762e-01  -7.8053101e-01   6.3781144e-01   6.5191387e-02   4.0685520e-02   6.1999466e-01   7.6420529e-01  -7.3167922e-01  -9.9561139e-01  -9.2467108e-01  -4.9871977e-01   2.0632218e-01   9.6425574e-01  -3.9152817e-01  -2.4592276e-01   4.0998365e-01   5.5408880e-01   5.5553160e-01   8.8864805e-01  -7.8282996e-01   7.4946118e-01  -2.6418766e-01  -6.0016094e-01   3.6017242e-01  -8.2131612e-01  -1.0864856e-01   9.7882569e-01  -1.6037756e-01  -6.6956130e-01  -5.4639983e-01  -8.1739923e-01  -8.2963462e-02   6.4463969e-01  -5.6441108e-01  -7.6813041e-01  -9.3964554e-01   9.6893033e-03  -7.5223771e-01   9.9462986e-02   8.4131722e-01   2.9410685e-01   8.5398630e-01   6.5647178e-01   7.0926086e-01   9.9556982e-01   2.4168485e-01  -7.8742248e-01  -9.1733203e-01   6.8674155e-01  -5.3490683e-01  -9.0702858e-01  -6.8927358e-01   5.6831996e-01   6.9751706e-01   7.1456092e-01  -5.5801156e-02  -9.4162622e-01   1.5817988e-01   9.3992403e-01  -1.7499334e-01   9.4799298e-01   6.0498449e-01  -9.3498985e-01  -9.6068072e-01  -3.0737498e-02   3.1587070e-01   7.0825713e-02   5.4613506e-01  -7.3923141e-01  -1.9454338e-01  -6.7147237e-02   8.6602266e-02   3.7080521e-01   1.7777318e-01  -4.7821183e-01  -3.8375090e-01   8.2043624e-01   1.7348736e-01   4.9094212e-01  -5.9426260e-01  -6.4457064e-01  -9.5959968e-01  -9.1334424e-01   4.5982077e-01  -4.1047036e-01   4.6730210e-01  -6.5378151e-01   2.7161715e-01  -1.9232037e-01   6.9554885e-01  -1.3845525e-01  -8.0658881e-01  -7.7863988e-01   4.5215037e-01  -8.7302206e-01   6.5427848e-01   7.8194184e-01   1.6866580e-02   3.4124282e-01  -3.7374451e-01   4.8509283e-01   1.6099502e-01  -6.8058488e-02   2.9633647e-01   5.5953145e-01   6.9515234e-02  -6.7859313e-01  -7.9576863e-01   1.4102093e-01   5.0182786e-01   8.2705149e-01  -6.3122204e-01  -8.7321240e-01  -7.7166072e-02   2.3821161e-01  -9.5750558e-01  -4.5764631e-01  -5.8068096e-01  -5.1971352e-02   9.6869916e-01   3.5193629e-01   3.3448072e-01  -9.7763370e-01   6.4360144e-01  -2.8346348e-01   6.5283272e-01  -6.4684747e-01   9.4037697e-02   6.7177223e-01  -2.2312661e-01   7.4620827e-01   6.9503968e-01   8.7059543e-01   1.9924421e-01  -6.1406810e-01  -1.6758776e-01  -1.9159740e-01  -1.4549676e-01  -3.5962459e-01  -7.3871090e-01   7.1876780e-01  -9.9824929e-01  -6.1507321e-01   6.2190769e-01   4.2517428e-01   4.0912050e-01  -7.6509527e-01   2.2292572e-01  -5.0012756e-01   5.8792354e-01  -1.8622528e-01  -4.2995244e-01   5.4474213e-01   3.0365872e-01  -6.8504236e-01  -2.8623322e-01  -1.5857970e-01  -9.2653846e-01  -2.2010874e-01   6.9615573e-01   4.0752739e-01   7.9969493e-01   9.4310768e-01  -1.3846871e-01   4.8642927e-01  -4.4357671e-01   8.8947903e-01   7.3262568e-01  -8.9350248e-01  -8.9705457e-01  -4.1485331e-01  -2.1860257e-01   2.6885065e-01  -9.4658256e-01   8.9442222e-01   1.5296667e-01   2.4636160e-01  -4.3490122e-01  -6.2880596e-02  -7.8533219e-01   6.5770591e-01  -3.7528278e-01   6.8721016e-01  -3.4981600e-01  -5.8344650e-01  -3.2703161e-01  -9.4762998e-01   3.3606699e-01  -9.0139611e-01   9.5343660e-01  -9.4365839e-01  -5.6825059e-01  -7.7356466e-01   8.5065922e-02  -4.8973498e-01   5.0026558e-01   5.3370554e-01  -4.1659066e-01   2.8164547e-01   6.8647556e-02   6.9110625e-01   6.7916403e-01  -4.2706897e-01  -7.0767797e-01   4.5627718e-02  -1.7249534e-01  -1.1043573e-01   1.5617471e-01  -6.1668417e-01   9.1222681e-01   4.3999427e-01  -7.6765364e-01  -6.8779186e-01   5.8468807e-01  -9.9518077e-01  -1.6708648e-01  -7.0162268e-01   6.2843400e-01  -9.8697483e-01  -4.3981674e-01  -2.0723893e-01  -4.5669438e-01  -5.9764257e-01   5.8311050e-01  -9.3403072e-01   9.9830855e-01  -3.5102376e-01   2.7797768e-02  -3.0026577e-01   9.0314837e-02  -9.9071948e-01   6.5074901e-02  -5.4627458e-01  -1.4038605e-01  -2.3648998e-01   1.6519954e-01  -3.3225821e-01  -6.2364316e-01  -2.2915688e-01  -9.3687204e-01  -9.4346393e-01   6.4050458e-01  -2.6337433e-01   1.5421013e-01  -9.4543408e-02  -9.9205744e-01  -7.5509793e-01  -5.4718286e-01  -4.4310297e-01   1.9890797e-01   3.3086291e-02  -1.0793690e-02   1.9781898e-01   8.4373560e-01  -1.3841227e-01  -5.1530452e-01   7.4231383e-01   2.5144026e-01   4.9879499e-01  -3.5123542e-02   6.3638971e-01   5.1361330e-01  -2.9328281e-01   6.9952063e-01   7.6209438e-01   3.3704521e-01   8.9335554e-02  -7.2938240e-01  -1.2868524e-01   1.8088041e-02  -2.8499800e-01  -4.2892073e-01   7.4386954e-01  -9.1589468e-01   9.8174644e-02  -6.7376206e-01   5.4857816e-01  -4.3169681e-01  -4.1820299e-02   8.2731638e-02  -4.0439241e-01  -9.4278012e-01   9.3612524e-01  -5.7821487e-01   4.2555665e-01   5.2682572e-01   3.5579747e-01   3.8430761e-01   4.8441005e-01  -8.2874478e-02   7.8520159e-01  -4.5717162e-01  -7.9114234e-01   9.7469394e-01  -2.3658328e-01  -8.2192003e-01  -6.3097235e-01   8.6423199e-01   2.6038606e-01  -5.8721442e-01  -7.7865066e-02   3.9202008e-01  -5.6078179e-01   8.8043294e-01   9.8073242e-01   2.5826597e-01  -8.3872470e-01   4.4358291e-01   7.7974745e-01   6.6635757e-01   3.5886710e-02  -6.4875152e-01   9.2391174e-01   5.1341693e-01   9.8050942e-01   9.5761480e-01  -3.2613187e-01   5.8320367e-01  -4.7875312e-01  -5.1998153e-01  -7.5085413e-01   2.2513432e-01  -8.0090517e-01   2.9339554e-01   3.0871581e-01   4.2512351e-01   8.2220880e-01  -4.0848873e-01   8.7927048e-01   9.0439835e-01  -3.5940551e-01   3.6907707e-01  -8.1537359e-01  -9.4743388e-01   8.4790171e-01  -9.0612403e-01  -5.3257491e-01  -7.7673819e-01  -8.2799915e-01   7.8669096e-01  -4.6431010e-01  -7.2468351e-01  -4.7542239e-01   9.6044262e-01  -8.8544075e-01   5.7367820e-01   5.7646142e-01  -5.2093561e-01   6.0291722e-01  -5.6106338e-01  -9.7855977e-01   2.7465288e-01   3.9454080e-01  -5.9609773e-01  -8.4868573e-01  -2.4875200e-01  -9.2273806e-01  -1.1385265e-02   8.5901885e-01  -6.2719349e-01  -8.2822300e-01  -1.7328847e-01   3.9939058e-01   1.6071490e-01  -8.4577049e-01  -5.8121327e-01   2.6312924e-01  -5.9316587e-01   8.8232101e-01  -9.6463733e-01   1.8402115e-02   4.6042867e-01   3.3608816e-01   6.3930979e-01  -1.9334462e-01  -9.6896964e-01  -4.2104723e-01   3.0116620e-01   2.1942484e-01   8.6923333e-01   4.0375279e-01  -5.3664332e-01  -9.3374773e-01   8.6609675e-01   3.8838103e-01  -3.8518632e-01  -4.6938447e-01   4.8845531e-01   7.0729315e-01  -6.3492462e-01  -6.0592612e-01  -1.5605678e-01  -6.7818752e-01  -5.5970267e-01   5.4845752e-01   7.0370886e-01   2.7742999e-01  -1.2371135e-01  -3.0967382e-02  -2.5615107e-01  -2.9330909e-01  -2.7198349e-01   2.8418728e-01  -6.0938666e-01  -4.7734977e-01   4.2191573e-01  -6.8130078e-01   8.3615291e-01  -2.2748417e-01   2.2823481e-01  -2.3063212e-02   1.0519267e-01  -7.4866143e-01   3.9622148e-01  -9.6266833e-01  -8.4986575e-01  -6.0679864e-01  -3.5538224e-02  -1.7792396e-01   5.9562607e-01   9.3566974e-01  -2.1354506e-01   8.7659662e-02   6.5524892e-01   1.9481232e-01   5.8497106e-02  -6.6563404e-01   3.1597192e-02  -9.6228168e-01  -6.1397532e-01   4.6541113e-01  -5.6365000e-01  -8.9678827e-01   3.0667183e-01   9.5863683e-01   8.4156451e-01   9.8577744e-01  -1.2511048e-01  -9.7299132e-01   1.3811124e-01  -6.1353474e-01   2.9090408e-01  -7.9163448e-01   3.7751817e-01   5.9521348e-01   7.0096926e-01   3.9956940e-01   8.4885563e-01  -8.4079917e-02  -3.5746728e-01   7.4113934e-01   1.4314749e-01   7.7916469e-01  -8.9269170e-01   9.3785376e-01   3.6074859e-01   6.3005131e-01   4.1812234e-01   1.7950693e-01  -8.1903623e-01   2.2407210e-01  -1.9030392e-01  -5.6249616e-01   9.5730687e-01  -1.3080540e-02  -1.2869281e-03  -1.1339688e-01  -1.5898411e-01   1.5046834e-01   7.7571089e-01   2.0372491e-01   1.3847677e-01  -7.2464248e-01   7.6480217e-01  -1.7770684e-01   9.1948531e-01   8.4525159e-01   6.6177327e-01  -4.1272241e-01   4.4290472e-01   9.9640602e-01  -9.3605384e-01   7.5479995e-01  -1.2543591e-01  -4.0923775e-01   8.9996677e-01  -7.5689907e-01   8.0626580e-01   5.2727781e-01   8.6650464e-01  -1.7631203e-01   4.2815359e-01   2.1210053e-01  -3.1918784e-01   1.6272423e-01  -7.2044564e-01  -7.7441138e-01  -7.5982602e-01   6.5597477e-01  -6.3137271e-01  -5.5625063e-02  -3.0964119e-01  -4.1673794e-01  -4.5461716e-01  -7.1152849e-01  -5.3908679e-01  -6.3055678e-01   9.4367703e-01   2.3730219e-01   7.5664989e-01  -7.8206580e-01  -3.7826993e-01  -4.1672142e-01  -8.9750846e-01  -8.9034767e-01  -7.9496177e-01   1.4507264e-01   4.9496187e-01  -6.2186428e-01   2.9936858e-01  -8.1718502e-02   6.8192752e-01  -3.6317310e-01   7.8772084e-01  -2.7366944e-01   2.9863966e-01   4.2114597e-01  -7.8312456e-01   7.3662186e-01   2.4141039e-01   6.8779245e-01   4.6459793e-01  -1.1599635e-01   1.1958567e-01  -9.8645322e-01  -2.3843771e-01  -3.1464139e-01  -5.2475867e-01  -1.0136129e-01  -2.2809035e-01  -8.9312629e-01  -2.5844826e-01   8.8177139e-02   9.6800423e-01  -2.1923587e-01   6.4538045e-01   1.9442511e-01  -4.7282625e-01   3.3536498e-01   9.6058356e-01  -3.5383841e-01   9.7449791e-01   5.2556936e-01   4.8198611e-01  -9.3696995e-01  -6.0969343e-01  -3.1343889e-01  -6.2278531e-01   9.4005252e-01   4.4093200e-01   2.0183549e-01   9.9275305e-01  -8.8075767e-01   4.0501280e-01   5.5508403e-01   6.3328028e-01  -3.1094520e-01   4.4344177e-01   3.1401131e-01  -5.7810380e-01   4.3077696e-01   2.6778987e-01   3.5078364e-01   7.9799735e-01   7.0001126e-01  -8.0590311e-01
   6.7799637e-01  -5.6204291e-01  -4.7447239e-01   7.4825255e-01   3.0420153e-02  -2.1387427e-02   7.0429808e-01   3.2296404e-01  -2.6758594e-01   2.1852973e-02  -4.0536942e-01  -6.4088294e-01   2.7064274e-01   2.3821716e-01   9.6654134e-01   2.4902240e-01   8.8459824e-01   7.6053988e-01   3.1961791e-01   5.1562100e-01  -7.8639996e-01  -3.7902481e-01   1.5628378e-02  -6.5730912e-01   9.1081039e-01  -5.0440783e-01   5.5269793e-01  -5.0199342e-02  -3.2230956e-01   6.4728843e-01  -3.1538364e-01  -6.4367674e-01   7.0089140e-02   3.6371690e-01  -2.3656030e-01   6.1431180e-01   4.0387867e-01  -5.9546228e-01   4.8467778e-01   5.1318399e-01  -1.1418652e-01   7.6033586e-01   9.4964469e-01  -8.9250223e-01  -5.4506530e-01  -6.6548077e-01   3.7483668e-01   6.0329307e-01  -5.4719569e-01   8.3321658e-01   2.6890549e-01   6.7031521e-01   5.5570464e-01  -9.6820304e-01   8.3358207e-01  -3.9364943e-01  -5.2378610e-01   8.0784582e-01  -3.7478299e-01  -6.9916797e-01   3.2029606e-01  -3.6705150e-01   5.3746874e-01  -1.4132551e-01  -3.4738681e-01  -1.9552303e-01   8.9026117e-01  -7.1609413e-01  -3.3781412e-01   2.2918232e-01   3.2353302e-01  -5.1900095e-01  -2.4458253e-01  -1.3676981e-02   6.9258907e-01   6.0070150e-01   9.3798758e-01   7.5678734e-01   7.0478639e-01  -3.5820577e-01   3.1274206e-01  -8.3946511e-01  -4.7280076e-01  -4.4673641e-01   5.1611733e-01  -3.1899016e-01  -7.9653332e-01  -3.9489371e-01   3.8370357e-01  -4.1256965e-02   9.6642287e-01   5.9446625e-01  -7.1659059e-01   9.1265096e-01  -7.6506728e-01  -3.6468478e-01   3.3670943e-01  -7.2180012e-01   2.6143524e-01  -2.6249712e-01  -3.4440602e-01  -1.2752529e-02  -7.5054903e-01   1.8971915e-01  -7.4768507e-01   5.0564760e-02  -2.8795604e-01   9.6816527e-01  -8.2718460e-01  -5.4933996e-02  -9.0889642e-03   8.1042143e-01  -5.8024320e-01   7.1807011e-01  -8.7432738e-02   8.6638210e-01  -5.7469466e-01  -6.5340412e-01   9.2117685e-01  -3.5323335e-01   2.3938150e-01  -6.3092843e-01  -4.2950113e-01   8.1939419e-01  -8.1952833e-01   3.1961880e-01  -7.6787657e-01   9.3726306e-01  -5.2127171e-01  -8.5084020e-01   2.7206975e-01   5.7773178e-03  -4.6624860e-01  -6.3850344e-01  -7.0970042e-01  -3.0072045e-01  -1.7692952e-01   9.8253987e-01  -1.9297962e-01   4.7499270e-02  -8.2959700e-02  -7.9072707e-01   4.9402800e-01   6.4250468e-01   8.3952612e-01  -4.6037710e-01   6.6454056e-01  -8.0833994e-01  -2.4497189e-01  -1.8000017e-01  -5.2128752e-03   7.5766604e-02   8.7546865e-01  -2.6839541e-01   6.5579562e-01   8.6725381e-02  -1.4560486e-01   2.5149187e-01  -4.1358381e-01   3.4561668e-01  -3.0300233e-01  -9.6502724e-02  -8.5418338e-01  -8.9785035e-01   8.8329319e-01   4.6293712e-01   6.4413050e-01  -5.2679167e-02   7.0518390e-01   5.0685284e-01   4.4163186e-01   1.6112270e-01  -8.9454470e-01   8.0787719e-01  -4.5713050e-01   1.4886263e-01   6.2251433e-01   1.3085106e-01  -5.0725553e-01   1.0784669e-01  -5.1867807e-01   2.0222734e-01   6.4741824e-01  -2.1745824e-01  -2.4075549e-01   2.9739971e-01   4.0948221e-01  -7.1078747e-01   5.2302308e-01  -2.6040565e-02   1.2129500e-01  -4.2789307e-01   7.4350528e-01  -6.8637402e-01   6.5437275e-01  -7.3260416e-01  -8.2751840e-01  -9.3561527e-02  -5.7077795e-01   4.8988317e-01   6.1914054e-01  -6.5434210e-01   6.5202180e-01  -7.0827403e-01   1.6961332e-01  -4.4940145e-01  -1.0956082e-01   3.9581101e-01  -4.0825878e-01   2.3648725e-01   1.1475889e-01  -7.8042499e-01   4.3210191e-01  -8.3407293e-01  -7.4450494e-01  -8.0051406e-01   1.8546133e-01   2.6746375e-01  -3.7779304e-01   6.9271831e-01   3.3876630e-02  -5.3265157e-01   7.5622208e-01  -5.2207562e-01   4.5441014e-01   9.6932545e-02   9.5588797e-01  -9.4865288e-01  -2.4919721e-01  -2.4796711e-02  -7.5088953e-02   2.7226113e-01  -4.2949669e-01  -3.0292078e-01  -4.5050900e-01  -9.1865949e-01  -2.2142582e-01  -7.5965771e-01   7.3585257e-01   6.5856751e-01   4.7767919e-01   1.4017082e-01   4.7721714e-01   7.3376735e-01  -7.5274997e-02   5.1866064e-01   9.5707525e-01   8.9942379e-01   9.0654898e-01  -3.6853685e-01  -8.2037100e-02   2.1455328e-01  -3.2067086e-01  -7.1524311e-01   9.0619947e-01   8.7199906e-01  -1.5765531e-01   2.2948137e-01  -5.3512494e-01  -3.8263830e-01  -8.2469498e-01  -6.4289693e-01   1.0789280e-01   5.5696353e-01  -6.1064545e-01   7.5711239e-01  -5.9934064e-02   6.1658990e-01  -6.4042004e-01   9.2452372e-01   1.7712444e-01  -5.6031816e-01   5.9114216e-01   9.8793995e-01  -7.7020501e-01   3.1088347e-01  -6.7388375e-01   4.6778978e-01   9.5195393e-01  -5.2454337e-02  -4.9234090e-01  -6.1033681e-01  -2.2109288e-01  -3.8361728e-01  -2.2871447e-01   3.3159675e-01   9.3013659e-01   2.5541302e-01   1.6962139e-02   6.6645665e-01   4.5797643e-01  -8.1702853e-01  -6.3712612e-01   8.6965664e-01   8.7421669e-01   6.1557389e-01  -2.6319893e-01  -5.9326608e-01   1.0001070e-01   7.7179210e-01   9.1302806e-01  -7.3730153e-01  -8.2546793e-01   8.2854623e-01  -3.5595119e-01   1.6197666e-01  -6.6355269e-01   3.3917314e-01   9.7542806e-01   2.1611528e-01  -1.3778280e-01  -2.8068118e-01  -3.1341462e-01   3.3596927e-01   6.0609814e-01   9.8354650e-01  -8.6030287e-01   5.9436768e-01  -8.0534624e-01  -6.0914727e-01  -6.0658744e-01   5.2767879e-01  -2.7447298e-01  -1.0375682e-01   6.7879432e-01  -9.9872349e-02   8.4210881e-01   6.2523562e-01   4.5202320e-01   4.5916582e-01  -5.5446315e-01  -8.9260602e-01  -1.0993239e-01   4.4094943e-01  -8.0032285e-01   1.3776044e-01  -2.9473759e-01   3.0964727e-01  -2.0375676e-01  -1.7821028e-01   2.8356219e-01   9.6674605e-01  -6.5965304e-01   5.0381967e-01  -8.8733690e-01  -3.1193260e-02   6.8235847e-01  -8.9293888e-02   1.7601073e-01  -6.5253967e-01   9.9564718e-01   2.5510178e-01  -5.9925249e-01  -8.7539131e-01   2.3670489e-02   3.9153140e-01  -6.7491035e-01  -1.4356924e-01   7.6846835e-01  -5.1695683e-01  -2.7428694e-01  -2.2666726e-01   5.6402052e-01   6.2520446e-01  -2.2505978e-01   1.8056120e-01   2.5458150e-01   3.6849802e-01   8.6762269e-01  -2.5623528e-01  -2.8989071e-01  -6.8775978e-01  -6.6122244e-01   9.6378673e-01   2.4372552e-02  -3.3232597e-01   5.6382416e-01  -1.0905950e-01   8.2213293e-01  -2.6613101e-01  -5.6694846e-01  -7.0425379e-01   8.1096036e-01   5.4654868e-01  -5.1815064e-01  -7.9680972e-01  -9.6902360e-01   6.4249269e-01  -9.8616242e-01  -1.5635809e-01   1.9120782e-01   8.5242097e-01  -8.9942646e-01   3.0303942e-01   8.9808528e-01   7.2313190e-01   9.7770972e-01  -4.9276510e-02   5.1963669e-01   1.2554383e-01  -1.7724661e-01  -1.0999816e-01  -3.2400797e-01  -1.8983666e-01   7.2593766e-01   5.6456100e-01   1.1752813e-01   4.2927112e-01   1.3042639e-02  -6.8160839e-01   4.4475004e-01   4.8497273e-01  -1.7962948e-01  -1.3003832e-01  -7.9769424e-01  -3.7080747e-01  -4.9137301e-01  -5.2958832e-01  -3.2676337e-01   1.1465869e-01  -3.0996281e-01   8.5909362e-01  -8.8002050e-01   8.5082841e-01  -9.4555984e-02   3.3121030e-01   4.9403088e-01   4.0507593e-01  -3.7071171e-01   2.5629925e-01   8.1558317e-01   8.6742086e-01   7.1717624e-02   1.8555122e-01   4.2728059e-01   9.5287959e-01  -4.3098430e-01  -6.1907241e-01   6.3860913e-01   9.6541656e-01  -5.5453966e-01   5.6799935e-01  -3.7333939e-02  -8.3175597e-01   1.8711868e-01   4.9945618e-01  -3.6629497e-01  -6.2152355e-01  -6.4011840e-01  -4.0786729e-01   5.5207640e-02   2.0039750e-01  -7.9690100e-01  -6.3653957e-01  -4.5141889e-01   8.7841691e-01   3.0467481e-01   1.3109607e-01  -8.3606863e-01   1.8243056e-01   3.1587488e-01   4.0719434e-01   1.1465875e-01   5.1904678e-01   8.0035534e-01   3.8514685e-01  -9.4936532e-01   5.2294143e-01  -9.8817580e-01   6.4190800e-01  -1.2731941e-02  -8.5173157e-01  -1.8061810e-01  -4.9762090e-02  -9.0035998e-01  -8.3877040e-01   1.3570052e-01  -6.9252389e-01  -4.9002834e-01  -4.7913080e-02   9.1433111e-01   9.4201124e-01  -5.2490929e-01   3.2938972e-01   7.6938840e-01   7.4452784e-01  -5.8009738e-01  -5.3496029e-01   6.1066005e-01  -7.3460347e-01   7.7790997e-01   8.3823135e-01   1.5335048e-01   2.9089611e-01  -1.9724215e-01  -4.4675423e-02   8.1445672e-01  -6.2064628e-01   6.4212004e-01  -7.3972119e-01   8.1524290e-01  -2.5752745e-01  -3.2454521e-01   6.1842170e-01  -6.9145603e-01  -1.4419758e-01   4.9994070e-01   4.6592044e-01   6.3502309e-01   1.2123642e-01  -8.4515924e-01  -7.5628465e-01   5.9812206e-01   5.3980361e-01   6.7597424e-02   6.0083916e-01  -9.5204270e-01  -9.7846907e-01   4.0978292e-01   7.5076365e-01   3.8022723e-01  -1.5374458e-01   7.1089434e-01   4.4550186e-01   9.0462151e-01   8.3477979e-01  -5.9957143e-01   9.2256655e-01  -9.2078907e-01  -3.9200622e-01   1.0360597e-01   4.5245597e-01  -3.9003989e-01   5.4899686e-01  -6.8407097e-01  -1.3594326e-01   4.0287875e-01  -5.1313112e-01   7.3972351e-01  -4.8292180e-01   8.7420830e-01   4.9934804e-01  -9.1204803e-01   2.9664347e-01  -1.0275432e-01  -2.5708770e-01   9.7618113e-01  -9.0405418e-01   5.3691011e-01  -1.5714173e-01  -2.0822610e-02   4.2363808e-01   3.9925150e-01   6.7059157e-01  -1.9838379e-01   7.4234544e-01  -5.1552929e-01   9.0030904e-01  -9.9238541e-01   9.3487110e-01   9.4693786e-01   8.9559735e-02   3.7834340e-01  -5.8999320e-01  -7.3145008e-01   9.3970921e-01  -7.0242090e-01  -1.0931207e-01  -7.6277667e-01  -3.1422924e-01  -4.9821151e-01   3.2135122e-01  -7.9113321e-01  -8.5067617e-01  -3.1721104e-01  -7.6969746e-01   3.7162682e-01   2.4403161e-01  -8.6881331e-01  -8.7378947e-01   7.1335704e-01  -9.4752544e-01   1.6870599e-01  -2.9852667e-01  -7.5858901e-01  -5.9722780e-01   1.2915745e-01  -1.0690424e-01   1.5551777e-01   9.7616735e-01   3.5350961e-01   6.4133615e-01   3.7994797e-01   8.2520641e-01  -6.8202912e-01   8.6215885e-01   9.9796678e-01   6.3819419e-01  -5.6987198e-01   7.1872135e-02   2.6833441e-01   4.3200095e-01  -8.7072662e-01   3.1169024e-01  -9.6010639e-01  -7.0630810e-01  -5.7373527e-02   3.1024232e-01   8.5261106e-01  -5.2246489e-01  -9.8855972e-01   1.6382925e-01  -7.3309855e-02   5.9724707e-01   1.4239913e-01  -8.5276664e-01   1.6451149e-01  -4.4250182e-01   5.1340510e-01  -6.1881149e-01   1.6803057e-01   1.0240004e-01   4.6917365e-01   4.4933996e-01   4.7369171e-01  -1.4050655e-01   8.9120945e-01  -9.5434659e-01  -1.1911347e-01   8.2743059e-02  -1.2518919e-01  -1.5935993e-01   7.6760027e-01   3.7292798e-01   1.8838141e-01  -4.0192963e-01  -6.5064115e-01   1.4547030e-02  -4.1207020e-01   2.9401100e-01   8.1579931e-01  -2.3463585e-02   7.5128113e-01   2.9545697e-01   7.5132841e-01  -6.7648033e-01  -4.9434100e-01   1.8322635e-01  -7.9700015e-01   2.5928578e-01  -3.4889807e-01   8.9064545e-02  -7.2526602e-01   4.9240456e-01   4.2168930e-01   4.0940088e-01  -5.5529636e-01  -7.0175578e-01  -6.1794673e-02   6.0982972e-01  -3.8960839e-01  -1.5248366e-01   7.0339414e-01  -8.0209422e-01  -7.0223538e-01  -2.3636376e-01  -6.0878911e-01   1.7336765e-02  -2.8051849e-02  -9.9629575e-01  -9.6718506e-01   2.5180970e-01   3.6612376e-02  -9.6391611e-01   6.4479295e-01   6.9476312e-01  -4.6019232e-01  -5.3702272e-01   6.9508951e-01  -5.6344610e-01   2.8316430e-02   3.8250179e-01   4.5485465e-01   7.6474715e-01   4.3505836e-01  -6.9808429e-01   6.1942183e-01   7.7792027e-01  -3.4561252e-01  -2.7492173e-01   8.5097483e-01   5.0822269e-01  -8.9174425e-01  -3.8928289e-01   2.9617142e-01   7.7502124e-01  -2.6814949e-01   9.0616962e-02  -9.3956998e-02  -1.4712477e-01  -2.2839422e-01   8.4775515e-02  -5.0737249e-01   5.7769741e-01   1.0279375e-01   1.2019399e-01  -6.1176431e-02   5.3426149e-01   5.3204945e-01   3.6165014e-01  -6.6601531e-01   8.4900873e-01   3.1395603e-01   5.7152777e-01  -4.7863131e-01   2.1064457e-01  -1.7122916e-01   6.0350923e-01  -6.0582409e-01  -7.7007000e-01   8.9031947e-01  -8.2176296e-01  -4.6794331e-01  -5.2863655e-01  -8.3236269e-02  -6.1718180e-01   3.7519472e-01   3.5458537e-01  -8.4432887e-01  -2.6937564e-01  -1.9845006e-01  -2.9398430e-01   1.0425019e-01   5.5701422e-01  -1.1539802e-01   6.2260986e-01  -9.9053052e-02   1.8886723e-01   1.4276289e-01  -4.3957201e-01  -6.5793361e-03   6.0913081e-01  -8.6525865e-01  -8.8872744e-01  -5.6828751e-01   6.1543338e-01   2.5914414e-01  -7.8192421e-01  -5.4357061e-01   9.8749276e-01  -6.8305172e-01  -7.2903690e-01  -6.3952397e-01   5.8779481e-01  -1.3896387e-01   5.0381888e-01  -4.6426762e-01   5.1972146e-01   6.7762003e-01   4.3288932e-01  -2.8881626e-01   7.3845063e-01   9.4561818e-02   1.4953705e-02  -9.7871258e-01   1.4459014e-01  -2.2986343e-01  -4.6978738e-01  -7.0563008e-01   2.3847903e-01  -8.4970287e-01   8.2065316e-01  -3.0837713e-01  -4.0314315e-01   5.0158086e-02   3.7594974e-01  -6.6101968e-01   9.4019117e-01  -5.1975137e-01   9.6611343e-01   3.4275071e-01  -7.0229808e-01   6.9555940e-01   4.0587992e-01  -4.4465108e-01  -6.5222354e-01   4.0825107e-01   5.6849786e-01   6.4723304e-01   6.4168566e-01  -5.7073851e-01  -1.3359699e-01  -5.2199852e-01   7.4336457e-01   3.8217299e-01  -4.7900478e-01  -6.2516053e-01  -6.2647747e-01  -2.4779835e-03  -9.1056157e-01  -6.6094721e-01   9.1626349e-01  -2.3874884e-01  -9.8121044e-01  -6.9386727e-01   6.2494504e-01  -9.9819788e-01  -3.8926035e-02   7.6725686e-01   2.0885668e-01   5.2184884e-01  -8.5438725e-01   6.6221620e-01   1.0556602e-01   2.9464199e-01   9.4829168e-01   9.4882218e-01   8.1131534e-01  -8.1508780e-01   8.1863102e-01   1.4453347e-01  -4.0708397e-02   5.0130495e-01   1.4286014e-01  -7.4071698e-01   8.1947014e-01  -1.2023657e-01   7.2792946e-01   6.5845884e-01  -2.3780596e-01  -1.4200126e-01   4.1991436e-01   2.2385342e-01  -7.2801665e-01  -6.4834297e-01  -1.2614191e-01  -8.3812518e-02   2.6294201e-01   7.3145011e-01   4.3682406e-01   5.2953209e-01  -7.7889817e-01   7.3585182e-01   9.1518179e-01   5.1917318e-01  -1.8356622e-01   6.6562546e-01  -1.6768418e-01  -1.1902049e-01   1.1946128e-01  -3.4122979e-01   7.9876675e-01   9.2306918e-01   1.2667654e-01   1.0930114e-01  -8.6979048e-01   4.0304680e-01   6.3841844e-01   8.1436872e-01  -6.1126399e-01  -8.5095720e-01  -3.0317212e-01   7.7608792e-02   5.2277964e-01  -5.6305218e-01   5.7205857e-01   7.0635972e-01   1.4193214e-01  -8.2716696e-01   9.1616146e-01  -6.3402961e-01   3.8606246e-01   2.2225495e-01  -5.6928580e-01  -7.8981428e-02   6.2311069e-01  -7.8531501e-01  -6.8620883e-02  -1.8922729e-01   1.2499872e-01  -7.7009562e-01  -4.8981417e-01   6.3509030e-01  -4.8534389e-02  -6.4343500e-01  -6.1203757e-01  -7.6425205e-02  -7.0604650e-01   7.6037932e-02  -5.7833469e-01   8.9686507e-01  -2.0824308e-02  -8.1278934e-01   6.8557029e-01   9.9507668e-01   5.7923253e-01  -1.4205126e-01  -3.9955542e-01  -3.3565212e-01  -8.5785179e-01   8.1577556e-01  -1.4189728e-01  -7.0381729e-01   2.0149303e-01   3.5255047e-01   8.5038368e-02  -8.2561199e-01  -4.8557190e-01  -9.6615687e-01  -2.3289773e-01  -7.7377596e-01  -8.4185343e-01   2.4078937e-01   4.4210903e-02  -2.6018620e-01  -3.7132992e-01  -2.1955116e-01   2.0494430e-01  -6.0167705e-01   7.8578222e-01   4.5383480e-01  -5.2441157e-01   3.9736049e-01  -9.2564234e-01   6.2752268e-01   2.9026426e-01  -3.4063468e-01  -3.8005920e-01   3.0918996e-01   1.1576696e-01  -4.7590481e-01  -7.1491162e-01  -2.3021615e-01   5.7972197e-01   9.8128693e-01  -3.6091684e-01  -8.2033318e-01  -2.0245913e-01   4.8569355e-01  -5.2532359e-01  -9.8354096e-01   5.5992007e-01  -5.9705231e-01  -9.9260871e-01  -9.0020421e-01   3.3564278e-01   3.5999387e-01  -3.4714001e-02  -2.1332995e-01   3.8479837e-01  -8.0401561e-01   1.1645631e-01  -7.9024342e-02  -6.9510418e-01  -9.2186052e-01   2.0087917e-01  -5.5570925e-01  -8.3755944e-01  -3.0142842e-01   9.5057958e-01   6.6784393e-01   5.2896734e-01  -2.4040076e-01  -8.8721902e-02  -7.9820291e-01  -9.3102370e-01   9.5728808e-01   6.1705440e-01  -1.5498795e-01  -8.1811841e-01  -2.3971414e-01  -2.2060211e-01   2.2815950e-01  -3.2295730e-01   3.2058380e-01  -9.7693620e-03  -7.1113297e-01  -4.7120480e-01  -1.6866650e-01   4.8983547e-01   6.5871111e-01  -9.4053085e-01  -2.7157867e-01  -7.5875497e-01  -4.1056163e-01  -1.7679535e-01  -6.0931584e-01   9.0889809e-01  -8.4891879e-01   2.6387381e-01  -6.0936324e-01  -6.2950711e-03  -6.7060268e-01   8.3499867e-01   3.9814243e-01  -6.9490021e-01   1.1245424e-02   5.4298032e-01   5.6503886e-01   6.0030349e-01
   3.3447118e-01  -3.4953106e-01   6.5215643e-01  -7.2929117e-01  -4.9894131e-01  -3.2980259e-01  -7.1192703e-01   4.2237960e-01  -8.1778755e-01  -4.2929135e-01   4.0072793e-01  -3.4139091e-01  -7.1120892e-02  -6.3522783e-01  -9.9094561e-01  -6.7061643e-01   1.2374358e-02  -5.4521526e-01  -2.3733896e-01   5.3330707e-01  -2.9900512e-01  -6.3011925e-01   2.8960000e-01  -2.8896804e-01   1.2483152e-01  -5.8521209e-01   2.2838201e-01   7.8378788e-01  -2.4875348e-01  -6.8515765e-01  -1.3170247e-01  -1.2776585e-03  -6.3649834e-01  -8.1656404e-02  -4.8689926e-01  -9.4569480e-01   5.8484686e-01   7.5135607e-03  -5.4205755e-01  -1.9745767e-01   7.1755270e-01   1.3427993e-01   1.7643455e-02   9.9445206e-01   8.3786568e-01   9.8770553e-01   2.5748815e-01   2.5690048e-01  -7.9965313e-01  -9.5019300e-01  -5.2151865e-01  -1.5606607e-01  -7.3206843e-01   2.1782372e-01   6.6171921e-01   2.7544336e-01   3.2391301e-01  -9.5108686e-01  -7.7800328e-02   2.4524988e-01  -6.5715696e-01   5.2081501e-01  -5.9956301e-01   9.7560352e-01   6.6639867e-01   6.3539679e-01   9.2342007e-01  -1.6766276e-01   6.8217108e-01  -2.2884636e-01  -3.5371491e-01   7.8986094e-01   3.7750330e-01  -4.4133330e-01   7.5235210e-01  -7.1007714e-01  -1.6308636e-01   2.8534469e-01   8.7595747e-01   1.1400791e-01   8.1280568e-01   3.5451184e-01   2.9520000e-01  -6.3601378e-01  -2.3579420e-01  -7.2313486e-01  -2.7717920e-01  -3.3209886e-01   9.1196927e-01  -4.0792024e-01  -7.1195359e-01   2.3364083e-01  -7.2781610e-01   2.1714893e-01   4.0743562e-01   3.7568998e-01   6.1093365e-01   3.4532718e-01  -1.0076444e-01   2.2864711e-01   2.1183707e-01   9.0337373e-02   6.5675984e-01  -7.7323494e-01   1.0885468e-01   2.6011516e-01   5.6922469e-01   2.8960554e-01  -7.3689428e-01  -4.9636769e-01   6.9093860e-01  -8.7681513e-01   3.7868398e-01  -6.4964068e-01  -7.1934678e-01  -5.6149646e-01   7.1659265e-01  -7.5200576e-01   8.8383931e-01  -3.1062923e-01   7.8833126e-01   1.7502732e-01  -2.8727209e-01   9.9158020e-01   6.8825303e-01   3.6426010e-01  -8.1386380e-01  -2.1114187e-01   4.3924629e-01   2.6415576e-01   4.7162207e-01  -2.6346825e-01   6.9148434e-01  -5.9347811e-01   9.5384865e-01   4.3807515e-01   1.5612470e-01  -7.5925679e-01   4.1139864e-01  -6.4858488e-01  -1.0521242e-01  -7.4473206e-01  -6.7242129e-01  -2.7825608e-01  -2.0138945e-01   5.6091341e-01  -8.2731312e-01  -7.6432059e-01   6.2988950e-01  -8.2202617e-01   3.1675056e-01  -3.9344020e-01  -5.6656264e-02   1.8521271e-02   2.2552414e-01   8.9020702e-01   9.1419491e-01   4.5558517e-01  -3.3956913e-01   9.8124611e-01  -7.0550640e-01   3.7156296e-01   5.0981030e-01  -7.2482829e-01  -3.0028296e-01   8.2736151e-01   3.7792451e-01   9.2713185e-01   4.8188203e-02  -6.6261335e-02  -5.8168811e-02  -3.0724796e-02   8.2102098e-01   5.5942693e-02  -5.8943517e-01   1.9725161e-01   4.4190192e-01  -3.4245152e-01   4.6538124e-01  -7.3910979e-02   1.5616978e-01   4.9826097e-03  -4.5230391e-01  -3.5794198e-02   6.6375410e-01   6.9114285e-02   8.3348983e-01   6.0026586e-01  -6.3818941e-01   5.2895624e-01  -3.9875370e-01  -9.9416221e-01  -1.6184791e-01  -8.1197502e-01   2.7853430e-01  -9.6637012e-01   3.9923856e-01  -6.7335813e-01   4.4189207e-01   7.6495769e-01  -6.3701362e-01  -4.0646112e-02   1.2009057e-01  -2.1762671e-01   4.3345183e-01   5.3458624e-02  -5.1850923e-01  -9.7727306e-01   9.2532763e-01  -1.0509053e-01  -7.9237623e-01   9.4766108e-01   6.9831052e-01   4.5188265e-01  -5.9375728e-01   3.6523629e-01  -4.9459263e-01   5.5296108e-01  -1.8967851e-01   8.5020241e-03  -2.8133825e-02  -5.4462500e-01   1.2801107e-01   9.6143398e-01   2.5634969e-01   4.7071764e-01   1.2511450e-01   7.3722835e-01   4.1336693e-01   8.6200454e-01  -5.6141596e-01  -2.9926253e-01  -2.1076170e-01  -2.5104374e-02   8.3978354e-01   6.9115554e-01   2.1359896e-01  -4.3485928e-01  -5.8440068e-01  -8.0284408e-01   2.8011524e-01  -9.8935600e-01   4.0933604e-02  -7.9258250e-01   4.9027995e-02   3.2856545e-01  -6.3922310e-01  -8.4668511e-01  -1.8051138e-01   1.2304111e-01  -7.0608891e-01   8.0854533e-01   1.4781967e-01  -6.5898271e-01  -5.7014339e-01  -3.4625253e-01  -2.0574479e-01  -1.1376421e-01   4.3740687e-01   3.7124303e-01   1.4694088e-01  -3.8698267e-01  -6.1506876e-01   6.6528073e-01   4.3736640e-01   9.6943865e-02  -5.2092249e-01   4.3565311e-01   2.9073801e-01  -5.6288505e-01  -6.8146859e-01  -2.1527904e-01   2.7393022e-01   4.3691216e-01   7.0860644e-01  -7.4835342e-01  -5.7115352e-01   6.0443125e-01  -4.4458306e-01   8.7571226e-01  -3.7423494e-01   1.6247768e-02  -7.1051521e-01  -4.6321176e-01  -4.0758242e-01   5.5643587e-01  -1.9424301e-01  -8.9339150e-01   1.1795204e-01   3.7598403e-01   7.2720026e-01   6.9211354e-01   9.2321202e-02   9.7094431e-01  -5.0275471e-02  -7.0058988e-01  -5.1214322e-01  -6.4598404e-01   2.7238980e-01   3.4696440e-01  -4.9244156e-01   8.3573066e-01  -2.5963722e-01   3.9015935e-01   6.2920227e-01  -5.7075723e-01  -7.8354506e-01  -6.8013293e-01   8.2330341e-01   1.5326371e-01   1.1610979e-01   1.5740934e-01  -1.9333708e-01  -4.3598655e-01  -1.3418449e-01   1.8555153e-01   6.0478067e-01  -9.2637534e-01   4.4459656e-01   1.0951705e-01  -1.9535734e-01  -6.3130640e-01  -7.3064375e-01  -9.0849943e-01  -3.9366495e-01   9.5826980e-01  -3.2730487e-01  -7.5453916e-01   5.4214049e-01   9.2850217e-01   4.1638481e-01   1.4325493e-01  -1.5920413e-01  -9.7653022e-01   2.3788988e-01  -3.8376020e-01   2.1577876e-01   4.7637851e-01   7.1977588e-01  -4.7231748e-01   1.3223596e-01  -2.9894939e-01   4.8500757e-01  -6.2019029e-01  -6.0343570e-01   8.5147856e-01   7.2715797e-01  -9.1985884e-02  -8.9722167e-01   7.9848692e-01   5.6612285e-01   4.1687877e-01   3.1830723e-02   7.2553309e-01   2.6538752e-01   2.3016824e-01  -5.2426471e-01   2.7114465e-01   2.0236959e-01  -4.3753588e-01  -6.0442802e-01   5.9994591e-01  -4.0880290e-01   2.1529763e-01   4.4104682e-01   9.1674058e-01  -4.9684276e-01   1.9613331e-01   3.6964347e-01  -3.3145371e-01   1.8171181e-01   1.9944277e-01   3.9890375e-01  -5.3896965e-01   6.9674734e-01   9.6525669e-01  -9.5037703e-01   6.5721683e-01   9.3678493e-01  -2.7205907e-01   7.1484272e-01   9.5985274e-01   6.4605223e-01  -3.1670321e-01  -6.7517667e-01  -4.5498250e-01   5.9378548e-02   3.9505773e-01   4.4802762e-02   2.9895731e-01  -6.7220962e-01   7.9499443e-01  -7.6102460e-01  -6.8869092e-01  -5.2277148e-01  -5.2747409e-01   7.4473187e-01  -2.7767137e-01   5.5640277e-01   4.3212943e-01   4.0707020e-01  -6.9933822e-01   5.0259077e-01   9.4449504e-01   6.2858050e-01   3.7901318e-01   8.3542186e-01  -5.4490450e-01   9.9229790e-02  -6.8304696e-01   4.2173480e-01   7.8607334e-01  -5.1073463e-01   9.1989198e-01  -8.6752165e-01   9.5564545e-01  -7.3594233e-01  -7.8345303e-01  -5.2997712e-01   3.3142567e-01  -5.1208792e-01   6.1150408e-01  -1.8769320e-01  -6.2264255e-01   4.4043751e-01  -7.3552236e-01   2.1720191e-01  -2.4330904e-01  -2.0259572e-02  -1.6291941e-01  -4.3847336e-01   9.7526880e-01   6.7945292e-01   1.7222325e-01   1.2026735e-01   8.5956043e-01  -7.9274016e-01  -4.5937983e-02   8.2303473e-01  -4.0324534e-01   1.7324012e-02  -2.9098892e-01  -6.7416094e-01   5.4951888e-01  -6.5478287e-01   7.8329955e-01   7.0672266e-01  -1.9114343e-01  -3.4552322e-02  -1.2317605e-01   3.1677820e-01  -1.3802663e-02   7.3931881e-01  -8.1149530e-01   1.2262959e-01  -6.4823618e-01   7.4514438e-01   7.3394056e-01   9.6212817e-02  -3.5830700e-01   5.5519516e-01   3.5659778e-01   5.0051798e-01   9.8548390e-01  -2.1486591e-01  -5.0014126e-01  -9.7840775e-01   5.7336436e-01  -7.5299755e-01   4.8407024e-01  -4.7565728e-01  -4.2161868e-01   6.3974473e-01   8.9840882e-02   7.0453557e-01   2.8489750e-01  -7.1831986e-01  -8.7776684e-01   5.2505428e-01   7.2013432e-01  -2.9903992e-01   9.7013648e-01  -7.0824603e-01   5.4951965e-02   6.7780572e-01   9.4337194e-01  -5.7590912e-01  -8.0199924e-02   2.8781115e-01   4.6512445e-01  -6.3915183e-01  -2.4929216e-01  -2.2354919e-01  -5.7860976e-02   2.2168772e-01   5.8940906e-01  -2.2592670e-01   1.3604168e-01   1.1509894e-01  -5.6116548e-01  -8.5766467e-01   7.1015900e-01  -3.2177952e-01   4.2492292e-01   1.9967983e-01   7.2531844e-01  -8.4457209e-01  -3.9896504e-01  -2.1442066e-01  -2.6143408e-01   7.5333896e-01   7.9736687e-01  -1.0883126e-02   8.4945263e-01  -9.4294202e-01  -6.9708119e-01   5.4453347e-02  -2.0987119e-01   7.9653908e-01   8.6528693e-01   4.0355668e-01   2.7347770e-02  -8.6550795e-01  -1.9459110e-01   3.2241802e-02   5.0296593e-01   2.7191002e-01   1.1099486e-01   3.9427898e-01  -2.8329369e-01   3.7093655e-01   2.9249895e-01  -5.8588864e-01   2.8224122e-01  -7.5960874e-01   7.1937837e-01   5.4895087e-01   6.9789510e-01   6.0963416e-01  -9.8199635e-01  -2.0192296e-01  -1.4762893e-01   5.4154468e-02  -7.2255368e-01  -3.6969779e-01   6.5446747e-01   8.2440342e-01  -2.6349997e-03   9.3248320e-02  -4.5522265e-01  -1.5002333e-02   4.2941006e-01   2.4757385e-01   6.4116456e-01   3.3660042e-01   8.4779420e-01   7.7298944e-01   7.6198922e-01   3.2297515e-01   8.6149894e-01   6.0880737e-02  -9.8899569e-01   6.8505948e-01   7.5503623e-01  -4.9234090e-01   2.3957007e-01  -2.7162248e-01   9.7352280e-01   6.7757102e-01   5.1617879e-01  -7.4769138e-01  -9.6916701e-01  -3.5192707e-01  -3.3357811e-02   9.4978460e-01   1.0567436e-01  -5.4378663e-02  -1.6945164e-01   3.0718722e-01   7.5251000e-01  -8.8647443e-01   9.8764800e-01  -4.2978351e-01   8.2813267e-01   2.0914169e-01   1.6557221e-01  -2.7266624e-02   6.8141272e-01   4.1824923e-01   6.1503462e-01   4.9415081e-01  -1.4313752e-01  -9.8772188e-02  -3.6008056e-01  -9.4544594e-01  -6.2296362e-01   4.5557849e-02  -4.1810573e-01   7.0249726e-01  -5.0367906e-01   9.0353131e-01  -4.8542322e-01   8.7413299e-01  -5.9128565e-01   2.7290055e-01  -6.5813312e-01   9.6292099e-01  -1.2207630e-01   3.2377872e-01   6.5480749e-01   1.6017414e-01   9.8722986e-01   1.5162386e-01   7.0238659e-01   7.1211340e-01   4.6163219e-01  -1.9306241e-01   5.2187819e-02  -3.8104442e-01   6.4039225e-01   6.6431100e-01  -9.2703076e-01  -4.3640821e-01  -1.5191375e-01  -5.8011869e-01   2.6547505e-01  -2.7811103e-01  -9.7303400e-02   8.7122938e-01  -7.8902776e-01   4.8455610e-01  -9.5285825e-01   1.2885008e-01   6.0740282e-01   7.9156441e-01   3.1018873e-01  -4.0463716e-01  -6.3565711e-01   7.3630454e-01   7.6456495e-01  -1.0096831e-01   3.6765751e-01  -5.4285173e-01  -6.2565602e-01  -5.5459971e-01   6.4144596e-01  -6.3139970e-01  -5.7002114e-02  -4.6058809e-01  -3.6386033e-01  -6.2504137e-01   7.7562178e-01   8.3413290e-01   4.2623794e-01   9.9297057e-01  -5.7753250e-01   8.2609220e-01   4.9951256e-02   8.5620998e-01   2.8634958e-01  -6.8484942e-01   9.8843939e-01  -2.8882633e-01   3.0182870e-01   5.4275203e-01   6.4508026e-01   4.0828038e-01   4.0771620e-02  -9.8284476e-01  -8.7770528e-01  -3.2507542e-01  -3.6373435e-01   3.3902298e-01   8.8388687e-01   6.3404634e-01   7.0612221e-01   6.9815031e-01   7.5509640e-01  -2.5549329e-02  -8.6813676e-01  -8.2531300e-01  -3.6316344e-01   2.6752269e-01  -7.4145570e-01   1.5226141e-01   7.7000763e-01   4.3036791e-01  -3.8532256e-01   3.7053212e-01  -3.9865477e-01   6.9783929e-01  -5.2374440e-01  -6.2292002e-01   9.2426066e-01   9.8797487e-02  -7.7136321e-01   3.4422593e-01  -3.1612615e-01  -2.0327837e-02   7.3330136e-01  -7.8311721e-01  -6.1146397e-01  -1.5923221e-01  -2.4435621e-01   7.2310828e-01   2.0573061e-01  -4.3086780e-01   9.6950420e-01  -5.3788003e-01  -8.0794095e-01   9.2572908e-01  -9.3808174e-01   2.3987876e-01  -2.9629190e-01  -3.7833265e-01  -2.0583502e-01  -4.1930890e-01   8.0255683e-01   3.4614185e-01  -4.5981560e-01  -2.8389467e-01   7.9958497e-01   4.2424453e-01  -9.1865891e-01   3.9368106e-01   5.2080291e-02  -4.5976047e-01  -2.7180570e-03  -7.9911884e-02   6.1628493e-01  -7.2224570e-01   3.3638721e-01  -7.9714051e-01   1.5632655e-01  -7.8494586e-01  -7.1294540e-01   3.9295379e-01   3.8857317e-01   9.3262848e-02   7.2380096e-01   5.7669218e-01   8.3640423e-02  -1.4577617e-01   3.0880349e-01  -4.0234438e-01   1.3099439e-01   9.6593369e-01  -6.4499150e-01  -6.7327609e-01   7.9835328e-02   7.1700254e-01   4.8860696e-01   8.8418091e-01   6.0227877e-02  -4.1175194e-01  -2.4756721e-02   2.0225650e-01  -5.9691028e-01  -7.0315999e-01   6.2969613e-01   5.7722495e-01  -8.5301926e-01   6.4237618e-01  -2.5853629e-01   5.3333277e-01   2.1807731e-01   2.8365225e-01   4.2965011e-01   1.9366054e-01   3.6759793e-01   8.0876887e-01  -5.3782200e-01   3.1938176e-01   3.1023202e-01  -2.2343077e-02  -7.8761180e-01  -9.9076241e-02  -3.2329311e-01  -5.3430116e-01  -3.9269477e-01  -8.1931758e-01  -8.3628828e-01   1.5287736e-01  -1.6978823e-01  -5.3689456e-01  -4.1544748e-01  -4.8742711e-02  -1.8029930e-02   6.0114867e-01   4.3410855e-01  -9.7653414e-01  -5.1088695e-01  -2.6424177e-01  -5.9762463e-01   9.9103812e-02  -4.7722914e-01   8.2093840e-01   7.5839431e-01   3.0137519e-01  -8.7896625e-01   4.1603890e-01   8.9301125e-01   5.3559808e-01  -4.1668079e-01   3.4289278e-01   5.8952373e-02   6.6658427e-01  -8.0709718e-01   9.4110872e-01   3.7757041e-01   6.5296307e-02   8.1588451e-01  -7.5775255e-01   6.2440097e-01  -7.5984843e-01  -1.6867062e-01   9.1390292e-01  -5.4313471e-01   2.6643032e-02  -4.0180149e-01  -3.9395104e-01   4.1078842e-01   6.4476290e-01  -7.5649012e-01   6.7138025e-01  -6.0971764e-01  -8.1211833e-01  -7.6915153e-01  -4.2670584e-01   2.6455929e-01   8.7381812e-01   6.8250850e-01   1.6769405e-01  -6.5473234e-01  -3.2838534e-01   2.1901440e-01  -1.6439863e-01   9.6883931e-01   3.2218961e-01  -4.7304059e-01   5.2786483e-01   7.3199484e-01   1.5646734e-01   8.8814197e-01  -9.7663755e-01   1.4049120e-01  -4.1868129e-01  -3.8632285e-01  -7.3704237e-02   7.5347370e-01   5.5514844e-01  -6.3713382e-01  -3.7831512e-01  -3.6319981e-01  -9.4561853e-01   2.7721998e-01   9.1129245e-01  -2.1673197e-02   6.3117122e-01   8.2087149e-01  -1.3658177e-01  -2.3026444e-01   6.5455600e-01   4.9037279e-02   8.1257179e-01  -5.5959152e-01   9.8450201e-01   6.6825806e-01  -4.2966215e-01   3.5708129e-01   8.0701415e-02  -7.9785125e-01   4.0697611e-01  -9.5922720e-01   8.6742605e-01  -1.0704435e-01   2.4673627e-01  -4.8087391e-01   1.2317232e-01   4.6149774e-01   7.1691512e-01   9.4512289e-01  -3.7066950e-01   8.0964922e-01  -6.2173131e-01  -1.3342613e-01  -3.7737212e-01   6.0310678e-01  -8.9679616e-01  -8.6737434e-01   3.9843834e-01  -8.4719876e-01  -9.6250917e-01  -5.0535458e-01   3.5944381e-01  -3.1810656e-01  -5.8123563e-01  -8.3373736e-01   9.0064497e-01  -6.6032507e-01   2.7514755e-02  -3.9285194e-01   9.2916005e-01  -4.6723582e-01  -8.0441378e-01   6.1547618e-01   9.0942393e-01   3.6781134e-02  -9.0776867e-01   2.3894689e-01   3.0268948e-01   2.9618372e-02  -2.9798834e-01   7.7781751e-01   7.2796848e-01   6.5101787e-01  -9.1138081e-01   9.7789374e-01  -2.2358742e-01  -7.7439635e-02  -8.8400730e-01  -7.2256895e-01  -2.2783225e-01   8.5617961e-01  -6.1289872e-01  -2.2567360e-01  -6.4331036e-01  -2.9420568e-01   6.8370430e-01   9.5993630e-01  -2.6439537e-03  -2.7342218e-02  -1.2527072e-01   7.9739947e-01  -1.1299595e-01  -2.9451137e-01   9.2049189e-01   1.6351329e-01   1.3314090e-01   6.2503254e-01   4.3889142e-01   4.7564537e-02  -1.8397815e-01   4.8009184e-01   6.0358369e-01   4.9464307e-01   7.4731301e-01   3.0347146e-01  -4.6336980e-01   5.7310219e-01  -9.1524241e-02  -8.5194946e-01   6.4232697e-01  -5.7303906e-01   4.3331555e-01  -8.5355303e-01   6.4310829e-01   8.9074094e-02  -3.0640640e-01   3.6967988e-01  -5.4614717e-01   6.5929372e-01   6.2441077e-01  -4.8906710e-01  -9.1856271e-01   6.3022796e-01  -6.5019505e-01   6.1333758e-02   8.9245001e-01  -7.7099569e-01   5.4564098e-01  -5.2883036e-02   6.4215551e-01   7.4274284e-01  -5.6796642e-01   2.6998529e-01   8.2814737e-01   3.2294342e-01  -3.8806065e-01   3.7750025e-01  -5.0501283e-01  -6.1226986e-01   6.3279500e-01   1.7429975e-01  -6.6176108e-01   5.9318021e-01  -1.1858551e-01   9.0704401e-02   4.6668072e-02   5.6305380e-01   4.1346678e-01   9.4854463e-01  -4.8749841e-01  -3.3585558e-01  -9.3568054e-01  -4.0801378e-01  -4.2623792e-01  -3.7995308e-01  -3.7039209e-01  -4.0895434e-01
  -3.6047113e-01   2.1335346e-01  -9.8296321e-01  -2.5251171e-01  -6.9982003e-01   1.0676412e-02   3.2651621e-02   2.2972179e-01  -2.9259999e-02   3.6895697e-01  -9.3655128e-01   9.8426508e-01   9.6831800e-02  -9.4117468e-01   5.0399780e-01   8.3110959e-01   3.4791275e-01  -7.7907592e-02   7.9106580e-01   1.8590296e-01   7.3475557e-02  -7.0551009e-01   9.2265039e-01   4.3155295e-01   4.6660575e-01  -8.0072643e-01  -5.4892109e-01   3.4108298e-01   4.1380912e-01   5.3514281e-01   6.1580389e-01   8.2321094e-01   6.4094667e-01  -9.1474502e-01  -6.0059888e-01   2.0708346e-01  -7.9498391e-01   6.7927673e-01   2.9213070e-01   3.3633450e-01  -4.0821387e-01   4.5920007e-02   9.5903508e-01  -4.4616748e-01   5.1037094e-01  -6.8010012e-01   4.4106691e-01   3.1635631e-01   7.5939378e-01   6.6836516e-01  -8.0892644e-01   7.4160854e-01   6.7324735e-01  -9.2238497e-01   1.3159070e-01   6.5836338e-01  -7.0445060e-01   2.0425532e-01  -8.1493343e-02   1.1235559e-02   2.8304304e-01  -8.2926515e-01   8.0419896e-01  -9.1344525e-01   8.2889495e-01   2.1632446e-02   9.9190389e-01  -9.8498811e-01  -3.3369483e-01   7.6163110e-01   6.9209079e-01  -3.4419819e-01   5.5395293e-01   2.8207793e-01   5.0499877e-01  -3.2233100e-01  -5.5332818e-02  -8.6689410e-01  -6.7161875e-01  -3.7197057e-01   1.4333038e-01   7.9165763e-01  -3.0246868e-01   9.2114273e-01  -2.9643727e-01  -9.8126060e-01  -8.7301180e-01  -7.2052167e-01   6.2254133e-01  -8.3609354e-01   9.4763305e-01  -3.7899748e-01  -9.2484394e-01  -8.8621353e-01   7.2365369e-01   4.7807622e-01   8.1450046e-01  -3.6604241e-01  -6.8112381e-01   2.7993151e-01   6.4085430e-01  -3.7265033e-01  -1.1974450e-01  -5.6813959e-01  -5.8170764e-01   4.1838608e-01  -4.3791110e-01  -5.9309294e-01   9.0222007e-01   9.1991591e-01   4.6048484e-01  -8.6721731e-01   2.3531336e-01   4.7890587e-01  -5.4934929e-01  -8.7817640e-01   6.1634645e-01   4.7526974e-01   2.4396319e-01   6.6174290e-01  -1.5365352e-01   1.4337892e-01  -5.8910399e-01   7.5982810e-01   1.1057778e-01   8.5829728e-01   1.0881336e-01   1.2263237e-01   3.7765610e-01   9.8826040e-01   9.8135233e-01   8.4176484e-01  -2.8204041e-01   7.5267262e-02   8.8559946e-01   6.5255712e-01  -4.3934192e-01  -3.7048401e-01  -2.2789161e-01  -8.3095374e-01   6.0370212e-01  -1.2809880e-01   8.7991195e-01  -1.4555853e-01   3.7390098e-01   1.3333162e-02   5.4517214e-01  -5.0999702e-01   7.9841573e-01   2.6596857e-01   6.4920565e-01   2.8797590e-01   7.8590134e-01   9.3196775e-01   4.1585114e-01   8.3638625e-01  -3.9710171e-01  -4.3007001e-01   1.8136476e-01   9.0169621e-01  -4.4194121e-01   7.4976016e-01  -9.4787340e-01  -6.4875883e-01   5.7714143e-01   1.9106121e-01  -3.3406744e-01  -1.6562924e-02   7.1533923e-02   8.9944169e-02   3.8701286e-01   3.9188137e-01   9.4560106e-01   3.7131112e-01   1.1076669e-02   7.8971590e-01   3.3104035e-01   7.2655068e-01   4.7488154e-02   3.3516988e-01   5.4898321e-01   8.9025784e-01   6.0932872e-01  -5.0744517e-01   3.2798461e-01   5.4116656e-01   7.0586320e-01   1.3508836e-01  -1.0985999e-01   1.1043024e-01  -6.3349670e-01   2.9970551e-01  -8.3482338e-01   2.3921040e-01  -2.3274581e-02  -2.1059088e-01  -3.3941249e-01  -2.1749946e-01   2.3524685e-01   5.8019775e-01  -7.8159560e-01   9.0938390e-01   3.2891162e-01   9.9979710e-01  -7.1078428e-01  -2.1360348e-01   9.0499695e-01   8.3471103e-01  -5.5922671e-01   8.6141072e-01   8.3381773e-01  -5.9705420e-01  -4.1921600e-03  -8.5158136e-02   3.1850408e-01   2.9083956e-02   4.7929509e-01  -2.8031299e-03  -4.0663315e-01   4.4855060e-01   1.1338480e-01   1.3410227e-01  -4.5428419e-01  -3.6293605e-01  -5.2811440e-01   1.9343689e-01   6.1316250e-01   7.4698427e-01  -3.3511241e-01   7.9787569e-01  -5.1462614e-01  -4.9159136e-01  -6.7931282e-01   7.1717202e-01  -1.8314976e-01  -9.0177255e-01   4.3091195e-01  -7.0193369e-02  -2.5102470e-01   2.3157264e-01   7.5322177e-01   7.4092246e-01  -3.8838507e-01  -4.4396595e-01  -6.4178187e-01  -3.0680518e-01   9.2057958e-01   5.6138363e-02   2.9977829e-01  -9.0262874e-01   2.0002822e-01   9.2417090e-01   9.2625653e-02   7.8500164e-01   1.0701651e-01  -6.6756793e-02   8.0700426e-01  -4.0505974e-02  -1.9920009e-01   4.7304803e-01  -3.5800012e-01  -2.9363100e-01   6.9944586e-02  -7.7269870e-01  -9.4479766e-01   2.5800652e-01   5.1270152e-01   8.1196182e-01  -4.9514118e-01   8.3704695e-01   2.7964415e-01  -7.8221934e-01  -6.3752909e-01  -5.0929211e-01   3.3529074e-01   1.2155060e-02   5.4926286e-01  -4.8351319e-01   9.9057361e-01  -5.2047669e-01  -2.1179339e-01   1.6294080e-01   9.6297784e-01   3.1280405e-01   6.1514750e-01   1.4591581e-01   9.3207798e-01  -8.5218694e-01  -5.3764867e-01  -1.1638788e-01  -2.4268657e-01   1.4304479e-02  -9.1377064e-01   5.9529989e-01  -5.8933353e-01  -6.1365207e-01  -3.8185259e-02   9.9519400e-01  -5.4140782e-01  -2.2804127e-01  -7.2401037e-01  -4.6930921e-01   2.6121682e-01  -9.2027720e-01  -7.8875963e-01  -9.0735234e-01   3.7339345e-01  -8.6391190e-01  -8.8525206e-01   1.2143030e-01  -3.6879004e-01  -2.4828007e-01   3.2227823e-01   8.6728407e-01  -8.9238609e-01  -3.4540302e-04  -1.0213238e-01  -1.2665297e-01   9.5867019e-01  -4.1072231e-01  -4.3872252e-01  -8.1070283e-01  -6.5260158e-01   2.8731082e-01  -7.1080876e-01   6.6862891e-01   2.4077137e-02  -5.6738011e-01  -5.5110417e-01   9.9576215e-01  -3.0596087e-01  -9.5919862e-01  -1.1438430e-01  -6.0524875e-01   7.5583159e-01  -2.2272048e-02   1.5532030e-01   6.2144674e-01   8.6960850e-01  -5.1478264e-01   5.1115550e-01  -6.8389774e-01   2.9385662e-01  -9.4316830e-01   8.2968051e-01   5.8174651e-01   2.0176554e-01  -4.4343789e-01  -7.2941616e-01  -2.1724800e-02  -1.7548065e-01   6.8657801e-01   5.1313012e-01  -1.9680148e-01   3.7287938e-02  -9.6579347e-01  -5.1065872e-01   7.9877090e-02  -7.4205539e-01  -7.9976112e-01   1.9716211e-01  -3.8697139e-01  -9.0205355e-01   1.4941322e-01   9.7233322e-01   3.1522134e-01   9.4914930e-01   5.9174406e-01   2.4514713e-01  -8.2660857e-01  -8.0930314e-02   8.5813651e-01  -3.6533516e-01  -7.6247414e-01  -5.5741288e-01   3.5171731e-01   2.1844884e-01  -8.8532039e-01   5.7631526e-01   7.2278870e-01  -5.3975972e-01   8.9818520e-01   7.0119670e-01  -1.3573834e-01  -3.7948028e-01  -1.6519822e-01  -5.8327389e-01   2.8066795e-01   7.2728238e-02   1.5223231e-01   6.9002676e-01  -8.9541286e-01   6.6098937e-01   1.7662701e-01   7.9047575e-01  -3.7188483e-01  -9.4548121e-01   6.7509395e-01  -6.4585385e-01   4.1387378e-01  -6.8698971e-01   5.4287887e-01  -4.9404431e-01  -4.8125137e-01   3.7024361e-01   8.0745644e-01  -1.4208704e-01  -9.3131203e-01   8.8053499e-01  -2.7984233e-01   4.0823272e-01  -3.0055344e-01  -8.0677861e-01  -2.7114024e-01   3.0568632e-01  -9.3549212e-01  -2.3120140e-01  -4.3694520e-01   7.3884891e-01  -5.8703934e-01   2.3356754e-01  -5.0311747e-01   7.2597378e-01  -8.9827741e-01  -1.9766088e-02   8.5154836e-01   4.7688265e-01   2.2279233e-01  -9.7900121e-02  -7.2688270e-01   8.3730842e-01  -9.0609351e-01   6.3681000e-01  -5.2469430e-01  -8.4888678e-01   4.8571095e-01   4.8846081e-01   8.8648235e-01  -6.6463270e-01  -4.7975259e-01   7.5195455e-01  -8.4376215e-01  -1.0231704e-01   5.1930147e-01  -3.4397421e-01  -3.1155692e-01  -5.7013841e-01   9.5645648e-01   6.2941032e-01   1.3732640e-01   7.6032381e-01  -1.3255724e-01  -6.7919019e-01  -6.9418702e-01  -6.1997165e-01   3.7928169e-01   6.9221738e-01  -1.6301782e-01   9.5810634e-01   5.9840732e-01  -4.2714258e-01  -2.5797562e-01  -6.0217665e-01   4.7955666e-01  -1.0754577e-01  -4.1446573e-01   1.2313526e-01  -3.4269732e-03   7.2857534e-01  -4.8338275e-01   1.2398550e-01   2.5089377e-01  -1.7483121e-01   2.0604720e-01  -2.3217403e-01   4.1490941e-01   1.7739647e-01   2.1088709e-01  -4.2182470e-01   5.4366577e-01   1.1921627e-01  -5.3192095e-01   3.1930060e-01  -3.7681462e-01  -2.4607150e-01   7.9435615e-01  -7.3721201e-01   3.8191384e-01  -5.9779915e-01   6.8921376e-01   1.6276705e-01   9.5143716e-01   9.1406770e-01   9.0413682e-01  -9.1551178e-01  -5.9957038e-01  -5.2368343e-01  -7.0045412e-01   8.4659834e-01   5.2594795e-01  -3.5465771e-01  -1.6869341e-01  -8.4984238e-01  -1.7444907e-02   3.5893654e-01  -7.1792327e-01   7.4410265e-01   1.4171401e-01  -4.2619110e-01   8.7618456e-01   6.5945433e-01  -3.7098246e-01  -2.9590468e-01   5.3174772e-01   5.4158626e-01  -3.9504218e-01   6.2248797e-01   9.4214398e-01  -5.3661239e-01   7.5348335e-01  -7.5903360e-01  -3.9989521e-01  -9.8379699e-01  -9.5004575e-01  -4.9800577e-02  -3.3287311e-01  -2.9790829e-02  -9.4494919e-01  -3.0844741e-01   6.4195352e-01  -4.8349994e-01   7.0239833e-01   3.8987623e-01  -4.9608897e-01   6.8968368e-01   1.5297798e-01   2.0460417e-02   9.6070247e-01   5.3680735e-01  -8.7072380e-01   5.7627583e-01   4.1168503e-01   8.2524335e-01  -5.0670744e-01   9.8782018e-01  -4.8810045e-01  -8.1471415e-01   7.7347359e-01  -1.3918753e-02  -7.3609028e-01   4.1269776e-01  -7.6499828e-01   9.8180907e-01   7.6106956e-01  -6.6610942e-01  -6.1958873e-01  -7.0021796e-01   8.3515365e-01  -1.7856805e-02  -7.0529011e-01  -4.6115374e-01   3.8342824e-01   7.5969869e-01  -5.6748145e-01  -7.1462874e-01  -3.8084753e-01  -4.8176271e-01  -4.5428795e-01   1.7358459e-01  -1.5724341e-01  -5.0048298e-01  -1.1636315e-01   4.0882814e-01  -7.8639113e-01  -4.6545617e-01  -4.6954923e-01   7.4520260e-01   5.8173445e-01  -4.7172073e-01   9.1162308e-01   8.6637722e-02   5.4316256e-01  -8.2726383e-01  -9.4508255e-01  -4.2402196e-02   8.5410608e-01   2.5907444e-01   2.7140966e-01  -8.3927740e-01  -3.4058489e-02   7.7689507e-01   1.7689127e-02  -3.0192877e-01  -3.3913421e-01   6.0942021e-01  -3.7347374e-01   7.9637564e-01  -9.6791303e-01   1.9490892e-01  -7.5353812e-01   7.4555212e-01   4.3641098e-01   5.9257933e-03   7.1763239e-01  -6.2195045e-01   4.2691082e-02   2.2925937e-01   3.3803750e-01  -2.6745002e-01   7.6093334e-01   6.6837636e-01  -2.3397803e-02   9.8357756e-01   5.8720282e-01   4.7830268e-01   5.9620111e-01  -9.6097733e-01   3.3208926e-01   8.2115213e-01   1.9912661e-01   9.0390187e-01  -2.8542347e-01   4.1185534e-01  -2.7747728e-01   2.8978089e-01   3.0473133e-01  -5.6563017e-01  -1.1554495e-01   2.5520661e-01  -3.9244062e-01   7.9953562e-01  -5.0699000e-01  -8.4668787e-01  -2.5873186e-01   4.5486391e-01  -3.2313994e-01  -1.6060133e-01   7.3980417e-01  -1.0982999e-01   8.0264276e-01   7.7829119e-01  -3.1689313e-01  -1.9884782e-02  -1.0399046e-01   2.4974644e-01  -1.2571509e-01  -7.7401839e-01  -4.3450720e-01  -9.3469078e-01   8.7502619e-01   9.9068433e-02   1.5654061e-01   6.0705869e-01   5.1599861e-01  -9.5843071e-01   8.8021459e-01  -2.5271498e-01   5.3217865e-01  -2.4209757e-01   7.8669656e-01   9.7304883e-01  -4.1853469e-01  -2.6105292e-01  -1.8134609e-01   5.7844163e-01  -4.7641057e-02   3.7015918e-01   5.2934253e-01   5.1849629e-01  -6.2034432e-01   5.0609091e-01  -1.4993625e-01  -1.5746188e-01  -8.0822506e-01  -3.1154781e-01   5.7557266e-01   2.0735934e-01  -9.2002311e-01   5.1624878e-01  -2.5177135e-01  -6.9108556e-01   2.2300409e-01   7.6715921e-01  -1.9555232e-01  -4.4661566e-01  -3.1451096e-01  -5.7737399e-01  -3.7091393e-01   1.8245981e-01   3.5924729e-02   3.0274765e-01  -3.9158245e-01   6.4981009e-01  -4.9919672e-01  -8.5417875e-01  -9.6342859e-01   3.0255082e-01  -4.3695876e-01   4.8216089e-01   3.8614064e-01   1.9706001e-01   5.5914581e-01  -9.4322197e-01  -3.6578058e-01   6.4277607e-01  -3.0764150e-01   2.7802159e-01   6.4553167e-01  -8.2888335e-01   5.4727155e-01  -8.3248335e-02   4.7463473e-01  -4.7844855e-01  -1.7699699e-01   9.8985141e-01   2.5757300e-01  -9.0639312e-01  -5.2381859e-01  -3.4250908e-01  -1.5545202e-01  -3.5286594e-01   4.1912799e-01   8.7974727e-02   6.3719058e-01   7.0817550e-01   8.9838019e-01  -4.3235808e-01   6.2739548e-02  -3.5743162e-01   7.9674421e-01  -6.6949070e-01  -4.9309637e-01   7.1759567e-01   1.6620944e-01   3.8358689e-01   8.7515298e-01  -6.5213705e-01   1.8763413e-01   4.8774721e-01   7.5532739e-01   3.0763695e-01   2.1330792e-02   1.9033034e-01   3.2788117e-01   5.3746202e-01   4.0879725e-01  -4.0003479e-01   5.9877599e-01   6.6541806e-01  -1.7415212e-02   8.9245245e-02   7.3888747e-01  -4.9747027e-01   5.7887239e-01  -2.7194113e-01  -3.9206525e-01  -6.6805097e-02  -4.7000419e-01   8.4313308e-01   5.3777566e-01  -8.2325561e-01  -6.5588854e-01   6.2942330e-01   6.1126697e-01  -8.0143703e-01   7.3856852e-01   2.3987628e-01  -2.5496761e-01  -9.6847877e-01  -7.3317707e-01  -5.4019132e-01   4.9158410e-01  -9.5057394e-01   1.1070600e-01   6.6015547e-02   8.3863375e-01  -8.9235229e-02   1.0534095e-01  -4.2189105e-01  -6.0888162e-01   1.7008832e-01   3.5089772e-01  -5.9902209e-01  -1.4577822e-01   7.7553637e-01   7.5137872e-01   2.7070397e-01  -6.7283368e-01  -1.0097706e-01   3.2324414e-01  -3.6633947e-01  -1.2392085e-01  -4.3985624e-02   7.5027634e-02   4.4809845e-01  -2.5758990e-01  -3.5403773e-01   1.4774098e-01   4.7678608e-01   2.5911824e-01   5.4540225e-01  -2.5228299e-01   4.9636790e-01   1.0188750e-01  -8.8609511e-01   7.3645516e-01   3.8053161e-01  -5.8799499e-01   8.5498892e-01   4.9313363e-01  -7.6437134e-01   4.1846151e-02   6.7399189e-01  -5.9096872e-01   7.0985510e-01   2.6705981e-02  -5.0213477e-01  -4.1197209e-01  -9.7506672e-01   8.6279993e-01  -6.4017015e-01   5.6918628e-01   9.8972401e-01  -4.3578557e-01   7.3752930e-01   6.9764470e-01   2.8019060e-01  -9.2107298e-01   7.7412421e-01   3.2531001e-01   8.2690392e-01  -7.3014385e-01   7.3907163e-01   3.9823984e-01   1.6987264e-01  -4.1295164e-01  -3.8118054e-01   4.7472937e-01  -7.3727000e-01  -9.6463344e-01   1.8945370e-01   6.7362763e-01   6.7311133e-01  -3.4038882e-01  -9.4750499e-02   4.9376890e-02   5.6509509e-01  -3.6472004e-01   5.0405347e-01   3.2786630e-01   9.2272893e-01   6.9864540e-01  -9.2102441e-01   8.9054393e-01  -3.4276247e-01  -5.9988859e-02   7.9098469e-01   1.4573213e-01   3.9327880e-01   8.7293163e-01   2.3353803e-01  -5.4421704e-01  -9.3783989e-01  -5.8795119e-01   7.6142476e-01   9.0450323e-01  -9.9302950e-01  -2.8234904e-01  -4.3208844e-02  -2.0679254e-01  -4.8541508e-01   6.3254684e-01  -6.0436222e-01  -6.2802548e-01  -2.8801971e-01   4.6510987e-01   7.1055547e-01  -4.2286576e-01  -3.8332146e-01  -2.2021803e-01  -8.4241693e-01   9.9847989e-01  -6.9582940e-01   1.0137995e-01  -9.8977559e-01  -4.0921311e-01   1.5552792e-01  -5.1959599e-02   2.4723978e-01  -2.6966895e-01  -7.5868912e-01  -4.5463386e-01   8.8116601e-01  -2.2801174e-01   3.3949902e-01  -7.1215993e-01   7.3630440e-01   5.2868131e-01   4.0174500e-01   5.5189376e-01  -9.6876428e-01  -3.7851221e-02   4.1984882e-01   6.8831936e-01  -8.4108782e-01  -2.7543903e-01  -8.7984872e-01  -4.6164847e-01   8.2557425e-01   8.3021674e-01  -2.3179564e-01  -2.9468062e-01   4.6935472e-01   4.8787552e-01  -1.8613806e-02   5.8646612e-01   6.6499707e-01  -2.0009403e-01   3.0166266e-02  -3.7693109e-01   9.8268599e-01   4.7254965e-01   5.2958105e-01   2.6308921e-01  -3.1955915e-01   3.6934612e-01   2.2581225e-01   8.6851545e-01  -1.5260786e-01  -7.5730529e-01  -9.1844926e-01   7.0694324e-01  -3.0108904e-01  -1.5947678e-01   3.7787129e-01   2.4357593e-02  -5.5126118e-01   3.9138293e-01   2.1203740e-01  -4.3620767e-01  -3.6766752e-01  -6.6072579e-01   4.6301660e-01  -9.2366841e-01   9.2136904e-01   1.5764771e-01  -8.4695944e-01   3.7467789e-01  -8.1168802e-01   5.2104469e-01   5.5164068e-01  -1.8557476e-02  -7.8917511e-01   3.2682889e-01  -7.2472975e-01   1.8998627e-01  -8.3920319e-01  -3.7729328e-01   7.7047255e-01   9.2808375e-01   9.1542658e-01  -1.4254540e-01  -7.3314852e-01  -1.3713990e-01   6.3055505e-01   4.5225195e-01   7.8467959e-01  -9.5967608e-01  -1.0582528e-01  -9.6295651e-01  -3.2521076e-01   5.3924478e-01  -3.6342928e-01  -7.0258094e-01  -3.4806156e-02   8.2529804e-01   6.1756186e-01   8.5926994e-01   8.6382369e-01   1.3795791e-02   2.9624136e-01  -7.4441919e-01  -6.1971377e-01  -9.7690603e-01  -4.3886360e-02  -4.1126290e-02   4.7222068e-01  -5.0016421e-01   1.6062107e-01  -4.0470682e-02   8.5869389e-01  -3.3866126e-01   4.7745872e-01  -4.5292548e-01  -7.6779673e-01  -1.3603079e-01  -4.1223575e-01   7.5404921e-01  -8.3623064e-01  -9.8234292e-01
   5.4445028e-01  -2.9523874e-01  -2.8095734e-01  -4.3059643e-01   6.7827845e-01  -5.2499914e-01   9.9756256e-01   6.1223531e-01   7.4981862e-01  -5.1537105e-01  -4.4930120e-01  -6.6934896e-01   1.8718349e-01   5.9932918e-01  -3.7567228e-01   1.8000708e-02   5.4156073e-01   9.3414740e-01  -4.7978279e-01   5.8523927e-01  -7.9907964e-02   9.8144295e-01   7.6252251e-01   9.5952208e-01  -1.8778156e-01  -2.4760666e-01   6.6186165e-01   5.5580631e-01   7.6745929e-01  -6.1354730e-01  -5.2145988e-01  -3.5808406e-01  -3.8352121e-01   4.6470615e-01   9.2319975e-01  -7.0106322e-01  -8.4120544e-02  -2.7221483e-01  -5.2709564e-02  -6.0420940e-01   6.0261513e-02   7.9179990e-01  -3.9757984e-01   6.4899600e-01   8.7161329e-01  -2.5086675e-01   5.6638350e-01   8.4900147e-01   1.3137389e-01   6.4522511e-01   3.7547632e-02  -1.8041062e-01   2.6282205e-01  -6.8312943e-01  -9.6032690e-01   6.7520771e-02   4.0466147e-01   8.1966309e-01   6.6796197e-02   8.1017470e-01  -6.3457169e-01  -4.9337471e-02  -3.7527865e-01   5.5413339e-01   2.5794714e-01   2.1297911e-01   4.6869715e-01  -8.1304216e-01  -5.8902101e-01   8.4703308e-01  -6.0761650e-01  -2.5630245e-01   7.1378668e-01   5.8466588e-01   4.4107654e-01  -5.0605968e-03   3.3691738e-01   7.4420160e-01   3.9014825e-01   8.6261153e-01  -2.7473129e-01  -8.9837675e-01  -2.5527410e-01   9.7127616e-01   1.3828324e-01  -9.3910328e-01   9.6539099e-01   8.5974023e-01   6.0380472e-01  -8.1387994e-01   3.0352073e-01  -5.4130444e-01  -2.6902571e-01   8.1477261e-02  -7.5290150e-01  -8.3336104e-01  -5.7832928e-01  -8.8941073e-01  -5.4405339e-01  -1.2724633e-01   8.9397113e-01  -6.0030125e-01  -4.5158029e-01  -1.5512101e-01   2.5997819e-01   6.4417064e-01  -6.0371636e-01   7.6415062e-01   4.3534869e-01   7.9453049e-01  -9.3230806e-02   5.8407198e-01   2.5285029e-01   9.0120708e-01   1.4523139e-01   9.6242113e-03  -2.8484631e-02  -4.1718418e-01  -4.2485154e-01  -8.1341367e-01  -7.5670041e-01   9.2573368e-01  -7.3667455e-01   1.5266586e-02  -1.6889491e-01   7.9423276e-01  -3.8201884e-01   4.4226097e-01  -6.3617871e-01  -9.5768226e-01   2.5107041e-01  -2.8749239e-01  -5.3830140e-01  -2.3291810e-01   2.9494108e-01  -6.9276849e-01   9.1891596e-01   5.7614202e-01  -3.0675004e-02  -5.2934750e-01  -6.3395819e-01   8.6013124e-01  -2.1350123e-01   5.2121817e-01  -3.5881753e-01   2.1493905e-01   4.6633537e-01   6.6831794e-01  -1.8353247e-01  -4.5225889e-01  -9.4481486e-01   9.7573681e-01   1.4967776e-01   7.1925671e-01  -8.3603377e-01  -7.8617515e-01   8.1373437e-01   4.0400816e-01   6.2801619e-01  -2.2761133e-01  -6.8327390e-01  -1.5687957e-01   9.8159360e-01  -6.3245025e-01  -7.7983995e-01  -5.1813434e-01  -4.7700871e-01  -8.4307514e-01   9.1222203e-01   9.6155850e-01  -1.4024228e-01  -6.9051635e-01  -5.7278081e-02   1.6431146e-01  -1.6852642e-01   8.4030406e-01  -7.5105373e-02   2.1702349e-01  -4.6385929e-01  -8.9454532e-01  -3.6926301e-01   1.1631379e-01   4.0771241e-01   6.3196582e-01   8.6084417e-01   2.0852637e-01   1.0614898e-01   4.5621027e-03  -3.5983708e-01   9.0804186e-01  -4.9747844e-01  -8.4736915e-01   2.6793617e-02  -7.7297258e-01   1.0659193e-01  -6.5713675e-01  -9.1735740e-01   8.0001290e-01   4.3697405e-02  -5.5572509e-01  -7.6892733e-01  -4.7086213e-01   8.0364706e-01   4.0527520e-02   8.0772593e-01   3.9967907e-01  -1.9653702e-01  -6.3142718e-01   8.4793421e-02   2.2934086e-01   2.9143405e-01   7.3316212e-01  -1.9460798e-01  -3.6231092e-01   7.5573853e-01   3.5830946e-02   4.0522293e-01  -3.2423625e-01   3.5956135e-01   1.8193496e-01  -6.1450323e-01  -4.7705448e-02   1.5298371e-01  -1.6202261e-01  -6.7936185e-02  -8.3719939e-01  -7.8841012e-02  -5.4377461e-01   3.3358519e-02  -1.7801513e-01   4.8156324e-01  -5.7836131e-01   3.1075005e-01   9.5770462e-01  -1.5405147e-01   4.9106360e-01  -6.0936460e-01  -7.3345955e-01  -9.6422178e-01  -8.0277829e-01  -6.8951736e-03  -2.0965507e-01  -3.9439935e-01   4.2346626e-02   5.7915108e-01  -3.5710855e-01  -1.3357568e-02  -3.3632702e-01  -3.4214967e-01  -3.6773744e-01  -6.0156283e-01   1.8317993e-01  -4.1294929e-01   1.4988957e-01   9.8007131e-01  -5.3058912e-01   3.4681996e-01   5.0204078e-01   4.3403184e-01   5.1509359e-01   3.8668170e-01  -7.8355980e-01   9.4764428e-01   8.4171698e-02   4.7028791e-01  -4.5406016e-01  -2.8581000e-02  -6.4868726e-03  -4.0838994e-01   7.3933837e-01   4.5052569e-01   4.4428699e-02   9.8149596e-01   2.4507118e-01  -2.2751600e-01   4.9681814e-01  -8.8879105e-01  -1.3827515e-01  -1.9128498e-01   2.3990073e-01  -9.1265022e-01  -6.0886188e-01  -3.5875005e-01   1.7656561e-01   1.9591404e-02  -8.3039197e-01   1.0847528e-01   9.9182432e-02  -5.9581897e-01   6.5741012e-01   3.2654916e-01  -8.4849414e-01  -1.2359383e-01  -1.4923026e-01   4.9697979e-01   4.8304291e-01  -9.8424561e-01   2.2925285e-01   7.8506462e-01   1.0633929e-01  -5.3289197e-01   4.9696616e-01  -8.4178430e-01  -5.8741613e-01   5.2468997e-01  -1.0646591e-01   2.5067509e-01   6.8622106e-01   3.4349584e-01  -5.1331914e-01   9.2505381e-01   5.0024722e-01  -7.3727189e-01  -8.2170632e-01  -2.5143859e-01  -8.4286243e-01  -6.1623668e-01   4.2565816e-01  -8.1662692e-01   1.1296879e-01  -3.4345137e-01   2.4743061e-01   6.7745561e-01   7.4116649e-01   6.3585844e-01   7.0316629e-01   9.5161614e-01  -4.0814997e-01  -3.0055088e-01  -5.9551081e-01   6.9189853e-01   7.0718019e-01   7.7094934e-01  -3.1877169e-02  -7.7368250e-01   5.3124811e-01  -7.7034107e-01   2.0178960e-01  -2.5504035e-01   9.2890525e-01  -2.5791752e-01  -8.1679593e-01   1.0120004e-01  -1.7819106e-01   7.4635688e-01  -6.1272727e-01   6.2214862e-01  -5.4496089e-01  -2.1049253e-02   2.8519210e-01   4.2849295e-02   6.5940084e-01   2.7927854e-01   1.3707069e-01   7.9531359e-01  -1.8913193e-01  -9.8886508e-01  -4.6409236e-01  -3.4145519e-01  -2.6372305e-01  -5.9512778e-01   7.2739472e-01   9.0999091e-01  -4.9711741e-02   5.3844939e-01  -5.6625370e-01  -2.7161511e-01  -8.2295423e-02   9.4907728e-01  -4.6968747e-01   4.4772885e-01   4.2182967e-01  -6.8613117e-01   7.2501140e-01  -5.1026295e-01   9.8780153e-01   5.7970846e-01   5.7612019e-02   7.8591286e-01   8.6458600e-01  -8.8520747e-01  -2.3399281e-01   8.2522463e-01   2.7525843e-01   4.6195356e-01   2.4615825e-03  -4.3614337e-01  -8.1362510e-01  -1.3419552e-01  -2.8598932e-01  -9.1167909e-01   9.7567975e-01   9.3081445e-01   8.3622175e-01   2.1396731e-02   5.7204488e-01  -6.1978137e-01  -5.4743940e-01   8.4520177e-01  -1.8650739e-02   7.3333269e-01  -5.4035965e-01  -8.6608247e-01   5.2712457e-01   7.7083088e-01   6.9644061e-01  -4.3722875e-01  -9.2482720e-01   6.8886252e-01   8.2902197e-01  -4.8265990e-01  -8.2490031e-01   2.0953641e-01  -1.7042401e-02   2.9977100e-01   1.8084767e-01  -4.9239656e-01  -9.2794874e-01  -2.5822118e-01   4.2539938e-01   4.7923590e-01  -6.9896382e-01   3.2647864e-01  -3.8430085e-02   6.4124553e-01   7.3289393e-01  -7.9529555e-01   4.6484938e-02  -9.7244092e-02  -8.1346501e-01   7.6992390e-01  -5.9911668e-02  -2.7507433e-01   8.9853595e-01   6.9860096e-01  -3.4695027e-01   1.4010096e-02   4.0929076e-01   1.4305121e-01   1.7446437e-01  -7.4031288e-01  -4.2598989e-01  -5.1768392e-01   3.4494484e-02   4.6431659e-02  -9.1528247e-01   3.1334374e-01  -3.0827847e-01  -2.1143958e-01  -8.2740110e-03  -2.8458299e-01  -2.9738448e-01   5.1632017e-01  -5.2483567e-01   4.5107414e-01  -9.6362766e-01  -8.7967765e-01   1.5822830e-01   1.7544574e-01   4.2787233e-01   4.0750072e-01   9.7754295e-01  -1.2646805e-01   4.8812602e-01  -6.3320117e-01  -4.6979350e-01  -5.0886666e-01  -7.8622957e-01  -1.1525991e-01   4.7845279e-01   5.2784433e-01   2.0007369e-02   6.8209649e-01   3.3444875e-01  -5.8971737e-02  -5.1959650e-01   9.1334380e-01   9.0498159e-01  -5.4956802e-01  -2.4085811e-01  -5.4577713e-02  -8.2317428e-01  -8.3407870e-01   1.0680646e-01  -2.9143324e-01  -2.7073646e-01   1.6527984e-01  -5.2970397e-01   6.9694462e-01  -1.7039997e-01   2.2134837e-01  -8.6162876e-01   8.7735989e-01  -9.2307933e-02   9.3893204e-01  -3.7650566e-01   8.7634953e-02  -2.2098816e-01  -4.8253354e-01   3.4583849e-01  -5.1618275e-01  -7.0960227e-01  -5.5099633e-01   7.5979034e-01  -1.5916563e-01  -9.1923217e-01  -1.7038787e-01  -9.6786193e-01  -4.5671065e-01   4.8444344e-01   5.0023012e-01  -9.4322613e-01  -6.7910415e-01  -6.6510607e-01   8.9612255e-02  -2.9278955e-01   4.3722054e-01   7.1184314e-01  -2.5065795e-01  -7.5816499e-01  -4.0706443e-01   5.8494672e-01  -2.4592321e-01  -4.1696427e-01   8.3693385e-01  -9.4856041e-01   2.7938623e-01  -1.7906875e-01   6.9292850e-01  -3.2237993e-02  -3.4668983e-02   9.5765781e-01   5.7872257e-01   8.9038465e-01   3.3260899e-01   9.9726439e-01  -1.8010200e-01   7.0674741e-01   9.1291642e-01  -4.4972139e-01  -5.3480100e-01   6.2717223e-01   7.5357863e-01   5.6261955e-01   5.0723934e-01   4.5184323e-01  -9.8121135e-01   2.9060985e-01  -9.0289828e-01  -4.6550963e-01  -9.0217833e-01  -3.4991953e-01   9.9778817e-01   5.6642240e-02   9.0371634e-01   8.6871426e-01   3.6823647e-01  -7.6640686e-01   7.4642018e-01   6.5369423e-01   4.3639982e-01   3.3664796e-01   8.4235764e-01   4.1660550e-01  -3.8030517e-01   9.4961692e-01  -1.3926142e-02  -5.1340363e-01   7.8682701e-01   3.8930239e-01   8.9192531e-01   2.6994768e-01   5.9703032e-01   8.5143308e-01   7.0484695e-03  -2.9236508e-01  -7.9730312e-01  -1.5399571e-01   8.7763147e-01   7.5184679e-01  -3.9598366e-01   3.7817376e-01   3.0998697e-01   2.8692152e-01  -7.5368024e-01  -8.6205930e-01   3.3947682e-01   8.6549045e-01   1.5483836e-01  -2.9384569e-01  -2.5970323e-01   5.9809835e-03   8.3618153e-01  -5.5960721e-01   6.5347370e-01   4.0327788e-01  -1.0438595e-01   3.2299776e-01   7.0135229e-01  -1.7187589e-01   8.5314014e-01  -7.4241599e-01  -4.6175386e-01   5.6956237e-01  -8.4922926e-01  -2.9309026e-01  -8.4673527e-01  -4.8722582e-01   8.8374558e-01   7.0408384e-01  -6.8460782e-01   3.0498370e-01  -6.9213009e-01   5.7299089e-01  -6.6597227e-01  -3.6905523e-01  -9.1841968e-01   7.8032569e-01   6.7443404e-01  -3.8865298e-01   2.4790310e-01  -6.8862717e-01  -4.4234819e-01   5.0841784e-01   2.8390119e-01   6.4280470e-01  -3.0285840e-01  -9.2342359e-01  -7.1099498e-01  -7.9782700e-01   3.4124274e-01   8.7722457e-02  -7.1022558e-01   8.4096929e-01   1.1601709e-01  -9.0877567e-01  -7.5597588e-01  -4.1171588e-01   6.8589418e-01   6.6026897e-01   9.3464960e-01  -8.8541631e-01  -3.4215357e-02  -2.9440471e-01  -7.2525807e-01   5.6542242e-01  -8.7184452e-01   1.7132980e-01  -9.1175091e-01  -9.3344142e-01  -9.0198707e-01   2.5782956e-01  -3.6264059e-01  -1.3216122e-01  -8.7278250e-01  -8.3020806e-01  -9.8379752e-01  -5.5816611e-01   2.2254839e-02   7.9169168e-02   7.4097179e-01   5.2999369e-03  -8.5669895e-01  -3.6926216e-02  -2.7970145e-01   7.0370162e-01   9.6091353e-01  -4.0766227e-01  -1.9568500e-01  -2.6996903e-01  -7.4798969e-01   1.4569944e-01  -9.0130791e-01  -3.3948651e-01  -6.6755223e-01   4.2579016e-01   3.1611452e-01   8.8624092e-01   5.3202935e-01  -6.1984024e-02  -3.9477549e-01   4.9078297e-01   6.1974849e-01  -8.3465301e-01   8.5498569e-02   9.5637263e-01  -6.4751850e-01   7.6227150e-01  -4.3868132e-01  -1.6203900e-01  -2.8875416e-02  -8.5416290e-01  -1.8346888e-02   5.3797405e-02   9.9861403e-01  -7.9730086e-01   7.0554547e-01   1.3017959e-01  -6.0355479e-01  -1.4024372e-01   6.9150973e-01   1.6941771e-01   9.4930749e-01  -2.4567649e-01   4.2536088e-02   9.1199761e-01   5.1445429e-02  -3.4072949e-01  -3.3730156e-01   4.1685158e-01   7.7909235e-01   6.8828252e-01  -7.0846225e-01  -7.2375148e-01   5.5507061e-01   8.8165010e-01  -6.8843832e-01  -9.3483593e-01  -9.4640605e-01  -8.6619819e-01  -5.0063743e-01  -1.4985564e-01   3.3945415e-01  -8.4439558e-01  -7.0967283e-01   3.5782402e-01  -2.1157521e-01  -3.9270871e-01  -5.5795585e-01  -5.2509571e-01   4.5792732e-02   7.2803020e-01   3.7419921e-01   5.6380651e-01  -4.0118349e-01  -5.7099995e-01  -7.4870714e-01  -3.8611902e-01   8.9305082e-01   9.9620373e-01   8.2374580e-01  -7.3416971e-01  -9.3285376e-02  -4.6913732e-01  -5.6686649e-01  -9.9940597e-01   1.8650561e-01  -2.3627275e-01  -8.7349282e-03   1.0270775e-01   2.5220032e-01   4.0908921e-01  -6.3203236e-02  -2.7137525e-01  -6.5984537e-01  -3.8907215e-01  -2.4024204e-01   3.5718680e-01   4.3941117e-01   1.4728005e-01  -8.2805039e-01   2.2342476e-01   9.1735457e-01   5.7469109e-01  -1.8715816e-01  -2.5660273e-01  -1.4174645e-01   9.9322069e-01  -7.6627977e-01  -7.4038443e-01  -6.8045014e-04  -8.2982571e-01   5.5393794e-01  -7.8085644e-01   2.8335292e-01   3.6529821e-01   3.3591550e-01  -7.2792718e-01  -8.1403210e-01   9.1438813e-01  -5.4259034e-01  -6.6486372e-01   5.8904937e-01  -6.0783657e-01   2.7662693e-01   6.0698297e-01  -5.2640122e-01  -8.0875402e-01  -5.7667046e-01  -1.0589134e-01  -9.6498610e-01  -3.1791697e-01   6.5780937e-01   7.8764441e-01   7.3083106e-01  -2.1173445e-01  -3.2161268e-01  -1.2749797e-01  -8.5507115e-01   7.1460428e-01   4.3514794e-01   5.9073984e-01  -2.7297379e-01  -1.8715744e-01   5.7122517e-01  -8.0738965e-01   8.0128546e-01  -7.7971386e-01  -2.2129661e-01  -8.2246228e-01  -9.5240956e-01   6.2609866e-01   2.2800046e-01  -5.8492749e-01   4.9706604e-01  -8.7048605e-01   9.9031917e-01   7.2729222e-01  -1.4829627e-01   9.8441122e-01  -9.6182537e-01  -4.6964775e-01   2.4279425e-01  -9.5375026e-01   8.4361409e-01   3.4441001e-02   7.7815732e-01   1.7021718e-01   7.8770439e-01   3.8902721e-01  -5.8381313e-01  -2.1137610e-01  -9.0345081e-01  -7.0675352e-01  -8.5736441e-01   2.8477135e-01   1.1186992e-01  -9.6419999e-01  -9.6792019e-01   7.8117993e-01   3.1544756e-02  -9.8005576e-01   7.8597333e-01  -4.7695128e-02   4.7645982e-02   3.3373407e-01  -5.9080404e-01   2.0014927e-01  -8.9895733e-01  -4.0085408e-01   7.1614889e-01  -9.5956142e-01   7.0970547e-01  -4.7003772e-01   9.5321372e-01  -5.9715057e-01   5.1622024e-01  -1.6435838e-01   1.9812667e-01  -7.1164534e-01   4.3747006e-01  -5.4905873e-01  -9.5789760e-01   4.4388419e-01  -5.1268576e-02  -4.0722627e-01  -4.9093576e-01   1.3116669e-01   9.4765099e-01   5.7273270e-01   4.4422987e-01  -2.8795176e-02  -5.9206730e-01  -5.6333846e-01   6.3915556e-01  -7.9460389e-01  -8.8906426e-02   2.3921585e-01  -2.4301950e-02  -3.8688044e-02  -2.6864740e-01   3.4321891e-01   2.2232399e-01   1.9843544e-01   2.3603999e-01  -2.6260702e-01   6.3121762e-01   8.3007787e-01   5.0742746e-01   4.1926571e-01   6.0760745e-01  -6.9924969e-01  -5.1925999e-01  -3.3155779e-01  -9.6120995e-01  -6.4404774e-02   3.8498775e-01  -2.8400405e-01   5.8803198e-01  -9.0040653e-01   8.1065092e-01  -3.9423758e-01  -4.3452783e-01   7.9834913e-01   4.0437443e-01   9.0171594e-01  -1.1359996e-01   2.4485554e-01   8.4691472e-01  -3.3499497e-02   3.8950046e-01  -3.4704775e-01   6.4439714e-01   6.4751607e-01  -1.5822740e-01  -4.7138472e-01  -7.1201295e-01  -1.5920046e-01  -9.3994347e-01  -3.6148442e-01   4.3553813e-01  -8.5647658e-01   8.5937426e-01  -7.6214278e-01  -4.9000914e-01   3.8278412e-01   2.4801137e-01   5.6458268e-01  -5.2871245e-01   8.4345790e-01   2.7600863e-01   3.0903464e-01   4.3717932e-01   8.5114705e-02  -3.9348097e-01   2.4848810e-01  -1.9584883e-01  -9.9093142e-01  -6.5928420e-01  -6.0585210e-01   9.5926057e-01  -4.6785963e-01  -9.7045184e-01   3.0952331e-01   7.5973313e-01   9.8964907e-01  -7.4221145e-01  -3.9904727e-01  -6.6615371e-01   3.8053455e-01   2.4253745e-01  -7.6289823e-01  -4.0943854e-01  -5.4435162e-01   5.9540947e-01   3.5653712e-01   1.2045298e-01  -8.5822428e-01   6.8352818e-01   9.4415886e-01  -2.8744286e-02  -3.5506527e-01   7.7958960e-01   3.2940363e-01  -7.5284434e-01  -1.3569798e-01   6.8660265e-01   9.8862590e-01  -3.7426321e-01  -9.7880893e-01   9.8833051e-01   4.9391271e-01  -2.1901396e-01  -2.3488359e-01   5.6265076e-02  -7.3723992e-01  -9.3310761e-01  -8.5409124e-01   5.5652128e-02  -9.9185819e-01   3.2119023e-01   1.1383000e-01  -3.4529625e-01   4.6455859e-01   3.9550253e-01  -2.4742233e-01  -3.4264540e-01  -8.1468714e-01  -2.0959441e-01  -8.6141883e-01   5.3823179e-01   7.9797579e-01   3.8444345e-01  -5.6768237e-01  -6.9136590e-01   5.6321169e-01   3.2481569e-01  -1.9694362e-01  -9.3216840e-01  -6.1095606e-01
  -6.5223726e-01  -4.4195016e-01   1.2205355e-01  -3.4170546e-01  -8.3407649e-01  -5.8121843e-01  -6.7518367e-01  -2.2022905e-01   5.4125366e-01  -1.2675008e-01  -3.8122916e-01  -4.0409790e-01   2.0798570e-01   6.5551553e-01   2.5952284e-01  -9.4461275e-01   9.0867875e-01   7.9141053e-01  -9.9050814e-01  -4.8829683e-01  -3.1314609e-01  -3.4604876e-01  -4.7757115e-01  -5.5898638e-01   8.0370200e-01   7.4925550e-01   5.9038688e-01   9.3639665e-01  -8.6652080e-01   3.7124934e-01   3.2859360e-01   2.3711091e-01   2.8622260e-01   2.9981918e-01   3.9005493e-02  -5.0065989e-01  -7.9392030e-01   5.7357231e-01  -1.2491168e-01   7.7342596e-01  -3.2493749e-01  -7.4564387e-01  -6.3786079e-02  -6.0781304e-01   7.0368692e-01   3.3279735e-02  -6.0152399e-01  -4.7777690e-02  -5.4929706e-01  -6.8411716e-01   4.7610226e-01  -8.2066336e-01  -2.6425430e-01   6.8393044e-01   1.2273435e-02  -5.0283922e-01  -1.0780043e-01   9.2579190e-01  -5.3366600e-01   3.1211733e-03   6.1094674e-01   1.9249833e-01  -7.3800911e-01   1.8049724e-01  -4.3160089e-01  -9.1130453e-01   4.1542213e-01  -2.3157607e-02  -9.8400676e-01  -9.5981303e-01  -3.4150883e-01  -5.3494040e-01   6.9795580e-01  -7.9279198e-01   8.7701835e-01  -2.7074742e-01   4.3710221e-01   5.7798166e-01  -9.9221812e-01  -3.6162434e-01  -9.4929855e-01   4.2330232e-01  -4.7619811e-01   7.2258950e-02  -3.0978642e-01   8.6444324e-01  -5.1899981e-01   4.3580941e-01   5.8496779e-01   8.0734101e-01   5.8294716e-01   7.6511759e-01   1.6688865e-03  -8.5324446e-01   8.9231748e-01   1.3463579e-01  -4.8681951e-02  -5.2733515e-01  -8.8100215e-01   7.2711070e-01  -6.0164033e-01   8.0782952e-01  -4.6742920e-01  -3.5848180e-01  -6.5761078e-01  -3.4648828e-02  -9.4027436e-01  -6.1976953e-01  -2.7858735e-01   4.4342369e-01   7.7827264e-01  -9.8853386e-01   3.6491384e-01   5.6827741e-01   9.0676556e-01  -4.2918832e-01   3.6402520e-01  -9.9763270e-01  -4.1061517e-02   8.8468796e-01   6.0545717e-01  -2.1373006e-01  -1.0720220e-01   2.8493698e-01  -7.9343290e-01  -2.1623479e-01  -2.8881103e-02  -3.7560112e-01  -8.9513502e-01  -7.5866732e-01  -2.8219077e-02  -5.4629707e-01  -8.4552689e-01   1.3374631e-01  -7.6885637e-01   1.8845887e-01  -7.9423609e-02   3.0931369e-01   3.8272995e-01   5.4524647e-01  -4.3305295e-01   3.6820610e-01   9.6290987e-01   6.4932417e-01  -6.9269782e-01   9.5492009e-02  -5.0863922e-01   2.9164682e-01   1.7722025e-01   1.0550567e-01   4.3327485e-01  -2.3751701e-01  -1.7422717e-01  -2.1345457e-01   4.5197279e-01   4.5672690e-02  -2.0326705e-01   2.7412732e-01   9.4330045e-01  -5.4066450e-01  -7.1182535e-01  -9.6844658e-01   1.2174253e-02  -5.0840927e-01  -3.4356566e-01   4.0334551e-01  -4.1099935e-02   1.6109974e-01   3.8284940e-01   3.5798222e-01   2.0193941e-01   3.9169027e-01  -5.1755591e-01   9.4404946e-01   6.2404878e-01   4.2123828e-01  -7.1673387e-01  -4.5864162e-04  -4.0735764e-01   5.5098516e-01  -1.4191184e-01   1.7733498e-01   7.9138162e-01  -8.5783035e-01   2.1318012e-01   9.0727819e-01  -1.2918354e-02   6.5019624e-01   3.2361161e-01   1.3271763e-02  -6.3214321e-01  -6.8459746e-01  -5.9283998e-01  -6.3717466e-01   5.5493474e-01   6.4519322e-01   9.4897740e-01  -9.9958127e-01   6.2021004e-01   7.5309159e-01  -7.1959608e-02  -6.3894429e-01  -4.0141609e-01  -2.1285891e-01  -6.5754415e-01   4.3571966e-01  -1.1818329e-02  -5.5182787e-01   2.3513853e-01  -7.3401054e-01   3.9171667e-01   4.7932020e-02  -3.0928025e-01  -6.7134646e-01   2.6910870e-03   4.7894162e-01  -6.0300753e-01  -3.2720499e-01   4.8552977e-01   7.0986720e-01   9.0162271e-01   5.3770097e-03   4.9661175e-02  -8.7463075e-01   5.6279566e-01   4.8415377e-01   5.1220175e-01   4.9810831e-01   2.5780483e-02   8.9013952e-02   2.8505596e-01   4.1384442e-01  -8.1940047e-01  -5.9493456e-01   6.2211638e-01  -6.4321692e-01   8.0836528e-01  -6.9896586e-01  -4.9842185e-02  -3.7737574e-01  -2.0802692e-01  -4.7243101e-01  -3.7539684e-01  -3.9998009e-02  -4.1395906e-01  -8.0198680e-01   6.8963435e-01   9.0979694e-01   2.7351984e-01   9.4355897e-01  -2.6480590e-01   5.8368848e-01  -4.7722678e-01  -8.9528811e-02  -2.7012091e-01  -1.4332807e-01  -2.2329089e-01  -8.4294726e-01   7.6279778e-01   9.1535328e-01  -4.1654840e-01  -3.6233475e-01  -2.5857212e-01  -9.0034834e-01  -9.6614252e-01  -9.4078644e-01  -4.8678877e-01   4.2959426e-01   2.7122581e-01   8.9932479e-01   8.9465525e-01   4.4018152e-01   6.8236300e-01  -2.5113746e-02  -8.1729796e-01   6.7431123e-01  -7.4153048e-01   9.1482762e-01   7.5618158e-01   3.1193918e-01  -5.0905842e-02  -6.1408748e-01   3.3032577e-02  -5.9510688e-01   3.8523980e-01   5.5404559e-02  -4.1995223e-01  -4.9459673e-01   9.4562022e-01  -9.7310822e-01   3.1706001e-01  -2.6228750e-01   2.7020545e-01   7.2589686e-01   7.6669395e-01   9.8229948e-01  -5.0659760e-01  -8.0263433e-01   6.5281140e-01  -5.9352802e-01   7.3857329e-01   6.8070787e-01  -9.3676926e-01   1.7287561e-01   9.6052142e-01   1.1192510e-01   3.9768693e-01   1.6093563e-01   1.7561368e-01   5.0564186e-01  -2.6021631e-01   4.6654075e-01  -4.1404759e-01   5.8903536e-02  -5.3011596e-01   9.7170600e-01   4.0013904e-01  -8.4412148e-01  -2.4580893e-01  -8.4022927e-01  -2.9814973e-01   1.1549628e-01   4.5681607e-01  -4.3760100e-01   8.0006407e-01   5.5994087e-01  -6.3742798e-01   9.8025974e-01  -4.0944478e-01   9.0595436e-01   4.0570502e-02  -3.4176515e-01   9.5343257e-01   8.3569568e-01  -9.6454742e-01  -1.6481717e-01   6.1020271e-01   4.2506660e-01  -3.7676584e-01  -7.3411064e-01  -5.0055039e-01  -6.0349906e-01   5.4301124e-01  -6.0117178e-01   2.0400649e-01  -3.1273729e-01   1.5911703e-01   8.4568432e-02  -7.8153848e-01  -8.2166118e-01  -9.5368675e-01  -1.4925471e-01  -7.2045321e-01  -2.4317666e-01  -4.0578626e-01   7.3101446e-02   5.6632537e-01   2.4529323e-02   3.0940739e-02  -5.3423153e-01  -1.2486171e-01   1.2009070e-01  -4.8565782e-01  -9.5901654e-01  -1.6348970e-01   8.1215594e-01   9.7725826e-01   9.6150620e-01  -2.0409759e-01  -6.4902204e-01   6.8461988e-01   8.3693682e-02   5.8377740e-01   8.1799192e-01   1.9790841e-01  -7.7587428e-01   2.1168472e-01   8.3212391e-01   5.1439946e-01   7.8365583e-01   3.8431566e-01   4.9914013e-01  -3.2385372e-01   6.2572192e-01   3.0912277e-01   7.9419374e-01  -5.9852226e-01   5.8033169e-01  -2.7360241e-01   2.4969485e-01   7.2033823e-01   2.6958621e-01  -4.4263432e-01  -6.7545088e-01  -2.0097053e-01   5.3375268e-01   2.9031169e-01   3.4573802e-02  -1.3210617e-01  -5.3451037e-01   3.4085042e-01   3.9886885e-01  -9.2200402e-01  -4.1786681e-01  -3.2276184e-01  -1.4593588e-01   8.7352063e-01   5.9853618e-01  -4.1956339e-01  -5.3640229e-01  -2.6293302e-02   4.3058328e-01   7.3767543e-01  -6.0316969e-01  -7.9064959e-01  -4.6765784e-01   9.0676690e-02  -2.2613467e-01  -4.5042026e-01   8.0133295e-02  -1.4169296e-01  -3.8960534e-01   4.4818181e-01   7.1173066e-01   2.6908183e-01  -9.1070468e-01  -3.6110233e-02  -3.0836449e-01  -1.1302587e-01  -7.0237827e-02   4.6432379e-01  -2.1859920e-01   9.3589450e-01  -2.2314839e-01   5.6520717e-01   9.8379656e-01  -2.3322654e-02   5.9553000e-01   7.7953152e-01   9.3632636e-01   4.6171637e-01   8.2970650e-01   4.5494779e-01   3.4734064e-01  -6.5075153e-01   9.6813816e-01   9.3141248e-01   3.0197463e-01  -6.1629518e-01   7.9688818e-01  -1.2751849e-01  -2.2581068e-01   6.4627427e-01  -3.7713775e-01   3.8337580e-01   7.2820261e-01   5.2917000e-01  -6.5032661e-01  -8.5152346e-01  -3.2247105e-01  -6.5292139e-01   4.2096996e-01   5.1694075e-01  -2.0424688e-01   7.3207606e-02  -8.6039063e-01  -5.9739833e-01   8.1628781e-01  -7.7245603e-01  -8.1732457e-01   6.4078347e-01   2.6938072e-01  -4.2430484e-01   2.1272897e-01   9.2224345e-01  -8.4140426e-01  -3.0224629e-01  -9.3955348e-01  -8.9131303e-01   9.2490189e-01  -5.8817087e-01   9.7012638e-01  -6.5458342e-01   6.9915541e-01  -3.8948384e-02   9.3909285e-01  -8.7958097e-01   1.0177476e-01  -3.6909256e-01  -9.9202015e-01   4.4030892e-01   1.9469882e-01  -5.5715620e-01   5.2111724e-02  -3.7797811e-01  -3.1734004e-01  -7.0388199e-01  -3.9761446e-01   1.2750226e-01   8.2756008e-01   2.7604716e-01   9.2699245e-02  -6.4294287e-01  -2.2806055e-02  -1.2663928e-01  -1.6508037e-01  -3.9129039e-01   3.2596218e-02  -7.8621787e-01   4.8788598e-01  -4.6457170e-01  -4.7169547e-01  -7.8459321e-01  -6.9868571e-01  -8.6710453e-01   2.1838908e-01   6.5485818e-01  -2.6732868e-01  -2.4171810e-02  -9.3354074e-01  -1.9643802e-01   2.1779186e-02   1.2207542e-01   4.0688597e-02   8.4965075e-01   7.0602760e-01   8.7137124e-01   9.0577846e-02   2.7412818e-01  -8.0487652e-01   9.1257744e-01   8.8778860e-01   7.2931028e-01  -4.2968659e-01  -8.9863980e-01  -4.1741354e-01  -9.3519567e-01   1.0547691e-01  -5.6910840e-01  -2.2237446e-01   5.2440313e-01   4.9127211e-01   9.8928195e-01  -5.1094038e-01   6.9559388e-01  -7.9590366e-01  -9.7569869e-01   5.3425001e-01  -2.9352882e-01  -7.8936697e-01   6.5447135e-01  -1.7134917e-01  -1.4423790e-01   8.6106281e-01  -3.0316311e-01  -2.3685128e-01  -2.8813026e-01  -8.5215261e-01  -4.4589541e-01   3.2639684e-01   5.4619738e-01  -6.1590179e-01  -9.1061793e-01  -3.2581763e-01   3.3046599e-01  -8.9876867e-01  -2.3619987e-01  -9.6508738e-01   3.1925026e-01  -4.6610108e-01   5.8327241e-01   6.0328416e-01   5.9110737e-01  -8.3951616e-01   9.4410331e-01  -4.4061880e-01   5.7381245e-01   7.2476849e-01  -9.6533299e-02  -8.7497694e-01  -3.2723639e-01  -5.9188704e-01   5.6824412e-01  -5.7407969e-01   8.8089955e-02  -7.9251326e-02   2.7752576e-02  -8.4048346e-01  -1.7347534e-01  -3.1464991e-01  -7.6170371e-01   6.2933579e-01   1.3278854e-01   5.2714771e-01  -8.0294347e-01  -8.4869892e-01   3.2573973e-01   6.8189799e-01  -6.0016770e-01  -3.0036842e-01  -7.6248837e-01  -1.4501514e-01   7.5570076e-01  -8.6459800e-01   7.2064949e-01  -1.0860948e-01   4.5568396e-01  -3.8979081e-01   7.2821583e-01  -1.4408778e-01   5.5994096e-01  -2.5550277e-01   5.8148760e-01  -7.9953065e-01   4.6255088e-01   4.4730640e-01  -1.3277660e-02  -1.5480822e-01  -4.9129621e-01   4.4893790e-01  -3.9619345e-02   6.5155032e-02   4.9558378e-01  -3.3859001e-01   7.9136467e-01   2.9135580e-01   7.4556457e-01  -2.3547233e-01   5.5038303e-02   6.6938890e-01  -2.1545599e-01  -9.5452591e-01   4.1885308e-01  -7.2902195e-01   5.6910998e-01  -2.8352977e-01  -7.3994812e-01  -6.0735824e-01   4.2426886e-01   7.4149302e-02   2.8523173e-01  -3.3611895e-01  -2.3163011e-01  -2.4530051e-01   7.9801530e-01   5.2613333e-01   4.0074338e-01   8.1149299e-01   5.2289753e-01  -4.8289958e-01  -1.0162928e-01  -6.1484438e-01   2.5932241e-03   1.6829863e-01   7.5448620e-01  -6.1658457e-01   1.5565032e-01  -1.5238879e-01   2.5932732e-01   1.6167865e-01  -9.5126927e-01   6.2451304e-01   2.8196018e-01  -2.2428136e-01  -6.5743247e-02  -3.3511765e-02   6.0495880e-01   8.4440439e-01  -9.3003071e-02  -7.1319709e-01   7.8610204e-01  -9.8531784e-01  -7.4181129e-01  -5.3568098e-01   5.4820789e-01  -6.3817711e-01  -3.0791136e-01  -7.0150250e-01   7.9783586e-01   1.5477453e-01  -2.9264516e-01  -4.5043187e-03   3.8769303e-02  -3.4469417e-01  -8.4684970e-01   5.1255103e-01  -9.3706599e-02   2.0374628e-01  -4.5391588e-02   9.3041469e-01  -3.3764618e-01  -9.8441227e-01   1.1520082e-01  -3.1242775e-01   7.6217619e-01   6.5690489e-02   5.9859685e-01   5.7434462e-01   2.6033612e-01   4.6289790e-01  -9.1261277e-01  -6.9682662e-01  -4.1488455e-01  -4.9807052e-01  -9.8328353e-01   8.3769466e-01   2.7910148e-02   2.4632982e-01   3.4245779e-01  -2.5500760e-01   3.1799639e-01  -9.9966357e-01  -4.8447940e-01   8.3254006e-02   4.9938792e-01   7.6382443e-01  -5.2499624e-02  -2.0808715e-02  -4.5373797e-01   7.6461199e-01  -7.6646093e-01   4.8919173e-02   5.6059813e-01   2.2295386e-01   8.1944941e-01   4.7934692e-02   8.0986804e-01  -9.5237874e-01   4.2735540e-01  -9.0612245e-01   5.4606279e-01  -3.4907539e-01  -4.1012153e-01  -6.2030745e-02  -3.7310677e-01  -7.2650484e-01   9.6824409e-01  -9.9480279e-01  -6.7842262e-01   5.2366236e-01  -4.0796194e-01   5.6001975e-01  -4.2794906e-01  -5.1007185e-01  -9.1459548e-01   8.9358175e-01  -1.3647770e-01  -4.9878645e-01  -4.1935786e-01   5.4510366e-01  -6.1951338e-01  -8.3340290e-01  -7.5827030e-01  -9.7670926e-01   4.2464296e-01  -3.4680159e-01  -9.5579591e-01   1.8558152e-01   2.2104206e-01  -9.8210037e-02  -3.4128042e-01  -7.6516079e-01  -9.9955853e-01  -8.5032856e-02  -6.5844809e-01   8.9058207e-01   5.5712469e-01  -8.4563430e-01   7.2911465e-01   5.3058875e-01   2.1066223e-01  -1.3327833e-01   3.9639830e-01   7.0155441e-01   4.4823876e-01   7.5732677e-01  -4.9306858e-01   1.0769076e-01   6.7721552e-01   2.3886243e-01  -8.8206068e-01  -9.1335835e-01  -9.5191787e-02   6.1865085e-01  -1.4581760e-01   5.1025387e-01  -9.0164650e-01   1.2479015e-01  -9.6511462e-01   3.2104012e-01  -5.7724620e-01   6.8509072e-01  -6.3112520e-01   2.0631451e-01  -5.9364505e-01  -8.7793971e-01   7.3675248e-01   4.1838634e-01  -1.0646410e-01   2.3054249e-01   5.8562130e-01   9.9932959e-01   1.2313388e-02  -2.1067575e-01   3.6745879e-01   7.4416834e-01   6.4476576e-01  -7.6921765e-01  -6.7077900e-01   8.7469160e-01  -3.1353866e-01  -5.7492527e-01   9.2058650e-01  -7.4759452e-01   8.8354012e-02   4.4712562e-02   6.1514628e-01   4.8624648e-01  -2.1602142e-01  -6.9614360e-01  -4.4454748e-02   5.9154213e-01  -8.5342712e-01   8.7424343e-01  -7.2505370e-01   6.2622636e-01  -9.3631811e-01  -7.9362368e-01   6.3004316e-01   8.1873842e-01  -6.9362144e-02  -9.0970662e-01  -3.2048070e-01   8.4740204e-02  -5.6733561e-01   4.3779539e-01  -3.4031479e-01   2.4639672e-01   9.5161360e-01  -8.1781861e-01   5.5853440e-01  -2.1758706e-01  -9.1404563e-01   1.7384349e-01  -6.7778009e-01  -5.6873573e-01  -3.4071478e-01  -5.4168156e-01  -7.5252593e-01   7.7316135e-01  -1.0029755e-01  -9.9113344e-01   9.2848748e-01   6.0130087e-01   2.4368343e-01   1.1974871e-01  -2.8767999e-01   4.5297965e-01   8.8933331e-01  -6.6488944e-02  -6.7717871e-01   5.6386504e-01   5.9553281e-02   5.8256523e-01  -5.0087897e-01   8.1524464e-01   8.0725783e-01   9.0626964e-01  -5.2613364e-01   8.3701323e-01   2.9183378e-01   5.4808580e-01   6.9033098e-01  -7.4160635e-01  -6.8192437e-01   3.9140467e-01   5.5770763e-01   3.4626157e-01   7.6468141e-01  -3.2060497e-01   7.0487966e-01  -7.5932135e-01   1.5428921e-01   5.4831504e-01  -2.1368791e-01  -3.2414975e-01  -5.3875086e-01  -3.1774979e-03   5.5055389e-01  -1.5078346e-01  -4.9572896e-01  -2.1427979e-02  -9.7600257e-01  -9.0024089e-01   8.0320734e-01  -1.7260763e-01  -4.3253132e-01   8.3821886e-01  -2.5991471e-01   3.8500204e-01  -1.6568151e-01   5.6698727e-01  -3.4978666e-01  -6.3941962e-01  -5.9233877e-01  -8.2242308e-01  -3.1808890e-01   9.1024747e-02   8.2978487e-01  -8.7650651e-01   5.9519884e-01   4.0252865e-01  -5.3916052e-01  -1.3054731e-01   7.7296698e-01   3.3011730e-01  -2.6483401e-01   4.2413205e-01   6.0865521e-01   7.1651906e-01   5.6769119e-01   5.5630843e-01  -2.9698606e-01  -4.5181055e-01  -1.0662156e-01  -9.9630756e-01   5.6929196e-01   7.7927188e-01   1.0983360e-01  -2.9307411e-01   9.5079305e-01   4.3558032e-01  -7.5972332e-01  -1.8913140e-01  -6.7889263e-02   9.1845470e-01   4.3305705e-01   8.3934270e-01  -6.3992485e-01   8.9548998e-01  -7.5028971e-02  -4.0775687e-01  -2.7245424e-01   3.3052639e-01   1.2893027e-01  -2.9178303e-01   8.6772812e-01   4.0200072e-01   5.4783140e-01   4.1339753e-01   8.3539181e-01   6.9057009e-01   4.1126765e-01  -9.7388258e-02   7.7807186e-01   8.6706876e-01   4.7892932e-01   2.8735912e-02  -4.4652908e-01   8.7132402e-01  -3.2364159e-02   8.2939323e-01   7.1549933e-02  -2.8590722e-01   5.7210855e-01  -2.9963419e-02  -8.5326449e-01   7.2085300e-01   9.1315306e-01   1.4555491e-01   9.0599668e-01   2.3937813e-01   1.2439279e-01   6.0744713e-02  -7.5364030e-01   1.2361409e-02  -4.2651638e-01   1.6320415e-01  -5.0537820e-01  -8.9600183e-01  -7.0406630e-01  -2.8459712e-01   7.6488346e-01   6.7730786e-01  -8.6684394e-01  -9.1259177e-01  -5.1009130e-01  -2.1190833e-01   9.5275696e-01  -5.4908762e-01   6.1180215e-01   2.8832208e-01  -2.2269953e-01   7.1160589e-01  -7.5629411e-01  -3.5885822e-01   6.0466760e-01  -5.6416167e-01   8.3032072e-01   7.2260074e-01
