   8.7594280e-01   9.5177688e-01  -7.6645206e-01   1.3984092e-02   6.8288815e-01  -7.6247496e-01  -4.3820774e-01   9.5622561e-01  -3.3828443e-01  -9.8392728e-01   9.4197132e-01   7.7978326e-01  -5.0305004e-01   9.2184114e-01   7.9402088e-01  -8.3499286e-02   5.6164274e-01  -8.4104881e-01   5.0918202e-01   8.7242111e-01   9.5801042e-01  -2.5822836e-02   7.1925105e-01   2.4769732e-01   6.6463884e-01  -8.3061028e-01   5.6775375e-01   8.5318346e-01   7.2216788e-01   4.8881867e-01   7.0038474e-01   8.7323043e-02  -5.2500678e-02  -9.6807602e-01  -3.3106452e-01  -5.2079799e-01   2.0184177e-01  -3.7440218e-01  -8.6333671e-01  -1.2847246e-01  -3.1228209e-01  -4.7678673e-01  -5.9756755e-01  -8.2183438e-01  -5.7904244e-01   4.2617386e-01  -5.0095784e-03   5.4357285e-01  -4.3675681e-01   3.9071108e-01   4.5997090e-01  -1.5260309e-01   7.8670158e-01  -3.9116970e-01   2.8873416e-01   1.5751952e-02   1.2162892e-01  -7.9810465e-01   3.7530716e-01   3.4574737e-01  -7.1807520e-01  -9.2496644e-01  -6.6085736e-01   2.5041475e-01   7.4343108e-01  -2.9733713e-01  -4.4714365e-03  -4.9003087e-01   4.5007216e-01   7.4015674e-01   8.6078839e-01   9.8868709e-01  -3.4373242e-02  -3.6125172e-01  -7.6780174e-01  -6.6314357e-01  -3.9602792e-01  -4.4279315e-02  -3.9891734e-01   7.4795505e-01   5.0516618e-01  -9.8572196e-01  -7.0341160e-01   3.9994031e-01  -3.5200361e-01  -6.4390992e-01  -8.8595056e-01   6.2116941e-01   1.3260879e-01  -4.5153573e-01   3.2701080e-01   7.2462326e-02   4.4138216e-01  -8.6159588e-01   8.4193145e-01  -2.4334987e-02  -8.9218779e-01  -2.8771447e-01   1.0928697e-01  -2.1648127e-02   5.2023903e-01   7.6553051e-01   4.0187120e-01  -7.6622930e-01  -4.0012781e-01  -8.5802610e-01  -4.1116259e-01   2.5564723e-01   2.7999909e-01  -3.5805424e-01  -5.6729285e-01  -4.7029019e-01   4.5125730e-01  -1.2532713e-01   5.7619803e-01   1.5009121e-01  -7.1664381e-01   7.1060617e-01  -4.4391773e-01   3.3393529e-01   1.0423116e-01  -1.9194111e-01  -1.9097644e-01  -2.6580066e-01   9.4110284e-01   1.7703873e-01   1.3702214e-01   8.7555389e-01   8.8938039e-01   8.4430417e-01   7.1886625e-01  -2.4766184e-01   3.2154859e-01  -5.5032304e-01  -4.1910497e-01  -7.8664555e-02  -9.6094237e-02  -7.2968005e-01   4.6611515e-01   8.2296911e-01  -7.2113866e-02   2.6875684e-01   4.1352033e-02   6.8495298e-01  -2.3916695e-01   1.9768755e-01  -4.9959291e-01  -6.8721844e-01   5.3969412e-01  -5.1989039e-01  -6.3621248e-01   6.1681431e-01  -4.4214598e-01   3.1918960e-02  -6.1087919e-01   9.3094191e-01  -3.8811137e-02  -4.6580816e-01  -7.1670007e-01  -4.5458554e-02  -7.7590472e-01  -1.2025082e-01   2.0354920e-01  -3.6820567e-01  -9.3993847e-01  -2.8202529e-01  -3.8944698e-01  -2.1021275e-02   9.1829520e-01  -6.8345182e-01  -3.2294681e-01   2.3498338e-01  -1.8892830e-01   3.5211840e-01  -9.0467052e-01   6.3017015e-01   3.1726804e-01  -1.6428017e-01   2.4948279e-01   2.5712618e-01  -1.9019099e-01  -3.8203344e-01   1.8692300e-01   7.7865708e-01  -8.7162102e-01  -9.3736609e-01  -8.6348526e-01   8.4831343e-01  -7.0735188e-02   5.5639315e-01  -4.7246206e-01  -3.3965452e-01  -9.9044733e-01   2.8146247e-01   9.6169344e-01  -9.5170205e-01  -8.2158107e-01   9.8285156e-01  -3.3155905e-01  -5.7395429e-01   5.2405295e-01   5.5943175e-01  -1.0350150e-01  -1.6890020e-01  -4.3579668e-01  -9.8776883e-01   2.8844832e-01   5.9244351e-01  -9.0982690e-01  -6.0940924e-01  -4.7194539e-01  -1.3660270e-01  -4.1684542e-01   3.5349049e-01  -9.1707898e-01  -4.2063132e-01   6.5816737e-01   9.0208464e-01  -8.8605560e-01   9.3845920e-01   7.1235028e-01   6.6959658e-01   9.3597158e-01   3.7629218e-01  -9.5728885e-01   6.8361282e-01  -3.6114527e-01  -6.1795809e-01   8.2120808e-02   6.9582407e-01   7.4643944e-01   9.2624233e-01  -4.8621835e-01  -7.3387563e-01   1.0380489e-01  -6.4790885e-01  -5.2914446e-01  -5.1538896e-01  -9.5187619e-01   9.8310162e-01   1.4614575e-01  -5.6976681e-01  -4.0606882e-01  -7.5082301e-01   5.2903102e-01  -7.3582591e-01  -5.5740754e-01  -3.9250435e-01  -9.2738352e-01   3.4950097e-01  -4.2582192e-01   3.7063704e-01   8.8822599e-01   7.5449718e-01   8.4311445e-01   3.7859008e-01   3.0476000e-01   9.8098835e-01  -7.0177282e-01   4.2706404e-01  -7.2789214e-01  -4.5469959e-01   4.3433712e-02   1.3769897e-01   9.8554695e-02   4.4557447e-01  -6.2103355e-01  -4.6772156e-01   7.1538418e-01  -3.4491428e-01   6.8178871e-01  -3.9674981e-01   8.2307416e-01   2.0007353e-01  -6.4591474e-01   1.4878508e-01  -7.0820669e-01   1.6967800e-01  -9.3566471e-01   4.0606157e-01  -1.0045550e-01  -7.1702131e-01   8.3963657e-01   5.7319981e-01  -4.7383762e-01   6.8801976e-01   4.7821803e-01   2.1102453e-01  -4.7456198e-01  -6.4688225e-01  -7.6615601e-01  -2.0885326e-01   2.7896213e-01  -5.2049991e-01   7.0586842e-01   4.9664045e-01   1.7716089e-01   3.6804031e-01  -1.4046896e-01  -2.8079904e-01   1.0346979e-02   6.0545718e-01   6.7042872e-01   8.0810384e-01  -3.6464637e-01  -2.3348055e-01   8.8194327e-01   6.9921292e-01  -8.2450172e-02   6.7939856e-01   7.3037330e-01  -7.3495786e-02   7.1891625e-01   2.1395826e-01   7.1101201e-01   8.2502929e-01  -2.9273012e-01  -3.1639083e-01  -3.8337662e-01   3.3882923e-01  -7.1445903e-01   4.9823013e-01   1.7017711e-01   7.3278869e-01  -6.0237820e-01  -6.1216867e-02  -3.7362352e-01   1.0469890e-01  -4.0672073e-01  -2.0822216e-01   8.6833959e-01  -9.4882037e-01  -9.7473909e-01  -3.9509986e-02  -4.5621655e-01  -3.3696005e-01   3.3435228e-01  -1.0885776e-01   7.9523140e-01  -3.9888388e-01   6.5609398e-01  -6.5468614e-01   3.1664749e-01  -5.4377835e-01  -7.6826659e-01  -4.6070010e-01  -5.3842596e-01  -9.5457395e-01  -5.4391502e-01  -5.4403845e-01  -9.6530580e-01  -4.9167107e-01   7.1862411e-01   7.3382015e-01   5.2978353e-01   6.2462135e-01   2.5822709e-01   9.3360956e-01   2.9113483e-01  -8.5533917e-01  -3.1755141e-01   1.4768732e-02  -3.2122143e-01   3.9807778e-01   8.5065257e-01  -7.8899851e-01  -5.7819552e-01  -7.2810533e-02  -7.0439146e-01  -3.7371821e-01   8.7403512e-01  -3.3899071e-01   2.4639834e-01  -7.5681998e-01   4.0784243e-01   5.5320870e-01   2.6998439e-01  -9.2730728e-01  -1.1224180e-01  -2.2828403e-02   1.0451870e-01  -7.9038831e-01  -6.7631465e-01   8.0361890e-01  -5.6780214e-01   4.7036234e-01   7.5071480e-01   5.3592408e-01  -6.0892368e-01   3.4978059e-01   1.3914767e-01  -5.3389008e-01   9.4013424e-01   2.5122444e-01   7.7510085e-01   8.3643577e-01   3.0364710e-01  -1.8479504e-02   2.5719579e-02   4.6475679e-01  -1.7855988e-01  -4.1911840e-02   3.8551602e-01   2.1413662e-01  -5.1928482e-01  -1.6119478e-01  -2.9268640e-01   4.4690558e-01  -3.3970518e-01  -2.3944521e-01  -3.0321339e-01  -3.5525264e-01   8.1956952e-01   2.9321994e-01   2.6132888e-01  -4.5925662e-01   3.3685573e-01  -1.7940240e-01   3.0898717e-01   5.0896780e-01   4.4148356e-01  -7.8906749e-01   6.6772347e-01  -7.2400866e-01  -3.3273172e-02   9.1528459e-01  -2.7809736e-01   4.3100651e-01   9.7534074e-01   2.9216155e-01   3.7219989e-01   4.0924648e-01  -5.8535175e-01  -1.3994634e-01  -4.7102710e-01  -7.7190176e-01  -7.5676714e-01  -7.6908877e-01  -1.1653455e-01   6.1299057e-01   7.6202567e-01   5.0379181e-01   5.3707116e-01   1.0195582e-01  -1.9672481e-01  -3.3097012e-02  -5.7456583e-01   5.5118535e-01  -9.8125204e-01   1.9643466e-01  -9.8803132e-01   7.2455618e-01  -7.2772770e-01  -5.1828749e-01   9.0616706e-01  -3.8260105e-01  -7.8200520e-01  -6.4952375e-01   7.3798552e-01  -4.4296849e-01  -6.6499643e-02  -6.7431914e-02  -5.5119998e-01  -1.2113470e-01  -6.4964192e-01   8.8191362e-01  -4.4455112e-01   4.5436779e-01  -3.3859900e-01   9.3559328e-01  -4.5796591e-01   8.2430820e-01   2.9116615e-01  -5.7544537e-01   5.1019713e-01  -7.1774689e-01  -4.1261503e-01  -7.4808754e-01  -8.5783760e-01   8.2410855e-01   8.2908069e-01   6.5711676e-01   7.2989803e-02   3.8632545e-01   6.1951091e-01  -1.7702566e-01  -7.9343583e-01   1.2908256e-01   4.8500546e-01  -2.7789808e-01  -8.4618987e-01  -5.1007800e-01   7.7586124e-01  -3.4195398e-01  -1.7000735e-01  -9.5772692e-01  -7.7119817e-01  -3.8672237e-02   4.4834519e-01   6.4735979e-01   3.7041099e-01  -7.8381164e-01   4.8651102e-01  -7.5441172e-01  -9.4282726e-01   5.2517115e-01  -9.1308333e-01  -7.6208961e-01  -7.6821413e-01  -4.3591275e-01   8.3913991e-01   6.3499549e-03   6.3348522e-01   1.6786310e-01  -3.9346580e-01   7.9194540e-01  -4.6601898e-01  -2.1901302e-02   5.1324089e-01  -9.6966771e-01  -5.3289127e-01   2.4267049e-01   3.5048641e-01   3.9212023e-01  -7.8347212e-01  -3.5260288e-01   9.1683357e-01   8.2054110e-01   2.5706507e-01  -3.0547520e-03   6.4794528e-03  -8.6587908e-01  -4.8021503e-01   5.3564106e-01  -5.4738442e-01   4.5781278e-01   8.8375636e-01   1.5472556e-01   3.8010772e-01  -2.0658745e-01  -9.3230412e-01   7.4361019e-01  -4.2827563e-01   9.4692304e-01  -8.7948272e-01  -9.2263403e-01   6.0928530e-01   4.0870636e-01   2.8775354e-02  -1.8695537e-01  -1.2003012e-01  -3.6454886e-01  -6.7614516e-01  -8.3378359e-01   7.8588635e-01  -5.6071294e-01  -9.5921830e-01   9.2535795e-01   5.1483963e-01   9.5043074e-01  -8.3014034e-01  -2.9719198e-02  -8.5799121e-01  -5.0502116e-01   2.9949200e-01  -8.1458970e-01   7.4087673e-01  -6.6830250e-01  -3.9030516e-01  -4.8084304e-01  -7.6012991e-01   2.3636695e-01  -2.8205308e-01   3.2899254e-01   6.8768577e-01  -6.7955591e-01  -8.7792578e-02   3.9252639e-01   2.7600312e-01  -1.1012761e-01  -7.6279522e-01  -3.0786580e-01  -6.2907996e-01   8.7445965e-01  -5.2433673e-01  -8.4737195e-01   2.0007614e-01   5.6730313e-01   1.8611725e-01   1.5457112e-01  -6.2043852e-02   3.7581137e-01   6.5040348e-02  -8.8195007e-02  -9.2722773e-01   6.5883566e-01   5.1571696e-02   2.8777619e-01   9.6902998e-01  -9.9611128e-01  -1.1833569e-01   2.2235193e-01  -1.4667888e-01   4.3088593e-01  -6.2572226e-01  -5.6560107e-01  -2.0713883e-01  -3.4953638e-01   7.7161132e-01  -3.6898466e-01   7.3849866e-01  -6.7250914e-03  -4.5128798e-01  -8.4686223e-01   5.8435696e-01  -5.6943683e-01   2.6491481e-01   4.8339306e-01  -4.3191057e-01  -9.3523318e-01  -1.8224318e-01  -2.7873228e-01  -1.3756346e-02   4.8734400e-01  -4.4939356e-01  -8.6657809e-01  -4.4287646e-01  -5.2245937e-01   6.0344577e-01   2.2691621e-01   9.7542525e-01  -7.2962120e-01  -5.1205043e-01  -8.9745501e-01   2.3483695e-01   8.8623867e-01   7.8796833e-02   9.0359847e-01   7.4955254e-01  -2.1842491e-01  -5.4158071e-01  -2.1841181e-01  -4.9217187e-01  -4.3547431e-01   5.5295016e-01  -7.2396350e-01  -5.0306977e-01   7.6824485e-01   3.0081971e-01   9.6365603e-01   9.5421627e-01  -4.6037261e-01   4.3042264e-01  -6.2715594e-01   9.0766537e-01   1.5711032e-02   1.7053923e-02   8.2652358e-01   8.0707012e-01  -1.7152173e-02   2.8109298e-01   8.4323750e-01   2.8168601e-01   3.7718312e-02  -2.4758625e-01  -3.7924954e-01   8.0214780e-01  -7.1785171e-01  -1.4468583e-01  -7.8832336e-01   6.1363866e-01   5.4317989e-01  -9.9960512e-01  -4.9691833e-01   5.1607603e-01  -6.3760773e-01  -1.8357487e-01   9.9793730e-01  -4.9024023e-02   4.7477577e-01  -3.3913566e-01   3.5247813e-01  -4.2845463e-02   9.6633861e-02  -1.1712852e-01  -2.0819382e-01   1.9587793e-02  -6.4823913e-01  -3.3258108e-01  -1.1205654e-01   4.0464238e-01   7.8731745e-01   6.0792866e-01   1.9094685e-01   5.5861045e-01   9.3904855e-01   1.6271498e-01  -6.3978453e-01   6.7361942e-01   8.8167118e-02   1.4344875e-01  -7.4751637e-01   1.8916112e-01  -1.3679699e-01   1.8076626e-01   4.4572327e-01   7.8681117e-01   1.1583555e-01  -3.2395982e-01   6.5046891e-01   8.3038624e-01  -6.9147157e-01   9.6074805e-01   9.0927565e-01  -2.6434713e-01  -4.8317132e-01   1.5713315e-01  -7.0286506e-01   1.0988955e-01  -5.2688501e-01  -8.9574349e-02  -9.5593180e-01   2.7166883e-01   3.9426785e-02   6.0401269e-01   6.0650184e-01   7.2336036e-01  -3.6393086e-01   1.4185673e-01  -2.8030746e-02  -1.3300960e-01   3.7199131e-01  -3.8150872e-01   4.2937426e-01   6.6633271e-01   4.3885490e-01   3.4186191e-01   8.1395669e-01  -8.2581113e-01  -7.3307343e-01  -1.6883118e-01  -4.9961632e-01   7.7151723e-01   2.2520048e-01   2.2752368e-01  -1.1051685e-01   1.0575223e-01  -9.1510918e-01  -8.9310668e-01  -7.4025899e-01  -5.2110208e-01   3.0382556e-01   1.5723893e-01  -5.6343675e-01   8.9466506e-01   1.5823709e-01   3.5873644e-01   2.9222470e-02  -2.3966076e-01  -9.2702160e-01  -8.1129786e-01   6.0706875e-01   7.1650135e-01  -2.7781812e-01  -6.9945898e-01   9.6107832e-01   5.8465405e-01  -2.6970935e-01   6.5167768e-02   1.1547754e-01  -1.5747803e-01  -3.4422343e-01  -7.8242243e-02  -7.1424130e-01   9.0420977e-01   9.6270010e-01   1.8804997e-01  -5.8206099e-01   9.9310255e-01  -9.7698242e-01  -2.9628953e-01   9.2736323e-01  -5.6344321e-01  -2.7465278e-01  -2.7760233e-01  -4.7562882e-01  -4.9062584e-02   7.3768151e-01  -9.5235000e-01   8.8304840e-01  -9.0268416e-01   1.0987365e-01  -5.0450266e-01   3.5396282e-01   5.9540171e-01  -8.6736825e-01  -9.8862326e-01  -8.2794504e-01  -7.4584370e-01  -5.4449591e-01   4.0354760e-01   2.6160856e-01  -4.0676619e-01   4.8150430e-01   6.7969094e-01   1.2995486e-01  -3.5772090e-01   9.2491522e-01   1.8038573e-01  -4.7520782e-01   1.3200771e-01  -9.6653010e-01   9.9099964e-01  -9.1295951e-01  -3.0132813e-01   2.0657150e-01  -1.5343437e-01  -9.4719984e-01  -7.7904332e-01  -5.9776573e-01   8.5578807e-01  -5.9720486e-01  -9.8263761e-01  -7.6535817e-01   6.1253793e-02   3.2798663e-02  -5.2245314e-01  -5.7444724e-01   7.9251010e-01   8.1791613e-01   3.2770279e-02   3.3977570e-01   8.5314549e-01  -3.5259607e-01  -2.7490480e-01   8.0838621e-01  -3.3552557e-01  -4.1907395e-01  -5.7365454e-01   6.2078568e-01   9.9426858e-01  -8.1572616e-01  -9.8917585e-02  -8.6303163e-01   4.7187823e-01  -6.4910454e-01   9.1255494e-01  -2.4609743e-01   1.1726406e-01   8.7023449e-01  -5.3842374e-01   5.1265408e-01   3.3930862e-01   2.8609150e-01  -5.3169962e-01   5.7351578e-01  -2.7469652e-01  -8.9357958e-01  -9.3888632e-01   6.3589292e-01   4.9481869e-01   5.7929890e-01  -5.1391978e-01  -8.9051645e-01  -5.4305120e-01  -5.9994760e-01  -1.0730962e-02  -4.1920422e-01  -2.1981697e-01   6.6010060e-01   7.0524139e-01   3.1530792e-01  -5.9706592e-01   1.3754090e-01  -4.1579208e-01   7.2068073e-01  -9.5355151e-01   4.5882960e-01   3.8953908e-01  -6.3399422e-01   6.8799029e-02   6.4878033e-02   9.3365271e-01   5.0890421e-01   3.0725958e-01  -2.8670345e-01   9.1354592e-01   2.3127525e-01  -8.2035077e-01   9.2894818e-01   1.3322920e-02  -9.4363319e-01  -9.0549346e-01   6.8400378e-02  -2.9631045e-01   8.7106622e-01   6.6239861e-01   1.9827574e-01   3.5459277e-01  -9.0339116e-01  -4.3168891e-01   8.9399021e-01  -7.6119290e-01   6.9682900e-01   8.7706091e-01   4.2715398e-01   5.5706201e-01  -2.4793967e-01   8.4624480e-01  -4.8359825e-01   3.4095184e-02  -8.8269486e-01  -8.3005343e-01  -1.5058219e-02   5.5980493e-01   6.9575844e-01  -9.0556687e-01   5.7175538e-01   2.4773775e-01  -5.7740254e-01   8.2528986e-01   1.9210235e-01  -8.2447646e-01  -9.6585019e-01  -7.3642968e-01  -2.8615482e-01   3.7711690e-02   7.2682055e-01   4.8465003e-01   6.7741940e-01   5.8273763e-01  -4.0686518e-01  -9.4831647e-01  -3.8566604e-01   1.5114972e-01   4.5776296e-01  -5.5882398e-01   4.7409717e-02  -3.5840548e-01  -1.7663685e-01   7.7167820e-01  -3.8601858e-02   8.9500397e-01   9.6072633e-01  -1.0131402e-01  -4.6965338e-02  -1.8451623e-01  -8.2533652e-01   7.8896226e-01   9.2669999e-01  -3.4204880e-01  -6.2350049e-01  -7.0531341e-01   5.7140557e-01  -9.7330810e-01  -9.8753855e-01  -5.4960795e-01  -3.3226723e-01   3.8885881e-01  -6.5338663e-01  -2.2087975e-01   1.1799803e-01   8.9317211e-01   9.0883390e-01   9.7465228e-01  -4.0646495e-02  -7.6915672e-01   4.3416094e-01  -3.2000548e-01   6.0452617e-02  -8.0283297e-01  -4.9130775e-01  -2.4501304e-01   4.2318608e-01  -6.4004680e-01  -3.4756087e-01  -7.2101246e-01   9.4106104e-01  -5.6219057e-01   7.2323200e-01  -1.1747337e-01   4.6669749e-01  -3.1689284e-01   9.4018663e-01  -4.8713568e-01  -4.6005855e-01  -5.4713714e-01   1.9218452e-01   1.5014196e-01  -2.4363837e-01  -5.1461935e-01  -9.3059183e-01  -9.0039803e-01  -1.5508172e-01  -7.7295597e-01  -9.8581848e-01  -3.1474945e-01   1.1763010e-02   8.9951940e-01  -6.6345438e-01
   3.5392506e-01   5.1069543e-01  -4.5904411e-02  -7.3177590e-01  -8.7802668e-01  -4.9808699e-01  -9.2511706e-01  -4.8606803e-01  -5.8415232e-01  -2.7623237e-01  -1.3544453e-01  -5.8714421e-02  -5.7961527e-01  -3.3721068e-01   7.8322165e-01  -6.5457794e-01   4.9863293e-01  -1.6131867e-01  -2.3478962e-01  -8.8952750e-02  -5.1434279e-01  -4.1601391e-01  -2.1110937e-01  -6.2005230e-01   8.3787763e-01  -4.3335005e-01  -7.3592619e-01   7.4783299e-01   3.3151022e-01  -6.6982207e-01   6.2712143e-01  -7.6997216e-01   5.5773469e-01   1.4411157e-01  -8.8541176e-01  -5.0748353e-01  -2.0632891e-01   7.8896765e-01  -6.9469159e-01  -8.4022156e-01   8.8556727e-02   2.5332806e-01   8.7726419e-02  -2.5962009e-01   4.9233573e-01  -9.8959469e-01  -5.2446843e-01  -8.8620598e-01  -7.1942808e-01  -7.5508087e-02  -6.2653244e-01  -3.7928260e-01  -6.1310798e-01   6.9011148e-01  -1.2725432e-01   5.6089392e-01  -3.6102041e-01   8.6197975e-01  -2.8424804e-01  -3.0816323e-01  -7.1564200e-01   1.8140806e-02  -4.5582255e-01  -7.3604071e-02  -6.7408080e-01   2.7841630e-01  -3.7726131e-01   5.6390006e-01  -4.7089114e-01   9.5173576e-01   4.2766431e-01   4.2111375e-01  -9.7376686e-01  -3.3296275e-01   7.0357682e-01   9.4499804e-01  -9.4679881e-01   3.4702445e-01   7.7336963e-01   7.4634538e-02  -9.5401201e-01  -1.6030485e-01  -8.2731535e-01  -7.1496458e-01   4.9081935e-01  -3.7905728e-01  -9.4917531e-01  -7.1433313e-01   7.1036121e-01  -6.2500853e-01   7.6877346e-01   5.5649843e-01   7.5539996e-01  -8.9492509e-01   5.3824383e-01  -8.8019301e-01   1.2415865e-01   9.6071382e-01   6.5314530e-01  -6.4977760e-01   5.7043829e-01   2.3201004e-01  -2.0187040e-01   7.6287926e-01   5.6652150e-01   5.5094270e-01   4.6198416e-01  -6.7018107e-01   5.4856908e-01  -1.1733278e-01  -5.9091535e-01  -1.6920118e-01   2.0115036e-01  -3.0314806e-01   9.9742373e-01   9.5312607e-01  -1.0026280e-01  -4.8114331e-01   4.0728448e-01   4.9883984e-01   8.2204896e-01   7.2146195e-01  -4.8626300e-01   9.2895042e-01   8.2643646e-01  -7.1399274e-01  -3.1803558e-01   5.2780640e-01   4.5410649e-01   8.5965839e-01  -9.4373242e-01  -2.1376360e-01   3.2774543e-01   6.3804179e-01   1.2538528e-01  -7.7087793e-01  -3.3463233e-01   2.8222854e-01   9.5221329e-01   7.6012272e-01   2.3362005e-01   9.5074104e-01  -8.9650166e-01   6.5355691e-01   7.0451680e-01   2.2299373e-01   7.3327006e-01  -6.5060011e-01  -4.1273784e-01  -1.0270612e-01   5.4637088e-01  -7.2540537e-01  -4.7923472e-01  -6.1513234e-01   4.2281689e-01  -5.2122673e-01   4.9696871e-01  -5.8625496e-01  -2.7002716e-01   9.7789622e-01   7.0586934e-01  -5.9473500e-01   8.4302343e-01  -5.5882646e-01  -7.7217732e-01  -8.4202291e-01   5.2665806e-01  -1.1654363e-01  -7.7265812e-01   9.8386829e-01   1.4977265e-01   9.8402436e-01   2.9389150e-01   5.5945987e-01   8.6926568e-01  -6.2127763e-01  -5.9245181e-01   9.5957382e-01  -1.8890164e-01  -6.3095825e-01   9.5345141e-01  -9.7676247e-01  -7.4329896e-01   8.4218804e-01   9.6419005e-01   7.8727717e-02  -5.9948182e-01   5.5524581e-01  -8.3221422e-01   7.8475628e-01   7.9788049e-01  -7.1839431e-01   5.2375877e-01   2.0989280e-02   9.1524418e-01  -1.1688807e-01   5.0074604e-01   4.1076127e-01  -2.7619366e-01   6.4850787e-01   3.0642083e-01  -3.3214499e-01   9.4016948e-01   8.8567127e-01  -5.5907760e-01   9.5250293e-01   2.3859188e-01   7.0188493e-01   5.0543134e-01  -8.7823442e-01  -5.4392654e-01   5.3430998e-01  -1.4104232e-02  -6.7879303e-01  -4.4267656e-01   6.1494165e-01  -1.6585696e-01   9.6972530e-01   2.8770934e-01   1.5195327e-02  -1.7227612e-01   6.8208660e-01  -4.8538497e-01  -6.5360459e-01   2.1909584e-01  -8.8272510e-01   5.9281882e-01  -7.7081336e-02   4.4119799e-01  -7.6427685e-01  -3.6550821e-01   3.9487578e-01  -1.1296038e-01   2.5246508e-01  -5.5179029e-01  -8.8315564e-01  -8.5564368e-01  -6.6932525e-01   1.4507337e-01  -1.9568507e-01   3.6874512e-02   2.5037277e-01   5.8286865e-01  -5.2498572e-01  -2.8761473e-01  -2.8110509e-01   9.0736643e-01  -7.5099118e-01   8.1192539e-01   7.0332631e-01  -6.3522344e-01  -2.3846280e-01  -2.7609844e-01   6.6023714e-01  -9.3355864e-01  -6.2206340e-01  -4.4017726e-01  -8.6625675e-01   1.7506784e-01  -3.2531785e-01  -3.8124069e-01  -9.9702312e-01   7.0609050e-01  -5.8036953e-02   9.1774646e-01  -1.7640561e-01  -2.8775026e-03   4.8145773e-01  -1.0360147e-01  -2.1034650e-02   7.0552249e-01  -1.7211587e-01  -2.3622337e-01  -8.6442263e-04  -6.1046353e-01   7.7306789e-01  -2.0706787e-01  -5.9925952e-01   2.1762386e-02   2.8577887e-01   7.0512522e-02   8.9078729e-01  -8.8149403e-01   8.2409962e-01   2.6025582e-01   6.7532350e-01   9.6756433e-01  -7.5783324e-01   2.4244207e-01  -3.3141185e-01  -5.2028549e-01  -8.2749610e-01  -9.0224675e-01  -2.4344185e-01  -4.7449942e-01   5.5293375e-01   8.4315211e-01  -5.3616568e-01  -3.7868139e-01   6.2043223e-01  -4.8979991e-01   7.5775989e-01  -8.8577836e-01   3.6033501e-02  -2.4621198e-01   5.2889280e-01  -2.2018975e-02  -8.6738677e-01   1.4342491e-02  -4.3663690e-01   3.1700828e-01  -9.6406817e-01   7.1086095e-01  -4.1772058e-01  -5.4384795e-01  -5.3006864e-02  -8.0315916e-01  -1.7925719e-01   1.9469136e-01   1.4654340e-01  -7.1867176e-01   4.3298684e-01   7.4658154e-01  -4.5137905e-01   3.8639200e-01  -5.4602990e-01  -8.8166541e-01  -6.5520500e-01  -9.1189283e-01   1.4662311e-01   4.4231372e-02  -8.5684260e-01   7.7054845e-01   5.9699292e-01  -4.2744172e-01   9.3923044e-01   3.6159165e-01   7.8711487e-01   3.7780285e-01  -1.3100223e-01   4.1015204e-01   5.6320792e-01  -5.6473146e-01  -2.3840786e-01  -4.3224902e-01   3.1467155e-01   7.9234678e-01  -3.9687208e-01   7.9604469e-02  -8.7334408e-01   2.4068260e-01  -3.2264953e-01   9.3129720e-01  -4.2659825e-01  -1.2238855e-01  -6.1784846e-01  -2.7968900e-01  -6.2294705e-01   6.1450039e-01   6.3691806e-01   9.3035374e-01   7.4284512e-01   4.5065623e-01   5.9555956e-01   2.6087719e-01  -5.2556507e-01   7.1170627e-01   1.5359724e-01   9.2658096e-01  -4.1039622e-01   5.9249880e-01  -3.8176658e-01   1.9847098e-01   2.9866906e-01   9.9716383e-01  -5.4522425e-01  -3.4128663e-02  -8.8970186e-01   2.6841706e-01   6.2550963e-01  -1.7389521e-01   5.2473320e-01   8.6476828e-01   1.4736191e-01   8.6906278e-01   9.7137267e-01   5.9286012e-01  -5.5256104e-02  -7.6575591e-01   4.2492548e-01   9.1187227e-01  -7.5436107e-01   1.4928815e-01   1.0499675e-01  -8.5516551e-02  -1.3996690e-01  -8.3413814e-01  -2.6301566e-01   2.0585001e-01   3.9830158e-01  -3.4954777e-01  -4.7701753e-01   4.3333454e-01   4.6717424e-01   8.4782442e-01  -1.8233226e-02   5.7398047e-01   9.1522675e-01  -7.8709443e-01  -8.2287602e-01   5.1223897e-01   8.3096506e-01   1.1985102e-01   3.2524874e-01  -2.6482421e-01  -4.1288692e-01   4.5063593e-02   8.6787040e-01  -5.4732465e-01  -1.7898704e-03   5.7256108e-01  -5.5107727e-02  -1.1082145e-01   8.7627739e-01  -2.1007550e-01  -8.1697175e-02  -7.7882320e-01   2.9496509e-01  -3.1856823e-01   7.6736579e-01   8.6301981e-02   4.2173685e-01  -1.4529809e-02   3.7366419e-01   5.7840062e-02  -9.4572520e-01   7.7378605e-01   8.8107178e-01  -2.0522318e-01   2.1144182e-01   5.6172988e-01   9.8559512e-02   6.0705529e-01  -4.6842195e-01  -8.2867798e-01   2.0408494e-01   3.3830627e-01   1.8560997e-01  -4.9245744e-01  -2.4662914e-01   1.0146257e-01  -8.9813505e-01   1.1625776e-01   9.0962164e-01  -5.6711219e-01  -3.1905894e-01  -4.5354808e-01   8.9517899e-02  -5.7350003e-01  -6.9189088e-01   9.1307502e-01   7.3625951e-01   2.7181014e-01  -2.9459897e-01  -4.9783638e-01   3.0383788e-01   8.4896731e-01   5.4296925e-01  -7.5031623e-01   9.6778131e-01  -7.8008186e-01   7.7138703e-01  -1.0752356e-01  -1.5913681e-01  -7.2274369e-01   6.0508273e-01   9.7543906e-01   9.0678874e-01  -3.6603870e-01  -2.8789391e-01   6.3784645e-01  -8.8449828e-01   2.3594331e-01   4.4110320e-01   8.6769155e-01   6.3371653e-01  -6.9810876e-01   3.7094919e-01   7.2517753e-02  -3.8562176e-01  -3.0168858e-01  -1.8449909e-01  -4.9427416e-01   1.6432532e-01  -2.4915551e-01   4.1953704e-01  -1.3935079e-01   5.2652804e-01   7.8981581e-01   7.0294716e-01   3.0974000e-01   9.1677166e-01   8.3883031e-01   7.9497157e-01   4.2150253e-01  -1.2153876e-01   4.7306789e-01   2.9177852e-01  -1.8906797e-01  -6.5709462e-01  -3.1963456e-01  -8.3739329e-01   1.8451422e-01  -4.9216455e-01   9.6466140e-01  -2.4037885e-02  -5.4941048e-01   9.0727637e-01   5.6231772e-01   7.8483628e-01  -9.2905052e-02  -9.0506991e-02   6.6589412e-02   1.8444223e-01   9.0371644e-02   6.9639283e-01  -2.7564688e-01   6.9285531e-01  -8.6349279e-01  -2.8143048e-01  -1.1798647e-01   7.8556278e-01  -2.3327313e-01  -8.8354246e-01   2.2324471e-01  -8.4664544e-01   9.0749278e-01   5.2652628e-01  -4.8631415e-01  -6.6013265e-01   4.8879312e-01   6.3207655e-01   5.1094916e-01  -9.0166059e-01  -9.9676336e-01  -9.5485512e-02   9.5350563e-01  -1.7381469e-01  -6.8411308e-01  -3.2721000e-01   8.2977520e-01  -5.7509930e-01   5.1784548e-01  -4.6215741e-01   6.3839289e-01  -1.9899101e-02  -9.1655294e-01  -3.7761749e-01   5.4019411e-01  -8.4173786e-01   1.7160419e-01  -9.1631948e-02  -4.6793697e-01   3.6241963e-01  -3.7628881e-01   6.3005042e-01   4.3556298e-01   9.1019410e-01  -6.2182006e-02   1.9034155e-01  -1.1541297e-02   8.1768807e-01   7.0208070e-01  -2.3004193e-01  -1.9496168e-01  -4.6989051e-01   1.1351649e-01  -1.1354400e-02  -5.7075635e-01  -6.5671365e-01  -8.5356412e-01   4.8855610e-01   1.7172657e-01   4.4018891e-01  -9.7933993e-01   5.3094913e-01   7.8805807e-01  -4.4196710e-02  -1.5891417e-01  -2.9644983e-01  -5.9066041e-01   1.1501696e-01  -5.7301300e-01  -9.2575383e-01  -9.7645924e-01  -3.3324431e-01  -9.1150924e-01  -6.3655586e-01  -2.4791806e-01   4.2498235e-01  -7.1264076e-01  -7.9134122e-01   4.0628528e-01  -1.1040694e-01  -3.3623406e-01  -3.4746304e-01  -7.0094408e-01   1.8230674e-01   4.6214490e-01   3.0956212e-01  -4.1288907e-01   6.5356609e-03  -5.2980765e-01  -8.6214889e-01  -5.7766304e-01  -1.0326302e-01  -3.6121525e-01   1.9626937e-01  -9.5450215e-01  -1.6957340e-01  -2.0736434e-01  -7.7397867e-01  -9.2701426e-01   7.1043448e-01   5.2795403e-01  -1.7295668e-01  -7.1134650e-01  -8.3854307e-01  -6.8122116e-01  -3.1720718e-01  -4.2480088e-01   8.2735494e-01   1.4225059e-01   2.0131325e-01   1.9182774e-01  -7.1262141e-01   3.2492039e-01  -7.2323019e-01  -9.2686941e-01   9.5081758e-02  -4.1400260e-01   9.7771874e-01   8.8935679e-01  -9.1978205e-01   5.7981414e-01   1.6462135e-01   3.8330530e-01   4.9860770e-01  -2.7870025e-01  -7.1009311e-01  -8.4479725e-01   7.1301013e-01  -4.3301184e-01  -9.0587048e-01   6.8392193e-01   3.1638877e-01  -3.2490940e-01   6.8753354e-01  -6.2390091e-01  -5.1924317e-01   5.1374681e-01   7.4601702e-01  -3.9134345e-01  -2.0177873e-01  -7.3544501e-02   6.6907558e-01  -3.0375126e-02   6.6466398e-01   7.3228834e-01  -8.4482515e-01  -3.6891280e-01   8.4723592e-01  -5.4830517e-01   7.7720816e-01   8.1349000e-01  -6.5287593e-01  -2.6703748e-01   1.6743571e-01   7.1555678e-01   9.0284094e-01  -1.8134333e-01   7.0448287e-01  -4.8644576e-01   9.4097112e-01   9.2220178e-01   7.5214449e-01  -9.7082716e-01  -4.4065048e-01  -8.0445560e-01   7.9468797e-02   7.4325619e-01   1.3753507e-01  -2.0213756e-01   2.8994199e-01  -7.8331200e-01   1.5005383e-02  -9.3104257e-01   1.2952574e-01  -1.9329586e-01   3.5548591e-01   4.6677812e-01   6.3581874e-01  -1.5285340e-01  -1.3807457e-01   7.7398548e-01  -9.5946325e-01   2.2154136e-01   8.7133929e-01   1.1659703e-01  -8.2642216e-02   7.1196767e-01  -4.1896447e-01  -1.9648428e-02   4.0240193e-01   3.4615167e-01   3.6897860e-01  -9.2335920e-01   2.9767556e-01   1.6621701e-02  -6.0020013e-02   5.8320138e-01   1.0359924e-01   8.5304086e-01   6.2588571e-01  -8.0013005e-01   8.4469309e-01   2.9450664e-01  -9.0053484e-01  -4.2147497e-01   8.5006825e-01   5.8524899e-01   4.1324191e-01   3.3950073e-01  -7.7104517e-01  -5.3284762e-01   7.2378722e-01  -9.9051703e-03   6.5430432e-01   5.8620166e-01  -3.6228032e-01  -4.1883605e-01  -1.7230859e-01  -9.4316498e-01   4.6563221e-01  -1.7907432e-01   2.4608919e-01  -3.2894310e-01  -8.3279888e-01  -6.6156196e-02  -6.2214253e-01   2.1605143e-01  -2.8931098e-02   3.7746465e-01   7.1017462e-01  -1.0106985e-01   9.3603321e-01  -6.9201375e-01   7.9371618e-01  -3.9554917e-01  -2.0470502e-01  -2.3384916e-02  -9.2990453e-01  -5.6319966e-02  -9.7935084e-02   1.8887498e-01  -4.9478701e-01   4.0398107e-01  -1.8819555e-01  -1.5406147e-02  -9.5780224e-01   1.1839824e-01  -5.5310387e-01  -4.3926407e-01   7.0833382e-02   5.8872113e-01   6.5549059e-01   5.8634300e-01  -5.6835545e-01  -3.2819785e-01  -9.8468675e-01   9.8241450e-01   5.9994175e-01  -9.9846688e-01  -3.9382260e-01  -1.2198569e-01  -7.8293923e-01   3.5101314e-01   7.6179064e-01   1.4675612e-01  -6.1737335e-01  -1.4981613e-01  -3.9782775e-01  -5.0735415e-02  -3.7443627e-01   2.3173002e-01  -2.0144240e-01  -4.3971351e-01   9.6007126e-01   8.2745625e-01  -7.6990848e-01   7.8687548e-01   9.2313951e-01   9.0114842e-02  -3.0603571e-01   2.5796974e-01  -9.7583851e-01  -2.2171028e-01   3.4852944e-01  -1.3709141e-01  -3.9329344e-01   1.6658685e-01   1.7174965e-01  -2.7482626e-01  -5.9584665e-01   4.0736484e-01   2.8232176e-01  -8.5494457e-01   1.2604159e-01   8.2977456e-02   7.9811001e-01   3.5576224e-01  -7.6295579e-01   6.7705349e-01  -5.6217501e-01  -4.9394811e-01   1.8951275e-01  -7.2155558e-01   5.1224610e-01  -5.0276578e-01   1.3399547e-01   1.9190959e-01  -1.8517055e-01  -9.0758013e-01   2.9378073e-01  -9.9707122e-01   9.3102905e-01  -3.8160060e-01  -6.3883402e-01   5.1374403e-01  -8.6052588e-01   8.3329459e-01  -4.8068616e-01   8.5913933e-01   4.7026145e-01   2.4825179e-01  -1.9232736e-01   4.1414608e-01   9.7609227e-01   7.7615614e-01   7.5169237e-01  -2.6701844e-01   8.1846939e-01  -1.3166493e-01   7.2844546e-01   8.2557609e-01   9.9405313e-01   3.1148313e-01   3.5379336e-01   7.3566140e-01  -5.2558892e-01   6.3951385e-01  -9.0350018e-01   1.1511207e-01  -5.6430579e-01   8.5123058e-01   6.9169995e-01  -5.2599881e-01  -8.7054115e-01  -8.2889104e-01  -7.8450389e-01  -4.9514448e-01  -7.4747600e-02  -9.8777634e-01   6.2409579e-01   1.1804281e-01  -1.4481567e-01  -1.0842966e-01  -3.9327885e-01  -8.1178475e-02   6.0115411e-02   7.4402577e-01   4.7607798e-02   3.3226575e-01  -6.3096155e-01   1.6027880e-02  -5.6981151e-01   3.4416136e-01  -8.3501125e-01   1.1244161e-01   6.9982030e-01  -1.9278501e-01   9.5929106e-02   8.4770190e-01   1.6928252e-01   3.7480693e-01   8.7983194e-01  -9.2607557e-01   6.6801121e-01   9.5459291e-01   5.5576676e-01  -8.6303337e-01  -4.0781764e-01   3.4269711e-01   3.8903248e-01   4.5634601e-01  -6.4572423e-01   2.4521794e-01   4.1308020e-01   3.5163018e-02   2.0252722e-02  -6.5739102e-01   8.0999113e-01  -6.1120325e-03  -7.4872724e-01   3.1430389e-01  -9.9838140e-01   1.4687983e-01   9.7074295e-01   5.6260824e-01  -7.0975776e-01  -2.1605582e-01   6.4283603e-01   5.1610198e-01  -9.0767646e-01   6.4526110e-01   6.0344040e-01  -1.6765083e-01  -3.2937121e-02   4.0611364e-01  -4.0039250e-02   3.4655076e-02   9.1431307e-01   1.9596762e-01  -2.7204774e-01  -2.6885686e-01   6.7503799e-01  -3.9680967e-01   1.9125934e-01   2.8029486e-01  -5.5168097e-01  -6.8376697e-02   4.9687637e-01  -4.4088857e-02   7.4709073e-01  -9.0346571e-01   6.1175563e-02  -9.9909299e-02   3.3266844e-01   9.6823286e-01  -4.4089093e-01   8.7927931e-01   8.6306935e-03  -6.6888955e-01  -2.5372854e-02  -6.7089177e-01  -8.8956526e-02  -4.8464841e-01   8.2925404e-01   9.7494748e-01   8.7561574e-01  -9.9632483e-01   6.7427595e-01  -6.9642911e-01  -2.5622537e-01   3.6856612e-01  -5.6107408e-01  -8.5690536e-01  -7.7197981e-01  -8.4012732e-01   3.9226554e-01   2.2286254e-01  -6.9948532e-01  -4.2913440e-01   9.1257428e-01  -9.0127262e-01  -7.8221334e-01   5.8849225e-01   4.9579015e-02   2.8480383e-01   9.8983956e-01   7.8162672e-01   9.0262317e-01   1.5616020e-01   4.8889620e-01   9.7713195e-01   5.9902881e-02   8.9853390e-01   2.5809660e-01   3.9464898e-01   8.1325141e-01  -3.6607813e-01  -9.7525481e-01  -2.5815941e-01  -3.1218200e-01   2.2690584e-01   3.0014430e-01   9.9609693e-01   7.8308971e-01   5.7342757e-01  -4.4638844e-01
   7.3163039e-01  -6.0072491e-01   2.8910959e-01   9.8277465e-01   3.8849106e-01  -7.2920155e-01  -8.4647904e-01   2.1831654e-01  -9.6347744e-01  -9.5018563e-01  -8.2299543e-01   8.6700698e-01   9.8087345e-02   7.9163212e-02   8.2995140e-01  -4.0970475e-02  -2.4515889e-01  -3.5565660e-02  -8.1890395e-01   8.0302306e-01   7.1880212e-01  -2.7527268e-01  -8.5957187e-01   3.7851069e-01   4.9482634e-01  -8.5938006e-01   4.0379080e-04  -3.4864023e-01   6.0611298e-01   8.6334436e-02  -7.9867036e-01   2.7072061e-01   7.5457471e-01  -7.6142245e-01  -9.2263400e-01  -8.3234849e-02  -3.3258475e-01   6.0570767e-01   7.0778013e-01   3.4349668e-01  -9.3067182e-01  -5.2599106e-01   6.3650315e-01  -2.8290721e-01  -4.0489009e-01  -8.8346175e-02  -7.7892659e-01  -5.2853388e-01  -4.2633920e-01  -2.4248126e-02  -3.7003458e-01  -5.4182279e-01  -7.2116887e-01  -3.4274316e-01   9.1031052e-01   9.6116196e-01  -2.9063524e-01   4.9800565e-01  -1.7149422e-01   3.6878071e-01   1.0210408e-01  -1.5819003e-01   4.4667015e-01  -7.5066334e-01  -9.5355588e-01  -1.4155531e-01   7.1112359e-01  -9.4976573e-01   1.8486634e-01  -8.6447017e-01   8.1874539e-01   8.0789034e-01  -7.0436958e-01   1.5575170e-01  -9.3510362e-01   5.3199795e-01   1.9787443e-01  -2.1974882e-01  -4.4600728e-01   9.9640683e-01   5.5947046e-01   1.7853363e-01  -3.6222339e-01   5.1701230e-01   7.2989244e-01   1.7899234e-01   8.3020190e-02   6.5927470e-01   4.0260015e-01   4.6678835e-01  -8.5575245e-01  -3.2349112e-01  -4.1524491e-01   2.7221205e-01   3.3356188e-01  -1.5551947e-01   8.0145718e-01   2.4912153e-01   7.2257989e-01   5.3762621e-01   2.9996898e-01  -8.7609811e-01  -6.0487936e-01  -1.2041704e-01  -7.1088736e-01  -5.2150111e-01  -6.3011221e-01   4.5611184e-01  -9.7747744e-01   9.8730063e-01  -2.8496283e-01  -6.9214638e-01  -2.4042129e-02  -6.2313161e-01  -8.2883600e-01  -6.7142006e-01  -8.3698755e-01  -8.4825010e-01  -4.8158203e-01  -5.6167999e-01   5.1715356e-02  -2.2329760e-01   6.3510370e-01  -7.2749762e-01  -2.7019318e-01   8.7328836e-01   8.5577259e-01  -4.6179389e-02   4.7108647e-01  -3.8631102e-02  -7.2200222e-01   7.4923620e-01   2.0850489e-01  -9.6526479e-01   6.4917726e-01  -4.8679326e-01  -4.3172055e-02   9.2165468e-01   4.2607681e-01   4.3548566e-01  -8.8669424e-01  -4.1719365e-01   8.3032477e-01   8.3847632e-01   3.5709233e-01  -5.6477371e-01  -1.0204359e-01   4.0991923e-01  -1.9102719e-01  -7.0256832e-01   7.0062101e-01   9.2325225e-01  -2.3186909e-01   8.8454601e-01   7.1535482e-01  -6.5813235e-01   8.7789034e-03  -5.8678449e-03   1.3409315e-01   8.7599565e-03  -1.2827316e-01   8.6417779e-01   5.0821758e-01  -8.4186207e-01  -4.5619091e-01  -3.5308188e-02  -2.3356211e-02  -7.5606336e-01  -5.5052004e-01   7.4342809e-01  -4.4152598e-02  -9.5716008e-01   5.4460301e-01   9.0545657e-01   7.3086720e-01  -7.3453893e-01   9.0690056e-01  -8.6697278e-01   5.6535049e-01   2.4620595e-01   6.4693168e-01   6.4118533e-01  -5.5398807e-01   7.2393373e-01   8.0272600e-01   7.5561530e-02   6.9540544e-01   8.5228717e-01  -4.3219205e-03   8.2886443e-01   5.8857793e-01   4.6320504e-01  -4.6897523e-01   8.7993309e-01  -2.8998434e-01  -6.0339125e-01  -5.1413123e-02   2.5137950e-02  -1.0171934e-01  -5.2056073e-01   4.9629207e-01  -5.9369270e-01  -3.7822658e-01   8.0572838e-02   4.7000507e-01   1.7005048e-01   5.9901189e-01  -9.6210961e-01  -8.9336586e-01  -3.5399976e-01  -6.7252228e-01   5.7430933e-01   3.5973925e-01   3.5262489e-01  -8.6227693e-01   3.7675068e-01  -5.3331679e-01  -5.8342425e-01   3.0746603e-01  -4.4746494e-01   9.1982072e-01   3.1415987e-01   5.9247518e-02  -7.7141206e-01  -7.3219159e-01  -7.5855946e-02  -2.8703727e-02  -7.0876148e-02  -1.3638959e-01  -7.4878491e-01  -4.2959252e-01  -1.9523230e-01   7.9073662e-01   2.7123117e-01   6.0218864e-01  -3.5905762e-01  -3.3090770e-01  -7.7460522e-01  -9.5197796e-01  -1.6714401e-01   4.3917760e-01   6.6823268e-01   1.6390944e-01   4.3720149e-01   8.2191739e-02   6.8567599e-02   7.1460196e-01  -5.7271616e-01  -3.1203895e-01  -2.3525788e-01  -5.9138133e-01   4.9559447e-02  -7.3371759e-01  -8.5641309e-01  -2.9827341e-01   1.3266064e-01  -1.1598489e-01  -4.2865081e-02  -6.7480502e-01  -6.8524007e-02   6.9466665e-01   9.1623049e-01   1.9022317e-01   9.6959185e-01   9.0266440e-01   1.1469302e-01  -8.7024569e-01  -4.6343634e-01  -2.7167048e-01   6.5596242e-01   6.9513134e-01   5.5934360e-02   2.0388598e-01  -2.5118269e-01  -4.7069443e-01   7.5597894e-01  -8.3858146e-01   1.7830624e-02  -4.8569899e-01   1.1722006e-01  -7.0344631e-01  -9.9848190e-02  -6.2532044e-01  -8.2241345e-01   7.4394046e-01  -2.0377739e-01  -3.5133587e-01   9.2361662e-01   2.6709364e-01  -1.4829391e-01  -3.3305121e-01   6.2589174e-01   6.4105245e-01   2.8458317e-01  -4.6158070e-01  -6.3427174e-01   7.5240894e-01  -9.1017566e-01   3.6228936e-01  -7.4170112e-01   6.2884403e-01   6.4781628e-01   7.1078350e-01   1.6649102e-02  -6.5868942e-01  -3.9280455e-01  -9.3557858e-01   8.3691593e-01  -5.5120896e-01   7.7464463e-01   4.5306501e-01  -2.1580766e-01   3.1254017e-01   8.3144020e-01  -3.5629780e-01   1.7623781e-01   8.5944927e-01   8.2323362e-01   8.3920399e-01  -8.9326428e-02   4.5864091e-01  -5.4200967e-01  -6.1996850e-01   8.1829468e-01   5.6540601e-01  -7.9660637e-01  -4.6152609e-01  -2.0189363e-02   4.1689883e-01  -6.8193603e-01  -2.3735521e-01   1.2730789e-01   2.5840959e-01   3.6158420e-01   4.0860544e-01   7.9473707e-01  -9.1847775e-01  -1.3473968e-01  -9.5412584e-01  -7.6901109e-01  -8.8884173e-01  -5.7049661e-01  -3.1597197e-01  -2.2712776e-01  -9.3463851e-01  -9.4876464e-01   4.7492083e-01  -5.6890754e-01  -3.3090389e-01   1.0094642e-01   2.9571560e-01  -4.6614205e-01   6.8074837e-01  -9.7837379e-01   4.9045667e-01   4.4785497e-01   7.0751793e-01  -8.3314654e-01  -6.1003992e-01   8.6645029e-01  -2.6252677e-01   2.4312892e-01  -7.0424316e-01   4.8895048e-01   4.0326088e-01   7.4669119e-01  -5.4735968e-01   7.0930232e-02  -4.4319974e-01   6.8522134e-01   7.9008371e-01   9.0319347e-01  -5.6067722e-01  -4.3482705e-01  -5.0419292e-01  -3.4992596e-01  -2.0298212e-01   5.7882190e-01   6.3979778e-01  -6.5534736e-01  -3.8036793e-01  -4.8330359e-03   9.7523600e-01  -3.6896565e-01   1.1520267e-01   9.9959232e-02   4.2499730e-01   4.3879727e-02  -4.4739171e-01   7.3374688e-01   9.1370090e-01   1.8771777e-02   9.7373604e-01   1.6226546e-01  -8.4275380e-01   9.8402451e-01  -4.0431143e-01   3.7269091e-02   7.4699831e-01  -5.7646212e-01   8.9854350e-01  -3.9441402e-02   4.8792062e-01   1.1061825e-01  -2.8510443e-01   2.0261134e-01  -8.9956630e-01  -8.4983903e-01  -9.6990394e-01   5.3126072e-01  -6.5388764e-01   6.6669741e-02   1.3731360e-01  -4.2642681e-02   4.4649668e-02  -6.7735567e-01  -3.9906571e-01   5.9668545e-02  -9.2608790e-01   9.7726340e-01  -2.9436580e-01   5.0178493e-01  -5.0434735e-01  -1.4942128e-01   8.6214154e-01   1.9719375e-01   6.7372958e-01   6.4819096e-01  -7.5322920e-01   2.6890793e-01  -7.5445698e-01  -7.6711125e-01   4.4598083e-01  -8.2547190e-01  -4.8598113e-01  -2.9256152e-02  -9.8860923e-01  -1.9614996e-01   6.6232268e-02  -8.8881804e-01  -6.2996476e-01   2.0252022e-01   3.0033490e-01   6.6808280e-01   1.7394102e-01  -4.6526482e-02   9.2364441e-01   2.6003166e-01  -6.5447433e-01   4.0734588e-01   5.5742843e-01  -1.2217812e-01  -4.6598904e-01  -1.2073336e-01   9.5387618e-01   6.6355729e-02   1.3957121e-01   2.7999239e-01  -6.2014192e-01   4.8375567e-01  -8.1367832e-01  -7.4780005e-01  -7.3845163e-01   2.4300373e-01   4.7622985e-01  -6.4484951e-01  -1.9070712e-01  -5.8291786e-01   8.4158035e-02   1.7290004e-02   1.4190139e-01  -1.3869777e-02   7.2842172e-01   5.6946118e-01   7.9500749e-01  -1.5185738e-01   7.3346351e-01  -6.4925313e-01  -2.7266988e-02  -4.4495551e-01   2.6723362e-01   7.9527111e-01   7.1664970e-01  -1.2580198e-01   4.8953231e-01   9.6893525e-01   9.2705614e-01   4.1298506e-01   5.8763562e-01   1.9238477e-01  -8.8825689e-01  -2.9763578e-01  -8.5772592e-01   6.1099356e-01   7.7155097e-01   3.2591635e-01  -9.8335238e-01  -9.0154656e-01   3.6547295e-01  -5.6401679e-01  -3.5501612e-01  -5.4282090e-01  -6.4036332e-01   2.4947612e-01  -6.2668148e-01  -4.6093974e-01  -1.6107831e-01   2.7151534e-01   3.8007240e-01  -1.0939257e-01  -1.5845977e-01  -5.5727103e-01   2.8259853e-01   2.9761630e-01   6.7186042e-01   4.9337201e-01   8.6498839e-03   9.4020444e-01   6.9598286e-01   9.7217254e-01  -5.4591854e-03  -7.3084450e-01   8.3286494e-01  -8.0485918e-01   4.0733873e-01   6.6122699e-01  -1.1245336e-01   3.5416639e-01  -4.3469954e-01   8.3509245e-01   7.6803423e-01   7.5194002e-01  -6.2981182e-02  -3.2564184e-01   2.5307649e-01  -2.8231731e-01   7.0240365e-01  -8.7994213e-01  -4.2696758e-01   7.9731406e-01  -4.1141865e-01   2.3015315e-01   8.0891916e-01  -8.5136119e-02   8.1419147e-01   7.3822239e-01  -8.5626224e-01  -8.6034510e-02   7.9667922e-01  -4.0490920e-02  -1.1358561e-01   1.2150838e-01  -3.8001349e-01   4.7720428e-01   9.9804122e-02  -8.2005011e-01   2.8344553e-01  -9.0981564e-01   2.5828939e-01  -9.4381952e-01  -2.4464616e-01  -9.7022590e-01   8.4661828e-01   6.8382148e-01  -9.9855483e-01  -4.8722969e-01  -2.1532236e-01   9.4308998e-01   5.8229564e-01   3.4389817e-01  -1.1309895e-02   7.9031927e-01   8.4878250e-01  -6.1267871e-02   2.3818086e-01   6.6150157e-01  -1.2614064e-01  -6.1811127e-01   2.4412122e-01  -3.1363121e-01  -8.0752694e-02   7.5560280e-01   8.1179224e-01   3.0590746e-01  -9.6250913e-01   7.9923088e-01   5.3780188e-01   2.5470381e-01   4.9573024e-01  -9.6080744e-01   9.8941370e-01  -3.1055813e-01   2.9568309e-01  -5.9425843e-01   2.6723764e-01   5.5846105e-01  -7.4342499e-01   1.9649417e-02   7.2606936e-01  -1.6609549e-01  -8.4681965e-02   9.2001833e-01  -3.2420948e-01  -6.1490712e-02   3.5557623e-01  -3.9790407e-01  -4.5765302e-01   1.3682797e-01   6.3811312e-02  -9.6403462e-01  -7.1650057e-01   2.2442379e-01   4.1985532e-01  -3.9293670e-01  -8.0196488e-01  -3.8925457e-01  -2.1524674e-01   2.2374641e-01   4.2698365e-01  -5.1207070e-01  -3.1119821e-01  -6.6111352e-01  -5.0180963e-01  -8.5492458e-01  -2.5876768e-01  -5.3518849e-01  -8.0678950e-01   7.9619230e-01   8.9617862e-01  -7.3534857e-01  -4.9109391e-01  -4.0612242e-01   6.1401277e-01   2.6129726e-01   8.0488142e-03  -8.7168687e-01  -3.9628184e-03  -7.2733168e-01  -2.7347087e-01   8.7151490e-01   1.5364152e-01   5.6832886e-01   4.6535678e-01   7.6749764e-01   1.2024594e-01  -4.0539714e-01   8.1155036e-01  -8.0779861e-01  -9.3569660e-01   5.5112515e-02   6.1077019e-01  -9.5006552e-01  -1.1392665e-01   7.5900531e-01   4.7166398e-01  -3.5016094e-01   2.3846368e-01  -1.7344113e-01  -3.2261904e-02   3.1901997e-01   7.7221223e-01  -3.2613123e-02  -2.4703765e-01   2.7478701e-01   3.7970227e-01   8.6493915e-01   5.4476503e-02  -1.0646311e-01   8.7873612e-02  -7.2627599e-01  -3.6311618e-01  -9.2518366e-01  -1.4813454e-01  -6.4186246e-01  -4.6426087e-01  -7.1028387e-02  -3.2610237e-01   3.0088571e-01  -4.2717170e-01  -3.7443071e-01   2.5445521e-02  -9.1965850e-01   8.0415808e-01   5.0579746e-01  -4.3461970e-01   1.8948133e-01  -4.3007374e-01   4.2755838e-01   9.9446026e-01   4.3919839e-01  -1.4982577e-02   3.3791609e-01   8.7989819e-01   5.6676020e-01   2.4273831e-01   6.0145532e-01   7.5686338e-01  -1.3016425e-01   9.2077265e-01  -1.5929016e-01  -3.5390538e-01  -6.5013528e-01   6.8138492e-02  -6.9570123e-01  -7.8065026e-01  -7.8409961e-02   7.6153692e-01  -6.8940211e-01   9.5327752e-01  -2.2134016e-01  -6.8818752e-01  -9.8915066e-02   1.1112335e-01  -6.5919558e-01   5.5229041e-02   7.6937554e-01   1.9733261e-01  -4.0122082e-01  -5.8448422e-01  -3.8522659e-01   8.0172322e-01  -9.3013231e-02  -9.9958226e-01   1.0909787e-01  -7.7383810e-01   1.9092978e-01  -3.8265992e-01   2.5041175e-01  -1.4776586e-01  -7.1039244e-01  -1.3209265e-01   9.8730824e-01   8.4141342e-01  -9.9878771e-01   9.7274834e-01   6.1536905e-01   4.0287499e-01   4.5793953e-01   5.8141839e-01   7.7055398e-01   1.7702260e-01   3.8126874e-01   5.1757203e-01   7.3762819e-01   2.6059795e-01  -5.3141224e-01   4.9823761e-01  -1.7032918e-01  -2.4217299e-01  -4.3333385e-01  -3.5742533e-01  -2.7464360e-03   4.2589963e-01  -5.6683887e-01  -4.4376196e-01   5.4651830e-01   5.1395241e-01  -7.3078737e-01   8.1506550e-01   7.0965612e-02   1.9734837e-01  -1.9675701e-01  -4.1823214e-01   5.6562769e-01   7.8569224e-01  -1.9828770e-01   2.0531062e-01  -6.4049811e-01  -3.6954798e-01   9.4001799e-01  -5.9401960e-01   4.3945834e-02   5.9123339e-01   8.3947155e-01  -9.6076251e-02  -1.9531426e-01   9.9044724e-01   5.1891497e-01  -7.1177780e-01   4.1887851e-01  -6.4077007e-01   3.7731335e-01   5.0451174e-01  -6.2383730e-01  -1.3179185e-01  -5.2311428e-01  -7.5243017e-01   6.6499075e-02  -4.3163155e-02   7.8693536e-01  -3.9645280e-01   1.4208917e-02   5.0553920e-01   6.8383665e-01  -7.2051996e-01   9.8768015e-01  -2.8306303e-01  -6.9928742e-01   1.9892248e-01  -4.3667372e-01  -7.1138436e-01  -2.5236515e-01   8.9165195e-02  -1.0854069e-01   9.4799433e-01   1.2490535e-01   3.4959095e-01   4.6588030e-01   9.4954524e-01   7.8351325e-01  -6.7994834e-01  -9.4077328e-01  -7.1399075e-01   2.5227242e-01  -4.7211107e-01  -4.5532255e-02  -8.5130434e-01  -5.2235643e-01   7.5331731e-01  -9.5688523e-01  -1.7162925e-01  -6.3952306e-01   7.6597157e-01  -7.1608466e-01   5.3550366e-01   1.9670111e-01  -4.9652072e-01  -5.4362817e-02   8.6539634e-01   5.9811858e-01   1.3633773e-01  -6.0783810e-01  -4.4404087e-01   9.5846502e-02   5.9751402e-01   8.7792847e-01   7.8877005e-01  -4.0947170e-01  -8.9351415e-02  -9.5133856e-01   2.7153444e-02   6.7088283e-01  -7.5544060e-01  -3.7505230e-01   7.6800831e-01  -5.8489598e-01  -1.9462524e-01   9.3200920e-01  -7.2643593e-01   4.9795444e-01  -8.6515439e-01   7.7931563e-01  -5.3726257e-01  -5.1137736e-01  -6.4608887e-01   9.0328642e-01   7.5987310e-01  -6.5105478e-01   8.3332305e-01  -7.8685560e-01   8.9029543e-01   9.8797716e-01  -4.8930949e-03   9.1687411e-01  -9.7585943e-01  -3.7893947e-01   5.4133561e-01  -6.9323772e-01  -8.6803563e-01   2.2555497e-01  -2.7813178e-01  -2.1916030e-01   8.1932748e-01  -5.0216982e-02   2.7538959e-01  -7.8934461e-01   1.3559481e-01  -8.8531672e-01   1.4871171e-01  -1.1671268e-01   4.9878665e-01   6.6393038e-01  -2.8427596e-01  -8.9071107e-01  -6.1358488e-01   7.2269314e-01  -1.6074065e-01   7.3389307e-01  -7.2407348e-01  -6.1467081e-01  -1.6620122e-01   3.9081895e-01   3.3346387e-01  -1.9508885e-01  -9.0094827e-01  -8.3657797e-01   3.6035614e-01  -4.5511624e-02  -3.6538347e-01   7.3764773e-01   8.2245868e-01   9.4417313e-01   2.8268361e-01  -1.2940114e-01  -4.0039677e-01   6.2449974e-01   7.5063810e-01   5.6860992e-01  -8.4585919e-01   8.3388461e-01  -1.8001586e-01   1.8713623e-01   3.3854938e-01  -6.9403243e-01   6.7157146e-01   6.2937034e-01   1.4336088e-01   3.8270965e-01   5.3281691e-01   1.3965463e-01   3.4431143e-01   2.9095669e-01   3.6320135e-01   6.5285751e-01   5.2524805e-01  -7.2889789e-01  -1.6028138e-01  -5.9118421e-01  -9.4923775e-02   5.2183983e-01  -7.2763541e-01  -7.3029412e-01  -3.6858632e-01   6.2065467e-01  -2.9162105e-02   7.1856415e-01   8.6296188e-01   5.0076787e-01   5.6620117e-01   4.9632072e-01  -1.6661024e-01   1.0212609e-02  -3.1539849e-01   3.4753653e-01  -1.8273065e-01   3.6854930e-01  -7.9084236e-01  -9.8238329e-01  -3.1227610e-03   1.0861708e-01   9.8463466e-01   2.2270294e-01   4.5495409e-01   6.2087206e-01  -1.2813524e-01   9.3113351e-01   9.7938227e-01  -6.0980141e-01   2.7957456e-01  -9.4893272e-01   7.1382528e-01  -4.7436146e-01  -5.7880407e-01  -6.1939844e-01   2.1244248e-01   2.6076396e-01  -6.4451944e-01  -8.5739717e-01   4.4606067e-01   5.3487592e-01   9.9837801e-01   2.3041914e-01   1.8266253e-01  -6.1802298e-01   1.9137293e-01  -1.5200190e-01   4.8028059e-01  -6.1711080e-01  -6.0132974e-01  -2.2267018e-01  -4.6799654e-01   2.5897673e-02   4.5644372e-01  -6.7374782e-01   9.9304059e-01  -2.6092417e-01   9.3811257e-02   8.0439254e-01  -4.0039599e-01   2.8832270e-02   1.8524949e-01   4.1797379e-01   2.7241861e-01   9.6018877e-01   2.6760498e-01   5.9340196e-01  -3.8879005e-02   9.2061381e-01  -8.6247953e-01   4.9516844e-01
  -7.5597208e-01  -3.4741150e-01  -2.8549271e-01   6.2261034e-01  -2.4759570e-01   8.7441005e-01   1.2747938e-01   3.2666883e-01   6.6082835e-01  -4.0138826e-01  -4.5330635e-01   9.9481331e-01   5.4437504e-01  -5.9086725e-01   3.6006820e-01   2.8559591e-01  -8.0580101e-01  -9.4572474e-01  -1.8225585e-01  -2.1774926e-01   4.6309811e-01  -8.9792097e-01  -3.9274850e-01  -8.4352657e-01   1.3919453e-01  -9.1663958e-01  -8.4059543e-02  -6.7948784e-02  -3.9849832e-01   3.4268084e-01   8.3083575e-01  -4.7985617e-01  -6.3792270e-01   5.6203547e-01   2.9086551e-01  -1.4387094e-01   3.0090961e-01  -5.1198478e-01   6.3176312e-01  -2.9767383e-01   5.4900289e-01   1.2557069e-02  -2.7568018e-01   6.5057644e-01  -9.9433470e-01  -2.5354778e-03  -5.1192716e-01  -3.7258646e-01   5.4139985e-01  -7.9287810e-01   7.1042401e-01  -3.1675881e-01  -8.1854687e-01   5.1068979e-01   1.7519495e-01   7.1366598e-02   7.9566801e-01   6.8016351e-01   6.6214738e-02  -5.0145559e-01   7.3458842e-01   2.8919125e-01  -9.6945731e-01  -7.2789588e-01  -7.7076273e-01  -8.1575240e-01   5.5904146e-01  -2.3550962e-01  -7.3960684e-01  -1.9885538e-01   2.7938938e-01  -3.6384626e-01  -1.5176039e-01  -8.9005680e-01  -9.0797353e-01  -8.2188286e-01   7.0142015e-01  -7.2978693e-01  -1.1773288e-01  -7.8845850e-01   4.8491911e-01   6.3130769e-02   3.7561867e-01  -9.3622650e-01  -6.4681180e-01   5.2135226e-01   3.4287455e-01  -7.2462534e-01   4.6674318e-01  -1.9037658e-02  -7.3087563e-01   1.0235892e-02   7.6603879e-01  -6.4698516e-02  -5.2113698e-01  -8.7618911e-01   8.4113626e-01  -5.7445374e-01   5.8459834e-01  -9.7672251e-01  -3.1637625e-01  -2.6818878e-01  -6.5503629e-01  -5.8464371e-01  -1.6960048e-01  -5.7844062e-01  -1.4798257e-01  -4.7509722e-01  -3.1547616e-01   7.8957448e-02  -9.2235625e-01  -5.9168785e-01   7.5630796e-01  -1.1818210e-02  -8.6825970e-02   1.0287693e-01  -9.9993899e-01   9.8236407e-01   5.8043455e-01   5.1045937e-01  -7.1319425e-01  -8.0103051e-01   3.1935748e-01  -9.0496790e-01   2.9916219e-01   1.9244020e-01   6.2705190e-01   2.4696472e-01   9.0984968e-01   9.6554367e-01  -4.7369465e-01  -6.1715465e-01  -6.6635274e-01   8.0209035e-01   4.7029102e-01  -4.2469382e-01   6.5766108e-01  -7.9063443e-01  -2.7784140e-01   8.7193656e-01  -5.1982412e-01  -1.5411815e-01  -8.5298098e-01   2.0834547e-01  -2.8881751e-01   3.0186835e-01  -3.6720050e-01   3.1932364e-01  -5.9098292e-01  -2.1820603e-01   4.4077251e-01  -2.4293702e-01  -6.3453395e-01  -5.0417498e-01  -5.9984401e-01  -1.6639296e-01  -1.9793294e-02  -2.0571092e-01  -7.0196191e-02  -5.9058003e-01   3.4027502e-01   8.9718870e-01  -5.5851342e-01  -5.3655870e-01   3.2306976e-01   2.6593565e-01  -2.5237135e-02  -8.5775050e-02  -3.6997438e-01  -6.6539814e-01   4.8205463e-01  -5.1028840e-01  -4.4135520e-01   5.6090765e-01  -3.9064335e-01   2.4941340e-01  -6.5071916e-01  -9.5924333e-01   2.5331777e-01  -7.8856908e-01   3.5248836e-01   2.6189984e-01  -4.3682638e-01  -8.5305198e-01   3.8876890e-01  -7.7233372e-01   6.6143188e-01   2.6996617e-01  -8.7279168e-01  -4.2905060e-01   2.7240038e-01  -6.0371713e-01   6.4866276e-01  -9.8508450e-03  -1.9630146e-01   2.5761621e-01   4.6646620e-01   5.8609911e-02   5.5734346e-02   1.4874686e-01   6.0403989e-01  -2.1864312e-01  -5.6817672e-01   3.0140029e-01   9.3732392e-01  -6.7464095e-01   4.2736677e-01   6.0325830e-02   6.9757119e-01  -6.3808605e-02  -9.2384530e-01   1.6317450e-01  -7.8477786e-01  -5.2214955e-01  -5.2012082e-01   5.7680155e-01  -5.9364712e-01  -7.3910038e-01   8.6112800e-01  -5.4713362e-02  -9.2778555e-01  -4.8639198e-01   5.5558751e-01  -8.5736233e-01  -3.8326862e-01  -7.8372536e-01   8.0050959e-01  -5.7167454e-02  -4.5014438e-01   4.8203574e-01   5.3672926e-01   4.1222164e-01   2.6396699e-01   2.3531042e-02   7.2948181e-01   6.8050076e-02  -1.4566861e-01  -2.2040431e-01   6.2357231e-01  -6.0831309e-01  -7.8903829e-01  -5.2120823e-01   2.6863268e-01   2.9694744e-01  -4.0373906e-01  -7.6034631e-01   9.1615287e-01  -6.7119174e-01  -2.4342859e-01   9.9463951e-01  -8.1796653e-01   8.4069272e-01   4.2291192e-01   1.9150324e-01   4.3968543e-01  -5.3139500e-01  -8.8481148e-01  -9.7601535e-01  -9.8994870e-01  -7.6519420e-01  -3.1942716e-01  -7.2446852e-01  -8.5484005e-01  -9.3522687e-02  -9.0445516e-01   5.5565718e-01  -9.9218462e-01  -7.7341606e-01   1.4742753e-02   4.6118909e-01   8.0819732e-02   3.2717183e-01  -7.3891087e-01   2.8115789e-01  -9.0319231e-01  -1.4579799e-01   3.2877459e-01   4.4523410e-01   9.1544416e-01   8.0857248e-01   1.1235841e-02  -7.9655474e-01  -8.1415902e-01   8.3593599e-01  -6.1525468e-02   7.3723390e-01  -2.8636866e-01  -3.8773766e-01   7.4716503e-01  -5.1498710e-01   4.6384353e-01  -9.8270604e-01  -7.6392815e-01   4.4909953e-02  -2.4670890e-01  -1.6986633e-01  -8.6463764e-01  -3.0736349e-02   7.4930923e-01  -5.5471759e-02   4.2331759e-01   6.5632158e-01   4.6939961e-01  -9.8796773e-01   7.5814690e-01   2.1424598e-01  -7.8667228e-02  -4.1652482e-01  -5.9040623e-01  -3.2684365e-01   4.7570054e-01  -6.2590318e-01   6.1279857e-01   3.8131315e-01   8.4170427e-01   9.8143630e-01  -2.4441790e-01  -9.8127393e-01  -7.0776179e-01  -1.5102515e-01   3.1780553e-02  -6.8120739e-01   3.3372390e-01  -3.6335758e-02   3.7569798e-01  -6.9040164e-01   5.7736301e-01   8.8628029e-01  -1.8467923e-01  -6.3050010e-01   4.4466872e-01   8.9899732e-01  -8.4885962e-01  -1.8095667e-01   6.5976148e-01   9.6548546e-01  -9.0824449e-02  -3.1453661e-01   9.9666883e-01  -5.5220784e-01   1.0341969e-01   2.8099644e-01   8.7380311e-01  -3.1200305e-01  -7.6321080e-01   1.6860127e-01   4.9627223e-01  -7.5194202e-01  -4.4973870e-01  -7.0235772e-01   9.8979142e-01   6.4995643e-01   2.8205147e-01  -5.7401924e-01  -9.4013196e-01  -6.6287402e-01   8.9935192e-01   9.7154625e-01   2.1049487e-01  -4.1078578e-01   5.8140984e-01   9.1939390e-01  -4.7240288e-01  -5.3605093e-01  -2.8663023e-01   7.3202824e-01  -2.1474241e-01  -8.7014586e-01  -4.1999982e-02  -5.1583681e-01   5.9561370e-01   3.0284275e-01   7.9538383e-01  -9.0426228e-01  -7.6952723e-01   4.1154339e-01   2.8942700e-01  -3.2753500e-01  -5.3666767e-01   7.7599201e-01  -6.2187725e-01  -5.0890813e-02   2.2998150e-01  -8.1728763e-01  -4.0533356e-02   7.2125615e-01   9.3594559e-01  -6.5133099e-01   7.4802512e-01   7.0897057e-01   6.0861865e-01  -6.8702731e-01  -1.5330452e-01  -4.6502382e-01   7.5259240e-01   8.1531139e-01  -8.5528422e-01   9.2445996e-01  -3.4174745e-01   7.4313256e-02   5.1278276e-01  -6.6458366e-02   8.4056960e-01   1.2945228e-01   2.5155623e-01   8.8980661e-01   8.3930494e-03  -6.7374615e-01   7.1616460e-01  -9.9021045e-01   9.4178483e-01  -9.7644660e-01   2.1834108e-01   9.4809232e-01  -1.9983588e-01  -5.1715446e-02  -4.1535754e-01  -7.1404590e-01  -3.0697766e-01   1.4281729e-01  -5.5821205e-01   5.3282232e-01  -9.8528448e-01  -7.7328485e-01  -9.3115452e-02   4.5607293e-01  -9.2424896e-01   3.4872113e-01  -8.0447298e-01  -3.9563329e-01  -4.5217050e-01  -8.3838586e-01  -8.3527701e-01  -5.4761363e-01  -7.7167094e-01   1.2282337e-02   6.6843213e-03  -7.1984820e-01  -9.0679658e-01   9.5966652e-01   6.2857647e-01   3.3096633e-01  -5.8459792e-01   8.4666589e-01  -9.7617542e-01   9.4458464e-01  -6.8589913e-01   6.0440913e-01  -2.7965853e-01   7.9602468e-01  -8.6462457e-01  -8.7863677e-01  -1.3461296e-01  -5.6371409e-01   1.5263864e-01  -5.4408571e-01  -6.1064317e-01  -3.7936970e-01  -4.5966355e-01  -4.3500157e-02  -5.3891521e-01  -9.3582015e-01  -8.9553594e-02   2.4433682e-01  -6.4517836e-01   9.4980300e-01  -3.0540507e-01   5.3745788e-01   4.7684462e-01  -5.8106275e-01  -9.9665828e-01   6.3732101e-01  -4.6652311e-01  -3.1776825e-01  -2.5628226e-01   7.6319684e-01  -6.3485720e-01  -5.9643751e-01   4.7751538e-02  -9.9147296e-01   4.4873028e-01   5.6722957e-01  -1.2627831e-01   2.7611773e-01   6.8315447e-01  -3.2265696e-01  -3.5810663e-01  -9.4312360e-01   3.7028374e-01   4.7176179e-01   4.0567830e-01   8.7158434e-01   1.2594844e-01   1.0351777e-01   4.2140301e-01   5.0755901e-03   8.5858658e-01  -5.7614042e-01  -2.8893128e-01   3.3062726e-03   2.8625498e-01  -2.9243637e-01  -4.8794475e-01   6.5780390e-01  -3.1187092e-01  -9.7079912e-01  -7.6384184e-01  -5.6219692e-01   5.4705652e-01  -7.8348356e-01  -4.9920507e-01  -4.0940351e-01  -6.8574245e-03  -4.6531232e-01  -7.4758991e-01   4.2183618e-01  -2.6009802e-02   8.4154163e-01   1.3679267e-01  -5.1046643e-01  -7.1926593e-01   9.3653500e-01   4.5550922e-01   1.5976596e-01  -4.7040108e-01  -2.7360012e-01  -6.4215117e-01  -5.3851459e-01  -9.2756186e-01   3.8180632e-01   7.3369572e-01   8.8286414e-01   8.8818457e-01   6.3150997e-01  -4.0323701e-01  -1.1701404e-01   3.9178003e-01   1.8851231e-01   4.5884716e-02  -7.0545239e-01  -7.5796847e-01   9.8800058e-01  -9.3839833e-01  -1.4751116e-02  -6.5215870e-01  -6.3346953e-01   8.2089706e-01  -2.0442193e-01  -2.0660063e-01  -3.0264322e-01   6.7402445e-01   6.1819935e-01   6.5846640e-01  -9.5033119e-01   7.7903762e-01   6.5865657e-01   8.7212178e-01   3.3545518e-01  -5.6827260e-01  -6.2685331e-01   7.5723699e-01  -8.4640621e-01  -5.0531039e-01   5.7037521e-01   2.6286525e-02  -8.9440573e-01   3.9901615e-01  -3.1613897e-01   5.9804558e-02   7.6504636e-01  -9.5492487e-01   3.6307628e-01   1.4762479e-01   2.8690535e-01  -2.8163027e-01  -1.6512427e-02   7.2621329e-01   9.9736690e-02  -1.8530944e-02   2.8120483e-01   1.2208467e-01  -4.1901011e-01   7.8833997e-01   4.7747020e-01   4.7600843e-01  -2.4662420e-02  -2.6373761e-01   5.4777183e-01   4.5697787e-01   1.5920962e-01   2.6384894e-01   2.6528127e-01   1.7514266e-01   4.9134132e-01  -4.4358641e-01  -1.1248924e-01  -4.5973426e-01   9.2753578e-02  -8.9358827e-01  -8.0153444e-02   3.6859276e-01  -2.4480671e-01  -7.1616579e-02  -9.7347758e-02   3.5843096e-01  -7.7430771e-01  -3.3328037e-01   9.5939116e-01   5.6035269e-01  -9.5560078e-01   1.9408445e-01  -9.3179520e-01  -8.6389330e-01   5.2443918e-01  -7.5685514e-01   7.6670799e-01   7.6195469e-01   2.8311998e-01   2.5243227e-01   3.2034113e-01  -9.9452797e-01  -4.4313345e-01   9.4664615e-01   2.3033837e-01  -4.3400087e-02  -1.5848117e-01   7.4177568e-01   7.3526045e-01  -5.1609467e-01   4.9026215e-01  -2.3738948e-01  -8.8318777e-01   5.0383974e-01  -2.9372600e-01   2.8047603e-01  -3.2728848e-01  -7.7701398e-01   7.3591054e-01  -1.8558524e-01  -4.8062044e-01  -6.0653271e-01  -6.9837808e-01  -2.5053494e-02  -3.2404300e-01   5.2492797e-01   3.0850567e-01   9.4147245e-01  -3.0594652e-01  -2.2677181e-02  -4.7123031e-01  -2.7982435e-01   2.9381117e-01   3.0615469e-01   6.9415895e-02  -5.7174712e-01  -6.2901151e-01   4.7425989e-02   2.0385910e-01  -6.3025387e-01  -5.3069387e-01   6.4608377e-01  -4.5473644e-01   1.8749675e-01   3.9121233e-01   1.9152075e-01  -3.4670966e-01   2.5516671e-01  -5.6582253e-02  -4.0018115e-01  -4.4666561e-01   9.4110629e-01  -1.4409635e-01  -8.3926482e-01   7.7747403e-01  -6.2329840e-01   5.8261608e-01  -4.4617807e-01  -5.1994150e-01  -9.3290089e-01   9.2685326e-02   7.9605858e-02  -3.2465541e-01  -5.9857725e-01  -1.9954782e-01  -1.8959398e-01   1.5067031e-01  -2.6270097e-01  -7.9107454e-01  -1.2592343e-01   4.9128251e-01   4.9715139e-01   4.0261282e-01   8.8841383e-02  -9.7651813e-01  -3.3357950e-01   2.4514892e-01   2.3532020e-01  -8.5457970e-04  -5.5504733e-01   8.3278840e-01  -3.6004536e-02   4.8979226e-01   4.8192418e-01  -3.1328704e-01   4.1323694e-01   4.9995467e-01   3.7070664e-01  -1.9492108e-01  -3.0760348e-01   3.4125607e-02   3.0140211e-01   5.4324049e-01  -9.4972431e-01   5.3324655e-01  -3.2076986e-01  -4.1610430e-01  -9.3677354e-02   9.2640993e-01  -5.4455855e-01   6.4406971e-01  -2.5784278e-01  -7.0892569e-01   1.6476008e-01  -2.5214158e-01  -3.7113564e-01   1.6708642e-01  -4.4714604e-01   3.8896858e-01  -7.6598434e-01  -3.9354540e-01   8.6364879e-01  -9.7380971e-01  -1.4423105e-03  -1.6776813e-01   3.7260932e-01  -9.5428860e-01  -3.9920497e-02  -5.2971466e-01   7.6812479e-01  -2.5320936e-02   3.3384212e-01   3.8131079e-01   8.7307667e-01   9.9332166e-01  -7.9230360e-01  -7.1185017e-01  -8.1190715e-01   7.1028722e-01   7.8781437e-02  -9.5938049e-02  -4.1557316e-01   7.4401643e-01   3.2379256e-02  -4.5385198e-01  -7.2603691e-01  -7.0887620e-01  -9.7002845e-02  -3.6289932e-01   4.1979256e-02   8.6671583e-01   9.7075140e-01  -4.6212131e-01  -9.4927558e-02  -3.2925553e-01  -1.2267065e-01  -9.9498109e-01   1.8181041e-01   6.8473502e-01   5.6401365e-01   5.9771231e-01   5.8766186e-01   3.8749380e-02  -6.4842114e-01   1.2740047e-01   9.3719115e-01   2.5495257e-01   6.9581833e-01  -4.9727816e-01   6.2004914e-01  -2.4412807e-01   5.7908870e-01  -7.8825088e-01   9.4861213e-02   9.8700970e-01   7.1530581e-01  -3.7389743e-01  -5.8402370e-02   7.4100107e-01   9.3189520e-01  -8.9738316e-01  -9.7290420e-02  -9.7942220e-01   4.7428917e-01  -8.4939888e-01  -8.7293343e-01  -8.9566613e-01  -9.1505113e-01   6.3343316e-01   6.7961575e-01  -2.5262331e-01  -8.5736360e-01   3.4452958e-01  -8.9958874e-01   4.9430009e-01   6.0292554e-01   5.4367786e-01  -9.7380307e-01  -3.3725858e-01  -5.3414031e-01   1.4116000e-01  -4.3435259e-01  -8.6968119e-01   9.5819721e-01   2.4979531e-01   6.1945829e-01  -3.6100588e-02  -5.1514882e-01  -8.2020460e-01   8.1431329e-01   3.1116848e-01  -2.2439939e-01  -5.3530074e-01   6.5455953e-02  -6.6357691e-01  -2.6791525e-01  -2.1978948e-01  -2.0916836e-01  -6.0075768e-01   2.9416885e-01  -5.4075543e-01  -9.4331502e-01  -8.6389309e-01  -8.8940679e-01  -1.0735477e-01   5.5667950e-01  -4.8068111e-01  -2.1542904e-01   4.0675703e-01   7.3938187e-01   8.2490858e-02   2.0114944e-01   2.7621187e-01  -9.1353352e-01   9.8367667e-01  -9.0048521e-02   7.1842049e-01   9.8762978e-01  -6.0321168e-01   8.8691400e-01  -2.6421279e-01   7.0957733e-01  -6.5544632e-01   4.7408610e-01  -2.3221029e-01   8.4602339e-01   7.0778972e-01  -9.9026787e-02   9.4537139e-01  -4.3304073e-01  -2.8982216e-01  -1.6369182e-01  -2.6735429e-01   4.8979461e-01  -9.6997230e-01  -7.5857043e-01   7.9274647e-02   1.5633626e-01   8.6636573e-01   6.3483127e-01  -4.2467551e-01  -7.6228682e-01  -9.6346471e-01  -4.6317526e-01   3.2034157e-01  -5.4682130e-01  -7.8769887e-01  -5.6022284e-01  -4.4955236e-01   9.9390473e-01  -8.8780485e-01  -7.3869492e-01  -5.1799700e-01  -7.8685190e-01  -2.6207467e-01   4.6229954e-01   3.9368914e-01  -1.3349613e-01   6.8700735e-01  -1.6517019e-01  -5.8954947e-01  -5.0407463e-01  -8.8617604e-01   3.7057817e-01   9.2777898e-01   4.4142156e-01   5.5360682e-01   6.8884704e-01   5.2848991e-01   5.1508154e-01   6.0776188e-01   1.7684884e-01   9.9761155e-01   1.8015303e-01  -7.1333431e-01  -3.9282249e-01  -3.8133069e-02   3.4034412e-01  -4.7514791e-01   1.1186046e-01  -5.3272045e-01  -2.9054853e-02   4.5266596e-01   2.5297084e-01   7.4960019e-01   2.9722960e-01  -5.2779794e-01   8.5025829e-01  -5.7815551e-01  -3.2111451e-01   5.0281513e-01  -2.1635826e-01  -1.1482941e-01  -8.6265246e-02  -3.0321322e-01  -1.2814405e-01   9.3725069e-03  -5.2393546e-01   1.9340523e-01  -4.7694613e-01  -1.2663678e-01   8.4238185e-01   9.5364316e-01   9.9779957e-02   2.0553731e-01  -3.9995188e-01   2.7392308e-01   3.2995182e-01  -1.6003913e-01  -4.6471333e-01  -3.6647333e-01  -8.2708488e-01  -7.4924423e-01   7.7685822e-01   2.5387402e-01   9.6515369e-01  -7.8776801e-01   8.3198046e-01  -7.0717505e-01  -1.4306959e-01  -9.3697760e-02  -1.9627978e-01   2.0181942e-02  -5.5873613e-01   2.7464393e-01  -1.4846468e-01  -6.9407212e-01   6.6595601e-02  -4.9797433e-01  -6.0801812e-01   5.8786523e-01   6.4576761e-01  -3.5044710e-01   1.6992157e-01   1.8047256e-01   3.5830305e-01   1.8086535e-01  -3.8460541e-01  -8.3187751e-01   1.3572626e-01   4.3347330e-01   7.5689294e-01  -1.1815486e-01   5.8847466e-01  -4.3710373e-01  -1.1716218e-01   2.5102246e-01  -4.1911076e-01  -9.5235247e-01  -4.8098628e-01  -3.2905572e-01   7.1582540e-02  -6.9815823e-01   6.6130781e-01   1.5205444e-01  -6.1867176e-01   2.4870467e-01  -2.1568200e-01   2.3439482e-01  -9.0789325e-01  -8.0084265e-01   8.4224330e-01  -7.8780172e-01   3.4413996e-01  -8.8684900e-01  -8.5918263e-01  -5.4730046e-01  -2.9984898e-01   8.2528262e-01   1.5783858e-01  -5.0611254e-01
   3.3943302e-02  -6.0208365e-01   8.4054838e-01  -3.3626848e-01  -9.6936607e-01   4.3781287e-01  -2.7074117e-01   4.6511289e-02   2.9971574e-01   7.2202300e-02  -6.6407259e-01   9.2333120e-01   4.5648492e-02  -1.4269591e-01   2.2386068e-01  -1.0039338e-01   5.8791866e-01   1.8503258e-02  -2.4764023e-01   9.0198248e-01   5.3349817e-01  -2.4408999e-01   3.5374380e-01  -6.7135140e-01   3.6876347e-01   7.8028195e-02  -1.4299294e-01  -2.2948852e-01  -5.7529135e-01  -9.7429970e-01   8.8783054e-01  -2.0653914e-01  -1.8408169e-01  -8.5148561e-01  -8.4642958e-01   6.1479034e-01  -7.3072545e-01   2.7917021e-01   4.3729936e-01  -8.8580153e-01   9.6525059e-01  -3.6648794e-01  -3.7239390e-01  -4.4726026e-01   7.6191954e-01   9.6285236e-01  -1.9578374e-01   2.8464630e-01  -9.5775328e-01   2.4547017e-01   3.3089027e-01  -1.5375080e-01  -1.6303391e-01   6.5587405e-02   6.6863214e-01  -8.5610579e-01  -3.4621445e-02  -2.4462228e-01   6.8392993e-01  -9.2355637e-01   3.0332088e-02  -3.2929787e-02   5.4886866e-01   6.3885661e-01  -4.7162388e-01  -7.1708530e-01   7.3605612e-01   3.1891942e-01   4.2900158e-01   3.3041459e-01   6.0434960e-01   6.5844711e-01  -7.2362475e-01  -4.3952280e-01   7.7128140e-02   9.3082208e-01   6.6873993e-01   4.1341651e-01  -9.7314293e-01   7.2378704e-01   8.8243272e-01   4.9964791e-01   3.4715329e-01   4.1193993e-01   6.9417465e-01  -4.5825544e-01   9.4856148e-01  -9.4779436e-01   3.7154831e-01   4.9743744e-02   2.2508851e-01   7.6000598e-01  -9.6558703e-01   9.4352490e-01   9.4230910e-01   7.2800860e-01   7.5616548e-02  -9.4876583e-02  -5.0308466e-01  -5.2263982e-01  -5.5339617e-02   6.1223046e-01  -2.4723722e-01  -7.6426681e-01   8.6059749e-01   7.6427988e-01   6.2031779e-01  -2.9116969e-01  -5.3150074e-01  -8.9694720e-01  -8.8415034e-01  -5.9393686e-01  -9.4741549e-01   2.1663209e-01  -6.1391809e-01   8.7551078e-01  -8.9156718e-02   5.3142339e-01   5.2288178e-01  -3.7939880e-02   3.2308098e-01  -3.9887662e-02  -2.0605705e-01   7.2328415e-01  -5.9568403e-03   8.5896806e-01   5.2399634e-01   6.1178145e-01   7.6151746e-01  -3.6536475e-01  -8.2654114e-01   5.9430117e-01  -5.0850692e-01  -4.5249375e-02  -9.6007491e-01   7.0795775e-01   6.5013476e-01   8.5343361e-01   2.7321911e-01  -9.1107518e-01  -6.8583506e-01  -5.8889427e-01   7.3638057e-01  -8.4408357e-01   6.5159354e-01  -1.0750406e-01   6.0904916e-02   9.1274120e-01   1.3207806e-01   3.7860887e-01   2.7288415e-01   9.2631356e-02   7.0814143e-01  -2.3993765e-02   9.6560782e-01  -2.7266692e-01   3.0233942e-01  -7.6485461e-01   7.4697610e-01   6.1456145e-01   3.4013853e-01   7.4713709e-02   2.4260936e-01  -2.1540989e-01   7.0443507e-01   2.1242408e-01   5.2812041e-01  -5.3694623e-01  -4.3521133e-01   9.3703510e-01  -8.4860238e-01  -3.4033322e-01  -5.9489694e-01   2.3841403e-01   4.4849690e-01  -3.4297890e-01   9.9174185e-01  -9.7937654e-01   3.2765097e-02   5.7382157e-01  -4.0317799e-01   3.5784626e-01  -5.2997803e-01   4.9373641e-02   3.2727665e-01   1.9242018e-02  -5.5164796e-02   8.5738250e-01  -2.8690944e-01   9.3780481e-01   5.0305758e-01   2.4581502e-01  -4.3123417e-02  -8.0501072e-01  -9.6493142e-01   3.0626765e-01  -6.3197964e-01  -5.4287640e-02   9.4865569e-01  -3.4855254e-02  -4.6099832e-01  -5.6278333e-01   6.1443685e-01   4.3117009e-01  -4.0311432e-01  -8.2630358e-01  -5.7306502e-01   2.7389489e-01  -3.5958338e-01   8.0957981e-02   2.5971936e-01  -3.6770873e-01   6.9098684e-01  -9.6919987e-01  -2.7689685e-02   6.2357195e-01  -1.4573711e-02  -7.7614885e-01   2.3298207e-01   2.7780334e-01  -2.8961833e-01   4.7694957e-01  -7.8010912e-02  -6.2969964e-01   9.5572641e-01   3.0842247e-01   7.9425039e-01   3.6709124e-01  -2.7726130e-01  -7.4846744e-01  -2.5833679e-01   7.9141706e-01   5.2156847e-01  -6.1702574e-01  -3.3540423e-02   4.5401137e-01   4.0325981e-01  -8.1416527e-01  -7.3580892e-01  -3.5568359e-01   4.7495614e-01  -2.1027079e-01   1.9653460e-02   4.2635961e-01  -1.1194457e-01   4.5539989e-02   1.8189969e-01   5.7256222e-01   3.7041205e-01  -4.0687507e-01   8.9610559e-01  -1.6806911e-01   7.2060900e-02   7.7068470e-01  -3.4533227e-01   9.1376126e-01  -5.1547573e-01   4.4051742e-01  -9.2050413e-01  -3.8637692e-01  -9.9697643e-01  -7.2930832e-01   9.6752289e-01  -4.8537319e-01   8.1934844e-01   1.7183592e-01   3.7616228e-01  -2.3859308e-01  -6.5843401e-01  -9.5597561e-01   2.0238428e-01  -5.0668114e-01  -8.9319649e-01   1.4020580e-01  -2.5220659e-01   5.9049816e-01   6.6352346e-01  -7.0813966e-01  -6.6079841e-01   4.5115518e-01  -2.3034516e-02  -4.7719643e-02  -5.2595657e-01   2.2063436e-02  -5.7280649e-01  -8.8895878e-01  -7.5058578e-01   1.0581288e-01   2.6798821e-01  -3.2765005e-01  -5.5431290e-01  -3.9012195e-01   7.5952467e-01  -5.6701663e-01   3.0523550e-01  -1.9369368e-01  -9.8911168e-01  -8.4222462e-01  -7.9841324e-01   4.7451179e-01  -6.2785163e-01   5.7490146e-01   3.2998630e-01   3.9056153e-01  -5.3254890e-01  -4.6711878e-02  -9.6354794e-01   9.3158389e-01   3.5838045e-01  -1.5989176e-01  -9.8214616e-01   2.0668234e-01  -3.9623430e-01  -2.2912933e-01  -9.2402956e-01  -2.8711802e-01   6.2795537e-01   2.2650547e-01   2.0990955e-01  -5.0722768e-01  -1.9967928e-01  -4.4460390e-02   4.1126266e-01  -4.5674431e-01  -2.0801333e-02  -2.2380821e-01  -9.5580807e-01  -7.4192966e-01  -3.8450576e-01  -7.0016081e-01   8.8305499e-01  -7.7372465e-01  -7.0008899e-01  -2.2530918e-02   6.3999176e-01  -5.5636293e-01   1.8450240e-01  -5.9051118e-01   7.0542592e-01   8.7270763e-02  -1.4654630e-01   3.4100266e-01  -9.6589765e-01   4.9243462e-01  -2.0107668e-01  -8.1836800e-01  -4.9497561e-01   6.1940610e-01  -1.1598137e-01   2.9852195e-01  -4.0656144e-01  -2.5252518e-01  -2.2022691e-01   1.5586333e-01   2.9661523e-01   5.0813377e-01   5.1327270e-01  -1.1953750e-01  -6.0034954e-01  -4.6041899e-01   4.7951121e-01  -9.5103941e-01   3.5220286e-01  -8.8414016e-01   7.5127369e-01   9.2510403e-01   5.7174298e-01  -2.1096268e-01   4.5649126e-01   7.6295392e-01  -7.8970130e-01   6.5841759e-01   4.4353011e-01  -8.0986416e-01   7.9137740e-01  -3.6965008e-01  -4.3704267e-01  -5.2596376e-01  -1.5169745e-01   5.5489349e-01  -8.2558982e-01  -4.8784439e-02   2.4788348e-01  -8.6256208e-01  -9.2700211e-01  -1.0050352e-01  -3.7707664e-01   1.5891889e-01   2.7355260e-01   4.0693077e-01  -7.9324337e-01   3.2625376e-01  -9.4596583e-01   5.9653440e-01  -5.1817566e-01   2.2664712e-01  -4.1022903e-01   4.6145589e-01   5.7091220e-01   8.9988639e-01   2.7926998e-01   6.8371518e-01  -9.9563129e-01  -5.5176257e-01  -2.6602877e-01  -6.1727540e-01  -5.3581323e-01   4.2379457e-01   2.6064327e-01  -1.4686615e-01  -1.7314808e-01  -4.7280849e-01   9.1796277e-01  -5.8891930e-01   9.1367955e-01  -8.0226353e-01   7.2921854e-02   3.8095937e-01  -1.7763328e-01  -4.7460333e-01  -6.6579932e-01   2.2962780e-01  -6.2687590e-01   8.9702033e-01   8.4735001e-01  -4.5853335e-01  -4.8168993e-01   2.1526092e-01   6.6004499e-01   9.6569632e-01  -5.1569335e-01   5.8611868e-01   2.9668356e-01  -1.8726537e-01   7.3277464e-01  -2.6853256e-01   7.4858760e-01  -7.5290902e-01  -7.5266615e-01  -3.4867111e-01   4.8454831e-01  -8.9036086e-01  -5.7596358e-01  -5.3535661e-02  -8.7045807e-01  -9.3084742e-01   4.0079953e-01  -2.4378245e-01   1.8505297e-01   6.1209247e-01   4.1032380e-01   1.9468024e-01  -9.5807433e-01  -4.7124453e-01  -5.5519674e-01   4.9087908e-01  -3.4154686e-01   7.4909652e-01  -5.2438648e-01  -8.0480914e-01   5.6274921e-02  -5.2253336e-01  -2.3790186e-03  -1.8515478e-01   1.9791139e-01  -1.1795487e-01   3.4355044e-01   2.2042478e-01   2.1563705e-01  -8.9581592e-01   9.0809632e-01   4.5515856e-01  -9.1047024e-02   8.1136122e-01   5.4185714e-01   8.2513275e-01   4.4976735e-01   9.2408735e-01   1.6753990e-01   4.7690688e-01  -2.6437307e-01   4.3633187e-01  -5.1634024e-01  -8.5559210e-01  -6.3847778e-01  -4.1720863e-01  -1.7603126e-01  -6.8429299e-01  -4.7272348e-01   2.3106303e-01   9.8861293e-01   6.5404260e-01  -3.0704334e-01   4.8891996e-01   9.2788632e-01  -5.1995362e-01  -4.1715918e-01  -7.5718282e-01   7.3120350e-01   8.5347010e-01  -4.3846151e-02   8.7838814e-01  -8.9298936e-01   1.4437822e-01  -7.7535571e-01  -8.5222375e-01   2.4723429e-01  -4.1112670e-01   9.3492900e-01   7.3952174e-01  -9.3952519e-01  -1.0887142e-02   3.2971102e-01   9.3378960e-01   3.7254032e-01   9.9554248e-01   3.6897929e-01  -3.7063972e-01  -9.9978840e-01  -1.0248350e-01   5.8786247e-01   6.1816456e-01   2.4672053e-01  -6.1448308e-01   3.9928837e-01   7.6772634e-01  -9.2891447e-01  -2.2826373e-01   7.7535744e-01  -8.9686162e-01   1.2212711e-01   4.6294291e-01  -5.9434325e-01   1.4577363e-02   4.5158362e-01   2.2376475e-01   2.6664610e-01  -5.9925206e-01   4.1571165e-01  -6.4678855e-01   2.3228723e-01  -4.4446697e-01   1.6778024e-01  -9.5540124e-01  -8.9540624e-02  -2.4899014e-01  -6.3509968e-01  -4.2429485e-01   6.8064879e-01   2.0566117e-01   6.1996709e-01  -5.0993194e-01   5.1699103e-01   1.1346398e-01  -7.6026483e-01  -4.0019085e-01   9.8974189e-01   1.6893000e-01   9.3564384e-01  -4.1684376e-01  -9.2717701e-01   8.8087443e-01  -5.5252359e-01  -5.2351020e-01  -2.2665004e-01   6.3988243e-01  -8.5964129e-01  -1.9868440e-01   4.6080523e-01  -3.3535513e-01   3.3021606e-02   8.0999152e-01   8.3218271e-01  -8.2689702e-01   6.4566489e-01   6.7302291e-02  -8.9735608e-01  -9.7447341e-01  -8.4879038e-01   6.7486492e-01   5.5875575e-01   5.4646970e-01  -2.7484453e-02  -9.0628197e-01   8.5195498e-01   8.2904816e-01  -8.2882458e-01   2.3929041e-01  -6.8514392e-01  -2.9716219e-01   2.1602052e-02   6.1215317e-01   5.0285967e-01  -7.8529101e-01   7.1989052e-02   3.4615874e-01  -8.3368081e-01  -7.1983259e-01   5.5145855e-01  -2.4049478e-01   1.0550856e-01  -8.4896405e-01   2.0364459e-01   9.0722908e-01   2.7237064e-01  -6.7681771e-01  -1.6824189e-01   8.2735044e-01   7.1918343e-01   9.7753063e-02   4.0944506e-01   2.4284266e-01   1.1106744e-02   9.8538173e-01   4.2870522e-01   7.8789818e-01   2.4060320e-01   6.1393044e-01  -4.3743115e-01   7.2062581e-01   5.5728945e-01  -4.8842952e-02   2.3322969e-01   5.1335918e-01   1.6790425e-01   9.8832717e-01   1.5532996e-01   8.6907533e-01   2.0682715e-01  -4.2355643e-01   3.9811944e-01   3.2231797e-01  -4.5742635e-01   3.0999425e-02  -8.0000681e-01  -8.5964159e-01   1.1807188e-01   4.1784761e-02   1.6048113e-01  -2.5073046e-01   4.0184162e-01  -4.5163631e-01   1.6630805e-01   6.1915834e-01   8.1884315e-01  -6.7854563e-01  -3.8518037e-01   5.0989644e-01   7.7197473e-01   8.2208432e-01   6.3663533e-01   7.2787581e-01  -4.4279803e-01  -1.2545650e-01   5.2715576e-01   1.9217020e-01  -9.2893529e-01   2.9866682e-01   8.8174482e-01   2.0230995e-01   7.0941890e-01   8.9322305e-01  -3.6437566e-01  -4.3348333e-01   1.5343803e-01   3.8678114e-02  -4.2981374e-02  -3.1897183e-01  -5.6720704e-01  -8.2698784e-01  -7.7648476e-01   7.7904687e-01  -3.7597168e-01   9.3954064e-01  -1.4250480e-01  -2.1086581e-01   8.3974026e-01   7.5974477e-01  -4.4748966e-01  -6.2404478e-02  -1.5114294e-01  -7.7080151e-01   7.7637618e-01   7.0591391e-01  -1.8986823e-01  -2.4284674e-01  -6.2722509e-01  -7.6381359e-01   2.1781568e-01   1.7887786e-02  -9.4941281e-01   2.3695580e-02  -6.5946494e-02  -2.4082925e-01   2.9960474e-01   8.2732375e-01  -3.0811207e-01  -5.7789265e-01  -8.2817916e-01  -8.2476241e-01  -3.3034796e-01   4.7924240e-02   5.7424770e-01   5.9159925e-01  -6.6420073e-01  -1.6350401e-01  -9.6482630e-01  -7.1431550e-02   6.3515023e-01   4.3131818e-01   6.5549533e-01   4.0858068e-01   4.2096049e-01  -4.0290849e-01   7.8588218e-01   7.2095882e-01   8.9344983e-01   6.0151918e-01  -4.0641362e-01  -4.7297214e-01  -8.5527675e-01   4.5454461e-02  -9.3649933e-01   4.0896977e-01   1.4429212e-02   6.5791354e-01  -5.0138771e-01  -7.6858952e-01   1.2180725e-01  -2.3950218e-01   5.3901326e-01   3.0301857e-01  -9.1943597e-01  -9.3908892e-01   7.1195760e-01   8.5523021e-01  -4.9773764e-01  -2.3242190e-01  -2.8370407e-01   3.0966876e-01  -1.4489648e-01  -2.6152710e-01  -4.0928476e-01   3.1048384e-01  -2.7151124e-01  -5.0931092e-01   5.4637535e-01  -4.0445858e-02  -5.4192536e-01   1.3530677e-01  -5.7953461e-01  -1.0262962e-01  -9.5359207e-02  -2.1308048e-01  -9.7528008e-01   8.1275814e-01   3.2320396e-01   2.8713307e-01  -7.7234821e-01   3.2359017e-01  -3.8291884e-01  -7.7667808e-01   1.1813286e-02   2.3026996e-01   7.4768221e-01  -1.5453715e-01  -5.1115674e-01   2.7768885e-01  -8.8705855e-02  -2.4093305e-01  -4.1854082e-01   6.9642392e-01  -2.6968350e-01   7.1084156e-01   8.8354833e-01  -8.2343640e-01  -5.4917130e-01   1.0367762e-01   8.0579132e-01  -6.5946573e-01   3.4830876e-01  -1.0587363e-01  -6.9886815e-01  -6.8065145e-01   7.4613187e-01  -3.8024732e-01   4.0143676e-01   8.5317069e-01   8.3703032e-01  -8.4725497e-01   1.0957625e-01  -3.8156806e-01   3.5576556e-01  -9.5452603e-01   4.5977580e-01  -5.3693462e-01   9.9768972e-01  -3.3964421e-01  -7.3918760e-01   8.0933436e-01   6.5366590e-03   2.7937643e-01   4.9878478e-01   7.6459240e-02  -6.9817629e-01  -7.8430722e-01  -6.1638066e-01   6.1049013e-01   1.7161035e-03  -2.7403245e-01   6.8939418e-01  -8.0064783e-02   3.3782037e-01   9.6841968e-01  -3.1376009e-01   8.0371008e-01  -4.2024255e-01   6.7237450e-01   2.2806500e-01   4.6289674e-01  -2.1822665e-01   4.2655937e-01   5.6840760e-01   6.6657264e-01   7.5231465e-01   9.6726845e-01  -1.9118720e-01   5.3560165e-01   4.9051041e-01   5.7630559e-01  -2.3041977e-01  -8.8918866e-01  -3.0802672e-01   2.3687726e-01  -2.7484407e-01  -2.2665115e-01   9.7099649e-03   2.8242663e-01  -4.5081870e-01  -8.7371661e-01  -1.2821279e-01  -2.9464645e-01  -1.0142013e-01  -5.4822600e-01   9.3592220e-01  -8.2650089e-01  -6.3606179e-01   7.8857830e-01   4.2589620e-01   7.3082265e-01  -3.6636384e-01   6.9872547e-01  -3.4127383e-01   3.7039773e-01   1.1568695e-01   9.4740672e-01  -8.2272977e-01   6.0922519e-01  -6.1949395e-01  -1.5315772e-01   5.7606329e-01  -4.7819716e-01   1.1733198e-01   5.9403369e-01   4.3320167e-01   1.8430251e-01  -2.7119538e-02  -3.1523932e-01  -8.7952335e-01  -7.4133797e-01  -4.4655331e-01  -7.4707037e-01   4.2334874e-01  -2.7819745e-02   5.4132643e-01  -4.3335130e-01  -8.2812720e-02   3.8230618e-01  -3.1864583e-01  -3.2086832e-01  -2.2166201e-01  -3.6168985e-02   8.1071893e-01  -1.0446113e-01   2.6018708e-01  -3.0056006e-01   9.9217268e-01   7.1985771e-01  -2.8447627e-01  -9.3828596e-01   5.1789878e-01  -7.8815116e-01   7.8022016e-01  -9.4230597e-01  -6.6667493e-02  -5.9719273e-01  -2.2506920e-01   4.7541485e-01  -9.5269324e-01   9.1780515e-01   2.8332463e-01  -8.5709246e-01   2.6295434e-01  -5.5023004e-01   8.3887997e-01   4.3440208e-01  -8.8374154e-01   9.3210462e-02  -6.3539981e-01  -9.7709252e-01   2.6147228e-01  -7.5405748e-01  -2.1601153e-01  -5.3339511e-01  -4.4226643e-01   4.1582570e-01   9.4560014e-01  -2.0320161e-02   2.4699689e-01  -9.9698965e-01  -8.5017075e-01  -3.8735193e-01  -5.3629478e-01   6.8198930e-01  -5.2040605e-01  -5.3865898e-03   3.8969848e-01  -7.0294897e-01  -3.3290680e-01  -1.9178546e-01   2.5374022e-01   7.7509470e-01  -1.2682911e-01  -4.7423446e-01  -6.4620157e-01  -5.0487660e-01  -4.7075460e-01  -6.0661886e-01  -2.3118934e-01   3.0927349e-01  -4.7770778e-01   8.5102593e-01   4.1759239e-02  -7.8619872e-01  -7.9419897e-02   6.4352805e-01   7.3087438e-01  -3.9760151e-01   1.5852827e-01  -5.7316279e-01   8.1541095e-01  -4.2944609e-01  -5.1886257e-01  -8.0317058e-01   8.4143967e-01   5.9039899e-01   9.2758066e-01  -7.5165710e-01   7.7069812e-01   6.7351631e-01  -4.1031382e-01   1.5390438e-01  -2.7923403e-01  -2.0920136e-01  -9.6413751e-01  -5.6644926e-01  -6.7782036e-01   3.0704875e-01  -6.4915884e-01   9.8052233e-01  -5.4669426e-01  -1.3087929e-01   4.7806678e-01  -7.5825352e-01  -9.1840165e-01  -8.9312185e-01   9.4512046e-01  -9.9561270e-01  -3.7632798e-01   9.4229462e-02  -6.0240683e-01   8.9274598e-01   7.0697121e-01  -9.5198371e-01   9.3507217e-01  -4.0635346e-01   7.1160422e-01  -1.4184041e-01   9.9431726e-02   7.9868873e-01   3.4053606e-01  -8.1943997e-01  -8.7914239e-01  -3.1843820e-01   3.3740929e-01   6.7276925e-01   6.9266993e-01  -2.0812719e-01   9.1162023e-01   1.9190634e-02
  -6.6853501e-01  -6.9311330e-01  -1.5327766e-01  -3.3227835e-01  -1.0649311e-01  -8.5889590e-01  -8.2949893e-01  -7.3606168e-01   4.6059451e-01   6.7281934e-01   7.3156792e-01   1.4668640e-01  -8.0752545e-01   1.6416247e-01   2.2045358e-01  -4.2449290e-01  -6.5683889e-01   7.4779580e-01   8.2215325e-02   5.1665806e-01  -9.5437142e-01   1.2342121e-01   8.8077511e-01  -6.3758748e-01  -3.6919528e-01   5.1040285e-01   1.4998814e-01   2.9909143e-01  -9.8208840e-01   2.2342912e-01  -3.2358937e-01   1.9643685e-01   9.9674116e-01   1.5456859e-01   2.3905627e-01  -7.7386078e-01  -6.7895533e-01   8.9516644e-01   6.9470139e-01   4.9978209e-04   8.0212027e-02  -1.1048250e-01  -7.0310423e-01  -8.6742947e-01  -8.6620339e-01  -5.4360434e-01  -2.5068557e-02   4.7930620e-01   6.0001917e-01  -9.0622396e-01  -9.6051393e-01   9.1923621e-01   8.2316985e-01  -1.9959118e-01   4.9841956e-01   6.0440318e-01   8.8556976e-01  -9.2188208e-01  -8.6788292e-01  -9.1680753e-01   9.6798560e-01   2.5841872e-01  -8.2982476e-01  -9.7045399e-01   4.2483834e-01  -8.9867571e-01  -9.6811114e-01   1.4074471e-01  -6.5847284e-01   1.5164571e-02   6.5271344e-01  -9.1660749e-01  -7.8227551e-01   5.8084569e-01  -1.9253607e-01   9.0580473e-01   2.6337604e-01  -4.8970786e-01   5.1847293e-01  -6.6222420e-01   9.1386192e-01   6.0660376e-01  -2.5199941e-01   2.9376786e-01   8.3775091e-01  -7.2393935e-01   3.6347748e-02   4.7810282e-01   9.4039102e-01   5.8365001e-01   2.6504904e-01  -6.5541766e-01   9.1180721e-01   1.1930912e-01  -2.5301273e-01   4.9881350e-01   1.9739715e-01  -1.0228813e-01   4.0741406e-01   8.4977833e-01  -7.4368997e-01  -4.5380045e-01   1.7514281e-01  -5.8240900e-01  -7.5833670e-01   3.5434470e-01  -2.7787889e-01  -8.4787719e-01  -4.3992382e-01  -6.6791382e-01   3.8603912e-01   6.5390148e-02  -3.9080031e-01  -4.9571887e-01  -8.3240286e-01   9.1129714e-01  -9.2580013e-01   2.6124077e-01   6.0320053e-01  -1.9530409e-01  -3.4563682e-01   8.7235669e-02  -6.8007884e-01   6.8690793e-01   7.9652904e-01  -7.2945696e-01   4.9675483e-01  -1.2486121e-02   2.3852362e-01  -3.8112655e-01  -8.4950740e-01  -7.9465322e-01   4.6054607e-01  -9.4238879e-01  -8.2475196e-01   3.8989683e-02  -4.1030531e-01  -8.2626695e-01  -5.6809463e-01  -8.1464304e-01  -1.1614869e-01  -2.4710922e-01  -3.5149346e-01   7.3523586e-01   2.5574756e-01   2.7210724e-01  -3.5959154e-01  -6.7293291e-01   1.2930847e-01   9.7646333e-02  -1.5880370e-01  -5.0045948e-01  -4.8077447e-01  -9.4243249e-02  -8.2387537e-01   7.0326048e-01  -4.4263847e-01  -9.8601875e-01   1.1940511e-01  -3.2858143e-01  -1.5556478e-01   2.7438053e-01   9.2284183e-01   4.7263040e-01  -1.3740664e-01   2.8103098e-01   5.6058316e-01   2.9312034e-02  -3.3344881e-01  -4.3095429e-01  -1.6735767e-01   1.7077205e-01  -2.2866571e-01   9.1487122e-01   5.0778933e-01  -5.1375207e-01  -6.2767641e-01   5.0588361e-01  -3.8425346e-03   9.8600776e-01   9.4954433e-02  -6.7843777e-01  -9.8752220e-01   3.4020416e-01   2.9112462e-01  -5.1516440e-02   6.5500558e-01   6.4718180e-01  -6.4904027e-01   4.5527695e-04   1.5899350e-01   9.3572407e-01   2.7569037e-01   4.6592347e-01   8.0331522e-01  -1.4142707e-01  -5.5354775e-01  -7.7662091e-01   6.5285911e-01   4.5809002e-01   7.8254488e-01   4.4556718e-01   8.4963897e-01   5.9505820e-01  -7.2634986e-01   8.3295458e-01  -8.1969143e-01  -9.8496542e-01  -3.4505802e-01  -8.2579642e-01  -6.5588046e-02  -1.5437304e-01   8.1102681e-01  -5.2855713e-01   9.2333916e-01  -9.5757355e-02  -3.6885882e-01   3.1989763e-02  -7.2495178e-01  -4.6445505e-01  -7.8653613e-01   1.1801167e-01  -1.2428872e-01   5.6554758e-01   8.3244052e-01  -4.5764851e-01  -2.7702713e-01  -8.0482785e-01   3.6455059e-01  -3.0570918e-03  -3.6675551e-01   1.9271863e-01  -3.8757705e-01   1.1048745e-01   4.3847108e-01  -5.5676153e-01   3.5355442e-01   3.2855625e-01  -2.6253552e-01   3.8639586e-02  -6.1597021e-01  -9.2907052e-01   3.8137569e-01  -3.1997191e-01  -5.1640899e-01  -6.2398713e-01   6.3179301e-02   6.7071921e-01  -2.3362732e-01   7.8008864e-01  -5.0471549e-01  -4.7473710e-01  -6.8212790e-01  -3.6646162e-01   9.6693518e-01   9.4389373e-01   6.2882847e-01  -4.3283137e-01  -4.4947486e-01   1.2962316e-01   8.6591913e-02  -1.8046735e-02  -3.5088434e-01   1.8422121e-01   5.3689108e-01  -2.7315600e-01  -6.5006923e-01   6.9518449e-01  -7.3869158e-01   9.6247429e-01   8.6824788e-01  -5.3645784e-01   7.7122898e-01  -8.8571898e-01  -5.2817560e-01  -5.9892896e-01  -2.1848098e-01  -5.3442118e-01  -6.6604873e-04  -3.8263681e-01   6.1914399e-01   2.0342249e-01   8.2267323e-01   3.5978592e-02  -2.4523263e-01   5.2524551e-01  -9.6110796e-02  -4.9759678e-01   7.5539281e-01  -1.6291766e-01   8.8609296e-01   4.6641013e-01   1.6143418e-01  -8.2406039e-01   9.9770576e-01   6.4440888e-01  -5.4439856e-01  -1.0220095e-01   9.9465282e-01   1.7595676e-01  -5.3003808e-01  -4.6335942e-01  -7.0928164e-01   2.9340423e-01  -5.9547777e-01  -1.2985725e-01   6.6999154e-01  -6.4898709e-01  -8.6496342e-01  -8.0069388e-01   3.2146800e-01   3.1741311e-01   2.2281484e-01  -1.6177938e-01  -5.3864988e-01   8.3752252e-01  -7.5590294e-01   6.8738504e-01  -2.4570074e-01  -8.4570658e-01   9.3637922e-01   3.9449156e-01  -1.7365356e-01   9.4905483e-01   5.9792161e-01  -9.8757681e-01   5.9783573e-01  -5.3076263e-02   7.4066460e-01  -8.2535304e-01   9.2427146e-01   7.1205376e-01   6.3454638e-01  -7.8784380e-01   3.6377782e-01  -2.4516075e-02   9.3763669e-01  -5.0098914e-01  -8.6546652e-01  -8.3558074e-01  -4.3665950e-01   4.8198481e-01   4.3191634e-01  -8.3990081e-01   9.0304955e-01  -5.6650602e-01   4.8247957e-01  -8.5218343e-02  -6.5225973e-01  -6.5497241e-01   1.7895691e-01  -7.3501802e-01   5.0362567e-02  -9.5007232e-01  -1.3540915e-01  -3.9001778e-02   9.6009497e-01  -4.6027969e-01   1.0244860e-01  -4.6603455e-01   3.2518220e-01   4.8995068e-02   8.1967050e-01   8.0435478e-01   6.8634191e-01   9.4760896e-01  -5.0797842e-01  -1.4646145e-01   4.8617903e-01  -5.1737151e-01  -2.9740130e-01   4.3529771e-01  -6.4243178e-01  -2.4481893e-01   6.1919350e-01  -2.5479791e-02   5.5381152e-01   8.4774438e-02   3.5307348e-01  -9.6796146e-01   2.8740773e-01   9.3523062e-01  -4.7832699e-01   9.3692647e-01  -4.7902949e-01  -6.5833111e-01   4.0851323e-01   6.6544713e-01   2.3134928e-01  -5.6927019e-02   3.1504698e-01   8.1092343e-01   3.1133183e-01   3.9180784e-01   8.9801960e-01  -3.9379549e-01   5.9753147e-01   5.5650828e-01   9.6001341e-01   1.3320852e-01  -8.0331851e-01   1.5970206e-01   2.6648861e-01  -4.7066258e-01   6.7036258e-02  -3.0738592e-01  -5.9253306e-01  -2.7754118e-01   3.6838867e-01  -4.4569804e-02   9.2191660e-01   9.4652333e-01  -1.5167801e-01   5.9633725e-02  -3.3296430e-01  -1.5076046e-01   2.2904599e-01   5.1550612e-01  -9.4440937e-01   6.2740415e-01   4.3859163e-01  -9.7988647e-01   7.8077225e-01  -5.9044312e-01   1.0973842e-01  -5.6300026e-01   8.1246173e-01   3.7066249e-01  -6.2872687e-01   3.8110085e-01  -3.6639868e-01   9.8103172e-01  -4.3703007e-01   8.1355511e-01  -5.8151292e-01   5.1729352e-01  -2.8861779e-01   2.0180704e-01  -7.0998337e-01  -6.4424614e-01  -6.3039810e-01  -4.9550596e-01   4.9304057e-01   2.5720064e-01  -9.4697460e-01  -5.0988820e-01   9.6256019e-01   7.4851699e-01  -6.7754797e-01   1.0337792e-01  -2.5108857e-01   7.6130935e-01  -1.6719825e-01   3.1555867e-01   9.4842623e-01  -6.8949398e-01  -9.4834703e-01   3.8153568e-01   4.0587496e-01   8.7071933e-01   6.4450233e-01   7.3817598e-01   7.3083025e-01  -6.3099496e-01  -2.0004750e-01  -6.5424400e-01  -9.9467135e-01   5.0150381e-01  -9.1219764e-01  -1.8766306e-01   6.5205085e-01   9.4882905e-01  -6.6042687e-01  -9.7375649e-01  -8.1188012e-02   6.4428945e-02   1.2530389e-01  -4.1985701e-01  -1.7227668e-01   1.2641483e-01   5.6643125e-01  -1.2681297e-01  -2.7433548e-02   1.2238955e-01   9.0173426e-01  -9.2494376e-01   5.6195831e-01  -2.2804767e-01  -7.1124823e-01   7.6319650e-01   6.6520285e-01   8.8679086e-02   8.2983305e-01  -3.5755766e-01  -2.0382353e-01   1.8745494e-01   8.3323889e-01   9.7273618e-01   1.6698847e-01  -5.2867972e-01  -8.6495145e-01  -8.5949410e-01   7.1784335e-01   2.9977912e-01   5.7459729e-01  -9.3253127e-01   1.2693210e-01   3.5240135e-01  -3.4605869e-01  -2.6558670e-01   2.9677108e-01  -9.3149128e-01   9.2021512e-01  -1.9076803e-02  -6.3124955e-01  -8.1104529e-01   5.5454887e-01  -1.2935062e-01   7.4790106e-01   9.2093447e-01   8.0678367e-01   7.0827725e-01   1.1115852e-01   1.4716307e-01  -4.1322588e-01  -9.5295067e-01   8.0427687e-01   4.2183203e-01   5.4773310e-01  -4.8926052e-01   9.8498085e-01  -1.9652772e-01  -4.4965513e-01   8.7313754e-01  -7.8899160e-01   2.0347161e-01   6.7704542e-01  -4.5644357e-01   2.2140189e-01   7.4846006e-01  -4.0396786e-01  -3.0455700e-01   4.8717614e-01   4.5832889e-01   8.5735999e-01   5.1912792e-01   2.0066323e-01  -4.3486746e-01  -8.3453411e-02  -3.0774173e-01   1.3770347e-01  -6.9902669e-01   2.5160645e-01  -2.1890263e-01  -6.5323422e-01  -6.3343579e-01   3.2925360e-01   3.6190191e-01   3.9038634e-01  -8.5652212e-02   5.3670271e-01   9.6210472e-01   9.8743066e-01  -1.8193700e-01   4.2700430e-01  -4.9438947e-01   7.4359186e-01   5.2910615e-01   7.7219267e-01  -2.7340898e-01   7.5495148e-02  -8.5300771e-01   8.6584462e-01  -5.9041515e-01   7.1981647e-02   1.0278979e-01  -6.1781503e-01  -6.6108666e-01   4.6099172e-01   7.3201393e-01   9.6341966e-01  -1.9968935e-01   4.2640618e-01  -8.1222764e-01   7.3138363e-01  -8.1958501e-01  -2.0313273e-01   5.8104026e-01  -9.7620845e-01  -3.0534999e-02   4.4232970e-01   2.6063509e-01   9.3098908e-01   2.8198316e-01  -9.7245761e-01  -2.0038593e-01  -5.7097881e-01  -7.4749829e-01  -8.4983887e-01   5.7944574e-01   4.1937672e-01  -9.0521955e-01  -6.6159651e-01  -4.0919276e-01  -3.5145856e-01  -8.4186922e-02   7.4620556e-01   8.4379398e-01  -4.4603827e-01   8.0056515e-01  -6.0604892e-01   3.5849275e-01  -2.2337542e-01   7.9695385e-01   4.5745070e-01   6.5131530e-01  -4.0667020e-01  -7.1274191e-01   4.5314727e-01  -5.1382671e-01  -4.3374851e-01  -6.1953352e-01  -3.7565261e-01   1.6020564e-01   3.4069386e-01   1.2873679e-01   6.4953732e-01   7.2478131e-01   4.4946008e-01  -8.9188757e-01   5.9521901e-01  -8.9548887e-01   6.9009656e-01  -7.4305442e-01  -2.1446715e-01   1.2763697e-01  -5.2937960e-01   7.8290205e-01   5.7238392e-01  -5.5286366e-02   8.4408866e-01   2.2027599e-01   4.8871335e-01  -6.9073241e-01  -4.9830815e-01  -1.0665896e-01  -9.2463530e-04   8.0478775e-01  -7.3543597e-01   4.0652708e-01   6.1431329e-01  -1.2717403e-01   9.6856487e-01   1.7533503e-01   9.7775247e-01   3.7851365e-01  -3.0873139e-01   6.8599322e-01   1.6138057e-01   1.3115588e-02   1.2760973e-01  -5.2156618e-02  -9.1730787e-01   9.3910243e-01  -6.3338803e-01  -6.5704551e-03   6.4335307e-01  -6.5374833e-01   1.0478246e-01   7.7484526e-01   3.6085130e-01   6.4520237e-01   7.6076506e-01   5.7112306e-01  -3.3750528e-01   3.1987190e-01   6.8537756e-01   5.6981482e-01  -2.0624945e-01  -3.7391132e-01  -5.9451108e-01  -5.1643057e-02   5.4441757e-01  -6.7214946e-01  -3.4635948e-01  -4.0114879e-01   7.9303900e-01   4.1361951e-01  -8.8090958e-01  -8.1793767e-01  -9.7464861e-01   7.0512232e-01  -3.1978455e-01   4.8976511e-01   5.0490040e-01   9.2389018e-01  -8.9282178e-01   7.2438640e-01  -3.2903845e-01   7.0303909e-01  -2.1342789e-01   8.5365059e-01  -5.4067443e-01  -5.8441335e-01  -2.1249060e-02   4.6181700e-01  -2.8575083e-01  -8.2387356e-01  -3.2751430e-01  -2.1552803e-01   9.9433192e-01  -3.5401487e-01  -5.6743478e-01  -9.1398087e-01   3.4071042e-01  -5.9368154e-02  -4.7992708e-01  -3.2061678e-01   1.5717329e-01  -2.7866102e-01  -9.9187738e-01  -1.3054398e-01  -6.3672435e-01  -8.0086114e-01   2.7141221e-01  -5.6753359e-01  -3.4284829e-01   5.7027379e-01   6.4445918e-01  -8.8521193e-01   8.1734988e-01  -5.5997806e-01  -2.4720564e-01   4.7994260e-01  -1.5448377e-01   6.6593310e-01  -8.5955365e-01  -4.0461103e-01  -5.8784490e-01  -1.5237638e-01   4.6150294e-01   2.3642551e-01  -1.1094829e-01  -9.9942104e-01   5.2326678e-01   5.5128114e-01   2.5344542e-01  -5.1355841e-02   3.5384904e-01   8.2511924e-02  -6.4124442e-01   9.6697802e-01  -7.7533516e-01  -6.2249788e-01   9.1034200e-01   2.3816331e-01  -3.8304615e-01   7.5695110e-01   8.0430711e-01  -4.2442448e-01   6.8041107e-01   3.4823978e-01   3.0946862e-01   2.9100286e-01  -7.6358369e-02  -8.0761057e-01   4.7588282e-01   1.0957814e-01   9.8123982e-01  -6.6999327e-01   2.7250804e-01   5.8234548e-01   5.7287783e-01  -5.8332761e-01   4.3436501e-01   5.6778445e-01  -8.8529357e-01   2.8090926e-01   5.4637532e-01   2.6067882e-01   1.5320891e-01   7.1154324e-01  -1.1641543e-01   9.8641321e-01   8.2987970e-02   5.2822883e-01  -5.3791834e-01  -8.6116582e-01  -9.8146434e-01   3.6943053e-01  -9.4564485e-01  -6.2192407e-01   2.9095394e-01  -2.1637378e-01  -9.8366747e-01   1.1356676e-01   1.3735325e-01  -7.1426566e-01   9.7239688e-01   1.6047003e-01  -4.3863357e-01  -5.9658109e-01  -2.3012544e-01   5.0131196e-01   1.3234727e-01   4.8512629e-02  -4.5890259e-01  -6.1678824e-01   6.0114432e-01   7.9867192e-01   1.8721500e-01   7.5328403e-01  -6.1094695e-01   1.3367582e-01  -9.1162867e-01   2.1805612e-01   4.6285239e-01   7.3231872e-01   2.2567356e-01   3.0261206e-01  -8.1999573e-01   3.9696475e-01  -4.4078602e-01   4.5761802e-01   1.5942949e-01  -5.3991711e-02   7.8547669e-01  -7.5086442e-01  -8.7652416e-01   2.3139795e-02  -4.2916360e-02   6.5439243e-01  -4.5324589e-01   5.1971761e-03  -4.7440083e-01  -2.7713730e-01   3.9210609e-01   2.0424372e-01   6.2504017e-01   4.9240284e-01   8.9494045e-01  -8.9153316e-01  -9.7210504e-01  -4.4253649e-01   9.4322774e-01  -1.7914989e-02  -5.2688967e-01  -1.8679812e-01  -9.8709900e-01  -1.0724377e-01  -6.5869652e-01   2.6386000e-01  -3.5506446e-01   3.9778307e-01  -6.0006294e-01   8.0800429e-01  -6.7951398e-01  -5.8193038e-01  -4.3354352e-01   5.4636329e-01  -6.9807441e-01  -7.5537877e-01   4.3318934e-01  -8.0823189e-01  -3.3015696e-01  -9.8216167e-01   9.2854575e-01   2.3400083e-01  -8.0876837e-02   2.3215286e-01  -4.7357532e-01   4.7048531e-01   2.4367076e-01  -9.0888150e-01   5.1978868e-01  -1.0026819e-01   6.0576461e-01   1.6339124e-01  -2.6563962e-01  -7.9499874e-01  -6.1668846e-01  -6.0531866e-01  -6.1764808e-01   9.3547166e-01   4.9741656e-01  -2.7283422e-01   3.2591724e-01  -2.8582782e-01   9.6805746e-01   7.1681619e-01   7.7676203e-01   4.2630714e-01   7.1262669e-01   5.6919810e-01  -7.0272148e-02  -5.5413376e-01  -6.7487472e-01   6.7346391e-01  -1.8529390e-01  -4.0640590e-02  -5.7618377e-01  -2.5653478e-01  -9.3104741e-01  -8.9701805e-02  -6.8392371e-01  -7.5033361e-01  -3.1372604e-01  -3.1645796e-01   3.5813450e-01   2.4036544e-01  -9.4253114e-01  -1.8988740e-01   8.0377384e-01  -9.8299792e-01  -7.6183103e-02  -4.7386753e-01   6.0872943e-01   9.8331924e-02  -9.9515729e-01   2.2236996e-01  -3.6385701e-01   7.1808189e-01  -7.8709924e-01  -4.3689941e-01   5.9319572e-01  -2.6592454e-01  -9.9906983e-01   8.1692706e-01  -9.2825233e-01  -6.9145955e-01   3.4653741e-01   6.8325033e-01   7.1628700e-01   1.7470077e-02   8.9143368e-01  -2.1207602e-01  -1.6018300e-01  -7.8587931e-01  -4.9146639e-01  -2.2245058e-01  -6.4904715e-01   2.2645498e-01  -6.8539959e-01  -4.4379377e-02   9.6625673e-01  -8.3108673e-01  -4.2316869e-01  -5.6003916e-01   1.1176965e-01   1.2877398e-01   1.9038689e-01  -1.7795217e-01  -9.7815806e-01   3.2061371e-01  -8.3502574e-01   4.5776666e-01   8.4367799e-01  -7.7576432e-01  -6.6461182e-01   6.7257374e-01   9.2049311e-02   3.4693847e-01  -7.3040341e-01   4.4771448e-01  -1.5262477e-01  -3.3551261e-01   8.7869338e-01  -8.5240879e-01  -4.6006025e-01   8.4846908e-01  -4.4067199e-01   3.9636966e-01   4.3828625e-01   5.5205348e-01  -9.7082293e-01   1.9961612e-01   2.3915630e-01   9.9873199e-01   8.9157928e-01  -3.3750246e-01  -7.9568548e-01  -4.5036121e-01   1.1335291e-01  -8.7150363e-01  -5.6888179e-01  -2.2396194e-01   7.1506840e-01   2.9678423e-01   5.2705274e-01  -9.1701214e-01   2.9710217e-01   9.7300600e-01  -7.2615179e-01   6.4786040e-01  -3.8768727e-01  -3.6766855e-02   4.4479262e-01   7.6756077e-02   5.9623854e-01   5.9666547e-01
  -3.3574832e-01   2.2066119e-01  -8.5476248e-01   2.1301864e-01   7.4736190e-01  -1.4353985e-01   3.6488037e-01   7.5373964e-01   4.1040292e-01   1.2858537e-01  -6.3647943e-01   5.8592214e-01  -4.2831547e-01   9.1028380e-01  -7.8966851e-02   6.7077951e-01   4.3966141e-01   9.0543480e-01   3.7259813e-01   5.3766495e-01   5.5637650e-01  -4.9837098e-02   2.2576515e-01  -7.2550976e-01   5.1943177e-01  -1.8294165e-01   8.3405007e-01  -8.1238199e-01   5.1840612e-01  -1.8881347e-01   5.7961825e-01  -8.3850491e-01   9.9100878e-01   4.1090436e-01   7.4164329e-01   2.6552224e-01  -2.3983497e-01   8.8358831e-01  -8.2385698e-01   4.6236049e-01   1.9809887e-01  -3.8959756e-01  -7.1292493e-01  -8.1070576e-01   3.4776884e-01   9.8380871e-02  -9.3571016e-01  -2.7804887e-01   7.3702762e-01  -8.4008755e-01   7.4643971e-01   2.0274423e-01   9.8588776e-01  -4.3737622e-01   2.4878781e-01   1.0965033e-01  -4.2589653e-01  -7.9340466e-02   7.3896805e-01   1.1530850e-01  -6.6953760e-01  -3.9654238e-01   4.3046585e-01  -6.6531710e-01   9.5071000e-01  -2.4046684e-01  -4.9865906e-01  -8.7129944e-01  -2.5479971e-01   4.9335519e-02  -5.2820240e-01   1.7830894e-01  -7.5988091e-01  -2.1487676e-01  -2.0927957e-01   2.1525097e-01   3.3182708e-01   8.8646001e-01  -5.0972959e-01   4.9450876e-01   7.1534717e-01   9.4972397e-01   7.1448122e-01   3.7106657e-02  -3.6837355e-01  -6.6991667e-01  -4.3031966e-01   6.9186253e-01  -9.8366844e-01  -3.2694060e-01  -7.3920859e-03   3.7051645e-01   2.4482729e-02  -5.7724410e-01  -4.9877449e-01   9.9038511e-01   7.0682174e-01  -3.5752943e-01  -7.5790268e-01   6.6496635e-01   4.5550384e-01  -9.5923243e-01   2.2986427e-01   8.5901559e-03  -1.9673922e-01  -5.1049393e-01  -5.9959558e-01   8.0285004e-01   6.9829466e-01  -6.2539519e-01   7.6486668e-01  -6.9346546e-01  -2.0885355e-01   1.3961778e-01  -7.9256857e-01   8.7978019e-01  -3.9496653e-01   1.5153163e-02   9.4403451e-01   5.1744628e-01   7.1449388e-01   3.3720634e-01   3.7809674e-02  -2.2310035e-01   7.0651626e-01   5.9791538e-01   7.9952882e-01   3.8766788e-01   7.1373609e-01  -1.2646853e-02   8.1542980e-01  -2.9971942e-01  -9.2962860e-02  -5.8107966e-02  -5.8783201e-01   5.3606171e-01   6.8487048e-01  -2.4344816e-01   8.1997737e-01  -2.2407794e-01   4.3415741e-01  -7.3892200e-01   5.4529725e-01   2.8838025e-01   2.9711845e-02  -6.4168643e-01   4.6241935e-01   2.6001193e-01   1.3784618e-01  -8.6788989e-01  -3.4681743e-01  -9.0797081e-01   7.2698867e-01   6.5638445e-01   3.7923171e-01   1.4882328e-01  -1.4060651e-01   3.3875358e-01  -9.5984291e-01   6.8634788e-01   4.7082737e-01   9.9026719e-01  -7.0134732e-01   2.5928859e-01   3.2650222e-01   3.5862608e-01  -5.1187201e-01  -9.7901623e-01  -6.9097266e-01  -6.4533770e-01  -5.7325409e-01  -1.5434162e-01   7.9849651e-01  -8.1481232e-01   7.7782814e-01  -4.6937356e-01  -7.6517910e-01   7.0124393e-02  -8.4298882e-01  -3.1827912e-01  -3.7074018e-01  -9.1184263e-01   7.3762345e-01  -6.7394833e-01  -7.6034003e-01  -9.9922352e-02   3.4946728e-01  -9.9785449e-01  -3.7055181e-01  -7.5865557e-01  -4.7789067e-01   9.4235767e-01   2.7311812e-01   8.1331336e-01  -2.4340273e-01   7.7207934e-01  -1.9479838e-01   2.3312486e-01  -6.5820787e-01   3.1431411e-01   7.3753814e-01   8.0501956e-01   1.2592940e-01  -8.4000684e-01   4.1296808e-02  -9.6575698e-01  -8.0780367e-01  -2.5324084e-01  -2.3871912e-01   1.4635828e-01  -8.7856832e-01   4.7549718e-01   7.8904631e-02   3.0804795e-01   4.7884461e-02   6.1200361e-01   5.4265663e-01   7.2789759e-01  -9.5036406e-01   5.0989926e-01   5.9092625e-01   5.7137051e-01  -9.3428705e-01  -2.3377555e-01  -4.4054818e-01   1.7039151e-01  -2.4681429e-02   3.4653761e-02   6.0112855e-01  -7.8273884e-01  -2.7573736e-01  -1.7011782e-01   1.0493016e-01   5.2270075e-01  -5.6774977e-01   1.3640111e-01   9.8164417e-01   6.3591223e-02   7.3816733e-01  -4.3799753e-01  -6.5218432e-01  -4.3150094e-01  -8.0967004e-01   8.6200719e-01   7.1600382e-01  -6.5383472e-01  -6.6817315e-01   9.7510842e-01   7.9418726e-01   5.4051052e-01   3.8866334e-02   5.3798271e-01   3.0376126e-01  -2.4798332e-01  -1.4058161e-01  -2.5015178e-01  -2.6537971e-01  -3.6537024e-01   1.1371309e-01  -3.0714529e-01   9.8722539e-01   5.8372754e-01  -5.3825169e-01  -6.4347333e-01  -1.7169398e-01  -2.3844566e-01   7.1312604e-01  -9.1671329e-01   6.6739559e-01   8.8174685e-01  -8.9711519e-01   2.0203255e-01   4.7118391e-01   2.4409967e-01  -6.7184439e-01   5.4446832e-01   3.2272670e-01   6.9573455e-01   8.9360004e-01  -2.8857079e-01  -5.4787247e-01   1.6128455e-01   7.6155866e-01   9.3836764e-01  -2.8109103e-01   8.9736558e-01  -2.8635348e-01  -6.6810587e-01   2.8479776e-01  -3.5489984e-01   8.1739752e-02   3.8876225e-01   2.8753664e-01  -6.4321435e-01  -7.5470738e-01  -2.4399377e-01   1.7879502e-01   5.8493649e-01  -9.6813899e-01   6.7746205e-01  -7.8646334e-01  -1.0212903e-01  -4.4842562e-01  -4.8886159e-01   4.5655862e-01  -6.7389930e-01  -6.7312740e-01  -4.8503981e-01  -6.2058604e-01   7.9269561e-01   1.6279252e-01  -6.2574137e-02   5.3341376e-01  -9.1709606e-01  -4.0576643e-01   4.5622863e-01   9.1534315e-02   9.0570833e-01  -7.3631958e-01   4.4635226e-01   3.0441064e-01   9.5789572e-01   7.2796358e-01   8.3964774e-01   8.3770254e-01   5.2489166e-01   2.4022278e-01   7.8560121e-01  -1.8110966e-01   6.6223509e-01   4.3243859e-01  -4.4460056e-01   9.5397403e-01  -3.4629029e-01   7.9732840e-01  -1.3937388e-01   4.9450614e-01  -2.5364871e-01   5.5739083e-01  -8.7374997e-01  -6.0247334e-01   7.0353852e-01   3.7556349e-01  -5.1752652e-01   4.6401496e-01  -8.7899249e-01  -8.1352701e-01  -8.0305845e-01  -9.4566579e-01   8.9520201e-01   6.9051517e-01   5.8003878e-01  -1.3102822e-01  -9.1425788e-01  -8.1488333e-01  -4.2668515e-01   7.2000662e-03  -8.8231653e-02  -3.4783721e-02   3.0235270e-01  -4.6377308e-01   6.4455692e-01   8.1268089e-01  -2.9293361e-02   2.3089290e-01   9.0815997e-01  -2.4576805e-01  -2.7965182e-01  -6.3344943e-01  -7.9006535e-01   1.8004635e-01   8.5716650e-01   6.2064378e-01   1.1911674e-01   6.9186405e-01  -8.6542662e-01  -4.6092372e-01  -9.0535662e-01  -3.3538777e-01  -2.6800581e-01  -8.2550489e-01   4.8305020e-01  -5.3436042e-01   9.7092204e-01  -1.5606355e-01   8.9781558e-01   8.5057619e-01  -1.2222947e-01   3.0831849e-01  -3.5001980e-01   4.5671131e-01  -4.9788351e-03   9.8690891e-01   4.6984614e-01  -3.3919077e-01  -8.9332107e-01  -4.8986758e-01   6.9273543e-01   5.0475838e-01   8.5097419e-01   3.2752933e-01   8.1411504e-01  -5.6477888e-01  -3.5451448e-01   6.0430339e-01  -9.5321798e-01  -3.5010595e-01   4.1417754e-02   1.0141516e-01   8.8539995e-01   9.7263343e-01   5.0771639e-01  -8.3910318e-01   1.1410629e-01  -6.2258935e-01   5.7856623e-01   6.2853815e-01   5.0054896e-03  -7.8680279e-03   5.3135115e-02   8.2768926e-01  -8.5874069e-01   3.4059621e-01  -1.5528269e-01   1.1800469e-02   7.6682157e-01  -4.3846791e-01  -4.8943888e-01  -9.5673909e-01   7.5562281e-01  -3.8600564e-01  -4.3514843e-01   4.2951930e-01  -4.4954511e-01  -8.7607237e-01   1.1393194e-02   8.0833553e-02  -3.4591470e-01   7.4377095e-01   1.9133673e-01   2.3584683e-01   5.9569874e-01  -7.6742676e-01   3.9247258e-01  -6.1459386e-01  -2.0673075e-01   3.6427763e-01   6.3569655e-01   4.5546173e-01  -5.8000004e-01   4.5994930e-01  -3.9174618e-01   6.2474744e-01  -3.7662291e-01   4.6221753e-01   6.9703417e-01   4.7078444e-01   1.1648100e-02  -8.4030213e-01   7.0075941e-01  -5.5440716e-01  -2.8114370e-01  -4.3804956e-01  -6.3984962e-01   4.9060984e-01   4.5655695e-03   8.3809392e-01  -7.3189111e-02  -5.3041425e-02   7.3499977e-01  -7.3894278e-01   4.6214158e-01  -1.7732695e-01  -2.4436987e-01  -6.5101862e-01  -6.0579731e-02  -1.9270232e-01   8.0070621e-01   9.9677620e-01   6.7467833e-01  -1.6386569e-01  -9.2301230e-02  -9.0387506e-01   6.3001962e-01   7.3855447e-01   4.4992835e-01  -5.5253578e-02  -3.6499184e-01  -5.9631892e-01   2.3891328e-01  -2.8832811e-01   6.4872278e-01   1.4885234e-01  -6.8163904e-01  -1.1942529e-01   1.0296895e-01  -2.6345463e-01   7.9564737e-01  -4.9573940e-01   1.2063958e-01   7.2427259e-01   8.2293880e-01  -4.1216171e-01  -2.1277801e-01   7.5459190e-01  -6.2975106e-01  -6.6810315e-01   2.3435820e-01  -9.0046552e-01  -5.5549494e-01   7.6478436e-02  -1.3604696e-01   6.9347654e-01  -8.7153127e-01   3.5410196e-01  -5.7172298e-01   1.7806784e-01  -4.1793644e-01   3.3506848e-01   5.0584936e-01  -8.3280247e-01   5.2988493e-01   5.5853313e-01  -3.5191237e-02   6.1820622e-02  -2.5655584e-01  -5.9085724e-01   5.3142537e-01  -3.8079388e-01  -2.3218614e-01   3.4142017e-03  -2.7084100e-01   4.2601961e-02   8.7722115e-01  -7.1023384e-01  -3.4186416e-01   7.2858717e-01   2.5965671e-01   3.7658312e-01  -7.1305830e-01   2.1387958e-01   5.0431465e-01   1.6698134e-01   1.5080037e-02  -1.0441356e-01  -6.8940952e-01   2.7796397e-01  -5.9738192e-01   1.4682448e-01  -4.1302880e-02  -1.5284966e-01  -1.2896453e-01  -9.3115922e-01  -2.9011703e-01  -7.3423215e-01   8.1696858e-01  -7.7424438e-01   5.4483969e-01  -1.6748172e-01  -5.5825401e-01  -9.9409843e-03  -3.5060869e-02  -6.2789142e-01  -4.1597025e-01  -3.1219868e-01   4.8851106e-01  -2.3670202e-01   8.0723094e-01   3.6421360e-01  -2.8273384e-01  -5.0601605e-01  -7.1054334e-02   7.1273726e-01  -2.3375538e-01   4.3603602e-01  -5.4762734e-01   1.4628762e-01   2.7591968e-01   1.4389867e-01  -7.5988614e-02   9.7940425e-01  -7.8742911e-01  -6.8709058e-03  -8.3953504e-01   4.7987010e-01   3.1143614e-01  -5.1880940e-01  -5.0962360e-01   7.5102017e-01  -4.9383770e-01  -3.7116817e-02   1.0047817e-02  -6.3873135e-01   5.9527857e-01  -5.2716137e-01  -4.0915874e-01  -8.5260747e-01  -6.1936339e-01  -4.3231220e-01  -1.9789401e-01   4.9838223e-01  -5.8502592e-01   8.8292140e-01  -2.1364363e-01  -6.2809369e-01   7.0694126e-01   2.8968902e-01   5.4842690e-01  -2.7386854e-01  -4.2061829e-01  -3.2193461e-01   5.9993785e-01  -3.4611289e-01  -6.7321208e-02  -5.6904866e-01   3.2347151e-02   7.4436720e-01  -8.2943144e-01   9.7898184e-01   5.3625387e-01   3.1208810e-01   8.4858649e-01  -7.3606654e-01  -9.3936060e-02  -1.7824915e-01  -5.0072298e-01   5.3037729e-01  -2.0311867e-01   2.6251535e-01   5.3552987e-01  -2.9449999e-01   1.5475265e-02   2.1802576e-02   6.2836909e-01   1.4457513e-01   2.2867084e-01  -6.5855725e-01  -2.9343911e-01   3.6649299e-02   1.5462086e-01  -2.4871460e-01   5.0982065e-01   2.3521979e-01   2.6370074e-01   2.2907219e-01  -2.7464345e-01   7.0297989e-01   5.9798746e-01   7.2932318e-01   4.1362564e-01   3.1945608e-01   4.3910799e-01  -7.2443414e-01  -1.2740685e-02  -3.1134933e-01  -8.9687229e-04   3.3483102e-02   5.8301533e-01   5.4377412e-01   7.0856408e-01   9.7395465e-01  -2.6522596e-01   9.8005573e-01  -9.7149877e-01  -3.5863758e-01  -6.0802795e-01  -4.2191920e-01   2.4337819e-01   7.7748443e-01   3.1128928e-01  -6.2534336e-01   8.7822196e-01  -8.2934791e-01  -4.6319272e-01  -3.0717394e-01  -4.5233625e-01  -3.0784250e-01  -9.4496194e-01   4.4639002e-01  -4.5980979e-01   4.0011350e-01  -1.4260630e-01  -7.8789209e-01  -2.2575476e-01   4.4610606e-02   2.2284521e-01  -8.9219714e-01   3.8945388e-01  -6.8344463e-01  -6.9838279e-01  -2.8592086e-01  -2.1465713e-01  -6.3701817e-01  -6.2338194e-02  -3.2193542e-01   1.3652294e-01  -8.8798573e-01  -5.0633153e-01  -1.8226079e-01   5.9999120e-01   9.9245525e-01   9.4017526e-01   5.8415989e-01   2.4244218e-01   2.9869491e-01   9.1821662e-01   7.2711293e-01   5.1815517e-01   5.3361615e-01  -4.9724453e-02  -6.3161057e-01   5.6607361e-01  -2.7927855e-01  -4.5188463e-02   1.9679358e-01   4.6773419e-02   8.1074667e-01  -2.9421670e-02   2.2580459e-01   2.0034586e-01   1.0798651e-01   3.3593001e-01  -6.5407971e-01   6.3290914e-02  -7.9909943e-01  -5.6647426e-01   4.7250078e-01   8.2064199e-01   6.7077635e-01  -5.6581525e-01   6.6982757e-01   1.4576399e-01  -5.7065955e-01  -3.6428680e-01  -6.8774420e-01  -3.0652507e-01   6.6263065e-01   1.7436031e-01  -5.8976791e-01  -5.6667950e-01  -3.8789282e-01  -8.6946391e-01  -3.0740078e-01   6.4023718e-01  -5.5156599e-01   3.7257604e-01   4.2612221e-01   1.3953875e-01   3.4581040e-02  -1.1164287e-01  -3.7257553e-01  -6.9395845e-01   8.0367214e-01  -1.8166909e-01   4.7727634e-01  -3.9992485e-01  -2.8653511e-01   8.4934377e-01  -9.4552262e-02  -4.9684692e-02  -4.8916133e-01   2.1361520e-01  -6.7078682e-01   2.4042582e-01  -2.9229878e-01  -5.5454889e-01   4.8832573e-01  -7.0424233e-01   1.3926045e-01   3.5386538e-01  -4.7698646e-02   1.8319798e-01   7.3744138e-01  -1.0438401e-01  -8.9023659e-01  -4.9256898e-01  -5.3723228e-01  -6.2755646e-01   1.6307069e-01  -4.7174220e-01  -9.2057498e-01   5.4705321e-02  -7.6885177e-01  -1.5746601e-01  -3.1208185e-02   9.9144973e-01   2.5291516e-01  -6.7334236e-01   5.8553721e-01   3.5886586e-01  -9.7211048e-01   7.6859666e-01  -9.2919385e-01  -4.4039447e-02   2.6619949e-01   8.8495986e-01   7.3880748e-01  -8.0365628e-01  -2.7159485e-02  -8.5667027e-01   5.5532516e-01  -1.9643410e-01  -8.7615820e-01   4.8416506e-01   2.0192654e-01   2.0781011e-02   6.5349219e-01   1.4918873e-01   8.9357034e-02  -7.5775262e-01   2.7959781e-01   2.1541528e-01  -6.9072747e-01  -9.9978555e-01   8.5376643e-01  -3.8079319e-01   3.7444857e-02  -7.7661772e-01   7.3781672e-01   3.4195447e-01   7.6650822e-01   7.1168152e-01  -3.9132839e-02   8.3079999e-01  -5.4106774e-03  -4.2028359e-01   5.9549408e-01  -1.9789451e-01   4.0574597e-01   4.4733630e-01  -6.2375148e-02  -2.6534726e-01   9.1573936e-01   4.3782911e-01  -8.3963086e-01  -3.5538389e-01   4.7571341e-01   2.4201094e-01  -1.8738675e-01   6.0134182e-01   2.2416161e-01  -9.5705329e-01   5.6754429e-01  -9.2787033e-01   6.4056572e-01  -2.0125514e-01   3.5533511e-01  -9.8011295e-01   4.6152939e-01   1.6293330e-01  -2.1798784e-01   4.3981109e-01  -3.2299392e-01   6.1939897e-01   8.2083831e-01  -1.6577973e-01  -5.9365862e-01  -6.3742118e-01   9.9306900e-01   7.6477247e-01   6.7418104e-01  -5.2482802e-01  -8.2731501e-01   6.2602471e-01  -2.8734879e-01   9.7324752e-01   9.8499047e-01   2.8593107e-01  -2.8203278e-01  -7.8865340e-01  -4.6110424e-01   4.2003059e-01  -2.1698028e-01  -7.5987308e-01  -8.1781877e-01  -8.9932724e-01  -2.8464386e-01   4.8055041e-01  -2.4149000e-01  -8.6604969e-02  -8.1142046e-01  -1.0320623e-01   7.3533563e-01  -7.8084394e-01  -3.2187995e-01  -4.4725463e-01   7.7151686e-01   7.7015091e-01  -3.4062102e-01  -5.2191529e-01  -7.1322702e-01  -8.3788293e-01   5.6882803e-02  -6.9699007e-01   4.4113386e-02  -2.3955549e-01  -9.9492003e-01   3.8101274e-01   2.5486458e-01   9.1498569e-01   9.5663323e-01   5.6505602e-01  -3.1569950e-01   3.6455825e-01  -6.1575973e-01   8.4313259e-01  -9.1088216e-01  -3.5135990e-02   6.4362727e-01   2.3112634e-02   6.4524790e-01  -3.7842100e-02   2.5732044e-01   2.2702458e-01   2.1423014e-03  -8.5354718e-01  -2.5906283e-01   2.2144242e-01   7.8706616e-01  -3.2677497e-01   4.8432783e-01  -2.7747474e-01   3.7451812e-01   5.9690684e-01   6.9351457e-01  -9.7209248e-01  -6.0391119e-01  -6.2518029e-01   5.5726482e-01   6.9296160e-01   9.5661600e-01  -7.3203507e-01   7.0784769e-01   2.3971814e-01  -5.7240571e-01   7.6546918e-01   1.7339072e-01  -8.3137633e-01  -9.6089654e-01  -3.9612601e-01   1.1649418e-01  -8.2872273e-01  -4.4444670e-01  -5.1794804e-01  -3.1623975e-01   6.1159961e-02  -4.3331881e-01   3.2387925e-01  -6.7215518e-01  -8.2541791e-01   9.6910401e-01   4.1088729e-01  -4.2182738e-01  -5.5711347e-02   7.6362415e-01   4.9142178e-01   7.8415818e-01  -9.9866198e-01   2.8031844e-01   7.7091514e-02  -4.8370312e-01  -6.4695750e-01  -1.0589946e-01  -6.7046647e-01   7.8767944e-01  -6.1922955e-01  -5.6176183e-01  -4.3066901e-01  -8.9858350e-01  -9.4085524e-01  -2.7096593e-02   5.8441436e-01   1.7200332e-01  -1.2863380e-01  -7.6600411e-01   9.1662051e-01   9.6492383e-01  -9.6951303e-01  -3.8979338e-01   7.0002225e-01   2.7098808e-01   7.1928624e-01   3.8918548e-02   8.2526509e-01   1.5737424e-01   5.8050394e-01   6.5502339e-01   2.0344257e-01  -8.3468290e-02  -5.7013975e-01   2.0233164e-01  -8.0792921e-02   1.3590017e-02   2.8050492e-01   6.0688439e-01  -6.6910860e-02  -2.8215452e-01  -9.2958153e-01   8.9551491e-01   5.5361989e-02
