  -8.7266162e-01   4.2355540e-01  -6.1859033e-01   4.9993643e-01  -3.4696463e-01  -8.2904119e-01  -2.9533647e-01  -3.4197194e-01  -8.1708319e-01  -5.5948006e-01   4.5799981e-01   6.2286007e-01   7.3145724e-01   1.4130093e-01   2.0439281e-01   8.3531679e-01   8.3637304e-01   4.4709913e-01   4.4830003e-01  -5.4033584e-01   7.2870488e-01   9.1502842e-01  -4.7172641e-01   1.3758661e-01  -1.8034830e-01  -4.1403493e-01   4.6390102e-01   2.9801790e-01  -4.1934518e-01  -5.8837878e-01   3.6533251e-01   2.7623336e-02  -7.7340449e-01  -2.6328928e-01  -7.8061547e-01   3.1911438e-01   9.8254621e-01  -2.0568675e-01  -3.5341873e-01  -4.4534122e-01  -7.6661133e-01   5.8091204e-01   1.6774272e-01   2.4566970e-01   9.6552577e-01  -2.9060305e-01   5.1026829e-01  -5.7862570e-01   8.8567350e-01  -3.4350372e-02  -2.7237801e-01   7.7961403e-01  -7.4331415e-01   8.1392316e-01   8.4010460e-02   8.1002781e-01  -9.2722256e-01  -3.2446117e-01   8.5488451e-01  -6.5800524e-01  -5.3667246e-01  -6.3386085e-01   3.9993756e-01   8.6853840e-02  -5.5258554e-01   8.4536352e-01   7.7924612e-01  -1.4749604e-01   5.5914500e-01   2.5966423e-02   7.2479533e-01   9.1363999e-01  -8.4249142e-01  -6.5501111e-01  -3.3198075e-01   2.9941705e-01  -2.4715583e-01   5.7282171e-01   9.4063752e-02   3.5186200e-01  -6.7131166e-01  -5.5416782e-02  -3.3320783e-01  -3.1792556e-01  -9.7773522e-01  -1.2085117e-01  -6.2527181e-01   6.0166630e-01  -9.9950640e-01   7.7805228e-01  -9.0903340e-02  -2.2694597e-01   3.9210859e-01   6.9401008e-01   1.0669620e-02  -7.4179387e-01   3.4754635e-01   1.2865920e-02   7.3115671e-01  -5.3774953e-01  -2.6743961e-01  -3.3950653e-01   9.4710887e-01  -9.1654336e-01  -3.3492527e-01  -3.5589560e-02  -2.4461809e-01  -2.1842122e-03   9.4268242e-01  -5.1069897e-01  -4.5535281e-01  -3.9459589e-01  -5.1216946e-01   3.3098158e-01  -2.4152425e-01   3.2328153e-01   8.7024390e-01   3.2029487e-02   7.6793528e-01  -8.9727143e-01  -1.6405790e-02   2.9260916e-01  -2.1123221e-01   2.1446072e-01  -2.1164996e-01  -9.9946817e-01   1.2185290e-01   9.7968482e-01  -2.7661736e-01  -1.9799073e-01  -8.7420291e-01   3.7760968e-01   5.3296128e-02   5.8893435e-01   4.6106484e-01   7.3488217e-01  -7.9947508e-01  -9.3579515e-02  -2.2401398e-01  -8.7102382e-01   5.8256257e-01  -5.0763030e-01  -6.8501381e-01  -1.8130488e-01  -8.7185843e-01  -8.9005462e-01   7.9630889e-01   1.2412874e-01  -9.7456661e-01  -3.5916589e-01  -4.5176976e-01  -9.7911894e-01   4.0537468e-01   1.9261650e-01  -5.7128467e-01  -7.4508920e-01   2.8473710e-01  -6.0141604e-01  -4.7500680e-01  -8.6783528e-01  -7.9082419e-01  -6.5470666e-01   2.4234855e-01   6.6794635e-01  -9.8625880e-01   9.1105954e-01  -3.0828372e-01  -5.3058632e-01  -7.3560716e-01   4.5948224e-01   8.0763645e-01  -1.0346310e-01   5.0709815e-01   9.0469042e-01  -4.9159281e-01  -6.5091719e-01   8.7310241e-01  -6.4087840e-01  -4.9753615e-01   1.1849978e-01  -9.8843460e-01  -8.8323725e-01   3.3514730e-01  -4.0960159e-01   1.9719462e-01  -3.9153934e-02  -7.3956659e-01   6.7002284e-01  -4.7240789e-01   5.4933865e-01  -9.0764925e-01  -3.6105923e-01   3.2987516e-01   4.0466989e-01   3.2928422e-01  -2.5167965e-02   7.8689223e-01  -1.2260519e-01  -5.1963532e-01  -8.8042358e-01   8.5587123e-02  -5.8860189e-01  -2.4199247e-01   4.6015168e-01  -5.0325024e-01  -6.3432171e-01  -7.0932115e-01  -4.1232687e-01   6.0956226e-01   6.0936033e-01  -9.0017546e-01  -7.9040424e-01   4.4872454e-01  -8.8607346e-01   6.1775177e-01  -3.5523558e-01   7.9950430e-01  -9.8914316e-03  -4.2451446e-01   1.8267313e-01   2.6368829e-02   9.2465900e-01  -7.0274212e-02  -1.7605801e-01  -1.5769264e-01  -7.4379333e-01   8.2846545e-01  -1.1954114e-01   2.8658509e-01  -4.5222267e-01  -7.0811500e-01  -6.2602387e-01  -7.5120129e-01  -8.3674473e-02  -5.2004009e-02   6.1564749e-01  -7.4784439e-01  -5.9595529e-01   7.7304511e-01  -6.5062703e-01   1.3126610e-01  -6.4354910e-03   2.0980140e-01   9.7478721e-01  -3.4737607e-01   3.2688444e-01  -5.5536558e-01   5.7710883e-01  -8.0506956e-01  -7.5397830e-01  -3.8971817e-01  -1.4486938e-01   3.9379874e-01   4.1739881e-01   1.9773707e-01   9.0771028e-02   3.9695514e-01  -2.3423644e-01  -2.9707295e-01  -6.1714642e-02   8.2177040e-01   6.7561376e-01  -1.6448371e-02  -4.7261547e-01   6.2527335e-01   3.4998530e-01   5.2996060e-01  -8.7750919e-01   9.8934875e-01  -1.9126828e-01  -9.7874875e-01  -1.9070133e-01  -3.2293319e-01  -6.0313037e-01  -6.1549736e-01   7.2071955e-01   8.8389967e-01   8.9859211e-01   6.1627152e-01   2.0290649e-01   3.3420199e-02  -9.1482692e-01   4.8280554e-01  -3.2148417e-01  -6.6333360e-01   2.1785887e-02  -8.9484445e-01   2.8161471e-01  -5.9182546e-01  -8.8158332e-01   1.5608883e-01  -1.4625471e-01  -2.8789734e-01  -6.7074933e-02  -3.1779800e-01  -6.9949005e-01   9.9107034e-01   1.6868136e-01  -8.7730054e-01   9.2072776e-01  -5.4218409e-01  -8.3669200e-01  -9.9777241e-01   1.0962043e-01  -2.4552333e-01   9.2037125e-01   2.5027347e-01   1.2208786e-02   8.1268997e-01   8.8532028e-01  -4.9236299e-01  -3.7902703e-01  -8.6843574e-02   7.5635636e-01  -9.3747618e-01   1.2507100e-01  -1.3191139e-01  -6.7551611e-01   8.0290670e-01   8.1517593e-01   7.2301632e-01  -5.8352233e-01  -9.9392026e-01   3.8552889e-01   8.4550447e-01  -6.9151864e-01  -4.5295664e-02   1.0456466e-01   3.4015035e-01  -3.6253488e-01  -3.6875999e-01  -8.1920841e-01  -9.1958613e-01   8.5496912e-01  -1.0015642e-01  -1.2924602e-02   3.0893247e-01   9.0596037e-01   4.4955277e-02  -3.4528644e-01  -9.1392097e-01  -9.2268418e-01  -4.0205423e-01  -1.3087851e-01   6.3395051e-03   5.8629384e-01  -5.0376419e-01  -4.7393896e-02  -4.0681147e-01  -9.8641379e-01   2.0299789e-01   1.1677201e-01   5.1323640e-01  -5.6013180e-01   9.0316527e-01   4.1773152e-01  -9.0715899e-01  -3.0772896e-01   5.1359269e-01  -1.8086587e-01   1.2878318e-01   5.0863505e-01   3.6533889e-01   1.5323651e-01  -2.4827918e-01   6.3844424e-01  -8.7782834e-01  -2.2428471e-01  -4.0627788e-01  -7.7315178e-01  -2.7041463e-01  -6.7901874e-04   2.2118051e-01  -4.6417392e-01  -4.3608782e-01  -6.5597401e-01   3.4953308e-01   2.9145591e-01   8.5338172e-01   2.9470839e-01   9.9416051e-01   4.4323217e-01   8.9686963e-01  -6.7989386e-01  -9.2563066e-01  -4.4702813e-01   3.7286076e-01   8.7425349e-01  -4.3059083e-01   2.2317465e-01  -8.4339101e-01   3.7426100e-01  -8.9190992e-01  -2.9047481e-01   9.0114507e-01  -3.3327057e-01   3.5660629e-01  -1.7515906e-01  -8.4619085e-01  -8.9205938e-02   8.0137382e-01  -1.3507720e-01   6.4593175e-01  -6.4633550e-01   8.5692651e-01  -9.5340527e-01   9.2643141e-01   9.7681393e-01  -6.2271995e-01  -2.5289356e-01   1.6132599e-01   8.6556561e-01   2.7405201e-01   8.2863339e-01   9.4884522e-01  -8.5954953e-01   7.0397133e-01   5.2863408e-01   4.4600659e-01   7.3495593e-01   5.4026360e-01  -1.5017824e-01   3.7867424e-01  -8.5648028e-01  -9.0860950e-01   8.7441907e-01   5.0308759e-01  -6.2590069e-01   7.4663064e-01   7.7524513e-01  -4.4637592e-02  -6.9448746e-01  -6.0281624e-01  -4.0627002e-01  -6.9719849e-01  -2.5891500e-01  -9.0484231e-01  -1.1478768e-01  -1.1161410e-01  -4.0746617e-01   5.3004637e-02   4.7912856e-01   9.3712047e-01  -2.0052516e-02  -3.9060765e-01  -1.8963227e-01  -4.8957186e-01   4.6414326e-01  -5.5841506e-02  -6.2730713e-01  -6.2875053e-01  -9.5702911e-01  -4.1359854e-02  -9.0679533e-01  -2.9853621e-01   7.7263035e-01  -7.2369278e-01  -3.4150569e-01  -8.4679842e-02   5.1522997e-01   1.4483635e-01   7.8104920e-01   2.8251358e-01  -5.6029660e-02   2.9686655e-01   3.4445746e-01   7.1809790e-01   5.0931006e-01   7.3007334e-01  -6.0935059e-01  -8.6422818e-01   8.4163621e-01  -9.4516141e-01  -9.3717030e-02   9.4727236e-01  -9.6276817e-01  -6.2262939e-01  -2.0842237e-01   1.9093203e-01   4.0424436e-01  -4.1999052e-02   6.8933597e-01   9.4827493e-01   3.1764877e-01   3.2889379e-01   2.6156309e-01   1.6411810e-02  -4.3776411e-01   7.8299114e-01  -7.2974738e-01  -2.0526218e-01   9.8641600e-01   1.9905766e-01   8.2735947e-01   2.5947441e-01   3.2077358e-01  -9.8850226e-01   2.3521495e-01  -4.5056500e-01  -5.5298073e-01   7.9394492e-01  -5.9794135e-02  -7.4980970e-01  -8.3529503e-01   9.4644766e-01  -1.3341695e-01  -5.0568698e-01  -7.3814030e-01  -3.0573802e-01   8.5465216e-01  -1.2300308e-01   5.6333327e-01   9.2829142e-01  -6.5654753e-01   2.5836382e-01  -6.5498726e-01  -9.0272343e-01  -9.5055363e-01   2.8357827e-01  -3.6627552e-01   7.8679736e-01   8.0898966e-01  -3.5798498e-01   4.1398886e-01  -5.9444683e-01  -6.9852294e-01  -1.7295157e-01  -4.6876029e-01  -8.4802682e-01  -4.0599128e-01   1.4949390e-01  -2.1723109e-01   7.3202965e-01   7.8162024e-01  -9.9675556e-01   9.2930996e-01  -5.2069266e-01  -5.2940166e-01  -4.1177705e-01   8.8537330e-01  -4.3201910e-01   2.8801092e-01   2.7704199e-01   5.1381433e-01   3.8345920e-01  -3.7285845e-01   4.1888621e-01  -4.4876191e-01   7.6638614e-01  -7.5632595e-01   4.4235113e-01  -8.0536459e-01  -5.5869030e-02  -7.5851533e-01   4.9457795e-01  -7.4649277e-01  -8.0526888e-01   7.7748760e-01   5.6421194e-01   4.4875624e-01  -1.6011065e-01  -7.6232274e-02   4.2112108e-01  -9.3202137e-03  -1.6098089e-01   9.7866900e-02  -2.9384385e-01  -7.2194620e-01  -6.9128088e-01  -3.9582063e-01  -8.1925503e-01   3.9150460e-01   8.5427199e-03   3.1520633e-01   7.5414069e-01   9.0328723e-01   2.3024226e-01   4.7305511e-02  -4.1631640e-01  -4.8861022e-01  -6.9973071e-01   5.4550527e-02  -4.6637639e-01   4.4167979e-01   1.1514717e-01   5.2225978e-01  -4.5604596e-01   8.2099785e-01  -3.4495561e-01   7.6034571e-01  -8.1585208e-01  -1.6491067e-02  -8.4190645e-01   3.5693299e-01   8.8662037e-02   8.7959780e-01  -3.6364058e-02  -5.3279514e-01  -9.0782947e-01  -8.4312235e-01   6.5330565e-01  -8.3796957e-01   1.4903275e-01   1.1490804e-02   1.7926095e-01   9.7368747e-01  -1.9199177e-01  -4.8146339e-01   3.2292671e-01  -2.9429460e-01  -8.2641423e-01   7.4504220e-02   4.4550342e-01  -7.3916095e-01   2.1954191e-01  -4.1425833e-01   1.7605468e-02  -4.8561793e-01   8.1767580e-01   7.1586689e-03   9.6956940e-01   4.0556371e-01   6.1383812e-02  -9.5311825e-01  -5.7998600e-01  -4.8564839e-01  -9.6857724e-01   5.0347804e-01   1.5684746e-01   6.1817181e-01  -1.1750401e-02   9.9207065e-01   7.9461360e-02   9.7318588e-01   3.8801348e-01   9.4867497e-01   2.8060565e-01  -5.6599242e-01  -6.9988107e-01  -3.6478220e-01  -5.3772274e-01   3.3254312e-01   9.3272714e-02  -7.0979605e-01   8.2300564e-01  -5.8091070e-01   4.4632185e-01   9.4054888e-01   4.9519369e-01  -1.2405357e-01   8.4495957e-02   5.6458194e-02  -5.5438550e-01  -5.3535495e-01   9.1927109e-01   7.7297690e-01   5.4587940e-01  -8.2647071e-01  -3.9432941e-01   3.5637498e-01   1.8404907e-01   4.5893221e-01   1.3774910e-01   7.4127405e-01  -9.1063868e-01   2.6372624e-01   6.1291755e-01  -4.7669257e-01  -2.6699623e-01   2.9294696e-01  -9.3918415e-01  -1.2988068e-01   1.1785295e-01   4.4187785e-01   7.9839797e-01  -4.5445946e-01   7.0532503e-01  -9.8072074e-02   1.8086935e-01  -9.9286037e-01  -3.4326867e-01  -6.8564392e-01  -9.3804616e-01  -8.7285883e-01  -5.7148112e-01   8.0808828e-01   6.1055541e-01   8.7912068e-01   6.2490355e-01  -5.3326806e-01  -8.0159076e-01  -8.5283574e-02  -1.0531421e-01   2.1180822e-02   4.4612613e-01   9.4803401e-02  -6.5126958e-01   6.5888598e-01  -1.5491516e-01   6.9638505e-02  -2.2835282e-01   8.1441320e-01   4.4141157e-01  -1.2865560e-01  -7.2017475e-01  -5.1022553e-01  -6.9369056e-01   2.5450597e-01  -6.3011714e-01   4.1587391e-01  -3.5071396e-02  -3.2152395e-01  -3.1378190e-01  -7.1452676e-01   1.3724907e-01  -9.9302254e-01   9.8725377e-01   9.9061891e-02   4.9300588e-02   9.6551615e-02   5.1351587e-01  -4.8669076e-01  -9.1458979e-01  -7.2973656e-02  -2.2261200e-01  -9.7984912e-01   5.6311511e-01  -4.5677023e-01   6.6445020e-03  -7.0707042e-01   2.1630384e-01  -4.0786814e-01  -4.7218987e-01   1.1940170e-03  -2.5295893e-02   4.5062581e-01  -6.4672677e-01   1.7766893e-01  -5.1441120e-01   4.6812022e-01   4.3447734e-01   4.1945035e-01   4.0402832e-01  -9.3922367e-01   9.1393136e-01   1.2746362e-01   4.9200068e-01  -3.8408735e-01   6.8468980e-01   8.5365366e-02  -7.1047480e-01  -5.2264914e-03  -7.5006533e-01   7.4450624e-01   6.8199753e-01  -7.3065132e-01   2.6260128e-01  -9.4430023e-01   2.3647009e-02  -8.0622755e-01   5.5757504e-01   6.2079511e-01  -8.8614292e-02  -8.3022855e-01   1.3227977e-01   4.3185013e-01  -3.5787349e-01   2.0401754e-01  -5.9678366e-01   9.1409116e-01  -9.7508814e-01  -4.0509399e-01   6.9692416e-01  -3.0977258e-01  -2.4051222e-01   7.1222802e-01   1.5812846e-01  -6.4348106e-01  -8.7139553e-01  -5.1732557e-01   9.0797673e-01   2.3769010e-01   6.2976509e-01  -8.8180039e-01   5.2512579e-01   2.5616852e-01   7.0013281e-01   3.0515353e-01   2.3462047e-01  -8.4208383e-01   9.1115555e-01   4.1795034e-02   4.1326277e-01  -5.9041235e-01  -3.9815488e-01   2.0572070e-01  -6.0625253e-01   6.3831126e-01  -4.6410926e-01   2.8422546e-01   5.8403495e-01  -2.3683220e-01   3.4167342e-01  -6.8957975e-01  -4.5129451e-01   7.8221619e-02   1.1473518e-01  -1.4952277e-01   9.2992102e-01   5.8081254e-01  -8.8120939e-01  -4.8475968e-01   2.7641529e-01   3.6984063e-01   3.1873429e-01  -4.5163561e-01  -3.4150942e-01  -2.9655506e-01  -4.9563106e-01  -8.6569878e-01  -3.0927308e-01  -3.3042341e-01   1.9690438e-01  -7.3258682e-01   9.8460191e-02  -2.9605629e-01  -3.3682346e-01   8.3911384e-01   8.3711774e-01   9.6753131e-01  -8.7754432e-01  -5.9106061e-02  -5.8038251e-01   5.3650688e-02   1.9854500e-01   6.2092675e-01   9.0220831e-01   7.6006149e-01  -7.2994451e-01  -3.0790960e-01  -8.8917160e-01   8.7602249e-01   6.0567812e-01  -8.9196176e-01   6.9947519e-02   7.8567002e-01  -2.1361567e-01  -6.5176604e-01   7.8162030e-01   5.5450628e-01   7.1301104e-01  -4.2730625e-01   2.0782397e-01  -9.0427423e-01  -3.2473040e-01  -5.6755164e-01  -5.4887477e-01   6.2726311e-01  -5.7866294e-01   9.9484768e-01   5.6641711e-01   8.9218206e-01   6.4632441e-01  -1.8372362e-01  -1.5403881e-02  -5.0254475e-01   7.7163202e-01  -4.3181307e-01  -8.7709857e-01  -2.8907373e-01  -2.9925086e-02  -2.3810766e-02  -6.1975512e-01   4.2390217e-01  -8.9618149e-01   1.7241239e-01   8.9020718e-01   5.2266804e-01   6.0303015e-01  -1.8717921e-01   3.1256011e-01   3.3601893e-01  -2.1748293e-01   5.3590897e-02   8.3210267e-01  -3.1226096e-01  -8.0809213e-01  -2.6068812e-01  -9.9055802e-01  -1.7227931e-01  -2.7331644e-01  -7.9222320e-01   4.1401086e-01   4.3130949e-01  -4.6522249e-01   7.0171583e-01  -8.8240855e-01   1.0393185e-01  -5.1694564e-01   8.8516234e-01   5.8057238e-02   8.9877911e-01   4.2621088e-01   3.6947975e-01   3.9077299e-01  -3.6786870e-01   2.8728086e-01  -8.2857001e-01   3.9710874e-01   9.4523024e-01   2.8038871e-01  -9.4962811e-01   8.7140349e-01  -1.3420771e-01   2.4849292e-01  -6.0136399e-01   2.0503972e-01  -1.1371830e-01   1.5161248e-01   5.0484066e-01  -8.0011144e-01  -4.5072888e-01   7.6384507e-01   4.7154367e-01   4.4753320e-01  -9.3336225e-01  -5.4334210e-01  -3.3118911e-01   9.2969069e-01   9.5366212e-01   8.8535924e-01  -7.9386445e-04  -7.1144864e-01   5.0683270e-01  -6.9327316e-01  -4.6866103e-01  -1.3094415e-01   2.3808900e-01  -7.2891355e-03  -3.8002472e-01   4.7489968e-01  -9.0090213e-01  -7.6214899e-02   9.7798551e-01   2.2694317e-01   9.0312681e-01  -1.1153278e-01  -2.8610456e-01   7.4922403e-01   3.0916832e-02  -3.3678101e-01   1.5344968e-01   7.5418393e-01  -8.4600564e-02  -2.2773441e-02  -2.5848272e-01   8.0178772e-01   1.6957853e-01   5.5032745e-01   8.5767153e-01   2.7615049e-01  -2.5576359e-01  -1.8901735e-02   2.3237778e-01  -3.6740425e-01   7.3821616e-01  -8.8035480e-01  -1.7819372e-01  -9.9977599e-01  -5.7159422e-01  -9.4783481e-01   1.5657756e-01   8.8998230e-01   6.9474775e-02   5.9424311e-01   3.5323275e-01  -1.5312583e-01   3.8179368e-01  -2.5525390e-01   4.0932128e-01  -3.4742754e-01   2.7827752e-01   3.8230115e-01   8.5330353e-01  -4.8234375e-01   5.2789927e-01  -1.1250509e-01   3.8252777e-01   6.7019826e-01   9.3981159e-01  -8.6352769e-01   4.5946817e-01   3.5823009e-01   6.5621484e-01   2.8959620e-01  -3.5588988e-01   2.2295205e-01  -6.3927708e-01   8.1511438e-01  -9.3187803e-01
   2.7870678e-01  -5.2390144e-01  -7.4177859e-01  -5.0710804e-02   1.5658904e-01  -5.4135881e-01  -1.5649679e-01   5.6192556e-01   3.2023970e-01  -9.0068229e-01   6.6743529e-01   7.6775788e-01   1.2629281e-02   3.5033586e-01  -1.0850410e-01  -7.7595070e-01   3.2144211e-01   4.7445644e-01  -8.0243781e-01   7.7614424e-02   5.2003371e-01   3.5482028e-01  -3.5404126e-01   4.7393125e-01   5.7792003e-01   1.2468195e-01  -1.3808937e-01   7.2469058e-01  -8.6113601e-01   7.9703030e-01  -8.7488242e-01   4.1502944e-01  -2.4909266e-01  -6.9915220e-01  -5.2161046e-01  -9.6561247e-01   3.5502583e-01  -5.5380501e-01  -3.6868132e-01   7.2561854e-01  -9.9032025e-01  -9.9275225e-02   8.3850928e-01  -4.9845390e-01  -5.9803390e-01   8.4200475e-03  -1.1653152e-01   8.2643999e-01   6.1909125e-01   8.5610756e-03   1.8800877e-01  -7.7092656e-01  -1.5614283e-01   7.3053666e-01  -2.7267715e-01  -1.9503081e-01   3.8497305e-01   7.2009083e-01  -7.5416127e-01  -1.1836861e-01   2.0958137e-01  -8.5953844e-01  -5.2339327e-01  -2.1822752e-01  -5.3359302e-01   7.5519237e-01  -3.0232529e-01  -9.5960692e-02  -6.5644615e-01   6.0575158e-01   7.9617243e-02  -8.5419495e-01   3.5520527e-01   6.8531320e-01   3.4937282e-01  -5.1015309e-01  -7.0469288e-01   7.6782778e-01   5.8633038e-02   1.1355338e-01   4.0246487e-01   2.5821917e-01   3.7717578e-01   9.1417154e-01   1.8657392e-02  -3.3619489e-01   8.0331259e-01   7.6805346e-01   4.9955270e-02  -2.5894226e-01   7.1184407e-01  -8.5402878e-01   7.9920187e-01   1.9986775e-01   5.9064509e-01   5.7562787e-01   7.6286665e-01  -3.2248525e-01   4.2130615e-01  -5.1021842e-01  -8.9283511e-01   9.9326441e-01  -8.4657836e-01  -7.0006246e-01  -8.9163127e-01   6.5003471e-01  -1.0443959e-01   4.7632602e-02   5.0291753e-01  -4.6625714e-01   8.3192514e-01  -5.3784103e-01   2.7931702e-01   6.1432223e-01  -8.2365523e-01   4.6765701e-01   6.1298789e-01   6.7545209e-01   7.5538274e-02  -3.9166425e-01  -6.6249754e-01   4.6434475e-01   8.7598108e-01   3.2292440e-02  -9.7673692e-01   1.9541797e-01   2.3204592e-01  -5.6651478e-01   9.0047088e-01   1.5754711e-01   5.3413810e-01  -8.3543073e-01   2.9271325e-01  -9.0906998e-01   8.5288140e-01  -5.0419273e-01   7.2976087e-01  -7.3793463e-01  -6.8182314e-01   1.1484802e-01  -6.6591541e-02  -5.0266334e-03   2.4120214e-02   5.1451139e-02  -1.6288287e-01  -4.0412473e-02   9.4890594e-01  -9.8461184e-01   3.8991533e-01  -2.3309059e-01  -8.2971481e-01  -2.5523265e-01   7.1932397e-01  -9.7460808e-01   6.7085056e-01   6.0474013e-01  -9.8524361e-01   4.9547117e-01  -6.6540960e-01   3.6330819e-01   4.6789880e-01   9.1689709e-01  -6.8305858e-02   1.0191968e-01   1.3496756e-01  -9.8808749e-01   4.9056814e-01  -7.9038155e-01  -4.3373135e-01  -2.6606213e-01  -1.6862323e-01   3.5793469e-01  -3.2674753e-01   7.8394138e-01   7.2307748e-01  -6.8469045e-01   3.6103859e-01   3.7263885e-01   9.5669034e-01   8.3217804e-01   8.7275391e-01  -6.8812677e-01  -2.8041774e-01   9.3501615e-01  -7.4324311e-01   1.9895898e-01  -6.3198223e-01  -4.3809697e-01   9.5212173e-01   3.5798357e-01   5.6486240e-01  -7.5846739e-01   8.2221364e-01   7.0059089e-01   2.3109314e-01   8.1498897e-01   9.1933577e-01   8.0163241e-01   7.0219733e-01   6.5869666e-01   9.0663977e-01  -8.5514172e-02  -1.8662217e-01  -5.8813466e-01  -9.0221755e-01  -6.3635172e-01  -3.1495368e-01   8.0460498e-02   7.5077250e-01  -6.8418335e-02   3.4239182e-01  -9.2586108e-01  -6.4959991e-01   5.4792665e-01   3.5341474e-01  -4.6075210e-01   6.3173661e-01  -9.7355597e-01  -4.3192811e-01  -8.5672343e-01  -7.4705021e-01  -9.1873948e-01   7.6322468e-02  -9.0363098e-01  -9.5360750e-02  -2.5210632e-01  -1.2582953e-01   9.1173298e-01   7.5615323e-01  -7.8128563e-01  -6.3224444e-01   2.8667788e-01  -9.9264501e-01  -2.6945249e-01  -2.8433404e-01  -4.1139354e-01  -2.6745587e-01   6.2320952e-01   8.0366030e-01  -7.9172917e-01   3.2887625e-01   7.1495218e-01   3.3949323e-02   9.2487871e-01   8.7146816e-01  -2.0831550e-01   7.8155118e-01   1.9368346e-01   1.4758129e-02  -3.0744725e-01   9.5824137e-01  -7.6516007e-01  -3.9607144e-01   3.9633490e-01  -3.1543587e-01   4.0094253e-01  -1.6366532e-01   7.0992630e-01   8.9844747e-01   9.8382575e-01   2.2486481e-01   2.8699543e-02  -1.4491917e-01   5.7433202e-01  -4.1063252e-01  -9.8938580e-01   5.1560348e-01  -6.0863391e-01  -4.6318892e-01   3.8838362e-01   2.6450916e-01   9.5740603e-01   7.6306336e-01  -6.6564789e-01  -2.3481193e-01   2.0000514e-01   8.9036955e-01   2.1335223e-01   5.4953358e-01   7.9435586e-01   7.0480651e-01  -5.1960581e-01   5.8342812e-01  -9.2042559e-01  -2.3169393e-01   1.9109163e-03   2.1567791e-01   3.0956041e-01   8.5912802e-01   6.2898440e-01  -9.1706226e-01  -6.5199212e-01  -6.1945250e-01  -1.9844460e-03  -3.1943378e-01   7.5735952e-01  -8.2916621e-01   7.8575261e-01  -6.1452012e-02  -1.3811090e-01  -9.4749419e-01  -5.1965253e-01  -5.2764787e-01   8.5220873e-01  -5.2961695e-01  -6.8516667e-01   4.2549129e-01   1.6762245e-01   4.4971589e-01   1.9767459e-01  -1.3845844e-01   2.9952063e-01  -8.2084822e-01   7.9443736e-01  -3.4501777e-01  -2.1683874e-01  -3.3472033e-03   4.5209689e-02   7.2759906e-01  -3.4870453e-01  -2.7682126e-01  -5.1181273e-01  -2.9517529e-01  -2.1530168e-01   6.3620475e-01  -5.2913416e-01   6.6842008e-01  -3.6186242e-01  -1.9488499e-01   9.8687362e-01   8.9318423e-01   6.5076652e-01  -9.9160258e-01   8.8377007e-01   7.0421961e-01   9.8339426e-01  -1.2688717e-01  -9.4732282e-01   4.7767261e-01   7.9232703e-02   3.9014698e-01  -3.2378269e-01  -1.6942707e-01  -8.8227228e-01  -8.8659888e-01   4.4281015e-01   7.1277425e-01   9.5829676e-01   6.0729930e-01   4.3367609e-01   3.2840043e-01  -3.9025587e-01   2.7067226e-01   8.7236293e-01   1.7309404e-01  -7.1175316e-01  -5.2794356e-01   1.2613736e-01   6.8514158e-02  -4.6091186e-01  -1.0528936e-01  -1.6496406e-01   7.9116798e-01  -1.3466516e-01  -4.5351278e-01   9.2157660e-01  -7.7760076e-01   1.7782812e-01  -9.9990238e-01   4.2456458e-03  -8.6988029e-01   5.3815353e-01   9.8202668e-01  -5.8720222e-01   7.8733942e-01   9.2242165e-01  -6.1851316e-01  -9.7390628e-01  -4.1894096e-01  -4.7861770e-01   5.5341533e-01   2.4918927e-01   9.0848200e-01   6.0184040e-01   4.5145503e-01   7.8783260e-01  -4.2749391e-01  -9.9102425e-01  -4.6611498e-01  -2.7421944e-01   3.3062490e-01  -6.0232880e-01   6.2747717e-01   3.3959149e-01   7.2829090e-01  -1.0284330e-02   8.6253554e-01  -9.7005965e-01   7.0616969e-01  -7.8706786e-01   8.7171287e-01   9.5384499e-01   4.3505033e-01   2.9899520e-01   7.5607094e-01   7.1084904e-01  -9.1728969e-02   1.3705126e-01  -9.2832739e-01   2.1041704e-01  -2.6295658e-01   5.4949749e-02   7.9880471e-01   2.7473616e-02  -3.9743555e-01   1.2068758e-01   2.5157170e-01  -5.0392321e-01   9.1725744e-01  -7.7438719e-01  -8.6955766e-01  -9.9514834e-01   1.4477074e-01   4.6867901e-01   4.4068700e-01  -4.0777405e-01   4.3814130e-01  -8.2598108e-01  -9.4689681e-01   4.1235769e-01   8.9201252e-01  -7.4356586e-01  -9.5023007e-01   1.5844584e-01  -5.1904499e-01  -3.5690721e-01  -9.0014146e-01  -1.9616116e-01   7.8826283e-01   8.7258083e-01  -1.9070302e-01   1.8542982e-01   6.8054115e-01  -2.0498680e-02  -9.8389367e-01  -5.0868570e-01   8.4343964e-01  -1.9301277e-01  -1.9179946e-01  -5.3523252e-01   2.5298234e-02  -6.3233356e-01   3.4448816e-01   3.1177044e-01   8.5374737e-01   9.9381656e-01  -8.1543930e-02   1.8685348e-01   6.7334802e-01  -3.3371238e-01  -8.2605434e-01  -9.9438907e-01  -9.3984405e-01  -3.0720592e-01   3.4200200e-01   7.8669981e-01   4.4192220e-01  -8.1501893e-01  -2.0409702e-01  -3.9661269e-01   2.1053164e-01  -2.9207241e-01  -9.2044700e-01  -7.6877533e-01   3.3187639e-02   8.4805823e-01   2.6655683e-01  -6.2346005e-01   2.1161484e-02  -9.7557322e-01   9.0808053e-01  -2.7217183e-02   8.2199380e-01  -6.5958386e-01   7.5134296e-01  -6.5654199e-01  -9.1356254e-01  -2.7036217e-01   2.9349506e-01  -1.8675098e-01  -4.4311067e-01   3.1939590e-01  -8.5640018e-01  -4.3181610e-01   4.3570350e-01   3.3333497e-02   7.0256962e-01   9.0245679e-01  -1.9907518e-01   3.5466533e-01   5.0721635e-01   7.6223143e-01   4.8519773e-01  -2.1070846e-01  -1.6783341e-01  -1.5953182e-01  -3.8486567e-01   3.4551211e-02   2.4123025e-02  -5.8816784e-01   3.3070979e-01  -3.8957747e-02  -5.1647690e-01   8.4754674e-01   9.6283633e-01  -1.1130276e-02   4.1703467e-01  -2.4473268e-01  -1.2719999e-01   5.8169259e-01   2.8595317e-01  -1.6940459e-01  -4.0056201e-01   6.8756878e-01   2.6854998e-01   8.4765813e-01   1.7400695e-01  -3.9457213e-01  -3.5829055e-01   2.1930590e-01  -8.6012796e-01   4.1009266e-01   7.1409652e-04   6.7194079e-01  -2.4997163e-02  -6.5047054e-01  -8.4157148e-01  -4.0744978e-01  -2.6309179e-01   1.4336346e-03   1.5995112e-01   7.3757697e-01  -1.7203118e-01   5.2313764e-01  -6.1309049e-01   9.0660958e-01   2.4761225e-01   2.1289415e-01   3.3840453e-01   4.5820038e-01   2.3864136e-01   4.0708444e-01  -3.4401346e-01  -2.8753248e-01  -3.3668152e-01   3.7672794e-01  -4.5128691e-01  -1.8264737e-01   9.6796624e-01   5.6787547e-01  -5.5006810e-01   6.4901187e-02   1.5716393e-01  -9.4310198e-01   5.5872116e-01   5.0682810e-01  -1.9422658e-01   5.0957824e-01   3.0445742e-01   4.4201240e-01  -3.7567265e-01   9.1364910e-01   1.6997952e-01   6.1016373e-01   9.6115334e-01   5.0364570e-01   3.7973839e-01  -8.5717845e-01   7.9305558e-01  -6.8723997e-01  -1.2572619e-01   8.0195117e-01  -5.2215522e-01  -7.6525163e-01   9.5729542e-01   5.0026010e-02   4.8375901e-01   6.0958211e-01   2.7853855e-01   2.1510323e-01   2.8318230e-01  -7.2319222e-02  -2.7228357e-02  -1.1808389e-01   5.5886122e-01   4.4694758e-01   3.3695988e-01  -1.9629667e-01   9.6892430e-01   4.9379651e-02  -2.7718644e-01  -2.0174548e-01   6.2233782e-01   4.3218562e-01  -8.4461693e-01   8.4254857e-01  -2.1740285e-01   2.7032874e-01  -9.6009195e-01   5.4845006e-01   2.8017984e-01   7.0131901e-01   6.8193206e-01   4.8085494e-02   3.9540544e-01  -7.8750058e-01  -4.2461215e-01   1.6973575e-01  -9.4150298e-01   6.1963610e-01   5.7924323e-01   4.4270433e-01   7.7514749e-01  -4.0202401e-01  -8.5615816e-01   5.5485562e-01   7.6282093e-01  -9.0271201e-01   2.0878874e-01  -4.8669578e-01   7.8647705e-01   2.0374199e-01   4.6112784e-01  -9.7761827e-01  -6.6013158e-01   8.1124020e-01   9.8629273e-01   8.1921837e-01   4.0775210e-01   6.4840608e-01   4.2008164e-01   3.2655154e-01   4.0772039e-01   5.3790600e-01  -7.4530962e-01   7.2670494e-01   1.4028543e-01   6.6581494e-01   1.3937216e-01  -3.0401574e-01  -5.8330760e-01   3.5113489e-01  -6.1418048e-01   6.5230998e-01   4.2387068e-01   5.7690767e-01  -4.4169369e-01  -9.6697740e-01  -3.2690638e-01  -8.9101930e-01   5.0056104e-01   4.6139904e-01  -9.5301718e-01   3.0958794e-01  -8.2032472e-01  -3.4531996e-01   8.9437191e-01   2.8214103e-01   4.2746951e-01  -5.0829892e-01  -4.1638199e-01   9.6623134e-01   4.9543427e-01  -8.8617879e-01   6.9435399e-01  -3.5599336e-01   8.0360369e-01   5.2653203e-01  -3.7603434e-01  -6.0688596e-01  -7.2960086e-03   4.9844186e-01   3.4316173e-01  -4.1408487e-01  -5.4204946e-01  -9.6139936e-01  -7.5563064e-01  -6.1817203e-01   3.0832367e-01  -8.2869367e-01  -8.9807598e-01  -1.9982388e-01   4.3854235e-01  -1.8940636e-01   2.3225620e-01  -9.4098130e-02  -9.3212506e-02   3.3410150e-01  -9.5563845e-01  -1.6527588e-01   1.0795406e-01   7.4760099e-01   6.7255260e-02   2.3726166e-01   9.8085965e-01   2.2465852e-01   9.9856443e-01   9.9534194e-01  -4.0239214e-02   1.6202314e-02   7.0873841e-01   4.9350600e-01  -9.4774070e-02  -9.1216352e-01  -6.0971009e-01  -5.6695228e-01   4.3128404e-01  -9.2770541e-01  -2.8200917e-01  -6.7705207e-01   8.8122565e-01   7.8078865e-02  -9.0936949e-01  -2.0139847e-01   9.5124495e-01  -1.7288712e-02  -5.9075453e-01   3.0010911e-01  -2.1846243e-01  -2.4125797e-01   4.2719695e-01  -8.9527338e-01  -9.0917383e-01   6.0750130e-01   4.7123119e-01   4.4798644e-01   1.2882879e-01   1.1019501e-01   1.6006728e-01   7.7829387e-01  -8.9257331e-01  -9.0976623e-01  -4.7988632e-01   5.8966910e-01  -7.2052256e-01  -7.7217845e-01   7.4597451e-01  -6.9293484e-01  -5.2529414e-01   4.7516551e-01   4.9492119e-01   3.9515928e-01   3.4663096e-01   2.6398286e-01  -9.0904292e-01  -6.2493978e-01   9.8195613e-01  -8.0688953e-01   6.5120805e-01   2.6879545e-02  -1.7069030e-01   4.6641991e-01  -5.3441172e-01   8.1284022e-01  -9.5579806e-01   3.2582027e-01  -6.0634165e-01  -2.5718798e-01   7.0436988e-01  -2.7368427e-01   7.3837424e-01   9.3206638e-01  -7.8892744e-01   5.2385712e-01   6.9952491e-01  -2.6770204e-01  -3.0381859e-01   1.2991054e-01  -2.4098897e-01   4.0561173e-01   6.7314893e-01   1.6684494e-01   2.1623196e-01   4.4081067e-01  -4.0967137e-01  -2.3653352e-01  -6.9396211e-03  -9.4562067e-01   7.3183209e-01   4.1271418e-01  -7.7855895e-01   1.1233523e-01  -4.9099277e-01  -3.1860786e-02   4.6218968e-01  -1.1928186e-01   4.9196021e-01  -7.8457062e-01  -3.4312638e-01  -6.6726657e-01   7.9549528e-01   2.3990256e-01  -7.4093118e-02   5.7577188e-01  -2.2426663e-02  -3.8135603e-01  -3.5533376e-01  -5.3523169e-01   9.1461881e-01   7.9714359e-01   9.0377834e-01   1.3699882e-01  -8.3794957e-01   8.3868745e-01  -1.7980728e-01  -2.3774328e-01  -3.5758666e-01   7.8397568e-01  -5.3882525e-01   5.7397230e-01   7.3730214e-01  -4.1299814e-01   8.3008588e-02  -8.6224024e-01  -4.1012145e-01  -4.3904618e-01   8.4958137e-01   5.0025234e-01   4.0487362e-01  -6.8764841e-01   7.6907081e-01   9.2585378e-01  -7.9960039e-02   9.4983729e-01  -4.2509840e-01  -5.1305051e-01   2.1183268e-01   8.4743983e-01  -9.2005341e-03  -5.6145134e-01  -7.4712689e-01   3.0639987e-01   6.9338772e-01  -4.9026288e-01   6.1007287e-01  -9.9160632e-01   7.0469841e-01   6.1628976e-01   6.1731570e-01  -6.8370697e-02  -2.9342199e-01  -6.7090619e-01   8.8059834e-01   9.1621754e-01  -8.5142002e-01   1.7503454e-01   5.8273513e-01   7.8466505e-01   3.1694105e-01   7.3770696e-01   6.9306863e-01  -8.6047549e-01   2.4613529e-01  -1.0637625e-01  -7.5504895e-01   2.1591716e-01   7.4573324e-01   6.6911965e-01  -3.4267613e-01   1.5464028e-01   7.2995706e-01   6.6931164e-02  -6.7182690e-01  -4.8709699e-01   1.8669217e-01   9.4396138e-01  -6.4469101e-01  -2.7125988e-02   8.2072140e-01   6.1423181e-01  -8.5265581e-02   4.0714896e-01   3.2322466e-01  -1.6816123e-01  -8.2907315e-01   2.5596128e-01  -2.0805018e-02  -1.4598025e-01   3.9385152e-01  -3.7196764e-01  -7.3700778e-01   5.9609023e-01  -4.3673153e-01   7.2634101e-01   9.8781443e-01   3.1831379e-01  -1.5281400e-01   4.7034222e-02  -5.5954289e-01   1.6721441e-01   9.8414240e-01  -8.2839992e-01   1.7447205e-01   7.0718808e-01   2.0007986e-01   6.3391244e-01  -3.0851814e-01  -2.8508413e-01   1.3404633e-01  -5.9475649e-01  -3.1970796e-01  -8.3061452e-02   3.9786073e-02   2.8231300e-01   2.9972429e-01  -3.2668064e-01  -4.0972377e-01  -2.5689763e-01  -9.0754413e-01  -5.7973114e-01  -1.8749313e-01   4.8639853e-01  -1.3178756e-01   6.9184618e-01   4.3116616e-01   6.9686978e-01  -2.1777935e-02  -5.7029168e-01   4.6394036e-01  -5.6432802e-01  -9.4547953e-01   1.4879465e-01  -2.9139604e-01  -2.6498995e-01   5.3348844e-01   1.8553044e-01   8.0376335e-01   7.2573899e-01  -1.7913320e-01   1.5908852e-01   8.2803974e-01  -3.7113022e-01   1.3642853e-01  -5.3599052e-01  -2.2276514e-01   9.3883289e-01  -5.6928867e-01   4.5763478e-01  -7.0868668e-02  -3.4642817e-01   3.9341732e-01   3.3198075e-01   1.0608164e-01  -9.8357137e-01   2.0560450e-01   7.3582070e-01  -4.5727056e-01  -2.4191808e-01   5.6674625e-02   5.4290082e-01   9.5283656e-01   6.9677424e-01   5.5557492e-01  -2.8805635e-01  -9.9587208e-01   1.9945877e-01   1.5846188e-01   8.6120277e-01   1.7601718e-01   7.5013922e-01  -9.8958425e-01  -5.2015167e-01  -2.8345912e-01   8.2008049e-03   7.5014868e-01   2.6501309e-01   9.3116025e-01  -2.9550437e-01   9.6173953e-02  -3.2761813e-01   6.3245170e-01  -7.4845770e-01   2.9268545e-01   6.9224940e-01  -4.6446202e-02   7.1216898e-01   3.2698471e-01   3.2114712e-01  -8.6734808e-02   3.8705734e-01   3.3273829e-01   4.6114602e-01   4.4609428e-01   5.3181543e-01  -2.4040787e-01  -2.7767233e-01   9.2907905e-02   2.8709281e-01   2.2599665e-01  -2.6933863e-01
  -3.2162268e-01   2.8486043e-01   6.3312716e-01   1.3840622e-01  -9.9404549e-01   1.9983874e-01   1.2217238e-01  -9.2468000e-01  -7.6994094e-01  -2.6279641e-01  -5.2310054e-01  -5.6038943e-01   7.3531361e-01   6.6664341e-01  -1.3586279e-01  -8.9482640e-01   2.5719108e-01   9.0168697e-01   2.9688561e-01   6.1413787e-01  -7.7621714e-01   4.4420015e-01  -5.5919856e-01  -8.9624938e-02   7.0832212e-01   5.2865750e-01   3.7822152e-01  -8.3204783e-01  -5.8883646e-01  -7.9649408e-01  -4.4652062e-02   1.2655287e-02  -3.2982813e-01  -4.2335184e-01   9.8275074e-01  -8.5998724e-02   1.9738284e-01  -4.5171324e-01   7.6043267e-01  -4.9620452e-02   7.8806729e-01   3.6672406e-01   3.9836874e-01   8.5618419e-01   1.6187413e-01   8.6540268e-01  -9.9031635e-01   9.4624864e-01  -4.5394198e-01  -4.2441178e-01   8.9961582e-01   9.5117966e-02  -9.3840711e-01  -7.7006353e-01  -9.9873095e-01  -3.8730722e-01   8.0880667e-01   1.3757098e-01  -6.7327764e-01  -8.4518225e-01  -3.1569709e-01   9.5776478e-01  -5.5831167e-01   8.0345005e-01  -3.9436621e-01  -8.5950470e-01   6.9814215e-01  -1.9191904e-01   8.9576112e-02   5.0871719e-01   4.2368856e-01   1.4019619e-02   2.7937950e-01  -6.0220056e-02  -3.0637592e-02  -9.3475215e-01  -3.0010546e-01   3.9186677e-01  -6.3366871e-01   2.0900118e-01  -9.9347740e-01   7.1315282e-01  -9.7822927e-01   9.1844575e-01   9.0230734e-01   8.5670946e-01   6.0891751e-01   9.3989616e-02   6.7736426e-01  -1.0722893e-01   8.0937843e-01  -6.7595015e-01  -1.5326928e-01   2.5769001e-02   1.1445276e-03   6.0207065e-01   3.9717837e-01  -5.6794767e-01   1.4295339e-01  -4.0127105e-01   4.3390259e-01  -4.0873151e-01  -8.0686428e-01   7.0615049e-01  -9.8854932e-01  -8.0020110e-01   7.9324647e-01   1.3548649e-01  -9.9006955e-01   4.9564173e-01   2.5678943e-01   2.1280620e-02  -8.9376277e-01   1.0473861e-01   1.7999518e-01  -7.2641073e-01   8.6269681e-01  -7.6467599e-01  -9.1148621e-01   2.2320879e-01  -7.4661991e-01  -7.8318484e-01  -8.6173129e-01   4.0657931e-01  -8.2049028e-01  -8.6927008e-01  -4.8864114e-01  -5.2198742e-02   5.6287460e-01  -1.3928485e-01   8.8366207e-01   5.5999600e-01   4.7362295e-01  -1.7831827e-01   8.1308372e-01   3.3438868e-01  -5.2296864e-01   4.8204893e-01  -3.3955260e-01   9.0396603e-01   2.3306912e-01   5.3807032e-01  -2.2816109e-01   3.5959054e-01   5.0006272e-01  -4.9611792e-01  -9.2064010e-03  -7.7753780e-01   9.5854984e-01   4.5320692e-01  -5.7718226e-01   5.8926064e-01  -5.9591587e-01  -2.5735895e-01   5.2973873e-01  -1.0905731e-01   3.7449311e-01   9.4327569e-01   9.0350417e-01   1.8380086e-01  -5.4089438e-01  -9.7184092e-01  -7.1872598e-02   4.7960485e-01  -1.9130282e-01   5.2378318e-01   3.6441487e-01  -1.8516957e-01   3.2505639e-01  -6.8169977e-03   5.3106981e-02  -3.0758648e-01  -5.0234216e-01  -8.8147956e-01  -2.4525729e-02   1.2393851e-01   8.6124810e-01   4.0778181e-01  -1.8817098e-01  -7.5645029e-01  -3.5647453e-01  -2.3479007e-02  -8.1847586e-02   2.7271369e-01  -9.5141740e-01  -1.6746077e-01   2.1603155e-01   1.1551343e-01   3.0136181e-01  -8.0461163e-01  -1.2806845e-01   4.3701008e-01  -3.5525545e-01   7.7006747e-01  -6.8564987e-01   5.9518890e-01   4.1186171e-01   6.7839529e-01   7.5555343e-02  -8.0575712e-01   6.6845547e-01   2.8826625e-01   8.5674236e-01  -5.5779769e-01  -6.2971500e-01   1.1381802e-01  -1.8292475e-01   9.1268766e-01  -4.2105079e-01  -8.2620398e-01   5.5634109e-01   1.6566553e-01  -5.7921585e-01   1.5372539e-01  -2.8474600e-01   1.0747223e-01  -5.0900123e-01  -4.2181980e-01   8.6289034e-01  -8.8874959e-01  -4.9196376e-01   7.5407401e-01  -3.6341592e-01   2.8486411e-02  -5.6450248e-02   3.4455178e-01   1.1803091e-01   6.4174598e-01   5.4073789e-01   6.7191052e-01   1.5128181e-01  -6.4052391e-01  -5.9777725e-01  -4.8548858e-01   5.9604709e-02   4.4640805e-01  -7.5009777e-01  -2.9095902e-01  -5.7395749e-01  -1.2976302e-01  -2.9960556e-01   4.9178049e-02   3.9711877e-01  -8.3385903e-01   6.4501733e-01   7.5156223e-01   9.8867807e-01  -7.6066322e-01   4.6816647e-01   1.8107966e-02  -1.0984548e-02   5.5070473e-01   7.6574560e-01  -1.7914912e-01  -7.1209594e-01   3.7120198e-01   1.0168976e-01  -7.3573677e-01  -9.8613608e-01  -8.7635291e-01   8.0563672e-01  -3.3162859e-01  -1.0876400e-01   4.9603545e-01  -9.5662291e-01   5.6649144e-01  -4.1954708e-02  -3.0045901e-02   6.6970995e-01   3.3934048e-01   1.3117082e-01   8.2402757e-01  -4.2965000e-02  -8.2674868e-01   6.3068478e-01  -3.8572517e-01   8.8316493e-01   2.2638839e-01   1.5269459e-01  -2.4307679e-01  -7.2695280e-01   3.0904444e-01  -7.9080724e-01   7.6808536e-01  -8.8491910e-01   2.8840453e-01   6.6931140e-01   2.4193994e-01  -9.1699324e-01  -7.2271824e-02   1.6007222e-01  -9.2085442e-01   3.0282129e-01  -7.3512799e-01   1.8743771e-01  -2.6991250e-01   4.6978982e-01   9.8397610e-01  -2.4749165e-01  -3.8446742e-01   3.7793040e-01  -7.3233331e-01   6.5370584e-01  -1.4718662e-01  -5.2920180e-01   5.5662745e-01  -6.5413998e-01  -4.5024558e-01  -8.4263242e-01  -8.0952971e-01   2.8960703e-01  -1.8846761e-01  -8.0101720e-01  -8.7743662e-01   4.5343459e-01  -6.4508759e-01   1.9745721e-01   2.4931805e-01   8.6206244e-01  -7.1061552e-01   1.4590343e-01  -3.2558791e-01  -7.6375048e-01  -1.9334270e-01   4.3548521e-02  -6.6384072e-01   4.3458207e-02  -5.2984799e-01  -3.8285337e-01   6.4853128e-01   2.8067383e-02   6.6910644e-01   8.1505142e-01  -7.3394327e-01  -7.6549761e-01  -9.8281817e-02  -1.0087176e-01  -9.2491319e-01   3.5400884e-01   3.4514777e-01  -7.4432089e-01  -2.3836575e-01   5.2314621e-01   6.4136982e-01  -1.5139894e-01   5.3432891e-01   8.2921503e-01   7.9124751e-01  -1.1667618e-01  -2.6762004e-01   5.3211312e-01   1.0750644e-01  -1.9334426e-01  -4.1293492e-01  -1.2435365e-01  -8.6466906e-01   3.7548591e-01   6.2933458e-01  -5.1399095e-01  -9.5220467e-02  -8.3272277e-01  -6.0870941e-01   4.1767282e-01  -7.7163333e-01  -7.1250667e-01   3.3286410e-01  -7.4458460e-01  -4.7593478e-01  -2.6768173e-01  -4.1200945e-01   3.3206998e-01  -7.5275578e-01  -8.9847701e-01   2.6459050e-03  -4.2234322e-01   8.1414046e-01  -6.9366594e-01   4.3912748e-01  -8.6327891e-01   6.2970382e-01  -5.1792704e-01   9.2136990e-01  -3.3202780e-01  -1.5511628e-01   2.4780703e-01  -9.6141722e-01   8.9721196e-02   5.0060478e-01   8.9224653e-01  -9.3922352e-01  -5.9914401e-01   6.7513848e-01  -2.7514448e-01   6.1884803e-01  -1.4978868e-01   6.3086440e-01   1.5764790e-01   3.4591928e-01   6.5307163e-01   1.4561951e-01  -6.0110970e-01  -9.9142826e-01  -7.3684175e-01  -5.2845257e-01   5.7954968e-01  -5.6723929e-01  -3.8875585e-01   9.3040069e-01  -7.7517181e-01  -9.6377126e-01  -2.1067564e-01  -1.7478397e-01   3.5599824e-01   4.1784279e-01  -4.8485126e-01  -7.1857282e-01  -1.5469573e-01  -7.6314983e-01   9.0318450e-01  -4.1819586e-01  -5.6732997e-01  -3.1266957e-01   5.3036218e-01   8.9700240e-01  -4.6521722e-01  -8.9104645e-01   6.8515223e-01  -7.5926701e-01   3.5180151e-01   1.2509167e-01  -8.7830331e-01  -2.3624673e-01  -3.5136569e-01   2.5857938e-01  -3.6718857e-01  -6.7578589e-01  -4.9776743e-01  -9.6838330e-01   4.8300628e-01  -4.2778788e-01   6.1025141e-01   6.5516819e-01   9.7637207e-01   2.4842455e-01   8.0439877e-01   1.3020119e-01   8.4893201e-02  -7.9546288e-01  -8.4413940e-01  -5.0310963e-01  -9.5921878e-01   7.1464480e-01   6.2626643e-01   8.7614863e-01   1.9361788e-01  -1.6740978e-01  -3.2583055e-01   7.9199569e-01  -7.2769431e-01  -1.1563883e-01   2.4554921e-01   6.1350848e-01  -6.6533697e-01  -7.0025857e-01   8.9462239e-01   6.7584690e-01   4.7724043e-02  -2.1043435e-01   5.2495385e-01   7.1904723e-01  -9.5988593e-01   7.1789370e-01  -2.7259165e-01   8.6245549e-01  -2.0514170e-01   6.7463419e-01   5.7321856e-01  -5.4683108e-01   4.6576908e-01  -8.2457714e-01   8.4850825e-01   6.3799456e-01  -9.7552327e-01  -4.2916307e-01   2.5290831e-02  -4.6708987e-01  -2.7926737e-01  -2.4335677e-01  -7.8119812e-01  -4.9819008e-03  -1.2685602e-01  -1.7461858e-01  -8.5691048e-01   5.6242945e-01  -1.3273967e-01  -1.7364589e-01  -8.3120746e-01   3.9798542e-01  -9.3378095e-01   2.6505320e-02   9.7534818e-02   9.7607734e-01  -5.6163732e-01  -4.4984077e-01  -5.2799907e-01   2.5784880e-01   4.6044980e-02  -6.4732836e-01   2.8198266e-01   6.8765620e-01  -2.3630777e-01   3.2816525e-01   1.5226991e-01   6.6661863e-01   5.8002037e-02   1.8699295e-01   8.3685451e-01  -1.5371740e-01  -5.2733929e-01  -2.4372883e-01   9.1296446e-01  -6.7070260e-01   1.8666414e-01  -6.6817389e-01  -3.6811683e-01   1.9442274e-01  -4.9690883e-01   8.0325371e-02   1.7891781e-01   1.9795525e-01  -4.4912358e-01  -9.3948438e-01   9.9467087e-01  -1.8322669e-01   8.8386868e-01  -4.1123639e-01  -8.3768314e-02  -6.6676646e-01   2.0348019e-02  -6.0431506e-01  -6.1838435e-01  -1.9746635e-03  -3.6726354e-01  -5.9103164e-01  -4.1246018e-01   3.4305748e-01   9.3632801e-01   8.1465199e-01   8.2188730e-01  -3.7798390e-01   5.7726200e-01  -2.9555893e-01  -7.6331727e-01   6.4859439e-01  -1.9294183e-01   7.6243311e-01  -6.7650114e-01  -4.2911789e-01  -6.2428975e-02  -2.9585541e-01  -9.0586842e-01  -5.9016387e-02   8.7648310e-01   9.2736709e-01  -4.0483497e-01   6.8170116e-01   7.4403255e-01   8.2907240e-01  -2.1189353e-01  -9.7447483e-01  -2.5057444e-01   6.9297915e-01  -8.4945865e-01   5.3086668e-01   6.2118372e-03   4.9052515e-01  -2.8456064e-01   6.3434247e-01   9.5330589e-02   2.0917237e-01   5.6171104e-01  -5.9050324e-01  -9.6893866e-01   1.7139770e-01   7.2903939e-01   9.3714402e-01  -9.9957224e-01  -7.7107605e-01  -1.7644073e-01  -8.1562648e-01  -1.0223316e-01  -9.0014533e-02   3.3773623e-01   5.7271865e-01  -9.7979498e-01  -2.2104180e-01   4.5496126e-01  -6.4351258e-03  -4.3805868e-01  -3.7705701e-01   5.7238215e-01  -3.6721048e-01  -1.8221720e-01   9.8326876e-01  -6.8445986e-01  -1.5081709e-01   3.7360901e-01   4.1290047e-02  -3.2024913e-02  -2.1910864e-01  -6.7645290e-02   1.4173555e-01   5.2593540e-01  -3.2241242e-01   1.5374262e-01   1.0852538e-01   1.3516068e-01  -6.9949259e-01  -4.8679619e-01   8.4374860e-01   6.4123504e-01  -1.8835930e-01  -5.5651181e-02   9.5090971e-01  -6.9763607e-01   1.7213532e-01   3.5521690e-01  -6.3249378e-01  -1.7977451e-01   1.2680361e-01   3.3558403e-01  -1.4908539e-01  -4.9158890e-01  -7.5191526e-01  -7.4083248e-01   3.7568889e-01  -6.1905652e-01  -2.3374641e-01   6.9044344e-01  -5.9859744e-01   2.6533239e-01   1.3064027e-01  -7.4731610e-01   3.3255095e-01  -7.8472126e-01   4.1580433e-01   2.0866046e-01  -1.7236008e-01  -9.6164423e-03  -8.5343902e-01  -1.2819260e-01  -3.4863220e-01   5.1459868e-01   5.0956851e-01   2.5120766e-02  -5.5821351e-01  -9.5398991e-01   3.3104342e-01  -8.3553519e-01   7.3488192e-01  -2.9028548e-01  -6.0407751e-01   6.2682891e-01   4.5343621e-01  -8.0715739e-01  -9.3811983e-01   3.9087550e-02   9.8118984e-01  -1.5003957e-01   2.2272274e-01   4.4288066e-01   8.6879122e-01  -2.9687859e-01  -5.7728289e-02  -6.1842950e-01   1.0661088e-01   5.9255062e-01  -7.7111941e-01   7.4800257e-02  -8.7066562e-01   8.0857809e-02  -1.6426402e-01  -4.3735479e-01  -6.5307568e-01   8.8085580e-01  -9.9682421e-01  -9.2821263e-01   2.9088930e-01   4.2735553e-01  -8.4988783e-01  -9.2775177e-01   6.7875094e-01   6.8374509e-01  -9.8375204e-01   8.6755772e-01   5.8017145e-01   1.7987519e-01  -5.8073288e-01  -1.5396762e-01   2.1064335e-02  -1.5273386e-01   8.2382140e-01  -2.8589682e-01  -6.0338672e-01  -1.0828275e-01  -8.1795413e-01   9.0720370e-01  -2.0460855e-01  -7.7466185e-01   8.4197236e-01  -9.7299870e-01   4.3685397e-01  -8.3292879e-01  -4.3979573e-01   4.8441451e-01  -5.1252111e-01  -7.8745519e-01   1.6158391e-02  -1.5657523e-01  -9.1072334e-01   1.1715901e-01  -2.0553301e-01   3.3410676e-01  -9.1668187e-02  -4.6586027e-01  -1.1861576e-01   7.9929121e-01  -3.6165467e-01   5.5580243e-01   5.4162126e-01   3.7111097e-01   6.3541529e-02   9.8191146e-01  -6.7477582e-01   8.3110599e-01   1.0912184e-01   9.3447805e-02  -9.8315467e-01   3.6187528e-01   9.1264865e-01   6.9400563e-01   2.7548293e-01   6.5035801e-01   7.9250541e-01  -7.2666649e-01  -3.4391330e-01   6.5173818e-01   5.5035373e-01  -8.4436632e-01  -4.4243385e-01  -3.4460551e-01  -5.5803363e-01   5.9506787e-01   4.5837102e-01   4.5935290e-02  -8.9963528e-01  -7.5042345e-01  -5.0350924e-01   1.4637681e-01  -3.6655159e-01   4.9906046e-01  -1.1787086e-01   5.3200338e-01   6.6322177e-01  -4.4247792e-01   3.7845159e-02  -8.3298954e-01   2.4407290e-01   7.7163271e-01   6.5995808e-01   7.7278977e-02  -3.6932565e-01  -1.8849647e-02   3.5897487e-01  -1.6747030e-01   7.2617974e-01   8.5744477e-01  -2.5512940e-01  -6.9356832e-01   4.9608160e-01  -9.4870470e-01  -1.1260099e-01   4.8004953e-01  -8.3865908e-01   6.8340717e-01  -1.1143148e-02   1.5020834e-01  -6.7227690e-01   7.4037263e-01  -7.3912475e-01   9.9594907e-01  -8.7800489e-01  -3.6182328e-01   2.6712154e-02  -4.9168495e-01  -5.6287434e-01   2.9258821e-01  -6.5562013e-01  -8.2778364e-02  -5.5118781e-01   4.2316452e-01  -6.6733030e-01   8.9122049e-01  -1.5395641e-01  -8.5569845e-01   5.4393154e-01   1.9282626e-01  -9.9842472e-01  -9.0712566e-01   2.6968412e-01   1.5042056e-01   4.8244416e-01  -2.2316238e-01   2.4942904e-01   4.0184577e-02  -7.7467755e-01   2.3942853e-01  -5.0700307e-02  -8.1807459e-01  -4.5827169e-01   9.4749814e-01   9.1087006e-01  -1.2095866e-01   2.5563154e-01   1.4450005e-01   2.6819859e-01  -5.7845831e-01   8.5331167e-01  -3.2605258e-01   8.7014036e-01  -6.7704364e-01   1.3375447e-01  -3.3172307e-01  -5.6449824e-01  -8.1707758e-01   2.0021675e-01  -9.4318790e-01  -4.6772617e-01   2.1322208e-01   2.2794257e-01  -9.4266133e-01  -5.2645573e-01  -3.0308657e-01  -9.1880560e-01   8.5415881e-01  -8.4097474e-01   9.3810241e-01   3.1053881e-01  -7.5412403e-01  -9.5507574e-01   1.2710548e-01   1.0442630e-01   6.0939254e-01   3.5168818e-01  -3.3838185e-01   1.1029317e-01  -5.7247749e-01  -7.9403298e-01  -1.6452639e-01   6.0745070e-01  -8.1349534e-01   2.0135422e-01   6.2450588e-01   4.1035497e-01  -2.3707601e-01  -3.2493307e-01  -5.7566117e-02  -1.2990398e-01   6.7655570e-01  -5.4660394e-01   3.1268748e-01   5.5059931e-01  -1.3326325e-01  -9.2931829e-01   7.8327404e-01  -1.6245405e-01   2.3577779e-01   5.6593064e-02  -1.7504566e-01  -6.7716886e-01  -4.0579221e-02  -2.7310755e-01   1.5168529e-01  -7.0369060e-01  -5.2042406e-01   8.6084608e-01  -7.2354139e-02  -2.3142805e-01  -3.2343726e-01   3.4586774e-02  -7.9627008e-01   7.2076326e-01   4.4499466e-01   6.5781309e-01  -1.6277682e-01   7.9625176e-01   3.6511161e-02   2.0666163e-01  -1.1869778e-01  -7.1566331e-01   3.1550333e-01   7.8265462e-01  -6.6208944e-01   2.7244652e-01   3.3658506e-01  -6.9465983e-01  -5.9767867e-01   6.2919750e-01   4.7233788e-02  -2.4049720e-01  -2.0358669e-02  -2.4688742e-01  -2.0839066e-04  -6.2838580e-01  -5.0566083e-03   6.9397018e-01  -3.3823189e-01  -8.2314951e-01  -5.0245507e-01  -1.4262214e-01  -8.6053464e-01   9.5082523e-01   2.1650460e-01   1.9722768e-01   9.3332489e-01   1.0661796e-01   7.5055677e-02  -2.9977027e-01   9.9563713e-01  -5.0907083e-01   2.5741628e-01   9.3039739e-01  -7.3699322e-01  -1.3849079e-01  -9.9723961e-01   4.0573546e-03  -8.2385074e-01  -1.2135469e-01  -8.2392083e-01   8.4219784e-01  -6.9842168e-01   6.1511340e-01   1.6558191e-01  -5.6219276e-01   7.5495444e-01  -2.0092065e-01   9.5892415e-01  -9.1925485e-01   7.6674268e-01  -7.7605299e-01  -9.2516199e-01  -3.6859116e-01  -6.1459738e-01  -2.8185274e-02  -3.1869018e-01  -4.7829912e-01  -9.3043230e-01  -5.0709493e-01  -7.8352835e-01   6.7563755e-01  -5.1190683e-01   6.8797844e-01   1.5529226e-01  -5.4830323e-01   5.3803311e-01   1.0114168e-02  -3.5819125e-01   3.4862953e-01  -3.5816686e-01  -9.4087951e-01  -8.2249238e-01  -6.7543154e-01  -8.6036432e-01   1.3859272e-01  -1.7729614e-01   2.4994973e-01  -4.6286510e-01  -9.9937247e-01  -3.0708221e-01  -6.2656149e-01   1.3752658e-01   5.3436472e-02   5.8239496e-01  -3.4696970e-02  -1.7047317e-02   8.0427802e-01  -8.7776850e-01  -2.0476630e-01   9.9810348e-01  -1.0156939e-01   3.9907311e-01  -2.4343142e-01   5.4352218e-01   1.1858292e-01  -8.1854865e-01  -2.8314613e-01  -4.6095517e-01  -5.6402662e-01  -8.5846412e-02  -3.3692152e-01
   2.4956923e-01   5.5795376e-01   2.6388831e-01  -6.9703135e-01  -1.0120266e-01   4.9517194e-01   2.4814582e-01   8.0818306e-01  -9.6266975e-01  -2.9507807e-01   5.5386769e-01   9.4549962e-01  -6.2747015e-01  -2.5671912e-02  -4.2898673e-01   3.3959563e-01  -1.4794381e-01  -4.7337643e-01   1.2338659e-01   5.2271518e-01   1.0071446e-01  -7.8772229e-01  -1.1549303e-01  -8.8165171e-01   6.2842007e-01  -7.8998394e-01   9.9924599e-01   6.0261433e-01   5.8217608e-01   2.5678544e-01   5.6316327e-01  -5.0972883e-01   2.5167598e-01   4.8452276e-01   5.4555004e-01  -8.3138482e-02  -8.2987628e-01  -2.5819375e-01   7.9403677e-01   6.2784653e-01   8.2834232e-01  -1.4446510e-01  -1.5258893e-01  -2.6094800e-01  -6.9147217e-01   3.7813603e-01   1.7040396e-01  -7.2184042e-01   8.5274337e-01   3.5780284e-01  -9.2370712e-01  -3.2298501e-01   2.2544482e-01   6.1175751e-01  -4.2201774e-01  -7.6021852e-01   8.6303070e-01   8.0464704e-01  -8.0657688e-01  -1.8075038e-01  -6.3020553e-01   5.3604817e-01  -4.7192057e-01  -6.0125513e-01   5.4039652e-01   5.9913092e-01  -4.5812529e-01  -5.2637205e-01  -1.8214706e-01   9.2305993e-01   7.1137040e-01  -7.9438883e-01  -4.5260992e-01   2.6182642e-02  -4.7179056e-01   5.5488414e-01   9.0131126e-02   9.5440564e-01   2.3729097e-01  -2.5775773e-01   1.2140085e-01   9.5912538e-01   8.1892245e-01   7.2971865e-01  -2.5810236e-01  -3.2099226e-01   7.5058086e-01   4.2267026e-01  -3.4977130e-01  -7.3992359e-01   4.9040681e-01   9.7229934e-01   1.2687371e-02   4.7968894e-01  -9.8039179e-01   4.1266081e-02   8.0385785e-01  -4.1336231e-01   2.8908529e-02   9.3655845e-01   4.7481212e-01  -9.1753797e-01   7.5163881e-01  -5.4321654e-01   9.4105375e-01   5.3429294e-01   7.1206812e-02   2.2649646e-01   6.8910186e-01   4.7028259e-02   6.0301233e-01  -5.8704036e-01   7.1551850e-01  -1.6728475e-01   5.6746467e-01   5.9669769e-01  -5.4918709e-01   6.7137905e-01   8.5107822e-02  -8.2581312e-01  -2.6557288e-01  -4.4956591e-01  -2.7005421e-01   8.9286804e-01   8.9671223e-02   1.0084534e-01   7.6086357e-01  -7.2388917e-01   9.5284642e-01  -5.8229572e-01  -2.5900919e-01  -5.5830220e-01  -2.3442872e-01   2.1842471e-01  -7.2484845e-02  -2.9148338e-01   4.3333434e-02  -7.6622906e-01   6.1896664e-02   3.9779021e-02   5.7341301e-01  -6.6583694e-01   6.5743827e-01   9.3240693e-02   7.4044591e-02   4.8356447e-01  -9.9273095e-01  -3.6938982e-01  -8.2910700e-01   2.3672081e-01   3.1777722e-01  -8.7032993e-01  -5.5112623e-02   8.9618268e-02  -1.1433220e-01   3.0440032e-01   4.4950409e-01   7.8646330e-01   9.2815122e-01  -6.2639138e-01   7.7840889e-01  -3.6927819e-01   3.9466989e-01   8.1527285e-01  -4.1998892e-01  -4.0131189e-01  -2.5202896e-01   3.4657930e-01  -5.3478445e-02  -8.1809533e-01   3.0352584e-01  -3.0091096e-02   8.5820793e-01   4.7268974e-01   4.8350579e-01   2.6803047e-01   3.6752920e-01  -1.8140708e-01   8.1214311e-01  -8.0343418e-01  -4.9827145e-01  -1.9468764e-01  -7.0905067e-01   7.8313960e-01  -9.2118932e-01   1.1965321e-01   6.0212937e-01   8.1479460e-02   8.1971148e-01  -2.4698586e-01   8.9358188e-01   6.6241029e-01   7.6056697e-01  -7.6143523e-01   8.3575293e-01   4.6798956e-01   4.8972350e-01   9.8745535e-01  -7.2371447e-01  -3.7633605e-01  -7.7132358e-01   2.1039121e-01  -7.2643507e-01  -6.0125795e-01   9.9924283e-01  -7.5271160e-01   5.8061239e-01  -2.9915591e-01   5.4639677e-01   1.4476534e-01   2.8518249e-01   7.1293429e-01   1.9823619e-01  -6.9408815e-01  -5.4529420e-03   3.0022106e-01   4.8913669e-01   2.2417195e-01  -9.1593720e-01  -1.3626813e-01   2.5294509e-01  -4.2937887e-01   4.9958719e-01   2.9651587e-01   8.0953802e-02   1.0908289e-01   2.2984619e-01   7.4490081e-03  -6.7498069e-01   7.2422937e-01   4.3626222e-01   3.2286185e-01  -2.8006983e-01   5.1490921e-01  -1.6071258e-01   9.8222609e-01   7.2403626e-01   7.4989132e-01   7.0229513e-01  -9.3839006e-01  -2.4323801e-01  -1.3524078e-01   7.4664512e-01  -6.6156239e-01   7.0269993e-01  -1.3985523e-01   2.8536505e-01   5.5645659e-01  -8.0655206e-01  -5.6454194e-01   1.9042814e-01  -2.0078905e-01  -3.1318967e-01   1.0124546e-01  -6.9531130e-01   8.6180157e-01  -7.8458621e-01   8.0956438e-01   7.6663341e-01  -6.7147150e-01   3.5869632e-01   8.8587996e-01   7.5794102e-02   1.5369510e-01  -4.6180058e-01  -2.6169729e-01   5.8070632e-01   4.4144891e-01   7.3606818e-02  -1.4261536e-01   1.8661287e-01  -7.8859861e-01   9.5644341e-01  -5.8390780e-01  -8.2272361e-01  -1.4570394e-01  -4.5022994e-01   7.9204349e-01   2.9397572e-01  -2.7460289e-02  -1.4615905e-01  -7.5325407e-01  -5.1629599e-01  -6.6108428e-01  -5.8791215e-01   5.3723706e-01  -4.8641131e-01   6.2968849e-01  -1.8311371e-01  -1.3405192e-01  -1.4044592e-02   8.5588740e-01  -1.6391663e-01  -7.0377663e-01   8.3989557e-01   3.0316443e-01  -5.8315302e-01  -1.0534685e-01   9.0055406e-01  -1.7395090e-01   5.4573581e-01  -2.5879130e-01  -7.6367492e-02   7.6754758e-01   7.8879494e-01  -3.8527997e-01   3.0190867e-01  -6.1946296e-01  -5.7467051e-01   2.7603585e-01   3.4878442e-01  -6.7873375e-01   7.7115138e-01  -6.6333871e-01   2.3297477e-01   7.1390175e-01   3.6619515e-02  -2.9550597e-01  -1.1937093e-02   7.5476084e-01  -7.2573680e-01  -9.0639189e-01   4.6258561e-01  -2.1132482e-01  -4.8041214e-01   3.1381788e-01  -5.8259028e-01  -6.3050006e-01  -3.4211708e-01  -2.1669118e-01   3.6973229e-01   5.1824812e-01   4.6190908e-01   4.0057206e-01   7.2936943e-01   1.7326148e-01  -9.1795810e-02   1.9506256e-01   2.3113835e-01   7.6760095e-01  -4.1137594e-01  -3.2285958e-01  -7.4651382e-01  -2.7566595e-01  -1.5711886e-01   1.0444234e-01  -5.3177137e-01   7.2677292e-01  -6.7421469e-01  -2.1287584e-01  -7.9728942e-02  -7.7455106e-01  -5.3113918e-01  -6.5276140e-01  -6.6860071e-01   9.8034323e-01  -6.5288119e-02  -6.5018357e-01  -4.3839782e-01  -8.5823737e-01   9.4607975e-01  -1.4573213e-01  -8.5018456e-01  -1.5982337e-01   1.5724100e-01   8.4256182e-01  -4.4562439e-01   9.9090261e-01   8.0000682e-01  -2.9137803e-01   3.2232094e-01  -8.5168172e-01  -3.5653628e-01   3.2821314e-01  -4.8623435e-01  -1.4315667e-01  -3.4068515e-01  -2.8639134e-01  -9.6581359e-01  -7.8900759e-01  -8.6033580e-01  -8.7520222e-02   9.2288107e-01  -3.5961780e-01  -4.8341853e-01   4.2940055e-01   5.8041904e-01  -6.2156437e-01   8.1972230e-01   4.4695823e-01  -8.2730018e-01   2.8823667e-02  -2.8890062e-01   1.2934171e-01   9.2389656e-01  -7.5156846e-01   8.8745793e-01   8.4121675e-01   7.6713610e-01   4.3969579e-01   2.1833530e-01   2.2631732e-01  -1.0463756e-01   9.8918777e-01  -1.6479358e-01   6.9539236e-01   2.3883351e-01   8.1254771e-01  -2.2854613e-01  -9.7606159e-01  -8.4144328e-01   1.9141551e-01   8.6287456e-01   5.1245943e-01  -9.8189255e-01   8.3984805e-01   2.1646003e-01   4.6946626e-01   7.0963697e-01  -7.4898839e-01  -1.9151295e-01  -2.3252791e-01  -4.9143566e-01  -6.4955686e-01  -7.0501202e-01   5.5184498e-01   6.4805443e-01  -1.6670920e-01  -5.6984044e-01   8.4958453e-01  -5.5715132e-01  -5.7238505e-01  -2.6756787e-01  -9.9399185e-01   3.6822990e-01  -6.0029443e-01   7.9100763e-01  -2.3019665e-01  -8.7994910e-01  -5.8942444e-01  -5.3829587e-01  -1.8633406e-01   8.2122971e-01  -7.3894759e-01   6.2182590e-01   2.7745877e-01  -9.3539262e-01   5.3554277e-01   3.3720891e-01  -6.4152821e-01  -4.5772193e-02   2.6796672e-01   1.2443572e-02   5.7333453e-01   7.6261307e-01  -6.0243062e-01   2.5927347e-01   5.9008001e-01  -9.0782020e-01  -1.7209684e-01   7.1078059e-01  -7.0041015e-01   1.6144037e-01   6.7680977e-01   7.2908388e-01  -2.5089189e-01   3.7700269e-02   9.3715576e-03  -8.3751418e-01   7.4347279e-01  -5.7643578e-01  -2.9749812e-01   9.5721914e-01  -3.3113895e-01  -5.1482867e-01  -8.8408046e-01   8.8232312e-01  -8.9175575e-01  -8.0246205e-01  -9.9461233e-01   7.4707737e-01   4.9339891e-01   5.9737509e-01  -4.0624985e-01  -7.3665929e-01  -2.8450925e-01  -8.3687002e-01  -2.2119518e-01  -5.6085465e-01  -7.0614393e-02   8.8450883e-01   2.6435742e-01   8.2867193e-01   6.1659099e-01   8.5749218e-01  -4.5805793e-01   8.1116956e-01   9.0149736e-01   1.3862118e-01  -4.5565123e-01  -1.3562034e-01  -5.9468802e-01  -6.4264300e-01   2.0767007e-01   2.4225770e-01  -7.2485015e-02  -8.1858389e-01  -8.4089629e-01   9.7657470e-02  -7.2097787e-01   3.7280086e-01   1.6498635e-01   3.8144927e-01   6.1865636e-01   8.9492755e-01   7.9420767e-01  -2.5725966e-01  -5.7465812e-01   2.6190225e-01   5.9155198e-01  -8.6587872e-01   4.0519853e-01   5.3575656e-01   3.8085331e-01   6.5815591e-02  -5.0327430e-01   4.2398445e-01  -7.8702376e-01  -3.1018388e-01   8.3719245e-01  -3.7991090e-01   3.1354258e-01  -8.5162002e-01  -4.8616505e-01  -4.4893507e-01   3.2923980e-02   9.1414380e-01  -2.5073097e-01  -4.7149023e-02   8.7274700e-01  -1.0147361e-01   3.7092588e-01  -2.1869466e-01   7.5839734e-01  -8.5511477e-01   5.7246338e-02   2.1826827e-01  -9.7422396e-01  -3.1406719e-01   9.2041273e-01  -1.8754329e-01  -6.5922889e-01  -6.2788126e-01  -9.8794050e-01  -4.3367685e-01  -3.7374294e-01   9.7862855e-01   2.5191791e-01   8.9251732e-01   6.6963667e-01  -9.6700725e-01   7.0967685e-01   3.5641697e-02  -2.3109326e-01  -6.9462931e-01  -9.5491753e-01   4.4447437e-01  -8.8220037e-01   4.9155977e-01  -8.0483528e-01   7.0376043e-01   4.6270647e-01   9.0053481e-01  -7.8615393e-01   6.6250732e-01  -6.8736575e-01  -8.8953328e-01  -9.9324837e-01   8.7708227e-01  -7.8788049e-01   6.2731469e-01  -8.9168762e-01  -1.9723350e-01  -4.8932538e-01  -2.6993344e-01   1.1182045e-01  -4.5682177e-01  -5.8784248e-01  -3.5149903e-01  -6.0718311e-01  -3.1569675e-02   8.6800846e-01  -3.6684285e-01  -6.6349098e-01  -1.9762808e-01  -4.9670087e-01  -7.6217697e-01  -3.4178090e-01   2.5690600e-01  -2.5431965e-01  -2.7026507e-01  -2.4803314e-02   5.8641730e-01  -5.8370727e-01  -9.9507947e-01  -4.4528307e-01  -7.6945717e-01  -5.1045822e-01  -2.2782517e-01  -1.6420180e-01   2.2778827e-01  -1.6590006e-01   3.9403329e-01   1.5897461e-01  -8.0088581e-01  -3.2036381e-01  -9.0690003e-01  -2.5077987e-01   1.0269093e-01  -2.0331165e-01  -1.4338752e-01   7.0868969e-01   3.2145580e-01   5.5986098e-01   4.0736626e-01   5.9028775e-01  -8.7476725e-01  -5.2948238e-02  -8.5403210e-02   8.4969200e-01   5.7286299e-01   5.3250919e-01  -8.6263933e-02   2.7661179e-01   4.5235603e-01  -1.5256375e-01   9.7375864e-01  -9.4896730e-01  -3.5783878e-01   3.5219947e-01   2.2055849e-01   2.6589322e-01   5.0536187e-01  -5.8229265e-02  -7.3179642e-01  -7.8887520e-01  -1.6894646e-01   7.4056238e-01   4.4442610e-01   5.1095428e-01   5.2387531e-01   8.2781169e-01  -9.8582327e-01   8.7169660e-01  -5.7150815e-01   2.2201582e-01  -6.4748945e-01  -6.0237627e-01  -2.2012088e-01   2.5276248e-01   4.7266275e-01  -6.0888121e-01  -4.4340219e-02  -9.5392562e-01  -4.2378955e-01   6.8897276e-01  -8.8288405e-01  -7.9824427e-01  -3.9706474e-01  -1.1772817e-03  -3.1834922e-01   4.4245479e-01  -8.6142018e-01   4.6449590e-01   6.8216150e-01  -5.5698312e-01   2.3792716e-02   7.7681210e-01   2.5870576e-01   9.3610742e-01  -7.6514226e-01   6.3171416e-01  -8.9090982e-01  -5.7486932e-01   5.7965218e-01  -3.1573175e-01  -4.5433401e-01  -4.8530448e-01  -5.1766467e-01   7.4082291e-01   5.2840090e-01  -1.0173807e-01  -7.4699242e-01   4.1744516e-02   2.8578625e-02  -6.9480354e-02   4.5361129e-01   9.4011366e-01  -1.7789600e-01  -7.9414227e-02  -9.5054583e-02   7.0954049e-01   7.7312392e-01  -3.3980179e-02  -3.9673421e-01  -5.0568176e-01  -2.3095016e-01   5.5571869e-01   1.9119623e-01   8.8983231e-01  -6.7044319e-01  -8.5275297e-01  -1.5822099e-02  -8.0965313e-02   9.1927659e-01  -5.3736236e-01   1.1611878e-01  -1.5717134e-01   1.5414543e-01  -8.1870047e-01   1.8619599e-01   9.5903871e-01   3.7032440e-02   4.4582286e-01   8.3214754e-01  -7.8782267e-01  -2.2458592e-01   8.9969887e-01   5.8770244e-01   2.0658367e-01  -2.1126985e-01  -6.1769748e-01  -2.7248488e-01   5.1842429e-01   9.9683749e-01  -7.8641543e-01   1.3196140e-03  -5.1537690e-01   9.8245687e-01   7.9977605e-02   4.5504756e-01  -4.2852514e-01  -3.1028020e-01   8.2415115e-01   2.4718900e-03   8.5225270e-01   3.3805756e-01   4.0503740e-01   2.1375016e-01  -9.6316517e-01  -9.6893484e-01   7.6681655e-01  -6.1981583e-01   7.2878380e-01   9.6654110e-01  -1.5793845e-02  -4.6631271e-01   2.4749269e-02   1.2560314e-01  -5.5291115e-01  -8.4394230e-01  -4.1275318e-01   3.0023811e-01  -3.1427523e-01  -7.1727727e-01  -9.7787745e-01   7.9620637e-01  -6.9017979e-01  -3.9763791e-01   6.4545427e-01  -1.9355048e-01   3.6955489e-02  -4.6073557e-02  -6.0083549e-01  -8.2541347e-01   3.3703577e-01   6.8232897e-01   9.9658302e-01   2.3583876e-01   2.5351772e-01   6.0611391e-01  -8.6477688e-01   7.8864532e-02   8.4369404e-01   1.0213664e-01   3.8913801e-01   7.0603486e-01  -2.6468084e-01  -5.0650539e-01  -5.7297210e-01  -5.7956099e-01  -5.0128456e-01  -8.4542908e-01  -9.7333091e-01  -5.5983606e-02   5.4178148e-01   6.9536402e-01  -9.7961675e-01   9.6681967e-01  -4.2935243e-01   2.5890356e-01   2.2257480e-01   9.0950990e-02  -2.7325121e-01   2.7288197e-01  -3.4739651e-01   3.0374373e-01  -5.2450210e-01   4.3370997e-01  -1.3945885e-01  -4.0220878e-01   4.9948847e-01   5.7560799e-02   1.2980656e-01  -7.0082121e-01  -3.9498496e-01   4.0705240e-01   1.8761381e-03   5.9865156e-01  -2.6216493e-01  -5.6400217e-01   7.0361817e-01  -9.5366675e-01  -8.7922855e-01  -7.0950386e-01  -3.1874255e-01  -3.2193512e-01   7.7870683e-02  -9.7706167e-01   8.2140288e-01   9.0990119e-02   3.9291002e-01  -2.7139063e-01  -7.6654358e-01   5.1939555e-01  -5.7486734e-01  -2.2603114e-01  -9.9119508e-01  -6.7643523e-01  -1.6307680e-01   9.5605274e-01  -6.0137513e-01   3.2153743e-01  -7.8586307e-01  -6.7060810e-01  -3.7182744e-01  -2.3015284e-01   7.9993102e-02  -1.2617384e-01  -4.2152469e-01   8.5920595e-01   6.3737077e-01  -7.6534060e-01  -3.7643860e-02  -2.5406833e-01   8.9046704e-01  -3.9386400e-01  -4.2144952e-01   4.4606613e-02  -7.3857461e-01  -5.8864079e-02   1.9756509e-01   1.4955217e-01   5.4879711e-01   5.8106458e-01  -1.9801012e-01   9.2495920e-01  -6.8183695e-01  -2.1856692e-01   6.4858414e-01  -4.8881116e-01  -8.9170221e-01  -6.1617973e-01  -8.2239902e-01   2.8072204e-02  -4.9241458e-01  -6.1582303e-01   3.7379271e-02   5.5768493e-01   1.4639288e-02   8.7437056e-01   5.1211420e-01   1.0333709e-01   2.5166345e-01  -8.3673950e-01   9.2176923e-01  -8.3456174e-01   5.6486497e-01  -4.3245318e-01  -7.7833541e-02  -3.0452942e-01   2.7022046e-01   1.2396422e-01   5.3955464e-01   9.2444115e-01  -4.4331598e-01   9.2324907e-01  -1.4798130e-01  -2.2600517e-01  -3.0766540e-01   4.8928210e-01   1.6184956e-01   3.6585887e-01  -7.9768679e-01  -1.8435950e-01  -9.7924997e-01   6.2780804e-02  -7.4198026e-01  -6.2846156e-01   7.6334484e-01  -9.5245719e-01   4.4101973e-01  -1.7413953e-01   7.1511802e-01  -7.5125461e-01  -8.7877038e-01   1.1770529e-02  -1.9934846e-01   4.3003208e-01   2.5075016e-01  -5.5273767e-01  -1.4764984e-02   7.1820426e-01  -2.3198104e-01  -5.9102879e-01   7.4152425e-01   6.5523425e-01  -3.9062492e-02   7.4547735e-03   1.7640531e-01   8.7666875e-01   6.8132332e-01   1.1165781e-01   2.1726063e-01   1.7113737e-01   4.6086726e-01   1.5146565e-01  -3.7942813e-01   7.0346808e-01   7.4793576e-01   6.4395414e-01  -2.5639293e-01   6.4431424e-01   3.1935550e-02  -4.0240934e-01   5.0615038e-01  -9.4152858e-01  -5.2582200e-01  -2.2124009e-01   3.4040521e-01   5.4130636e-01   4.1458808e-02   5.4422026e-01   8.5772597e-01   9.1522733e-01   5.9187766e-02   2.9069599e-01   1.0855347e-01   5.8282109e-01   5.7704537e-01   6.3247186e-01   8.5482129e-03   1.9331513e-01   8.0643000e-01   8.3195138e-01   7.6212672e-01   9.8338362e-01  -6.2097066e-01   2.2879166e-01  -2.1679309e-01  -7.0118944e-02  -2.5607168e-01   9.0896010e-01  -7.8014853e-01   5.6483742e-02   1.0747247e-01  -6.9193974e-01   5.7041082e-01  -8.6659131e-01  -3.1299020e-01  -6.8052984e-01  -5.0591057e-02  -4.2104599e-01   7.6427152e-01  -5.5242144e-01  -6.9686335e-03   1.9892026e-02   1.8254134e-01   1.2231522e-01   7.9079572e-01   9.5393196e-02  -6.0728742e-01   4.7259179e-01  -5.8738731e-02   8.6851004e-01  -3.0159940e-01  -3.0006735e-02  -3.8856467e-02   7.2352896e-01   4.8445487e-01
  -7.4363849e-01  -9.6381617e-01  -4.8535088e-01  -2.8472144e-02   3.5811903e-01   7.0553511e-01  -1.5191077e-01   6.2146392e-01  -6.4364394e-02  -5.8546180e-01  -2.1642382e-01   7.8006198e-01  -3.8489469e-01   3.9694880e-01   1.3069347e-03   5.2916866e-01  -9.8767770e-01   9.9039192e-01  -8.8384596e-01  -6.1327034e-01   5.3030582e-02   6.9486067e-01   1.4128571e-01   1.2729938e-02  -6.6200991e-01   9.1488890e-01   7.4696474e-01  -3.2955343e-01  -4.2501208e-01  -8.1609953e-04   6.7649093e-02   8.4006467e-01   7.4747189e-01  -5.0699992e-01  -7.8882913e-01  -5.6694967e-01  -7.5621007e-01  -1.3689208e-01   6.0591417e-01  -4.0452626e-01   5.7110802e-01  -3.3086784e-01   5.3642618e-01   4.4043883e-01  -4.5221677e-01  -8.9802301e-02   2.6987743e-01   2.2801744e-01  -2.9322921e-01   1.5467645e-01   7.9919584e-02  -9.5146429e-01   9.3838356e-01  -6.9607150e-02  -2.1518602e-01   4.9297592e-01  -1.9763881e-01   6.3910695e-01   4.1705898e-01   6.0797453e-01  -5.4748418e-01  -6.8907928e-01   1.1117368e-02  -5.7654304e-01   9.6709112e-01   2.6743406e-01  -5.3852128e-01   2.7798484e-01  -3.0450832e-01   1.3069227e-01  -1.1242170e-01  -5.9127905e-01  -4.0169182e-01   3.2532869e-01   3.8665547e-01   2.1875961e-01  -5.9684992e-01  -8.8607386e-01  -4.9849168e-01  -7.7649947e-01  -2.6036404e-01   2.3871014e-01  -2.4578179e-01  -5.8787564e-01   9.5168667e-01  -3.6207290e-02   1.8419228e-01  -5.2956042e-01  -3.1595125e-01  -7.5358116e-01   3.1526522e-01  -6.5141511e-01  -2.5842828e-01   7.0628767e-02  -8.0934575e-01   9.1815263e-01  -7.5666632e-04  -9.8228775e-01   1.1891694e-01  -8.9609585e-01  -3.7079683e-01  -6.3077784e-01  -2.6913675e-01   8.5365066e-01   4.9707894e-01   4.4942770e-02   4.2899382e-01   3.6805103e-01   7.6722930e-01  -5.5896589e-01   6.2652535e-01  -5.5817358e-01   8.6636079e-01   6.2111745e-01  -9.2566997e-01  -4.2775335e-01  -1.8502754e-01   8.5609102e-01  -8.6406818e-01   8.3767060e-01   1.4832689e-01  -8.2445562e-01   1.4972422e-01  -9.5687480e-01   4.9828982e-01  -4.4759170e-01   1.6522464e-01   5.9821253e-01  -3.7242489e-01  -4.8074998e-01   6.9226536e-01  -5.7408856e-01   4.8538389e-01   4.0541224e-03  -9.4221148e-01   5.6048928e-01  -2.7803569e-01   9.5002093e-01  -6.1348491e-01   6.8133696e-01  -2.6518502e-02   3.0317961e-01  -5.9468948e-01   8.1943361e-01   7.5069035e-01   4.5453348e-01   1.9421562e-01   1.3779911e-01  -4.0767236e-01  -5.0705805e-01  -4.7891483e-01  -4.5395486e-01  -9.8441069e-01  -9.0235060e-01   5.1141182e-01  -4.2280326e-01   7.9849358e-01  -4.9779675e-01   5.7179153e-02   4.8113697e-01   8.5947160e-01   1.0008072e-01  -6.9590878e-01   5.7147315e-01  -6.8869919e-01  -3.3413880e-01  -4.5307521e-01  -1.3961163e-01   8.7186885e-01  -3.5791823e-01  -9.7253912e-01  -9.5951664e-01   3.0052012e-01  -7.9984799e-01   4.2242061e-01   6.5730119e-01  -4.0352042e-01   1.2275798e-01  -6.8381613e-01   4.4103123e-01   1.3913087e-01  -2.3258720e-01   2.3341279e-01   2.0040684e-01  -7.5806919e-01  -3.7309725e-01  -9.6326568e-01  -4.5823186e-01   5.9772477e-01   9.6510483e-01  -9.9638708e-03  -5.8728930e-01   7.9605933e-01   7.3093223e-01  -7.4997989e-01  -2.1998177e-01  -6.5138177e-01   6.8109032e-01   6.2047806e-02   3.6258510e-01  -8.7190641e-01  -7.7295839e-01  -7.1973878e-01   4.9767788e-01  -3.3022142e-01   3.2216824e-02   6.7297803e-01  -8.5205532e-01  -8.8382606e-01   6.1297020e-01   9.0322061e-01  -6.5696707e-01  -3.4285018e-01  -9.4479782e-01  -1.6672602e-01  -2.4142223e-01   2.8579578e-01  -2.8474110e-01  -6.2899631e-02  -7.8619237e-01   8.3218629e-01  -6.5436678e-01  -4.5951346e-01   9.8162810e-02   7.1113320e-02   4.2134053e-01  -4.3226778e-01  -1.0913895e-01   7.3485841e-01  -3.5817269e-01  -5.8283124e-01  -6.8945527e-02   1.5586134e-01   5.7795573e-01  -7.8431134e-01   9.2264351e-01  -2.8247875e-01  -4.7868341e-01  -2.8508448e-01  -2.3451224e-02   8.8073855e-01  -3.8351705e-01  -1.2906546e-01   8.0169594e-01   8.1097867e-02  -2.7686667e-01   5.4893717e-01   2.7984690e-01   9.6046644e-01  -9.5608578e-01  -6.4808381e-01  -9.9390491e-01   3.3300445e-01  -3.4575265e-01  -8.5065934e-01   4.1696956e-01   5.6885974e-01  -9.0122282e-01   9.9530776e-01  -1.5915986e-01  -8.6133804e-01  -7.8560689e-01   1.4434683e-01  -1.2636003e-01   4.2624664e-01  -1.7707323e-01   3.0977460e-01   1.3286140e-01   6.7042703e-01  -5.3424130e-01   7.5917582e-02  -6.4941126e-01   6.9868156e-01   9.9580521e-01  -2.9059896e-02   9.3026516e-01   9.2707369e-02  -5.0778774e-01   9.8102679e-01  -9.0086640e-02   5.8311267e-01   2.8310148e-01   3.3044207e-01  -7.5723533e-01   8.8373031e-02  -3.0969766e-01   9.2578712e-01  -9.0836386e-01  -1.2003222e-01   3.1430347e-01  -1.5956178e-01  -5.5890556e-01   1.9706022e-01   7.9262114e-01  -2.9609351e-01  -3.3403305e-02   5.6341833e-01  -3.5021865e-01  -6.3925297e-01   8.2785969e-01  -8.5460590e-01   5.5672502e-01   1.8951977e-01   1.4979628e-01   6.3388484e-01  -9.8804732e-02  -5.6154339e-01   9.9389781e-01   3.1577005e-01  -1.6825143e-01   4.3866793e-01   8.4349186e-01   5.3596977e-01   4.0257329e-01   1.9348367e-01   5.8647003e-01  -8.4601298e-01   7.5666909e-01   3.0195522e-01  -4.6211626e-01  -7.3664259e-01   5.9222459e-01   5.3740917e-01   4.2778930e-01   4.3001766e-01   6.9657632e-01  -5.7588856e-01  -1.5798062e-01   1.5052011e-02   8.9053151e-01  -6.9827836e-01   7.0852156e-01   9.6721442e-01   4.2629399e-01   3.5505924e-01  -4.6336768e-01  -5.3973838e-01  -1.6742443e-01  -5.4548918e-01  -8.1874387e-01  -9.6298811e-01   4.5756844e-01  -5.8448581e-01  -3.9618279e-01   8.6395123e-01   2.1986126e-01   7.1927781e-02  -4.0099651e-01  -9.0033359e-01  -6.6696493e-01  -8.6972015e-01   5.3312704e-01   1.1046516e-01  -2.4813133e-01  -3.6739796e-01   6.1554080e-01   6.3480432e-01   8.2856595e-02   6.9708229e-01   2.5972485e-01   3.7262313e-01   1.7718710e-01   7.5930864e-01   1.1164586e-01  -9.4984206e-02   7.2306251e-02   9.1688455e-01  -5.5695129e-01   6.8778406e-01  -6.9424580e-01  -9.4957910e-01   4.6037698e-01  -1.2984291e-01  -6.9570387e-01  -7.9913299e-01   7.5389559e-01   9.0480364e-01  -2.4196548e-01  -9.9248893e-01  -9.7815257e-01  -5.6953719e-01   5.8758881e-01   9.8629934e-01  -2.9321806e-01   6.6053811e-01   1.5155346e-01   6.4389202e-01   7.0293279e-01  -6.3242069e-01  -5.0363335e-01   7.0640869e-01  -5.2175780e-01   7.1100843e-01   4.3466026e-01  -8.1092310e-01   2.3552303e-01  -8.8492659e-01  -1.1576999e-02  -3.2710375e-02   1.9863987e-01   9.1234821e-01   2.1457818e-01  -3.3560394e-01   7.6745169e-01   5.9705131e-01  -6.6910092e-01  -1.4222154e-01   4.7706422e-01   1.4739285e-02   3.0112849e-01  -2.3417861e-01  -7.1295337e-01  -8.5224999e-01   2.7913554e-01  -7.2812952e-01  -3.9912730e-01  -9.1744066e-01   7.2810462e-01   9.4551717e-01   8.0453963e-01  -1.1953779e-01   3.9143249e-01  -3.5282771e-01   9.4203669e-01   8.6838954e-01  -5.3504354e-01  -4.7740053e-01   3.3495089e-01  -4.4597818e-01  -1.0910520e-01   5.6593968e-01   6.6667470e-01   2.6863061e-01   4.2999994e-01   9.7666101e-01  -7.9684095e-01   2.4423664e-01   7.4751112e-01  -8.7283392e-02  -3.9496902e-01   5.7780434e-01   1.4476961e-02   4.8627989e-02   9.9375106e-01   4.5418332e-01   8.4976127e-01   5.6694263e-02  -9.8037895e-01  -8.6929888e-01   5.1241035e-02  -7.2843211e-01  -8.8315904e-01   1.7039939e-01  -6.8200805e-01   7.0968223e-01  -7.1992665e-01  -3.7424924e-01  -5.5503972e-01   2.1656172e-01   5.2222229e-01  -7.4097765e-01  -2.5145997e-01   8.6964147e-01  -3.9632478e-01  -6.9956697e-01  -7.5973137e-01  -7.1163172e-01   5.9142296e-01   7.7469752e-02  -9.9256407e-01   3.3023750e-01   6.8763974e-01  -1.6101769e-01   1.6398668e-01   2.6870829e-01   6.0277132e-01   8.4057873e-01  -2.5076496e-01   7.6554973e-01  -3.6261795e-01  -9.6779001e-02   6.8672858e-01   5.8458094e-01   9.5706291e-01  -3.8380879e-01  -6.4452177e-01  -1.7238786e-01  -9.7353350e-02  -9.5121799e-01   8.0396901e-01  -5.5585005e-01  -2.4335976e-01  -3.6442810e-01  -9.7299638e-01   5.9180137e-02   2.2560878e-01   2.1335904e-01  -2.7587437e-01  -3.3234418e-01   7.7724239e-01   9.3924682e-01  -2.2415136e-01   7.6843214e-02  -3.6995684e-01   5.3168137e-01   2.0808970e-01   2.8892052e-01   7.2385658e-01   4.3799019e-01   1.5904733e-01  -5.5999590e-01   7.9716581e-01   3.2391366e-01  -1.9464032e-01   5.5961521e-01   9.5137820e-01   6.1029883e-01  -3.9082149e-01  -4.1482751e-01  -6.1702186e-01  -5.7614341e-02  -6.5881025e-01  -1.4677716e-01   2.3414600e-01   9.1217985e-01   5.5130010e-01  -5.5267969e-01  -9.2522087e-01  -7.8943185e-01   7.5309887e-01  -1.0824909e-01  -7.6974713e-01  -9.2886407e-01   9.8084216e-01  -1.5143676e-01   3.5966658e-01  -2.5551414e-01   3.6689354e-01  -9.7951842e-01   4.6459383e-01  -6.9133375e-01  -2.0471107e-01   4.3279373e-01   4.5912487e-01   7.7854878e-01  -6.6324588e-01  -4.9274965e-01   9.7097870e-01  -1.0551671e-01  -9.6660093e-03   4.0170618e-01   2.2069079e-01  -6.9620546e-02   7.2570887e-01  -5.5897990e-01   1.2766505e-01  -2.8224830e-01  -1.7732010e-02  -3.9080616e-01  -8.2477936e-01   5.7892847e-01   1.1223258e-01   9.2896172e-01  -6.7974537e-01   4.4656174e-01  -2.4640069e-01   9.6220707e-01   3.7643535e-01   6.5505297e-01  -1.2807337e-01   9.4142751e-01   7.1934458e-01  -9.3191446e-01  -5.2832056e-01   9.3684827e-01  -4.9790361e-02   5.6652422e-01   7.0976323e-01   6.9616735e-01  -6.2916419e-01  -7.6129113e-01   8.2662798e-01   3.2789806e-02  -4.7953389e-01  -6.0133212e-01   6.0812541e-01  -5.1423223e-01   9.2751783e-01  -4.2407326e-01  -9.0962615e-02   6.5868566e-01   2.8205981e-01  -1.6835549e-01   7.3496488e-01   2.1801951e-01  -3.3042091e-01   2.3385651e-01   8.7664083e-01   7.1738590e-01  -2.0326494e-01   7.7100128e-03   1.0450386e-02  -7.2108053e-01   2.7150186e-01  -8.8219792e-01  -5.6904350e-01   7.7139232e-01   8.1507459e-01   7.8973344e-01  -8.5445987e-02  -4.7558666e-01   2.2481021e-01   6.2651087e-01   5.7474252e-01   9.8467294e-01  -5.0861155e-01   6.6150131e-01  -6.3398873e-01  -5.1199326e-01  -3.6387623e-01  -8.3282614e-01   1.9866935e-01   8.9124931e-01  -8.4378155e-01  -1.3944580e-01   9.2008696e-01  -5.9965248e-01   3.3176328e-01   2.3248382e-01  -6.0526499e-01   9.6927483e-01   2.9870727e-02   7.5884473e-01   7.5515056e-01  -9.7260377e-01   7.1799754e-01   8.4953074e-01  -3.4648595e-02  -3.7229229e-01  -5.2996857e-01  -6.2263119e-01   3.1405968e-01  -3.8081453e-01   6.9944555e-01  -7.4273142e-01   5.1423762e-01  -6.6120054e-01  -6.9063314e-01  -1.1323805e-01   8.7509426e-02  -4.5400887e-01  -5.2192560e-01  -2.1984961e-01   5.2543176e-01   7.5208279e-01  -3.3294445e-01  -1.4111159e-01   3.9306632e-02   9.1725821e-02   4.8822034e-01  -3.4337762e-01  -9.4563873e-02  -2.7178497e-01   3.4236571e-01  -7.1426505e-01  -7.9798793e-01  -8.4831619e-01   2.2556227e-02   2.4423587e-01   3.0809064e-01   8.8840569e-01  -2.1991829e-01   9.7876923e-01  -4.9630806e-01  -9.7864782e-02   2.2046045e-01   3.0997398e-02  -6.8225344e-01   1.7546533e-01  -3.4053233e-02   7.1599752e-01  -3.3560466e-01   4.4787419e-01   1.6297648e-01   1.7619864e-01  -2.2585595e-01  -3.6845934e-01  -1.4371336e-01  -1.7612873e-01   2.8817829e-01  -6.7218775e-01  -8.9697478e-01  -4.9023219e-01  -4.7082095e-01  -7.6719897e-02   7.1582550e-01   1.0664768e-01   9.5172401e-01   7.2647228e-01   7.2754184e-01  -3.8834136e-01   1.7504113e-01   9.7703940e-01   7.0429015e-01   9.8149095e-01   1.6579532e-01  -2.6353948e-01  -1.1426323e-01   9.2672584e-01   9.7378547e-01   4.7094120e-01   8.6420882e-01  -2.7040736e-02   2.1842721e-01  -2.5932853e-01   5.9319531e-01  -1.9677230e-01   2.5093539e-03   1.0810996e-01   1.0404950e-01   5.1233795e-01   1.9808376e-01  -5.1889060e-01  -6.1359970e-01   4.7787402e-01  -7.8920862e-01   5.0812041e-01   9.6901739e-01  -7.6303914e-01  -9.1928078e-01   7.0016145e-01   8.1400133e-01   9.8519968e-01   2.5331357e-01  -4.7325860e-01  -9.4859861e-02  -4.4736034e-01  -8.3274920e-01  -4.4137083e-01  -6.0379323e-01   1.9452015e-01  -9.3911288e-02   9.1844586e-01  -2.3800155e-01  -9.8080312e-01  -7.3991405e-01   1.1058481e-01  -7.9826024e-01   6.3967379e-01  -1.6473505e-01  -1.2629093e-02  -3.5220570e-01   2.0566877e-01  -7.3388605e-01   9.2359093e-01   5.5814317e-01  -2.1018283e-01  -6.9107320e-01  -5.2734707e-01   9.2061229e-02   8.9879223e-01  -1.5704693e-01   5.3340387e-01  -2.7236711e-01  -8.8936898e-01   5.1072663e-01  -6.9546763e-02   1.5024819e-01  -2.5668084e-01  -2.1607637e-01   3.4519208e-01   7.8075284e-01  -8.7281878e-01   3.7978301e-01  -4.2991341e-01   4.0498957e-01  -1.4893558e-01  -3.1947528e-01  -5.9732319e-01  -4.9125434e-01  -1.4167704e-01   6.4148679e-01   3.1698667e-01  -9.9714580e-01   3.4363977e-01  -1.9065568e-01   6.4027352e-01  -4.9624172e-01  -1.0868717e-01   9.5171325e-01  -7.8348722e-01  -7.5492116e-01  -7.4996653e-02   3.2077664e-01   3.2720860e-01  -2.7633280e-01   3.7385024e-01  -8.5001565e-01   1.6438469e-01   4.5718852e-01  -7.1780163e-01   5.7665498e-02  -2.8355600e-01   2.8846141e-01   4.8868643e-01   2.4745278e-01   7.1538710e-01   2.7349990e-01   3.0526573e-01  -4.3007411e-01   8.9564316e-01   9.4739534e-01   7.6172168e-01   2.6076824e-01   5.4007454e-01   6.5779714e-01   1.0035154e-01  -2.9853744e-01   5.8442992e-01  -6.6434086e-01   7.6085930e-01  -9.3921727e-01  -3.9618747e-01  -9.7672492e-01  -2.4633125e-01   2.2430652e-01   7.9346101e-01  -6.2551940e-01   3.2096072e-01   1.6942722e-01  -9.8346160e-01  -4.4696759e-01  -1.6090673e-01   7.0868378e-01  -4.1702989e-03  -3.5557500e-01  -8.9369273e-01  -5.8788717e-02   2.5979848e-01   8.1856309e-01   4.4837394e-01   5.2811668e-01  -4.5715498e-01  -1.7396189e-01   8.0741111e-01   5.5348566e-01  -4.9231676e-01   9.1042585e-01   4.1039479e-01  -6.6919879e-01   2.3152330e-01  -4.3679735e-01   1.7664553e-01   1.8738318e-01   5.9508516e-01   8.5670164e-01  -5.3484945e-01  -3.8855885e-01   8.2621000e-01  -3.3265599e-01  -6.2191870e-01  -9.6317491e-01   1.9102104e-01  -8.0063911e-01   2.4308902e-01   6.7441666e-02   5.6620424e-01   4.8366069e-01   5.4314435e-01   2.3962520e-01  -9.2039466e-01  -5.0309540e-01   8.7748332e-01   9.0746035e-01   6.7715426e-01  -1.9167529e-02  -7.0200541e-01   9.9552679e-01   2.0085124e-01  -4.7017523e-01   9.1367338e-01  -5.4675859e-01  -8.6706684e-01  -2.8673923e-01  -1.1780289e-01  -8.9667148e-01   8.3626722e-01   5.2528519e-01  -7.5421636e-01  -1.1309092e-01   7.9951280e-01  -8.1485183e-01  -1.1924784e-01   6.9009672e-01  -8.2187618e-01  -7.8960400e-01  -7.0824450e-01  -2.5533087e-01  -3.4252017e-01  -9.5777855e-01   1.7151267e-01   2.9121030e-01  -1.3581896e-01   5.6642666e-01   6.8303601e-01  -1.7897653e-01  -1.8998750e-01   1.0312325e-01   2.2064243e-01  -1.1655505e-01  -3.5093579e-01   2.4716271e-01   4.0869859e-01  -5.7521941e-01  -4.0613144e-03  -4.3132566e-01  -4.8208596e-01  -1.8407715e-01  -3.6122909e-01  -9.4254594e-01  -7.3625675e-01   2.0390892e-01   1.1312331e-01   6.1204675e-01   6.7567337e-02  -1.5066320e-01   7.4253881e-01   8.5918189e-01  -9.3248719e-01  -3.9428398e-01   3.4259643e-01  -4.0322895e-01   6.8576466e-02  -8.0196597e-01   7.5215788e-01  -6.3089706e-01  -8.1170333e-01  -5.5534242e-01  -9.0091868e-01   8.2355722e-01  -2.4642562e-01   6.7732709e-01   5.3603623e-01  -3.1867265e-01  -4.9833099e-01  -3.0533422e-01  -1.8771469e-01  -5.4623401e-01   8.5966859e-02  -9.0477981e-01  -1.3890249e-02   5.0361375e-01   4.0802903e-01   6.3160258e-01   1.3156280e-01   8.6536981e-01  -2.4563097e-01   2.8301154e-01   7.4963558e-01   6.0636727e-01   5.3356951e-01   1.0034307e-02  -5.8828640e-02  -3.4504194e-01   5.7040337e-01  -2.6737876e-02   7.3565260e-01  -7.1988288e-02  -8.3313037e-01   9.2474964e-01   5.9371527e-01  -7.6897850e-01   9.2026667e-02  -9.3222956e-01  -9.1310007e-01   7.6602412e-01   2.3073863e-01  -1.1047893e-02   3.7435249e-01  -6.6356815e-01   3.4793460e-01   6.3669376e-01   6.3859304e-01   3.0899024e-01   3.0957382e-01  -7.4137612e-01  -2.8904824e-01  -8.4463965e-01  -4.4841414e-01   9.5680585e-01   4.1801836e-01   1.6179458e-01   5.7685352e-01   8.0676428e-01  -9.2145770e-02   4.8791235e-02   5.0388958e-01   7.5813404e-01  -6.4045517e-01   9.8442934e-01
   8.3532635e-01   3.7132030e-01  -7.0386228e-01   9.4462553e-01   1.0365044e-01   5.7812880e-01  -9.3686846e-01  -7.0560542e-01   4.0312933e-01   7.5938486e-01  -2.7894028e-01   3.9283580e-01   8.6024283e-01  -1.0256318e-01  -7.7843819e-01   5.9154823e-02  -8.5588940e-01  -2.9998982e-01   3.5318469e-01   3.2017031e-01   4.4246750e-01   5.1546272e-01  -3.7249600e-01   2.0310609e-01   9.7063228e-01  -9.4078561e-01   4.8156990e-01   8.3330098e-01  -8.9815209e-02   1.4727350e-01  -1.5962597e-01   7.8544551e-01  -2.2495807e-01  -3.7775573e-01   1.2373337e-01  -9.8131224e-01  -7.3043713e-01   7.4175473e-01  -1.6977511e-01  -7.5451847e-02  -7.9108639e-01  -3.1617700e-01  -7.2406348e-01   7.9784667e-01  -9.6747102e-01  -1.0701861e-01  -5.9716844e-01  -3.2902858e-01  -6.7643281e-01   6.5874668e-01  -1.7814470e-01   7.6740608e-01  -7.5202827e-01  -3.5732108e-01  -1.4608534e-01  -5.1185069e-01  -1.4911442e-02   3.0826077e-01   1.8435117e-01  -3.1303522e-01   7.9439549e-01   9.6665155e-01   1.7890068e-01   6.2415846e-01   7.0930634e-01   4.0023004e-01  -6.8923206e-01  -1.8233855e-01   1.4421237e-01  -5.5317646e-01  -9.0775517e-01  -7.6377580e-01  -7.2805945e-01  -9.3182982e-01  -1.6693656e-01  -2.8422789e-01  -8.7461344e-01  -8.9555425e-01   3.9715352e-01  -5.7017259e-01  -6.5413433e-01  -2.6019431e-02   5.5138879e-01  -5.5315596e-02   3.3912824e-01   5.8476333e-01   9.4207169e-01  -3.3310073e-01  -3.3953931e-01  -2.7081698e-01   9.0432639e-01   7.4055580e-01   7.4810561e-01   3.1677596e-01  -5.3465258e-01   3.0277321e-01   3.0720502e-02  -3.9126621e-01   5.0159298e-01   9.0913860e-01   4.0799377e-01   5.4243607e-01  -2.0502813e-01  -1.2792404e-01  -7.4741765e-01   3.6319261e-01  -9.4382695e-03   5.2725456e-01  -7.6730412e-01   9.4460457e-01   9.5878141e-01   8.5015144e-01  -7.9120100e-01  -5.3277921e-01  -3.6249684e-01   5.4368140e-02  -6.4709333e-01   1.2809491e-01  -5.0857798e-01   3.4080718e-01  -3.8696030e-01   1.9138790e-02   1.6727255e-01   2.4257264e-01  -5.9584999e-01  -1.6202123e-01  -9.2971641e-02   7.1639015e-02   8.0705296e-01  -6.5674240e-01  -9.8063149e-01   8.7166352e-01  -6.1454840e-01  -6.8974756e-01   3.5659398e-01  -4.5249447e-01   1.6331136e-01   5.0840459e-01  -3.2667959e-01   9.9162419e-01   8.7989654e-01  -9.6333496e-01   3.4902087e-01  -7.0648555e-01  -4.0757596e-01  -8.8778338e-02   7.2946989e-01  -1.4230575e-02   4.6580678e-01   4.3425984e-01   7.4527176e-01  -2.4815920e-01  -6.8742695e-01   1.9443357e-01   8.9966373e-01  -1.9325064e-01  -3.3684784e-01  -8.4493364e-02  -6.0030118e-01  -2.4774457e-01  -7.7118266e-01   2.2614124e-01  -3.9243211e-01   6.6863436e-02  -8.0526498e-01  -5.0589215e-01  -1.5812280e-01  -8.5213045e-01  -1.2194767e-01   9.7315557e-01  -6.7201559e-01   1.3409718e-01  -7.2300821e-01  -7.3246759e-01  -7.5723858e-01  -2.2323239e-01  -5.3010360e-01  -9.3281298e-01  -8.3135329e-01  -3.5302764e-01  -2.8720082e-01   5.6696925e-03  -8.2061032e-01  -1.2339548e-01  -9.4371870e-01  -2.1762382e-01   5.0217799e-01   6.6253099e-01  -8.3263792e-01  -1.7908760e-02  -8.4463345e-01   7.6779281e-01  -2.2898050e-02   3.5450464e-01  -9.2102951e-01   8.5509706e-02  -4.1775434e-01   8.8252487e-01  -7.4601046e-01  -9.8878488e-01   5.9273481e-01  -5.7113234e-01  -3.8020070e-01  -2.7934980e-01  -6.0121363e-01  -1.7681522e-01   3.6904805e-02   6.7076732e-01  -7.9417081e-01   5.1929194e-02  -5.8047370e-02  -9.7084837e-01  -3.5071484e-01  -9.8089601e-02  -2.6799144e-01  -9.7013178e-01   7.6380059e-02   5.2202031e-01  -5.1807665e-01  -7.5428979e-01   2.6595506e-01  -6.9468886e-02  -7.9073057e-01  -5.5590453e-01  -3.0456870e-01   8.5378184e-01  -1.2031879e-01   7.2899293e-01   7.0476511e-01  -2.9050475e-01  -9.3660998e-01   4.6060405e-01  -4.6671448e-01   8.0187933e-01  -3.0829976e-01  -7.5629516e-01  -1.9603312e-01  -9.5401833e-01   2.3934929e-01   9.9995715e-02   6.7764047e-01   8.7628917e-01   4.3730939e-01   6.9088602e-01  -9.5998740e-01  -5.5625664e-01   5.7172479e-01  -9.8169619e-01   9.9330493e-01  -2.1634353e-01   8.4714761e-01  -6.4390286e-01  -4.5472665e-02   7.4256464e-01  -4.5358506e-01  -6.2666051e-01  -6.5617159e-01   8.2051703e-02   2.4891301e-01  -8.8938583e-01   5.8363148e-01   7.5534217e-01   3.6304676e-01   6.0622195e-01  -1.8363448e-01  -1.5521146e-01  -4.7218004e-02  -7.5866351e-01  -6.6236180e-01   5.2198571e-02   8.8180885e-01  -3.6248595e-01  -2.9612773e-01  -2.7353770e-01  -4.8477403e-01  -7.4886417e-01   7.9449083e-01  -8.2688275e-01  -8.5908438e-01  -8.5186704e-01   1.6837393e-01  -8.0830268e-01   4.3604332e-01   9.4720147e-01   7.1507705e-01  -2.5286288e-01   5.0276238e-01   1.9574109e-01   5.6880405e-01  -7.0176652e-02  -1.4961399e-01   4.1535795e-01  -7.8064959e-01  -9.3989165e-01   8.6146646e-01  -8.9073039e-01   6.5070333e-01  -7.0368619e-01  -8.3040109e-01   5.2120901e-01  -7.3662672e-02  -8.4343246e-01  -9.9039548e-01  -4.8483687e-01  -9.9303405e-01   6.9231618e-01   9.2640821e-01   5.5934163e-01   4.6897259e-02   1.6435466e-01   2.0050069e-01   1.5199118e-01  -8.8632242e-01  -9.6542784e-01   7.9632377e-01  -2.8493525e-01   3.7688108e-01  -2.6374932e-01  -3.4330212e-01  -5.1764345e-01  -9.6401127e-01  -6.1511123e-01   3.1143420e-01   7.4978071e-01   7.9951123e-01  -8.4398960e-01  -3.8543456e-02   1.4241402e-01  -6.3490966e-01  -3.2728784e-01  -2.5446599e-01  -3.1214985e-01   5.2147756e-01  -5.8482742e-01  -5.6227664e-04  -3.0945595e-01   8.8605554e-01   9.3338338e-01  -1.1132912e-01  -6.0067351e-01   5.8555221e-01   4.9377127e-01  -3.2867081e-02  -9.4859285e-01  -1.5297186e-01   2.4497669e-01  -9.5404601e-02   2.9359244e-01  -9.9097293e-02  -9.1176329e-01  -3.7969704e-02  -8.2884814e-01   9.0809440e-01  -7.5238105e-01  -3.7309494e-01  -5.7378054e-01   4.9579563e-02   6.2169293e-01  -6.7704062e-01  -4.2822572e-01  -9.5091631e-01   2.6433994e-01  -1.9445638e-01  -9.6158212e-01   2.7844616e-01  -7.7611145e-01  -2.0456168e-01  -1.0193264e-01  -1.9723932e-01  -3.3576142e-01   5.0272328e-01  -5.9642720e-01  -3.5596292e-01   2.1483849e-01  -1.6243584e-01  -9.8902751e-01  -8.4749184e-01   3.9959003e-01   8.8521812e-02  -1.3881306e-02   9.4096784e-01   6.6600674e-02  -4.2883340e-01   3.8807047e-01  -3.6285568e-01   5.7435729e-01   3.0718636e-01   3.4027233e-01   4.6513212e-02   7.7579084e-01  -7.3456495e-01  -9.6004826e-01   7.0886802e-01  -6.9333216e-01  -8.7099798e-01  -4.4850114e-01   1.8523093e-01  -4.1007183e-01  -6.1489737e-01  -2.3657224e-01   7.1794698e-01  -1.0998589e-01  -2.2022713e-01  -6.5990443e-01   2.9889518e-01  -6.5509516e-01   8.1221689e-01  -2.2451738e-01   1.7264627e-01  -5.2350058e-01   6.5947480e-01  -2.0804437e-01   9.4743428e-01   1.4523683e-01   2.7834674e-01  -1.5760526e-01   9.5017614e-01  -4.3868349e-01  -2.8405889e-01  -9.9432969e-01   6.4011522e-01   1.4803018e-01   9.2025615e-01  -3.9267585e-01   9.8795490e-01  -5.7829555e-01  -2.5938387e-01   8.5552686e-01   1.4444431e-03   7.3829467e-01   8.6005615e-01  -3.2730663e-01   2.2184667e-01   8.5780605e-01   6.5695427e-01   4.8723730e-01   3.7238529e-01   5.2774806e-03   2.5584946e-01   7.8407697e-01   1.4152922e-01  -1.8045595e-01  -2.3571873e-01   5.8958880e-01  -2.7881615e-02  -1.4010762e-01  -9.0645418e-01  -9.9682425e-01   9.9324635e-01  -4.1744810e-01  -7.4133563e-01   1.3218655e-01  -4.8582825e-01   3.1690956e-01   4.1947220e-01  -5.0945168e-01   1.1473241e-01  -4.2037114e-01  -8.1234895e-01   2.4201874e-01   3.2859737e-01   9.0466458e-01   9.2846413e-01   5.7845324e-02   3.0047317e-01  -9.2829804e-01   4.7137501e-01  -4.2679349e-01   8.2202618e-01  -8.9064186e-02   2.9696507e-01  -3.6104001e-01  -7.7729082e-02   7.2982344e-02   7.6086713e-01  -4.2633692e-01  -2.7359360e-02  -8.0781751e-01   5.4192360e-01  -8.2255374e-01   9.6647612e-01   1.5450075e-01   1.6675307e-01   8.2858771e-01  -5.1411215e-01  -7.7275493e-01   2.4057281e-01  -1.2868273e-01  -6.8087939e-01   3.6102330e-01   1.6652267e-01  -4.5910659e-01  -8.2082466e-01  -3.6197793e-01  -6.4521319e-02   1.6393088e-01   3.3169984e-01   7.3291077e-01  -3.5587357e-01   1.1524797e-01  -2.4002429e-01  -3.5029495e-01  -9.7185250e-01  -2.5660316e-01  -9.3623223e-01  -9.1015977e-01  -5.4617574e-02   9.6001188e-01  -1.4710272e-01  -4.6824946e-02   8.7762338e-01   3.1719633e-01  -3.9298398e-01   7.1409128e-01  -9.5767712e-01   9.8887539e-01   7.6789285e-01  -5.0110113e-01   9.1345811e-01   7.0444936e-01  -9.2764308e-01  -1.0202509e-01   1.9937953e-02   7.5152282e-01   2.8521184e-01  -3.7137732e-01  -8.8915313e-01  -5.0645430e-01  -2.6339760e-03  -4.5105512e-01  -2.7097230e-01   5.1755621e-01  -8.7337385e-02   9.3944577e-01  -7.9381291e-01  -9.0898012e-02  -9.1584143e-01   9.0854766e-01   3.6171556e-01  -8.5329713e-01  -6.1823642e-01  -8.7620458e-01  -5.4416497e-01   8.8338681e-01  -7.5583770e-01  -8.2171559e-01   8.7215362e-01  -3.4520549e-01   2.3707276e-01  -9.0522431e-01  -6.4929876e-01  -8.5822416e-01   5.5132688e-01  -4.8878104e-01  -1.4690927e-01   7.2837606e-01   8.3050592e-01   5.4525338e-01  -5.7082917e-01  -5.4532601e-01  -6.0569437e-01  -3.1184619e-01   6.0425769e-01  -1.0688044e-01   3.9613051e-01   6.5785631e-01   2.5456704e-01   6.7773412e-01  -4.2879379e-01  -1.0534267e-01   5.7467151e-01   3.2310793e-01  -3.6257422e-01  -4.5997544e-01   6.5339389e-01  -7.8743156e-01  -5.2098961e-01  -7.8124497e-01   4.3262313e-01  -8.5028039e-01  -1.5572389e-05  -3.9566794e-01   2.0638510e-01   6.5103126e-01   1.7661694e-02  -8.1103649e-02   7.6796664e-01   8.0479357e-01  -9.1100627e-01  -2.7791315e-01  -8.1857415e-01   5.8140455e-01  -9.3607286e-01  -3.8702943e-01   1.0408300e-02  -3.4022602e-01  -3.6630440e-01  -9.4357457e-01  -8.5455185e-01   9.6707712e-01  -9.7743422e-01  -2.5231985e-01  -6.6908507e-01  -1.0149234e-02   8.7721201e-01   1.2597937e-01   6.1568135e-01  -1.6860926e-01  -6.2206077e-01   1.6712720e-01   3.6842622e-01  -1.7866823e-01   1.5843322e-01  -9.6584855e-01   2.9777654e-01  -8.0493298e-01  -1.2306056e-02  -7.4105721e-02   1.7627312e-01   7.1213208e-01   4.8643775e-01   9.8962682e-01   8.7945860e-01  -2.5743980e-01   7.2536705e-01   6.0083436e-01   9.2581509e-01  -5.4836964e-01   3.5375435e-01  -6.6642061e-01   3.3323988e-01   9.4867422e-01   4.2781210e-01   5.0786736e-01   5.8154228e-02  -9.6391827e-01   1.4906390e-01  -7.8671064e-02   9.3638314e-01  -1.3674970e-01   2.8009569e-02   1.4594269e-01   1.1664588e-01  -3.1002237e-01   8.2375268e-01  -8.9660477e-01  -3.3682994e-01   2.2177813e-01  -3.4942799e-01  -3.5530059e-01   5.3703495e-01   1.7444519e-01  -3.9550479e-01  -4.9016831e-02  -1.6756087e-02   5.3862117e-02  -5.6817677e-01  -9.8714958e-02   3.6223630e-01   7.7133165e-01   8.9624983e-01  -9.7704919e-01   2.6267347e-01  -7.0319773e-01   7.6509499e-01   1.4034107e-01  -2.1001195e-01   8.0721836e-01  -5.3968823e-01   8.1447981e-01  -9.6610125e-01  -5.9184608e-01   4.8543881e-01  -6.6235338e-01  -7.8729830e-01   8.4403533e-01   8.2470771e-03  -4.9818232e-01   3.2226307e-02  -9.8292656e-01  -6.4449074e-01   5.6330566e-01  -1.5262192e-01  -7.8442176e-01  -9.0633151e-01   1.1051220e-01   6.0114901e-02   8.1388932e-01   4.2297347e-01   5.6469836e-01   8.5235860e-02  -4.2266104e-01  -7.0574714e-01   9.3679112e-01   4.9044923e-01   7.7116697e-01   2.4039038e-02  -3.7784739e-02   2.6035559e-01  -4.0560606e-01  -1.5176830e-01  -7.4141742e-03  -1.9645558e-01   9.8919075e-01   4.7118690e-02   1.5273960e-01   1.4879178e-01  -7.3443991e-01   7.1659157e-01   1.8563935e-01  -6.1740752e-01   3.9748712e-01   4.1718991e-01   9.9845573e-03  -3.4021083e-01   2.3339954e-01  -6.6092460e-01   8.9366162e-01  -9.9235081e-01  -8.5784941e-01   3.5503770e-01  -7.6790477e-01   9.0445853e-01   4.5511148e-01  -8.8245043e-01  -6.4324310e-01   7.1760271e-01  -6.0705145e-01  -8.1623288e-01   4.8221541e-02   4.6162285e-02   2.4243305e-01  -1.2478113e-01   2.1371038e-01  -5.4856202e-02   7.5246278e-01   8.8836734e-01  -9.1564467e-01   4.1658349e-01   8.4459021e-01   5.3868408e-01  -5.7012678e-01  -5.7343367e-01  -1.3762810e-01  -1.8298384e-01   2.3476736e-01  -8.1014260e-01   7.4898932e-01   9.7310758e-01  -4.8389844e-01  -6.5858187e-01  -3.7707761e-01   5.3620496e-01   7.8181012e-01  -8.5616048e-02  -9.9274081e-01   8.2476672e-01  -9.5467613e-01  -9.9922345e-01  -5.2070790e-01  -8.5447591e-01   5.5963417e-01  -4.9399062e-01  -5.8031379e-01   3.7833731e-01  -1.7441454e-01   6.2085574e-01  -9.6497836e-01  -1.8248388e-01  -7.8985682e-01   5.5547890e-01   2.2607009e-01   6.0690705e-01  -8.8440170e-01   8.8734065e-01   7.9103959e-01  -3.1367627e-02   7.6136107e-01  -6.6388990e-01  -4.3619920e-01   9.6410260e-01  -9.7457621e-01   5.1549598e-01   4.7316001e-01   9.0314893e-01  -3.6921130e-01  -5.8008370e-01   9.6074278e-01   4.0613508e-01   1.2509504e-01   3.8620766e-01   8.2696536e-01  -4.8203660e-01   6.8045621e-01  -2.7750606e-01  -9.5244372e-02   1.3848241e-01  -6.2708940e-01   7.8426679e-01   8.4073909e-01   5.9329746e-01   9.6433552e-01   9.9306024e-01   4.6777807e-02   3.6184498e-01   7.2753395e-01  -4.0578633e-01  -4.6223811e-01   5.3258740e-01  -1.3995649e-01  -4.2846774e-01  -2.6783235e-01   6.1034401e-01   6.5537711e-01   7.9087934e-01   8.6698322e-01   8.5180735e-01   4.9156325e-01   2.7801491e-01   8.4141210e-01  -1.1866757e-01  -3.6178859e-01  -2.3549574e-01   3.4587732e-01   5.4917030e-01   7.6834356e-01  -5.7518721e-01  -8.1987831e-01  -1.7085029e-01  -4.9384034e-01  -1.7877940e-02  -2.4601534e-01  -5.5895083e-01  -9.4409371e-01   3.8635186e-01   8.6475704e-01  -7.5631513e-01  -9.7977421e-01   7.9730607e-01   4.2050965e-01  -5.6143890e-01   9.6832626e-02   4.0178702e-01   7.6245711e-01   1.4358152e-01   8.2504576e-01   9.6424233e-01  -6.6596998e-01   2.2421729e-01  -6.5248075e-01  -1.9998499e-01  -7.0319977e-01  -1.1301112e-02   9.0299853e-01   8.3291979e-01   5.1185846e-02  -8.7853025e-01  -6.4598658e-01   6.6339240e-03  -5.9399484e-01  -7.0825314e-01   4.7613731e-01  -6.8299225e-01   7.1574166e-01  -9.9108669e-01  -7.5559976e-01   3.0196071e-01   8.2958774e-01  -5.6807549e-01   7.0203648e-01   4.0647806e-01  -3.9810334e-01  -4.9282168e-01   8.6427373e-01   3.8822726e-01   6.7686171e-01  -6.4314833e-01  -7.7290607e-01   6.6640909e-01   5.5091226e-01  -5.5034541e-01   9.8589397e-01   4.0182056e-01  -5.8676613e-01   5.2037066e-01  -7.1322066e-01  -8.9124217e-01  -5.9353866e-01  -4.7569575e-01   8.0699435e-01  -4.1565690e-01  -7.7353173e-01   2.0755954e-01  -5.4304848e-01   8.8556713e-01   3.7770459e-01  -3.2774746e-01  -2.1733091e-01   4.5450550e-02   4.6646196e-02   6.1859200e-01   7.0496270e-01  -1.1974000e-01   9.8501220e-01   1.0916648e-01   1.9622525e-01   9.2239964e-01   5.8854934e-01   1.2939675e-01   9.6786478e-01  -6.1005595e-01  -7.7995601e-01  -5.0847687e-01  -2.3964900e-01   6.8397898e-01  -8.0062522e-03   8.6659725e-01   5.9301376e-01  -7.7466893e-03  -7.9876432e-01  -3.2415401e-01   5.3083502e-01  -1.6441742e-01   4.9518392e-01   7.8010235e-01  -3.0364676e-02   9.4636468e-01  -3.9979805e-02  -5.8077715e-01   4.1950946e-01  -8.8896365e-01  -7.5339143e-01   3.7523733e-01  -8.7200881e-01   3.5385371e-01   4.2790101e-01   3.6454031e-01   2.8537695e-01  -6.4567626e-01   4.0009060e-01   9.5362925e-01  -6.7659376e-01  -7.7660840e-02  -4.1854139e-01  -5.0151349e-01   9.1041215e-01  -4.6139910e-01   3.5389309e-01   2.0734191e-01  -8.6498006e-02  -9.4703965e-01   6.0264726e-01  -7.8258530e-01   8.2491948e-01   4.7999541e-01   2.0514346e-01  -7.1383599e-01   5.5714982e-01   5.9298922e-01   1.0140661e-01  -4.0789333e-01   4.6663489e-01   3.5433270e-01  -5.3186918e-01   5.6304502e-01   8.5716534e-02  -2.3919297e-01  -1.8717947e-01   3.8152390e-01  -9.7167399e-01  -7.5619665e-01   4.2324007e-01   3.9350602e-01   3.1936373e-01  -9.0276141e-01   3.7195971e-02  -8.3800736e-01   8.3658196e-01  -9.3795140e-01  -4.2896755e-01  -6.9833212e-01  -1.7226601e-02   8.5764964e-01  -3.5884081e-02   5.4999353e-02  -5.3766578e-01  -2.1164549e-02  -3.2942377e-01  -8.7646409e-01  -8.3185192e-01   1.9900977e-02  -7.5456156e-01   2.7841250e-01   5.8142012e-01   9.7832313e-01   7.5537032e-01  -1.7065290e-01   3.7808258e-01   4.9045716e-02   5.7223202e-01
  -6.9217045e-01   6.8553318e-01   2.6868802e-01   8.9707085e-03   7.4842186e-01  -7.8085072e-01  -8.7142801e-01   5.6288903e-01  -1.9080529e-02  -2.0379918e-01   1.2408177e-01  -1.4159527e-01   4.4625689e-01  -3.6203158e-01   5.6018584e-01  -7.4142487e-01   8.7859102e-01  -8.8961198e-02  -1.2112085e-02   1.5602868e-01   9.0110257e-01  -6.4087358e-02   2.2453802e-01  -3.8262385e-01   2.0390290e-01  -7.1962682e-02  -4.0397916e-02  -1.5978630e-01   6.4248381e-01  -5.7970300e-01   1.2850150e-01  -3.8272507e-01  -3.0432814e-01  -5.0926824e-01   1.5263206e-01   6.7408125e-01  -7.7003029e-01   7.4419223e-01   4.6280635e-01   2.0721701e-01   7.1715596e-01  -2.7480950e-01   7.4850408e-01   5.3523037e-01  -4.8897628e-01   8.8671377e-01   4.4997790e-01   5.6859878e-01   3.2839967e-01   3.3006489e-01  -3.6303968e-01   4.0360219e-01   6.5720303e-01  -6.5784598e-01  -9.1849810e-01  -5.0343627e-01  -5.8778196e-01  -8.2234139e-01  -1.3707143e-01   6.0584312e-01  -4.5484654e-01   7.3073436e-01   4.5379456e-01   4.8063094e-01  -2.6105408e-01  -4.8665850e-01  -3.3406056e-01   1.9043357e-01  -7.7467495e-01  -7.2928771e-01   9.9034760e-01  -2.1918266e-01  -8.0814034e-01   4.0410809e-01   1.4316097e-02  -8.6689275e-01  -4.2785442e-01   9.7652672e-02  -5.4729533e-01   2.4685699e-01  -4.2791039e-01   5.3565792e-01   8.2143307e-01  -2.5906550e-01  -4.4138946e-01   3.8316609e-01   4.0605532e-01  -3.7662882e-01  -1.7629280e-01  -2.8538754e-01  -9.5370549e-01  -2.4002586e-01   2.8086225e-01   9.2036272e-02  -5.0343402e-01  -4.0108708e-01   4.2776216e-01   2.9170118e-02  -3.9806158e-01   6.5367906e-01   4.6267851e-01   9.8697485e-02   9.3732947e-02   1.5583938e-01   9.0605935e-01  -7.8652575e-01   4.9526078e-01  -4.5234127e-01  -7.2934950e-01   7.1491806e-01  -8.8355245e-01  -7.5413538e-02   7.3807365e-01   9.6804030e-02   6.5293523e-01  -5.2587590e-01  -7.3163914e-01   3.5269168e-01   5.8182837e-01   7.9311637e-01  -8.0765103e-01  -5.5733018e-01   4.8461751e-01  -4.9552084e-01   2.8548916e-01   9.3191449e-01   9.7466701e-02   1.4819410e-03  -6.3366191e-01  -7.4218574e-01  -3.1511512e-01   6.7335543e-01   5.0700159e-01   7.0163971e-01  -7.1839836e-01   9.5032660e-01   1.7473284e-02  -5.7354618e-01   1.0778316e-01  -2.2569900e-01   3.2759996e-01  -5.3975202e-01   1.5013026e-01  -6.4983207e-01  -8.4476559e-01   7.8054758e-01  -6.5965596e-01   6.5960906e-01   6.3253989e-01   1.7440946e-01   8.3832333e-01   3.5947903e-01   2.8567961e-01   8.4440796e-01  -3.0430903e-01  -8.8054778e-01   4.6200976e-01   3.9189521e-01  -2.7607529e-01   9.9921275e-01   5.2335852e-01   3.9380274e-01   1.8956150e-01  -1.8532997e-01   7.1097262e-01   7.4875812e-01  -6.6470593e-01  -2.9818732e-01   1.2499263e-01  -1.1314206e-01  -6.1945755e-01   5.8010478e-01   1.1363719e-01   7.5693364e-01   2.0682549e-01  -9.2309455e-01   5.0550223e-01   5.1267854e-01  -5.8123520e-01  -3.0172325e-01   9.2014175e-02  -5.3644717e-01   6.9669623e-01  -3.8038371e-01  -3.9053383e-01   2.4110381e-01   4.5185999e-01  -1.5506169e-01   9.6978519e-01  -4.5432532e-01  -5.7241653e-01   4.9442607e-01   4.4210574e-02  -5.0911767e-01  -7.1123622e-01  -3.8679526e-01   8.5752326e-02   7.9663288e-01   6.2593989e-01   1.9768408e-01   9.0613756e-01   4.4117873e-01  -2.3147380e-01   7.3146680e-01   4.3805246e-01  -1.2310962e-01  -3.1416185e-01   7.8814373e-01  -4.5179633e-02   6.9878112e-01  -3.9827303e-03   3.8886911e-01   4.2202686e-01  -8.1152593e-01  -2.5241268e-01   5.0908005e-02   7.6301019e-02   7.7134291e-02   5.8439506e-01  -2.3822572e-01  -1.0546741e-04  -8.3149282e-01   3.7970583e-01  -1.1964535e-01  -9.2842479e-01  -8.6364115e-01  -9.4118256e-01   1.4850034e-01  -7.8861001e-01   7.4503113e-01  -5.4545427e-01   9.4883467e-02  -9.7186263e-01  -9.3093687e-01  -6.3828173e-02   4.9507985e-01   6.9018942e-01   5.8777538e-01   1.6273065e-02   7.9144639e-02   3.2065455e-01   3.6299068e-01  -6.6254328e-01  -6.1496678e-01  -2.9216918e-01  -2.4555974e-01   4.1176103e-01   9.8959266e-01   1.1165794e-01  -4.9462361e-01   6.5583423e-01   6.7509340e-01  -9.2440007e-01  -7.4339940e-01  -3.5689105e-01  -1.9284016e-01   2.4698613e-01  -8.7521966e-01   3.1123772e-01   1.3095728e-01   2.6132786e-01  -8.2573045e-01   6.1015594e-01   2.1331972e-01   9.6633838e-01  -4.1896684e-01  -8.0690696e-01  -7.7062711e-01   1.1129159e-01   1.8547548e-01  -1.1983704e-01   1.4296844e-01   8.7119827e-01  -1.9914479e-01  -7.5887347e-02  -8.8387265e-01   7.1577045e-01   5.3591349e-01  -2.1023468e-01  -3.2891791e-01  -1.8357521e-01   2.2570138e-01  -2.5550174e-02   4.3974594e-01  -3.6121754e-01  -9.9864036e-01  -3.0737128e-01   6.9663818e-01   3.6032472e-01  -5.5387308e-01   2.5101725e-01  -1.9468512e-01   3.6530952e-01  -4.3142641e-01  -6.8919335e-01  -7.9626370e-01  -8.5705229e-01  -2.5741751e-01  -5.0337181e-01  -8.0726352e-01  -5.6714923e-02   1.2311878e-01   5.7657917e-02  -8.7636003e-01  -7.8771146e-01  -7.8663601e-01   8.5159501e-01  -9.1373337e-01   5.7966424e-01   4.8008108e-01  -3.5471182e-01  -4.1121593e-02  -2.7598762e-01  -8.3204782e-01  -7.3238825e-01   9.8358821e-01   5.3097244e-01   9.1549806e-01  -1.5439982e-01   4.3801838e-01  -2.0819795e-01   7.5274229e-02  -6.0069238e-01   1.6195690e-01   5.8276471e-01  -9.3959484e-01  -4.7104277e-01  -2.5599663e-01   4.1697919e-01  -6.8699606e-01  -3.6356018e-01   6.0666040e-01   4.9595659e-01  -2.8253163e-01   5.7881289e-01  -2.8741394e-01  -4.8361163e-01   7.9873648e-01  -5.1701430e-01   9.5784096e-01   9.5107703e-01   5.7200017e-01   8.6351721e-01   8.8255832e-01   8.4962062e-01   8.6815753e-01   8.6996344e-01  -6.4996340e-01  -8.3292103e-01  -6.7803078e-01   8.0639444e-01  -5.5200113e-01  -5.3259976e-01   4.4201722e-01  -1.5234175e-01   9.7822393e-01   4.9199077e-02  -7.9349710e-01   9.9961101e-01  -5.3971676e-01  -3.6978457e-01   8.1990245e-01  -4.3217946e-01  -5.7156213e-01   8.7992398e-01   4.3386702e-01   1.4191537e-01   1.0467308e-01  -6.7804566e-01   3.8705711e-01   6.2614225e-01  -4.9381369e-01  -8.5399733e-01  -2.2240048e-01   1.1857747e-01   4.6694829e-01   6.6089952e-01  -9.7374965e-01  -1.7848466e-01   5.9436089e-01  -6.8759369e-01   5.0290409e-01   8.1145592e-01  -8.5941448e-01  -9.7645846e-01   6.4294885e-01  -2.7798596e-01   6.2139726e-01   5.2271317e-02   8.5166244e-01  -3.6194002e-01  -9.3274943e-01   5.6804055e-01   2.8989707e-02  -3.0244163e-01  -7.7334407e-01  -4.2217305e-01   3.2880089e-01  -9.3795754e-01  -9.0776729e-01  -7.5327004e-01  -3.5100853e-01   7.0783454e-01   9.1794802e-01  -8.8910183e-01  -9.7788646e-01  -5.8074394e-01   3.5594308e-01   2.9184022e-02  -1.0169919e-01  -5.5920076e-01   2.4613445e-01  -6.7516263e-01   3.4928449e-01  -2.0695932e-01   6.3110652e-01   5.8769619e-01   7.3855493e-01  -9.6975104e-01  -2.6012244e-01  -2.5074656e-01  -2.1895490e-02  -2.7160315e-01  -5.3729791e-01   9.7268875e-01   6.4234039e-01  -9.6295829e-02   6.5634611e-01   6.9875687e-01  -5.5955592e-01   6.1551931e-01   1.9774854e-01  -6.6377579e-02   8.7065747e-01  -1.9027552e-01   3.5097469e-01   1.5040921e-01   9.8265780e-01   9.1867634e-03  -9.1978400e-01   2.3668728e-01  -2.7920555e-01  -8.0641925e-01   3.6492929e-01   7.5140878e-01   1.6873102e-01   9.7865274e-01  -9.1041424e-01  -3.1735363e-01   7.9760839e-02   8.1558152e-01  -4.7380420e-01  -4.4842098e-01  -5.9434392e-01   7.3772116e-01  -6.3685751e-01  -8.9516390e-01   8.7080373e-02   2.3767852e-01  -8.2956607e-01  -1.1344398e-01  -1.9615543e-01  -1.8988936e-01  -4.9154205e-02   5.3754232e-01   2.2041791e-01  -2.0277037e-01  -5.4924225e-01  -1.4853500e-01  -6.9778329e-01   8.6792254e-01   1.1216373e-01  -5.5851063e-01   6.9077845e-02   8.2578885e-01   3.8228633e-01  -7.5350471e-01  -4.1661298e-02  -3.0962505e-01   3.1293868e-01   7.0922341e-01   2.6958025e-02  -9.2951680e-01  -2.6382803e-01  -4.4180162e-01  -3.2285998e-01  -7.2102183e-01   3.0015158e-01  -5.1001403e-01   8.6993679e-01   5.1056927e-01   9.9613669e-01  -4.6618591e-01  -4.5375504e-01   8.7804118e-02  -9.5085302e-01  -4.8750539e-01   2.3503178e-01   1.9338330e-01  -9.0322948e-01  -8.4558562e-01   1.6472892e-01  -2.6612290e-01   6.4629249e-01  -5.2455869e-01   5.2224500e-01   7.4623801e-02   1.4199655e-01   7.6172844e-01   2.9122226e-01   8.1356754e-01  -5.9366787e-01   7.3121506e-01  -3.3779682e-01  -2.4175574e-01   4.4603126e-01  -1.0176750e-01   7.1712909e-01  -8.4245073e-01   8.3998776e-01  -4.0650288e-01  -8.1277772e-01   4.2264815e-01   7.4290289e-01   8.5196372e-01   2.1957839e-02   2.9287021e-01  -7.0133713e-02  -4.2029938e-01   5.5399526e-01  -3.2553656e-02  -5.4463020e-01  -1.5558335e-01  -4.3325159e-01   5.0768558e-01  -2.4357248e-01  -1.0481111e-01  -8.5362363e-02  -1.7267047e-01   6.5983944e-01  -5.7440924e-01   5.4448584e-01  -4.2310123e-02   4.4268431e-01  -9.8392787e-01  -1.9220796e-01   2.3068947e-01   5.8434770e-01   6.3868029e-02  -6.8972887e-01  -2.5070890e-01  -2.3747128e-01   3.6414012e-01  -5.2941432e-01   2.0454137e-01   5.2571456e-01   8.5542703e-01   9.4676067e-01   6.5200760e-01  -2.9817148e-01  -9.6423284e-01  -4.5455231e-01   6.1559160e-01   2.2607205e-01   4.0763495e-01  -9.7388849e-01  -9.7483825e-01   1.0424162e-01  -4.6660871e-01   1.5352200e-01  -5.3127999e-01  -1.2050167e-02  -4.1710435e-01   3.1900912e-01   1.2270563e-01  -8.7476868e-01  -5.7231968e-01   1.6124521e-01  -3.0017731e-01   6.3070364e-01  -3.7463471e-01   3.7030414e-01   3.9724772e-01  -8.2757993e-01  -3.7807877e-01   7.5324863e-01  -1.9722161e-01  -7.6692555e-01   5.6717800e-01   1.9472086e-01  -4.7155855e-02  -1.0632542e-01  -9.3986660e-01   4.0448124e-01   6.5224505e-01   9.3383359e-01   1.7294264e-01  -1.8202687e-01  -8.4166805e-01  -5.0898169e-02  -8.7085691e-01  -3.2610649e-01  -3.3046804e-01   2.3263657e-03   8.8863503e-01  -9.5569386e-01   7.6275900e-02  -5.9734644e-01  -1.5426021e-01  -7.9102790e-01   2.1206780e-01  -5.9648025e-01   2.7717119e-01  -7.0535230e-01  -1.5957919e-01  -5.5112800e-01   7.8908398e-01   6.4438332e-01   2.1018614e-02  -3.6751053e-01  -5.0157279e-01  -3.6355875e-01  -6.0644782e-01  -7.7658296e-02  -5.4422411e-01   5.4986154e-01  -4.4336584e-01  -2.7884145e-01   9.9665021e-01   2.3742921e-01   4.4189174e-01   9.5709506e-01  -1.0988345e-01   3.4092312e-01  -7.8283653e-01  -6.5824501e-01   8.3622289e-01   2.4984883e-01   4.8181644e-01  -5.7274110e-02  -9.5246085e-01  -2.6690856e-01   3.6242386e-01  -2.2279858e-01  -1.4723249e-01   8.8815923e-01   4.4329515e-01   4.1875933e-02  -7.8296250e-01  -9.0535211e-01   3.3354288e-01  -6.9023775e-01  -9.5384297e-01   1.2575073e-02  -1.2753556e-01   3.6763989e-01  -1.1578979e-01   4.9660502e-01   8.0301816e-01   1.9848197e-01  -5.5399215e-01   9.5267797e-01   5.0338652e-01   6.5762475e-02  -9.5559142e-01   4.9331957e-01  -8.6722747e-01  -9.8463585e-01  -2.9807487e-01   6.7808441e-01  -2.6582319e-01   9.7982579e-01   2.7250945e-01   8.4295711e-01  -4.3974242e-01   1.7930744e-01  -5.4016939e-01   2.0861827e-01  -4.9197946e-01   7.6032800e-01   5.2610690e-01  -4.8154800e-01   3.9742904e-01  -1.0691341e-02  -9.2470318e-01  -1.6740440e-01  -1.4094831e-01  -5.2736573e-01   9.8183731e-01  -8.4003414e-01   4.9730956e-01  -4.0233887e-01  -5.7108907e-01  -7.0995312e-02  -3.0703270e-01  -5.1568688e-01  -5.9816168e-01  -8.7753257e-01  -7.5845460e-01   6.3217091e-01  -5.2161503e-01   7.6578202e-01   2.0123856e-01  -5.5536074e-01   1.4961316e-01  -7.1579076e-01  -4.3281094e-01   9.7120474e-01   3.3112916e-01  -8.9736950e-01  -1.5415921e-01   5.1825297e-01  -6.8803737e-01  -4.9225312e-01  -3.8776152e-01   9.5460802e-02  -5.0168444e-01  -5.3221796e-01  -3.0963900e-01   6.8438681e-01   6.4520780e-01   6.2194635e-01  -5.1059428e-01   2.6763467e-01  -7.1592718e-01   8.3239611e-01  -2.5928896e-01   7.8166203e-01  -7.4056740e-02  -5.8163303e-01  -2.9704198e-01   7.3557240e-01  -5.4824560e-01   2.4697023e-01  -5.0430532e-01   8.4035226e-01   5.0764834e-01  -2.4459523e-01  -1.2673388e-01  -9.3330877e-01  -8.5193086e-01  -5.7017033e-01  -9.6431793e-01   9.4325943e-01  -5.6224563e-02  -8.2096708e-01  -7.8940986e-03   4.2939606e-01  -5.3789520e-01  -9.0676583e-01  -6.9440126e-01   1.3208496e-01   1.3951647e-01   7.3757992e-01  -4.2688332e-01   5.5833810e-01  -6.7919676e-01  -7.6195442e-02  -5.4699761e-01   4.4631481e-01  -2.1817936e-01   5.6191929e-01  -3.5032117e-01   8.3589066e-01  -2.1432236e-01  -4.9845462e-01   3.1488035e-01  -3.2438194e-01   7.4547587e-01   7.8789831e-01   2.2624924e-01  -5.0977066e-02   8.1700124e-02  -5.0804045e-01   4.0031396e-01   5.9091137e-01  -7.9162362e-01  -3.6606221e-01  -1.0912802e-01  -2.1232115e-01   3.4419016e-01   2.7206779e-02   5.9113136e-01   7.5523015e-01   4.0932796e-02  -5.4504589e-01   6.0802544e-01  -9.8391024e-01  -9.5770014e-01  -8.3300328e-01  -9.1068880e-01  -6.2789507e-01  -8.5043602e-01  -6.3457112e-01  -7.7366734e-01   1.7293650e-01  -8.8990346e-01   5.6755988e-02   1.0274400e-01  -7.4710100e-01   4.7445746e-02   1.6203116e-01  -5.0847634e-01  -5.5053471e-01  -1.4095294e-01  -6.4111432e-01   2.0826432e-01   3.1993988e-02   5.9231337e-01  -5.1172070e-01  -2.6260859e-01  -7.5047086e-01  -9.7611287e-01  -8.0997836e-01  -2.8304273e-01   9.6059528e-01  -9.3225253e-01   4.1827106e-01   4.2750699e-01   1.9493042e-01  -6.1530674e-03   3.7375558e-01  -2.9215162e-01  -4.3565132e-01   3.7937989e-01  -3.8068791e-03  -2.7171101e-02  -1.4271598e-01  -1.7606699e-01   8.3993542e-01   5.3752273e-01  -5.5368323e-01   8.9800988e-01   5.9499813e-01  -2.9628092e-01  -7.8343720e-01   1.7095499e-01  -9.6388159e-01  -5.8478796e-02  -5.3267571e-01  -5.7598037e-01   6.8807442e-01   3.1275658e-01   3.2469225e-01  -1.9968355e-01  -1.1747141e-01  -6.5830494e-01  -3.5348803e-01   1.9912263e-02   6.3587923e-01  -2.9196239e-01  -1.4626537e-01   9.4724581e-01  -8.0825986e-01  -3.3442265e-01   5.8264549e-01  -6.6888239e-01  -6.4123301e-01  -7.0399642e-02   1.2623801e-01   6.3640411e-01   8.6166395e-01   5.8738664e-01   4.2912989e-01   7.0722547e-01   9.0816090e-01   5.3559437e-01  -6.1634750e-02   8.7971268e-01  -2.5711053e-01   3.2998387e-01  -8.3580260e-01  -2.6007730e-01   8.6491395e-01  -5.3633852e-01  -2.6691922e-01   2.2312681e-01   7.8613443e-01  -5.8894055e-01   8.8978733e-01  -1.7624318e-01  -1.8276298e-01   4.9241926e-01   8.1132075e-02   5.6340162e-01   4.9554220e-01   9.7612348e-01   5.6838199e-01  -8.0129415e-01   2.1643998e-01   4.6437529e-02   4.1765692e-01  -7.4848989e-01  -7.3675827e-01   4.5069996e-01   9.8506640e-01  -2.7295932e-01   3.0602761e-01   3.2450732e-01   7.8157939e-01  -3.2218775e-01   7.2460910e-01  -7.8775155e-01   5.5065825e-01   1.4430302e-01   7.8620444e-01   6.3230154e-01  -8.3465067e-01   1.4608746e-01  -9.4877319e-02  -3.5027502e-01  -7.7124380e-01  -3.9307669e-01  -1.4750086e-01   1.8317511e-01   8.2894802e-02   9.4460989e-01  -9.1433768e-01  -4.7562300e-01   9.1071063e-01  -5.6592329e-02   5.2419777e-01   2.5587487e-01   4.8558731e-01   7.5260090e-01   4.2181158e-01   8.0402403e-03   2.6205066e-01  -6.5332554e-01   8.1770367e-01  -9.5363215e-01   2.2541574e-01   4.3550584e-01  -9.5024414e-01  -3.8284201e-01   2.6818680e-01   8.1544594e-01   2.3547098e-02   5.9261336e-01   7.2355878e-01  -7.3373345e-01  -6.9327391e-01  -7.0213226e-01  -5.4665518e-01   2.0469882e-01   1.3921426e-01   8.5599706e-01  -8.9577649e-01  -3.6130062e-01   9.0425350e-01  -2.7503876e-01   5.0518198e-01  -9.6641597e-01   2.0947863e-01  -8.1307388e-01   3.9718338e-02  -4.8402832e-03  -7.5557587e-02   3.9481066e-01   6.0405343e-01  -5.4867742e-01   1.3593352e-01  -8.8372950e-01   8.5355046e-01  -4.0322044e-01  -1.4928402e-01   6.2635619e-01  -8.2213340e-01  -5.4019817e-01   1.0947774e-01  -7.7473149e-01  -2.5206398e-01   6.4795157e-01   9.8335502e-01  -4.0491568e-01  -4.7023125e-01   8.4753040e-01   6.5679225e-01   2.6176228e-01  -4.9765224e-01  -2.3175982e-01  -2.3672836e-01  -4.9112862e-01  -2.0743050e-01   4.8085933e-01   2.6116002e-01  -4.2005772e-01  -1.8570584e-01  -7.6015946e-01   4.2505770e-01  -1.2870909e-01   4.3463506e-02   1.9909842e-01   6.0835474e-01   8.6875264e-01   1.1035452e-01  -7.3488519e-01   7.1999110e-01  -7.2899930e-01  -8.1189957e-02
