  -6.5215796e-01   2.6754304e-01  -5.2399283e-01   6.5805161e-01  -6.5755762e-01  -1.5477934e-01   6.5097852e-01  -3.2808719e-01   4.2716740e-01   5.8999078e-01   7.9533295e-01  -8.1885439e-01  -2.3981959e-01  -9.6789404e-01   1.2710517e-01  -9.5174070e-01  -2.0133860e-01  -8.5374443e-01   4.9518265e-02  -1.2453988e-01   9.6099669e-01   7.2990021e-01   7.6108252e-01  -6.0918079e-01  -5.2806431e-01   9.3907683e-01  -4.3658210e-01  -1.1397493e-02  -2.6582440e-01  -4.1705299e-01  -1.5962914e-01   1.6933135e-01  -8.4378245e-01  -9.9756446e-01  -5.0378400e-01  -8.6087738e-01   2.1026579e-02   6.9595428e-01   4.6289699e-01  -8.7480651e-01   4.8927374e-01  -6.2423038e-01   1.1287938e-01   4.0521763e-02   7.1192930e-01  -2.6596325e-01  -8.8164551e-01   5.6199549e-01  -7.7650045e-01   5.1247067e-01   8.1602258e-01   2.2018125e-01  -5.1728631e-01   1.4640916e-01   2.2207785e-01   4.2379302e-01  -4.8118609e-01  -9.3357664e-02   4.1571628e-02   8.7275976e-01  -7.5397962e-01  -4.6588677e-01   3.8385672e-01  -4.3973836e-01  -6.4488117e-01   6.2761659e-01   4.6518692e-01   6.9908137e-01  -7.6295916e-01   5.4796974e-01   2.4762490e-01   9.1214336e-01  -7.1007752e-01  -7.8716758e-01   6.0822731e-01   2.5126754e-01  -1.4119451e-01   5.0673689e-01   8.2537793e-01  -5.4941600e-01   6.7209183e-01  -1.8722981e-01  -9.8168086e-01  -9.3457446e-02  -9.5395976e-01  -2.2275096e-01  -7.3544629e-01  -2.7653766e-01   3.5995229e-01  -1.5730820e-01   1.7742234e-01  -5.9238800e-01   5.0707199e-01   5.0233572e-01  -2.5706877e-01   8.8629324e-01  -4.6504426e-01   2.6068282e-01   2.5190816e-01  -8.1037194e-01  -5.3225654e-01  -6.0778227e-01  -8.1569857e-01  -2.1467495e-01   9.6045862e-01  -7.3798649e-01  -7.3937119e-02  -7.1733386e-01   6.9841209e-01  -1.9053967e-01   2.4317460e-03   1.2373665e-01   1.8686221e-02   8.8229588e-01   6.7466601e-01   8.3394324e-01  -2.3581334e-01  -9.9880597e-01   4.1604971e-01   9.5312310e-02  -8.4243200e-01   9.4536305e-01  -9.3665764e-01   4.4983196e-01  -2.3665257e-01  -6.9535762e-01   1.3621389e-01  -9.6980925e-01  -7.4965145e-01   8.9952446e-01   5.4534401e-01  -4.6980450e-01   1.8543218e-01   2.0934050e-01   2.1537450e-01   8.6077738e-01   9.6868748e-01   9.7237004e-01  -4.4562019e-01   1.2144444e-01   3.6632445e-01   8.0249481e-02  -4.5262233e-01  -7.2870037e-01   8.7914906e-01  -7.2912014e-01  -2.7418536e-01  -8.9530729e-03  -3.3689177e-01  -8.8982619e-01  -5.8383490e-01   2.5468041e-01  -4.5779563e-01  -4.8407296e-01  -1.9691793e-01   1.8566163e-01   1.1444072e-01  -4.3603770e-01   4.5397447e-01  -6.7310570e-02   4.6885088e-02   8.3792048e-01  -7.3053399e-01   1.6371131e-01   2.3177533e-01  -7.8967030e-01  -1.4291932e-02  -6.5815192e-01  -2.1466562e-01  -6.0976141e-01   5.1858007e-01   7.3234605e-01   4.4982527e-01   8.1183639e-01   8.9532509e-02  -5.2505320e-02  -8.8829351e-01  -1.1174706e-01  -1.7366068e-01  -3.8599076e-01   3.2611401e-01  -7.4889406e-01  -3.2560190e-01   7.0523369e-01  -2.3031842e-01   2.8171176e-01  -8.2393062e-01  -1.4682035e-01  -3.2842603e-01   7.1275797e-01   6.9262985e-01  -5.2678330e-02  -1.8805815e-01  -8.1287835e-01   7.3570426e-01  -2.5707695e-01   5.0545889e-01  -4.7693279e-01  -7.6575155e-01   3.4981956e-01   6.2212727e-01   8.7074849e-01  -8.7203222e-01   9.9397549e-01  -2.2212578e-01   3.7382214e-01   2.3672108e-01  -7.6346317e-01  -2.0589506e-01   5.7920691e-01   4.9542305e-01  -3.7747074e-01  -7.9483641e-01   9.7553448e-01  -1.3867506e-01   1.4627924e-02  -6.4734132e-01  -6.0096487e-01  -9.2014105e-01  -8.8199417e-01  -4.0864874e-01   3.8991445e-01  -2.3074032e-01  -7.1554428e-01  -6.5385418e-01  -3.6398688e-01   5.8892915e-02  -3.7508872e-03   9.0195578e-01   7.3497593e-01  -4.3220265e-01  -5.3430718e-01   3.2578970e-01   6.5177019e-01  -5.2470397e-01   7.4825540e-01  -5.3537977e-01   9.1519591e-01  -5.5145659e-01   7.2838144e-01  -3.0368345e-01  -7.2009070e-01  -9.8698029e-01   7.4754932e-01   5.5448392e-01  -9.0963806e-01   8.9813189e-01   5.1943166e-01   4.2859903e-01  -3.9428890e-01  -1.3638630e-01   5.7081755e-01   9.0754397e-01   8.6648408e-01   5.9438187e-01   2.3086558e-01   6.0663152e-01  -1.5502112e-01  -5.0864509e-01  -6.2991600e-01  -1.0433378e-01  -6.8953915e-01  -8.6659856e-02   1.3565116e-01  -3.4100548e-01   4.9316907e-01   1.7314017e-01   2.0599739e-01  -8.2869067e-01  -9.0984857e-01   5.4464643e-01  -4.3039246e-01  -5.9309932e-01   3.0756591e-01   4.8761882e-02   5.6372051e-01   5.4347923e-01  -2.4083021e-02   1.7166458e-01  -6.9942302e-01  -6.4118180e-01  -3.3976328e-01   7.5258146e-03   6.2322108e-01   7.2556749e-01   8.6069176e-01   5.1944697e-01   8.5447420e-01  -7.5479414e-02  -1.3969079e-02   2.1754583e-02  -8.9777325e-01  -7.2886706e-01   7.2933623e-01   4.0033697e-01   6.7447178e-01  -6.3826571e-01   6.4787139e-01   3.1997505e-01   5.9009420e-02   1.6560476e-01  -2.0331168e-01   9.0792254e-01  -7.9301215e-01  -5.7880781e-01   5.3503338e-01   4.7732160e-01   9.0766208e-01   6.2970418e-01   3.2993070e-01  -5.6235825e-01  -8.4284725e-01   8.7465992e-01  -3.9767356e-01  -5.4870531e-01   5.7779057e-01   6.4351401e-01   2.9554649e-01  -3.8136342e-01   8.1508696e-01   9.3001677e-01  -5.9845149e-01  -4.7211614e-01  -6.0622151e-01   8.4268826e-01   2.9685665e-01  -7.4320960e-01  -6.3031502e-01   4.5224497e-01   2.8322110e-02   1.6781880e-01   2.1443882e-01   7.5294626e-01  -9.3047067e-01  -4.9072645e-01  -2.0165853e-01   9.5474553e-01  -4.8878772e-01  -2.4572400e-01   8.3403346e-01   8.6332897e-01  -9.1157765e-01  -7.9609137e-01   5.0652389e-01   4.6594605e-01  -9.2892623e-01  -3.2142189e-01  -9.9376467e-01  -2.3808570e-02  -5.9406516e-01  -6.2533226e-01  -3.7827522e-01   6.4537065e-01  -9.6217509e-01  -3.7045147e-01   4.7735484e-01   3.0434867e-01   3.1872004e-01  -3.7284540e-01  -4.2251105e-01   1.3539169e-01   3.8829015e-01   2.6713711e-01  -3.7749057e-02   8.8255279e-01  -2.7506912e-01  -8.3075555e-03  -2.5494980e-01  -4.1230150e-01   7.2046422e-01  -3.3261810e-01   3.2113082e-02   2.0535125e-01  -6.6611287e-02   9.1293814e-01   5.4118124e-01   5.5952983e-01  -2.2133832e-01   1.0956215e-01  -4.6845194e-02  -5.8033606e-01   8.1388007e-01  -4.9611964e-01   6.7123461e-01   7.2191917e-01  -5.6416402e-01  -4.8666842e-01  -5.6574929e-01   9.9119756e-01   8.5434061e-01   8.2291924e-01  -4.9854192e-01  -3.8495834e-01  -4.6024348e-01  -8.1140518e-01   1.0456054e-01   4.0674427e-01   6.8909204e-01  -2.7779386e-01  -1.1926773e-01   3.7187839e-01   9.6148327e-01  -4.9727175e-01   8.0963753e-01   1.7319635e-01  -7.1771113e-01  -4.3267021e-01  -2.2658935e-01  -8.8518742e-01   2.0226214e-01   9.3019781e-01   6.4590483e-02  -1.2610752e-01   4.5179987e-02   7.9530990e-01  -6.7105677e-01  -8.7577186e-01  -7.8707252e-02  -3.6720983e-01   5.4435391e-01   6.4038283e-03   1.5630555e-01  -7.4166677e-01   1.9633534e-01  -2.1855665e-01   1.7027062e-01   2.9479312e-02   2.5109218e-01  -6.2939827e-01  -4.6788732e-01  -5.3452190e-02  -9.8766651e-01   5.9026692e-01  -1.2923158e-01  -9.9472527e-01  -3.1938573e-01   3.6371126e-01   6.7142548e-01  -7.6219170e-01  -2.3483955e-01   2.7433365e-01  -8.1814572e-01   5.9598660e-01  -3.0146064e-01  -4.1952489e-01  -4.8083570e-01   6.6336852e-01  -9.2231578e-01   2.8026213e-01  -4.1080260e-01   1.3865147e-01   6.1351994e-01   2.6416538e-01   1.8445761e-01   4.0359932e-01   8.0203510e-01  -3.3278205e-01   3.3457364e-01   5.1368571e-01  -8.4890853e-01  -9.5317952e-01   1.1627124e-01   4.5274877e-01   3.2870197e-01   2.9238219e-01  -9.5313323e-01  -3.2298880e-01  -2.3847071e-01   9.3494187e-01   7.6107289e-01   2.3244423e-01   1.8625725e-01  -1.9707201e-01   4.5664132e-01  -3.8423839e-01  -9.8039619e-01   3.2547460e-01  -3.8394955e-01  -5.2441290e-01   2.3837345e-01   5.7276616e-01   6.2294113e-01  -7.1830639e-01  -6.2416918e-01  -4.2608459e-01  -4.5181029e-02   2.6801755e-01  -5.4545959e-01   7.9957738e-01   4.5050514e-01   7.4950640e-01   3.9957551e-01  -1.3964584e-01   6.8999431e-01   8.0797585e-01   9.7395805e-01  -5.3220792e-01   4.1875380e-01  -5.9127280e-01   4.0823447e-01   7.1138296e-01   8.0998747e-01  -5.7036441e-01  -2.2065961e-01  -9.2223001e-01  -7.7669242e-01  -8.1370241e-01   3.6658767e-01  -2.9240513e-01  -7.4143087e-01  -4.5701212e-01  -1.6093678e-01  -9.5179780e-01   5.8844109e-01  -7.6738655e-01   6.6583612e-02   6.2103997e-01   5.5189266e-01   3.6371342e-01   1.5883664e-02  -5.4061040e-01  -4.7139416e-01   9.4155646e-01  -3.8638999e-02   7.4216686e-01   2.0514084e-01   8.2026612e-01   6.6836407e-01  -9.1356935e-02  -9.7478137e-01  -6.4883294e-01   9.3687501e-01  -8.7328270e-01   7.1629545e-01  -7.3586342e-01  -4.8951450e-01   6.4672699e-01  -4.9497687e-01   3.2871868e-01   6.1291000e-01   4.9338149e-01   9.5986464e-02  -5.1073579e-01   3.4523102e-01   6.7461154e-01   6.8541659e-01  -5.1395225e-01   5.8483340e-01  -9.4292997e-01  -3.5724195e-01  -4.7322284e-01  -4.7144631e-01  -8.5055041e-01  -3.6916710e-01   4.3012261e-01   4.9731213e-01   5.1280711e-01   5.8766780e-01   7.2633158e-01  -7.3436341e-01  -6.0615919e-01  -4.0413217e-01  -9.6554666e-01  -9.6889851e-02   4.6859504e-01   5.6976715e-01   1.7916276e-01  -3.1884239e-01   2.1256054e-01  -9.7472873e-01   7.4146755e-01  -4.4858958e-02   9.2356213e-01  -1.7777695e-01   1.0999953e-01   6.8519107e-01   3.6966049e-02   6.9547427e-01   2.2433788e-01   4.0485968e-01   6.3507668e-01  -3.2229365e-01  -5.4064883e-01  -5.7268147e-01  -2.3543877e-02   6.0090271e-01   6.7505908e-01   4.7451352e-02  -5.7834960e-02   5.8289656e-01   8.7002713e-01  -9.3356667e-02   5.1915968e-01  -7.4431566e-01   8.7667484e-01   7.2953245e-01   4.7045411e-01   9.4137178e-01  -5.5766540e-01  -2.4198495e-01   9.9195920e-01  -6.7394638e-01  -5.8564592e-01   5.7172392e-01   2.9272577e-01  -9.5667356e-01  -2.6027581e-01  -8.2354251e-01   5.4237955e-01  -2.5910863e-01  -9.8777619e-03  -5.1498820e-02   1.6629519e-01   6.2477361e-01   8.8731225e-01  -6.0222663e-01   9.0997434e-01  -6.6592449e-01  -3.2618885e-01   8.5630660e-01  -4.4516619e-01   5.8574142e-01  -3.7925019e-01   8.5382638e-01   7.2668559e-01   2.3102459e-01  -9.9323060e-01   2.5659369e-01  -7.1293533e-01  -2.6391789e-02  -6.0493113e-01   5.7481016e-01  -3.0477266e-01   8.1006991e-02  -5.3881776e-01  -3.1347075e-01   7.8513080e-01   1.1571871e-01  -7.0302988e-01   2.0457470e-01  -7.1473863e-01  -6.9281113e-01   5.5868568e-01   7.7951952e-01  -6.7754402e-01  -8.8442945e-01  -3.6201574e-01  -4.0492139e-01   5.1056853e-02   9.8158956e-01   3.4014581e-01   1.6792557e-01   2.1535937e-01   3.3391810e-01  -8.2298382e-01   2.0799006e-01  -3.8658142e-01   7.8540306e-01  -9.2682355e-01  -8.5262262e-01   7.7490732e-01  -4.1792926e-01  -3.0507124e-02   2.2030431e-01   9.7349348e-01  -6.5786238e-02   2.8221372e-01  -2.2178382e-02  -2.6752565e-01  -3.7735793e-01   6.9668898e-01   9.0109324e-01   5.7383648e-01  -6.0144396e-01  -3.4636136e-01  -7.6329051e-01   5.2855114e-02  -8.8065443e-01   4.9721300e-01   7.1044241e-01  -1.1953787e-01   8.9808570e-02  -7.1727893e-01   2.0281832e-02   7.2072462e-01   3.2114021e-01  -6.6974752e-01  -6.0914634e-01  -5.4066101e-01  -7.6436862e-01  -8.4241578e-01  -4.6429130e-01   9.1918474e-01  -8.8811065e-01  -2.2373969e-01   4.5355082e-01   4.7037274e-02   8.5736384e-01   7.1900204e-01  -8.8094056e-01   7.7625898e-01  -6.2316351e-01   7.9721425e-01   7.3774513e-01   7.8020077e-01   4.5588178e-01  -6.4002451e-01  -5.8130378e-01   2.8499765e-01  -2.5635118e-01   8.4226826e-01  -7.8414782e-01   1.8426693e-01  -6.6478711e-01   1.7329737e-01  -6.1243550e-01   7.2275734e-01   4.5703712e-01   7.2734794e-01  -5.9293962e-01  -5.4652404e-01  -3.9110877e-01   6.5515237e-01   8.2364762e-01   6.0858371e-01   1.9523041e-01   6.6192732e-01   6.9763929e-01   9.1218112e-01  -9.7122980e-01  -8.1480892e-01  -1.4313551e-03  -1.0299732e-01  -5.8333993e-03   7.2879739e-01  -1.8502121e-01   1.2921479e-01  -7.8911235e-01  -7.0355113e-01  -1.7787422e-01   2.4125085e-02  -6.9110259e-02  -1.6920659e-02   4.1308805e-01  -3.7448991e-02  -4.2050139e-01   6.5289062e-01   1.2723183e-01  -4.3989486e-01   6.0113178e-02   2.8329878e-01  -7.4307862e-02   4.5094726e-01   6.5490470e-01  -7.9797327e-01  -5.5101558e-01   5.1932746e-02   8.4320043e-01  -4.6854131e-01  -9.9053293e-01  -5.9046145e-01  -9.2431225e-01   4.5501470e-01   3.6360677e-01   4.3754967e-01   8.1324095e-01  -9.8671951e-01  -2.2353477e-01  -6.8078128e-02   9.2560416e-01  -5.0547441e-01   6.9302166e-01   8.9031999e-02  -1.9692565e-03   9.7774515e-01  -5.1021527e-01   3.0622278e-01  -6.3762386e-01   5.6720458e-01  -9.7799664e-01  -1.4440114e-01  -2.9286624e-01  -2.3923128e-01   6.7824637e-01   8.7487522e-01   2.2906376e-01  -5.3405848e-01   6.8039722e-01  -2.8905945e-01  -8.5853634e-01  -3.5665949e-01   1.1959700e-01   9.6669397e-01   6.0172034e-01  -8.3673872e-01  -6.9114756e-01  -7.0775494e-01   4.5646621e-01   8.0576373e-01   9.3918604e-01   9.3958871e-01  -9.6238926e-01  -1.8126251e-01  -7.8387676e-01   4.2177606e-01  -3.2076378e-01   8.6849338e-01   7.5905064e-02   3.1807828e-01   1.9612349e-01  -7.1420732e-01  -7.0397699e-01   8.7860445e-01  -1.4583036e-01  -3.6229034e-01   9.4019509e-01  -8.1503740e-01  -1.8202956e-01   9.0754719e-01  -7.0305200e-01   6.8705000e-02  -3.4386230e-01  -9.4708306e-01   9.1219880e-01   8.7605800e-01   9.7352992e-01   9.8979913e-01  -2.4560742e-01   6.3409555e-02   8.8040993e-01  -5.0086983e-01  -2.3289565e-01   9.2089383e-02  -5.5088832e-01   3.9629878e-01  -2.3495438e-01  -8.9136204e-01   3.3688761e-01  -4.0091928e-01   5.1010434e-01  -9.2977468e-01   4.4026125e-01  -6.4489541e-01  -9.4130803e-01   4.0986492e-01  -9.1111157e-01  -8.4831007e-01  -1.1033109e-02   4.3852615e-01   1.6376937e-02   8.3915563e-01  -8.4686456e-01   4.9693647e-01   2.8862774e-01  -9.8030812e-01   1.3804130e-01   6.5541842e-01  -5.8392355e-01   1.5054497e-01  -5.4314152e-01   6.2571614e-01  -6.0041770e-01  -1.3025237e-01   6.6607052e-01  -3.3143025e-01  -5.0601751e-01   1.2701944e-01   7.7740435e-01  -6.3876049e-01  -6.7405139e-01   7.4016752e-01  -8.0088872e-01  -3.9441450e-01   9.3715729e-01   7.4629492e-01  -5.2943501e-01   7.4108319e-01  -9.1516867e-01   2.1660697e-01   7.4592027e-01  -8.2025135e-01   3.2451860e-01   3.1531651e-01   5.5637696e-01   1.8395219e-01   3.1954624e-01  -4.5713645e-01  -2.2613961e-01  -1.3856804e-02   2.0782637e-02  -6.3442346e-01  -8.8436472e-01  -6.0349169e-03   1.3380197e-01   9.9124791e-01   2.0947307e-01  -7.3394991e-01   7.8850025e-01  -9.3434963e-01  -1.7690044e-01  -4.8621051e-01  -2.8908566e-01  -1.6088216e-01   3.1862429e-01  -2.5686522e-01   9.1970607e-01  -1.5004874e-01  -2.4525083e-01  -7.4060379e-01  -9.0442155e-01  -8.2604483e-02   3.4795608e-01  -4.6325039e-01  -1.3662573e-01  -1.9777814e-01  -8.9777289e-01  -5.4653668e-01  -2.2785279e-01   3.2779965e-02  -9.5058416e-01   1.8943440e-01  -9.8200813e-01   6.4739619e-01  -9.1967121e-01  -9.7004395e-01   9.8079444e-01   6.6312501e-01  -7.6850970e-01  -3.0705997e-01   7.6528826e-01   6.7230051e-01   4.5075363e-01   6.0962184e-02   5.8770502e-01  -7.8664873e-01  -7.0263862e-01   5.8574488e-01   3.8416543e-01   6.9679349e-02  -7.5144129e-02   4.4398280e-01  -6.3540512e-02   1.6728187e-02   3.5691406e-01   2.5216327e-01   2.4438384e-01  -7.1408842e-01  -3.0955385e-01  -6.5435923e-01  -4.2672031e-02   2.0111057e-02  -1.1015328e-01   6.8485708e-02   7.5687600e-01   3.5527992e-01  -3.4657381e-01   4.2813599e-01   1.5939451e-02  -4.9339646e-01  -1.0033910e-01  -8.1257242e-01   8.3880462e-01   2.8163952e-01   3.3156654e-01   1.4193291e-01   5.5693668e-01   2.8021338e-02  -9.0435656e-01   6.3473684e-01   4.2520743e-01  -3.7002060e-01   7.3512982e-01   8.3883045e-01  -4.1524728e-01  -5.1529492e-01  -3.5164834e-01   4.0213970e-01  -1.1479361e-01   5.9160157e-01  -1.0549483e-01   9.5147591e-01  -5.4720932e-01  -9.0478286e-01  -8.4496555e-01  -7.4008108e-01   9.4021563e-01  -7.1304650e-01  -8.7074858e-01  -3.3141847e-01  -9.1410829e-01   8.5920599e-01   4.4506683e-01  -3.0029383e-01   5.3876794e-01  -8.1234472e-01   1.7224325e-01   7.6910242e-01   8.1211631e-01  -6.5273006e-01  -7.2219452e-01
  -2.5884336e-01   8.5096432e-01   6.9552093e-01  -5.0301640e-01  -6.8478549e-02   1.2997060e-01  -8.2916389e-01  -5.7578289e-01  -1.0532235e-01  -1.9075634e-01  -1.9719346e-01  -8.5246505e-01  -3.2500385e-01   1.8775099e-01   4.6053239e-01  -1.7596729e-02  -7.9956772e-01   6.3734312e-01   6.1399259e-01   2.2459887e-01  -6.2699854e-01  -3.4127902e-01   9.1925771e-01   6.2552843e-01   1.6367046e-01   2.4344788e-03  -9.6124521e-01   1.8988586e-01   5.1433879e-01   3.2564951e-02  -3.5172612e-01  -6.1196627e-01  -6.2702052e-01  -8.5825854e-01  -9.3677465e-01   6.5690287e-01  -4.1665228e-01  -5.3772945e-01  -5.1102220e-01   1.3924318e-01  -9.0916368e-01   2.9167961e-01   1.9957046e-02   2.7529937e-01  -8.2626659e-01  -7.0367339e-01   7.3880917e-01   2.2155833e-01   1.5852751e-01   1.5529345e-01   9.5823832e-02   4.8749961e-02   2.5316688e-01  -8.7763843e-01  -6.5481962e-01   3.3254705e-01   9.5405074e-01  -5.4370037e-01   5.3333069e-01  -6.0044143e-01   8.1334213e-01  -1.7005220e-02   9.5106611e-01   8.5340374e-01  -3.3818718e-02  -2.4031562e-01   4.1122642e-03  -5.1007007e-01   2.7132181e-01  -2.8104100e-01  -7.0989834e-01   4.3911036e-01  -9.9313915e-01  -4.2339691e-01   7.7082283e-01   4.8159645e-01  -9.0946832e-01   5.8719438e-01   1.0746345e-01  -2.8153766e-01   1.3681526e-01   7.4827048e-01  -7.0065571e-01   5.5286085e-01  -7.9190207e-02   6.8733637e-01   5.1581914e-01  -2.6620816e-01  -4.7858729e-01   2.6614792e-01  -4.4940574e-01  -6.4632763e-01   4.5678048e-01  -4.1334002e-01  -8.7027788e-01   8.2738947e-01   2.6242575e-01  -4.8314593e-01  -6.9329729e-02  -3.8325470e-02   1.3000309e-01  -8.2427147e-01  -2.6978258e-01  -4.7293250e-02  -3.3256955e-01  -4.9844925e-01  -7.2282289e-01  -2.5409843e-01   7.5635104e-01   7.0192426e-01  -2.9464138e-01  -2.5917822e-01  -7.3552823e-01  -2.1519221e-01   6.2567956e-02  -3.5821871e-01   9.8395600e-01   6.6933726e-01   6.3826797e-01   4.8642231e-01  -9.9200004e-01   2.7791538e-01   9.2348191e-01   7.2359989e-01  -8.8762955e-01   9.2730260e-01   7.7938126e-01  -7.4408624e-01  -1.4712234e-01   3.0263182e-01   9.6145125e-01   8.3468223e-01   8.4880853e-01   6.5997141e-01   7.1212686e-01   2.0540125e-01  -7.4743538e-01  -6.4392292e-01  -2.8949773e-02   2.4751591e-01   4.3290431e-01  -4.6426007e-01   8.1040492e-01   7.5501192e-01   6.3709432e-01   4.3689604e-01   5.3110532e-02  -2.7530145e-01   7.9490243e-01  -5.8615387e-01  -4.2250883e-01   4.8818331e-01  -8.5734119e-01  -8.1347792e-02   1.5134337e-01   3.6227633e-01   7.8338540e-01   6.6193022e-01   1.7132917e-01  -7.6332483e-01  -1.9400878e-01   4.4095226e-01   3.2590201e-01  -1.2539419e-01   2.3321813e-01  -3.2762730e-01  -2.2788860e-01  -3.8309283e-01   5.4952287e-01  -1.2527098e-01  -4.7406394e-01  -9.9625946e-01   2.6877406e-01   5.4053068e-01  -4.8487638e-01   6.7345128e-01   5.6305904e-01   4.8326126e-01  -1.1340501e-01   9.9980556e-01  -3.6796341e-01   5.7679729e-01  -5.2596469e-01  -9.5463880e-01   9.5286432e-01  -5.6623120e-01   5.4747339e-01  -5.3821872e-02  -4.0006169e-01   5.4948714e-01   6.1965380e-01  -8.7346244e-01   2.7073708e-01  -6.3737914e-02   1.5017707e-01   7.1048254e-01   9.7173888e-01   5.9939088e-01   7.8673286e-01   1.8431310e-02  -2.2530319e-01   6.0184993e-01  -9.3475922e-01   7.9258987e-01  -6.7382564e-01   3.1890677e-01   5.0144461e-01   4.4502508e-01   1.5029202e-02   4.5247920e-02   2.6159387e-01  -7.6458733e-01   1.5080602e-02  -5.2452790e-01   2.3199067e-02   7.3955009e-01   7.4521528e-01   8.6731809e-01   8.4234059e-01   7.4090866e-01  -2.5603873e-01   6.0109697e-01  -2.3747198e-01   6.2183071e-01   6.6547289e-01   4.2914498e-01   9.5656576e-01  -5.7645583e-02  -7.2117240e-01  -3.5229289e-01   3.4298278e-01   8.3192093e-01  -8.4117250e-01   7.7336164e-01   1.8036740e-01  -5.7605911e-01  -1.4087947e-01  -6.1403727e-01  -6.1716664e-01  -6.9006364e-01  -7.4772785e-01   3.3103634e-01  -9.6525782e-01   3.6221755e-01  -3.9364379e-01   7.9990162e-01  -5.9435407e-01   4.5747259e-01  -1.0365192e-01  -2.5384305e-01   5.7356654e-01   1.9742178e-01  -8.7961760e-01  -3.8867761e-03   7.9865130e-02   8.5121539e-02   6.7007996e-01  -1.3470218e-01  -7.1615446e-01   9.2148266e-01  -8.6990058e-01  -5.1567122e-01  -8.5393940e-01  -4.0169737e-01   7.5245849e-01  -6.3502206e-01  -7.2194684e-01   7.7927272e-01   4.1473264e-01   4.7757705e-01   4.8250214e-01   7.1141343e-01  -8.2016316e-01  -7.7678332e-01  -4.5795037e-01  -1.5526915e-01   5.1924450e-01  -8.5213417e-01   3.6377911e-01   6.5931676e-01   2.6279697e-01  -7.1259528e-01   7.0238715e-01  -1.8913953e-01  -7.8328273e-01   6.2150158e-01   3.2050455e-01   1.6657208e-02  -3.1462349e-01   9.4297226e-01  -9.4078882e-01  -3.3468315e-01   5.9220325e-01  -7.9885689e-01  -9.5897382e-01  -9.2606145e-01   2.3766829e-01   7.5110126e-01  -2.4376313e-01   8.9757353e-02  -3.4641789e-01   3.6544700e-01  -5.2371324e-02  -1.6432398e-01   2.5036592e-01  -8.9605406e-01  -9.4106849e-01   5.8333703e-01  -6.3557635e-01  -3.7067500e-01  -4.3352750e-01   1.2378230e-01  -7.4121074e-01  -6.4646712e-01   4.2281788e-01  -8.8855241e-01   6.9592144e-01  -3.3434861e-01   2.8903151e-02  -7.1540434e-01   6.1129002e-01   7.8315747e-01   4.7263240e-01  -7.2783181e-01  -8.0626450e-01  -9.1918989e-01  -2.6482514e-01  -4.2302120e-01  -2.4561877e-01  -2.4834774e-01   5.4034830e-01  -7.6427943e-02  -7.0648157e-02   2.3259924e-01   5.9837296e-01   4.0370409e-02  -7.4989058e-01   5.0475065e-03  -3.1773082e-01  -3.5468106e-01   4.2345497e-01   4.2646407e-01  -2.5176489e-01   9.3066025e-01  -3.0921611e-01  -4.4156701e-01  -2.9200827e-01  -3.4877152e-01  -3.7427879e-01  -5.6168789e-01  -7.7586291e-02  -8.1577964e-01   4.6169197e-01   7.3372945e-01  -9.4828160e-01   8.1054479e-01  -6.5980335e-01  -5.1269877e-01   2.9663124e-01   7.9157656e-01  -7.4928929e-01   5.0362726e-01  -6.1159182e-01  -5.9239219e-01   1.8765695e-01  -2.7079732e-01  -7.0451071e-01   8.0070615e-01  -7.9476028e-01   1.5659909e-01  -8.0672708e-01  -6.3532145e-01  -2.1566218e-01  -7.6286035e-01   8.0675145e-01   3.3530094e-01   9.4071526e-01  -7.0868935e-01   5.7368621e-01  -8.3793578e-01  -2.8091936e-01  -4.0334928e-01   6.0707893e-01   4.9287635e-01   9.9539458e-01   2.1882907e-01  -8.3389678e-01   8.7259718e-01  -6.7007243e-01  -9.6657202e-01   8.5605137e-01   1.8241588e-01  -9.7121074e-01  -6.9407628e-01   6.9221466e-01  -3.7441362e-01   3.5851736e-01   6.7187323e-01   3.0654230e-01   4.2825330e-01   8.5260876e-01   5.1616285e-01  -1.2127013e-01  -6.2689760e-01  -6.7176737e-01  -6.3433660e-01   6.3531239e-01   9.1414491e-03  -4.2737226e-01   1.0663035e-01   3.9616087e-02   4.9275542e-01   2.7673840e-01  -1.9004707e-01  -1.0967368e-01   3.5249431e-01   9.9093414e-01   5.7910290e-01   1.7875620e-01   9.4452003e-01   4.0645701e-01   7.6166572e-02   2.7436376e-01  -7.1824406e-01  -6.9147684e-01  -1.3144846e-01   6.5969821e-01   2.1841227e-01  -9.4521731e-01   5.4863562e-01   1.6832700e-01  -7.1337583e-01   7.6169692e-01   1.7404922e-01  -3.1360566e-01   6.2336147e-01  -1.8115329e-01   8.9401039e-01  -7.8127920e-01   1.1121821e-01  -6.9128556e-01  -7.1516759e-01  -6.2116436e-01  -4.9033192e-02  -4.2002031e-01  -4.2203279e-01   1.2450814e-01   6.8385380e-01   4.8930777e-01  -2.2782238e-01   7.4587345e-01   1.3362513e-01   9.3366858e-01   2.6607349e-01   3.3458492e-01   2.2993198e-01   8.9910658e-01  -3.0142906e-02   8.5314367e-01   7.0507266e-01  -1.9989280e-01   5.1237556e-01  -5.3242648e-02  -8.3144401e-01  -5.7467790e-01  -5.3053077e-02  -1.7693353e-02  -3.2745961e-01   9.2286965e-01  -8.8325026e-01  -5.9277505e-01   8.2126488e-01  -8.9417361e-01  -7.3817627e-01  -3.9287805e-01  -7.2797211e-01   5.1644012e-01  -1.7979979e-01   5.0890962e-01   5.9696831e-01   1.3620706e-01   1.7991981e-01   6.8772691e-01   5.2354495e-01   5.4557907e-01  -6.5291095e-01   7.0652043e-01   5.5398661e-01  -5.7972016e-01   9.5142492e-01   3.1346170e-01   7.7475285e-02  -9.4237246e-01   7.9873450e-01  -1.0099533e-01   8.1897786e-01  -5.9202034e-01   7.2786358e-01  -3.2024692e-01  -7.6116539e-01   9.1842794e-02  -3.1857368e-01   3.8848828e-01  -2.4946329e-01  -2.7125615e-01  -9.5516405e-01   7.0302206e-01  -5.0390769e-01  -9.0228748e-01   6.7692063e-01  -5.4382849e-01  -6.3472753e-01  -3.5169876e-01  -1.2611528e-01   3.6265355e-01  -2.3608102e-02   4.8223746e-01   2.9043514e-01   2.6034482e-02   9.8175342e-02   8.2184565e-01  -1.4556026e-01   3.2866692e-01   1.9225986e-01   4.0944632e-03   4.7229600e-01   1.5789797e-01   5.5701672e-01   9.5867789e-01  -4.2959605e-01   3.4297033e-01  -2.4535823e-01  -3.7101287e-01   3.4000251e-02   2.5382483e-01  -7.9385144e-02   2.7570718e-01   7.2584674e-01   1.4636716e-01   7.7343078e-01  -6.2692070e-01   4.8391405e-01   5.0362438e-01   5.6639936e-01   4.8869862e-01   5.2267863e-01   6.7657639e-01   8.3209585e-01  -3.6055609e-01   1.6778650e-01   6.9484001e-01   7.0000430e-02   8.5856599e-01  -7.1433246e-02  -1.5350340e-01  -9.4596341e-01  -6.0307304e-01  -6.8979388e-01   9.3623059e-01  -5.0215244e-02   3.3513760e-01   7.2820587e-01   3.7829184e-02  -1.8971905e-01   9.8950959e-01  -9.8873292e-01  -8.5936616e-01   1.7982037e-01  -1.6146242e-01   1.9594834e-01   3.1467943e-01  -1.8711172e-01  -4.4480864e-01  -5.3212207e-02  -2.9034734e-02   6.4813521e-02  -1.5153162e-01   9.1342211e-01   4.3685151e-01  -5.0504292e-01   5.9104591e-01   2.4920921e-01   1.9639155e-01   2.5178939e-03   4.7054039e-02   2.7179261e-01   4.7320694e-01   6.0581872e-01   6.8194659e-01  -4.3742384e-01  -5.0933284e-01   1.4684079e-01  -6.7739726e-01   2.8417034e-01   7.8116728e-01   2.8801188e-01  -8.5447672e-02  -2.6508113e-01   3.4053101e-01  -8.9082843e-02   5.6685332e-01   9.4840359e-01  -7.8415792e-01  -1.3540665e-01  -1.9912906e-01   8.4179989e-01  -3.1856433e-01   6.5338305e-01  -3.5391191e-01   9.2746762e-02   6.1374114e-01  -2.2690577e-01   6.0519871e-01  -8.3137706e-02  -5.1330842e-01  -2.0157156e-01   5.1730170e-01  -2.5594700e-01   5.9777336e-01   8.5766924e-01  -4.1322048e-01  -9.8989331e-01  -3.7925552e-01  -3.8454204e-01  -2.7537471e-01   8.5454489e-01   7.4443845e-01  -9.9143915e-01   6.3346287e-01  -1.9264908e-01  -1.1218733e-01   5.0076190e-01  -3.7075779e-01  -8.6799316e-01  -9.8010392e-02  -1.4785199e-01  -7.0420848e-01  -2.4536193e-01   5.8368425e-01   2.5706473e-01  -7.6804055e-02  -1.4144118e-01  -7.5000922e-01   7.6879519e-01   4.4813941e-01   5.7973480e-01  -8.7230059e-01   1.5651348e-01  -8.2302171e-01   1.5421955e-01  -1.4708476e-01  -2.7689169e-01  -9.4641570e-01  -2.9903126e-01  -9.6078072e-01   9.8121004e-01  -9.7962919e-01   9.9319295e-01   9.7656644e-01   6.1212214e-01  -6.4196427e-01   1.5798429e-01   7.3570595e-01   7.9229280e-01  -2.9019885e-01   5.2691738e-01  -4.8385596e-01  -5.0416768e-01   4.2369962e-01  -2.4767964e-02  -6.7063467e-01   8.6818072e-01   1.9177152e-01   5.3340155e-02   3.9774661e-02   9.4589655e-01  -9.1234601e-01  -2.4472144e-01   5.9690053e-01  -6.9039212e-02   1.7812698e-01  -7.5164174e-02   3.8198329e-01   4.9776849e-01  -8.7683377e-01  -2.8527602e-01  -1.1184272e-01   9.2196800e-01  -8.4003112e-01  -7.0683370e-02   4.5451317e-02  -4.0922430e-01   9.7831747e-02  -5.8442541e-01  -4.6208296e-02   5.4594944e-01  -1.4958204e-01   1.7879107e-01   3.1449317e-01  -3.2983963e-01  -2.0994885e-02   8.6753399e-01   5.1299775e-02   8.6661293e-01  -5.6068591e-01  -2.7377367e-01   2.9231798e-01   1.6057731e-01   7.8279617e-02  -3.8502328e-01  -1.9063898e-01   8.4790188e-01   9.1748297e-01   2.9412148e-01   6.3703771e-01   1.8369102e-01   5.0985376e-01   4.8640269e-01   8.5325166e-02  -5.1546177e-01  -1.7373452e-01   1.3739801e-01  -8.6077718e-01   1.9019654e-01   1.0346314e-01  -7.7318767e-01   3.4669607e-01   9.5099965e-01   3.6762911e-01   2.5768838e-01   2.9692282e-01  -3.3055423e-01   7.6260087e-01   1.2507173e-01   6.9749627e-01  -9.4282153e-01   7.4473666e-01  -4.7779630e-01   8.6613928e-01  -3.9355883e-01  -7.5608303e-01  -6.3160704e-01   9.9112597e-01  -9.5311526e-02  -7.4089949e-01   6.4552820e-01  -9.0569473e-01  -2.1290126e-01  -1.2583701e-01   9.9174749e-01  -1.5456258e-01   4.8892055e-01  -5.0175653e-01  -2.7279843e-01   5.2334263e-01  -7.9155778e-02   5.0843165e-01   4.8218912e-01   1.6980865e-04   7.4393846e-01  -5.9323513e-02  -8.5311759e-01  -6.6894976e-01   3.6199481e-01  -6.3315416e-01   9.1050511e-01  -7.6757300e-01  -2.0360661e-01  -3.4449915e-01   1.6067636e-01  -1.5116173e-01   1.3817539e-01   2.2726529e-01   1.4301132e-02   3.6479950e-01   6.1051642e-01  -8.9190337e-01   1.2383670e-01  -8.3536810e-01  -6.4788887e-02  -5.5530661e-01   2.2417062e-01   5.0606161e-01   5.5763064e-01  -7.7205998e-01   2.1999498e-01  -5.2855939e-01  -5.8919133e-02   1.2440915e-01   2.6638638e-01  -4.1139271e-01   2.3948652e-01  -9.8824255e-01   5.7104045e-01  -8.7233969e-01  -1.2788493e-01   9.7871664e-01  -6.5169937e-01  -3.1203426e-03  -8.7352320e-01   6.5258987e-01   2.4407213e-01  -3.9367990e-01  -7.3319383e-01  -9.1384754e-01   9.7449869e-01  -2.5215277e-01  -5.7627928e-01   4.6278803e-01   9.8861374e-01  -3.3327930e-01   1.1081219e-02  -8.1871630e-01   4.7261896e-01  -8.3972480e-01   5.3757139e-01   6.7496860e-01   4.8206580e-02  -5.2400471e-01  -6.8159439e-01   2.9224545e-01  -6.1862651e-01   3.7034020e-01  -1.5934678e-01   8.8846135e-01   6.0035196e-01  -9.0637416e-01   7.3135077e-01  -7.9650170e-01   7.0473671e-01   7.9757244e-01   1.7521426e-01  -6.1622961e-01  -4.8514330e-01  -6.9540217e-01   6.4497322e-01  -2.9706477e-02  -4.5027870e-02   3.4433100e-01  -8.6598391e-02   8.1359120e-01   9.3742047e-01  -9.5715981e-02  -5.6198438e-01  -9.0315179e-01  -1.6710897e-01   4.1782911e-01  -7.5146940e-01  -4.5045571e-01  -8.0849016e-01  -2.1257207e-01   1.1214023e-01  -2.1319424e-01  -8.5533990e-01  -4.7809581e-01  -3.4294589e-01  -1.3282348e-01  -9.4153867e-01  -5.5026353e-01   2.1687748e-01  -2.4474851e-01   6.6256407e-01  -3.2205886e-01  -5.0347095e-01   3.0155847e-01  -2.4152038e-01  -6.1032183e-01   6.7840496e-01   6.5866865e-01   1.0083066e-01  -3.5836480e-01  -6.1866937e-01   1.0757414e-01  -9.3913973e-01  -9.9211068e-01  -1.1730286e-01  -8.5090600e-01   5.2419845e-01  -7.5147751e-01  -8.2048690e-01   5.2534063e-02   5.7702758e-01   7.6087937e-01  -2.8069951e-01  -5.9949591e-02   9.1235380e-01   3.5329169e-01  -6.5441824e-01  -5.6436459e-01   9.3655067e-01   6.7125948e-01  -1.1282125e-01   6.1410055e-01  -9.1988634e-01  -6.4422240e-01   6.7530852e-01  -4.2336180e-01   7.1564311e-01  -5.7573938e-01  -4.2704165e-02  -2.2908486e-01   7.5693801e-02   4.5314010e-01  -1.7856688e-01  -7.3579541e-01  -5.7398778e-01  -1.1937582e-01   5.1304683e-01  -1.1420077e-01  -7.6929613e-01   5.9229967e-01  -2.8681904e-01   4.1140301e-01   3.2065991e-01   2.6091561e-01   8.6873436e-01  -5.9194606e-02   3.5791281e-01   9.5656311e-01   9.4077348e-01  -5.0130962e-01   2.0184685e-01   2.8590011e-01  -4.1640832e-01   6.2754051e-01  -3.2413687e-02  -9.7587673e-01  -6.2454332e-01  -3.1247965e-01   7.7786224e-01  -6.2369505e-01   5.2458554e-01  -8.1004669e-01  -9.8595223e-01  -3.8696740e-01  -8.6981419e-01  -3.0200343e-01  -5.6887863e-02  -1.0209595e-01   5.5378585e-01   7.1748618e-01  -3.5191124e-01   9.1241780e-01   7.8624635e-01  -4.3540989e-02  -3.9134774e-01  -6.1042050e-01  -9.8109390e-01  -9.6094460e-01  -6.1635543e-02   5.6125515e-01   2.6098131e-01  -3.8773820e-01   9.6873625e-01   5.0182534e-01  -2.1025629e-01   8.1437379e-01  -3.6808941e-01   5.9061246e-01   1.2473217e-01  -2.8077971e-01  -9.8310809e-01  -8.2738780e-01  -2.5627993e-01  -1.1152334e-01  -8.3261606e-01   6.7921701e-01  -1.5629369e-01  -1.9738289e-01  -7.6127985e-01  -3.2643934e-01  -4.7342482e-01  -6.6454609e-01   7.0218405e-02   6.6791433e-01  -6.2251016e-01   1.3443293e-01   3.5507980e-01  -5.3784536e-01   2.9735749e-01  -2.9754007e-01  -1.5025763e-01   3.1970622e-02   9.9546103e-01  -8.3433362e-01  -6.9068562e-01   5.1352554e-01  -4.1950172e-01  -7.4378881e-01  -4.7461874e-01   8.5451451e-01  -7.1279666e-01   2.3729638e-01  -9.3853886e-01  -2.5647605e-01   5.1268543e-01   1.2657347e-01  -5.2154899e-01  -3.4418628e-01  -2.2075205e-01
   6.7654022e-01   1.5586549e-01  -9.5485654e-01   4.8299698e-01  -9.4319250e-02   3.4637523e-01  -6.2850802e-01   7.0283180e-01   6.0075121e-01   8.8743393e-01   3.9379245e-01   5.8361217e-02   4.0779188e-01   7.1692220e-01  -9.2426045e-02  -2.8766007e-01  -4.7398043e-01   1.0291138e-01  -2.1296543e-01  -6.2952136e-01  -3.7528417e-01  -3.4713227e-02  -2.0452067e-01  -8.4639019e-01  -4.8265738e-02   6.9010469e-01   9.1436977e-01   6.3841699e-03   6.5422863e-01  -2.1843988e-01   5.8410454e-02   4.0858994e-01  -6.6888345e-03   3.9027017e-01  -1.2537958e-01  -1.2567500e-01   5.1904294e-01  -8.9898726e-01   7.1524335e-01  -9.1519138e-03   9.0727200e-01   9.7921681e-01   2.0618709e-01   8.1588996e-01   8.0214101e-01   2.1418356e-01   6.7333844e-01  -9.3810846e-01  -2.9223242e-01   8.4524073e-01   8.5833544e-01   1.9182266e-01  -7.0148695e-01  -3.9520964e-01  -2.6636646e-01  -8.5500360e-01  -7.3857309e-01   9.5232453e-01   6.1865584e-01   9.0047735e-02  -8.1832429e-03   1.4707337e-01  -9.2610041e-01   1.4879850e-01   6.0507305e-01  -7.1771384e-01  -5.8434194e-01   7.2131887e-01   6.1232251e-01  -1.6480993e-01  -4.3144404e-01   3.8459178e-02   4.6115118e-02   9.8387272e-01  -1.1921520e-01  -4.1374979e-01  -5.0610650e-01  -2.3544840e-01  -8.9668014e-01  -2.1090567e-01  -4.1976814e-01   3.9580574e-01   9.4141727e-01   7.7166083e-01   8.3427707e-01   8.0911489e-02   8.9110765e-01  -3.1194630e-01  -6.7034322e-01   1.8956268e-01  -5.8181753e-01  -8.4175530e-02  -8.3350504e-01  -3.1463599e-01  -8.5090524e-01  -4.7479025e-01   8.8267502e-01  -6.2217995e-01   9.6173053e-01  -5.6901218e-01  -4.8071429e-01   9.2818794e-02  -4.3744900e-01   1.1155499e-01   8.2054471e-01  -4.3273675e-01   3.3080181e-01  -7.5888405e-01   5.4165782e-01  -7.6978225e-01   5.3101899e-01   9.5646890e-01   9.1183732e-01   8.9573751e-01  -9.4479624e-01   5.6043662e-01   1.0548433e-01   6.5370230e-01  -8.0474243e-01   3.9981728e-01  -7.0410869e-01  -5.8549548e-01  -1.9223036e-02  -5.1695118e-01   5.8508284e-01  -1.0229112e-02  -7.6614148e-01  -1.7006342e-01  -4.5077155e-01  -4.7544485e-01  -3.8229301e-01   8.1182988e-01   5.1800160e-01  -9.8460465e-01  -9.4963181e-01  -8.3461188e-01  -3.3956355e-01   7.2595330e-01   9.4575475e-01  -9.2314405e-02   6.9413656e-01  -1.2483811e-01  -9.4079766e-01  -9.2164862e-01   1.5296193e-01  -9.9111882e-01   2.1426804e-01   1.6676719e-01  -7.5814220e-01   1.8117973e-01   7.3583417e-01   9.9239612e-01  -6.1623296e-01  -9.1836649e-01   7.0755515e-01  -5.8571883e-01  -3.5333659e-01   2.5261213e-01  -8.7148215e-01   4.0371631e-01  -3.4661136e-01   5.1013910e-01   2.7097547e-01  -8.1088702e-01  -8.6541366e-01   7.8931965e-01  -6.8340159e-01  -5.2139136e-01  -7.3771589e-01   6.6768592e-01   7.7614080e-01   4.6379440e-02   2.1405637e-01  -2.6401506e-01   2.3349487e-01   9.8672609e-01   4.7856290e-01  -5.6152196e-03   5.0957061e-01  -4.1124846e-01  -6.3047127e-01  -5.0794845e-02  -7.7572887e-02  -5.1890886e-01   3.2577543e-01   8.5766925e-01  -3.8023843e-01  -9.4321201e-01   1.9525599e-01   5.7767476e-01   2.5423066e-02   3.4284535e-01   2.0237594e-02  -9.5797750e-01  -8.6670511e-01  -7.9374172e-02  -6.6885441e-01  -5.9744459e-01  -4.5162887e-01   3.5485097e-01  -2.0865836e-01   5.2584320e-01  -5.2105960e-02  -9.1597264e-01   3.7250988e-01  -5.7460594e-01   9.9164921e-01  -9.4300862e-01  -2.7168622e-01  -3.8481670e-01   7.0276525e-01  -7.8422489e-01   3.7182686e-01   4.6868588e-01  -3.3769884e-01   6.0448121e-01   9.7594943e-01   8.1009086e-01   5.9543112e-01   7.5545842e-01   6.4457192e-01   3.0740589e-01  -3.6117369e-01  -7.0868219e-01  -1.2113694e-01   8.7582947e-01   8.2864025e-01   1.4809120e-01   8.0520960e-01   3.8358534e-01   8.5464871e-01   8.4260813e-01   7.2077653e-01   9.0707241e-01   2.7318154e-01   5.0542360e-01   4.2258487e-01  -4.6527451e-01  -2.7634802e-01  -2.2742685e-01  -7.7120347e-01   8.7703484e-01   7.3859088e-02   7.0437840e-01   9.8720414e-01   4.7314206e-01   9.0508887e-01   5.9867594e-01  -9.0137385e-02  -2.9225635e-01   6.4725516e-01   8.2988380e-01  -4.2262926e-01  -1.8315001e-01  -2.4928334e-01   3.5641229e-01   8.4968630e-01   9.4922116e-01  -8.3586866e-01   6.1920775e-01  -1.3569140e-01  -1.9674018e-01   1.0630399e-01   7.3465649e-01  -3.9539975e-02   3.9616835e-01   5.0284979e-02   4.3545969e-01  -2.4684224e-01  -9.1998091e-01   7.3897204e-01  -9.8711559e-01   4.6210824e-01   7.1977289e-01  -5.2883244e-01   5.5202753e-01  -4.6764944e-01  -5.4867858e-01  -3.9087855e-01  -4.1785070e-01   4.4455212e-01   3.4746289e-01   8.1409789e-01   1.8965764e-01   3.6387954e-01  -9.2753893e-01   8.7752646e-01   6.0597453e-02   1.9276097e-01  -8.8143415e-01  -1.9703402e-01   1.1644605e-01  -3.2060496e-01   4.6548541e-01   5.1100930e-01  -9.5737098e-01  -8.3760497e-01  -2.6761963e-01  -3.9529850e-01  -7.4931494e-01  -3.2967184e-01  -9.6987393e-01   1.7617770e-02  -2.9850973e-01  -3.7286811e-01  -9.3621486e-02   3.6068300e-01  -4.8087189e-02   1.5432343e-02   3.5765725e-01  -2.4776448e-01   1.5432510e-01  -3.0170811e-01   8.8038221e-01  -7.8697096e-01   5.8444756e-01   1.9454425e-02  -4.0529076e-03   6.8147601e-01  -1.9216651e-01  -7.8984082e-01  -6.2663437e-01   8.1825021e-01   6.5446543e-01  -9.4003143e-01   5.3738018e-01  -9.3562615e-01  -3.7426158e-01   8.1524164e-01  -8.5927982e-01  -4.1814865e-01   2.8141455e-01  -6.5209915e-01  -6.3225685e-01   9.4479122e-01  -9.4748279e-01   8.2727414e-01  -5.8343102e-01   9.5948171e-01  -4.5506664e-01  -4.8412222e-01   9.0207922e-01   4.9886375e-01  -2.5309998e-02   6.5400089e-01  -9.4727317e-01  -4.1701443e-01   2.2772180e-01   4.8585537e-01  -8.9187798e-01   9.7339219e-01   8.9686821e-02   1.3238184e-01  -6.4643147e-01  -8.8654132e-01   1.6101257e-01   4.1637827e-02  -3.5466360e-01  -2.5938295e-01  -7.2918269e-01  -9.4924653e-01  -9.0933443e-01   2.1925018e-01   4.6029748e-02  -3.7597817e-02   2.6405305e-01  -2.6399600e-01   6.2578470e-01  -5.7974214e-01  -4.0157968e-01   7.0172946e-01  -9.3702708e-02  -4.4746289e-01  -8.7098964e-01   9.7368868e-01  -9.5996975e-01  -2.1218617e-01  -9.1685889e-01  -2.3177637e-01   4.9993696e-01   1.5733860e-01  -4.7112617e-01   6.5892253e-01   9.1700398e-01  -2.2341597e-01  -2.2459433e-02   3.6885367e-01   4.8496065e-01  -3.3488010e-01   1.7749892e-01   1.2605950e-01   2.2968922e-01   1.8040679e-01   3.4722289e-01   6.8126622e-01  -3.5051418e-01   6.6747617e-01  -8.0751193e-01  -1.8044096e-01   9.1716227e-01   3.2707144e-01   8.8066873e-01  -1.3242404e-01   7.7317570e-01  -4.0654180e-01  -5.8878459e-01   3.6143386e-01   3.4401705e-01   8.1252387e-01  -4.9887405e-01  -6.8188961e-01  -8.9833432e-01   1.4033404e-02  -1.0267323e-01   1.7841297e-01   8.6765508e-01   2.0775423e-01  -3.1528147e-01  -9.5991180e-01  -1.8546019e-02   9.6477281e-01  -1.7961114e-01   6.1681237e-01  -9.1385431e-01   9.9951311e-01  -5.6680180e-01  -8.6546555e-02   8.7864361e-01   5.0957080e-01   3.4857278e-01   3.0442382e-01   5.5457766e-01   6.2712732e-01   9.9306281e-01   3.8848244e-01   6.3247490e-01  -7.6152795e-01   9.1928609e-01  -2.5381776e-01  -9.8573646e-01  -4.6149103e-03  -7.7412903e-01  -7.7295831e-01   6.9983055e-01  -5.7387348e-01   6.9457015e-02  -2.5514658e-01  -2.9301177e-01   2.0308211e-01  -2.9678082e-01   1.8656088e-01  -2.2994249e-01  -8.3552335e-01  -6.9870601e-01   7.0647568e-01  -1.3691516e-01  -2.0483994e-01   7.6258760e-01   3.3994092e-01   7.3810708e-01  -3.9501063e-01   7.1687861e-01  -8.0655505e-01  -3.2224578e-01   8.2447454e-01   3.5511637e-01   3.9959596e-01   1.6348461e-02  -8.7723461e-01  -6.6078603e-01  -2.1675033e-01   4.5303091e-01   9.3960748e-01  -6.1079556e-01   5.4378589e-01  -3.5817715e-01  -5.0178414e-01  -3.0538380e-01   6.2805770e-01  -6.8233286e-01  -7.7893397e-01   9.0070743e-01  -4.7909493e-01   9.2533736e-01  -9.5430636e-01  -4.5368153e-01   4.8717002e-01  -2.3746244e-01   1.9164752e-01  -6.3145037e-01   9.9946889e-01  -7.2797108e-01  -6.0838571e-01  -2.9021060e-01  -6.0607797e-01  -6.6346929e-01  -2.4486842e-01  -3.0248351e-01   8.5437206e-01  -4.0343733e-01  -8.6349449e-01   8.1481215e-01  -9.0957471e-01  -5.2238065e-01  -5.4250217e-01   7.6624960e-01  -2.1063058e-01  -9.1608276e-01  -1.6975289e-01   1.9067716e-02  -6.4732970e-01   5.9531606e-01  -5.2601240e-01   4.3250092e-01   3.0709679e-01   5.5279438e-01  -6.5454103e-01  -1.0791751e-01   5.0396214e-01  -3.6853417e-01  -8.2057946e-01  -9.7867942e-01   1.7730963e-01   9.1810298e-01   3.0064520e-01  -4.2346551e-01   2.0822153e-01   3.0940483e-01  -1.2860272e-01   1.8940886e-01  -9.6735145e-01   1.5886435e-01   8.6236160e-01   1.1598793e-01   1.5401810e-01   5.3345549e-01  -5.2335130e-01   3.3109635e-01   3.0091430e-01   2.8429893e-01   1.9537413e-02  -4.9547912e-01  -5.5223404e-01  -9.8113660e-01   2.5779921e-01   1.9374146e-01   8.8625481e-01  -4.9805096e-01  -1.8459305e-01  -9.6759567e-01  -5.4853595e-01  -7.3740108e-01  -8.6419419e-01  -9.8256224e-01  -7.4802922e-01  -1.1544836e-01  -2.4013163e-03  -7.9834343e-01   3.1807195e-01   4.9012813e-01   8.6971058e-01   6.0459702e-01  -9.7021546e-01   5.8674156e-02   5.4865510e-01   2.5961779e-01   8.6261318e-02  -9.1124533e-01   9.9806781e-01   4.4167363e-01  -4.5159460e-01  -3.5878859e-01  -4.3170518e-01  -3.3005817e-01   5.0640553e-01   2.7750753e-01   1.4859894e-01   5.0217544e-01   4.5295305e-01   7.8271019e-01   6.8987257e-01  -1.1664386e-01   6.8669151e-01  -6.5715382e-03   4.1619788e-03   4.5324082e-01  -1.3805727e-01  -2.1855420e-01   6.3044777e-01  -7.2064598e-01  -6.5180942e-02   4.6274995e-01   9.9478789e-01   7.5518980e-01  -5.2364029e-01   7.5672381e-01  -4.0688295e-01   9.1137835e-01  -3.0552347e-01  -4.7994932e-01  -3.7684685e-01   4.5173466e-02  -1.8388594e-01   2.4477695e-01   7.1902955e-01  -2.7098612e-01   3.2063748e-01   3.6899675e-01   4.7968823e-01   8.0215419e-01   3.5141142e-01  -2.4452283e-01  -6.7843162e-01  -5.4210864e-01  -2.9403917e-01  -5.7776792e-01   3.6235088e-01  -7.2553735e-01   2.1698690e-01  -1.3817204e-01  -3.5805155e-01   7.5668017e-01   4.7187084e-01   3.1589845e-01  -7.0985530e-01   9.0253828e-01  -9.9412146e-01  -6.1691212e-01  -4.8604863e-01   1.5907655e-01   8.2536123e-01   2.0499801e-01  -9.3189642e-01   8.5554934e-01  -4.9945904e-01  -7.1561942e-01  -2.4824289e-01   8.2013430e-01  -3.7366425e-01   7.1220040e-02  -8.7463601e-01  -5.4123217e-01   5.1080070e-01   6.5038944e-01  -9.5794259e-01   8.2976390e-01   4.8375852e-01   3.9232104e-01   6.5736695e-01   1.9390378e-01   6.2158859e-01  -3.2174002e-01  -3.3547776e-01  -3.5549672e-01   7.4105250e-01   5.3815874e-01   5.7388270e-01  -4.5126666e-01  -8.1682164e-01  -6.1506682e-02   7.1556595e-01  -9.5500672e-01   9.7155785e-01  -4.1547234e-01   4.8248089e-01   3.3993677e-01   8.9260637e-01   2.9375554e-01   5.1502802e-01   3.6926946e-01   1.0510928e-01  -8.2655291e-01   9.2717600e-01  -9.0775273e-01  -3.6252186e-01  -8.9741019e-01  -1.4938955e-01  -4.3113559e-01   6.6457580e-01  -6.7227276e-01   5.0802803e-01   5.2822329e-01  -5.1077042e-01   7.9888404e-01  -4.8975586e-01  -9.1133896e-01   2.7881480e-01   4.4875396e-01   7.8065661e-01   2.5092579e-01  -8.2878246e-01   4.3750279e-02  -8.7066797e-01  -4.6743293e-01   5.3950700e-01  -5.8028166e-01  -5.9167778e-01   5.9679645e-02  -3.8375265e-01  -3.2821482e-01  -7.5911385e-01   4.3821699e-01   1.0372326e-01   2.0483880e-01  -8.8699681e-01   4.1768667e-01   5.3998314e-01   7.2340896e-01  -1.4774769e-01  -1.4680123e-01  -8.4192257e-02   8.7100426e-01  -3.3592855e-01  -9.8650024e-01   2.2301268e-02  -5.6646420e-02  -1.9787677e-01   7.5098222e-01  -2.2109178e-01   7.1130095e-01  -5.2186200e-01   5.0278381e-01   8.4745140e-01  -2.8428845e-01   8.3101427e-02   9.5849130e-01   7.7843849e-01  -4.3250417e-01  -4.4814033e-01  -5.8138179e-01   2.4114127e-01  -9.2854549e-01  -7.3724479e-01   2.3423191e-01   9.8929500e-01  -7.1424239e-01   4.8740127e-01   1.6379104e-01   1.2440437e-01  -9.1746404e-01  -3.5304162e-01  -5.6717021e-01   5.8215943e-01  -5.2786048e-01  -4.7422874e-01  -6.1241928e-01   4.3553055e-01   4.1759526e-01   5.1908766e-01   5.3275773e-01  -2.4242560e-01   3.7751645e-01  -7.5070635e-01  -1.7035075e-01  -3.4242734e-01   4.2926575e-01   1.2194818e-01  -3.0143291e-01   1.1403093e-01  -4.5032202e-01   6.8958147e-01  -9.4128044e-01   8.5092557e-01   3.7938696e-01  -2.3334819e-01   1.5198822e-01   5.6647955e-01  -4.3329147e-01   7.7415103e-01   9.2232947e-01   2.6511523e-01  -7.2126773e-01   7.2814407e-01  -1.8897972e-01   7.3414348e-02  -2.6668702e-01   1.8651748e-01   4.8527544e-01   5.0637225e-01   6.7076880e-02   5.5084263e-01  -9.2449592e-01   6.5423075e-01   2.3374440e-01   3.8673788e-02   5.7843353e-01   7.8721521e-01  -8.4859845e-02   4.8479239e-01  -1.0914936e-01   7.2276433e-01  -9.9500851e-01   1.4693108e-01  -7.7137393e-01   9.5103496e-01  -1.4925579e-01   5.7579153e-01  -9.6562544e-01  -2.3348079e-01   1.1224643e-01  -8.3528777e-01   8.4202576e-01  -9.5491985e-01   1.8800938e-01  -2.3757800e-01   3.4202013e-01   6.5757561e-01   4.4546136e-02  -6.5405500e-01   6.9369575e-01  -5.4517215e-01  -6.0813207e-01  -7.6783775e-01  -9.6309508e-01  -4.2871811e-01  -3.9966072e-01  -4.8943888e-02   6.8415840e-02  -7.6826855e-01   4.5667193e-01  -5.9143951e-01   8.7000229e-01   9.1627438e-01  -9.1515049e-02   7.5930820e-02  -8.3250717e-01  -5.6604816e-01  -1.9219843e-01  -2.3105160e-01  -1.1497692e-01  -7.0657277e-01   7.4349303e-01   9.0269320e-01  -7.6766764e-01  -7.6903038e-01  -3.3370198e-02  -8.3123374e-01   1.8868837e-01   2.2348584e-01  -2.3836982e-01  -8.1110414e-01  -8.9622628e-01  -6.9188929e-01   1.8592124e-02  -8.9886084e-01   8.9220672e-01   1.0126442e-01  -7.0060645e-02  -5.1879157e-01   1.5522456e-01   4.1767843e-01  -3.7031869e-01   2.2917667e-02  -4.0417749e-01  -1.3033123e-01  -1.1022788e-01   4.0996188e-02  -3.3241432e-01   6.4414593e-01  -9.2545885e-01   1.9411883e-01   3.3965813e-01  -4.1847035e-01  -8.4102754e-01   4.0453790e-01   2.4132418e-01  -8.5747119e-02  -5.9713985e-01   9.5408493e-01   4.7055190e-01   7.7614344e-01   6.7519791e-01  -1.0962201e-02   7.1141234e-01   2.8370821e-01   2.5638965e-01  -1.1923731e-01  -7.4635360e-01   2.9633742e-01  -9.7114299e-01   8.4837856e-03   7.1334378e-01  -8.4908281e-01  -8.8133168e-01   8.1073881e-01   9.6536011e-01  -1.8099584e-01  -9.2747009e-01  -5.5516119e-01  -7.0402149e-01  -8.6635056e-01   9.4230524e-01   2.1852950e-01  -2.7762716e-01  -2.0181454e-02  -3.3036104e-01  -8.8357238e-01  -4.6587113e-01  -6.1673996e-02   1.7875211e-01   8.3146644e-01  -3.7341449e-01  -3.1357378e-01   1.5874501e-01   4.3235638e-01   9.5711963e-02  -6.8911291e-01   4.8989655e-01   7.7218314e-02  -4.7384355e-01   1.7746933e-01   6.3464030e-01  -6.8317076e-01   7.8615989e-01  -2.1581333e-01  -6.3624508e-01  -6.8110693e-01  -9.7823411e-01   7.0962838e-01   1.3098150e-01  -7.9833046e-01  -5.6060517e-01  -1.8780360e-01  -4.6488395e-01   8.0897803e-01  -2.9301326e-01  -9.4338972e-01   7.4495717e-01   3.3141252e-01  -3.6301885e-01   1.7077159e-01  -6.9821094e-01   4.9987587e-01  -5.8577241e-01  -3.4463310e-01   4.2779838e-01  -6.4105480e-01   4.4071175e-01   5.6854610e-01   9.7475041e-01   1.5928905e-01   2.3719962e-01   5.4879606e-01   4.8611714e-01   4.2846541e-01   4.0878799e-02   9.0588417e-01  -3.6120097e-01  -6.3979610e-01   9.6441609e-01   2.6975567e-01  -1.4420740e-01   6.2609419e-01  -2.2971617e-01  -2.5482887e-01   2.9689778e-01   5.9001411e-01  -1.7242708e-01  -8.9855907e-01   7.5758453e-01   2.3228214e-01  -4.3134367e-01   1.3769425e-01   5.6659044e-01  -9.6762457e-01  -9.1605105e-01   1.4486467e-01   8.6223900e-01   6.9182275e-01  -4.2255618e-01  -6.5646621e-01   4.3482757e-01   8.5728978e-01  -7.8557127e-01   9.3201851e-01   5.6732107e-01   5.9721103e-01   6.7003379e-01   1.7374927e-01  -5.4986479e-02   1.0979387e-02   7.0057679e-01  -4.0140568e-01   9.9630898e-01  -8.3004481e-01   5.7851391e-01  -5.8407781e-02  -8.4897140e-01  -6.7504198e-01  -4.8732057e-01  -8.9263476e-01   1.1113523e-01  -1.9148502e-01   7.2894019e-01   5.4453621e-01  -2.9826083e-01   1.8815776e-01   7.4787312e-02  -7.3602262e-01  -9.6598767e-01
   1.7002808e-01   9.7352148e-01  -1.1376604e-01   8.1739580e-01   5.6408742e-01   8.7607261e-01   6.5434207e-02  -1.5746006e-01  -7.3345456e-01   9.3900526e-01  -5.5070801e-01   4.0243823e-01   6.2415830e-01   7.5644216e-01   2.0452234e-01   1.4734393e-02   9.6901901e-01  -5.4698149e-01   9.8046779e-01   4.8676858e-01  -3.4219376e-01   8.8055165e-01  -7.6356995e-01  -9.1776795e-02  -2.0391119e-01   3.1277198e-01  -8.5086509e-01   8.6576080e-01  -9.8472690e-01   7.6015032e-01   5.9164638e-01   3.5382193e-01   8.8402562e-02  -7.5524012e-01  -7.6379269e-02   4.2828678e-02   9.2625811e-01  -2.8031755e-01  -1.5053379e-01   8.7001503e-01   4.7795079e-01   3.0053185e-01  -9.8293236e-01  -9.0557647e-01   7.4094726e-01  -5.7870900e-01   1.7814278e-02   8.4808165e-01  -3.5363171e-01   1.5061330e-01  -3.3276494e-01  -9.1099459e-01  -2.3027967e-01  -3.0812206e-01  -6.2915057e-01   5.0705929e-01  -5.4143500e-01   2.0990669e-02   2.0788913e-01  -4.5140402e-01  -9.2832186e-01  -7.2071505e-01   6.3763349e-01   2.4880233e-01  -2.0804752e-01  -4.7226659e-01  -6.3857348e-01  -4.4622463e-01  -7.9525042e-01   9.1215911e-01  -6.5217793e-01   7.6816368e-01  -8.4925554e-01   2.2577027e-01   2.5131260e-01   7.0128059e-01  -5.9573207e-01  -4.4339335e-01  -7.1089891e-01  -9.1922654e-01  -5.2125607e-01  -8.0949168e-01   4.3685092e-01  -5.6156281e-01  -2.5200753e-01   6.5379566e-01  -5.3967272e-01  -9.0364399e-01  -5.3394816e-01   2.0151716e-01   8.5201266e-01   8.1957406e-01   4.4235983e-01   8.6116404e-02   6.0166236e-01  -6.0007795e-01   9.3020394e-01   1.9406014e-01   1.4765808e-01  -5.9344838e-01  -6.9199002e-01  -1.3835035e-01   8.4596801e-01  -7.3518777e-01   7.8727390e-01  -8.0474027e-01   8.3809001e-01  -5.5862404e-01  -3.0471787e-01  -2.0468872e-01   4.3488103e-02   7.5433554e-01  -8.7447560e-01   3.1795835e-01   2.9880349e-01   6.2095252e-01   3.2091751e-01  -7.2514208e-01   1.3090272e-01   4.0467115e-01   2.8947030e-01  -5.0953587e-01   3.8119167e-01  -1.6949449e-01   7.9365237e-01  -1.2342447e-02  -2.4178082e-01  -2.7134549e-01  -8.9912797e-01  -1.0026529e-01  -3.9431053e-01   4.9668130e-01  -5.0343585e-03   7.6711608e-01   1.2441229e-01   5.0029139e-01   3.9857250e-01   9.1606580e-01   1.8278801e-01   6.7831427e-01  -8.8568842e-01  -9.6937817e-01   5.9536450e-01  -8.5634916e-01   9.0787435e-01  -8.7620179e-01  -9.3598370e-02   3.7371132e-01   4.9335757e-01  -1.5064876e-01  -7.0101015e-01  -9.2249055e-01  -6.0024744e-01  -5.7491287e-01  -8.3567561e-01  -5.9751611e-01   9.7636201e-01  -4.3548682e-01  -7.8051163e-01  -5.1913720e-01  -4.2477499e-02   6.3418693e-01  -5.9430679e-01  -8.4109053e-01   7.3335628e-01   8.3024396e-01  -5.6306183e-01  -6.8524387e-01  -8.8030074e-01   6.7645715e-01  -9.3987253e-01   6.0914035e-01   2.5202319e-01   8.8716942e-01  -7.7188281e-01  -3.3556570e-01  -3.6587799e-01  -1.1291161e-01   4.5792024e-01   9.8715934e-01  -2.5895462e-01   2.9211943e-01   3.2615949e-01  -6.8112555e-01   4.6901505e-01  -5.2770966e-01  -6.9510920e-01   3.9776153e-01   6.0561148e-01  -1.1632940e-01   6.5683800e-01  -3.5711098e-01  -6.4668252e-01  -8.4745639e-01   5.7873508e-01  -6.1698827e-01  -2.7034252e-01   2.8117129e-02   5.2103546e-01   3.1430229e-01  -7.4271567e-01   6.1516932e-01   8.6586717e-02   8.0054450e-01  -4.7997348e-01  -7.0315057e-01   4.6094619e-01   9.4056006e-01  -4.7794941e-01   8.9525630e-01   4.3251753e-01   3.8817005e-01   8.7611001e-01  -5.8847374e-02   2.9374014e-01   7.9409879e-01  -3.7159833e-01   7.5830089e-01   2.8156658e-01  -7.6665441e-01  -5.8178803e-01  -9.7363985e-03   7.7621412e-01  -6.6166449e-01  -6.5519868e-01   6.2650567e-01  -6.5165583e-01   7.4531051e-01  -6.2592151e-01  -2.5797409e-01  -1.9551570e-01  -3.8346233e-01   7.8140704e-01  -5.9691302e-01   1.5756040e-01   4.4900958e-01   1.2766905e-01  -3.8649158e-03  -3.7467342e-01  -1.3056555e-01   7.2543607e-02   2.3007872e-01   4.2740062e-01   8.1729912e-01   5.5967340e-01   8.8359868e-03   6.0527053e-01  -3.3545397e-01  -5.2655325e-01   5.0233939e-02   9.2605248e-01   1.6235507e-01   4.6395559e-01   7.5808089e-01   1.9880030e-01   4.4654131e-01  -7.9715592e-01  -4.6822376e-01   3.3918717e-01   2.0478811e-01  -7.1739941e-01  -5.3717361e-01   1.0946309e-01   2.6703978e-01   2.6005187e-01   8.4887270e-02   3.8075597e-02  -4.5968174e-01  -1.0211332e-01  -7.0764581e-01  -1.4116562e-02  -5.7298654e-01  -8.2412492e-01  -7.7147149e-01  -3.7260559e-01   3.7632496e-02   4.1885419e-01  -9.0146433e-01   5.6849438e-01   2.2982759e-01  -8.7611138e-01   7.6773573e-02   5.9971702e-01   8.7701698e-01  -1.1157025e-01  -7.4154519e-01  -4.3653017e-01  -6.3234770e-01   4.5125201e-01   3.4552137e-01  -1.2863428e-02   1.6882540e-01  -7.1090407e-01   8.8233328e-01  -7.5668118e-01   2.5624090e-02  -3.6048925e-02   7.6214262e-01   3.6378983e-01   9.6605452e-01  -7.8735810e-01   7.8363296e-01  -9.2077086e-01   3.8624644e-02  -2.8411482e-01   6.6363583e-01  -4.6779804e-01   6.0557568e-01  -5.9468838e-01   6.1481369e-01  -9.3983023e-01  -8.7534010e-01   4.6778958e-01  -2.9142558e-01   6.2531493e-01  -2.6444266e-01   5.1340401e-01   6.9991998e-01   8.2392999e-01  -6.3282658e-01   9.6579767e-01   7.8115246e-01   5.6536882e-01  -2.6754361e-01   2.7951328e-01   5.7518278e-01   9.9270491e-02   6.1336948e-03   5.7505820e-01  -2.9809852e-01   7.6802462e-01  -1.4524121e-01   1.9266387e-01  -5.8695683e-01   7.1873036e-01  -8.7115021e-01   6.6725675e-01   6.7390913e-01  -4.8017077e-01  -2.3508316e-01   5.9136240e-01   6.3085831e-01  -9.9122848e-01   4.4542078e-01  -1.4148148e-01   1.0057279e-01   3.0626315e-01   7.3611344e-01  -7.4074716e-01   2.1863868e-01   8.7324311e-01   1.1375285e-01   9.0165319e-01  -6.6472297e-01   7.2403749e-01  -1.0537586e-01  -8.8351860e-01  -9.1056924e-01  -2.2265230e-01   8.4398171e-01  -3.3969454e-01  -9.8874307e-01  -5.3365092e-01  -3.2420642e-01   7.6854372e-01  -6.4642447e-01   8.7559975e-01  -3.9644684e-01  -4.8695306e-01   8.1348667e-01   5.2080773e-01   3.6643669e-01   5.2422843e-01  -2.7002765e-01  -5.4902119e-01   4.0904501e-01  -6.7505204e-02  -8.8410782e-01  -9.8137881e-01   6.6402813e-01   2.9069205e-01  -2.6528880e-01   5.1290991e-01  -6.4447826e-01  -1.3589898e-01   8.5551956e-01   6.7639968e-01   8.2078137e-01  -2.1014552e-01  -1.2306670e-01   7.9557587e-01   1.0026228e-01  -8.6933091e-02   7.7178396e-01   9.0388602e-01  -4.2985559e-01   4.4106965e-01  -6.6034972e-01   4.2704443e-02   1.3896068e-01  -1.2927546e-01   7.0722544e-01   3.9157232e-01  -6.8207614e-01   1.4409957e-01  -2.1388305e-01   6.2427057e-01   7.3485272e-01   8.4862742e-01  -6.1190355e-01  -2.3665391e-01   8.2540460e-01   1.5689676e-01   9.6159494e-01   4.0574810e-01   3.7956495e-02   4.6627369e-01   6.1853189e-01   9.0575186e-02   7.7892956e-02   6.2990166e-01   8.0311620e-01  -5.7936746e-01   5.2513378e-01  -1.6445144e-01  -8.5860538e-01   3.9799216e-01   6.5585433e-01  -4.2213442e-01   6.8217854e-01   9.7122465e-01  -5.5543582e-01  -5.9219702e-01   3.0628647e-01   8.5199461e-01   7.4743804e-01   9.6792612e-01  -7.4801414e-01  -1.1681959e-01   9.4776340e-01  -5.2794248e-01  -2.2125606e-01   1.1971482e-01   3.0591861e-02  -4.3244617e-01   2.6860825e-01  -3.4229605e-01   4.0166950e-01  -8.3084997e-02   8.4699447e-01  -6.1125422e-01   7.0206585e-01   8.7562219e-01  -2.9866746e-01  -4.5279402e-02  -4.3386407e-01  -6.0650440e-01   5.2728078e-01   1.6255593e-01   9.7773985e-01  -5.2884379e-02   8.1381137e-01  -9.2268623e-02  -7.9737096e-01  -5.3488986e-01   6.4446278e-01   4.7085979e-01  -1.2311253e-01  -9.9041129e-01   3.0960949e-01   9.6661138e-01  -7.5832620e-01   8.2196788e-01  -9.2061341e-02  -2.7188784e-01   2.2035434e-01   3.4277903e-01   2.5709508e-01   4.2545955e-01  -4.3746180e-02  -4.3090287e-01  -3.5563285e-01   6.5413323e-01   5.4411888e-01  -6.0069619e-01  -2.0021614e-01  -8.1146348e-01   5.2691811e-01  -1.8102581e-02   3.1425051e-01   8.6545313e-01   9.3728413e-01   2.6313932e-02   5.8645775e-01  -4.9646455e-01   6.7605519e-01  -7.4919050e-01  -4.1701946e-01  -6.5062259e-01   8.7947865e-01  -1.3839278e-02  -5.3982631e-01   5.9292798e-02  -7.6184412e-01   2.5518489e-01   4.1568556e-01  -9.9133920e-01  -9.4359255e-01  -2.3458218e-01   7.0026659e-01   2.9791690e-01   5.1388142e-01   8.0824207e-01  -6.0856415e-01   3.8849450e-01  -5.7506543e-02  -2.4314767e-01   4.6390412e-02   5.8780492e-01   6.8654071e-01   9.2298724e-01  -3.7764584e-01   8.0108550e-01   1.7166051e-01  -2.8921131e-01   7.6828344e-01   5.6056112e-01   9.7126731e-01  -3.3346173e-01  -8.7133367e-01   6.6783917e-01  -9.3622772e-01  -2.6603830e-01   1.8356283e-01   2.0644943e-01  -2.1413094e-01   4.1021994e-01   4.2504872e-01   9.3882023e-01  -3.2159081e-01   4.7188121e-02   9.1410586e-01   1.6157328e-01  -2.0089916e-02  -4.2995851e-01   6.4290769e-01   1.3724273e-01  -8.8473622e-01  -3.7686634e-01  -7.2115280e-01  -3.4351419e-01   3.9899591e-01  -1.3857950e-01  -9.8203152e-01   8.2157650e-01   3.2614494e-01  -3.4241405e-01   1.5296024e-01   4.2119388e-01   2.8275846e-01   7.9192997e-01  -7.5555949e-01   7.0804744e-01   1.9593585e-01  -2.7298591e-01   3.9950217e-01   7.9278702e-01   7.7139241e-01   9.2365369e-01  -7.2661449e-01   4.2394196e-01  -9.6216680e-01   1.0206028e-01  -3.5936744e-01   2.5254085e-01  -6.1249244e-01  -6.9273534e-03  -5.8526499e-01   3.7476170e-01  -5.1322732e-01   1.4542167e-01   5.9869189e-01  -8.0795587e-01  -1.7074123e-01  -1.8662470e-01  -7.2030019e-01  -2.3823114e-01  -7.1319446e-01   9.8838852e-01  -4.1293484e-01   6.6943470e-01   5.1947067e-01  -5.2336647e-02   9.2237591e-01   3.1606731e-02   8.6837189e-02  -4.2212279e-01   8.5789167e-01   9.4650768e-01  -6.8852284e-01  -4.1370373e-01  -5.2456864e-01   6.5885732e-01  -1.9188288e-01   2.1820391e-01  -9.3594106e-01   4.4874683e-01   1.9213991e-01  -1.4154477e-01   5.8383026e-01  -3.1286664e-01  -5.4585597e-01  -2.5912161e-01  -3.6539880e-01  -2.2237512e-01  -9.8800395e-01   3.6840967e-01  -4.3358275e-02   9.6878906e-01  -7.1162644e-01   7.7304288e-01   4.1486794e-01   7.7813603e-01   1.6958164e-01   9.4768789e-02  -3.5385689e-01  -3.3752394e-01  -1.5580029e-01   9.9371067e-01   2.0791259e-01   5.6999882e-03   3.9353836e-03   8.6643868e-01  -2.0391234e-02  -7.8371009e-01  -7.3618123e-01  -9.6454276e-01   6.6316286e-01   5.9429642e-01   4.1932691e-02   6.7904129e-01  -7.4049346e-01   8.0336938e-01   8.3119043e-01   9.0865040e-01  -6.5159832e-01   2.3462957e-01   7.0469696e-01   8.2007264e-03  -8.8511788e-01   1.1950128e-01  -2.5671599e-01  -3.8572226e-01  -4.8510966e-01  -3.0006263e-01   7.5428427e-01  -4.3741111e-01  -3.8778911e-01   6.1941614e-01  -9.0478879e-01   4.8162453e-01  -9.3994326e-01   9.7727974e-01  -8.0684664e-01  -1.4017733e-01  -1.6166136e-01  -5.8561762e-02   6.1074966e-01  -2.6432831e-01   1.9742141e-02   3.6204360e-01  -8.1017938e-01   2.1384105e-01   7.1847677e-01  -7.5291055e-01  -1.1653278e-01  -4.0330377e-01  -6.5413348e-01  -5.1671105e-01   7.6687637e-01  -2.6521338e-01  -8.3493445e-01   2.8271883e-01   6.5377996e-01  -6.7927668e-01  -4.2488402e-01   1.8928759e-01  -6.2266643e-03   5.1451692e-01   5.2939974e-01   9.5335943e-01   3.9681511e-01   8.8001714e-01  -5.6534626e-01  -7.4411950e-01  -6.3372979e-01   5.5254099e-01   2.8833995e-01  -2.4429574e-01  -9.1660554e-01  -5.1908461e-02  -1.3234851e-01  -4.9049108e-02   7.2991135e-01   9.7237515e-01   6.1831368e-01   3.2358298e-01   7.3930969e-01  -9.8368830e-01  -7.6358963e-01   8.8337413e-01  -4.9011694e-01  -6.7092059e-01   6.6306930e-01  -8.7645878e-01   2.0295710e-01  -8.9114949e-01   4.4895284e-01  -5.6264122e-01  -8.8330866e-01   7.4198715e-01  -8.6773280e-01   8.0685254e-01   9.7135224e-01  -2.1267842e-01   4.7110951e-02  -4.4734920e-01   9.0927323e-01   8.3590521e-01   8.3283782e-02   2.3558605e-01  -9.3887021e-01   9.2809101e-01  -3.0131518e-01  -6.7881021e-01  -3.9681043e-01   2.4132487e-01   1.7898580e-01  -7.7296957e-01   5.5781040e-01  -8.5845056e-01  -4.3824709e-01   1.5765705e-01  -4.5948477e-02   9.4023788e-02  -4.5750026e-01  -2.9382487e-01   8.0654450e-01   5.9438399e-01  -4.9557306e-01   5.2063326e-02  -5.7800040e-01  -5.7695761e-01   8.2947781e-01  -9.5394588e-01   1.6701281e-01   9.9356158e-02   6.2925130e-01  -4.1249724e-01  -2.6778885e-01   8.0061145e-02   8.5771374e-01   4.2800100e-01  -9.7003214e-01  -6.6543328e-01   8.0760947e-01  -6.5527540e-01   9.1073487e-01  -8.2727696e-01   4.0439632e-01   7.1988025e-01   2.3215249e-01   1.7863576e-01  -1.8246637e-01   3.8002112e-01   2.3973600e-01  -4.4283185e-01  -1.0386550e-01  -8.6979956e-01  -2.8804235e-01   9.4043059e-03   7.1964117e-02   4.0733438e-01   8.7448747e-01  -4.3399688e-01   3.3818698e-01  -4.8391475e-01   5.1258690e-02   5.6716433e-01  -9.5694037e-02   8.0279229e-02  -3.0552377e-01  -3.0596981e-01   6.8385735e-01   9.3333754e-01  -6.6227605e-01  -3.0377458e-02  -3.9312664e-01   1.0449577e-01   6.8717768e-01  -3.4247659e-02  -7.1167631e-01  -2.7513068e-01  -1.5363820e-01   5.6754987e-02   9.3200284e-01  -3.5838120e-01   7.5031234e-01   1.2452400e-01   3.4703558e-01   2.3803221e-01  -1.9115862e-01   6.1163910e-01   5.8646044e-01   7.1397929e-01  -7.9906762e-01  -8.1376562e-01  -3.2307584e-01   8.1684626e-01   7.7481528e-01  -1.7784307e-01   7.3212114e-01  -4.6377730e-01  -6.7638258e-01  -4.5045329e-01   7.8310777e-01   5.3914279e-01  -9.7166332e-02   8.7765647e-01  -9.4440475e-01   6.3809906e-01  -6.2731058e-02   9.9501899e-01   5.7591889e-02   8.6844419e-03   1.9030384e-01  -6.8489834e-01  -8.6594567e-01  -5.1221704e-01  -7.8099964e-01  -6.0691291e-01  -6.0850719e-01   3.4776097e-01  -2.3245095e-02   8.7495807e-01  -6.3448152e-02  -5.4071020e-01   3.4077441e-01   7.7351832e-02   3.8730745e-01  -7.8343780e-01  -8.5485106e-01   9.4977746e-01  -5.7198881e-01  -7.0412421e-01   7.1759698e-01  -2.4745436e-01   7.3022319e-01   5.7071252e-01  -6.4071353e-01   4.5456338e-02  -6.5716454e-01  -1.8008851e-02   3.4847000e-01  -9.6372341e-01   1.6023833e-01  -2.4064360e-01   7.5213530e-01  -3.0477792e-01  -4.7265398e-01  -5.0835314e-01  -9.1575729e-01   7.4077327e-01   5.9783907e-01  -7.6813386e-01   6.3560050e-01   2.7185613e-01   4.7625553e-01  -6.3288272e-02   5.9377692e-01  -9.3616844e-01   1.9309043e-02   7.9903453e-01  -7.1330567e-02   2.1292415e-01  -7.9606050e-01  -2.9303077e-01  -7.8539151e-01   4.0820130e-01  -2.4386569e-01   2.0734956e-01   3.9011542e-03   8.0444040e-01  -8.5986370e-01   9.8266993e-01  -5.4397098e-01   5.0843013e-02   8.6762160e-01   7.7797986e-01  -5.4526617e-01   4.8310049e-01  -6.8811674e-01  -5.7233043e-01   9.6229629e-01   6.2071655e-01   2.5082518e-01   3.6473750e-01  -2.3229617e-01   3.5478903e-01  -2.7810112e-01  -1.2212583e-01  -2.2843601e-01  -6.3484191e-02   3.0027628e-01  -8.4922120e-01   1.2278449e-02  -3.4213250e-01  -8.2431288e-01  -7.3386733e-01   3.5768309e-01  -8.8211101e-01   8.7370267e-01   3.1200818e-02   3.2984456e-01   9.0114570e-01   4.7189273e-02   7.5720052e-01   4.6194083e-01   4.1561159e-01   3.8858656e-01   1.5092754e-01  -1.2783387e-02   9.6518237e-01  -1.7459774e-01   5.5816420e-01   7.4828559e-01   9.1489604e-01  -5.7918230e-01  -6.9008043e-01  -2.5514962e-01  -3.8193131e-01  -1.0451972e-01  -4.4972109e-01   8.9794342e-01   2.9257468e-01   3.3800717e-01   5.4071832e-01  -1.2726313e-01  -5.4441159e-02   2.1622835e-01  -7.5950073e-01  -7.4345804e-01  -9.0039201e-01   4.2127131e-01  -9.4187576e-01  -6.9692112e-01  -6.5957031e-01  -8.7995936e-01  -6.1325981e-01  -1.4112535e-01  -4.1849942e-01   8.1369798e-01  -3.7692346e-01  -1.6593130e-01  -6.9479144e-01   4.1296711e-01  -6.4813899e-02   7.1724459e-01  -3.2890087e-01  -4.0782995e-01   3.9288575e-01   5.6528355e-01   6.2406346e-01  -4.9951645e-01   3.0460586e-01  -2.4266840e-01  -3.9769592e-01  -8.8073880e-01  -3.0424196e-01   8.4142991e-01   6.9509482e-01  -2.5183884e-01   3.0842943e-01  -6.9124490e-03   2.5749233e-01  -7.5268633e-03  -9.3703435e-01   2.0729329e-01   7.6455293e-01  -1.6350434e-01   8.5609945e-01   5.8025004e-01  -3.5468834e-01   8.3135646e-01  -8.0311470e-01  -1.3143043e-01  -5.1402750e-01   4.5060984e-01   8.0015632e-01  -6.1278219e-01
   8.7213093e-01   9.4730364e-01   1.3540376e-01   6.7976737e-01   5.0729730e-01  -2.4345327e-01  -2.6762146e-01   4.0063199e-02  -4.9127653e-01  -1.5540918e-01   5.1552366e-02   4.7422459e-01   6.6254655e-01   1.7580505e-01  -7.1323114e-01   8.2688997e-01   1.8715722e-01   6.5438653e-01   8.3123636e-01  -9.3710716e-01   7.1250063e-01   5.6039523e-01   8.8073602e-01   6.6900387e-01  -6.6001847e-01   8.9989360e-01  -1.4294843e-01  -5.7237314e-01   6.4722003e-01  -4.1071110e-02   6.9053884e-01  -5.1141063e-01  -7.7342374e-01  -7.2213086e-01   9.7096549e-01  -6.5209887e-01   4.3892681e-01  -2.4113254e-01   9.8299912e-01   8.0819335e-01   9.8135608e-01   6.2649872e-01   6.0292253e-01   1.7714808e-01  -8.5483312e-02  -7.1407347e-01   9.4361376e-01   3.5716075e-01  -2.0344878e-02  -6.2406577e-01   8.9444309e-01   4.4922757e-01   7.2925728e-01  -1.4780371e-01  -8.9776430e-01  -4.6387175e-01   4.3639034e-01  -3.4420472e-01   1.2946393e-01   6.1911699e-01   4.0436265e-01   9.5435204e-01  -3.6272323e-02   7.3375735e-01   3.6594926e-01  -5.2732472e-02   6.5875098e-03  -6.4282081e-01  -2.1460843e-01  -9.7669120e-01   1.2855695e-01   9.7796399e-01  -4.3028765e-01  -9.7683386e-01  -1.0251010e-01   4.8680395e-01   6.2276800e-01   6.6503539e-01   2.3858560e-01   2.1560171e-01  -2.7350549e-01   7.3949904e-01  -5.9594744e-01  -4.6368041e-01   8.5962763e-01  -3.7549045e-01  -4.9926774e-01  -1.2512079e-01  -3.5391330e-01   6.2539547e-01   2.0740361e-01   9.5996695e-01   4.8258076e-02  -3.5106465e-01  -6.1857297e-01   6.5317779e-02  -3.8041227e-01  -3.4369174e-01   2.1362141e-01   5.8034123e-01   5.4996601e-01   6.1734471e-01   6.9609158e-03  -4.3423252e-01   9.0261591e-01  -5.2417926e-01   3.9482998e-01  -5.8189105e-01   1.5388264e-01  -9.9785816e-01   2.2832390e-01   5.2848778e-03   6.7494849e-01  -6.6852069e-01  -4.8950147e-01  -6.8463049e-01   3.2213400e-01  -3.1648649e-01  -4.5518696e-01  -5.6008284e-01   5.2005036e-01  -2.2491323e-01   6.1297206e-01   5.4017430e-02   1.2753850e-01  -8.9513131e-02  -8.1552277e-01  -5.7418191e-01   3.3056596e-02   9.8352507e-01  -1.9337206e-01  -9.8927940e-01   1.1191670e-01  -2.3017840e-01  -8.7089633e-01  -8.6494005e-01   9.4561886e-01  -6.4458995e-01   4.8572076e-01   2.1568779e-01   3.5800028e-01   7.6167270e-01  -3.1460532e-01   9.5577914e-01  -8.3643085e-01   2.7420191e-01   3.2931861e-01  -5.0499605e-02   2.7701045e-01   3.9420151e-01   1.4653579e-01   6.7453565e-01  -6.8983918e-01   3.0588897e-01  -2.3618764e-01   4.7225990e-01  -1.9190668e-01  -6.9650834e-01  -2.6932801e-01   4.9651887e-02  -6.4543746e-01  -9.7135152e-01   7.0732996e-01  -8.2343713e-01   8.2197023e-01  -6.0887152e-01   7.1340314e-01  -4.8832311e-01  -5.6730413e-01   7.0704583e-01   8.6230601e-01   3.3601058e-01  -4.7522681e-01   5.2157953e-01   2.0315207e-01   5.0126209e-02   6.9555956e-01   1.4934882e-01   6.2288466e-01  -4.3286136e-01   6.7641057e-02   8.9075882e-01  -5.8449721e-01   2.9500483e-01  -7.3616223e-01  -3.5371819e-01  -1.5489052e-01  -4.7656909e-01   3.5942066e-01  -4.6445049e-01   3.7335117e-01  -7.9302984e-01  -1.3242596e-01   4.0323491e-01   6.3658954e-01  -9.9937810e-01   1.8679726e-01   1.9505763e-01  -5.3117896e-01   8.1197034e-01  -1.2680290e-01  -6.0280702e-01  -4.4350103e-01   5.8240315e-01  -9.5610024e-01  -7.8785252e-01  -2.7520557e-01   3.8657024e-01  -1.0319536e-01  -6.1578381e-01   8.4068610e-01   1.7096573e-02  -2.3317434e-01   5.0760265e-01  -1.9393265e-01   4.2608660e-01   5.2248971e-01  -7.5528043e-01  -9.4278637e-01  -9.5973769e-01   7.5751418e-01   6.1694871e-01   4.8177035e-01   6.2585063e-01  -7.1046921e-01  -5.7867795e-01  -6.5893473e-01  -7.8178946e-01  -9.6733353e-01   2.9918086e-01   3.7489637e-01   2.1580309e-01   5.5635772e-01  -1.2128641e-01   1.0307955e-01  -9.3822983e-01   2.1277687e-01   7.0595106e-01  -4.9013569e-01   9.7701584e-01   2.4497444e-01   8.6482322e-01   7.0634870e-01  -3.1807251e-01   3.7589004e-01   8.1803180e-01  -3.3743825e-01  -1.2812308e-01   9.5629013e-01   1.8846865e-01  -7.5164554e-01  -1.7161569e-01   6.9876511e-01  -3.3005864e-01   6.1616706e-01   7.4562519e-01  -2.5289956e-01  -1.6892737e-01   7.0811024e-01  -4.0563921e-02  -4.2672969e-01  -2.9708998e-02   1.5600159e-01   1.7632735e-01   2.8826845e-01  -9.6042134e-01  -9.3065274e-02   6.1155100e-01   6.4166613e-01   1.9273577e-01   4.8091326e-01   8.4364290e-01   7.3757523e-01   1.1577748e-02  -5.2669165e-01   6.5170571e-01   8.9169934e-01   8.7015217e-01  -5.3903815e-02  -4.5843724e-01  -7.6140311e-01  -5.2997903e-01  -8.6071155e-01   2.4126970e-01  -8.7519396e-01  -2.8316639e-01   8.6812100e-01   3.7059005e-01   7.9693480e-01  -6.9632968e-01  -3.9422688e-01  -1.9658369e-02   8.6626746e-01  -7.5388542e-01  -3.7875912e-01   4.3432193e-01  -5.0953180e-01   5.7820069e-01   8.1296154e-01  -1.8287842e-01  -7.2067908e-01  -4.3449173e-01   2.0517855e-01   6.6282612e-01  -8.6571308e-01  -1.2597429e-01  -9.7501236e-01  -6.3226903e-02   6.9412824e-02   5.9157442e-01  -9.9120254e-01   8.1062973e-01  -2.0183791e-01   6.9946438e-01   4.7607610e-01  -7.0265341e-01   5.7875176e-02  -6.3428357e-01  -7.2419778e-01   6.4436202e-01  -4.8140788e-01   2.9321729e-01  -6.3844843e-01  -6.2223227e-01   1.0264087e-01  -9.1989703e-01  -4.5477231e-01   5.5000724e-02  -1.8365077e-01   7.0739462e-01  -3.5200943e-01   8.3988358e-01  -2.1557406e-02  -2.1532798e-01  -4.0533518e-01  -8.1747228e-01   3.7782615e-02  -1.8750053e-01  -8.2687207e-01  -4.4532320e-01   9.7803304e-01  -1.9792295e-01  -9.2112408e-02  -2.3997308e-01   1.7551029e-01   8.2059321e-01   7.5333506e-01  -8.2022429e-01   8.3157439e-01  -6.4710607e-02  -9.4891795e-01   9.7220473e-01  -3.7767954e-01  -5.5469579e-02  -8.6071933e-01   8.5160586e-01   6.5375355e-01  -2.4989983e-01   5.1211948e-01  -4.3422872e-01  -7.7222053e-01  -9.9872894e-01  -8.0414879e-01   4.6560274e-01  -5.8800808e-02  -8.9008074e-01   3.5469328e-01  -7.2606696e-01  -8.8854442e-01  -9.9424800e-01   3.2164326e-02  -9.2388773e-01  -2.3845432e-01  -7.6468868e-01  -5.5905948e-01   3.5131534e-01   1.0071073e-01  -4.4692961e-01  -7.5859027e-01   8.3693267e-01  -7.2308204e-02   8.9340549e-01  -3.7986102e-03  -4.4616590e-01   2.4433570e-01   8.5236591e-01   3.1157070e-01  -8.3278363e-01  -9.4598870e-01   3.2937977e-01  -5.5356404e-01  -7.0366153e-01   9.8744335e-01  -6.0936014e-01  -5.8689196e-01   1.0469098e-01   5.8596237e-01  -5.6078457e-01  -7.1703749e-01   8.5393681e-01   9.4437525e-01   8.9387293e-01  -2.0545049e-01  -2.1215846e-01  -9.5760659e-01   3.6074215e-01   5.2712003e-01  -4.0575548e-01  -3.3368694e-01  -5.3839554e-01   6.2692340e-02   4.3303431e-01   7.7595259e-01  -4.8888153e-02  -9.9604967e-01   2.0795416e-01   5.7944252e-01   2.6451845e-01  -2.1764008e-01   5.4297919e-01  -4.0927373e-01   2.8989271e-01  -6.7959831e-01   6.3315529e-01   1.7202393e-01  -5.7855229e-01  -6.7263786e-02   5.8727182e-01   7.2059601e-02   7.6969523e-01  -5.3838450e-01   2.5123452e-01  -3.4920537e-01  -6.4465660e-01   4.8576030e-01  -9.3597074e-01  -4.4558790e-01   5.8591961e-01   1.3437989e-01   8.2285923e-01   4.5149432e-01   4.7467435e-01  -1.4243016e-01   7.9923246e-01  -6.3815521e-01   5.2670301e-01   3.5832164e-01  -8.9449404e-01   9.1247352e-01  -1.4484675e-02  -9.6694714e-01  -2.0574078e-01   2.6817388e-01   1.3195274e-02   1.3327653e-02   1.8975315e-01  -9.6638917e-01  -2.0532759e-01   3.1052666e-01  -6.8627370e-01  -1.5870088e-01  -4.2890072e-01  -8.5910042e-01   7.3260726e-01  -6.6569319e-01  -9.8315914e-01  -9.5258813e-01  -3.5894981e-01   7.3017559e-01   2.1305622e-01   5.8620446e-01   5.2476190e-01  -3.7374792e-02   6.1011738e-01  -8.9087693e-01   7.5943214e-01  -7.0005623e-02  -5.3434837e-01   6.9737200e-01  -6.7297928e-01  -3.2055146e-01  -1.6329635e-01  -8.7927408e-01  -3.4676031e-01  -8.5013767e-01   6.5869312e-01  -3.6915853e-01  -7.7939466e-01   1.5064855e-02   9.2679846e-02   5.8522591e-02   8.6909439e-01   3.5991069e-01  -6.4001388e-01   3.2714699e-01   2.8280223e-01  -7.1281366e-01  -3.7051121e-01  -6.6342767e-03   8.4289805e-01  -2.9192266e-01  -9.1245970e-01   5.4190324e-01  -4.1368221e-01  -6.3681621e-02   8.9302441e-04  -5.5683685e-01   8.7721594e-01   9.7213814e-01  -2.9602821e-01  -2.2809882e-02   1.8195874e-01  -1.6636280e-01  -9.0410194e-01  -5.7258938e-02   2.7009693e-01  -1.9294179e-01   8.6558666e-01  -5.2441815e-01   9.6543717e-01  -3.5168915e-02  -5.3670664e-01  -6.4265931e-01   9.9588638e-02   9.5315402e-02  -2.8769012e-01   1.6037328e-01  -6.5186902e-02  -3.4162588e-01   3.4447781e-01  -1.7587882e-01   8.5798255e-01   6.7474780e-01   9.5439929e-01  -4.0498070e-01   4.8391827e-01   4.4828390e-01   5.5304842e-02  -7.5447714e-02  -8.5929267e-01   6.8661821e-01   1.5451180e-01  -3.4324020e-01  -7.6629848e-01   8.2636178e-01   5.1100771e-01   9.4472925e-01   8.9971575e-01  -3.8663701e-01   7.3217517e-01   6.9979119e-01   5.7225672e-01  -3.2794863e-01   8.8581125e-01   9.9469134e-01   9.1501256e-01  -6.4042755e-01   6.8713347e-01   6.5450511e-01   8.1544539e-01   7.5770627e-01  -3.4259448e-01  -7.6151627e-01  -5.8908197e-01  -9.1376499e-01   5.7719301e-01  -5.1970218e-01   9.8316565e-01  -3.7439062e-01   3.2254159e-02  -6.3459816e-01  -3.3934191e-01  -3.2799402e-01   5.9001844e-01  -8.4261389e-01   7.0876983e-02   6.0083584e-01  -2.4946251e-01  -4.4233664e-01  -7.3589645e-01   9.4140141e-02   3.1748971e-01   3.8161165e-01   9.9957384e-01  -9.5300612e-01  -8.3825872e-01   4.5999514e-02   4.4766266e-01  -4.2242324e-01  -2.7188882e-01   6.6054120e-01  -5.4951980e-01  -2.5239907e-01   7.2934846e-01   4.6694808e-01  -6.3173394e-01   3.1128302e-01  -4.1449455e-02   3.4803572e-01   3.0838189e-01  -9.2302067e-01   4.5213019e-01   2.1345387e-01   6.8839621e-01   3.3869687e-01   1.1306892e-01  -1.0306549e-01  -3.0775285e-01  -7.4530793e-01   7.0564207e-01   1.4560408e-01  -2.3078513e-01   5.4109624e-01   5.3488059e-01   2.2457788e-01   8.3608208e-01   4.2850952e-01  -1.9904063e-01  -7.0008253e-01  -4.7620056e-01  -6.7832796e-01   5.9386833e-01  -6.0647899e-01  -2.0178190e-01   2.9410603e-01  -6.0382276e-01  -7.3646072e-01   1.1289414e-01   1.5812593e-02  -6.1029871e-01  -3.9466839e-01   9.6665576e-01  -9.0054056e-01   2.8512516e-02  -6.1216800e-01  -1.2768803e-01   5.2455554e-01   3.6765034e-01  -8.4818277e-01  -8.5490312e-01   4.6419163e-01  -8.2508297e-01  -1.9981253e-01  -8.4700239e-01   9.8607322e-01  -2.1857641e-01   8.2427156e-01  -1.8022484e-02  -8.6921296e-03   3.4363348e-01  -3.7139616e-01  -4.2624444e-01   5.0684829e-01  -8.5810176e-01   3.5789374e-01   2.0112866e-01  -5.0817741e-03  -5.6464158e-01  -4.0610649e-01   8.7081003e-01  -6.4984390e-01   8.3668792e-01  -1.5646279e-01  -8.5518191e-01   3.3419187e-02  -2.6766216e-01  -2.5438491e-01   6.5243509e-01   1.6330695e-01  -2.6983494e-01   1.0543451e-02  -8.6870861e-01  -9.2597990e-01  -4.9586380e-01  -8.8546914e-01   6.9128991e-01   4.3969457e-01  -9.2279163e-01  -9.7360710e-01   5.1682759e-01  -5.0468161e-01   7.2413448e-01   4.9898698e-01  -6.8086586e-01  -1.7791624e-01  -1.8425132e-01   3.7203727e-01   4.2471587e-01  -5.3305969e-01  -1.0984335e-01  -1.9642519e-01   6.4179967e-01  -5.3613866e-01  -1.4415459e-01   3.7103843e-02  -1.2320043e-01  -4.6678170e-01  -9.9805451e-01  -2.7170297e-01   2.3322699e-01  -6.2372332e-01   5.4047165e-01   3.8956171e-01  -7.1383915e-02  -7.0074873e-01   5.5873881e-01  -9.6204789e-01  -4.9062383e-01   5.1572522e-01  -1.5361516e-01   2.6000120e-02   1.9089978e-01   9.6536796e-01   8.0858196e-01  -5.2476693e-01   7.8715637e-01  -2.5311427e-01   3.5814806e-01   5.1452985e-01   5.1057039e-02   2.5217315e-01   7.3074627e-01   8.0401039e-01  -8.2313294e-01   7.8414212e-01  -6.9862414e-01   8.9863594e-01   1.9603634e-01  -6.7941861e-01  -8.8269152e-01  -5.6786941e-02  -8.5620474e-01   4.3110447e-01   5.5505742e-01  -4.8126319e-01  -4.5117999e-01   4.1756704e-01   7.3018594e-01  -4.6990421e-01  -4.3191113e-01  -7.3537797e-01   5.1607260e-01   1.0884376e-02  -5.1258742e-01   3.3636149e-01  -5.3219988e-01   6.7458036e-01  -5.8827622e-02  -6.3951906e-01   2.5453219e-01   2.4858258e-01  -5.0688890e-01  -2.9386194e-01  -5.2199091e-01  -9.3521426e-01   1.7438367e-01  -4.3832008e-01  -5.3603084e-01   3.6597050e-01   1.2364327e-01   2.9639874e-02   3.6688397e-01  -5.2341190e-01   1.7468019e-01   8.5954331e-01   8.6126915e-01   2.6099509e-01  -6.2692300e-01  -6.9036596e-01   5.6327656e-01  -4.4866261e-02  -9.7552328e-01  -8.0057742e-03   1.6625912e-01   9.6686122e-01  -8.9755354e-02  -3.3072779e-01  -7.7586396e-02  -7.4200473e-01  -3.6945527e-01   5.8508612e-01   2.1354141e-01   2.3789468e-01  -6.5494047e-01  -6.4470205e-02   6.5576428e-01   7.2592786e-01  -7.1107398e-01   3.5278554e-01   4.9133316e-01   3.0845377e-01  -1.6032865e-01  -8.5928559e-01  -4.6695303e-01  -9.7632105e-01  -2.2889668e-01  -5.8026387e-01   9.4880366e-01  -6.4977783e-01   8.1809182e-01   4.8476808e-01  -8.7166273e-01   4.4467322e-01   9.0871695e-01  -7.3120885e-01  -6.9774417e-01   5.6429185e-01  -5.7172782e-01  -6.1594139e-01  -9.2410403e-01  -2.5801960e-01  -9.4863127e-02  -1.5826443e-01   1.7258177e-01  -2.5883421e-01   2.6810559e-01  -4.6617646e-01   4.7143994e-01  -8.0358370e-01   5.4253398e-01   9.4407259e-01  -1.6440191e-02  -4.2233410e-01  -8.3066634e-02  -1.7855213e-01   1.9023529e-01  -3.3701407e-01   6.1962689e-01   7.0775687e-02   8.4305585e-01  -7.6522144e-01   2.3243120e-01   7.5550442e-01   6.4392104e-01  -4.8417761e-01  -7.5631721e-01  -6.7207027e-02   6.8575324e-01  -5.6547604e-01  -7.2923444e-01  -8.9216169e-01   5.7670048e-01   7.4975980e-01  -7.0742523e-01  -7.7962769e-02   2.9318651e-01  -1.5242079e-01  -8.4064871e-01  -8.8720250e-01   6.1983942e-02   4.9089010e-01   7.4346052e-01  -5.3928550e-01  -2.9394851e-01   4.1373301e-01   3.0518790e-01   1.6821194e-01  -2.5580552e-01   9.1437614e-01   1.4684512e-01   2.8706746e-02  -9.0312542e-01   6.2596147e-01   5.0796391e-01   1.8080685e-01  -7.4719449e-02   4.2448628e-01   1.6795522e-01  -2.0542995e-01  -7.4440631e-01   1.1986598e-01   2.1930252e-01   4.0324260e-02   5.0910728e-01   7.3882485e-01   4.6850162e-01  -3.1546749e-01   3.8928849e-01   3.8181494e-01  -7.5770287e-01  -5.3544812e-01  -2.2528134e-02  -4.0406117e-01   8.2492241e-01  -1.4666441e-02  -4.3911163e-01   5.6297751e-01   3.9090841e-01   9.7947256e-01  -5.7785251e-01   5.3727651e-01   5.2392948e-01  -4.8254139e-02  -3.4814965e-02  -8.3473348e-01   5.8285541e-02   1.2008229e-02  -9.4498313e-02  -6.9870875e-01   1.5952533e-01  -5.1333498e-02   9.1306696e-01   6.5713398e-02   7.6812663e-01  -9.4468361e-01   4.0176480e-01  -6.3681686e-01   5.9292424e-01   9.3984811e-01  -6.9809803e-01   8.6531902e-01  -2.9858623e-01  -9.2713922e-02  -4.8954592e-01   1.1993282e-01   8.6543030e-02  -5.5845085e-02  -7.0778577e-01   8.3816271e-01  -8.1527457e-01  -6.7587543e-01  -7.4592213e-01   4.2829266e-01  -5.7936424e-01   5.6539783e-01   2.1113171e-01  -5.7600597e-01  -5.6541067e-01   6.7560256e-02   6.6177217e-01  -5.5910214e-01  -5.5343695e-01   2.4730243e-01   3.3143324e-01   8.6911861e-01  -8.3084954e-01  -8.9498931e-01   1.1176747e-01   7.9861270e-01   2.3583966e-01  -2.5201308e-01  -4.2746380e-01   6.8069408e-01  -7.4277056e-01  -7.4964568e-01   3.4608203e-01  -9.3742274e-01  -5.4053692e-01   2.4174205e-01  -1.0863549e-02  -4.9321252e-01  -2.3856283e-01  -1.8176405e-01   2.7956496e-01  -2.7959879e-01   1.5975341e-01   8.8863006e-01   5.5105536e-02   5.1121128e-01   2.5458504e-01   8.1077951e-01  -6.2036840e-01   1.9695085e-01   8.7833253e-03  -9.6184320e-01   4.8771066e-01  -9.2180021e-01  -7.3177772e-02   1.3491925e-01   9.5034848e-01   6.5363916e-01  -1.9904947e-01   9.7577507e-01  -3.1584850e-01   9.7218920e-01  -3.8014054e-01  -3.7408708e-01  -3.5612749e-01  -9.2221779e-01   9.2857926e-01  -4.1135350e-02   2.9188677e-01  -9.9702478e-01   4.1321402e-01   5.2016490e-01  -4.0351211e-01   3.5078139e-01  -5.8806372e-01   1.1660178e-01   1.1486082e-01   6.6600452e-01  -3.6747798e-01  -4.9651412e-01  -7.1634796e-01  -3.1967089e-01  -9.1771142e-01   3.9183021e-01  -8.3741426e-01  -4.8757223e-01  -6.9004026e-01
   6.2650829e-01   4.8545490e-02   6.7347989e-01   8.5942528e-01   3.1648935e-02   9.3375401e-01  -7.2631562e-01   6.0274552e-01   2.2053524e-01   9.2870906e-01   4.5618605e-01   8.1730738e-02   9.0962247e-01  -5.8759422e-01   4.2780564e-01   8.2790626e-01  -1.8494374e-01   2.6700170e-01   3.8213422e-01  -7.6658744e-01  -1.4593882e-01   2.9960095e-01   9.8037485e-01  -5.3832077e-01  -1.9172985e-01  -4.2264565e-01  -2.0646042e-01   2.7252948e-01  -6.4056414e-01   5.5696681e-01   9.8556129e-01  -9.0158087e-02   1.9370468e-02   2.3918965e-01   5.6006083e-01  -1.3420779e-01  -6.4155773e-01   6.6138268e-01  -1.3656590e-01  -5.5837795e-01  -9.4996217e-01   1.6221623e-01   1.0476371e-01   9.8140460e-01  -2.1090486e-01   6.1696541e-01  -8.5608463e-01  -3.0976959e-01   1.7383559e-01  -6.0186356e-01   3.9020541e-02  -6.4860952e-01  -9.7073871e-01  -3.5470866e-02  -6.6397404e-01   3.4369040e-02   3.4275289e-01   6.3776398e-01   9.3412036e-01   5.5641083e-01  -5.8311584e-01  -2.8070299e-01   7.0055467e-01   1.6522054e-01  -6.5107419e-01  -5.8414872e-01   8.5947476e-02  -3.0326976e-01  -2.7457307e-01  -7.4976530e-01   2.8410574e-01  -9.8124063e-01  -9.0846311e-01  -6.2898930e-02   4.6456279e-01  -9.4920673e-01   3.4675051e-01   8.0713613e-01   8.4477090e-01   3.3269889e-01   4.3881179e-01   8.6531513e-02  -3.3055857e-01  -6.7312164e-01  -8.3880472e-01  -6.1257826e-01   2.3535209e-01  -3.1196224e-01   5.6035550e-01   3.8034383e-02  -6.2407252e-01   7.9100110e-01  -9.6167307e-01   1.7377842e-01  -9.7740395e-01   3.3719104e-01  -4.8962656e-01   1.4405175e-02  -6.3709574e-01  -9.0315873e-01  -1.3946125e-04  -9.6996884e-01  -2.1441678e-02   3.2869084e-01  -3.3995420e-01  -7.9231833e-01  -8.3712559e-01   2.7737616e-01  -3.2149838e-01  -5.8423066e-01  -5.7962567e-01  -8.3538607e-01  -7.4309090e-01   2.5687731e-01  -8.8904984e-02  -8.2696026e-01  -1.2562518e-01  -7.1469191e-01  -7.6881958e-01   7.5963490e-01   2.5450045e-02  -1.0423234e-01   3.6084278e-01   6.2293683e-02   6.2721666e-01  -2.4476047e-01  -5.4209053e-01   2.8061050e-01  -4.0361585e-01  -9.5530275e-02  -9.6158398e-01  -3.5551161e-01  -7.6873311e-01   6.0465789e-01  -4.2178820e-01   1.7884633e-01  -9.8101298e-01  -4.4041216e-01   6.5431802e-01   9.8342682e-01   8.1470846e-03  -2.8577624e-01   1.4723569e-01   4.5098944e-01   3.9278105e-01   9.8560120e-01  -1.3005708e-01  -2.0481865e-01  -9.3263327e-01  -7.6773494e-01  -1.7813399e-01   4.4200588e-01   9.2125355e-02   6.8268347e-01  -3.1958061e-01  -8.2197179e-01   1.9208581e-01   3.1395358e-01  -7.8849284e-01   7.8189326e-01  -8.7124305e-01  -7.5073641e-01  -4.1223247e-01  -4.2887388e-02  -4.9662502e-01   8.8695038e-01   1.0591456e-01   3.4907494e-01   4.8141387e-01   3.5222154e-01  -6.3384619e-01  -3.6073630e-01   7.7628356e-01  -9.5246243e-01   6.2672832e-01   6.4341903e-02  -6.8433662e-01   1.2490432e-01   2.8142553e-01  -5.1184568e-01   8.6544695e-01   5.0149435e-01  -3.7079925e-01   6.1076559e-01   6.4669836e-01   3.5007659e-01   4.8915401e-01  -5.0328643e-01   3.5400260e-01   2.4034419e-01  -7.8501870e-01   4.5204493e-01  -5.4456412e-01  -9.2557049e-01  -7.7015549e-01  -9.2579993e-01  -3.2508220e-01  -4.4727493e-01   3.8200155e-01  -2.2023714e-01  -7.9350393e-01  -8.0237228e-01   2.6658754e-01  -1.3721298e-01  -9.9042918e-01  -1.3067032e-01  -1.6084557e-01  -8.8732102e-01  -3.6016298e-02   6.2059944e-01   2.2209623e-01  -1.3830674e-01  -2.6599181e-01   7.2667345e-03   9.6047562e-01   4.2311282e-01  -6.1467862e-01  -3.3005637e-01  -1.1109145e-01   8.2524828e-01   7.6975490e-01  -6.0508368e-01   3.1699182e-02  -5.6655935e-01  -9.9741175e-02  -3.0077735e-01   5.0829764e-01  -7.1375100e-01   8.2536473e-01   4.5111577e-01  -2.8635078e-02   3.8802838e-01   9.2677916e-01   3.3342719e-01  -2.0757816e-01  -4.0774932e-01   3.8874274e-02  -1.1482928e-01  -9.8567498e-01  -4.5607927e-01  -8.0642695e-01  -8.1601296e-02  -1.2236460e-01  -4.4969229e-01   6.6468094e-01  -5.7878142e-01   1.0341696e-01  -6.4300131e-01  -3.0798422e-01  -4.0362697e-01  -4.4871030e-02   9.8661769e-01   6.4874260e-01   5.4286043e-01  -2.3101961e-01   5.2670895e-01  -1.8746206e-01   3.2282549e-02  -2.6992171e-01  -5.3370402e-01  -6.3034785e-01   5.9851529e-01  -9.6728825e-01  -9.3970802e-01  -7.3811193e-01  -4.4045677e-01   4.2931014e-01  -2.5665111e-01  -8.6097644e-01  -2.9146416e-01   5.3892310e-01   6.5399013e-01   5.2850249e-01   5.3150598e-02  -7.2835781e-01  -7.8333228e-03  -1.4190646e-01  -1.2171034e-01   1.9966628e-01   1.7960150e-01   3.3022530e-01   3.8131729e-01   2.9687563e-01  -8.7920050e-01  -1.7281662e-01  -6.6881518e-02   9.4011132e-01  -5.5782479e-01   4.5240170e-01   4.8655796e-01  -5.1714492e-01  -8.0199655e-01   5.7968610e-01  -4.5974302e-01   2.5266207e-01   4.9592022e-01   7.0477612e-01  -4.5030453e-01   5.1949464e-01   3.6189022e-01   9.3453583e-01   9.7367389e-01   1.1989900e-01  -7.3337323e-01   7.0736619e-01  -4.7260733e-01  -7.2202589e-01   7.5928642e-01   9.1312775e-01  -7.8163207e-01  -5.1804530e-01   1.8528078e-02  -8.1761343e-02  -4.6344385e-01   6.9778977e-01   1.2412571e-01   9.8103317e-01   6.8077473e-01   8.3172473e-01   3.2507517e-01  -8.0722056e-01   6.5634488e-01  -1.5614280e-01   4.7748110e-01  -3.8997342e-01   8.9668296e-01  -3.7121829e-01  -6.0000930e-01   2.2319957e-01  -1.4668916e-01  -8.4147002e-01   7.5384728e-01  -5.1131661e-01   9.1602467e-01  -5.3803057e-04  -5.4824561e-01   9.9282167e-01   7.6491419e-02   4.4285238e-01  -7.5043505e-01   5.4615674e-01   2.9905349e-01   6.4398797e-01  -6.9714306e-02  -9.5930600e-01  -1.9969729e-01   9.5198371e-01  -2.7946189e-01  -3.8760858e-01   4.9098303e-01  -8.7089475e-01   6.4329785e-01   2.9888643e-01  -3.4745884e-02  -3.2069496e-01  -6.6587356e-01   5.2746612e-01   3.1461519e-01  -1.7848179e-01   9.1945579e-01  -9.4374513e-01   8.9157711e-01  -4.4553633e-01  -8.6997820e-01   5.5925496e-01   6.0439741e-01   3.6833451e-01   4.2319716e-01   5.1714002e-01   7.3962662e-01   4.5149994e-01   9.3330588e-01  -6.7186310e-01   9.5940923e-01  -4.8704687e-01  -1.9462001e-01   9.5877312e-01  -8.6325640e-01   2.6076630e-01  -6.8261762e-01   5.3777705e-01  -4.8223874e-01  -5.3619190e-01  -5.9411201e-01   6.5759646e-02  -4.1853338e-01  -8.1610219e-01  -5.3364290e-01  -9.1206656e-02   8.6324804e-01   9.6407321e-01  -9.1651173e-02  -8.0562041e-01   5.4454195e-01  -2.3022700e-01  -8.9300669e-01   1.1208047e-01  -1.0431374e-01  -3.9184776e-01  -6.3269224e-01  -5.9124720e-01   7.4851839e-01  -7.3747019e-01   1.0416937e-01  -4.9806772e-01   1.9694586e-01  -7.7354724e-01   7.4689092e-01  -3.6102925e-01   9.4938129e-01   1.7378097e-01  -1.6210029e-01   7.1553267e-01  -2.7824427e-01  -1.2312739e-01   9.7581880e-01   9.0425610e-01   2.1893872e-01   6.7396284e-02  -2.4137638e-01  -2.1568991e-01   3.0415065e-01  -7.4477966e-01   9.4933428e-01  -1.6180992e-01   8.4546621e-01  -7.7614155e-02   1.0810352e-01  -6.2826753e-01   6.8505166e-01   6.0391379e-01   5.9765884e-01   9.6100095e-01   1.3885976e-01  -9.0930582e-01  -7.2080289e-01  -3.2220969e-01  -2.1663552e-01  -9.0106801e-01   7.7042516e-04  -5.7144584e-02  -6.4456096e-01  -1.6772799e-02   1.0015370e-01   9.4759003e-01  -1.8200070e-01   7.8947333e-01  -8.9744739e-01   5.7241852e-01  -1.5702510e-01   7.3499041e-01  -1.3776001e-01  -1.3687835e-01  -6.9468946e-01   9.1196488e-01   3.9326352e-01  -7.8610431e-01   6.7729382e-01   5.4405739e-01   5.8304906e-01  -6.0218791e-01  -8.9942074e-01  -6.9980634e-01   7.1005399e-01  -7.7022341e-01   6.0998138e-01  -5.9608375e-01   2.4167040e-02  -2.5483959e-01  -3.1049930e-02  -4.1676958e-01   1.7072624e-01   5.0977942e-01   6.7687623e-01  -1.5545268e-01  -5.6680229e-02  -9.2097615e-02   3.6924291e-01  -8.8544928e-01  -9.8426440e-01   3.8491161e-03   6.1247140e-01  -8.9483311e-01  -9.5055937e-01  -5.0633966e-01   7.0054750e-01  -9.1811556e-01   5.5017887e-01   6.6929271e-01  -3.6919054e-01  -8.1516579e-01  -2.2381502e-01  -7.8064541e-01   8.5722398e-01  -4.6988862e-01   5.0294165e-01   1.9840249e-01   3.4118178e-01  -3.0048985e-01   2.5988661e-01   6.0398116e-01   1.6459630e-01  -8.2391639e-01  -6.7152960e-01   6.7009967e-01   4.5627201e-01   3.7609946e-01  -2.5234422e-01  -2.4769038e-01   4.2555742e-01  -3.0756235e-02  -1.4647667e-01   8.7599468e-01   1.3240559e-01   6.0046360e-01   8.1617145e-01  -7.8143828e-01  -5.8046021e-01   3.7324173e-01   5.9043541e-01   1.0560276e-01   2.4575238e-03   9.8939146e-01  -9.6913523e-01   4.2114394e-01  -1.1627384e-01  -1.4963914e-01   8.0022660e-01  -2.5545447e-01   6.9644001e-01  -1.4297815e-01   2.8937389e-01  -8.3630661e-01  -1.0509982e-01   1.4054690e-01   4.9404576e-01   1.7781375e-01  -4.4797706e-01   3.9625530e-01   7.5659227e-01  -1.3504552e-01  -3.1808644e-01  -3.3293930e-01   8.8155253e-01  -7.9464845e-01   2.5729123e-01  -1.9227917e-01  -7.8116524e-01  -5.2487361e-01  -6.2816659e-01   9.6843265e-01  -4.1941541e-01  -4.1792002e-01  -2.0246205e-01  -9.7448940e-01  -9.3815184e-01  -1.3664770e-01   5.6736664e-01  -3.4280250e-01   6.8114048e-01  -3.8218077e-01   2.3429324e-01   6.2375902e-01   4.9472103e-01  -3.9005303e-01   7.7383931e-01  -2.3785345e-01  -8.7480674e-01  -9.4208707e-01   3.5396169e-01  -9.8202429e-02  -4.2202686e-01   3.9215140e-01  -7.9526068e-01  -5.9969321e-02  -9.6673027e-01   2.2459756e-01   9.5843928e-01   1.3089732e-01  -7.2974943e-01   2.0829067e-01  -7.0832908e-01  -9.4954628e-01   9.6435406e-01   7.1990664e-02  -7.9104203e-01  -5.4169522e-01   3.5435238e-01  -5.5087150e-01  -4.1400646e-01   7.0817955e-01  -1.7594462e-01   7.9461061e-02   3.9945437e-01   3.6203217e-02  -8.9940073e-01   3.5142556e-01   5.9786447e-01   7.4683463e-01   1.5498328e-01  -9.3789281e-01   3.7675924e-01   3.1457006e-02  -1.2647109e-01  -3.4108541e-01  -5.7113194e-01   3.4299179e-01   6.2854653e-01   7.2022876e-01   4.0573809e-01  -3.1726426e-01  -9.2855779e-01   1.7616266e-01   4.6372682e-01  -5.9317333e-01  -7.1110967e-01  -1.3390942e-01  -7.5240994e-01  -4.9584578e-01   2.1616459e-01  -5.4682302e-01  -9.4762310e-01  -5.6678245e-01   7.1961158e-01   5.2430591e-03  -9.7663077e-01  -3.2866744e-02   1.9829297e-01  -3.1495177e-01  -1.2847501e-01  -9.8437318e-01  -5.3093552e-01  -1.9085377e-01   7.0754964e-01  -8.4521119e-01   8.7557446e-01  -4.9627337e-01  -7.4150445e-01   7.7881661e-01   6.0483217e-01   1.8612176e-01  -4.5257780e-01  -3.6473052e-01   5.0862878e-01   4.8674405e-01  -9.6820443e-01   3.7116662e-01   2.3475585e-01  -1.6037259e-01   6.4860673e-02  -9.8982936e-01  -3.4016196e-01  -9.3006394e-01  -7.9025110e-01   8.1124110e-01   2.6722466e-01   2.6713394e-01  -8.8214700e-01   8.7093695e-01   2.4192847e-02  -8.2990052e-01  -4.3440867e-01   6.8198168e-01  -7.0440486e-01  -5.6551617e-01   9.9644390e-02   2.3480542e-01  -8.7969943e-01  -6.7204269e-01   8.7716289e-01  -6.6672631e-02  -2.2528352e-01  -6.1394668e-01  -1.9415577e-01   2.4682027e-01  -8.5703822e-01   5.3422344e-01   7.9765519e-01   8.0975487e-01  -9.5669292e-01  -4.1515161e-01  -5.0095342e-01   4.0017897e-02  -3.5030091e-01  -8.9642439e-01   4.7050020e-01   3.5693429e-01   4.9961857e-02  -5.0596985e-01  -3.3198414e-02  -5.6778892e-01   1.7384097e-01  -7.2955199e-01   6.8265933e-01  -7.5416872e-02  -6.6508044e-01   8.8132345e-01  -1.5860103e-01   9.4689506e-01   6.1067318e-01   5.4295285e-02   3.7843994e-01  -5.2676744e-01  -4.5444111e-01  -2.2614688e-01   4.4154852e-01   7.9643671e-01  -5.2468275e-01  -7.9800413e-01  -6.6944704e-01  -6.7227170e-01  -8.9899454e-02  -5.9225368e-01   6.4317869e-01   7.0944938e-01   4.3425755e-01   2.3955093e-02   7.4745996e-01  -4.9418601e-01   1.7011930e-01   9.9614259e-01  -5.0958581e-01   5.8524394e-01   2.9920187e-01  -5.1298010e-01   8.3081964e-01   5.1136885e-01   3.2878612e-01   7.5788965e-01  -5.0654482e-01   9.3751146e-01  -8.2231688e-01  -5.2199315e-02  -8.0063781e-01   1.6986096e-01   6.3904148e-01   4.2525801e-01  -4.1083271e-01   7.6842555e-01   3.3334063e-01  -9.2866477e-01  -6.0986202e-01   9.2723577e-01  -6.6565826e-01   8.9705053e-02   1.9005887e-01   3.4680885e-01  -3.6496430e-01  -9.3397434e-01   2.6520024e-01  -8.8081153e-01  -7.3670361e-01  -7.3715173e-01   8.7830156e-01  -9.0737584e-01  -5.3678163e-01  -2.2622260e-01   7.3443817e-01   5.3418571e-01  -1.0296027e-02   8.0031186e-01  -9.4478317e-02  -4.7105544e-01  -5.7634270e-01  -3.8378930e-01  -8.4138761e-01   6.9169667e-01   8.6440497e-01  -5.8139528e-01  -9.0955929e-02   1.5663968e-01  -5.4074326e-02   3.9843501e-01   6.9972701e-01   8.5911418e-01   9.2348844e-01   6.0747121e-01   2.1570516e-01   2.1807495e-01  -3.5530784e-01   8.0528852e-01   3.2694924e-01  -1.7650703e-01  -3.3329934e-01   8.0926875e-01  -7.0814751e-01  -4.7515181e-01   3.4504259e-01  -9.7062273e-01   1.9914974e-01  -2.0727942e-01  -5.3945876e-01   9.4530450e-01  -8.9098025e-01  -3.0063907e-01  -8.6788654e-01   3.8879199e-01  -1.5495047e-01  -1.5411625e-01  -8.4176385e-01   3.6495869e-02   6.0664756e-01  -3.4165062e-02   6.2976951e-01  -6.5640672e-01   2.5862826e-01  -2.9067974e-01  -6.6929915e-01   4.9611291e-01   2.4997760e-01   3.1203380e-01   1.5222911e-01  -3.2645541e-01   5.4790507e-01   1.4107235e-01  -8.3200941e-01  -3.0918674e-01  -8.4560987e-01   4.2157999e-01   8.0496557e-01  -1.1963370e-01   3.9514739e-01   5.5833602e-01  -4.8978891e-01  -4.8680982e-02   7.9433943e-01   4.2876875e-01  -5.2788910e-02  -3.8011163e-02  -9.6711148e-01  -9.1248206e-01   5.1901611e-01  -8.1075992e-01   5.9417657e-01   2.7810753e-01   5.2808191e-01   8.9510675e-01   4.4451659e-01   6.8369099e-01  -5.2912012e-01  -2.2989170e-01  -9.0135494e-01   6.1924739e-01  -8.3432242e-01   2.6382880e-01  -9.9276099e-01   3.5223066e-01   7.5255459e-01   6.3567077e-01  -8.6637590e-01   9.9361232e-01   1.9736781e-01   5.9846852e-01  -2.6965923e-01  -7.1585475e-01  -7.2297743e-01   7.3852596e-01   5.9254745e-01  -7.9829986e-01  -2.4723229e-01  -2.6132497e-02   5.7629422e-01   3.8474761e-01  -9.4636024e-02   7.2339710e-02  -6.4704326e-01  -1.9897013e-01  -1.5209028e-01  -7.1899635e-01  -1.3497503e-01   7.7711357e-01  -7.4467961e-01   8.0345208e-01  -9.7744138e-01  -9.5895997e-01   9.6678250e-02  -8.0160801e-01  -6.0226169e-01   5.8390828e-01   4.4838754e-01  -3.2967707e-01  -6.0293497e-01  -3.0474030e-03   3.5911524e-01   3.8727489e-01  -7.3709692e-01   6.3779939e-02   9.9755899e-02   9.3445289e-01   6.3963070e-01  -6.8644573e-01   4.1748701e-01   7.0514268e-01   8.4560780e-01  -9.0634404e-01   9.5256562e-02  -3.4889219e-02  -8.1567181e-01   2.6187783e-01  -3.9583125e-01  -5.2094793e-01  -4.0225331e-01  -7.0627421e-02   6.1302091e-01   4.4898756e-02   4.4346834e-01   3.6275426e-01   1.8136570e-01  -3.4741332e-01  -6.7071277e-01   5.4464231e-01   9.7461248e-01   2.8485891e-01   2.7900356e-01  -8.8621638e-02  -1.5753844e-01  -8.8351821e-02   3.0638705e-01   8.3624934e-01   2.6401281e-01   1.7187963e-01   9.4513693e-01   7.7173056e-02   4.3753238e-01   5.1972187e-01  -1.1215629e-01  -5.8675953e-01  -5.2818408e-01  -4.1023742e-01  -6.9544455e-01   7.7641581e-01  -9.3534023e-01  -1.6201795e-01  -1.9359926e-01  -8.7294298e-01   6.3633894e-02  -4.0333651e-01   8.2389724e-01   4.0320243e-01   2.8850912e-01  -2.4252538e-01  -2.4286258e-01  -3.0895405e-02  -8.7407298e-01  -1.3248230e-01   6.1742634e-01   8.2134757e-01  -4.0651537e-01   1.8013054e-01  -7.4170828e-01   9.9314591e-01  -7.3148622e-01   8.2721155e-01   1.0350529e-01  -7.8570162e-01  -1.0033327e-01  -1.0483336e-01  -8.3501481e-01   2.4454635e-01  -1.6429096e-01   8.6308045e-01   9.0876386e-01  -9.9319976e-01  -8.2990787e-01   6.7357505e-01   9.2355953e-01  -4.8689584e-01   7.5460295e-01   8.1207822e-01  -7.9908506e-01  -1.6696773e-01   6.8233050e-01  -6.3292483e-01  -4.5237418e-01  -7.2317499e-01  -7.3890305e-01   3.8603446e-01   4.7275146e-01  -3.3898404e-01  -4.6254421e-01  -8.3243687e-01   7.3323916e-02  -2.3391153e-01  -3.3907275e-01  -6.1154538e-01  -8.7654070e-01   6.6505483e-01  -6.1526992e-01  -7.8577485e-01  -4.7671718e-01  -5.8500837e-01  -9.3134621e-02   2.9493442e-01   8.0260400e-01  -5.1304092e-01  -8.0487463e-01   3.9067312e-01  -2.2280425e-01   3.2443677e-01  -3.0769947e-01
  -8.4069637e-01   2.3936914e-02   2.5951833e-01   7.0068653e-01  -1.2413854e-01   1.9147249e-01   4.2471883e-01   8.2546233e-01   1.3699403e-01  -7.1679791e-01  -5.8462191e-01   8.0674031e-01  -5.5135569e-01  -3.5226619e-01   1.9855275e-01   7.4500589e-02   8.4990981e-01  -8.6421458e-01   8.1029423e-01   4.5782083e-01  -7.4220348e-01  -4.9243779e-01   6.0130954e-01  -9.7492813e-03  -1.6886602e-01  -4.1630620e-01   6.3170648e-03  -6.3009670e-01   5.5538753e-01  -9.2000476e-01   2.1439722e-01  -1.5194963e-01  -9.4206619e-02   5.6383992e-01  -1.6625520e-01   7.9983045e-01  -9.2507265e-01  -2.3678983e-01   9.1976218e-01   9.6226357e-01   6.3481843e-01   5.4232065e-01   8.5105610e-01   1.6844869e-01   5.7997986e-01   9.7838218e-02   1.9296869e-01   7.1264332e-01  -9.8042985e-01   3.7087184e-01  -3.6584962e-01  -7.9828953e-01   6.2085156e-01  -2.1840876e-02  -9.6549319e-01   8.7203021e-01  -6.3032063e-01   5.3767010e-01   4.8926334e-01   5.0697988e-01  -1.4410628e-01  -1.6527281e-01   5.5730183e-01   3.9296434e-01  -1.3726675e-01  -9.1717499e-01   9.9216808e-01  -2.5539906e-01  -9.9147005e-01   9.2721482e-01  -6.3118665e-01   8.5227227e-01   1.0549411e-01  -4.9758017e-01  -9.6355628e-01  -5.0255331e-01   3.9442668e-01  -7.5926834e-01  -5.6075254e-01  -3.6439883e-01   4.1524140e-01   9.8836699e-01  -4.0235573e-01   9.2034655e-01  -6.3978297e-01   3.8397955e-01  -1.8688534e-01   6.2809449e-01   1.3026147e-02  -8.2804929e-01  -5.0206775e-01  -4.2594082e-01  -8.0410627e-02  -2.1394602e-01   7.5316693e-01   1.6527379e-01   1.0989502e-01  -7.6851693e-01  -2.6156720e-01  -5.5169131e-01  -6.1216877e-01   8.6824869e-01   3.0774368e-01   1.2927808e-01  -5.8191719e-01   8.3538337e-01  -9.6648520e-02   4.9231932e-01  -7.7052559e-01   3.3226779e-01   8.7477167e-01  -3.5333741e-01   7.4255176e-01   8.7200031e-01   9.6138399e-02   5.3713303e-02   4.9627661e-01  -8.4842548e-01   6.6435749e-01   7.4858310e-01   2.8910345e-01   8.7493434e-01  -4.6723691e-01   8.1276857e-01  -5.5685760e-01   4.1499508e-01  -3.7222866e-01  -6.8552070e-01   4.7156939e-01  -4.9180923e-01   2.7815056e-01   4.6685208e-01  -4.1686025e-01  -7.3118683e-01  -5.6028344e-01  -9.0109290e-01  -8.9963878e-02  -2.4100430e-01   2.2664605e-01  -7.5823876e-01  -7.3431483e-01   4.8993115e-01  -4.6442403e-01  -9.7026947e-01  -7.2280742e-01   7.9556913e-02  -3.1399602e-01  -5.0450850e-01  -8.7819821e-01  -3.5863704e-02  -1.6354424e-01   2.9719771e-01   6.2270331e-01   7.6246422e-01  -8.6417164e-01  -2.4296327e-01   2.9344570e-01  -7.3529698e-01  -4.9948163e-01   7.4059831e-01   5.3843916e-01   7.6737802e-01  -5.9706480e-01   2.3228324e-01  -5.6660220e-02   4.6618921e-01  -4.4072393e-01  -3.4241091e-01  -2.1992362e-01   9.8452701e-01   1.8188452e-01   7.6868542e-01  -3.0664216e-01   7.9851128e-01  -1.4392640e-02  -3.0665413e-01  -4.2812183e-01   9.8762408e-01  -6.3857575e-01  -9.0449830e-01   2.0290847e-01  -7.6425294e-01  -8.9372121e-01   3.9451700e-02  -7.9393865e-01   3.9048845e-01  -8.8773897e-01  -9.6970834e-01   8.8153296e-01  -3.3542795e-01  -2.8717714e-01   8.2771710e-01  -4.8973262e-01   6.9537166e-01   6.8526952e-01  -1.9546707e-01  -3.8642376e-01  -7.2932065e-01   6.8185939e-02  -2.9837709e-02   1.7083357e-02  -6.8526573e-01  -7.7682105e-01  -1.0426869e-01   7.9269748e-01  -6.7805596e-01  -9.1516858e-01  -8.9300284e-01   7.2953940e-01   9.6204503e-01  -6.5048437e-01  -8.9036946e-01  -7.1156847e-01   2.4200037e-01  -3.0217699e-01  -3.8477170e-01  -5.2374527e-01   3.1400564e-01   3.4478577e-01   7.7024770e-01  -8.0388413e-01  -9.6335277e-01  -3.4073756e-01  -4.2623893e-03  -9.7690850e-01   4.9900650e-01   1.2886485e-01   3.9886716e-01   8.9777239e-01   6.5084004e-01   7.4687505e-01  -8.4024448e-01   2.0060071e-01  -2.0203873e-03  -9.6399859e-02   9.7497694e-01   1.0196761e-01   2.8155259e-01   6.7376423e-02   1.3034829e-01  -5.1413368e-02   1.1195301e-02  -1.2852854e-01   4.7700104e-01   9.5270088e-01  -2.5944416e-01   4.2643725e-01   6.4653519e-02   8.6497893e-02  -8.5775962e-02  -8.0171731e-01   4.7628904e-01   4.2927401e-01   6.3206920e-01  -6.0057695e-01  -4.7030822e-01   7.6325675e-01   2.0423113e-02  -2.2673617e-02  -8.4748062e-01   5.0816197e-02  -2.1627062e-01  -3.7418091e-01   7.7149603e-01   2.4383702e-01   9.8234658e-01   9.6759719e-02  -8.1096941e-01   5.9925443e-01   8.7838237e-01  -6.5733492e-03   3.7375439e-01   6.9573132e-01   7.9410679e-01   7.4706291e-01   9.6761843e-01   6.3241578e-01   1.7464808e-01   3.1760186e-01   3.3183113e-01  -7.6751170e-01   1.8064359e-01   1.7803770e-01   2.9698753e-01   5.8373341e-01  -5.2911688e-01  -7.8211892e-01  -7.1836353e-01   3.2603201e-01   6.4953233e-01   5.2077811e-01  -4.4149764e-01   9.3301467e-02  -2.4347208e-01  -9.1837725e-01  -8.9413260e-01   9.9438689e-02  -6.1345733e-01   3.3101654e-01  -5.1253388e-01  -8.4724142e-01   2.8257924e-01   8.0883671e-01   7.6839529e-01  -9.0942857e-01  -5.3442692e-01   2.9626143e-01   6.1072777e-01   4.6670751e-01   8.0266574e-01  -3.1455035e-01  -5.0259619e-01   8.3388488e-01  -6.0573693e-01  -4.2310116e-01  -2.9997945e-01  -9.1781699e-01   4.3890250e-01   5.3494196e-01  -2.3530091e-01  -5.6745568e-01  -4.9521252e-01   4.3094032e-01  -8.7123738e-01  -3.4182305e-04  -4.7447492e-01   3.6359083e-01   4.0053505e-01   4.6178299e-01  -3.4668264e-01  -1.6335364e-01   5.3469323e-01   7.0953184e-02  -4.8139676e-01  -1.1874819e-01  -6.3125826e-01   2.9323143e-01  -9.7671270e-01   5.6191003e-01   3.7181011e-01   3.1615969e-01  -8.2055133e-01  -8.9498078e-01  -2.0461304e-01  -1.4743097e-01   7.4164624e-01  -8.3154393e-01  -1.7821342e-01  -1.3837481e-01  -4.3082630e-01   3.3786716e-01  -1.2004158e-01   9.4516850e-01   6.9420098e-01  -4.5605601e-02   5.5793396e-02   7.4821831e-02  -3.6510910e-01   5.6417955e-01   3.5158798e-01   9.1660591e-01   6.4758270e-01  -9.1154688e-01   8.1458903e-01   9.7426278e-01  -9.0515315e-01  -4.1243013e-01  -5.0770336e-01   4.0682808e-01   6.7949224e-01   3.3923679e-02  -6.6772103e-01  -2.2510629e-01   5.9983513e-01   9.4309835e-01  -2.1133418e-01  -8.8763156e-01   1.2791680e-01  -7.5233561e-01   1.8676598e-01   1.9329828e-01  -1.2089030e-01  -4.2744573e-01   9.5727569e-01   5.9694591e-01  -5.2795899e-02   3.5053805e-01   9.0572361e-01   2.7459885e-01   2.5251001e-01   5.3419052e-01  -9.5449078e-01   5.3987592e-02   2.3542509e-01   6.9618494e-01  -2.6723817e-01  -6.0327229e-02  -1.1795476e-01   1.1485893e-01   3.4171493e-01   2.8099582e-01  -6.0604948e-01   7.4257233e-01  -4.5401124e-01  -9.8444840e-01   3.3518885e-01   6.9557875e-01   8.8565271e-02   4.3248215e-01  -4.2204003e-01  -9.6270592e-01  -7.5704062e-01   7.1579451e-01  -8.3526720e-01  -1.0577139e-01  -9.5031172e-01   1.3363324e-01   3.8418893e-03   2.0497193e-01  -6.1104721e-01  -4.7069879e-01  -2.8266651e-01   4.3953243e-01  -4.9325982e-01   6.5641782e-01  -5.5621093e-01   5.9565155e-01   5.1012602e-03   8.5099553e-02   5.3271556e-02  -4.8066584e-01  -9.3234986e-01  -7.5463972e-01  -8.4249296e-01  -8.1511384e-01  -4.9232424e-01  -5.9694409e-01   6.1283019e-01   7.9722917e-01   3.6273439e-01   4.7777985e-01  -4.1350191e-01   6.3888017e-01  -2.1213971e-01  -3.3429226e-01  -6.4087818e-01  -3.5327436e-01  -7.7579162e-02   4.7881888e-01   1.4952085e-01  -1.2509079e-01   6.7719352e-02   2.6543167e-01  -7.1321874e-01  -7.7172069e-01  -1.7359329e-01  -9.8829311e-01   7.6573405e-01  -7.3553551e-01  -2.0674333e-01   4.2715322e-01  -4.9269832e-01   3.3001878e-01   4.8919461e-01  -6.5842406e-01   7.2815948e-01   9.8319327e-01  -1.9140473e-02  -2.5966708e-01  -6.3155445e-01  -9.9341127e-01   1.4283735e-01  -4.4473562e-01   7.9421189e-01  -9.5963589e-01  -2.4510609e-03  -4.5678484e-01  -8.1126114e-01   9.1218621e-01  -4.5144995e-01  -1.2228983e-02  -3.6194716e-01  -1.8698721e-01   9.8221565e-01   7.7310915e-01   9.2005742e-01   8.2120514e-02  -7.4023506e-01   6.1889437e-01  -4.0766398e-01   3.7085285e-01   3.4669546e-01   8.5013747e-01  -9.5482341e-01   5.0151810e-01   1.3142660e-01  -9.3369079e-01  -4.7089576e-01   4.1346155e-01  -6.2267871e-01   3.7253235e-01  -7.8290845e-01  -8.0469930e-01  -8.9548090e-02   3.8299536e-01   6.4567973e-01   2.4564302e-01   6.6252573e-01  -1.3160205e-01  -7.9657414e-01   8.1390639e-01   1.7196021e-01   3.8110949e-01   2.5024212e-01  -9.2768900e-01  -7.6238691e-01  -8.7289385e-01   7.9835454e-01   6.9207670e-01   9.5003972e-01  -2.5685569e-01  -7.6322911e-01  -1.2612463e-03   4.9721379e-02   5.7190191e-01  -6.4928819e-01   7.8665253e-01  -6.3068236e-01   1.2391510e-01  -5.5028682e-01   8.7220967e-01  -3.5338845e-01  -6.3318702e-01   2.5564640e-01  -1.3492211e-01   2.4972922e-01  -4.0984655e-01  -2.5677271e-01   6.2221783e-01   2.9550081e-01  -9.5910336e-01   9.0442628e-01   5.6457171e-01  -8.3521168e-01  -2.8816890e-02  -9.7014736e-02   4.0427004e-01  -4.5652154e-02   9.1157161e-01   6.9920691e-01  -7.9246028e-01  -8.6300658e-01  -8.8671115e-01   7.0693191e-01  -6.0072687e-01  -1.5530101e-01  -6.8741435e-01  -3.1830131e-01   3.6367237e-01  -6.1507529e-02   6.9133116e-01  -8.5684872e-01  -6.9665425e-01   9.6455311e-01  -8.6056721e-01   1.9730279e-01   3.0046536e-01  -8.5291662e-01   7.3883343e-01   4.2632773e-01  -6.3035856e-01   1.4171851e-01  -1.0646269e-01  -3.3950439e-01   1.9477493e-01   9.2861411e-01  -3.7778639e-01  -7.5908462e-01  -1.9202127e-01   7.6600478e-01   6.3362970e-02   5.0925318e-01   6.5517072e-01  -3.5751505e-01  -2.8951626e-01   4.9458575e-01   4.5021286e-01  -4.3413493e-01   3.7074682e-01   8.4257928e-01   2.0251904e-01  -2.9451866e-01  -9.2441792e-01   3.4062329e-01  -9.2378631e-01   5.2727525e-01   4.7910441e-01  -3.5021877e-01  -3.1146109e-01   9.2977107e-01   5.1149894e-01   5.9307932e-01  -2.8586756e-01   7.8632090e-01   9.2388636e-01   2.4171354e-03  -9.9238805e-01   2.9453111e-01  -6.3110054e-01  -8.6519820e-01  -1.4504381e-01   9.1260556e-01  -8.4782869e-01   6.4509031e-01  -1.5702005e-01   3.6771868e-01  -6.2211930e-01  -2.2851530e-01   7.8039203e-03  -6.2538358e-01  -9.1752454e-01  -9.1242998e-01   3.9058472e-01  -2.2021741e-01  -2.7248961e-01  -4.6284847e-01  -1.2073028e-01  -7.6793871e-01  -2.8076024e-01   3.4289194e-01   8.2888951e-01  -7.1164787e-01   2.9780949e-01   9.3249407e-01   2.8923463e-01   5.7502868e-01   6.8088313e-01   9.0418664e-02  -3.0412756e-01  -2.7826862e-02  -5.5219275e-01   1.3794915e-01   3.4880032e-01   7.1729344e-02   2.9215396e-01  -1.0229351e-01  -2.4402938e-01   9.8084828e-01   6.9576334e-01   5.1240017e-01  -4.4156091e-01   8.1159034e-01   3.4276396e-01   4.9115629e-01  -2.8136860e-01   4.9698382e-01  -2.4714469e-01  -1.3514471e-01   3.8663827e-01  -1.1980612e-01   8.2122329e-01  -2.9768894e-01  -1.6669408e-01   2.7751749e-01   1.9104273e-01   3.9824990e-01  -8.3270448e-01  -2.6084184e-01  -2.2273645e-02  -8.6314628e-01  -9.3506603e-01  -2.3241865e-01  -1.8389700e-01  -4.7086406e-01   1.4430170e-01  -5.1416793e-01  -9.2102207e-01  -6.2351768e-01  -9.5561101e-01  -5.8505753e-01  -1.2165563e-01   3.7669297e-02   4.3656433e-02   3.4068823e-01  -5.3195338e-01   3.2191780e-01  -3.3176455e-01  -9.6064214e-01  -8.4300574e-01  -2.0038733e-02  -6.0027678e-01  -9.5555386e-01  -7.2889471e-01  -8.1423467e-01  -7.4914899e-01  -7.7203430e-01   8.5111955e-01   1.1090928e-01  -9.6403042e-01  -5.8919299e-01  -6.3183526e-02   5.3725538e-01  -7.0889299e-02   6.0800657e-01  -5.9990722e-01  -8.0733228e-01   2.3449797e-01   4.4018520e-01   4.8342388e-01   7.6526089e-01   3.5873547e-01  -4.4484871e-01  -9.9738788e-01   1.8344296e-01  -2.3095869e-02   6.3551119e-01  -9.8241558e-01  -8.9269721e-03   6.4932201e-01  -9.8002852e-01   6.1588551e-03  -9.2704534e-01  -2.7556996e-01   7.3565796e-01   3.2901691e-01   8.0117082e-01  -9.5514943e-01  -9.3417309e-01   6.4771226e-01  -1.1259505e-01   5.5112595e-01   3.5409843e-01  -3.7792748e-01   3.1132114e-01   1.3243241e-01  -6.0591601e-02  -4.5324250e-01  -7.2285069e-01  -7.1337545e-01   1.1184399e-02  -7.2162354e-01   4.7220084e-01  -6.0518318e-01  -9.1635047e-01   5.4278737e-01   4.7249376e-01   7.6450973e-01   1.1259810e-01  -7.9982520e-01  -3.2740154e-01  -5.2711265e-01   8.6410158e-01   5.9851963e-01  -8.0604216e-01   8.2631783e-01   7.8072955e-01  -8.7059409e-01  -7.1043786e-01   2.2157479e-01  -9.7215079e-01  -2.4609633e-01  -6.8688881e-01  -4.8301212e-01  -4.7521199e-01  -8.5078538e-01  -6.6875849e-01   4.9695023e-01   5.7574909e-02   3.5618406e-01  -7.6705112e-01   4.5293959e-01   1.2936916e-01   2.5063655e-01  -3.1585367e-01  -2.8001082e-01  -2.1718909e-01   5.8791415e-02   2.4010378e-01   1.1565290e-01  -4.3867175e-01  -1.1659008e-01   5.7630118e-01   6.3460690e-01  -9.7604894e-01   6.8753111e-01   4.1556513e-01  -5.3223087e-01  -7.3755998e-01  -9.8717661e-01   2.8893295e-02  -1.0708761e-01   2.2554850e-01   1.1874270e-01   6.7376655e-01   8.2696452e-01   4.8263328e-01   9.9409498e-01  -9.6864496e-01   3.0534379e-01  -4.8367952e-01  -9.8450549e-01   9.3497909e-02   3.1598431e-01  -3.4719770e-02   9.0262788e-01   7.4315284e-01   2.6088401e-03  -6.6607720e-01   9.2926371e-01   1.5940325e-01   3.0645157e-02  -7.7153117e-01  -8.8407507e-01   2.5552001e-01   5.7273198e-01  -7.0255864e-01   7.5326430e-01  -2.8277321e-01  -3.4658204e-01   5.1505943e-01   6.1110821e-01  -4.1169492e-01  -2.5385757e-01   9.0904140e-01   2.9834263e-01  -9.2798736e-01  -7.6763138e-01   3.5767318e-01  -7.3067139e-01  -1.4278564e-02   9.8903643e-01   9.9002201e-01   6.6916162e-01   8.0870790e-01  -2.5825945e-01   9.6111428e-01   9.1452782e-01   2.0812456e-01   7.1131284e-01   4.6940270e-01  -7.3943773e-01   4.2791479e-01  -1.9862216e-01   4.6216428e-02  -3.6175756e-01  -5.1506436e-01   9.1945330e-01  -6.5777133e-01  -4.2718977e-01   6.7864033e-01   5.1254371e-01  -4.5302532e-01   1.0853408e-01   1.6234373e-01   9.8033180e-02  -5.1648478e-01  -2.6063445e-01   9.5768123e-01  -3.1675199e-01  -3.5016312e-01   1.3046401e-01   5.5354526e-02   7.0346250e-01  -8.0098986e-01  -1.0209075e-01   3.5704600e-01   6.9854020e-01   2.0828291e-01  -3.5945978e-01   4.7842382e-01   3.2043311e-01  -6.9806299e-01  -1.0677535e-01   6.5230767e-01   2.8378979e-01  -7.4865855e-01   8.4550055e-01  -9.4695024e-01  -4.0644729e-01   2.5434387e-01  -7.4374138e-01   4.0369124e-01   5.6624408e-01   6.2598206e-01   7.6806052e-01  -7.3284075e-01   6.0745333e-01   7.7400541e-04  -4.3678426e-01  -1.0190221e-01   5.0555445e-01   9.7249715e-01   6.2387759e-01   2.9290974e-01  -6.9520337e-01  -4.1287289e-02  -7.6858525e-01  -2.6194174e-01  -6.6210016e-01  -8.2602136e-01   3.2481270e-01  -4.2204356e-01  -3.1107017e-01  -2.9331567e-01  -9.9174570e-02   6.2770766e-02   1.6397878e-01  -7.1827473e-01  -1.0317933e-02   4.7938662e-01   4.4602197e-02  -9.8073177e-01   9.1301386e-02   1.2389585e-01  -9.0187175e-02   7.4883073e-01   1.9900406e-01  -7.5240933e-01   2.3865977e-01  -7.4145767e-01  -1.7606693e-02   5.2597510e-01  -3.0130596e-01   1.6162040e-01  -9.6159976e-01   7.0820532e-01  -1.4647903e-01  -1.9635150e-01  -5.7773185e-02  -8.0461293e-01   9.4198798e-01  -5.0015026e-01  -9.3669249e-01   6.6283991e-01   6.9930879e-01   6.1884041e-01  -7.4099546e-01   6.5751736e-01   3.8654280e-01  -9.8964625e-01  -6.1205846e-01  -5.9154819e-01   9.3146026e-01  -6.8020351e-01  -6.7965528e-01  -6.4001229e-01   4.5107063e-01  -7.5385002e-01   9.6587531e-02  -1.6843738e-01   9.6763690e-02   7.3712743e-01   4.5022877e-01  -2.2471428e-01   2.6282374e-02  -4.6630191e-01  -4.6243530e-01  -6.5224455e-01  -3.8786050e-02   5.4535287e-01  -8.0433156e-01   6.5062156e-02   4.0892551e-01   3.7385507e-01  -2.7743816e-01  -3.7813364e-01   1.2797664e-01  -4.6844987e-01   2.0404383e-01   2.8817631e-01  -2.0123893e-01  -1.1067124e-01  -9.4448565e-01   4.0047125e-01  -6.3346712e-02   1.9489853e-01  -5.6333112e-02  -9.5735672e-01   5.1385788e-01   5.1657932e-01  -1.7256309e-01   4.0071469e-01   6.2546231e-01  -2.9686814e-01  -4.9106323e-02   7.1661426e-01   2.9557549e-01   3.2979480e-01  -5.4302222e-01   1.3697902e-01   7.3276112e-01  -6.4120680e-01   2.5031736e-01  -3.0300257e-01  -1.1660540e-01  -2.8613758e-01   8.4344117e-01  -7.6107440e-01   2.0409990e-01  -8.8807252e-01
