  -8.4293226e-01  -5.3448438e-01  -9.2872124e-01  -3.2061079e-01   1.9170647e-01   9.8768239e-01   1.1543121e-02  -4.4580495e-01  -4.3240369e-01  -7.6472392e-01   9.3177103e-01  -1.1255676e-01   8.6052995e-01  -1.2244506e-01  -7.1920629e-01   7.1012021e-02  -6.3727745e-01   1.0158304e-01   4.4317927e-01   3.1745285e-02   5.9010671e-01  -7.4775220e-01   4.3795189e-01   1.2553465e-01  -6.4226028e-01  -6.9450347e-01   8.9632026e-01  -8.6048034e-01   3.7256879e-01   6.5412749e-01   8.1037821e-01   2.4474602e-01  -2.0553156e-01   8.6759544e-03  -9.9499774e-01   5.6385840e-03  -6.2268846e-01  -2.0837994e-01  -5.3450387e-01   4.4517169e-01  -6.0177354e-01  -5.0390988e-01   1.3835743e-02   7.8446231e-01  -8.7596720e-02  -9.4328143e-03  -9.5457885e-01  -6.0617178e-01   4.9901393e-01   3.4743950e-01  -6.5066195e-01   1.5252473e-01  -3.2945615e-01  -8.5261800e-01  -9.6882375e-01   8.5351349e-01   2.9871015e-01   6.3280207e-01   1.4150931e-01   5.4678667e-01   2.1000001e-02  -5.0801710e-01  -1.4207705e-01  -8.6792565e-01   6.7591866e-01  -6.0019892e-01   6.1843162e-01  -5.6471647e-02   6.2680967e-01  -2.2161454e-01  -9.1043667e-01  -6.1336154e-01   8.9192752e-02   6.0167177e-01  -8.6869789e-01   6.2676359e-01  -9.2400991e-01  -8.3476125e-02  -6.5336489e-01  -5.3884276e-01   9.3045845e-01   8.2675252e-01   1.7944451e-01   2.1953750e-01   4.6496283e-01  -7.4066991e-01  -6.6487154e-01  -5.0522414e-01  -4.5997754e-01   5.2969114e-01  -7.0406046e-01  -4.6555348e-01   5.5141190e-01   5.5388891e-01   3.6156414e-01   7.4889596e-03   7.9478619e-01   6.8946407e-01  -2.0665025e-01   3.3698164e-01  -5.7632655e-01  -4.5896515e-01   2.3410915e-01   4.3001023e-01  -1.2847655e-02  -6.1229684e-01   6.5621894e-01  -9.9354452e-01  -5.4254793e-01   6.8406794e-01  -8.3865573e-01   5.0931089e-01   4.1264592e-01   2.5934364e-01  -1.8546258e-01   7.0118989e-01  -8.7953261e-01   7.6141185e-01  -9.7603029e-01   5.6102517e-01   4.1507712e-01   1.0916456e-01   3.4928709e-01  -1.8485597e-01  -1.8377596e-01   7.7773573e-01   9.4653220e-01  -6.5340694e-01   5.1616489e-01   7.8254124e-01  -4.6005765e-01  -3.4089765e-01  -3.7753554e-01   8.2270364e-02   7.3412622e-01  -3.9531223e-01  -7.0446310e-01  -6.0638942e-01   2.8448070e-01   5.3373552e-01   3.4371615e-02  -2.3001159e-01   6.3328822e-01   7.9263276e-01  -4.0079180e-01   9.4552027e-01   8.5158057e-01   6.7737634e-01   2.6264781e-01  -1.0067267e-01  -1.0242283e-02   6.3541693e-01  -2.8989763e-01  -8.3202819e-01   6.9741581e-01   8.3434837e-01  -7.7001629e-01  -5.9668507e-01  -8.9939940e-01  -1.9041965e-01  -6.9973888e-01   8.4932822e-01   8.8503543e-01   4.2874013e-01   8.8059248e-01   4.3464266e-01   8.2931482e-01   7.4113141e-01   4.6818085e-01   5.9364841e-01   7.8036083e-01  -7.4034737e-01   8.9596149e-01  -4.7976446e-01  -1.6781215e-01   8.7732096e-01   4.8579297e-01   9.2395272e-01   7.1574509e-01   5.0092098e-01   9.4629884e-01  -5.3253754e-01  -6.0363979e-01   7.8670854e-01  -8.3011391e-01   6.5503609e-01  -3.0539712e-01   3.5097622e-01   2.6458391e-01   2.3375863e-01  -2.0302685e-01   6.3195954e-01   6.0501177e-01   5.8311283e-01   1.3918749e-01   2.3846532e-02   3.7397374e-01  -7.8432413e-01   5.2387521e-01  -1.5964850e-01   8.5682529e-01  -7.1003636e-01   9.2643224e-01   1.6812564e-01  -5.6988647e-01   2.5362988e-01   6.6667687e-01   6.3315931e-01  -8.4124972e-01  -4.9397999e-01  -7.0921551e-01  -4.1679782e-01  -4.2166493e-01   3.2409889e-01   8.8993639e-01   3.3383720e-01   4.9066604e-01   1.6871019e-01   4.3469163e-01   2.8219530e-01   4.2158167e-01   7.9511366e-01   8.5170118e-01   8.1092765e-01   6.6908767e-01  -5.6753542e-01  -7.8186467e-01  -4.8175368e-01   6.6535013e-01  -8.4891057e-01  -9.2938878e-01   7.8959294e-01   3.3071027e-01   4.7242871e-01  -2.2428967e-01   1.0358555e-01   2.1713221e-01  -5.7113770e-01  -5.6107145e-01  -8.2188245e-01   5.2211575e-01   1.1200592e-01  -3.5466422e-01  -9.4417997e-01  -7.2355621e-01  -9.9112146e-01   4.9846610e-01   5.5252555e-01  -7.8483981e-01  -8.2396580e-01   6.5374140e-01  -2.8434171e-02  -8.4069303e-01   7.7825239e-01   1.3915363e-02   1.7384619e-01  -6.3096499e-01  -9.5279344e-01   2.6927406e-01  -1.0649357e-01  -4.0980394e-01  -9.7300289e-01   7.2782235e-01  -6.7412927e-01  -3.0105808e-02   6.0404688e-01   8.8692191e-01  -3.0997098e-01   9.7691062e-01   7.8428404e-01  -3.1925853e-01   4.1618183e-01  -7.1363632e-02  -4.7656580e-01   8.6379773e-01   5.5265760e-01   1.6571807e-03  -6.0221386e-01   3.7111786e-01  -7.4915660e-01  -3.2120010e-01   4.8923611e-01   6.0413132e-01  -9.8715831e-03  -8.3381825e-03   8.6440946e-01   3.1391235e-02  -6.6079539e-01  -4.6082611e-01   1.8429272e-02   2.7150484e-02   3.9306325e-01   4.1270520e-01   5.2479664e-01  -5.1132667e-01  -6.9458938e-01   6.6976894e-01   7.8440996e-01  -8.4790362e-01  -1.8403722e-01  -5.7908382e-01   1.4722974e-01   2.4410601e-02   3.4934725e-01  -4.4981047e-01  -4.3520835e-01  -2.9392564e-01   8.2685315e-01   2.7878148e-01   7.5567040e-01   8.9980877e-01   8.3774845e-02   9.0253460e-02   8.7591065e-01   1.7397750e-01  -1.8843609e-01  -4.5553702e-01   7.6424680e-02  -8.5738662e-01  -2.8783695e-01  -4.5142545e-01   8.8176870e-01   4.1166638e-01  -8.8843805e-01  -4.0382836e-01  -5.6931099e-01  -7.5493952e-01  -1.5307574e-01  -6.8657786e-01  -1.7663317e-01  -7.3515476e-01   4.4038944e-01   9.7021669e-01   9.8488325e-01   6.6731524e-01  -7.6210193e-01  -1.6228343e-01  -7.5975694e-01   3.7626078e-01   8.6795153e-01   3.1077133e-01  -8.9299752e-01   7.1393991e-01   6.5867640e-02   3.9087741e-01  -1.2114304e-01  -6.2749568e-01  -9.0482528e-02   8.5542124e-01  -8.9434323e-01  -3.0174246e-01   2.2230958e-01   6.5298793e-01  -3.1596981e-01   2.1792970e-01  -9.8755221e-01   7.5871874e-01   4.2717762e-01  -7.1867565e-01   1.0654007e-01   4.9669227e-01  -9.9327061e-01   4.9738733e-01   4.6884399e-01   1.7564551e-01   9.7687748e-01  -9.6629285e-01   5.1804666e-01   7.0770132e-01  -9.5617864e-02  -3.7750060e-01   3.5214233e-01  -3.3156750e-01   3.3765071e-01   9.0241707e-01  -3.9696345e-01  -5.3227827e-01   5.1108968e-01  -2.2898311e-01  -1.0074723e-01   6.6411573e-01   9.5310133e-01  -3.0198348e-01   1.4910421e-01  -1.0897820e-01   5.1105015e-01   3.9767457e-01   4.5442415e-02  -2.0154531e-01  -1.8224246e-01  -3.9547164e-01  -5.3865563e-01  -2.1639483e-01   4.0259938e-01   4.9970369e-01  -1.0723038e-02   6.7008358e-01   3.2168986e-01  -3.5061087e-02   4.7883001e-01   4.8878754e-01  -8.9426633e-01   8.0810123e-01   8.1753368e-01  -2.1995840e-01  -4.5647123e-01  -3.0397319e-02   5.3225393e-01  -5.0841347e-01  -9.6748408e-01  -9.3679890e-01  -1.3406752e-01  -1.7223596e-01   1.3217623e-02  -8.6607227e-02  -7.8240779e-01  -7.2491693e-01  -8.9914121e-01  -2.0817024e-01  -5.5008519e-01  -1.9267681e-02  -3.5011331e-01   8.4827326e-02   4.3017443e-01   5.9287791e-01  -5.8005297e-02   3.0365029e-02   5.6121053e-01   3.0426672e-01   5.8419554e-01  -2.9183424e-01   9.2316389e-01  -7.2416008e-01  -6.8646223e-01  -2.0061526e-01  -9.2812651e-01  -2.6293559e-01   3.7894973e-01   2.5804955e-01  -9.6959095e-01   1.3994536e-01   3.2525650e-01   5.0469412e-01  -3.9395728e-01  -6.6030274e-01  -7.3308922e-01  -4.7495308e-01   6.0148141e-01  -8.6203231e-01   2.9473257e-01  -4.6410475e-01   4.5329519e-04   1.2332618e-02   8.0729733e-01   9.1241326e-01   3.0212715e-01   7.6847228e-02   7.5565201e-01  -9.3428434e-02  -1.9937104e-01  -8.4358480e-01  -8.1771901e-02   9.2303483e-02  -5.3555890e-01   8.2209653e-01   9.4882920e-01  -8.2240162e-01  -4.8830653e-01  -3.3090678e-01  -4.8711812e-01  -2.5289317e-01   1.7426087e-01   2.8970507e-01  -2.9973954e-01  -7.3191734e-01   5.2596728e-01  -3.4261635e-01   7.1834635e-01  -7.5086781e-01  -7.6798170e-01   3.1753443e-01  -9.4755047e-03   9.9188234e-01  -1.0010995e-01  -5.3106884e-01   3.9685227e-01  -2.4404615e-01  -5.7570021e-01  -6.5133357e-01  -9.0505924e-01  -9.0592359e-01  -4.8658703e-01  -4.1597449e-01  -4.7927753e-01  -6.8662714e-01  -1.9261365e-01   8.6677276e-01  -4.9261539e-01  -8.0014922e-01  -6.1823812e-01  -6.5028601e-01   8.1385608e-01   5.2416111e-01   2.9585427e-02  -4.5114483e-01   8.9234179e-01  -6.0130676e-01   5.3234705e-01   1.0557895e-01   5.7451516e-01   2.1861280e-01   8.6625770e-01   7.3281955e-02   7.6046857e-01  -7.3980150e-01  -8.5763059e-01  -6.6620476e-01   3.8115147e-01   2.1115493e-01   5.2655328e-01  -6.7535135e-01   8.2995952e-02   5.5193434e-01  -9.7327777e-01  -8.0014279e-01   8.0802247e-01   5.8885638e-01  -9.9781216e-02   7.3899646e-01  -4.7527032e-01  -6.9357678e-01   1.5836812e-01   7.9532833e-01  -9.6967054e-01  -5.1222563e-01  -6.4740692e-01   8.5493367e-01   8.7065348e-01   9.0083482e-01  -3.9501830e-01   6.7625161e-01  -8.6718286e-01  -7.4200749e-01  -2.4121472e-01   6.4765551e-01   8.2055018e-01   7.0028531e-01   2.5161517e-01   4.4441036e-01  -6.2331054e-01   4.6229198e-02  -6.0223138e-01  -9.1931820e-01  -9.2551619e-01   2.3278171e-01  -7.8070875e-01   6.2685734e-01  -9.5524888e-01   5.9839912e-01  -1.2197492e-01   1.8000936e-01  -1.6386181e-01   4.3161149e-02   6.6230008e-01   4.1786977e-01   3.5666806e-01   9.2668713e-01   5.9827279e-01  -5.0154959e-01  -6.3042627e-01   4.6326482e-01  -2.5554650e-01   1.6231781e-01  -2.8495182e-01  -8.0584905e-01  -7.6152420e-01   8.7937131e-01  -3.4062007e-01   3.9195916e-01  -9.1564130e-01  -7.3377423e-01  -1.8285258e-01  -2.4268579e-01  -3.0790731e-01   4.0897357e-01   3.2664380e-01  -3.6398479e-01   5.5925717e-01   4.3542705e-01   5.9823242e-01   3.3527045e-01  -6.6553330e-01  -8.5780310e-01  -8.2933040e-02   7.0500873e-02  -4.0512204e-01  -5.3223153e-01   4.9509467e-01   1.0742134e-01   1.2418232e-01  -6.8314841e-01   5.9665915e-01   3.6829015e-01  -8.8467138e-01  -5.9312945e-01  -7.0555319e-01   6.7383671e-01  -3.9677979e-01   3.9234501e-01   9.6635130e-01  -1.1452872e-01  -4.3092765e-01   9.2958476e-01   8.8699257e-01   4.5634047e-01   1.1389131e-01  -8.8054004e-01   1.6158511e-01   1.8573150e-01   7.8738989e-01   4.3741420e-01  -7.7548778e-01   2.1789149e-01  -3.9848690e-01  -3.6706886e-01  -1.9671573e-01   8.5014229e-01   9.4914076e-01  -1.0656167e-01  -2.7032668e-01   9.0500240e-01   1.6389751e-01  -2.0643194e-01   1.4026377e-01   3.5576569e-01   8.4406967e-01   6.9556968e-02   1.4166214e-01   2.8324866e-01   4.6080343e-01   5.4158240e-01   8.1046383e-01   8.8712359e-01  -4.5355450e-01   2.4701939e-01  -6.7925665e-01   5.8334074e-01   2.8792420e-02   5.9831707e-01   9.4965245e-01  -9.2149812e-01   9.2773895e-01   5.4111863e-01   5.3517621e-01   1.6342421e-01  -8.9243528e-01  -8.2052996e-01  -2.6097637e-01  -2.3531300e-01   2.4766258e-01  -9.9945941e-01  -4.2268869e-01   8.4198402e-01   6.8762188e-01  -1.3855636e-01  -1.6395349e-01  -3.3488562e-01   9.4158160e-01   6.7517226e-01   8.8591684e-02  -8.7653762e-01  -1.3846140e-02  -9.8039799e-01   4.8663674e-01  -5.4708246e-01  -4.5975583e-01  -5.0836641e-01   9.1263018e-01  -5.8847499e-01   5.8285530e-01   8.5889032e-01   5.6618441e-01   1.6428091e-01   7.3210560e-01   5.3191737e-01   8.0412146e-01  -6.5606174e-01   6.7865601e-02  -1.0666293e-01  -3.5189766e-02  -3.3350591e-01  -4.9085564e-01  -3.6779547e-01   9.5257353e-01  -8.0027870e-01   1.4501916e-01   3.1563760e-01  -3.0676396e-01   1.4240663e-01  -9.1403158e-01   3.9062219e-02  -5.6896379e-01  -8.0459915e-01   7.6014099e-01  -3.4785424e-01  -3.0412468e-01  -3.1860595e-01  -3.5031180e-01  -3.7722540e-01   7.6494057e-01  -3.9172398e-01  -6.9715329e-01   9.2182634e-01  -8.6397247e-01  -3.0817855e-01   9.2969322e-01   5.9298241e-01   8.6370686e-01   2.1713376e-01   4.1097438e-01   6.9087492e-01  -9.2396082e-01  -9.0373921e-01   2.8367090e-01   5.6803421e-01  -4.3321347e-01  -4.2642946e-01  -6.0218098e-01  -6.4941078e-01  -7.0285282e-01   9.6245809e-01  -4.2151135e-01   1.6182063e-01   5.3108168e-01  -8.5341821e-01   1.1421038e-01   5.4008192e-01   4.0526880e-01   6.0347668e-01   1.4054220e-01  -8.4209548e-01  -3.4684206e-01   2.6518116e-03   6.3211836e-01   9.9314430e-01   7.2516535e-01   7.8388765e-01  -5.5896799e-01   3.2224888e-02   2.6228002e-01   4.1905412e-01  -1.2642460e-01   8.1243086e-01  -2.8363017e-02  -2.5376602e-01  -6.3150089e-01   9.2915985e-01  -2.2787795e-01  -7.5320040e-01  -4.7708542e-01  -9.5468241e-01   8.9044251e-01   6.9800913e-01  -9.6678240e-01  -2.2342865e-01   9.5251271e-02  -6.9875169e-01   6.2721545e-01  -2.9293980e-01  -5.6308459e-02  -5.7112767e-02  -5.9402837e-01  -1.6362637e-02   5.6662145e-03  -6.0978825e-01  -2.2784034e-01   3.9625603e-01  -8.9362564e-01  -8.6187987e-01   8.6486073e-01  -1.9647600e-01  -8.9063320e-01  -1.6781349e-01   7.4760051e-01   9.7990436e-01   6.2167012e-01  -2.9112008e-01   8.3684592e-01   3.0345278e-01   6.4387993e-01  -7.5769836e-01  -3.0858008e-01   9.3044918e-01  -3.9442712e-01   8.3939537e-01   2.5408507e-01  -1.2622865e-01   3.5335236e-01   3.3342497e-01  -4.6623213e-01  -7.2927120e-01   7.2541024e-02  -7.2648440e-01   4.3771755e-01   3.0983722e-01  -5.6088451e-01   1.9979804e-01  -5.4630507e-01  -5.8267740e-01   8.3061902e-01  -6.7836067e-01  -7.0994288e-01   4.3103681e-01  -2.7356023e-01  -2.3121073e-01  -3.7482822e-01  -2.6391980e-01   3.4957016e-01   3.7296864e-01   8.9112340e-01   5.2702074e-01  -1.9451019e-01   8.5360636e-02   4.6873444e-01  -4.4018392e-01  -1.1328551e-01  -4.8147737e-01   8.0199517e-01  -1.5894330e-01   2.2201582e-01  -1.4633974e-01   4.6285719e-01   6.1232473e-01  -8.5776753e-01  -8.1045814e-01  -5.7578264e-01   6.4917137e-01  -8.3636149e-01   9.4661592e-01  -4.6441208e-03  -5.3614516e-01   8.8588442e-01   2.2231633e-02  -3.0396503e-01  -5.8898547e-02   3.8432462e-02   1.8175568e-01  -6.2848527e-01   4.8680863e-02  -4.9139456e-02  -1.5722624e-02  -5.5568203e-01   3.3827518e-01  -5.2984407e-01  -8.0743150e-01   4.8291644e-01   4.1219180e-01   4.3818859e-01   2.5580483e-01  -4.7826107e-01   9.0518959e-01  -6.7188245e-01   9.3730970e-01  -2.9769402e-01   9.1675568e-01  -2.6945155e-01   2.7282708e-01  -1.4462774e-01   7.5865040e-01   1.6011324e-01   8.5629293e-01   3.9235710e-01  -2.0471308e-01  -5.6029495e-02  -8.9390850e-01   6.5511766e-01   5.5573313e-01  -4.1336541e-01   1.3625990e-01   8.2186165e-02   8.6683802e-02  -5.2510698e-01   2.8046487e-01   8.4913948e-01   6.3141315e-01  -4.8475913e-01  -1.1218376e-01   2.0926653e-01  -5.4000248e-02  -4.7046073e-01  -9.5837510e-01   3.2921953e-01  -3.4487979e-01  -1.7339210e-02   2.0203160e-01   5.8498192e-01  -2.6795922e-01   7.9772941e-02  -8.7496708e-02   4.0251872e-01   4.1512601e-02  -2.3963309e-01  -4.1962351e-01  -8.0260805e-01  -7.8432742e-01   4.3103759e-01   9.3845408e-01  -5.4017234e-01   9.4688203e-01   3.6630870e-01   1.0346486e-01   3.9904415e-01   3.5223025e-01   2.9050178e-01  -1.8101612e-01  -3.0641439e-01   6.9077082e-01  -7.0824779e-01   7.9037084e-01   5.9175625e-02   4.4836468e-02   5.6106762e-02  -3.1741347e-01  -3.4755292e-01   9.6013900e-01  -4.3395890e-01  -3.5045837e-01   7.0830250e-01  -8.1097875e-01  -3.0605831e-01  -8.4722822e-01  -5.3567130e-01   6.8886340e-01  -8.6928410e-01  -6.7126356e-01  -6.5857361e-01   9.8714229e-01  -2.5844231e-01  -5.7151469e-01  -7.0245463e-01  -5.2590540e-01  -3.7642272e-02   6.3532583e-01  -5.5585025e-03  -4.8908051e-01  -1.9904343e-01   3.3649160e-01   4.3744144e-01  -2.1466258e-01  -5.6439819e-01   5.6610439e-01   2.9252861e-01  -6.0229161e-01   3.1549193e-02  -4.2833937e-01   3.6383792e-01  -5.2171805e-01   2.1782506e-01   6.6243385e-01  -4.9663198e-01   3.0603288e-01  -1.1565118e-01  -8.1070518e-01   6.5896986e-01   5.8027982e-02   2.6429491e-01   4.7808922e-01   4.6531997e-01   4.4323521e-01   9.4803639e-02   3.7689534e-01  -8.1165401e-01  -3.7800321e-01   1.7483592e-01   3.4812975e-01   2.7431334e-01  -9.7994029e-02  -1.4028915e-01  -5.3375667e-01   7.7053149e-01  -1.6599057e-02  -6.3333385e-01   9.5729807e-02  -1.0356131e-01   5.6155568e-01   7.9608640e-01   3.3495007e-01  -6.0548057e-01  -1.5726365e-01  -8.9859659e-01   1.9893421e-01  -2.4571649e-01   9.9782273e-01  -5.6436612e-01  -1.2620037e-01  -9.7198050e-01   2.2826458e-01  -7.3605548e-02   7.5908255e-01   2.2764607e-01
   3.3232892e-01  -5.7732172e-01  -2.9944214e-01  -8.6552256e-01   8.2456441e-01   9.7673396e-01  -1.2666198e-03  -2.0932555e-01  -6.9740554e-01  -8.9817391e-01   5.9581465e-01  -2.0855094e-02  -2.6325087e-01  -9.8972982e-01  -6.6089310e-01   6.2025867e-01   3.3056806e-01  -5.9965367e-01  -9.8053465e-01  -2.9497184e-01  -9.8373503e-01  -4.9215134e-01   8.0948946e-01  -9.1453774e-01  -9.2683572e-01  -3.2775414e-01   1.4251624e-01   1.1117399e-01   2.3992992e-01   6.1708864e-01   2.7863152e-01  -8.5687455e-01   1.5242410e-01  -5.8056883e-01   9.9087801e-01  -5.1566197e-02  -1.5672453e-01   6.3496767e-01   4.9100597e-02   6.8367930e-01  -2.4904983e-01  -7.2569732e-01  -3.7810207e-01   2.0012054e-01   5.4872001e-02  -8.7003457e-01  -1.7420772e-01   5.6592736e-01  -4.0222610e-01  -2.9937701e-02   6.3845134e-01   8.2561494e-01   3.4303170e-01  -4.9493962e-01   2.0488408e-02  -1.1470453e-01  -7.8774682e-01  -3.0619589e-01   9.3431704e-01   1.5826973e-01  -7.6830160e-01  -7.8203757e-01  -9.2551408e-01  -5.6945436e-01   5.1622618e-01  -3.8718723e-01  -7.7247675e-01   9.2780534e-01   7.3991687e-01   9.7248941e-01   7.9201759e-01  -2.8303574e-01  -8.5448171e-01  -4.9636430e-01  -6.6880014e-01   6.9263122e-02  -9.5445852e-01  -3.4252629e-02  -8.9643513e-01   4.7408260e-01   3.9994564e-01  -1.3565736e-02   8.8615198e-01   5.6013679e-01   1.2707880e-01  -9.4782238e-01   2.2091057e-01   1.2862587e-01  -6.4633652e-01   4.4266965e-01  -5.6766739e-02   2.1354385e-01   5.4670613e-01   8.6859881e-01  -4.5432743e-01  -5.5499598e-01   9.5678976e-01   1.4608329e-01  -9.8654611e-01  -7.5512058e-01   7.5890550e-01  -7.5041542e-01  -4.6235095e-02   8.8171082e-01   1.2559426e-01   7.3238644e-01  -5.6212381e-01   6.3110314e-02   6.3562695e-01   7.4993262e-01  -6.3917568e-01   4.4760829e-01   3.0698327e-01   6.4078279e-01  -1.1176911e-02  -6.0447733e-01  -6.5147768e-01   2.9450249e-01   9.0496426e-01   8.5546357e-01  -2.6140177e-01   3.2625153e-01   9.7029207e-01  -2.4703019e-01   9.1793060e-01  -5.9440324e-01   6.2181477e-01  -7.5545877e-01  -9.5530049e-01   6.0267280e-01   2.1651291e-01   9.0164547e-01   1.8600792e-01  -2.5413084e-01  -5.3202929e-01  -7.9689855e-01  -2.2347358e-01   3.4815405e-01  -3.9506437e-01  -8.2118596e-01   8.9669175e-01  -3.9945770e-01   2.7205697e-01  -8.3382254e-01   9.8142107e-01   3.9457799e-01   7.1767944e-01  -1.0221286e-01  -5.1600027e-02   1.6149493e-01   3.0689730e-01  -7.2684588e-01   5.2296284e-01  -2.0587428e-01  -2.7040687e-01  -8.0994838e-01   5.2952497e-01  -9.4844799e-01   6.0498527e-01   3.6604820e-01   5.5833110e-01   9.0095765e-01   2.8035871e-02  -2.3084824e-01   2.4161014e-01  -5.4248828e-01  -6.8548842e-01   2.9311784e-01  -4.9932152e-01  -2.6615953e-01  -3.3920384e-02  -5.7508837e-01  -5.3043952e-01   7.4545336e-01   8.1788232e-01   3.1119820e-01  -7.2460443e-01   4.3533409e-01   7.4207092e-01   1.2174046e-01  -2.8729396e-01  -9.5417001e-01   4.7972106e-01   8.2177443e-01  -2.5602541e-01   2.7951719e-01  -4.2637670e-01  -3.8320299e-01   3.9699025e-01  -5.5270926e-01   5.3353953e-01  -1.7936859e-01  -4.5256797e-01  -1.3976311e-01   1.0493673e-01  -4.9971217e-01  -4.4229299e-01  -3.6264569e-02   3.2362248e-01   1.8967527e-01   1.3426218e-01   9.2362674e-01  -3.1796944e-01  -9.8953196e-01   6.2276305e-01   6.4371897e-01  -1.3802629e-01   4.0102578e-01  -8.0238090e-02   1.9767354e-01   7.6358290e-01   3.1199220e-01  -9.7122445e-01   1.8927823e-01   6.0607485e-01   5.6973008e-01   8.6843396e-01   1.7302154e-01   7.4934435e-01   7.0799287e-01   2.0155263e-01  -5.7126429e-01  -9.5119732e-01  -2.7754482e-01  -3.9535137e-01  -1.5001510e-01  -3.8074076e-01  -8.6412260e-03  -9.1136661e-01  -7.2889343e-01   1.6484684e-01   4.0217210e-01   2.6235721e-01  -8.1259801e-01   6.9635977e-01   9.7815842e-01   1.1965265e-01   7.6599820e-01  -8.8647204e-01  -5.3694950e-01  -2.2524566e-01  -8.6940060e-01  -5.3468780e-01  -8.6323937e-01   3.2720443e-01  -8.9937357e-01   6.0245448e-01  -9.0862828e-01  -9.2181759e-01   1.6862273e-01  -2.3866663e-01  -2.9031446e-01   4.9201749e-01  -6.1867663e-02   9.2410798e-01  -8.5613055e-01   1.3145887e-01  -8.7572904e-01  -2.7411159e-01  -5.7101645e-01   7.4806782e-01   5.2180238e-01   1.4456355e-01  -2.2882907e-01   6.6209419e-01  -4.8596805e-01   4.0506457e-01   6.0001540e-02   2.3763598e-01   3.5413561e-01   7.7582232e-01  -3.8015166e-01   3.0788630e-01   3.1366046e-01  -7.2023184e-01  -1.4297821e-01   5.6523797e-01  -4.3962164e-01   3.5393431e-01   5.3534331e-01   2.9461302e-01   8.3186319e-01  -6.2501895e-03   8.5286651e-01   8.9303804e-01   6.4348279e-01  -1.7448604e-01   9.2109758e-01   3.2295826e-02  -2.7761245e-01  -7.1671716e-01   7.9741810e-01  -7.2409255e-01  -1.4873666e-03   6.3435795e-01  -6.0527632e-01  -5.3870864e-01  -2.4569953e-01  -1.2745667e-01  -4.8758327e-01  -3.6850387e-01   2.1252062e-01  -8.1134114e-01   5.6129317e-01  -3.5222910e-01  -1.1104714e-01  -3.1354538e-01  -7.6994457e-01   5.4206995e-03  -3.6473506e-01   5.7033104e-01  -1.1371605e-02  -9.8323402e-01   3.6827554e-01   1.1374816e-01   1.7673568e-01  -1.0818688e-02  -7.1877037e-01   3.5272372e-01  -1.0905142e-01  -1.1149614e-01  -7.3823719e-01  -8.6762770e-01   3.4973915e-01  -2.2164531e-01  -7.2565537e-01   2.6733253e-01  -7.2311711e-01  -9.8040539e-01   6.8654095e-01  -2.3234207e-01  -3.2935319e-01   5.1483949e-01   9.0741301e-01   3.0865571e-01  -6.4319509e-02  -1.0166883e-01   5.7749376e-01   3.4407836e-01   9.6177078e-01   5.5940246e-02  -6.5372197e-01   8.1550124e-01   3.7572676e-01  -4.3716975e-01  -2.3589234e-01   2.1490947e-01  -4.4662701e-02   5.1162242e-01  -1.3661480e-01  -1.4669236e-01  -5.5042953e-01  -3.5908759e-01  -7.4233220e-01  -3.7160997e-01  -6.5156829e-01   4.3004484e-01   2.4850719e-01  -8.4971711e-01   7.0842546e-01  -5.5651753e-01   3.4185656e-01  -7.7730690e-01  -4.8487625e-01  -3.1307075e-01  -5.4406250e-01  -5.4127238e-01  -9.9773494e-01  -9.3856444e-01   7.7203567e-01  -4.3792901e-01  -4.8391697e-01   8.7078409e-01  -7.1897883e-01  -4.5654275e-01   8.4055956e-01  -9.0018854e-01   2.1366665e-01  -1.7604569e-01   3.0573158e-01   4.7931438e-02  -5.0502726e-01   9.0145801e-01  -3.8435742e-02  -2.5269559e-01  -6.9599729e-01   5.2463315e-01  -7.9956094e-01  -5.2647496e-01   7.8740291e-01  -6.7544418e-01   4.1068880e-02   4.1981391e-02  -7.4246413e-01  -4.9328764e-01   5.7894691e-01   8.9840778e-01  -4.9610016e-01   3.9574407e-01  -2.4018729e-01  -6.0478059e-01  -5.5007600e-01   5.0628731e-01   6.7204812e-01   5.3229575e-01   4.4823168e-01  -1.2845244e-01   4.5292414e-01  -3.0667917e-01   2.1269418e-01   3.8926243e-01  -8.6525759e-01  -9.9889892e-01  -3.9567996e-01   1.3859696e-01   1.4832502e-01  -7.4864843e-01  -1.1272957e-01  -2.0886038e-02   8.2634864e-01  -8.2132899e-01   1.9002609e-01  -4.8156251e-01  -9.4006217e-01   4.6801432e-01  -7.0646108e-01  -5.9958599e-01   7.3216841e-01  -8.9569843e-01   7.3565242e-01  -6.4237290e-01  -6.9998407e-01  -4.7631078e-01  -8.1394932e-01  -3.1052001e-01  -7.6912177e-01   9.0544463e-01  -6.5005995e-01   6.2788623e-01  -2.8894951e-01   4.7106845e-01  -6.8334291e-01  -7.5167483e-01   4.0358368e-01  -7.8895236e-01   7.1761690e-01  -3.1197737e-01   7.3057990e-01  -3.5239721e-01  -7.7860545e-01  -5.9597875e-01  -9.7778992e-02   4.3388240e-01  -4.7307928e-01   4.9225474e-01  -4.1964598e-01  -4.5132975e-01   8.5752939e-01   3.2849678e-01  -9.4518837e-01   9.4793600e-02  -7.5458718e-01  -8.6335203e-01  -1.1582045e-01   3.4449652e-02   2.5024269e-01  -1.7728614e-01  -6.5080296e-01   1.0520004e-01   2.0067375e-01  -7.9524367e-01   8.4932589e-01  -1.5595308e-01  -7.9127382e-02   5.9770592e-01   1.3475147e-01  -6.8285050e-01  -9.4692675e-01   6.9761266e-01   8.6132603e-01  -1.1163418e-01   3.5343943e-01  -5.0931870e-01  -2.0189549e-01   7.3660577e-01   3.1016580e-02  -6.4387424e-01   8.5761396e-01   3.6594997e-01   2.4320404e-01  -1.0643393e-01  -9.5354615e-01  -1.1706386e-01  -7.7532339e-01  -3.6655738e-02  -9.6789787e-01   7.4583607e-01  -3.3720460e-02  -6.7345350e-02   9.4254978e-01  -9.4512569e-01   8.1087571e-01  -7.2070366e-02  -6.8851969e-02  -3.2979228e-01   2.6224683e-01  -8.3887482e-01  -1.5622860e-01   1.1118729e-01   4.3256681e-01  -9.4569945e-01   3.0885477e-01   2.7796792e-01  -6.9169681e-01  -8.4381155e-01  -1.6133402e-01  -3.1701193e-01  -5.3718703e-02   6.3264793e-01   9.8985263e-01   3.4589761e-01   6.6474304e-01   6.2714252e-01   9.1331804e-01   6.4553480e-01   8.0443254e-01   4.9756707e-01  -6.9563471e-01  -1.3208096e-01   5.6289154e-01   2.8701299e-01  -3.6041291e-01   7.9621788e-01  -5.3016309e-01   4.1719630e-01   7.7420084e-01  -7.4543144e-01   3.7799254e-01   9.6004148e-01   4.9229493e-01   7.8105412e-01   5.5562654e-01  -5.9296353e-01  -1.5670519e-02  -4.1223800e-01  -2.7544842e-01  -4.9010206e-01   7.2968129e-01  -8.8557568e-01  -5.2105971e-01   3.0606111e-01  -4.4169832e-01  -5.6483482e-01   9.1968079e-01   6.7080593e-01   4.4647064e-02   6.9451854e-01  -1.1584876e-01  -5.3149294e-01  -6.6726068e-01   3.8307078e-01  -9.3689375e-01  -1.2597967e-03   6.3331275e-01   8.5006742e-01   8.1001944e-01   3.7088155e-01   7.5147876e-01   3.8775674e-01   2.8102200e-01   4.8325800e-01   9.1626143e-01   3.5291091e-01  -9.5118079e-01  -2.5111319e-01   5.3700101e-01  -2.2999511e-01   4.5081537e-01  -3.8343547e-01  -2.4471468e-01   1.2339185e-02  -1.0025115e-01   8.5099149e-01   6.8936034e-01   3.7471569e-01   8.7292785e-01   4.0053002e-01  -6.9273326e-01  -9.2843425e-01  -5.6822325e-01   1.0601943e-01  -8.0662718e-01  -7.1733605e-01  -4.7647673e-01  -3.9163078e-01   6.1974936e-01   3.2029470e-01  -3.8364534e-01   6.5985619e-01   1.1363746e-01   6.8408750e-01   1.4942844e-01  -1.5089920e-01  -2.0195931e-01  -4.3851077e-01   3.0169266e-01   1.7472748e-01   7.4755034e-01  -7.9781262e-01  -1.4866637e-01   2.5904560e-01  -8.8114482e-01   9.7170210e-01  -2.3878967e-01   9.3406737e-02  -9.4265264e-01   3.5016200e-01   2.7227332e-01   6.4380346e-01  -6.5400952e-01   4.9419224e-01  -9.4289770e-01   8.9315525e-02   5.8526370e-01  -6.3625239e-01   7.4218345e-01   3.1294151e-01  -1.7072779e-01  -6.4592750e-01  -6.1613298e-01  -5.3400770e-02   7.0924841e-01  -4.3111359e-01   2.9905348e-01  -5.9798200e-01  -5.4628989e-01  -6.1508213e-01   2.1883806e-01  -8.4100459e-01   6.9854997e-01   2.5192716e-01  -2.5633464e-01  -5.9596243e-02   6.2875871e-02  -4.0767482e-01   2.2238570e-01  -7.8231468e-02   1.3318315e-02   9.4474166e-01  -1.4738344e-01  -1.0227017e-02  -9.1494241e-01   2.9418316e-01   5.9617033e-01  -6.8135900e-02   8.0998017e-01  -1.1752622e-01   6.3500809e-01  -4.4258049e-01   6.8165928e-02   1.0304659e-01  -7.7550130e-01   9.7920793e-01  -2.0605974e-01  -7.3064235e-01  -5.7840168e-01  -1.4309277e-01   4.3626623e-02   7.2452268e-01   6.2382201e-01   6.8472392e-01   3.6358089e-01   6.8827409e-01   2.6223108e-01  -6.5352515e-01   5.7815052e-01   7.2156846e-01   4.1296176e-01   6.8506564e-01  -7.8209124e-01  -5.4741960e-01  -8.3067744e-01   4.7357362e-01   5.8428688e-01   6.4839880e-01  -3.0186911e-01   1.3548639e-01  -9.4168334e-01   5.4699813e-01   1.5760433e-01   3.8033245e-02   9.8002339e-01   2.7111330e-01   7.3148925e-02  -9.3336021e-01  -3.4737564e-01  -6.5934246e-01   9.4446093e-01   9.6183637e-01  -3.3345264e-01  -2.2509372e-01   2.5630500e-01   3.7849421e-01  -4.4375152e-01  -9.4078363e-01   6.4020079e-01   5.5511392e-01   5.0391955e-01   4.4298568e-01   7.8558559e-01   8.1659229e-02   7.2804294e-01  -1.4668995e-01  -9.7805357e-02   1.8091821e-01   9.3373122e-01   7.2783231e-01  -3.9825509e-01   1.6225037e-01  -6.8739029e-01  -4.2965300e-01   1.0620776e-01   2.3224559e-01  -7.4702920e-01   1.4760366e-01   2.7097557e-01   2.8849242e-01   6.0503778e-01  -5.1266933e-02  -5.5496338e-01   3.1278850e-01   1.6809980e-01   8.7927350e-01  -5.2729154e-01   1.1607954e-01  -7.7817381e-01  -6.8279361e-01  -9.0172668e-01  -1.0931584e-03  -5.6584498e-01  -7.4494743e-01  -1.7486490e-01  -3.0950999e-01   2.9871353e-01  -8.2149811e-02  -8.0406850e-01   8.7641403e-01  -4.8700288e-01   5.0826049e-01   6.5645195e-01   3.1038284e-01   5.0511359e-01   2.3688622e-01  -9.3768693e-01   7.0839352e-01   4.0858884e-01  -6.1249454e-01  -5.3159246e-01  -1.8020312e-01  -5.1983663e-01   2.9634890e-01   3.4406323e-01   8.0297683e-01   4.8854794e-01   3.7035396e-01   5.2047986e-01   7.6727047e-01  -6.3923754e-01  -4.2627623e-01  -2.9455251e-01   4.6220326e-01   5.4296987e-01   8.4966734e-01   7.6679480e-01  -9.1920383e-01  -5.3958229e-01   4.3699765e-01  -4.1272361e-01  -4.9224626e-01   1.9263870e-01  -4.1560161e-01  -6.2685381e-01   8.4122965e-02  -7.5820841e-01  -8.7353589e-01   8.1844345e-01   2.0779018e-01  -5.0539521e-01  -2.0286860e-01  -1.2972639e-02   5.8961516e-01   5.7835059e-02   3.7267652e-01   2.3309219e-01   2.5561211e-01   8.2506171e-01  -9.9351707e-01  -1.4985722e-01   8.4592212e-01   4.1572995e-01   5.9780153e-01   1.8360819e-01   9.6026860e-01  -8.1727339e-01  -5.9151444e-01  -4.9352244e-01  -9.0956186e-01  -5.0239006e-01  -6.7406963e-01  -2.9472116e-01  -9.6175984e-01  -7.2655989e-01  -7.2364317e-01  -3.5709543e-02  -9.0406488e-02   2.9013942e-01  -5.4803597e-01   6.1912333e-01  -8.6007591e-01   5.3090349e-01   8.5351136e-01  -1.1547811e-01  -4.0361536e-01  -6.8226998e-01   2.5450824e-01   7.2006388e-01   4.8182294e-01  -7.5436481e-01   8.2177915e-01   6.1983294e-01   1.6777570e-01  -2.6700165e-01  -9.0276171e-01  -8.0206889e-01   4.0113435e-01   8.1559614e-01  -2.5072999e-01   6.1234459e-01   5.5264463e-01   4.3962400e-01  -4.1101908e-01   9.9065412e-01   3.5496972e-01   2.0267970e-01  -8.7394284e-01   3.7751103e-01  -6.4541583e-01   5.5851199e-01  -5.4113867e-01  -8.3862902e-01  -6.0666828e-02  -9.1737365e-01   2.4680768e-01   4.8851209e-01   4.2843971e-01   9.0970491e-01   1.1767456e-01  -3.8502362e-01   9.8894057e-01  -5.4216605e-02  -5.8487726e-01  -6.2392897e-01  -8.8107411e-01  -3.3713925e-01  -7.5225671e-01  -3.3114707e-01   9.7216490e-01  -2.5302043e-01   2.5373770e-01   5.0484283e-01  -4.4545503e-01   3.5823804e-02   2.0098405e-01  -4.8686625e-01  -5.4234065e-01  -6.4706763e-01   9.0812122e-01   6.7587254e-01  -6.0747059e-01   3.4706600e-01   8.1922045e-01  -8.3672723e-01   2.7586305e-01  -7.1563561e-01   9.3206928e-02   2.0239552e-01   2.1492426e-01  -9.7086752e-01   8.6166574e-01   6.1626926e-01  -8.3932446e-01  -4.5348220e-01   5.7667793e-01   9.0389467e-02  -8.1860580e-01   3.7607301e-01  -8.6318207e-03   5.5513614e-01   1.1529128e-01   8.8524511e-01   6.7274653e-01   9.4437361e-02   6.5170377e-01  -5.8918850e-01  -1.2413950e-01   1.6174557e-01   3.7043176e-01   2.7445009e-01  -1.8771573e-01   4.7989177e-02  -3.6651344e-01   4.3220849e-01  -7.0709282e-01  -2.5576189e-01  -9.4438485e-01   8.5652637e-01  -9.7634775e-01  -7.2135787e-01  -2.3775610e-01  -8.6358393e-01  -2.7192011e-01  -5.5904194e-01   1.7633235e-01  -7.5346611e-01   1.8292332e-01  -7.6946190e-01   1.2365003e-01  -7.5473683e-01  -4.1939643e-02  -6.3867432e-01  -4.5255536e-01   3.9437062e-01   1.5647410e-01  -4.3722704e-01  -6.0905836e-01   3.8146517e-01   8.4600142e-01  -9.6505758e-01   8.1196484e-01   8.3524212e-01  -8.0492692e-01  -8.1993672e-01   6.3697353e-01  -4.4418800e-01  -8.4681134e-01  -9.9578120e-01   3.1628186e-01   8.1344920e-01  -4.6423354e-01  -8.2816654e-01  -2.0288803e-01   5.6874372e-01  -1.3342545e-01   5.3714875e-01   8.8491398e-01  -6.5582652e-01   5.1895710e-01   9.8568942e-01  -8.7267621e-01   9.8489418e-01  -6.2371228e-01   1.3823828e-01  -5.3488470e-01   1.1312060e-01   2.9441493e-01  -4.4219068e-01   5.8220029e-01   3.5851363e-01   7.5810782e-01  -3.7945743e-01  -2.6087115e-01  -4.0615966e-02   9.2488104e-01  -1.2063835e-01   6.5835643e-01  -7.7886314e-01   9.1104425e-01   8.8968944e-01  -3.4042092e-01   1.1664247e-01   5.9980278e-01   6.5885681e-01   5.5373953e-01  -3.4063490e-01   3.0427224e-01  -4.7088858e-01  -1.9882527e-01   3.7801337e-01   3.3614912e-01  -8.0976602e-01  -5.1354229e-01   3.4591972e-01  -8.5289340e-01   6.7788246e-01  -1.1487860e-01  -8.1653589e-01  -8.4578190e-01   3.4512650e-01  -1.7527607e-01  -6.0444985e-01
  -3.5026845e-01   9.2546702e-01   4.8609945e-01   8.6235268e-01   6.3048271e-01  -7.5647914e-01  -3.3619457e-01  -4.4824837e-01   4.5798723e-01  -4.9718383e-02  -1.4312402e-01  -7.1110490e-01  -8.7761046e-01   8.9363184e-01  -5.8802653e-01  -1.2460618e-01   5.9656652e-01  -8.2353263e-03   2.6561750e-01   3.1603818e-02  -9.2821729e-01   7.0862321e-01   8.3371902e-01  -5.4106251e-01   5.3773253e-01  -9.9322866e-02  -2.3482636e-01   6.6911921e-01   9.1028544e-01  -8.7510070e-01  -1.4044005e-01   4.4805510e-01  -4.0176517e-01   5.0770131e-01   6.2465318e-01   2.2922779e-01   6.7196755e-01   8.0465312e-01   9.5759092e-01  -4.1578231e-01   1.6848134e-01  -6.8022544e-01   6.7472322e-01   9.5593213e-01   2.5763340e-01  -9.2427330e-01  -3.0184494e-01  -3.9459780e-01  -4.6817042e-01  -2.2788306e-01  -9.5494606e-01  -4.3248682e-01  -3.7721260e-01   6.9367750e-01   3.4098882e-03  -2.9314554e-02   4.0927635e-02   5.5853137e-01   2.5898665e-02   5.4367761e-01   4.5403567e-01   7.6092133e-01  -9.1972956e-01  -3.0836226e-01   4.3664350e-01  -2.3746891e-01   3.0665313e-01  -8.3221572e-01   6.6740280e-01   9.2336768e-01  -7.5804135e-01  -7.8045345e-01  -7.9464688e-01   6.8964931e-01   1.3575526e-01  -9.2779845e-02  -6.4813799e-01   6.2961967e-02  -3.1541425e-01   6.5017318e-01   8.4431298e-01   1.4044986e-01   1.9452144e-01  -7.5270617e-01  -9.7690708e-01  -8.6554913e-01   5.8232581e-01   7.2136087e-01  -7.3858017e-01   1.3072389e-01   5.3893885e-01  -8.1290432e-01   5.8139479e-01  -6.5038492e-02   5.2308859e-01  -3.0573911e-02  -1.1322541e-01  -8.1221737e-01   6.5155767e-01  -7.4514009e-01   5.5320082e-01   3.5983050e-01   6.7322133e-01  -6.2724551e-01  -1.3955752e-01  -7.3066179e-02  -1.0152332e-01   3.7173724e-01   1.8956428e-01   8.3111396e-01   9.6123305e-01   3.8721232e-01   9.7158837e-01  -3.1972776e-01  -2.9291334e-01  -3.0826969e-01   6.5946478e-01   1.0073769e-01   2.6404220e-01   9.8138947e-01   8.6407462e-01  -2.5790650e-01  -1.4965331e-01   9.7021240e-01   9.2626153e-01   2.5646002e-01  -4.6481822e-02   5.0620029e-01   3.8214318e-01  -6.8407280e-01   4.8962765e-01  -2.1141739e-01   1.7507693e-01   9.6517059e-02   7.7707738e-01  -9.1472409e-01   5.0643434e-02   7.5460289e-01  -7.1256860e-01  -4.6009723e-01  -2.1703186e-01   8.4516708e-01   4.7996971e-02  -1.4578327e-01  -4.7540563e-01   1.0996394e-01   1.1488569e-01  -9.0455200e-01  -9.3165826e-01  -5.5896682e-01   8.2388734e-01  -9.9921022e-01  -3.8092378e-01   2.2355108e-01   5.7781503e-01  -3.6704287e-01   5.4459483e-01  -6.0395927e-01  -7.2214013e-01  -4.0937790e-02   5.9558051e-01  -1.4877019e-01   8.8781228e-01  -6.6560970e-01  -1.2399639e-01   4.2791587e-01   9.4283505e-01   1.9695761e-01  -6.3261057e-02   6.9245424e-01  -5.4746380e-02   4.1424779e-01  -4.7637848e-01  -2.1236421e-01   5.8796677e-01  -6.9984638e-01  -4.6192773e-01  -6.3149533e-01   7.4535804e-01   4.5397921e-02   4.2794962e-01   4.0781091e-01   9.7858167e-01   6.8953186e-01  -6.5589589e-01  -3.3190482e-01  -2.4362206e-01   4.9748022e-01  -7.9336489e-01   8.4478341e-01  -7.5198861e-01  -5.6725512e-01   3.1751781e-01  -4.2633229e-01  -8.7321756e-01  -7.0850739e-01  -8.5723723e-01  -3.2866149e-03  -6.0103724e-01   9.8544295e-01  -3.9258716e-01  -4.2872681e-01   9.9610496e-01   9.6146207e-01   4.8760067e-01  -6.5647728e-01   1.1006746e-01   9.8741036e-01  -5.7427507e-01   8.3883678e-01  -6.6914139e-01   2.3859789e-02   9.4691682e-02   8.8929711e-01   4.0234480e-02   3.0807690e-01   9.5521743e-01  -2.7389930e-01  -7.1414249e-01  -4.5656338e-01  -1.2003575e-01  -5.5942362e-01  -2.3327823e-01  -2.1960248e-01  -1.8109834e-01   6.6598225e-01   1.2485068e-01  -4.9899534e-01   8.7922906e-02   3.1855127e-01  -3.8427050e-02  -3.6347020e-02  -6.3345044e-01  -4.2304766e-01   9.7920258e-01   5.2741996e-01  -3.0599870e-02   9.7084189e-01  -3.8826342e-01   3.4833089e-02  -5.3911940e-01  -7.1616584e-01  -9.0987177e-01  -8.0246515e-01   4.9909249e-01   5.5501715e-01  -5.8325093e-01  -9.1589296e-01  -7.8979734e-01  -4.8326275e-01  -1.8041231e-01  -2.7173982e-01   7.0886882e-01   7.7103314e-01  -5.8557933e-01  -3.7346475e-01  -7.6095659e-01  -5.7260625e-01  -2.6026680e-01  -8.0166498e-01   5.4698361e-01   4.5372333e-02   9.7573040e-01   2.8042615e-01   8.6502938e-01  -4.8660123e-01   8.0967434e-01   4.9733530e-01  -5.6567821e-01   8.8260958e-01  -3.4873453e-01  -1.2456372e-01  -1.0832153e-01  -6.2288216e-01   4.6753109e-01   4.7529127e-01  -9.3019985e-01  -4.0532039e-01   5.7746838e-01   9.2491682e-01   4.2455097e-01  -2.8752052e-01   5.7031404e-01   3.6772604e-01  -2.1754980e-01   8.2337931e-01  -5.1139313e-01  -7.9567630e-01   3.2855964e-01   2.0721641e-01   3.1983829e-01   9.8060242e-01  -3.9716153e-02   1.2145750e-02   1.7954787e-01  -2.4424784e-01   3.6650929e-01  -5.9301995e-01  -5.9880817e-01  -9.1323473e-01  -6.5696974e-01  -4.0027752e-01  -9.9956296e-01  -5.8784880e-02  -3.1929726e-01   4.2368650e-01   7.0964938e-01  -3.3472407e-01   5.5683776e-01  -6.7920390e-01  -2.8009437e-02   6.9731722e-01  -2.9096205e-01   1.3935084e-01   2.3874086e-01  -5.0275112e-01   2.4413075e-02   5.9290517e-01   8.8407910e-01  -3.4673203e-01  -2.2179853e-01  -5.5991306e-02   6.2452232e-01  -4.5275247e-01  -3.2421479e-01   1.7978062e-01   8.0849129e-01   9.1758505e-01  -4.5365976e-01  -2.9135177e-01  -7.0382785e-01   8.7030797e-01   3.1635785e-01  -8.9412704e-01  -2.0174340e-01  -5.5194780e-01   4.9151580e-01   1.3253055e-01  -4.7172950e-01   4.4787875e-01  -4.2191486e-01  -2.0810894e-01   2.7128085e-01   1.9843636e-01  -1.6882994e-01   6.8701232e-01   8.3735270e-01  -8.9894984e-01   5.3071980e-01   9.5899462e-01   5.5676140e-01  -1.7964760e-01   1.4180472e-01   1.3197880e-01  -4.5437438e-01   3.7544492e-01  -7.4232417e-01   8.1387836e-01   2.0885532e-01   2.2406251e-02   6.1181586e-02   8.7349033e-02   8.3873915e-01  -8.9955289e-01   2.8908831e-02   8.6741627e-01  -1.3649518e-01  -7.6367812e-01   9.6843042e-01   2.2853525e-02   4.8672855e-02   3.1399562e-01   2.3342603e-01  -8.3872717e-01   2.0035111e-01   3.6374989e-01   6.5666990e-01   2.4582004e-01  -7.9813093e-01  -3.3454341e-01   5.0134112e-01   7.8438963e-01  -8.7445258e-01  -4.6693905e-01   5.1305599e-01  -2.5928366e-01  -1.3226417e-01   5.2346721e-01   6.2289569e-01   6.8158741e-02  -6.2255143e-01   3.7629062e-01  -8.4939175e-01  -3.1206339e-01   9.2195159e-01   1.0112571e-01   4.7183963e-01  -2.7392330e-01  -8.3510301e-01   3.7149821e-01   1.8161773e-01  -6.1505388e-01  -5.6489105e-01   9.8379457e-01  -3.6652433e-01   8.3682618e-01   7.4817488e-01   1.9845312e-01   2.3849144e-01  -6.9304594e-01   8.0231696e-01   3.1475321e-01  -6.0867960e-01  -4.2338805e-01  -4.4599735e-01   6.3192223e-01  -9.5100958e-01   6.2398322e-01   2.3885926e-01   8.2464101e-01   7.1174110e-01  -6.9621413e-02   8.8837392e-01  -5.7755511e-01   2.6156346e-01   3.5041699e-01  -7.6541622e-01   2.2181649e-01  -3.8801355e-01   1.7462521e-01  -7.3217176e-01  -8.4380820e-01   5.5020165e-01   6.2686632e-01  -9.6728547e-01   1.7937317e-01  -2.7927993e-01   1.8238493e-02  -6.0853332e-01  -6.3928177e-01  -8.4235635e-03  -3.8895644e-01  -9.6228768e-01   5.2509243e-02  -1.0090100e-01  -4.0567972e-01  -2.4925709e-01   7.6978492e-01   7.6704872e-01  -7.8478184e-01  -7.4889319e-01  -1.2977384e-01   7.1872002e-01  -3.1038899e-01  -5.6769689e-01  -6.9151199e-01   3.6909511e-02  -4.3766999e-01   9.3684571e-01   8.5960758e-01   5.8103055e-01   5.5579851e-02   5.2730877e-01  -2.2911159e-02  -7.4295317e-01   9.0638772e-01  -2.3206137e-01  -2.0406289e-01  -4.7383937e-01  -6.6014617e-01  -8.6415415e-01   3.8494356e-01  -1.5809180e-01  -4.5971182e-01   3.9723587e-01  -9.1017247e-01  -4.7005993e-01   3.6919185e-01   4.6151431e-01   1.2833790e-02   9.4837722e-01  -6.8512530e-01  -6.0739535e-01  -9.4117621e-01  -3.5512391e-01   6.3502121e-01  -1.6392930e-01  -3.3316325e-01  -4.9842338e-01  -3.9712928e-01  -3.1177216e-01   8.5300731e-02   8.1707592e-01  -5.0693634e-01  -5.0767064e-01  -7.1625081e-02   4.1681100e-01  -3.1596641e-01  -7.1615966e-01   1.1156858e-01  -2.5456250e-02  -2.2208658e-01  -8.9988256e-01   2.4896841e-01  -3.5447400e-01  -7.7786244e-02   7.9025062e-01   8.9353453e-01  -4.6627169e-01  -1.2838979e-01  -9.5256090e-01  -8.6697897e-01  -6.9851920e-01   1.5186714e-01   6.2516386e-02   4.8184865e-01  -5.5913984e-01  -3.5624729e-01   8.8679393e-01  -8.1920323e-01  -6.8530913e-01   4.2495886e-01  -8.2440223e-01   1.6105071e-01  -3.9565547e-01   1.8981159e-01   2.5648115e-01   2.2640529e-01  -2.4237747e-01   8.2626090e-01  -3.3346808e-01  -3.7383399e-01  -9.0544617e-01  -5.7378224e-01   7.2127281e-02  -1.3354640e-01  -8.2233961e-01   9.7064387e-01  -9.0294557e-01   9.4414835e-01   7.2683966e-01  -6.0284579e-01  -6.3646960e-01   1.0817732e-01   8.4439232e-01   7.8470513e-01  -9.0914234e-01  -1.7033227e-01   3.2214925e-01  -7.9649297e-01   7.5069229e-01   9.0963581e-01  -1.1435042e-01   8.5141854e-01   7.6144166e-01   8.4015794e-01   8.5226718e-01  -5.3752633e-01   2.4211375e-01  -3.4758711e-01  -4.7079395e-01   2.3603620e-01  -8.1483622e-01  -6.0417436e-01   7.2341872e-01  -1.4842494e-01   8.9484495e-01  -8.0653451e-01  -3.9050040e-01  -3.4878008e-01  -8.0474021e-01  -6.0726163e-01  -7.3070055e-01   8.0330717e-01   9.2232502e-01   1.2543038e-01  -9.5511879e-01  -8.1361058e-01  -8.2579996e-01  -2.3672156e-02  -7.6161188e-01   2.6440799e-01   2.8908228e-01   4.9404264e-01  -1.0031781e-01   6.2288309e-01   5.0136033e-01  -5.4285290e-01  -6.8765429e-01   8.7617997e-01   8.0938793e-01   6.2446242e-01   7.2044746e-01  -4.2402097e-01   5.9879892e-01  -5.1762280e-01  -6.8115622e-01  -7.5557833e-01  -7.1567120e-01  -8.3650591e-01  -7.6364924e-01   6.2423527e-01   3.1449071e-01   7.7255730e-01  -3.0406905e-01  -1.5108525e-01  -4.8226637e-02   8.1066571e-01   8.5180441e-01  -9.0348566e-01  -7.7042329e-01   7.9094928e-01   2.7153292e-02   5.6845099e-01   3.1062439e-01   2.8570828e-01   4.2895920e-01  -5.7377801e-01   5.1273561e-01   7.4884735e-02   3.1222796e-01  -9.8377643e-01   5.6032180e-02   1.5127279e-01  -4.3559242e-01   7.2418663e-01  -8.5135213e-01  -2.1417264e-02  -5.1468589e-01  -8.7217333e-01  -8.2960072e-01  -4.1529834e-01  -2.3635044e-01  -6.8241847e-01   3.3695945e-01  -5.4173749e-01   4.4214871e-01   8.5936117e-01  -9.4979092e-01   4.0672211e-01  -5.5331511e-01  -6.0401611e-01  -1.6574962e-01   7.9271025e-01   7.0992964e-01  -3.0058254e-01   3.5685747e-01   9.5791342e-01   8.6638161e-01  -1.2500754e-01  -9.1741155e-01   6.2276894e-01  -2.2281111e-01   4.6682958e-01  -1.4605908e-01  -8.8682791e-01   9.9926059e-01   5.8830148e-01  -1.6876467e-02  -3.5612607e-01  -7.0433215e-01   9.6273017e-01   3.9630582e-02  -7.0193430e-02  -2.1714055e-01   4.6928003e-01  -4.9290889e-01   1.7338424e-01  -7.6502928e-01   6.5749542e-01  -8.4240196e-01  -6.4056003e-03  -6.8347384e-02   6.9575385e-01  -3.7815143e-01   8.8608589e-01  -8.2369627e-01  -5.8459179e-01  -6.2122593e-01   2.8947494e-01   9.4726544e-02  -9.4389767e-01   6.8013561e-01  -1.8855542e-01   7.2673133e-01  -6.0340508e-01   3.7105537e-01   4.3603988e-01  -9.8838350e-01   2.8587314e-01   4.1853084e-01   4.6318735e-01  -3.3750515e-01  -2.0963138e-01  -1.6800389e-01   5.1807664e-01   5.2720214e-01   4.3824445e-01  -4.3585489e-01  -9.1720669e-02  -9.3612365e-01  -1.6962172e-01  -2.2872478e-01  -1.1022840e-01   5.4575671e-01  -8.4057023e-01   7.5189717e-01  -8.4721551e-01   3.1597820e-01   6.1091419e-01  -9.7876798e-02  -1.9709846e-01   7.2963730e-01   5.6280959e-01  -7.4762242e-01   5.7056574e-01  -7.4162286e-01  -5.5617977e-01  -4.9578410e-01  -9.8721979e-01  -4.3039604e-01   7.0233556e-03  -9.0441638e-01   5.0136128e-01  -3.6502472e-01  -3.6098054e-01  -7.4559362e-01  -3.5252494e-01  -6.4156213e-01  -6.8957446e-01   1.5467776e-01   5.4424902e-01  -6.5978782e-01   3.9319931e-02   2.3463383e-01   6.4133835e-01  -3.2100442e-01  -9.5129422e-02   1.3110086e-01  -3.8693409e-02  -7.0819395e-01   7.6216149e-01  -6.8463481e-01  -9.4489836e-01  -2.4112588e-01  -6.7289996e-01   4.4134487e-01  -3.2065809e-01   7.9459777e-01  -9.5533114e-01  -1.1947066e-01  -4.4462013e-01  -7.3288071e-01  -8.3248653e-01  -2.8072692e-01  -2.5534405e-02   3.1046486e-01   4.2550555e-01   5.9340645e-01   7.0198314e-02  -8.2419999e-01   5.7171612e-01   4.0863643e-01   3.4864546e-01  -2.5438033e-01   2.2979881e-01  -2.4338390e-01   8.6168954e-01  -5.9337839e-01  -9.7194717e-01  -4.2082977e-02  -3.9271365e-01   3.2106725e-01   5.3031195e-01   1.2284432e-01   4.3665167e-01  -6.3822717e-02   8.9289280e-01   3.6670357e-01  -8.6424827e-01   8.0862803e-01   5.4636639e-01  -6.8237745e-01  -1.8145913e-01  -7.0103366e-01   5.3646454e-01  -4.6657552e-01   7.6130286e-02   8.1603413e-01  -1.7948131e-01  -2.2891679e-01  -9.2737527e-01   7.3070169e-01   9.4833447e-01  -3.0921158e-01   2.2154986e-01  -1.9902479e-01  -4.0512122e-01   4.7215720e-01   2.0418557e-01  -3.6594546e-01   7.5220888e-01   3.7437355e-01  -7.3300486e-01  -5.1161597e-01  -5.3977400e-01  -5.9150896e-01   2.4987786e-01  -8.8071787e-01   4.9095547e-01  -6.8219502e-01   2.0100338e-01   4.8916877e-01  -7.3133849e-01   6.1091209e-01  -8.6188742e-01   5.2364459e-01  -8.3316475e-01   9.4648570e-01  -6.4299006e-01  -6.3663773e-01  -8.8542424e-01  -6.2114522e-02   4.7718207e-01  -5.0154582e-01   2.6976526e-01   2.4453336e-01   5.9919980e-01   1.0689152e-01   5.6311475e-01  -3.5434960e-02   9.2085910e-01   8.8851103e-01  -2.0158000e-02   6.1698838e-01  -1.9784152e-01  -7.3776294e-01   4.1179056e-01   7.9215657e-01   9.2127198e-01   7.7125356e-01   7.6461018e-01   2.5846959e-01  -5.1459857e-01   7.7645373e-01   2.9873621e-02   7.0097837e-01  -9.7257763e-01  -9.4963810e-01   9.0094828e-01   3.8293852e-01   6.7840700e-02   4.2083232e-01  -9.3327904e-01   2.3337150e-01  -7.0562696e-01  -6.4883254e-01   8.7420997e-01  -8.4325490e-01  -2.1143954e-01   4.4179834e-01  -8.8879710e-01  -7.8843805e-01  -7.7986359e-01   2.8503460e-02   7.7087954e-01   3.7426841e-01  -5.9294565e-02   1.2508721e-01   6.2863846e-01   6.3135512e-02  -7.0621021e-01  -2.9280998e-01  -2.9358959e-01  -6.9108756e-01  -7.3306416e-01  -1.3582936e-01   5.9035046e-01   9.6594658e-01   3.9221303e-02   2.3324776e-02   1.6537304e-01   6.5498293e-01   4.5158622e-01  -3.8053423e-01  -1.5981262e-01  -9.1240789e-01  -1.3619166e-01  -7.6889005e-01   2.0893829e-02   9.3534585e-01   1.9762547e-01  -8.2860299e-01   3.9582897e-01  -5.0050540e-02   3.5455116e-01  -1.7694695e-01  -3.7857494e-01  -1.9219693e-01   1.6621462e-01  -1.3978618e-01   4.6389199e-01   1.1517650e-01  -3.4290097e-01   8.4082047e-02  -1.6962195e-01  -9.4651842e-04   7.6936255e-01  -1.6588164e-01   2.0128274e-01  -8.8862669e-01   2.1242761e-01   9.4576229e-01  -1.9812292e-01   7.6067992e-01  -5.4979886e-01  -3.7715392e-01  -5.7699063e-01  -4.2127295e-01   7.2407202e-01  -5.3456461e-01  -8.7314247e-01  -3.4270880e-01  -3.2390192e-01  -5.0407558e-01  -6.2804580e-01  -1.6519392e-02  -2.3117662e-01  -1.6254923e-01   3.9530674e-01  -9.2609419e-01  -7.9363643e-01   2.0760373e-01  -4.2653136e-01  -6.6308059e-01  -1.6794813e-02  -1.1260358e-01   5.6426526e-01  -4.8177252e-01  -3.4271140e-01  -2.9919985e-01  -5.0438914e-01  -6.5479346e-01   8.3172944e-02   2.0916988e-01  -7.3357000e-01  -8.4383276e-01   2.2043383e-01  -1.8527438e-01   2.3616916e-01   3.6707489e-01  -7.3379804e-01  -3.0317264e-01   3.7831607e-01  -3.5709098e-01  -8.6371970e-01  -6.6640231e-01  -4.8116323e-01   3.3373549e-01  -2.2795605e-01  -5.6963473e-01  -9.7653428e-01  -6.9008467e-01  -6.0264676e-02   2.6056191e-01  -3.4452980e-01   8.2622154e-01  -5.4699834e-01   9.4004214e-01   2.4621788e-01  -4.5646927e-01   8.1956483e-01  -4.6172472e-01  -2.8071817e-01   7.8084787e-01   5.4058646e-01   6.5641605e-01  -8.3394501e-01   5.4331934e-01   2.0398026e-02  -5.3393877e-01   5.7680810e-01   9.4425600e-01  -5.3457206e-01  -9.9844715e-01   6.8014652e-01   4.9138095e-01  -3.0979588e-01  -4.7762229e-01  -7.8478614e-01   3.1288432e-01  -7.7878964e-01   9.6541348e-01  -4.8418029e-01   1.8235990e-03  -6.8408151e-02   3.3130391e-01   2.0941339e-03  -5.0008712e-01  -8.4655205e-01
  -6.4038846e-01  -7.8889064e-01  -2.9938908e-01  -7.6714539e-01   2.8056575e-01  -8.2169224e-01   8.6622445e-02   9.0309952e-01   2.1754550e-01  -2.6669513e-01  -9.1315681e-01   6.6858219e-02   6.2419908e-01  -2.2746315e-01   8.3994988e-01  -6.8446414e-01   7.0020493e-01  -3.0252537e-01  -7.8600379e-01   6.1390579e-01  -5.9773997e-01   4.4628845e-01   9.6613892e-01  -8.2198664e-01  -7.0407910e-01   8.4382694e-01  -8.7513924e-01  -5.7453357e-01  -9.7379912e-01  -9.2314292e-02  -7.4615752e-01  -1.5892289e-01   2.1192205e-01   1.5072689e-01   6.0977095e-01  -1.5533282e-01  -3.8630473e-01  -7.8784250e-01  -7.0898256e-01   6.2290990e-01  -2.1810382e-01  -9.7505827e-01   7.7507698e-01   8.1161932e-01   7.0840011e-01   7.0218364e-01  -1.6505146e-01   6.0407058e-01   4.4205642e-01  -5.3150775e-01   3.5577412e-01  -3.5591667e-01   9.9465938e-01   9.9495649e-01  -6.4472812e-01  -5.7544968e-01  -2.8564395e-02   6.1280907e-01   4.3078039e-01   8.3311331e-01  -3.1252107e-01   7.3280988e-02   3.2811799e-01  -8.2613183e-01  -1.9917238e-01   1.6533594e-01   9.8482268e-01   7.5239892e-01   8.2878911e-01   1.5227327e-01  -3.9651899e-01   9.2503249e-01  -7.1069431e-01  -7.3747154e-01  -1.0895383e-01  -4.3885175e-02  -9.7260198e-01   9.9890136e-01  -8.7404368e-01  -3.7103209e-01  -4.9421775e-01   3.9926043e-01   2.6021531e-01  -2.1131274e-01  -8.0145964e-01   8.1374979e-01   3.0289823e-03  -6.5082150e-01   5.2030650e-01   4.3805009e-01  -1.2933189e-01   5.4505977e-01   6.2260598e-01   1.3665202e-01   4.8681936e-01   2.4118895e-01  -1.6542905e-01   2.1793924e-01   1.4866852e-01  -6.1503943e-01  -4.2537980e-01   2.3091549e-01  -8.7918309e-01  -2.0099364e-01  -4.7998084e-01   1.5110606e-01   7.1720808e-01  -1.0108949e-02   1.1842856e-01  -5.0072398e-01   3.0486265e-01   4.6049148e-01  -4.9746314e-01  -3.7955320e-01  -5.1187780e-01   5.3686169e-01  -7.0553721e-02   3.3266863e-01   1.3518969e-01  -9.6040607e-01   9.6094528e-01  -2.8767612e-01  -2.6573649e-02   7.9132668e-01  -3.7720242e-01   2.4807993e-01   6.8094783e-01  -3.6022433e-01  -7.2031133e-01  -7.9557008e-03   4.4781379e-01   1.6115804e-02  -4.5971344e-01   5.4820181e-01  -5.4626533e-01   6.4912199e-01  -8.2202379e-01   8.2592616e-01  -6.7842742e-01  -7.8149404e-01   2.2468942e-01   5.4292256e-02  -5.2623345e-01  -8.2177509e-01  -4.8482878e-01  -6.0939860e-01  -2.2280241e-01   2.5012480e-01   7.0656327e-01  -7.8794462e-01  -7.2890294e-01   9.1948684e-01  -4.9350439e-01  -6.9959439e-01  -3.2218162e-02  -1.0953669e-01  -1.7352600e-01   1.2846031e-01   3.0948191e-01   4.9388883e-01  -9.3951436e-01   3.3630270e-01   9.4817967e-01  -2.2267655e-01   1.6405298e-01  -4.8335561e-01   3.8543335e-01  -2.8836547e-01   9.8142641e-01   3.6309412e-01   6.6565151e-01   3.7109906e-01  -8.1895354e-01  -7.5966143e-01   8.9870255e-01  -7.1707573e-01  -4.9971184e-01   7.2448282e-01  -9.5758522e-03  -5.7601012e-01  -1.2919015e-01  -6.4166860e-01  -3.9702496e-01   3.3976852e-01   8.3970633e-01  -6.9143765e-01  -3.3261610e-01   4.6485441e-01   3.4448673e-01  -4.6861386e-01  -8.4504540e-01   2.3948032e-01   7.3272389e-02  -2.8504996e-01  -8.8864584e-01  -8.5002345e-01  -1.5509483e-01   6.4113103e-01  -8.1061252e-01  -6.7323195e-01   8.7155091e-02  -1.4565241e-01   3.0197424e-03   3.7092457e-01   1.3158753e-01  -3.5126221e-01   4.4596875e-01   5.8971016e-03   3.6906779e-01  -4.7704521e-01  -5.8540992e-01   4.0712645e-03  -6.6660563e-01   5.2248077e-01   4.6289163e-01   9.4419660e-02   6.3540929e-01   1.1489727e-02  -7.8354636e-01  -9.8313344e-01  -4.8649656e-01   1.3738690e-01  -8.7529682e-01   9.8762729e-01  -5.9759767e-01  -5.6589246e-01  -4.4450499e-01   8.2482726e-01  -1.8507470e-01  -9.1630011e-01  -1.0116572e-01  -6.4949360e-01   6.7910846e-01  -4.0835039e-02  -8.1604229e-01  -2.6936022e-01  -4.7552635e-01   4.9201420e-01  -7.8651938e-01  -6.3256928e-01   6.7807610e-01  -7.2325886e-02  -7.8522685e-01  -9.8983050e-01   1.8775572e-01   6.6111154e-01  -6.3798338e-01  -3.9294165e-01  -5.1480266e-01   5.9615155e-01  -9.0494785e-01  -4.4242475e-01   2.3670994e-01   1.4472665e-01  -7.0359430e-01   5.2179297e-01   8.2382466e-01  -5.3468770e-01   3.7085494e-01   7.9508337e-01   2.7872043e-01   9.7100458e-01  -2.8416950e-02   8.5662748e-01   2.8442892e-01  -9.9358202e-01   6.4746806e-02   3.1722936e-02  -9.7599094e-01   6.8494642e-01   2.0151397e-01  -5.4703096e-01   1.4714433e-01  -6.4471945e-01   8.4523202e-02   4.0393942e-01  -8.0206781e-01  -1.1355493e-01   5.1221435e-01   4.9467481e-01  -4.8208145e-01   3.5116083e-01  -8.6403206e-01   9.6723240e-01  -8.2583120e-01   7.7806951e-01   1.6553261e-02  -5.1251508e-01   5.6359337e-01  -4.6686293e-01  -3.4213603e-01  -1.2342564e-01  -8.6876753e-02   3.4578792e-01  -7.3118954e-02   2.0450124e-01   6.3873980e-01   8.9471135e-01  -4.7077760e-01  -3.1503701e-01  -8.2704302e-01  -2.8005862e-01   5.8579696e-01  -4.5392323e-01   1.2842359e-01   9.3242146e-01   8.8420041e-01  -9.6495730e-01  -3.8377674e-01  -7.5696103e-01   8.8165985e-02   1.9061061e-01  -9.3543542e-02   5.7505421e-01  -1.2894770e-01   9.7066492e-01  -9.3679265e-01   6.9663084e-01   7.6919425e-01  -7.1650409e-01   9.5509753e-01   8.4400328e-01  -4.4768718e-01  -8.8604467e-01   9.2793639e-01   5.9977887e-01   1.5432464e-02   1.5089229e-01   7.6541529e-01  -2.3185402e-01   4.0371383e-01  -7.3180290e-01  -1.5256557e-01  -5.4931988e-01   3.9172458e-01  -8.6080707e-01   5.4417155e-01  -3.4919568e-01  -3.0081907e-01   4.3062338e-01   7.0471897e-01   6.5307354e-01  -5.6910186e-01   2.7428654e-01   2.8896604e-01  -6.5034143e-01   9.4697376e-01   6.6625040e-01   9.7608255e-01   6.0425852e-01  -5.8301557e-01   6.8854840e-01   7.7957954e-01   1.5431464e-01   5.9021653e-01   5.9390903e-01  -2.9256004e-01  -1.9928198e-01  -9.7378976e-01   1.2010058e-01  -2.3829518e-02   5.5480523e-01  -2.3976910e-01  -5.3310723e-01  -1.0268383e-01   9.8575041e-01   3.0333514e-01  -2.5928599e-01  -5.8864856e-01   8.9738675e-01   9.3927771e-01  -8.3642523e-01   9.5546112e-01  -2.1191988e-01   9.2470040e-01  -6.1225884e-01   2.7435035e-01  -2.9006014e-01  -1.6957841e-01   5.6484848e-01  -2.7409274e-01   9.0740337e-01   7.6350167e-02   1.7570481e-01   2.1128029e-01  -2.8640357e-01  -9.5508376e-02   6.1348245e-01  -8.4733691e-01  -6.0063855e-01   1.2153017e-01  -2.1597539e-02   1.8797484e-02  -3.5287739e-01  -3.6841286e-01   3.8474824e-01  -9.0861832e-01  -7.3108853e-01  -4.5348240e-01   1.7968551e-01   5.5229897e-01   5.5924246e-01  -9.8293718e-01   1.0398951e-02   7.4340116e-01  -4.2398948e-01   2.5335269e-01  -4.4533115e-01   8.2048707e-01   6.2224866e-01   8.9964929e-01   8.4219051e-01  -7.3956926e-02   1.5062628e-01   3.1983128e-01   9.6122537e-01   7.9818968e-01   6.1398033e-01   5.5915805e-01   1.0401683e-01   6.5934198e-01   2.0143122e-01  -4.0878968e-01  -1.2250171e-01  -3.0591017e-01   3.6793759e-01   3.1182629e-01   7.5427877e-01  -9.4038500e-01  -7.4965541e-01  -1.3413740e-01   6.2514716e-01   3.4775731e-01   6.2973353e-01   2.8842759e-01   4.2393212e-01  -7.0389447e-01  -2.5160303e-01  -6.7474011e-01  -1.3170330e-01  -1.8089411e-01  -2.2036047e-01  -5.2169640e-01   1.6900275e-01   8.1775689e-01   5.5694038e-01  -7.5503633e-01  -6.8711301e-01   9.3556501e-01  -4.2369368e-01  -4.5845314e-01  -7.4566668e-01  -5.9432642e-01   9.5664474e-01  -8.4764238e-01  -6.2780801e-01  -8.7059143e-01  -5.7618519e-01  -8.6979223e-02  -1.4734940e-01   1.3798911e-01   2.3356531e-01  -5.2931917e-01  -8.0399226e-01  -1.6242751e-02  -8.9621195e-01  -9.8953000e-01   1.6959818e-01  -3.9354735e-02  -2.6719296e-02   1.4255511e-01   8.8274917e-01  -6.5835236e-01   2.9302997e-01   5.4693147e-01  -4.0646760e-01  -7.3002116e-01   2.4303036e-01  -6.1878198e-01   4.4196470e-02   7.9819215e-01  -7.9321036e-02  -7.1389881e-01  -9.1262878e-01  -7.3516033e-01   7.9460115e-01   3.6648783e-01  -2.8446927e-01   6.8584664e-01   5.6513533e-01   4.1485814e-02   7.2973064e-01  -6.9176433e-01   7.3094586e-01   5.9806654e-01   6.2254565e-01   3.0515471e-01   3.9107967e-01  -3.3251878e-01  -9.3821591e-01   2.4205596e-01  -9.7134468e-01  -3.5833390e-01  -1.4448057e-01  -6.1768288e-01  -2.3452496e-01   4.6784556e-02   9.0169932e-01  -4.0053144e-01   6.4741785e-02  -2.8673345e-01   3.1916423e-01  -3.4694631e-02  -2.0612190e-01   3.3267859e-03  -7.4647288e-01  -3.8934443e-01   9.7679881e-02   3.0197546e-01  -3.4537191e-01  -7.8096564e-01   4.1473912e-01   3.8776629e-01  -7.7876376e-01   6.8537497e-01  -5.8643990e-02  -3.0406223e-01   2.8523575e-01  -7.4956768e-01  -6.2763348e-02  -4.3967736e-01  -9.9415927e-01   8.7017136e-02   4.1558903e-01  -4.0803515e-01  -3.2666419e-01  -5.8893369e-01  -3.2436536e-02   6.1229272e-01  -1.5524796e-01  -2.5875920e-01   9.3778322e-01   6.4381806e-01  -5.9146564e-01  -8.4660025e-01  -2.6338272e-01  -7.5780016e-01   9.8976780e-01   4.3349185e-01   9.0658043e-01   8.7380962e-01   3.2281816e-01  -4.6912085e-01   2.7015471e-01  -4.6323729e-01   6.9140294e-01   8.4825219e-01  -2.2609734e-01  -4.2171067e-01   6.7194104e-01   1.5302901e-01  -9.6068348e-01   1.2738939e-01  -4.0595946e-01  -5.0996583e-01   9.8961894e-01   8.6188679e-01  -7.5983643e-01  -7.0143799e-01   1.8744925e-01   2.0961171e-01  -4.4253614e-01   6.0822416e-01   5.2635374e-02   2.2983654e-01  -8.7416632e-01  -2.8215466e-02  -1.3676260e-01   7.5771361e-01  -8.9663916e-01  -7.1174260e-01  -3.9632901e-01  -2.1060453e-02  -1.4819068e-01  -6.4582702e-01  -7.3794932e-01   4.0006151e-01   1.9980834e-01  -6.6265292e-01   6.3589039e-01   4.5491181e-01   6.1790842e-01  -2.8790594e-01  -1.6029503e-01   9.1573580e-01  -7.0028430e-01   7.1071099e-01  -6.2106554e-01   4.1657040e-01  -4.0614997e-01   5.6326102e-01   6.9550539e-01  -3.6749793e-01  -9.5638504e-01   2.6857016e-01  -9.8525818e-01  -9.8324803e-01   6.0071882e-01  -5.8914198e-01   4.9959275e-01   4.2056589e-01  -5.3928263e-01  -1.3706799e-01   6.9907056e-01   1.4042411e-01  -7.0443282e-02   6.1546484e-02   4.5804458e-01  -7.3776057e-01   5.2541681e-01   5.9788927e-01   2.9579658e-01   9.9292749e-02  -9.5597962e-01  -9.0206610e-01   9.7275653e-02  -8.4811082e-01   6.7388660e-01   8.1426060e-01  -9.1937367e-01  -2.4423366e-01   2.3621896e-01   8.5813851e-01  -8.8629566e-01   4.1616824e-01  -8.2525227e-01  -1.7678300e-01   5.6324349e-01  -3.4220017e-01  -3.1012096e-01  -9.3830026e-01  -2.6721783e-01   5.4359312e-01  -7.1733259e-01   5.9943488e-01  -5.2282066e-01   4.3499775e-01  -9.9584103e-01   2.6510447e-01  -9.5117012e-01  -7.1153289e-02  -2.3035821e-01  -6.7663463e-01   1.2675525e-01   8.1101659e-01   9.4419894e-01   8.3714264e-01   5.3262099e-01  -3.5473812e-02   9.0668586e-01   7.7926959e-01   1.8859192e-01   2.3187780e-01  -2.8637960e-01   8.0412532e-01  -7.0929958e-01   8.6521158e-01  -7.4326613e-01  -1.5221106e-01   3.9670413e-01  -3.7570915e-01   4.1880129e-02  -5.5909420e-01  -8.5163191e-01   6.2959021e-01   3.7666402e-01   7.7789903e-01   1.8574629e-01   6.5756787e-01  -1.1359755e-01   6.8336732e-01  -3.7284414e-01  -8.5395178e-01  -6.7615503e-01   6.6102098e-01  -6.2201770e-01   7.9063971e-01  -6.4341128e-01   7.3418999e-01   7.2684199e-01   3.8828409e-01   8.9366949e-01  -3.3440365e-01  -8.4197565e-01   7.2377420e-01  -9.9349015e-01   9.6115710e-01   5.6174788e-01   7.7300753e-01  -7.3026528e-01   5.3800823e-01  -3.6634422e-01   4.1642798e-01   5.6537862e-01  -4.8990177e-01   2.6732142e-01  -8.7836031e-01  -5.2416403e-02   4.8823981e-02   9.4677934e-01   4.5517108e-01  -5.4520165e-01   2.8816896e-01   7.6000385e-01   5.8423949e-02  -3.2932173e-01  -1.7856441e-01  -9.2372494e-01  -4.9976889e-01  -7.5927397e-01  -7.7137985e-03   6.5850331e-01   5.3443511e-01  -8.5010730e-01  -4.2949678e-01   1.5404284e-01   4.8137051e-02   6.5496584e-01  -5.7685593e-01   4.0809129e-01   8.4387990e-02  -9.9592921e-02   9.3910390e-01   9.6613745e-01  -8.3784657e-01   5.4773588e-01  -5.0923707e-01   2.7400680e-01   1.0143009e-01  -6.5554242e-01   1.3082773e-01   9.9071065e-01   7.3508976e-01   2.9538451e-01  -2.4561194e-01  -2.7065142e-01   8.9107402e-01   7.9737225e-01   5.7753908e-01   4.2258023e-01  -7.7313169e-01   5.4008487e-01   9.9919085e-01   9.6346060e-01  -1.6862146e-01  -7.8414752e-01   9.8695076e-01  -5.0625778e-01  -1.4106589e-02   9.6342158e-01   7.1141220e-01   7.9648296e-01  -9.7487038e-01  -7.0985670e-01   2.3249151e-01  -5.0015883e-01  -7.0453987e-01  -3.7034579e-01   2.5406607e-01  -4.6667670e-01   9.8181989e-01   2.8179144e-01   5.5303006e-01   9.5086412e-01  -5.1448132e-01   4.2686238e-01   3.7001378e-01  -1.8768229e-01   9.1905433e-01   5.1285725e-01  -6.6443208e-01  -4.1644561e-01   7.5326748e-01  -8.3599444e-01  -9.8702409e-01   8.4633901e-01   7.3613870e-01   9.3550045e-02  -3.0320076e-02   5.7491484e-01   3.6670694e-01   9.9437198e-01  -5.4489546e-01  -5.0004027e-01  -9.3888571e-01   7.9261778e-01   6.3417309e-01   7.3306103e-01   5.2520055e-01  -2.3132773e-01  -6.1779703e-02  -7.1603786e-01  -1.3934778e-01   1.7532158e-01   5.5464921e-02  -9.8390290e-02  -7.7696902e-01  -3.5414548e-01  -1.0824330e-01  -8.8775766e-02   3.2299129e-01   1.7857139e-01   7.4878868e-02  -7.7983242e-01  -1.7696837e-01  -8.9884332e-01  -3.6666207e-01  -4.3485746e-01  -8.0603673e-01   4.3219352e-01  -4.3451456e-01   1.3756281e-01   7.9442631e-01  -1.3139869e-01  -1.0685926e-01   6.8117235e-02   2.7397686e-01   8.5530453e-01   5.8456815e-01   4.3435152e-01   8.4118514e-01  -6.5438657e-01  -8.9350147e-01  -4.4739500e-01  -2.6339327e-01   9.7688186e-01   9.9629623e-01   2.0858758e-02   7.8716154e-01   5.6310958e-02   2.5195032e-01  -3.6657792e-01  -1.6463990e-01   7.1390888e-01  -2.9526111e-02   6.7000045e-01   4.8463180e-01  -4.6459323e-01  -5.3288234e-01  -1.9569469e-01  -8.0427216e-02  -1.9054399e-01  -6.5748616e-01  -6.7190494e-01  -5.8962879e-01  -7.8307292e-01  -7.1272990e-01   5.7411058e-01   5.8810396e-01   6.1195969e-01  -8.7206593e-01   2.6317396e-01  -8.0748644e-01  -7.2531502e-01  -3.9003034e-01  -7.7968403e-01   8.3965548e-01   5.7160269e-01   7.4374103e-01   5.5296385e-01  -3.4569309e-01  -7.0121591e-01   4.3516343e-01  -5.4538944e-01  -7.8991134e-01  -7.1209360e-01  -6.6633548e-01  -2.5904327e-01  -3.4516175e-01   3.5212428e-01   1.2676815e-01  -8.4205723e-01   7.0112975e-01  -3.6444312e-02  -3.2439862e-01  -1.1504441e-01  -6.2197367e-01   6.9996797e-01  -5.2403654e-01  -9.4820738e-01  -7.9144759e-01  -9.1856841e-01  -6.5759494e-01  -2.0555855e-01  -2.2288192e-01  -4.8955697e-01  -7.8599193e-01   5.1747508e-01   7.4517009e-01  -9.9936479e-01   4.7545973e-01   6.4533099e-01  -5.4654511e-01  -8.7769249e-01   4.4160176e-01  -3.2372332e-03  -2.3782124e-01   2.9807394e-01  -1.8019626e-01  -5.9916698e-01   7.8127237e-01   9.5291003e-01  -6.7568697e-01  -7.9381015e-01   1.1056906e-02  -7.6149047e-01  -9.9273663e-01  -8.3405114e-01  -4.1011073e-01  -3.0663644e-01   3.8043599e-01   9.8663257e-01  -9.8565217e-01   7.4988511e-01   1.2284321e-01  -1.2547784e-01  -1.1659444e-01   3.9395453e-01   3.0889896e-01  -2.2216140e-01   1.0328453e-01   2.3129779e-01  -6.5316480e-01   2.2027942e-01   2.6789355e-01   4.8516242e-01  -1.0062495e-01   9.7263172e-01  -5.9626940e-01   7.6340751e-02   8.0743190e-02   6.2260228e-01  -6.3860110e-01   1.2913351e-01   8.3543647e-01  -6.1448708e-01   8.6591278e-01  -4.4468560e-01   4.4863662e-01   2.0120365e-01  -1.9309704e-01   2.8289247e-01  -4.0330316e-01   7.5913995e-01   4.9455079e-01  -1.4036551e-02   4.2625393e-01  -8.7124265e-01  -7.9601548e-01  -8.2835899e-01   5.3900372e-02   4.7275265e-01   7.5344595e-02   5.9752838e-01   6.2424677e-01   1.7403136e-01  -4.6907631e-01   3.9580459e-01   8.3958340e-02   5.4237370e-01  -5.0667618e-01  -7.2495970e-01   4.0291312e-01  -1.6197411e-02   8.2484387e-01   7.2616682e-02  -2.3358096e-01  -6.2789163e-02  -9.6842850e-02  -8.9935654e-01  -5.3791895e-01   1.0753768e-01   5.6692408e-01  -3.8551340e-01   4.1097691e-01   1.7348259e-01   7.7371737e-02  -8.8997533e-01   8.8486191e-01  -4.9205723e-01   6.0846642e-01   9.7625834e-02   5.6139052e-01  -9.6639501e-01  -2.5797776e-02  -3.3098330e-01   1.0287069e-01   1.9126272e-01  -7.7414579e-01   1.8499614e-01
  -2.3436444e-01   9.6126986e-01  -3.9292520e-01   8.5055403e-01  -3.8911710e-01   1.2049685e-01  -6.4838499e-01   3.5984677e-01  -9.9010757e-01   9.9862053e-01  -9.9275781e-01  -5.8056535e-02   4.3131779e-01  -2.6362954e-01  -4.4183260e-01  -4.3646133e-02  -2.2741745e-02   3.3039936e-01   8.7508122e-01  -7.0153671e-01  -7.3130969e-01   9.7928970e-02   3.0621340e-01  -5.5145137e-01  -1.5840623e-01  -4.1798343e-01  -7.1370844e-02   4.0678767e-01   3.0948667e-01  -9.1986079e-01   5.4903647e-01   2.3343686e-01  -4.1572233e-01   1.3554473e-01   7.6677585e-01  -6.8320909e-01   7.4879860e-01  -7.9723814e-01  -1.2523616e-01  -9.5770640e-01   3.2748372e-01  -5.9867136e-01  -1.4347061e-01   8.1611769e-01  -7.4431442e-01  -6.6154122e-01   9.3606795e-01   1.4705590e-01  -1.8657586e-01  -1.5673731e-01   4.8464777e-01   2.8336590e-01  -8.2294529e-01   4.3706237e-01  -3.0592491e-01  -7.2723067e-01  -8.6280927e-01   8.7800071e-01  -4.4517418e-01  -7.6648747e-01   6.4241867e-01  -6.0738565e-01  -6.8988244e-01   4.3077114e-01  -4.4821226e-01   4.6156260e-01   3.4516065e-01   2.6973413e-01  -4.0510715e-01   5.5670159e-01   1.0739836e-01   4.3138623e-01   7.2511614e-01  -8.4323608e-01  -3.2637228e-01   5.4707074e-01   7.3852614e-01   3.1694735e-01  -9.7277094e-01   4.7954878e-01   7.1612591e-01  -7.7692355e-01  -7.1787413e-01  -6.9800589e-01   1.8524895e-01   8.7096177e-01  -8.4312850e-01  -2.6249643e-01   2.4138934e-01   4.4696302e-01  -9.9715996e-01  -4.3866258e-01   8.9411855e-01   8.5634934e-01  -9.3112913e-01  -8.7568860e-02   1.5119814e-01   9.5409174e-01  -5.6875668e-01   4.5444414e-01   1.6362151e-02   2.3906702e-01  -7.0530557e-01   7.0984928e-01  -9.1663558e-01  -9.8885672e-01   4.4715768e-01  -9.0687497e-02  -9.1330837e-01  -4.6796675e-01  -5.4625007e-01   2.5220229e-01   4.0771288e-02   8.2638527e-01   2.7204640e-02  -5.4134934e-01   2.5130915e-01  -1.9195099e-01   9.9027913e-01  -5.2894553e-01   8.9431991e-01  -4.3773304e-01   5.0538463e-01  -6.1133220e-01  -9.2368121e-02   5.1299641e-01  -9.1203747e-01  -9.3216289e-01  -5.8897160e-01  -7.2312449e-01   2.0040069e-01  -5.5925351e-01  -8.2439331e-01   7.0291556e-02  -4.5030713e-01   7.3069281e-01  -3.0207199e-01  -5.7026141e-01   7.0853059e-01   2.7805165e-01  -1.5024787e-01  -3.2582001e-01  -5.0629005e-02   7.4217186e-01   2.1732271e-01   4.9481693e-01   4.8533092e-01  -3.9505233e-01   9.8249980e-01  -2.7323274e-01   6.7096102e-01  -9.0188045e-01   4.9016561e-01  -9.1711865e-01   5.9840534e-01   2.2520478e-01   1.7078313e-01   5.5450409e-01  -4.8825898e-01  -2.8960170e-02  -5.9601958e-01   4.5569460e-01  -9.3789791e-01  -4.7568073e-01  -9.8522423e-01  -7.2590435e-02  -6.1960225e-01   9.4723074e-01  -9.8405003e-02  -8.9274085e-01  -8.2250869e-01  -5.1592522e-01   2.9617338e-01   7.4313621e-01   4.5998557e-01  -5.9563120e-01  -3.7298384e-01   8.4326492e-01  -1.7057867e-01  -7.3035909e-01   5.1385818e-01   3.7661611e-01  -8.8148800e-01   3.0494939e-01  -7.9369214e-01   6.5119304e-01  -4.7352384e-01  -4.2458541e-01  -2.4093078e-01   4.8508642e-01  -9.6021814e-01   8.7497014e-01  -8.2282116e-01  -9.9053477e-01   4.0075295e-01  -5.7195748e-01  -3.3187898e-01   4.7706225e-01  -7.9346379e-01  -5.0708732e-01  -2.5904798e-01   1.2497265e-02  -9.3024492e-01   6.9772092e-01  -2.2267374e-02  -5.5927340e-01   1.8048113e-01   8.6363187e-01   3.0783294e-01   4.9900005e-01  -8.8213765e-01  -3.8857772e-01  -5.1402779e-02   3.1213681e-01   9.1620917e-01   4.9548590e-01  -6.4531432e-01   3.3140164e-01  -9.3459227e-01  -7.5071477e-01   1.3100815e-01   3.3060642e-01   3.1867656e-01   9.0726037e-02   5.1168702e-01  -1.1744291e-01   5.2777844e-02  -4.5775645e-01   8.7672774e-01  -2.3844193e-01  -9.3378367e-01   6.2168312e-01   1.7134913e-01  -2.5186221e-01   7.1961786e-02  -9.2137258e-01  -6.5333080e-01  -8.8800661e-02   2.9959797e-01  -7.0758875e-01   6.8234533e-01  -7.6602896e-02  -6.1351213e-01   8.1245258e-01  -9.9563788e-01  -4.7793635e-01   7.8048576e-01   3.8544751e-01  -5.2028301e-01  -4.3010406e-01   8.9587229e-01   9.4294150e-01   5.4026884e-01   6.2974949e-02  -1.3403386e-01  -2.9036300e-01  -4.0228403e-01   5.9149896e-01   1.4832209e-01  -3.9517978e-01  -3.9084759e-01   6.7860035e-01  -6.9539250e-01   9.5173414e-02   7.5099857e-01  -9.4713813e-01  -1.4783683e-01   3.9293755e-01   7.8472492e-01  -8.8597339e-01  -3.3991988e-01  -5.1772064e-01   2.3672669e-01  -8.9061691e-01   3.0320739e-01  -7.4995827e-01   3.6788707e-01   7.1127966e-01   1.8191183e-01  -9.2095939e-01  -9.6698628e-01  -6.7605658e-01   3.3955368e-01   9.8790618e-01  -1.3201239e-01   4.9710317e-01   8.6827469e-01  -8.7238516e-02  -8.3311429e-02   5.3946298e-01   1.5419988e-01  -9.8871162e-01  -4.4950658e-02   3.4310553e-01   2.2893243e-01   7.7871272e-01   6.3108247e-01   6.2923141e-01  -7.2530221e-01  -5.9057167e-01  -9.5107151e-01   7.5931109e-01  -5.8738953e-01  -3.7219058e-01   5.4219172e-01  -1.0465253e-01  -8.0558927e-01  -9.5300361e-02  -8.2839116e-01   1.1726930e-01   2.0290942e-01   9.9692731e-01  -9.5954459e-01   9.1339069e-01   7.4645955e-01  -6.4285217e-02  -6.5520420e-01  -1.1506666e-01   9.9448286e-01   1.0363518e-01   6.2191934e-01   6.3818597e-01   1.7571490e-01   7.2015154e-01   2.7014314e-01   1.6555731e-01   2.9412882e-01  -8.3055425e-01  -3.0666319e-01  -2.8204273e-01  -9.2428904e-01  -1.3217197e-02  -1.9940323e-01  -6.7393825e-01   4.3745680e-01   4.5437621e-01   7.1492981e-01  -7.1770146e-01   5.5098827e-01  -9.2747541e-01  -6.7438710e-01   3.7307447e-01  -9.3844332e-01   7.4548068e-01  -4.4712801e-01   7.1780245e-01   8.7978831e-01  -1.9553723e-01  -8.8208053e-01   8.1332713e-01  -5.7969746e-01  -2.3133936e-01   9.4839986e-01  -7.6373268e-01  -5.8669015e-01  -4.4885958e-01  -3.3824710e-01  -5.9972674e-01  -8.1245695e-01  -2.7447400e-01   4.2713912e-01  -6.2751063e-01  -8.8145784e-03  -2.5275165e-01  -2.9775434e-02   6.5967346e-01  -1.6922919e-01  -8.4599667e-01   9.8399470e-01   4.9594850e-02   9.9833903e-01   4.9839681e-02   6.5418943e-01   4.0123676e-01  -4.9774108e-01   5.6259970e-02   8.2428606e-01   8.1284486e-01   4.7898262e-01   8.5625921e-01  -1.9390135e-01   7.9109987e-01   8.1444058e-01   1.3178629e-01   3.2868494e-02  -3.9389595e-01  -3.2256484e-01   2.0969567e-01  -4.8863467e-01  -7.4095993e-01  -4.5565535e-01  -9.8771981e-01   2.4934289e-01  -8.9357915e-01  -1.2679035e-01   2.3356499e-01   1.5779837e-01  -4.0640269e-01   4.1984259e-01  -7.7805013e-02   7.5218283e-01   3.0166222e-01   1.7883841e-02  -4.8488871e-01   5.3625055e-01  -9.8733603e-01  -4.1469904e-01   6.3581363e-01   6.0012934e-02   1.7244457e-01   1.5997096e-01   3.8065803e-01  -2.1952043e-01   7.0574996e-01  -1.7685275e-02   5.8722987e-01   4.4926026e-01   3.3169668e-01  -9.4656349e-01  -7.7022478e-01   8.2469246e-01   9.2820820e-01  -4.1034482e-01  -7.9904248e-01  -2.5414111e-01   1.1563391e-01  -3.4072199e-01  -6.2206085e-01   4.2473234e-01  -2.7261349e-01  -9.7975155e-01  -3.3181455e-01   4.2357295e-01  -4.4658099e-01  -1.8845587e-01  -7.4150567e-01  -1.0437542e-01  -6.9270163e-01  -3.2529391e-03  -8.3415452e-01  -3.2051395e-01   9.5371611e-01   8.0130753e-02  -7.5554521e-01  -8.7796350e-01  -8.7873498e-02  -9.7651636e-01   2.1202491e-01   4.0176767e-01  -4.1689668e-01   2.1824052e-01  -1.9028693e-01   6.6399144e-01   8.0156486e-01  -8.2650273e-02   1.5238139e-01  -9.6985616e-01  -9.0252280e-01  -5.8625254e-01   8.4117470e-01   2.1005069e-01   7.1752914e-01   5.9952456e-01  -2.4946891e-01   9.3290661e-01   7.8388254e-01  -6.6924948e-01   2.9041376e-01   5.9977026e-02   1.6037094e-01  -8.4803372e-01  -4.7344440e-01  -4.4814826e-02   7.4018571e-01  -4.0146826e-01  -3.7695960e-02  -2.4078824e-01  -2.9659921e-01  -4.9790163e-01  -1.4056421e-01   9.7128726e-01   7.7635073e-01   7.2941104e-01   9.6196512e-01  -3.3593116e-01  -3.8964075e-01   8.2989160e-01  -9.0124498e-01  -6.8060233e-01  -7.4477507e-01  -6.0652646e-01   3.7337464e-01  -5.5985078e-01  -2.1227037e-01   1.0696395e-01  -2.3498487e-01  -5.1950594e-01   8.8802636e-01   2.8849516e-01   5.4553455e-01  -7.1874899e-01   9.4277242e-01  -1.8883707e-01  -6.8845655e-02  -1.7308347e-01  -9.0915306e-01   9.3534529e-01  -8.2151851e-01   1.9913665e-01  -1.7597669e-01  -3.4700132e-01   2.5183534e-01  -9.3774138e-01   4.3499796e-01   1.2818489e-01  -3.0209616e-01  -2.5597712e-01  -2.0610927e-01  -3.1664502e-01  -9.1350687e-01  -5.9798409e-01  -8.8312923e-01   6.4972934e-01   5.8671597e-01  -1.7623256e-01   2.3774197e-02  -9.4507524e-01  -6.4003759e-01  -3.1325271e-01  -6.8126403e-01   5.7881984e-01   6.1660282e-01   6.5009062e-01  -8.8525776e-01   4.4707290e-01  -5.7982700e-01   1.4856528e-01   7.4992490e-01   2.6312911e-01   8.0299662e-01   4.7784993e-01   5.0729835e-03   6.1697396e-01   5.0958959e-01   4.6574442e-01  -1.4221541e-01   2.3757357e-03  -8.4199895e-01  -4.7755524e-01  -9.2297482e-01   3.7466857e-02   1.5619590e-01  -1.4168590e-01   8.3192294e-01  -1.1619644e-01  -2.6008228e-01  -4.9933884e-01  -1.5702289e-01  -6.2256377e-01  -5.5049342e-01   9.1910808e-03   5.8667330e-01  -9.5068841e-01   4.9267684e-01   2.3530225e-02  -1.6360233e-01   4.4469861e-02   3.5585156e-01   6.3720857e-01   7.3353252e-01   1.2695771e-01   9.8748416e-01  -8.2277078e-03  -9.9649472e-01   6.5299260e-01  -3.4857270e-01  -7.5744737e-01   9.3629308e-01   8.5665171e-01   9.2113950e-01   3.4796509e-01   3.1992805e-01   6.1806947e-01   8.7103275e-01   7.7146991e-01  -5.2765729e-01   1.0959512e-01   4.6240222e-01  -7.7898357e-01  -1.2600916e-01  -6.3959694e-01  -5.5473127e-01  -1.3022756e-01   7.5154313e-01   4.7513684e-01  -1.2041413e-01  -7.2799861e-01  -8.8218272e-01   5.8933543e-01   1.9510023e-01  -8.2503227e-01  -9.0543688e-01   6.4449445e-01   4.7535294e-01  -7.6181065e-01  -9.3674634e-01   4.8684564e-02   5.5020411e-02  -8.1462899e-01   8.9208528e-01  -1.5591079e-01   4.7210044e-01  -4.1433548e-01  -6.4631569e-01  -4.1847280e-01  -5.2499527e-01   2.9692847e-01  -1.5573194e-01   3.5233364e-01   6.0359003e-01   1.4299249e-01   4.4255302e-01   2.1081232e-01  -9.3597211e-01   6.5483987e-01  -8.0943092e-01  -6.3350476e-01   9.5823543e-03  -5.5226348e-01   4.9975286e-01   3.5749515e-01  -9.3362379e-01   2.1444039e-01   5.6257641e-01  -8.2199362e-01  -4.9809452e-01  -9.0788185e-01   1.7973575e-01  -5.0107154e-01   3.2212843e-02  -7.3152526e-01  -5.6412725e-01   4.3240378e-01   6.5855356e-01   4.6726854e-01   3.2188129e-01   9.6421686e-02  -4.8439196e-02  -9.1720594e-01   7.1514895e-01  -6.2755011e-01  -9.6515083e-01  -1.7854340e-03  -7.9379584e-01   9.9580881e-01   1.4808305e-01   1.0882749e-01   4.6673977e-01  -6.2656898e-01  -2.2581778e-02   3.0626144e-01   8.0517922e-01  -6.7497623e-01  -4.7202985e-01   7.2981810e-01   1.8259845e-03   4.5900144e-01  -5.5352749e-01  -4.3266075e-01  -5.3966865e-01   1.2301261e-01   8.6461675e-01   2.3228406e-01  -9.8893548e-01  -5.8652351e-03   8.6997899e-01  -2.8949343e-01   7.8028353e-01  -4.5792404e-02   5.9662867e-01  -6.1459248e-01   4.3520949e-01  -7.7328795e-01   4.1635769e-02  -2.1565054e-01   1.4823467e-01  -3.3935756e-01   9.1119419e-01  -2.2421864e-01   5.0330199e-01  -1.1906716e-01  -3.3766984e-01   4.9164656e-01  -7.5951852e-01   3.0987338e-01  -3.1892996e-01   1.4662464e-01   4.1901574e-01  -6.8623631e-01   3.8135153e-01   7.4320110e-01  -3.1261401e-01  -7.9304257e-02   1.1536002e-01   8.7704620e-01   5.6168418e-01  -2.2543705e-01  -6.6163597e-01  -5.7158402e-01  -6.1634447e-02  -5.9446308e-01   8.3266358e-01  -6.6023350e-02   6.7277360e-01  -6.6199527e-01   4.4940802e-01  -4.2241836e-01   2.8247113e-01  -7.9849758e-01  -5.5539668e-01   3.8545985e-01  -6.3663765e-01   7.8142176e-01   3.5688958e-01  -3.0188620e-01  -8.1100164e-01  -3.8264690e-01  -1.1959857e-01  -7.0954942e-01  -3.0416204e-03  -6.8612384e-01   3.9345240e-01  -2.9915971e-01  -9.6888357e-01  -9.8979425e-01   1.4663677e-01   2.4403095e-01   9.2064919e-01  -5.9123454e-01   3.9725113e-04   5.4478728e-01  -7.8010706e-01  -2.3975924e-01   9.3684472e-01  -1.8635966e-01  -1.8434414e-01  -5.4761465e-01   8.4593686e-01  -8.6363500e-01   4.9998027e-01  -1.0519160e-01  -9.8327665e-01   9.5248643e-01   1.8011305e-01   2.4207813e-01  -3.6836638e-01  -5.9501157e-01   8.4337675e-01  -6.5930237e-01  -9.9664627e-01   8.8345488e-01   3.6682681e-01  -4.2948261e-01   4.2470359e-01   8.1198941e-01  -9.3031950e-01   9.0168835e-01  -5.9193515e-01   6.7613821e-01   5.9319220e-01  -4.3336894e-01  -9.0662241e-01   8.5324321e-01   6.1676939e-02   2.6100886e-02  -4.5987217e-01  -5.4820835e-01  -9.1632022e-01  -9.1623414e-01   5.2119808e-01  -7.4320205e-01   4.2985514e-01   7.4040573e-01   6.5888931e-01  -4.1590963e-01   5.8540040e-01  -9.7785095e-01  -1.1014534e-01  -1.2143595e-01  -3.6972457e-01  -7.0829956e-01  -9.8558217e-01   1.1849558e-01   5.2403235e-01  -7.5594211e-01  -4.0434122e-01   8.1100426e-01  -2.0171898e-01  -4.8767953e-01   6.6014067e-01   6.1863510e-01  -7.0876410e-01  -9.9467440e-01  -4.1965044e-01  -6.4662041e-01  -8.2992606e-01   1.2361495e-01   1.3802225e-01  -6.0885174e-01   5.4139223e-01   9.0787805e-02  -6.4545399e-01   3.0379552e-01  -2.9045273e-01  -7.6937788e-01  -1.9619779e-01  -4.3984257e-02   6.0075069e-01  -7.7916174e-01  -8.0571439e-01   7.7696034e-01   8.4640816e-01   3.2376786e-01   5.7424959e-01   8.3778290e-01  -3.0590717e-01   1.5161934e-01   1.2203799e-02  -5.9976297e-01   9.2726044e-01  -3.7368728e-01  -4.7468551e-02  -7.7697026e-02   6.5962186e-01  -7.3771192e-01   5.1876665e-01   3.1678161e-01   6.9840741e-02  -6.7640204e-01   9.7290898e-01  -9.3047069e-01   8.8215192e-01   5.8196347e-01   6.4889830e-01   7.0379566e-01   4.6630881e-01   6.3501695e-01   4.1803558e-03   9.6463275e-01   6.4717846e-01   5.4834139e-01  -5.4800683e-02  -5.6329708e-01  -2.8572214e-01   5.7622215e-01   7.7023029e-01  -3.2671019e-01   8.3493366e-01  -4.6523059e-02  -9.6273149e-01   1.6272145e-01  -6.5891886e-01   4.0391168e-01   2.9922323e-01   7.7161756e-03  -8.6267605e-01   8.4128058e-01  -3.3401138e-01  -2.1572925e-01  -6.0465429e-01   6.4400859e-01  -5.2755994e-01  -5.5398892e-03   6.0012935e-01   9.3075378e-01  -7.6148771e-01   4.6057255e-03  -5.1928724e-01  -5.9357693e-01  -3.4498393e-01   6.1652847e-02   3.7886492e-01   8.6453077e-01  -1.8260804e-01  -9.6795115e-01   6.8936866e-01   2.0834623e-01   7.7456540e-01   3.5489961e-01   3.8869637e-01  -4.7796845e-01   7.2025429e-01  -7.5711774e-01  -7.7173380e-02   8.8861792e-01   7.3895064e-01  -9.8283274e-02  -5.9215079e-01  -2.2521111e-03   9.5788080e-01  -9.3417366e-01   9.7267892e-01  -9.4512533e-01   4.0944130e-01  -5.1412151e-01  -7.1640512e-01   2.9640354e-02   8.5872665e-01  -9.5393807e-01   7.5168726e-01   7.6450139e-01  -1.3651695e-01  -1.3388203e-01   2.3437770e-01   5.5530410e-01   5.4971642e-01  -9.1257290e-01  -3.3704885e-01  -6.4471878e-01  -7.5471361e-01   8.1562083e-01   3.8273086e-01  -7.0801969e-01   7.5911305e-01   8.3101147e-01   8.9130803e-01  -3.9903955e-01   2.6549494e-01   6.4601277e-02  -2.1903767e-01  -5.6115018e-01  -6.7776702e-01  -5.2996865e-01  -7.1567659e-02  -3.6878107e-01   5.8996630e-01  -1.3911401e-01   7.2821646e-01  -5.7884637e-01   1.6226579e-01  -2.5413900e-01   1.2711721e-01   3.8444872e-01  -6.8539537e-01  -8.1431225e-01   5.8739196e-01  -3.6759289e-01   7.8043165e-01   9.1053606e-01  -1.0888391e-01   4.1095126e-01   2.6133546e-01   7.9515512e-01   4.8802557e-02   5.8738916e-01  -1.2065105e-01   9.4999206e-01  -6.4228394e-01   3.0167423e-01  -3.7042910e-01  -6.3481614e-01   4.4492212e-01  -7.1205944e-01  -3.0570393e-01   8.7591302e-01   3.0413594e-01   5.0567166e-01   8.7580435e-01  -5.8323331e-01   4.7667370e-01   3.7906709e-01  -2.3976182e-01  -4.5223867e-01   5.4268444e-01  -7.6716076e-01  -2.8936475e-01  -3.3955056e-01  -9.1202798e-01   1.7832338e-01  -8.7318267e-01  -9.1817604e-01  -6.3274130e-01  -5.3451909e-01   7.0716790e-01   8.7066205e-02  -6.5872639e-01  -8.1955169e-01  -9.0867719e-01   4.2581192e-01   9.9838811e-01  -7.4448990e-01  -4.3840226e-01   6.4983426e-01   8.0743620e-01   3.5970265e-01   8.8493178e-01  -6.3052631e-01   7.6476931e-01   2.8056307e-01  -3.9547455e-02
  -4.7312166e-01   1.6042838e-01   3.5842775e-01  -6.8543389e-01  -9.1254179e-01  -9.5321165e-02   9.4130670e-01  -9.4186552e-02   9.1157544e-01   3.1047992e-01   1.1168273e-01   1.7105940e-01  -8.6370198e-01   4.0525576e-02   9.6322408e-02   8.4356327e-01   4.0385642e-01   9.0878896e-01  -6.2358482e-01   3.8732957e-01  -5.9117487e-01   8.4811495e-01  -7.2719862e-01  -7.2434978e-01   2.8495174e-01   5.7655261e-01   4.6271653e-01  -6.5664230e-01   9.6724651e-01  -1.2573982e-02  -4.4704529e-01  -9.8927779e-01   2.2752847e-01   3.1867888e-01   4.5431205e-01  -5.6649617e-01   2.4772450e-01  -6.5011214e-01   7.9511826e-01   2.2979797e-01   9.7562702e-01   1.1479993e-01   2.2363785e-01   1.6251040e-01  -8.5841815e-01   3.2661360e-01  -8.2320635e-01  -4.4696886e-01   2.6060726e-01  -1.1176610e-01  -4.7061657e-01  -3.6309768e-01  -4.4735987e-01  -4.9305070e-01  -2.8339310e-01   9.7059733e-01  -6.8397486e-01   7.5407363e-01  -6.1989487e-01   2.2043928e-01   1.9010259e-02  -9.7103902e-01   3.8665955e-01   7.2460961e-01  -3.8420363e-01  -3.4336665e-01  -7.4303361e-01   2.6497030e-01  -5.9932782e-02   2.4511794e-02   5.7071641e-01  -3.8549751e-01   6.7408969e-01  -9.4678563e-01   2.2012725e-01  -1.5433964e-01  -2.4578370e-02  -8.1226376e-01  -2.0084776e-01   7.5978920e-02  -8.0125012e-01   7.1218075e-01   7.5663048e-01  -2.0303224e-01  -6.4539063e-01   6.8742826e-01   7.1214794e-01   9.0855664e-01   9.9069147e-01  -1.9683320e-01  -1.2011787e-01  -4.2884657e-01   3.4384110e-01  -8.0412234e-02   1.8512716e-01   3.9059916e-01  -5.0166445e-01   7.9946849e-01  -3.1697251e-01   9.4716533e-02  -6.8579681e-02  -7.9469975e-01  -6.7297528e-01  -4.4879371e-01  -5.3349718e-01   3.8734798e-01   3.9444764e-01  -9.9238514e-01   2.6103939e-01  -1.7351900e-01  -4.7717356e-01  -9.5322185e-01   3.9639325e-01  -6.1136161e-01   9.4355767e-01   8.2367625e-01  -1.2284625e-01  -9.5267329e-01  -1.4111269e-01  -8.8040528e-02   9.0346257e-01  -9.7291830e-01  -5.9823841e-01  -1.4920577e-02   4.1486523e-01   1.6825547e-01   9.9901140e-01   9.6231165e-01  -7.6567282e-01   8.0377905e-01   6.4973682e-01   6.8379376e-01   6.5034727e-01  -1.1781769e-01   5.0086320e-01  -8.2502759e-01  -6.2538472e-01   5.3828236e-01  -8.2986854e-01  -9.8023923e-01  -1.6702449e-01   8.1484787e-01   9.4857147e-01  -3.7668116e-01   9.9329339e-01  -9.1275292e-01  -6.8196426e-01  -9.3292756e-01   5.2233661e-01   3.9339331e-01   2.5034960e-01   7.3447796e-01   2.0024788e-01   5.4966566e-01  -2.9186438e-01   5.6656437e-01  -2.7230497e-01  -9.0488227e-01  -4.0507069e-01   7.6737192e-01   9.0161049e-01  -9.3274554e-02  -4.2876321e-01   4.2267845e-01   3.2748580e-01  -8.1155308e-01  -6.4003218e-01  -9.3419378e-01  -1.4408440e-01   8.6635676e-01  -2.1432400e-01   5.3972281e-01   4.0321600e-01  -5.3339969e-01  -3.9854151e-01   4.7661649e-01  -4.7860019e-01  -8.2286070e-01   4.7435345e-01  -8.0527493e-01   8.8456328e-01  -4.8229706e-01  -3.3302750e-01  -4.4834406e-01  -3.6374019e-01  -8.3131464e-01  -2.6784613e-01   5.1682055e-01   8.6742057e-01   8.3587013e-01  -7.6233632e-01   9.5157752e-01   7.9955673e-01   1.1662448e-01  -9.9195742e-01   1.7168046e-01   3.5967688e-01   8.6485509e-01   3.8772644e-02  -4.4347433e-01   9.6705839e-01  -9.0909922e-01   4.6645812e-01   9.3434624e-01   5.9881814e-01   3.4413542e-01   1.3450760e-01  -8.4222447e-01   4.3312473e-01  -6.0515606e-01  -4.1135119e-01   6.1909076e-01   5.7836584e-01  -2.8942836e-01   6.6483700e-01  -3.2077174e-01  -9.2621058e-01   1.5611524e-02   1.7775983e-01   8.0377959e-02   8.6186521e-01   3.6594399e-01   6.9405411e-01   8.5922985e-01   7.1739739e-01   1.5271902e-01   9.6863954e-01   9.3043517e-02  -6.2166478e-01  -3.3027539e-02   4.5038996e-01   2.1856601e-01  -5.7094309e-01   1.0331914e-01   7.0838360e-01  -2.5048140e-01   8.1815652e-01  -7.1639555e-01   4.0230449e-01   8.7374850e-01  -7.2519298e-01  -8.6958837e-01   5.0377846e-01  -4.2427299e-01   8.4671899e-01  -1.7690014e-01  -9.9723056e-01  -1.2618770e-01   1.7653961e-01   1.8596897e-02  -5.3232648e-01  -4.8186438e-01   2.8877523e-01  -3.7466877e-01  -8.0750534e-01   7.0824219e-02  -7.8047262e-01  -4.7960578e-01   8.3574428e-01  -6.5029859e-01  -2.9723351e-01  -7.7110834e-01  -8.6979409e-01  -9.4973117e-01  -6.9524728e-01  -1.3778689e-01  -6.7660910e-01   1.3017514e-01  -5.4301439e-01   7.6608631e-01   4.1925822e-01  -3.2004609e-01  -6.4035116e-01  -1.6690399e-01   3.3229478e-01  -8.6981642e-01   3.7457357e-01  -9.4490076e-01  -5.5939909e-01   6.0035245e-01   9.1238201e-01   3.7823013e-01  -4.5943468e-01  -9.0926693e-01  -1.5666514e-01   4.0110623e-01  -9.8121955e-01  -4.6387687e-01  -5.1988069e-01   9.2135172e-01   7.1328402e-02   4.5621112e-01  -4.8756192e-01  -9.8589424e-01  -6.7058548e-02   9.5464330e-01   8.9914251e-01   8.7339065e-01  -9.7283012e-01   6.6035091e-01   6.2837564e-01  -5.8670186e-01   6.9824099e-01   7.6422184e-01   8.6473157e-01   5.9851617e-01  -4.6834488e-01  -2.9911932e-01   5.1041472e-01  -1.6218935e-01   3.7613295e-01  -3.4832349e-01  -9.4600263e-01   7.4737985e-01  -5.3390904e-01  -8.9001099e-01   8.0015058e-02   7.5166489e-01   7.7033034e-01  -4.3188565e-01   8.2034617e-01  -6.3838474e-01   8.3904581e-01  -4.5320574e-01   5.0011180e-01   3.8656538e-01  -1.3507075e-01   3.3242729e-01  -6.0880606e-01  -7.0808398e-01  -2.7024674e-01  -3.5800007e-01  -5.8604350e-01  -8.5358517e-02   3.6061374e-01  -2.1116218e-01   5.3805863e-01  -5.7912481e-01  -5.9252251e-01  -6.3605764e-01  -1.7155991e-01  -5.5914367e-01  -3.0035076e-01  -1.2846344e-01   7.1105397e-01  -5.7899755e-01  -9.8560484e-01  -8.5923681e-01  -6.0346597e-01  -4.5234902e-02   9.3245584e-01   1.9255360e-01  -9.6285692e-01  -7.6795052e-01   5.5409521e-01   4.9859423e-02  -6.1479554e-01   1.7458818e-01   5.9219020e-01   6.0401796e-01   8.7828682e-01  -2.1877868e-01  -9.8919021e-01  -3.9295344e-01   6.7770448e-01  -1.0519813e-01  -6.5336096e-01  -5.1154160e-02  -7.1019708e-01   6.0583880e-03  -7.0846107e-01  -6.7596341e-02  -5.2199321e-02   2.2121745e-02   2.2981063e-01   8.9162469e-01   1.2093182e-01   4.6630378e-01   3.3563211e-01   6.1543645e-01   5.9392734e-01   1.6079924e-03  -8.7894396e-01  -2.6717278e-01  -5.2598951e-01  -2.5747796e-01   2.1729610e-01   3.2316483e-01   1.2572066e-03   8.8350132e-01  -1.1695681e-01   5.1226949e-01  -8.4854454e-01   4.7059132e-01   2.7951718e-01   5.7904460e-01  -6.4454133e-01   3.0029454e-01   6.8302154e-01  -4.1239198e-01  -9.8681950e-01   1.2140865e-01  -6.9719086e-01   3.7467808e-01   1.6285360e-01   3.6910251e-01  -2.9707401e-01  -3.2927018e-01  -9.1389155e-01  -8.9650274e-01   8.2561857e-01  -9.1825928e-01   8.0167075e-01   5.1258140e-01   9.6388106e-01  -7.7307235e-01   3.1320398e-02   5.9640420e-01   3.6138017e-01  -1.8818461e-01  -4.2533415e-02  -1.2427516e-02  -7.1833793e-01   1.8439150e-01   9.1891552e-01  -1.9135700e-01  -8.5147314e-01  -4.8570694e-01   9.8681471e-01   6.6679592e-01  -6.2549094e-01  -2.8700604e-01   4.0687090e-01  -1.5021000e-01   1.9178773e-01  -5.8189790e-01  -6.8259257e-01   8.6393018e-01  -4.7402001e-01  -8.8900608e-01  -9.6277208e-02   5.1167669e-01   4.6366857e-01  -5.8214387e-01   1.2744847e-01  -9.3293417e-01   1.8275194e-01   7.2836955e-01   1.4344241e-01  -3.8735550e-01  -5.4020601e-01  -9.3653155e-02   2.7357350e-01  -2.1760275e-01   7.6564045e-01  -8.2006703e-01  -3.7937531e-01  -2.2126300e-01   5.1367911e-01   6.9567477e-01   4.5056239e-01  -9.8746061e-01   5.9599064e-01   8.5919273e-01   9.7440092e-01  -6.4118132e-01   1.3649153e-01  -8.3525783e-01  -5.6367087e-01   8.0046375e-02  -1.2686264e-01   1.1029474e-01   3.9584041e-01   5.2099708e-01   4.5572102e-01  -1.4260951e-01  -1.8133006e-01   3.1248703e-02  -9.3488606e-01  -1.0973050e-01  -1.5190237e-01   7.5258834e-01  -2.8802569e-01  -3.9385382e-01  -2.3359895e-02   6.0821454e-01   4.3455606e-01  -9.2153393e-01  -9.5447473e-01   1.0657701e-02  -4.8675450e-01   4.6127078e-01  -2.1844027e-01   3.9903869e-01   6.1416819e-01   3.5695318e-01   5.7612874e-01  -9.5547929e-01   6.7693385e-01  -2.5764749e-01   3.3125800e-01   8.7233584e-01   9.1219616e-01  -2.6660755e-01  -7.5897925e-01  -4.2464532e-02  -9.0469919e-01   4.0183921e-01  -6.1651755e-01   8.6901517e-01   5.6149138e-02   5.4376326e-01   4.2295826e-02   1.0634001e-01  -8.8645892e-01   6.2790584e-02  -7.9680918e-01  -2.2251474e-01  -5.8422228e-01  -4.6663357e-01   9.3558642e-01   1.9084208e-01   3.5073448e-01  -9.2771831e-01  -4.0572859e-01   3.8317751e-01   6.1531140e-01   4.0836170e-01  -3.1083214e-01   9.4320564e-01  -7.6765693e-01   5.7155690e-01   8.1903112e-01  -5.8354917e-01  -1.7090205e-01   9.0308517e-02  -4.3956208e-02  -7.3089976e-02   4.0784945e-02   9.0239503e-01  -3.8823893e-01   7.3334103e-01  -2.7616406e-01  -4.7530576e-01   9.8537621e-01   8.4209142e-01  -8.7434875e-01   4.7725647e-01   6.6112003e-02   4.2285962e-01  -1.8608418e-02   5.1455375e-01   1.1141269e-01   8.3462286e-01   8.0061708e-01   7.8496665e-01   8.2775253e-01  -2.8579380e-01   3.4967591e-01  -3.8422745e-01  -7.6847482e-01   9.6948691e-01  -5.6868293e-01  -4.8859083e-01  -2.1765485e-01   2.6929353e-01  -6.7518249e-01  -7.5298670e-01   9.6568121e-01   7.3748404e-01  -9.9582614e-01   7.5280885e-01   9.0906903e-02   7.1695960e-01  -9.1906398e-01  -6.6120319e-01   8.2665569e-01  -9.8781995e-01  -7.9526570e-01  -4.1676549e-01   5.2365202e-01  -8.4044491e-01   9.9585428e-01  -6.0188268e-01  -5.5663251e-01   7.9330810e-01  -2.3689075e-01  -6.4779227e-02  -2.0089530e-01   7.0963444e-01  -7.2768444e-02  -5.3388191e-02  -6.7772300e-02   1.3405396e-01  -3.0542049e-01  -8.0112541e-01  -6.8220084e-02  -7.5405739e-02  -6.3468363e-01  -7.2982320e-01   6.5741816e-01   7.1655394e-01   4.6819822e-01  -4.1674768e-01  -6.0413753e-01  -7.8374894e-01   5.8445082e-01   7.9607953e-01   4.0476760e-01   1.9587041e-01   9.7038476e-01   3.9857914e-01   2.1545620e-01  -2.9843743e-01  -2.8257409e-01  -6.2402123e-01  -5.2868806e-01   4.6500578e-01   6.1171404e-01  -1.3262065e-01   2.3680444e-01   7.4791606e-01   5.3798424e-01   1.8068996e-01   1.6818634e-01   7.7438497e-01  -5.8943608e-01  -1.6823543e-01   2.7988813e-01   3.7895881e-01   8.4952724e-01   6.6688194e-01   5.8513836e-01  -6.0238635e-01   9.5604501e-01   1.6593610e-01   5.3262061e-01  -1.8514750e-01  -3.0889575e-01   6.6871356e-01  -8.8413451e-01   8.6210407e-01   8.8776830e-01   8.8306192e-02  -8.6361827e-02  -2.9379644e-01   3.0826430e-01  -4.9342023e-01   5.1470721e-01  -4.9823771e-01  -1.5024255e-01  -2.6043636e-01   1.8046962e-01  -9.6124557e-01   9.6205824e-01   8.8268247e-01  -1.1122864e-01   3.9380450e-01  -5.0497881e-01   7.8310116e-01   3.7229390e-01   4.2286069e-01  -7.1620966e-01  -5.7617507e-01   2.9467551e-02  -2.4285630e-01   8.9315629e-02  -5.2915143e-01   2.0060612e-01   1.3549166e-01   4.0049458e-01   1.7881537e-01   7.4022616e-01   8.8271614e-01  -4.0531372e-01  -5.9334101e-01  -7.6900524e-01   6.4651629e-01   2.4657103e-02   4.1702973e-02   9.1534589e-01  -9.4337150e-01  -8.2867219e-04   9.3157526e-01  -4.3753648e-01  -7.2073622e-01   3.7961727e-01   3.4116783e-02  -4.5854845e-02  -8.5099952e-01   9.5921261e-01  -2.4474185e-01   9.0577492e-02   4.1028989e-01   3.4224196e-01  -2.0752080e-02   2.4779978e-01  -9.8894806e-02   1.6015226e-01   8.9601039e-01  -8.0976917e-04  -1.8354699e-01  -4.8574321e-02   1.3730784e-01  -5.7106360e-01  -7.0622033e-01   4.2324734e-01   3.2749552e-01  -3.5525684e-01   2.8545089e-01   6.9320929e-01   8.5375750e-01  -4.7257872e-01   8.3232094e-01  -9.9312405e-01  -9.9301849e-01   2.1356997e-01   2.5901356e-01  -9.3377912e-01   1.4639018e-01   1.6196986e-01   9.2532698e-01  -8.4168122e-01  -9.8843727e-01  -9.1294749e-01  -8.9306031e-02   7.1887136e-01   7.2535945e-01  -4.2365937e-01   1.0659480e-01   8.5299206e-01  -1.5278074e-01   8.6874042e-01   9.7179480e-01   2.5115978e-01  -9.6298830e-01   5.5981459e-01  -4.7846129e-01   3.4226639e-01   2.3873412e-01  -9.0610193e-01  -2.8329081e-01  -6.0191938e-01   8.7657090e-01   9.0571505e-02  -3.5863163e-01  -2.2758843e-01   8.8587640e-01   8.3183340e-01   5.7354772e-01   4.3366243e-02  -3.7810969e-01   9.6018177e-01  -3.8027607e-01   3.0201849e-01   4.7404229e-02   6.1868994e-01  -2.9867977e-01   6.1369394e-01   7.0233732e-02   5.8806027e-01   1.8794484e-01   8.4609756e-02   9.1088898e-02  -8.3888109e-01   6.0270263e-01   6.1169238e-02  -2.0704732e-02  -8.5971220e-01  -6.0276247e-01   8.3531790e-01   1.5003682e-01   4.5729473e-01   9.9676629e-01  -8.3085082e-01   8.9506452e-01   2.4729827e-01  -7.2547775e-01  -7.8883969e-01  -3.2359798e-01   4.2326805e-01  -3.8843993e-02  -2.7348300e-01   6.2511277e-03   9.1282110e-01   3.8539557e-01   6.7004091e-01  -9.1502293e-01   2.3840558e-01   8.1945765e-01   3.5687286e-01   7.2087518e-01   8.1267247e-01  -4.3484699e-01  -2.9709833e-01   9.6977101e-01   7.7147302e-02   8.8263693e-01  -7.4370936e-01  -2.2942819e-01  -3.3168554e-01  -2.9895450e-01   8.8339414e-01  -9.1900194e-01   1.5429323e-01   8.8348758e-01   4.1315397e-01  -6.0147066e-01   4.1303282e-01  -7.8387244e-01   5.8325190e-01  -5.1091932e-02   9.5556274e-01  -9.0782309e-01   8.8732171e-01  -1.0677984e-03  -5.6264759e-01  -1.8265459e-02   1.3450679e-01   4.0854235e-01   9.3144788e-01  -4.0363115e-01  -6.3129601e-01  -1.2215719e-01   2.9441195e-01  -8.0908735e-01   3.8920266e-01  -2.8974054e-01   8.4760335e-01  -1.5729326e-02   1.6359086e-01  -3.0798884e-01   4.4870299e-02   4.3988048e-01   7.0478496e-02  -4.3852039e-01  -6.3653834e-01  -6.7534497e-01   7.4632859e-01  -9.0432172e-01  -6.3449508e-01  -2.2083597e-01  -8.7550210e-02  -8.1222712e-01  -3.4845598e-01   6.5102063e-01  -1.9995498e-01   1.1857188e-01  -3.0153057e-02   1.5700906e-01   4.1449923e-01   3.3392760e-01   2.9440974e-01   9.9151332e-01  -2.0351505e-01   5.5968058e-01  -2.9539991e-01   5.9253309e-01   8.4280103e-01  -2.9112135e-01   7.3776345e-01  -9.1752585e-01   5.2705740e-01   4.9069554e-01  -4.7700114e-01  -5.5085144e-01   9.4517452e-01  -7.8256833e-01  -3.5082471e-01  -1.9004421e-01  -9.3796957e-01  -8.7308694e-01   1.3288516e-01  -2.6134369e-02  -8.2620745e-02  -1.8050530e-01  -6.2112231e-01  -8.5879428e-01  -1.2151521e-01  -2.8480890e-01  -7.0112629e-01   5.8667351e-01   6.6751473e-01  -6.1741031e-01   7.3689280e-01  -4.8303748e-01  -9.0990863e-02  -7.3411276e-01  -8.0079361e-01  -5.7314504e-01  -7.9754408e-01   7.9543636e-02   7.8539823e-01  -6.9380855e-01  -7.8996781e-01  -7.7029759e-01  -7.7883644e-01   7.7580885e-01   6.9601568e-01  -4.7865496e-03  -4.2760101e-01  -9.3090372e-01   7.5155137e-01  -9.4177865e-01  -8.1002400e-01  -8.0243512e-01   6.8128066e-01   8.2753319e-01   6.5890207e-01   5.8500840e-01  -5.3303477e-01   8.7469021e-01   8.1728691e-03   4.8487089e-01   1.3234668e-01   2.4487185e-01  -4.4096548e-01  -2.7443374e-01  -2.9438655e-01  -8.1212282e-01  -7.1925066e-01  -5.7736250e-01  -4.4417721e-01   2.7623959e-03   5.8291739e-01   2.6765859e-01   6.0968639e-01   6.8859215e-01  -3.4758802e-01   1.5749970e-02   5.7047344e-01   5.4335074e-01  -7.1412212e-01   7.1412724e-01  -5.6211071e-01  -1.1927223e-01  -9.8110105e-02  -7.6197294e-01   1.2890961e-01  -2.0045405e-01   5.9189921e-01  -4.9581429e-01  -3.1312458e-01  -8.8532213e-01   7.4244047e-01  -5.0964503e-02  -2.6615424e-01   6.4961433e-01  -4.0941390e-01   4.3443472e-01   1.1636386e-01   1.9883815e-01  -9.3989040e-01  -8.8447588e-02   7.4964681e-01   4.5643492e-01  -9.2622626e-01   9.2278359e-01   4.6267437e-01  -6.5439749e-01  -7.8922853e-01  -8.0034862e-02  -1.8246015e-01   2.9348369e-01   9.2960228e-01  -8.2443590e-01   8.8219005e-01   9.8267050e-01  -2.8232735e-01   1.0175962e-01   1.3795269e-01   2.0890361e-01  -1.2937408e-01  -1.2724195e-01  -3.0898098e-01  -4.3933520e-01   1.8786753e-02  -9.5260325e-01  -8.2948758e-01  -5.3144917e-01   3.3692981e-01  -1.8225918e-01  -6.9576748e-02   9.6196566e-01   8.7460364e-01  -3.1391527e-01  -5.8939123e-01   2.6357162e-01  -6.8337624e-01  -1.8242515e-01  -1.3703475e-01   3.2058039e-02  -4.5938612e-01  -3.9438779e-01   2.2110106e-01  -7.7317454e-01  -6.8104296e-02  -6.3957680e-01  -4.1468559e-01  -7.2657762e-01
   4.1195257e-01  -9.9977813e-01   8.5242645e-01  -3.1165570e-01  -9.3392602e-01   8.8245477e-02  -4.0595381e-01  -1.5814515e-01  -8.7460320e-01   1.6440491e-01   6.5772692e-01  -6.5268570e-01  -6.0957104e-01  -3.1748021e-01  -6.4757122e-01  -7.1282530e-01   6.2774800e-01  -3.6334310e-01   5.1757976e-01   3.6492751e-01  -3.0131904e-01  -7.3528188e-01   6.7353362e-01  -5.4914779e-01   2.8345191e-01   6.9952362e-01  -8.4817253e-01   4.3308691e-01  -1.5546257e-01   2.6594609e-02  -3.1256407e-01   9.2180233e-02  -4.1890948e-01  -1.4828391e-01   3.8222871e-01  -2.2261097e-01   6.8296341e-01   2.0951078e-01   1.8147545e-01  -5.6997500e-01   8.5145778e-01  -1.8604439e-01   1.1436716e-01  -6.5796134e-01   5.1914129e-01  -6.3381611e-01  -6.0877130e-03  -8.1804938e-01  -7.3213533e-01  -2.8357970e-01  -3.1156030e-01   2.2492395e-01  -3.3757202e-01  -7.0989050e-01   3.9939616e-01   5.2713491e-01  -5.8341195e-01   6.1699477e-01   6.3616095e-01   7.6105512e-01  -7.7676369e-02  -8.9333458e-01   4.2910138e-02   5.2319169e-01  -2.8938197e-01  -8.6868311e-01  -9.3661758e-01  -8.6367717e-01  -7.7108433e-01   1.0368403e-03  -9.9457747e-01  -7.4997241e-01  -3.4884616e-01  -8.2426589e-01   7.8714774e-01   6.7101181e-01  -8.8707100e-01  -7.0679589e-01  -6.5913767e-01  -3.1822817e-01  -5.9274298e-01  -9.0980151e-01  -1.7069708e-01  -3.9234640e-01  -1.4374632e-02  -8.4303256e-01   1.1868718e-01  -1.2243320e-01   2.5801673e-01  -3.4562902e-01   7.4351271e-01   9.4601543e-01   5.4763693e-01  -7.0347976e-01   9.7159970e-01  -4.2040013e-01   7.3582269e-01  -8.9452477e-01   6.7759146e-01  -7.0948425e-01  -8.5488610e-01  -8.2310350e-01  -1.2381786e-02  -3.0293706e-01   2.4812269e-01   8.6336690e-01   8.4798821e-01  -2.7120356e-01   7.5079589e-02  -1.6474985e-01   3.8624510e-01  -6.5803319e-01   8.9239145e-01  -8.0033364e-01  -7.7041096e-01  -2.2826696e-01   6.4132109e-01   5.9031192e-02  -5.0339933e-01   8.5710605e-01  -3.0233043e-01   3.7509884e-01  -9.2993429e-01   5.0267141e-01   4.9641290e-01  -9.7226343e-01   6.8737653e-01   2.5256511e-01   5.9404565e-02   3.6773671e-01   6.2971292e-01   9.4291441e-01  -2.3015605e-01   7.7138597e-01  -2.3521277e-01   5.8343090e-02  -7.9428569e-01  -7.3408334e-01  -4.4500087e-01   2.4378049e-02  -3.7980996e-01  -2.3367768e-03  -9.0593073e-01  -8.2765411e-01  -1.5698749e-01  -7.8696990e-01   9.2833418e-01  -4.0143826e-01  -1.0610434e-01   4.7800035e-02  -7.1626158e-02   5.4434959e-01  -4.8043092e-01  -9.5810830e-01   5.6688097e-01   6.7110533e-01  -6.2873878e-01   2.8592186e-01  -5.7502221e-01  -4.4091848e-01  -2.1825950e-01  -3.2777076e-01  -2.8602349e-01  -1.2068814e-01   9.6174131e-01   2.2489166e-01   9.2259733e-02   7.2912154e-02   7.6249430e-01   5.8457906e-01   8.7269529e-01   4.5294288e-01   5.2300503e-02   5.3777839e-01  -6.5994081e-01  -6.9640999e-01  -5.5644972e-01   2.6086498e-01  -6.0488893e-01  -1.6384945e-01   1.2837761e-02  -5.2283916e-01  -9.8115106e-01  -2.4457019e-01   9.3095616e-01  -6.3168989e-01   6.8775886e-01   6.4095888e-01   5.9800180e-01  -7.4013676e-01   7.5679799e-01  -5.8328062e-01   1.0674958e-01  -5.9656247e-01   8.4704544e-01  -7.9306709e-01  -1.9434727e-01  -7.3738291e-01   2.7980448e-01   5.9588349e-01  -6.5004875e-01   1.7180348e-01   2.0745533e-01  -4.0505355e-01  -8.3882179e-01   8.1306146e-02   2.0104123e-01   7.4503888e-01   7.8212400e-01   4.8805909e-01   4.4430528e-01   7.2803136e-01  -5.3737559e-02   5.5104079e-01   7.4499780e-01  -9.9039474e-01   8.8355366e-01  -2.2421056e-01   3.3313177e-01  -7.1908521e-01  -9.1187991e-01   4.3608718e-01  -2.0439823e-01  -6.2880548e-01  -4.6916617e-01   9.1715865e-01  -4.3203082e-01   1.3382365e-01  -3.3901324e-01   4.9071384e-01   2.3876303e-01  -9.4710378e-01   5.2993456e-01   3.2546361e-01   2.7255765e-01  -6.8140614e-01  -8.4733244e-02  -5.2736694e-01  -5.7199381e-01  -1.3183556e-01   5.4380482e-01   7.5558710e-01  -1.5317661e-01  -6.8447863e-01  -7.9633095e-01  -8.9117899e-01  -4.4895763e-01   8.4174581e-01  -2.6390658e-01   1.1277104e-01  -9.9138009e-01   9.9066001e-01   3.1075316e-01   6.4839047e-01  -2.4890646e-01  -9.9942158e-01   7.1096167e-01  -5.3033638e-01  -6.5635404e-01  -6.3209036e-01   3.2680810e-01  -2.7378008e-01  -5.3086500e-01  -6.7096009e-01  -4.6668737e-01   9.9292206e-01   4.6933327e-01   8.2879941e-01   1.8297333e-01  -7.6150642e-01  -5.7045817e-02   4.3258815e-01  -1.6121990e-01  -8.5138973e-02  -2.5093331e-01  -6.6581712e-01   1.4599987e-01  -4.0866231e-01  -4.5955528e-01   2.7886935e-01   1.9277835e-01   7.5861200e-01   3.4752417e-01  -4.0489116e-01  -7.1787019e-01  -6.2295365e-01   3.7313381e-01   4.5739628e-01  -8.3337723e-01   3.9126627e-01  -7.8728951e-01   8.6675216e-01   3.4618039e-01   3.2552333e-01   2.9389772e-02  -5.3479417e-01   2.6324529e-01  -2.8199958e-01  -7.4170109e-01  -7.9680096e-01   8.8906683e-01   1.1522005e-01   5.6228793e-01   2.3550486e-01   6.8875482e-01  -3.1533485e-01  -6.0918557e-01  -6.5039982e-01   9.5773144e-01  -7.8808990e-01   7.3367782e-01   1.0288052e-01   9.4962434e-01  -3.3063846e-01  -3.5772280e-01   4.0735242e-01   4.7308431e-01  -4.0088751e-01   7.0280547e-01   9.7641175e-01  -2.5697633e-01   1.2517313e-01   9.1001044e-01  -9.0016321e-01  -3.0353645e-01  -6.4578417e-01   3.9637281e-01   5.5079913e-01   3.9236065e-01   2.2261030e-01   1.4696680e-02   7.8516875e-01   7.9008148e-01  -3.1366401e-01   3.3114032e-01  -6.8801797e-01  -6.7703008e-01   4.2321629e-01   4.9514194e-01   7.2523877e-01   3.0655825e-02  -1.8032632e-01  -2.8004455e-01   3.5924871e-01  -5.0177325e-01  -9.4163611e-01  -4.4501613e-01  -8.0250981e-01   4.0288614e-01   3.4271589e-01   4.0746943e-01  -9.5193567e-01   6.4759814e-01   5.4925387e-01  -4.6759420e-01   6.8425824e-01   7.6541342e-01   4.9524498e-01   7.1544572e-01   3.1550083e-01   6.7749844e-01   1.6654147e-01   2.8200513e-01  -2.3477951e-01  -2.2406448e-01  -4.7239468e-01  -9.1661793e-01  -5.9527681e-01  -2.1428555e-01   6.9458596e-01  -1.9676198e-01   6.5644462e-01  -7.7328347e-01  -9.6127997e-01   2.5103715e-01   5.8842170e-01   2.7685824e-01  -2.6777088e-01  -3.8069116e-01  -1.1469881e-01  -2.1139096e-01  -2.6236034e-01   3.2552990e-01   9.4231338e-01   3.4116605e-01   8.8086118e-01   5.5287297e-02  -1.2955787e-02  -3.3803901e-01   5.1358085e-01   8.5632214e-02  -8.3328303e-02   7.1338500e-01  -8.9239176e-01   9.0769998e-01   5.7188102e-01   2.9354384e-01   9.4012256e-01   7.5406002e-01  -4.8623801e-01   6.2336852e-01  -1.8700927e-01   4.2445190e-01   9.4494265e-01  -1.1354173e-02   7.6977971e-01  -7.5813859e-01   2.9893845e-01   9.3535257e-01  -7.8362228e-01   1.2035070e-01   9.4754366e-01   6.7265214e-01  -2.3344404e-01   2.4550539e-01   1.9973886e-01   8.8944174e-01  -3.2503449e-01  -7.0432489e-01   5.3647319e-01  -3.1255712e-02  -3.6460156e-02   2.0792225e-01   6.7990677e-01   3.5369755e-01   1.2289246e-01  -3.7406235e-01   9.0091604e-01   9.8951533e-01  -2.5348708e-01  -7.3428598e-01  -3.7362135e-01   7.2458753e-01   5.6888648e-01   6.0684221e-01   6.1926302e-02  -4.8501725e-01   1.7535412e-01   6.9010355e-01  -6.4757417e-01  -4.8558180e-01   4.6580290e-01  -4.6295362e-01  -3.2627389e-01  -6.7601346e-01   2.0732628e-01  -9.6886401e-01  -1.4894829e-01   3.0070700e-01  -6.7281771e-01  -6.6138551e-02  -8.8392801e-01  -8.8071560e-01  -1.7964075e-01   1.8865094e-01  -1.5571388e-03   3.3749581e-01  -2.2174659e-01   9.1334620e-01   6.0078063e-01   9.1898568e-02   8.4841292e-01  -7.8887075e-01   5.9935511e-01   8.7455246e-01  -3.2966764e-01   8.9516816e-01   9.9003971e-01  -3.5518485e-01  -4.6087634e-01   7.8120895e-01   9.7051528e-02  -2.8838032e-03  -2.9831952e-01   2.8099110e-01   7.5834186e-01   9.4054398e-01   4.2112630e-01   6.8845552e-01   1.0579532e-01   7.9858003e-01   8.2381960e-01  -3.1923593e-01   9.8556387e-01   5.2138075e-01  -5.4487808e-01   9.7468912e-01  -8.3154226e-02  -1.1422379e-01   7.9513188e-01  -1.1134892e-01  -9.6705714e-01  -9.7169630e-01  -9.0454122e-01  -2.4286575e-01  -2.5200108e-01  -7.1870730e-02  -5.3176173e-01  -2.9433034e-01   8.7894528e-01   1.9747654e-01   9.1819276e-01  -2.7985880e-01   7.4729780e-01   1.9690515e-01   4.2855273e-01   6.9882355e-01   2.9551787e-01   3.8835363e-01   5.7694372e-01   4.4348600e-01   6.6506213e-01   4.5018372e-01   2.1522962e-01  -3.5036883e-01   8.0331882e-02  -3.2522651e-01  -8.3686463e-02   3.2169998e-01  -3.3109835e-01   2.5774455e-01   5.7463642e-01  -6.7930893e-01   2.6808974e-01   9.2797291e-02  -3.9472942e-01  -8.2458405e-01  -4.9266310e-01  -1.9009976e-01  -9.6677539e-01  -4.7608469e-01   8.1877221e-01   4.6605541e-01  -7.0090586e-01   1.4144982e-01   1.3538035e-01   7.5483638e-01   7.5275829e-01  -6.9954864e-01  -2.6801392e-02  -8.5907683e-01  -9.4119427e-01   8.1349535e-01   9.6976405e-02   1.3571589e-01   5.4561355e-01   1.6488865e-01   9.8702605e-01  -6.9534328e-01   1.6596964e-01  -6.2079228e-01   7.2322397e-01  -9.6667702e-01   2.3177249e-01  -5.2189011e-01   4.3143455e-01   3.7811823e-01   3.4054003e-01  -4.5953782e-01  -9.2095637e-01   9.3051164e-02  -4.1764675e-01   2.8811664e-01  -3.2677853e-01  -9.4966922e-01   6.8738138e-01   4.7896371e-01   5.9406217e-01   1.7899670e-01   8.8204094e-01   3.9328411e-01  -6.1721427e-01   5.4777230e-01  -8.7440751e-01   9.5452085e-01   4.2318454e-01   9.8607603e-01  -6.4903206e-01  -8.4289192e-01   3.7385358e-01   1.6790104e-01   3.4823961e-02  -6.8672323e-01   2.8456300e-01   2.7462617e-01  -3.7038769e-01   2.4063943e-01  -8.1612811e-01  -7.8136706e-01  -8.3971185e-01   2.7523935e-01   8.4714566e-01   1.6649388e-01  -1.0866260e-01   1.1143270e-03   4.1827778e-01   1.9844153e-01  -2.9762156e-01  -8.5289837e-01   1.0057956e-01  -6.6957751e-01  -8.2589640e-01   7.3291843e-02  -1.5866714e-01  -7.7491399e-01  -5.4321862e-01  -8.6055760e-01   4.3223336e-01  -4.7771032e-01   3.3783755e-01   8.8865070e-01  -5.9407681e-01   4.6251151e-01   3.8942246e-01  -8.7893550e-01   8.2049656e-01   6.8604595e-01   2.8201070e-01   3.8025257e-01   2.8839625e-01   4.0246564e-01   4.6602584e-01   3.2574239e-01  -8.9193537e-01   8.1248102e-03  -3.7691065e-02   7.2782067e-01  -6.7659038e-01   1.8760530e-01  -4.5917639e-01  -6.3728943e-01  -4.4060764e-01  -5.5757472e-01  -2.7914375e-01   9.3588241e-01   2.6754866e-01   8.8142381e-01   8.8674296e-01   6.6769524e-01   8.6509116e-01  -9.0873188e-01  -2.2757705e-01  -8.9750119e-01  -4.4078287e-01  -4.3149802e-01   7.7640699e-01   5.9567836e-01   9.0104923e-01   3.3396988e-01   4.9752798e-01  -5.5918555e-01   8.7572120e-01  -4.0324308e-01   9.3325221e-01  -8.3539987e-01   4.2293178e-01   6.4535087e-01  -9.4808757e-01  -1.5053543e-01   8.7726720e-01   9.8779313e-01   9.7395545e-01  -2.6285944e-01   9.5316352e-01  -4.5477894e-01   3.6511513e-01  -9.4815391e-01  -5.5915738e-01  -9.4746332e-01  -2.4391369e-01  -7.6095019e-01  -2.7824539e-01   8.8984882e-01  -2.1513709e-01   8.9746965e-01   6.8765343e-01  -5.4127674e-01   8.1502788e-01  -2.7474812e-01  -3.3328213e-01  -3.4159610e-02  -5.4135193e-01   6.9562628e-01  -9.1427907e-01  -9.7765690e-01  -2.8360932e-01  -7.0511010e-02   1.6695002e-01   2.3194062e-01  -6.1780078e-01  -4.3608934e-01   8.2318377e-01   5.4785034e-01   3.8696985e-01   4.4454011e-01  -4.9415392e-01   1.7688154e-01  -7.8302612e-01  -7.6150320e-01  -3.3236515e-01   4.6143333e-01   7.5474620e-01  -2.0022289e-01  -7.5233922e-01  -9.4003197e-01  -7.1401661e-01  -9.2089747e-01   7.7754608e-01   8.8089614e-01  -7.6629724e-01  -8.4343804e-01  -9.5056643e-01  -4.6572356e-01   9.5024840e-01  -1.9231671e-01  -6.4990409e-01   8.3994771e-01   8.0569915e-01   2.0445049e-01   4.8289135e-01  -7.9413353e-01   1.8456355e-01  -3.5716091e-01  -4.7197986e-01   2.2623982e-02   9.8712788e-01  -3.1894500e-01   8.0529289e-01   9.9147249e-01  -4.5552797e-01   6.8358208e-01   2.3150996e-01  -7.9831813e-01   6.4699961e-01   7.6135805e-01  -3.5885538e-01   1.2101273e-01   9.1574510e-01  -8.8122753e-01   5.0512921e-01  -4.8904359e-01  -3.3886142e-01   5.7526431e-02   5.9055660e-01  -5.8756076e-01  -8.4722660e-02   7.9444971e-02   7.8518896e-01  -9.8446054e-01   4.6939212e-01  -8.9898448e-01  -4.2676022e-01  -8.4349402e-01  -9.4016720e-02  -6.0248251e-01  -9.3185350e-01   6.0345638e-01   1.7156230e-01   8.8602227e-01  -8.9010848e-01  -6.5045250e-01  -8.8592572e-02   8.2471690e-01  -3.7230645e-01  -8.7117979e-01   4.4601276e-01   3.1629806e-01   4.5183246e-01  -3.1866207e-02  -3.9665214e-01   6.3517418e-01   7.3851860e-01  -4.0695445e-01   7.8390661e-01  -7.0706657e-01  -7.2235156e-01   3.3106322e-02  -8.0734949e-01  -6.9575373e-01   7.8922480e-01  -7.4883292e-01   9.2545866e-01  -1.7338179e-01  -7.1109931e-01   4.6657556e-01   6.1455176e-01   6.2866355e-01  -1.2291033e-01  -5.3661146e-02  -7.3245391e-01   9.7830597e-01  -7.1537809e-01  -3.1965774e-01  -4.7011180e-01  -6.5092605e-01   2.9086736e-01  -1.3477946e-01   1.5777300e-02  -8.5871505e-01   8.7630142e-01   2.2387482e-01  -1.2397738e-01  -7.0819915e-01   2.0556178e-01  -9.3628937e-01  -7.0023324e-01   9.7983218e-01  -8.7442105e-01  -9.6824513e-01   4.1208898e-01  -1.6657407e-01  -9.1891867e-02  -5.1928400e-01  -6.8092669e-01   9.4949553e-01   4.4196501e-01   4.8333105e-01   5.9262255e-01   7.7145038e-01  -6.1220690e-03  -4.6938042e-01   1.3043963e-01  -4.5580892e-01   1.8761880e-01  -3.0194704e-01   4.3179995e-01  -5.5121624e-02  -1.6571050e-02   2.2270193e-01  -3.0682054e-01   5.1968162e-01   1.8793925e-01  -4.3657699e-02   7.3977270e-01  -9.5858158e-01  -4.1176974e-01  -6.0309783e-01  -2.1046139e-01  -8.3368029e-01   4.6783454e-01  -5.4079620e-01   6.2179156e-01  -2.0261386e-01  -6.3522175e-01  -8.5461157e-01   4.5780158e-01   8.7421725e-01  -3.0605825e-01  -2.8988749e-01  -2.5290180e-01  -7.6874437e-02  -6.0812440e-01   3.7363036e-01   1.9721830e-02  -2.9076290e-01  -6.5928001e-01  -1.6911554e-01  -4.1007315e-01  -7.9443992e-01  -4.5346233e-01   3.9858689e-01   1.6564085e-01  -5.8722378e-01   2.8744615e-01  -4.1740075e-01  -2.6221262e-01   1.5136170e-01  -6.8469378e-01   3.2383987e-01  -4.3359469e-01   4.8087927e-01  -2.3027558e-02  -8.4992069e-02   7.9070824e-01  -3.8421450e-01  -5.5604517e-01   3.8203214e-01   6.8641281e-01   5.6635286e-01  -6.5359352e-01  -3.7964181e-01   1.1995730e-01  -8.0197566e-03  -1.0105681e-01   3.2961848e-02   9.6025798e-01  -8.5562410e-01   3.7910072e-01   1.3049481e-01   8.7865731e-01  -8.1839161e-01  -8.2677535e-02   2.4788393e-01  -2.2833518e-01  -1.1328931e-02   4.0468215e-01   4.2495042e-01  -8.9330739e-01  -2.3889424e-01  -9.5751469e-01   1.0455029e-02  -9.0418678e-01  -4.7061999e-01   9.5177318e-01   4.2863729e-01  -8.7410085e-01   1.1338423e-01   7.5867536e-01   5.8705437e-01  -9.6571219e-01  -6.4628001e-01  -9.5067501e-01  -3.3147759e-01  -5.6511197e-01   7.2748766e-01  -7.4620700e-01   3.3882526e-01  -6.5111621e-01   7.6244643e-01  -4.7627583e-01  -7.8170702e-01  -2.5828342e-01   2.4915425e-01  -4.3659121e-01   4.5400904e-01   4.1191318e-01   9.8350591e-01   6.1330704e-01   3.3493239e-01  -9.1805714e-01  -7.4415572e-01  -2.0511077e-01  -8.9766084e-01   6.8122244e-02  -3.8117137e-01   2.6457674e-01   9.1682772e-02   3.6538680e-02   9.8044775e-01  -3.1477502e-01  -7.4687683e-01   1.8139057e-01   3.0131076e-01  -1.8392428e-02   9.2191020e-01   1.2147594e-01   5.7812292e-01   1.3721464e-01  -6.5965392e-01   4.4406519e-01   5.2965749e-01  -5.2278054e-01  -3.0733559e-01  -8.6444756e-01   2.5781625e-01   2.7353958e-01  -6.1366916e-01  -1.9477771e-01  -9.4955858e-01   4.0979102e-01   9.4122495e-01   8.9452401e-01   1.9948048e-01   4.2515499e-01  -1.7190499e-01   9.8414448e-01  -6.5962818e-02   3.1603584e-01  -4.0954197e-01  -6.6238515e-01   2.3545038e-01   7.0607766e-02   4.4451388e-01   6.9526502e-01  -5.8460897e-01   5.6636128e-01   4.7713463e-01  -2.1003576e-01  -3.1685105e-01  -1.2294785e-01  -8.3835775e-01  -9.3225285e-01   6.3082920e-01  -4.0583145e-01   3.1014940e-02   1.4000726e-01  -8.9612833e-01  -3.9170331e-01   3.4680662e-01   2.3689414e-01   1.0415711e-01   7.2723416e-01   2.8756661e-01  -4.9727546e-01   9.9812897e-01  -7.5277179e-03   9.1875035e-01   2.4975071e-01  -1.5089760e-01  -6.3874830e-01
