   4.5043678e-01  -3.4971760e-01  -4.9346575e-01   5.3242338e-01   8.0141452e-01  -5.1237075e-01   5.5902290e-01   8.8749034e-01  -6.3282008e-01   5.1638573e-01   1.1009334e-01  -3.8247291e-01  -5.5362030e-01  -7.8992509e-01  -5.9514059e-01  -6.4883025e-01   8.2397326e-01  -5.9039748e-01   7.5068762e-01  -4.8575215e-01   7.9595171e-02   3.8507283e-01  -1.9072572e-01  -9.8698101e-01   7.5896455e-03   6.5515046e-01  -7.1186135e-01   5.2507204e-01  -2.3990065e-01   9.9042891e-01   3.6041184e-01  -9.2273370e-02   1.3470176e-01  -9.6344125e-01  -6.7699051e-01  -8.5592930e-01   4.2085113e-01   3.6558885e-01  -5.3967005e-01   7.9688051e-01  -1.4823585e-01   8.8575067e-02   8.9318062e-01  -7.1481949e-01   7.0370816e-01  -9.3218176e-02   9.9748937e-01  -1.4481062e-01  -4.2248146e-01  -2.2739854e-01  -4.7183426e-01   4.0472010e-01   5.4874250e-01   6.0568719e-01   2.5306863e-02  -4.3386388e-01  -6.9709607e-01  -6.2817285e-01   5.7630452e-01  -6.3597380e-01   2.5803912e-01   6.8703926e-01   6.3713444e-01   1.3456332e-01  -4.0240954e-01  -9.2547077e-01   8.4354817e-01  -7.8117125e-01  -8.5983481e-01  -1.2203122e-01   2.8731683e-01   9.1595870e-01   2.9163926e-01   7.0327785e-01   9.0214665e-01  -1.7707314e-01  -1.5606109e-01  -2.4216581e-01   8.7054521e-02   3.7743470e-01   5.6773751e-01   5.6104589e-01   8.7802853e-01  -7.5288396e-01   4.4766780e-01  -6.6027744e-01   2.8913247e-02   8.0716942e-01   6.5246363e-01   6.8839720e-01  -4.0597352e-01  -7.9896795e-01   4.0674546e-01  -5.7923104e-01   8.1964785e-01   3.6865564e-01  -9.4993337e-02  -5.2000172e-01   9.8468905e-01  -8.6978555e-01  -9.1414271e-01  -6.9458827e-01   3.9169411e-01   1.0728747e-01   1.5460143e-01   6.9740492e-01  -1.7110926e-01  -9.2671300e-01  -9.1726395e-01  -9.5979921e-01  -3.0260839e-01  -3.3744590e-01   2.9506901e-01   4.0725644e-01   9.0514044e-01   1.2913869e-01   3.5503910e-01  -9.7338620e-01   4.6284230e-01   4.3524569e-01   3.2845482e-01   1.1296436e-01  -3.3610471e-01  -2.2869344e-01   6.5904294e-01  -6.5103079e-01  -3.1446918e-01   9.6803730e-01  -1.7620747e-01  -3.2664204e-01  -8.0433622e-01   4.5219795e-02  -3.4872194e-01   7.6798526e-01  -5.5984792e-01  -5.8648736e-03  -3.6735461e-01  -2.0777752e-01  -3.7176386e-01  -8.0288753e-01  -3.6387438e-01  -6.8667197e-01  -3.4011018e-01  -6.9279500e-01  -2.2609789e-01   1.5176216e-02   9.4406314e-01   2.7634098e-01   5.9199753e-01   2.2001298e-01   2.5945544e-01   8.3311834e-01  -4.2462182e-01  -5.5960017e-01   1.7129023e-01  -8.6931436e-01  -7.4121088e-01  -3.7846858e-01   3.7400023e-01  -1.1393822e-01  -1.5145026e-01  -6.7413035e-01  -1.0449986e-01  -8.1240594e-03  -8.7462315e-02   7.8808297e-01   2.7633600e-01   6.8123598e-01  -6.0757611e-01   8.6985580e-02  -6.5351444e-01   3.5496751e-01  -4.2156544e-01  -4.6831304e-01  -4.8718970e-01   1.5259023e-02   4.2641728e-02   5.8858357e-01  -1.9882085e-02   5.7070306e-01   3.4175757e-01   7.1772028e-01  -2.0013154e-01  -3.6957386e-02   7.0455769e-01   4.6423269e-01   6.6687989e-01  -3.5030137e-01   5.5240202e-01  -2.5697094e-01   5.5773937e-01  -4.1615668e-01  -4.3269474e-01  -7.2375153e-01  -7.8297475e-03   3.8147334e-01   6.1153199e-01   9.2850740e-01   8.8085049e-01   7.6009145e-01   8.1162817e-01  -5.5913536e-01   7.2710156e-01  -9.6113649e-01  -9.7131581e-01  -6.3140129e-01   4.2702776e-01   9.1834092e-01  -4.8537586e-01   1.3725523e-01   1.2422020e-01  -1.4911463e-01  -5.6678821e-01   8.6737505e-01  -8.9289054e-01  -7.8930709e-01   8.4021877e-01   9.1016494e-01   7.3278414e-01   3.6761249e-01   7.7419787e-01   2.3810627e-01   8.4480051e-01  -1.4288094e-01  -5.6329004e-01   7.4708590e-01   2.8190266e-01   8.5150040e-01   3.4359613e-01   8.6548953e-01  -9.3930344e-01  -8.5178873e-02  -7.6650518e-02  -3.6646237e-01  -8.2525541e-01  -7.4453129e-01   4.1541148e-01  -5.8633366e-02  -4.6292800e-01  -1.9628596e-02   4.7065447e-01   2.7960894e-01  -1.0494580e-01   8.8581320e-01   3.9032452e-01  -5.3348329e-01  -5.6230720e-01   5.1169359e-01  -7.2123520e-01   2.6075442e-01  -3.4513486e-02   2.0813037e-01  -8.8628171e-01   6.5766351e-01  -4.7333978e-01   9.9507959e-02  -3.7774817e-01  -9.5730349e-01   5.8675387e-01  -8.9004466e-01   2.0224552e-01  -6.3266662e-02   9.9433455e-01   7.5289494e-01  -4.8896484e-01   8.6818671e-01   6.4423487e-01   4.8336775e-01  -8.2822941e-01   5.3432957e-01   9.3109134e-01  -5.8182026e-01  -6.4230261e-01   1.1774045e-03   3.8287668e-01  -6.1226175e-02  -5.5235614e-01  -8.7923879e-01  -1.3498636e-01  -7.7978363e-02  -9.9961686e-01  -2.7759836e-01  -4.5995505e-01   4.7217426e-01  -3.4582258e-01   8.4053683e-01   5.7202118e-01  -3.2131862e-01  -1.2160490e-01  -1.4964414e-01   5.5515688e-01  -4.3183264e-01  -7.2799525e-01  -1.9381438e-01   6.3919968e-01   4.6346799e-01  -4.9919634e-01  -2.4683329e-01   9.3970898e-01  -6.3166748e-01   3.6054698e-01   9.7902913e-01   6.7063125e-01  -3.3136027e-01  -9.7255053e-01   1.8671292e-01  -7.4130517e-01  -2.6954108e-01   6.6273594e-01   9.8579496e-01   2.8307858e-01   4.3680650e-01   7.0834117e-01  -4.6834966e-01  -3.8194327e-01   6.7489230e-01  -8.2895009e-01  -7.8700867e-01  -4.3153678e-01   3.7988719e-01   9.0471581e-01  -4.4630238e-01  -7.3425366e-01  -9.0406677e-01  -6.5621850e-01   4.0049741e-01   5.8389197e-01  -6.2973585e-01   8.8339799e-02  -1.1356143e-01   8.5718435e-01   8.9719476e-01   2.7938142e-01  -6.0317366e-01   3.4234457e-02   2.3482011e-01  -5.2346323e-01  -4.3462833e-01  -3.6723809e-01   4.1911151e-01  -8.4422876e-01  -6.8016204e-02   7.7387582e-01   1.8671392e-02   5.1693927e-01  -5.7799557e-01  -1.3439949e-01  -8.1142006e-01  -4.8394929e-01   6.0851826e-01  -7.7786973e-01  -5.8793581e-01   6.3851440e-01   9.1574653e-01   8.5051859e-01  -1.3981867e-02   7.9226700e-01  -4.0339978e-01  -7.3862489e-01  -7.7255988e-02  -5.2978383e-01   6.7703436e-01  -6.4222988e-01  -2.2241539e-01   7.6459679e-01   5.7044466e-01   7.4535277e-01  -5.7519312e-01  -9.5194749e-01  -6.2186437e-01  -7.8299402e-01   5.1174502e-01   5.7086311e-01  -4.5080614e-01  -5.9243073e-01  -9.3587862e-01   3.5787984e-01   8.9448669e-02   8.4137456e-01   1.4553648e-01  -4.2108399e-01   2.5360589e-01   4.4501191e-01  -5.9852065e-02  -2.1714573e-01  -1.3837338e-01   4.1435263e-01  -6.1633527e-02  -6.1995585e-01   7.3584638e-01  -8.0922972e-01  -4.3386701e-01  -7.4058311e-01   8.7516190e-01  -6.8328699e-01   3.3650194e-01  -2.1422242e-01  -5.8496809e-01  -2.7531896e-01   5.9704549e-01   4.3268810e-01   3.3828820e-01  -4.1461624e-01   7.9306573e-01   8.9490754e-01   4.5249168e-01   1.8714284e-01   5.1038553e-02  -4.2926527e-01  -2.8003859e-01   9.7551525e-01  -1.9658651e-01  -5.2263756e-01  -5.2661671e-01  -2.1351183e-01   6.1248612e-01   1.1717497e-01   4.5115111e-01   4.8556869e-01  -2.9768764e-01  -9.1845342e-01  -3.0926763e-01  -9.7004992e-01  -7.0090312e-01   7.0707282e-01   4.1069663e-01  -1.7704711e-02  -6.8147819e-02   4.9695431e-01   9.3243531e-01   5.5823413e-01   4.6545110e-01  -4.1244115e-01  -9.9133022e-01   3.4257216e-01   7.1098175e-01   3.5830238e-01   8.8654786e-01  -4.9867191e-01  -1.4489049e-01   8.0411500e-01  -5.0428800e-01  -6.3233043e-01  -8.1713303e-01   5.7435176e-01  -1.7210683e-04  -2.2239110e-01  -5.3286761e-01  -7.8830374e-02  -7.2329461e-01   1.9864066e-01   6.3408377e-01   8.3012396e-01   5.3240330e-01  -4.0953035e-01   8.8453020e-01  -7.9713761e-02   9.6352934e-01  -7.0493729e-01  -8.3716543e-01   6.2992356e-02  -7.6493838e-01  -3.2070501e-01  -5.7565365e-01  -9.8490390e-01  -7.1680935e-02   8.1149339e-01  -8.1711398e-02   8.1987601e-01   4.2887541e-01   6.9501314e-01   2.9139863e-01   3.2262258e-01  -3.3984975e-01   9.6347749e-01  -3.7907324e-03   7.9378265e-01   9.0998379e-01  -5.3218302e-01   8.2122109e-01   9.3678389e-02   9.5193414e-02  -4.3979966e-01  -3.2783331e-01  -9.7043242e-02   6.8375166e-01  -9.7350371e-01  -7.1085659e-01  -7.1144890e-01   5.4459485e-01   5.3691805e-01  -3.4159658e-01  -3.3716230e-01  -8.2356283e-01  -6.1883484e-01  -4.6693358e-01  -4.0601569e-01   7.5075452e-01   5.5528553e-01   6.6417829e-01  -4.2013562e-01  -6.9752211e-01  -4.1169504e-01  -2.0166616e-01  -9.7700567e-01  -2.2018299e-01  -1.1471489e-01   6.3331948e-02  -4.6494030e-02  -2.7419625e-01   5.1864097e-01  -3.1966301e-01   2.6276252e-01  -2.6558035e-01  -6.1607528e-01  -5.6931378e-01   5.4927637e-01  -9.5549192e-01   6.4934760e-01  -6.1814955e-01  -4.4656433e-02   6.5093097e-01   9.8793183e-01   4.1381345e-01  -7.2462219e-01  -7.5322570e-01  -7.7997009e-02   6.4629549e-01   8.3719613e-01  -8.9282216e-01   5.4172498e-01  -2.1888586e-01   8.2743796e-01   1.6121238e-01   4.4809389e-01   7.2000616e-01   4.2546573e-01  -2.0822865e-01   7.7281157e-01   3.6502573e-01  -3.5709346e-01   6.7213993e-02   9.7738306e-02  -3.6922222e-01   2.5359851e-01   6.5001300e-01   7.7603862e-01   7.1922408e-01  -4.0494604e-01  -4.6415808e-01  -6.1968689e-02   5.8336699e-01  -9.8714931e-01  -7.3807263e-01   4.6204292e-01  -3.9142962e-01  -3.2970851e-01  -8.5216181e-01   7.2824448e-01   1.9414094e-02  -7.4513749e-01  -2.7417851e-01  -7.5866365e-01  -7.7336058e-02   5.6006516e-01  -8.4724326e-01   3.0735187e-01   6.3054148e-01  -8.1838986e-01  -8.0560678e-02  -4.1074124e-01  -4.0665993e-01  -8.4922658e-01  -6.6788184e-01  -4.7364990e-01   9.2356114e-02  -8.4652518e-01  -8.4817749e-01  -2.5872632e-01   5.0498149e-01  -5.0737839e-01  -4.3359843e-01   9.9074544e-01   9.8847456e-01   4.3672180e-01   5.5583711e-01   5.0755212e-01  -3.0655814e-01   7.2615263e-01  -5.7718773e-01  -3.1417721e-01   1.9851054e-01  -4.7246347e-01   2.7205593e-01   2.1730111e-01   9.0779399e-01   5.1019660e-01   2.4904126e-01  -5.6198089e-01  -7.8842386e-01   3.8165208e-02   4.4544763e-01  -6.9040652e-03  -8.7597338e-01  -2.9561436e-01   1.9607549e-01   4.6722446e-01   9.8859342e-01   7.5378947e-01   4.0167341e-01  -5.8854826e-01  -4.6940077e-01  -4.1224623e-01  -3.0663502e-01  -2.8728927e-02  -2.1161160e-01  -5.1958298e-01   7.2392946e-01   8.6427540e-01   9.4592340e-01  -4.7308252e-01   1.3969067e-02   3.4365218e-01  -8.4736110e-01  -6.3371263e-01  -2.6718754e-01   1.9108993e-02   8.3732378e-01   3.9784984e-01  -8.7411240e-01   9.7994925e-01  -9.1990617e-01  -2.3342934e-01  -7.2399730e-01  -5.3253643e-01   4.2425033e-01   2.9173807e-01  -3.6057061e-01   1.8576695e-01   3.8763406e-01   1.3856765e-01   1.3924339e-01   6.7764488e-01   6.6826023e-01  -6.5606773e-01  -2.3509218e-01  -9.7076545e-02  -1.7499912e-01  -8.6635532e-01   8.5322278e-01   1.5866243e-01  -6.1896248e-01  -4.2809986e-01   4.7197193e-01  -3.8857430e-01  -7.2113509e-02  -9.2927950e-01   9.9680102e-01   2.4199224e-01  -2.5200409e-02  -1.6047202e-02  -1.7339130e-01   2.4396192e-01   8.6564385e-01  -6.0295641e-01  -3.3033961e-01  -5.6951013e-01   7.6964369e-01  -4.9617294e-01   9.4584232e-01  -3.0069407e-01   9.0870935e-01   8.8739135e-01  -4.2522380e-01   1.4595631e-01  -2.3396598e-01   8.3854576e-01   2.3182722e-01  -6.2894273e-01  -1.7297209e-01   2.6452004e-01  -1.7782387e-01   5.3250933e-01   1.4532642e-01  -8.2217602e-01   2.4688965e-01   6.6744425e-03   5.8942577e-01   9.6662454e-01   4.0237700e-01   5.6204877e-01  -9.7544745e-01  -4.6360786e-01   9.0182941e-01  -5.3881961e-01  -6.6503700e-01   6.8399449e-01  -5.3290097e-01   6.5203584e-01  -9.3513192e-02   2.6019592e-01  -7.5807546e-01   1.0155494e-01  -6.9824469e-01  -4.4284922e-01   2.9606998e-01  -5.4149738e-01  -1.5874339e-01  -1.1091780e-01   4.6711305e-01   7.5371490e-01  -1.4908020e-01   4.4120648e-01   1.6552001e-01  -7.9602075e-01  -4.5632458e-02  -3.8105463e-01  -6.3030216e-01  -5.1951523e-01   4.6057623e-01  -8.0115988e-01  -1.8651292e-01  -5.2317157e-01  -8.4978553e-01   6.7907267e-01   1.9610722e-01  -1.0231483e-01   5.1975863e-01  -5.3894898e-01   7.7188023e-01  -8.7916984e-01   2.0523873e-01  -5.8407262e-03   5.2018446e-01  -7.2042945e-02  -3.6687904e-01   7.0310002e-01   4.7859009e-01  -1.1766141e-01   5.4960815e-01   8.9623276e-01  -9.8253687e-01   5.3483950e-01  -7.7808673e-01   9.7288133e-01   1.4213399e-01   8.2259614e-01   6.7274900e-01  -7.0502355e-01   1.6352263e-01   2.9147290e-01   9.6552262e-01  -5.9785166e-02  -5.6323724e-01   1.5540040e-02   2.2304176e-01  -3.6978358e-02  -4.9085556e-01   3.3000425e-01   6.7844651e-01  -9.7968148e-01   3.2598108e-01  -8.0635378e-01   2.8905029e-01  -4.2990853e-01  -9.3999890e-01   9.1758670e-01   6.5482054e-01  -4.4116914e-01  -6.6450478e-01  -5.0914644e-01  -4.3889997e-01  -4.2266599e-01  -4.4145024e-02   5.4601118e-01  -2.1906082e-01  -9.4028732e-01   9.6318616e-02   1.3856832e-01  -9.9236786e-01  -5.8188479e-01  -9.7830069e-01   3.6970702e-01  -4.9595428e-02  -4.6918205e-01   5.6467911e-01  -1.6511865e-01  -2.7354193e-01  -1.3810468e-01   9.9897366e-01  -8.4083131e-01   1.2451362e-01   4.9994413e-01  -9.5602089e-01   1.9425953e-01  -7.5057653e-01   3.4808806e-02  -6.8417559e-01   6.7686179e-01  -9.6472674e-01   7.2085778e-01   7.1078302e-01   8.1326955e-01   8.2531800e-01   8.2283371e-01  -4.5177528e-02  -2.2701513e-01  -9.0882014e-01   9.2256963e-01  -1.4682457e-01   3.9155858e-01   8.1731824e-01   4.8313169e-01   1.4156261e-01   2.2409901e-01  -6.8687579e-01  -9.7999070e-01  -5.4055632e-01   4.1939545e-01   4.0650395e-01  -3.2883118e-01  -3.0655519e-01   2.5616154e-01   5.8641895e-01  -8.6880505e-01  -9.0847055e-01  -6.9914430e-01  -9.0267159e-01   8.4335976e-01   9.1110414e-01  -5.8278350e-01  -5.9281106e-01  -2.8330183e-01   3.6246089e-01  -7.4177629e-01  -5.6858970e-02  -7.3638420e-01   9.1814171e-01   5.5125164e-01  -9.1017461e-02   5.6497448e-01  -2.9396960e-01  -5.9705204e-01   1.5442131e-02   1.7959554e-01   2.9620520e-01  -5.2037171e-01  -8.0392977e-01  -5.5281997e-01   6.8796893e-01   6.8991082e-01   6.4855412e-01   7.6796656e-01   8.4031034e-01  -4.3302378e-01   8.0251964e-01   7.4639237e-01  -9.3637627e-01  -2.9819168e-01   7.9629684e-01  -9.9408301e-01  -2.7390511e-01   3.2548272e-01   2.3922418e-01   3.3077225e-01   2.4915823e-02  -7.2044981e-01   3.1401233e-01   7.7730538e-02   3.4934258e-01   1.9504726e-01  -4.9390075e-01  -8.5164943e-01  -4.1317208e-01  -3.9597545e-01  -4.9352829e-01   7.2733803e-01  -6.6152010e-01   9.0925691e-01   8.3748771e-01   7.7831568e-01  -2.7049968e-01  -8.6122307e-01   8.9429397e-01   1.0608160e-02   4.8179858e-01  -5.7185935e-01   5.7296728e-01  -2.0991963e-02  -1.2453419e-01  -1.7429510e-01   3.5284523e-01  -5.2793838e-01  -5.6347566e-01  -5.9107809e-02  -6.0703612e-01  -5.0807786e-01  -6.3323157e-01   3.0333686e-02   2.1534850e-01  -2.2355565e-01   9.0594827e-01  -8.5884607e-01   5.3040695e-01   2.3872008e-01   4.6544576e-01   3.3810282e-01   3.4399791e-01   2.4839813e-01  -8.6095139e-01   2.5645820e-01  -1.9663269e-01  -3.1877157e-01   5.3084240e-01   9.0828680e-01   8.6274169e-01   2.6450480e-01   8.4186438e-01  -3.3011998e-01   8.7194907e-01   6.8059866e-01  -1.8673845e-01  -7.7375344e-01   9.1465666e-01   6.7082070e-02   5.4077024e-01  -7.9019243e-01   3.4266125e-01   8.7806156e-01  -8.8076458e-01  -4.7675721e-01  -6.8516504e-01   6.2791063e-01  -4.5647126e-01  -2.2910729e-02   5.9160366e-01  -7.1306735e-01   8.4216113e-01   9.2043843e-01   6.5470490e-01   7.8742538e-01  -1.2148161e-02   3.3290102e-01  -6.4515801e-01   3.2119291e-01   3.4176863e-01   6.2910586e-01   4.4083918e-01  -5.5959320e-01  -1.0084970e-01  -8.7288507e-01  -4.4814783e-01  -7.7509043e-01  -4.0395322e-01  -9.6887079e-01  -6.8839674e-01  -8.9602339e-01   3.9785980e-01  -6.8163287e-01  -5.4032561e-01  -6.4031903e-01  -4.8504483e-01   7.9976419e-01  -8.2111974e-01  -4.4591389e-01  -8.9889531e-01   5.0669858e-01   2.6731928e-01   3.2892701e-01   2.5826860e-01  -8.7564923e-01   7.5837298e-01   1.0176418e-01   1.5142569e-02   9.5785874e-01   3.6226191e-02  -6.5313114e-01  -3.4027453e-01   6.5199337e-01   8.2266309e-01   3.6401896e-01  -6.9410952e-01   3.0203017e-01  -6.3138494e-02   3.1669866e-02  -5.6130475e-01   5.9143727e-01   1.8174676e-01  -7.2812653e-02   8.1351589e-02  -2.0110408e-01   6.1592374e-02  -3.6255067e-01   1.7261026e-01   2.3382809e-01   2.1262036e-01   5.1887829e-01  -3.8251177e-01   1.8225453e-01  -4.2709153e-01
