   8.2812340e-01   8.4701824e-01   2.5587554e-01  -8.1099172e-01  -6.5308379e-02  -4.5969468e-01   8.1928180e-01   4.0662983e-01   8.7591783e-01  -2.3547401e-01  -4.2574594e-01   1.8429911e-02   2.6449764e-01  -3.8986965e-01   8.7644421e-01  -2.2634901e-01  -5.6299533e-01  -9.7260655e-01  -1.5780254e-01  -2.2577069e-01   9.2333124e-01   1.3369411e-02   4.4366726e-01  -5.8357156e-01  -5.5729685e-01  -3.3612512e-01   5.8243844e-01  -6.2886116e-01  -2.4758291e-01  -6.5272192e-01   8.2515702e-01   4.1835817e-01   4.3067643e-01   9.9680956e-01  -6.1012295e-01   3.8687644e-01   5.5336793e-01  -7.6220992e-01  -2.4995032e-02  -2.2423485e-01  -7.3805158e-01   6.8324259e-01   5.5366461e-01  -1.9584162e-01  -1.9332736e-01  -9.2921546e-02  -4.9640016e-01  -2.4406302e-01  -8.8097351e-01   4.7395375e-01  -8.0307135e-01   2.7448731e-01  -5.9431451e-01   8.6224717e-01   8.7126012e-01   5.5072907e-01   2.2399444e-01  -9.5283609e-01  -2.4146140e-01  -7.8969927e-01   7.6372587e-01  -1.6213434e-01   1.1031985e-01  -1.6045985e-01  -1.6932777e-01  -5.2988480e-02   2.4463858e-01  -2.7924867e-01  -5.3878719e-02  -5.3536616e-01   2.2665593e-01  -4.3768369e-01   4.4854670e-01  -8.7576546e-01   2.4846406e-01  -9.6573705e-02   5.3484649e-01   6.4388104e-01  -7.6117065e-01   2.8360201e-01   3.1234879e-01   9.0792051e-01  -7.9332962e-01  -8.9099207e-01   4.8559693e-01  -3.3391327e-01  -6.8039890e-01   6.8034525e-01  -5.2394743e-01   2.2886906e-01   5.9981370e-01   1.2880153e-01   1.4889306e-01  -4.2586539e-01   1.4553310e-01  -3.0074768e-01   4.3169848e-03  -4.6182449e-01   6.2557207e-01   2.6576054e-01  -6.8251964e-01  -3.4342380e-01  -8.1554176e-01   7.4390841e-01   8.8001838e-01   4.3756456e-01   1.1239191e-01   3.7098920e-01  -8.0880113e-01   8.8021423e-01   7.6412592e-01  -1.8398726e-01   6.1078422e-01   1.8492222e-03  -8.3114064e-01   6.5570081e-01   5.7775080e-01   6.1342613e-01   4.0264129e-01   2.1333014e-01  -6.3108365e-03  -2.0791859e-01   7.7745366e-01   5.0225204e-01   3.6887938e-01   3.4260786e-01   3.1433080e-01  -7.0183036e-01  -4.1480804e-01   3.9251430e-01   4.6855633e-01  -7.9138815e-01  -3.7196186e-01   6.6050318e-02  -5.8042942e-02   4.7732317e-01  -1.3952453e-01   1.0922239e-01   8.4447233e-01  -9.6448722e-01  -8.1475867e-01  -4.2023732e-01  -4.5893484e-02  -8.1337697e-01   3.8317629e-01   1.0191320e-01  -3.6839882e-01   4.4323435e-01   9.8896101e-01   6.4175645e-01   5.2810503e-01  -9.9631562e-01   4.1180565e-01  -2.2216196e-02   9.5660317e-01  -1.3705179e-01   3.6367594e-01   2.7257480e-01   7.6988784e-01  -2.0209926e-01   9.8776851e-01  -1.3997904e-02   3.0532882e-01  -9.4921026e-01   5.6564563e-01   7.6446147e-01   9.5076659e-01   6.7994299e-01  -2.0618236e-01   6.1124630e-01   5.1041314e-01  -1.9159098e-01   5.0742166e-01  -7.6516948e-01   2.3127292e-01   3.5219730e-01  -1.6522193e-01  -8.7073250e-01  -2.5691816e-01   9.7295141e-01  -4.5445823e-01  -8.6435826e-01   2.3930211e-01  -3.9318620e-01   1.3162077e-01  -4.7410939e-01   7.7252625e-01  -4.3246689e-01  -5.7338852e-01   8.9721514e-01  -6.7331472e-01  -8.0746452e-01   5.6342800e-01  -4.4897683e-01   7.5136923e-01  -6.8438592e-01  -4.0947777e-01  -6.1507028e-01  -1.5206633e-01  -8.9864237e-01  -7.7467315e-01   5.1994896e-01  -3.7404440e-01  -3.9997681e-01   5.2973137e-01   6.6025688e-01   7.6496049e-01   2.2559146e-01  -4.2360621e-03  -5.5123876e-01  -4.3626288e-01  -8.5947346e-01   2.1087973e-01   2.3319027e-01   5.3205713e-01   1.5989331e-01  -4.6614914e-01  -1.1894275e-01  -7.0809559e-01  -5.8018934e-01  -7.6306266e-01   1.7009188e-01   2.3245547e-01   5.2723915e-01  -1.2093058e-01  -1.9836764e-01  -6.5908479e-01  -8.8826953e-02   1.4271102e-01   7.4266423e-02  -4.4896193e-01   4.5098505e-02  -9.4008491e-02   4.0920576e-01   6.2399357e-01   6.0919303e-01   5.1513086e-01  -1.3823961e-01  -1.2222241e-02   1.5851275e-01   6.6507210e-01   3.9586637e-01  -9.8523896e-01  -4.0486068e-01  -4.9596130e-01  -1.5482950e-01  -2.6805207e-01   6.5328918e-01  -3.3978234e-01   1.2117028e-01   2.3746154e-01  -9.9927163e-01   3.0938269e-01  -5.0094685e-01  -1.9552095e-01   3.2676201e-01   5.2762402e-02  -4.2617642e-01  -9.1361527e-01   3.8311120e-01   2.1646456e-01  -7.1593596e-02  -7.2998847e-01  -8.0827456e-01   2.6781876e-01   5.9281033e-01   6.6795428e-01   8.3694049e-01  -2.2517039e-01  -8.9795644e-01  -4.0353876e-01   3.9544543e-01  -9.3379914e-01   6.0235918e-01  -3.1207786e-01   9.9073021e-01   2.5729081e-01   5.7579601e-01  -1.5723120e-01  -4.2603419e-01   6.3079924e-01  -1.6757461e-01   7.5171920e-01  -8.8047099e-01   5.5254155e-01   4.4408252e-01  -1.6744664e-01  -5.1639854e-03  -6.5001007e-01   7.3784835e-01  -2.7169972e-01  -2.8040782e-01  -7.1645121e-02  -5.3867893e-01  -9.6905201e-01   1.7238439e-01  -1.1561429e-01  -1.9694042e-02   5.2271533e-01   7.1940647e-01  -4.1343945e-01  -5.5764540e-01  -7.5863569e-01  -9.1717893e-01  -9.3504398e-01  -7.9225335e-01   6.2143319e-02   1.5447952e-01  -4.9252647e-01  -8.0347143e-01   3.4238409e-01   4.1447136e-01  -3.2367033e-01   1.0632479e-01   5.6760429e-01   1.1367063e-01  -5.9411993e-01  -7.7989443e-01  -8.9097196e-01   5.0337242e-01  -1.4068134e-01   1.2783190e-01  -8.7828677e-01   3.2735339e-01   3.6132488e-01  -9.9212544e-01   9.2516310e-01  -1.4118746e-01   2.7528418e-01   3.8138208e-01   3.0259626e-01   4.1979826e-01   4.4881863e-01  -2.3532474e-01  -4.9423408e-01  -5.0347970e-02  -4.2294054e-01   2.7330373e-01   9.4170992e-01  -9.4210012e-01   2.5755530e-01   9.0104980e-01  -4.3517713e-01   8.5753335e-01  -6.9854770e-01   9.7338243e-01  -3.0671100e-01   8.5099463e-01  -6.6402583e-01  -3.1590748e-01   6.3835974e-01   7.8176473e-01   1.2060237e-01   7.6302193e-01  -7.9456024e-01  -1.1796332e-01  -7.0525239e-01  -7.2952886e-01  -9.7673683e-01   8.3610058e-02   8.5460214e-01   4.0509270e-02  -5.1379018e-01  -6.6594357e-01  -4.2568701e-01  -2.3243485e-01   3.8652613e-01  -7.5107052e-01   2.5736407e-01  -3.6552702e-01   8.5374076e-01  -8.9130422e-01  -6.9965353e-01  -5.7136730e-01  -5.3547028e-01  -2.6540126e-01   1.0567641e-01   9.3431018e-01   7.4465995e-04  -6.2227186e-02   7.3614473e-02  -5.6876523e-01  -2.5997588e-01   8.9147572e-01  -1.2728721e-01  -1.5929912e-01  -1.2338555e-01  -5.8292910e-01   6.0489031e-01   5.1073324e-02  -4.6125442e-01  -3.5560095e-01  -5.7708806e-01   8.9525642e-01  -4.1929503e-01  -3.1704960e-01   9.1648784e-01  -2.4610333e-01  -2.4371999e-01   2.5870842e-01   7.4166983e-01   9.7186266e-01   7.8213251e-01  -3.0540646e-01   8.4454065e-01  -3.6459430e-01   6.5832162e-02  -9.1799731e-01  -7.8617922e-01   8.8116048e-01   1.2775007e-01  -8.0141909e-01  -5.1955335e-01  -7.5942523e-01  -2.1956730e-01  -6.0295909e-01  -8.6787736e-01   9.8980887e-01   7.6165577e-01   6.3583850e-01  -8.2445231e-01  -4.3626674e-01   5.3602627e-01  -5.4325885e-01  -6.1237312e-01   7.5410193e-02  -9.5623889e-02   9.5696413e-01  -1.7770481e-02  -4.1620905e-01   7.3811060e-01  -4.6262667e-01   9.8413028e-01  -7.2376934e-01   9.9372386e-01  -7.1897111e-01   9.1558920e-02   5.8780096e-01  -5.9534548e-01  -1.0135547e-01  -5.5477102e-02  -3.0588003e-01  -4.2925273e-01  -4.4075233e-01   6.2369097e-01   4.8156579e-01   9.5798565e-01   6.8794367e-01  -3.8201529e-01  -9.5938855e-01   8.1361166e-01   8.9997699e-01   3.9037776e-01  -8.6049877e-01   3.0876947e-01   7.4670301e-01   5.1906191e-01   6.3183729e-01  -8.4613981e-01  -1.5715023e-01  -2.4002679e-01   7.2566447e-01  -7.6228409e-01  -3.5736013e-02   9.1800923e-01  -8.2343805e-02  -6.1453053e-01  -5.8453917e-02   7.3183978e-02  -6.3094685e-01  -3.2791022e-01  -8.3520884e-01  -8.8256347e-01  -5.2543388e-01   7.5595190e-01   8.1186321e-01  -8.5046865e-01  -7.6969295e-01   5.3566448e-01  -6.6633055e-01  -2.2901066e-01  -3.6052478e-01  -2.1820820e-01  -1.8654832e-01   5.3271582e-01   9.3184153e-01  -8.6176120e-02  -6.6013879e-01  -3.8046318e-01  -4.4643279e-01   2.6658487e-01  -4.3145807e-01  -1.8408148e-01  -3.4389297e-01  -6.8874905e-01   1.9171414e-01  -4.4352690e-02   6.8739774e-01   9.2886233e-01  -6.9451106e-01   8.0789180e-01   9.2482850e-01  -7.6720661e-01  -1.8713631e-01  -2.7434327e-01   5.8466785e-01   6.6857540e-01  -6.8981746e-01   4.6085540e-01  -3.9928555e-01  -9.5193958e-01  -2.2889736e-01   6.0560278e-01  -7.3408847e-01  -5.4211236e-01  -1.6633133e-01  -6.3161721e-01  -1.3791942e-01  -8.6152977e-01  -4.6216450e-01   4.3651456e-01   8.5584726e-01   8.8332020e-01  -6.2921659e-02  -8.1755498e-01   8.0781676e-01   5.4849509e-01  -4.7033507e-02  -9.8904904e-01  -3.5351920e-01   3.3833769e-02   9.9479568e-03  -8.5988200e-01   6.6910730e-01  -4.6771339e-01  -5.4510468e-01   4.1247073e-01  -2.5937257e-01  -5.8106579e-01  -5.0214139e-01   9.1448047e-01  -2.9757712e-01  -6.8649929e-01  -1.1286599e-01   1.8015034e-01  -6.0243498e-01  -1.9938322e-01  -2.9401367e-01   4.7825353e-01   8.0469496e-01   9.9655970e-01   5.7268654e-01  -2.3270865e-01   1.6956056e-02   9.3977992e-01  -8.2977509e-01  -9.6668495e-01   9.5233955e-01  -4.0269058e-02   1.0892259e-01  -6.8590499e-01   1.1318409e-01  -5.2736296e-01   3.4270965e-01  -2.4660749e-01   3.9279321e-01  -2.1549462e-01  -5.4325873e-01   8.3637429e-01  -4.6416385e-01  -2.7949495e-01  -2.4982120e-01   5.0487274e-02  -2.9725737e-01  -1.8633957e-01   6.4152782e-01   4.5789091e-01  -2.4924562e-01   7.4525754e-01  -8.3018486e-01  -5.2198820e-01  -8.0821779e-01  -2.8872720e-01  -6.3495712e-01  -3.2685127e-01  -1.2137525e-02  -8.5889236e-01  -6.8964354e-01   9.2990937e-01   9.6348487e-02  -1.3875355e-01   9.0949472e-01   5.2923368e-01  -1.3980637e-01   7.7415747e-01  -7.8486838e-01   3.1380836e-01   3.3768801e-01  -5.2348293e-01   4.6358998e-01   7.6981707e-02  -9.2020949e-01   3.5382737e-01  -4.8928851e-02  -3.2035036e-01  -5.8479767e-01  -5.4277385e-01  -1.6030349e-01  -3.2978374e-01   5.9736500e-01   1.6340485e-01  -9.7555246e-01  -4.6772914e-01  -4.3803624e-01   5.0855857e-01  -2.1556609e-01   4.9449931e-01  -3.4409643e-01   3.3858076e-02   2.1906864e-02  -1.6791003e-01   3.7413117e-01  -8.0781943e-01   1.2208251e-01   3.6485520e-01   1.1516157e-01  -5.4722204e-02   2.9888756e-01   8.2473394e-01   4.5865958e-01   8.2690967e-01  -2.7418289e-01  -4.6138595e-01  -7.4450258e-01  -7.2213946e-01   4.7957704e-01  -4.4931524e-01   2.7665979e-02  -8.0230536e-01   1.3216828e-01  -7.8511533e-01   7.8649816e-01   5.8411717e-01  -4.7793324e-01  -1.9342856e-01   1.1804589e-01  -1.3027199e-01  -5.3489473e-01   2.7707114e-01   9.0187268e-01  -6.4441788e-01   4.3836210e-01  -4.6727378e-01   9.4357854e-01   7.7033790e-01  -8.4138463e-01   3.0855714e-01  -9.9090172e-01  -7.0927414e-01  -9.4705345e-01   2.0177214e-01  -4.3772095e-03  -5.7047174e-02  -9.0519987e-01   7.0301434e-01  -6.6792462e-01  -4.6573590e-01   1.6690522e-01   6.9475317e-01  -6.2789043e-01   6.7591866e-01  -8.3719215e-01  -5.7712622e-02  -9.1584072e-01  -5.4515542e-01   5.3481720e-01  -1.9520212e-01  -6.4785403e-01  -9.0229688e-01  -2.5705228e-01  -4.9195254e-01  -1.2154405e-01  -7.9693645e-01   9.8326600e-01  -3.3676992e-01  -4.2799852e-01  -6.6408190e-01   3.1751779e-01  -5.1808715e-01   4.7354225e-01   3.6042133e-01   4.8784766e-01   1.8089832e-01   4.6369751e-02  -7.8408906e-01  -2.6319027e-01  -8.1148870e-01  -1.4006311e-01   7.9875227e-01  -5.9790207e-01  -2.1125629e-01   9.6874044e-01  -5.9332699e-01   2.2804054e-01  -2.6956971e-01  -6.2979515e-01  -6.4079622e-01   9.6847892e-01  -2.3399587e-01  -3.6491334e-01  -9.6418989e-01  -4.6074604e-01   1.1291928e-01   4.0436665e-01   5.0860164e-01  -7.4261610e-01  -4.0173981e-01  -1.8937480e-01  -3.1087890e-01   2.8142435e-01  -5.0642451e-01  -2.5346795e-02  -4.4380085e-01   1.3648970e-01  -2.5929098e-02   7.1893619e-01   7.1085207e-01   5.8398767e-01   2.8027362e-01   3.8106441e-01  -3.3271701e-01   3.7424215e-01  -6.1638223e-01  -1.9651092e-02  -3.3810780e-01   8.3416585e-01  -6.2746983e-01  -6.5556764e-01  -9.3392561e-01   6.8022455e-01  -7.1054368e-01  -3.4790386e-01   3.6624288e-01  -2.6331846e-01   6.7264924e-01   1.1612726e-01  -6.4011627e-01  -8.4567390e-01   6.8117600e-01   5.4371949e-01   3.9284775e-01  -2.7156206e-01  -4.2835045e-02  -9.1486752e-01   8.4585714e-01   1.4474769e-01  -3.1676643e-01  -5.8010085e-02   3.5116399e-01   7.8505641e-01  -5.1804603e-01  -8.5313837e-01   3.9954450e-01   6.4915469e-01  -8.8340384e-01  -6.8756511e-01  -6.5437454e-01  -2.8271541e-01  -2.5095987e-01  -4.5044388e-01  -2.8007302e-01  -1.2196879e-01   2.9478294e-01  -5.8805323e-01  -8.8823213e-01   3.0482030e-01   8.3499179e-01   5.3429878e-01  -5.7728689e-01   8.5868510e-01   8.6300614e-01  -5.0320615e-01   5.0237929e-01   5.7989799e-01  -2.7975327e-01  -9.4838125e-01   1.4186945e-01  -3.8573202e-01  -8.5258299e-01  -4.9140452e-01   1.3330683e-01   1.5370645e-02   3.6517750e-01  -6.4581791e-01  -4.1845891e-01   9.0869379e-01   9.1939349e-01  -3.3254618e-01  -3.7710574e-01  -5.4629776e-01   8.3420346e-01   1.3413735e-01   8.2906839e-01  -9.5251980e-01   5.0677771e-02  -7.7900930e-01  -8.7853083e-02   7.9939664e-01  -1.7284518e-01  -1.6614860e-01   7.1659258e-01   2.8424854e-01  -3.2333933e-01   2.7614560e-01  -8.1705840e-01  -1.9218738e-01   7.6280427e-01   7.3729109e-01   5.2315325e-02  -1.0565754e-01  -4.1533854e-01  -4.1895008e-01   1.0776315e-01  -6.5936865e-02  -4.7322610e-01  -9.5664929e-01  -4.1370420e-01   4.3567386e-01  -2.6616389e-01   4.2381927e-01   6.7225339e-01   6.0287826e-01   3.1204317e-01   9.1100816e-01  -4.6735842e-01  -1.1416517e-01   2.8751755e-01   5.8103288e-01   4.3398608e-01   5.0837190e-01   3.5785648e-01  -8.1808937e-01   2.8188346e-01  -9.6783639e-01   4.9546849e-01  -1.2190812e-01   3.4096634e-01  -3.6195301e-01   8.2061826e-01   3.2761559e-01   9.1846952e-01   2.1397835e-01  -9.8183870e-03  -9.8091001e-01  -8.6183145e-01   9.1615057e-01  -1.2364668e-01  -8.2784089e-01  -4.9722892e-01  -4.9738356e-02  -1.6469091e-01   1.6273555e-01  -5.0712860e-01  -7.3426056e-01   2.8325585e-01  -4.4297127e-01  -2.5152552e-01   5.8178867e-01  -7.2239287e-01  -8.4811296e-01  -5.7162952e-01  -6.2832002e-01  -1.4944638e-01  -2.6863984e-02   7.7520960e-01  -1.1047540e-02   4.3306131e-01   1.4160982e-01   4.6847739e-01  -7.7533715e-01  -4.6536597e-01   8.8251757e-01  -1.8849205e-01   9.9912144e-01   9.4452654e-01  -1.9702897e-01   7.8815326e-01  -3.1851781e-01   3.3256112e-01  -7.7197306e-01   5.5651775e-01  -4.2744582e-01   8.9236124e-01  -8.4209341e-01   5.3381486e-01   7.1627462e-01   4.9872189e-01  -7.8537808e-01  -7.1082400e-01  -1.9070613e-01   2.6969184e-01  -4.4944587e-01  -2.7019102e-01   5.2057730e-01   3.2086256e-01   8.5404184e-01   7.5056277e-01   7.5372997e-01  -8.9861445e-01   6.2354469e-01   7.8146979e-01   2.0929730e-02  -4.0843634e-02   6.4200893e-01   5.0041611e-01   6.2149593e-01  -8.8806238e-01   8.9640338e-01   3.5761174e-01  -2.5907145e-01  -3.4212436e-01  -2.4624283e-01  -2.3637091e-01   7.4794822e-01   4.3484737e-01   8.7539256e-01  -5.0529579e-01  -1.3337615e-01  -6.3595756e-01   4.4975336e-01  -3.0865508e-01  -7.7276984e-01  -7.9859020e-01   1.1536731e-01   6.3450947e-01  -9.1600412e-01   9.4747387e-01  -9.3856992e-01   2.1246578e-01  -1.0974583e-01   5.9283812e-02   3.7822424e-01  -5.9400161e-01  -9.5527781e-01  -4.2046968e-02   6.0910130e-01  -8.8187748e-01   2.5188966e-01  -8.3129192e-01   1.1682318e-01   1.2762249e-01   6.3479691e-03  -3.3329696e-01  -5.0444924e-01   3.7195540e-01   3.3636974e-01  -6.1195501e-01   2.3401438e-01  -9.6632039e-01   2.5114548e-01  -4.0884293e-01  -3.2094406e-01  -7.8852517e-04   1.6524729e-01   3.6364939e-01  -6.8958281e-01  -8.2252612e-01  -6.6942510e-01  -4.7363523e-02   8.4976489e-01   8.0547406e-01   3.4137228e-01   5.2837339e-01   4.6745131e-01  -5.9462693e-01  -7.3190148e-02  -4.3636093e-02  -7.9451297e-01  -7.6774959e-01   9.2458195e-01   9.4855579e-01   3.9171395e-02   8.5158080e-01  -2.0330038e-01  -3.3377649e-01  -6.5782929e-01  -1.4889802e-01   8.1045873e-01   6.3357495e-01  -2.4038022e-01   1.5566885e-01   5.6054051e-01  -2.0967138e-01   1.6257951e-01  -6.4536206e-01   8.0120874e-01   1.9063074e-01  -6.6142108e-01  -8.0950381e-01   4.5774771e-01
  -5.3375172e-01  -3.0473639e-01  -7.1462767e-02   5.2479135e-01  -4.9229744e-01   1.6533401e-01  -6.8829932e-01  -8.3107579e-01   4.1164409e-01  -1.5809664e-01  -5.9995283e-01  -6.8012137e-01   3.9861067e-01   4.6905702e-01  -7.3867410e-01  -1.7617659e-01  -5.0982531e-01   6.5303263e-01   5.9728721e-01  -9.0771381e-01  -7.0074178e-01   4.8780100e-02  -2.0248021e-02   5.9457030e-01  -1.3796709e-01   3.9945581e-02  -4.6025705e-01   7.5452264e-01  -7.6418930e-01  -2.3193392e-01   7.1448860e-01   4.7219078e-01  -6.1663166e-01   1.7025235e-01  -2.7388759e-02   3.4602651e-01  -7.2718803e-01   1.1948668e-01  -7.5467662e-01   6.0849775e-01  -8.4139728e-01   2.5801731e-01   7.2497281e-01   4.6417527e-01   3.1756329e-01   7.4456889e-01  -1.5362142e-01   4.2618894e-02   2.8639723e-01   3.5859958e-02  -2.1254490e-01   1.6187696e-01  -2.5466150e-01   5.1697190e-01   4.4725031e-01  -7.3138948e-01  -5.7203930e-01  -1.9185025e-01  -1.5074043e-02   6.0050695e-01   4.7655909e-01   4.4434930e-01   9.8279079e-01  -2.8425380e-01   4.7986930e-01  -9.9170743e-01   1.1038023e-02   1.3163190e-01  -4.9978053e-02   1.4741314e-01  -7.2618184e-01  -3.8576759e-01   7.3070832e-01   4.8176729e-01  -7.0510486e-02  -1.9811550e-02   6.7018776e-01  -8.2162820e-01   2.3632116e-01   9.0843545e-01  -1.1147900e-01   1.2749670e-01   8.2507363e-01  -1.0115051e-02  -5.7160837e-01   7.9919237e-01   2.6791500e-02   4.2267591e-02   6.1022695e-01  -4.7460682e-01  -8.2391973e-01   1.9119610e-01  -7.0655939e-01   4.5159070e-01  -6.0401241e-01   6.3506979e-01  -9.5455904e-02  -9.7306691e-01  -5.2916340e-01  -3.9852422e-01   6.5361499e-01  -7.7499094e-01   5.6116177e-02  -5.9693949e-01   7.4118855e-01  -9.8676121e-01  -5.6780232e-01   9.6752108e-01   8.6862320e-01   3.2827366e-01   9.5018126e-01   8.7551293e-01   7.6101931e-01  -3.6440183e-01   3.1925281e-01   8.6833537e-01   3.9268272e-01  -3.9336557e-01  -6.0053219e-01   1.3770760e-01  -8.5656714e-01  -2.2114673e-01   2.0051330e-01   1.0875537e-01  -5.3554672e-01  -9.6120306e-01   1.0170128e-01   2.4420238e-01  -7.8988293e-01  -3.7489184e-01  -7.9162872e-01   4.0451159e-01  -2.8852053e-01  -5.1792767e-01   5.3423919e-01  -6.8456090e-01  -7.4366718e-01  -5.6545078e-01   4.1305430e-01  -5.7428103e-01  -1.4645649e-01   8.0368631e-01   1.3061937e-01   3.8877164e-01   8.8483069e-02  -9.7729817e-01   1.3055891e-01   3.2025723e-01  -7.3717749e-01  -3.0444926e-01   6.7321458e-01   6.2028523e-01  -5.7870803e-01   5.8541544e-01   8.5494135e-02   5.7840149e-01   8.1692239e-01   9.8634354e-01  -2.0131716e-01   7.3089389e-01   4.8169229e-01   1.7654318e-01   8.5802615e-01  -6.5893848e-01   9.4863307e-01   8.1720082e-01  -4.2767813e-01   7.6536799e-01   8.4318515e-01   2.2324544e-01  -7.4172594e-01   1.9204058e-01   9.8532881e-01  -8.0894840e-01   4.6610927e-01  -8.2844642e-01   5.7731700e-01   6.7296822e-01   3.2777684e-01  -5.5639416e-01  -1.1248956e-01  -1.7930609e-01   4.6558052e-01  -9.0273389e-01  -7.0088001e-01   3.6371658e-01   1.2940795e-01   9.4665886e-01   3.4766218e-01  -6.5296238e-01  -9.7981614e-01  -7.5975096e-01   7.5137773e-01  -5.8937531e-01  -3.7373481e-01  -8.4420135e-01  -8.4944748e-01   6.4816193e-01   6.2730723e-01  -4.0918303e-01   9.2385680e-01  -8.2258561e-01  -8.6943286e-01  -5.1112852e-02  -1.9846853e-01  -3.3153250e-01   2.0931382e-01   5.8211813e-01   4.1727311e-01   5.3170863e-01  -2.5157524e-01  -3.0276902e-01   8.3421458e-01  -6.4358643e-01  -8.7324310e-01   8.6463556e-01  -8.4073138e-01  -7.8511976e-01  -9.9276950e-01  -3.3542055e-01  -7.9406526e-01   7.9063874e-01  -5.1345120e-01   9.6116687e-01  -1.6891337e-01   8.7566761e-02   4.6358545e-01   2.9461792e-01   1.2252113e-01   7.9950039e-01   5.0452313e-01  -8.7485820e-01   4.6090576e-01  -9.7312703e-01   3.6427637e-01  -4.4364069e-01  -7.7247191e-01   1.3345406e-01   9.5706103e-01  -7.7086974e-01  -4.1573731e-01  -1.2145125e-01  -8.0626960e-01  -3.7262376e-01  -6.8783372e-01  -4.8195656e-01   2.7813600e-01  -1.1250560e-01  -7.1810474e-01   5.4982002e-01  -3.0545275e-01  -5.9435690e-01  -4.6253216e-02  -5.0268571e-01  -6.1063828e-01  -5.6107825e-01  -2.1336108e-01   9.7430931e-01  -6.3269227e-01   2.0054331e-01  -5.5957157e-01   7.0138767e-01   1.6886413e-01  -5.0285785e-02   1.7314438e-01   1.5571998e-01   3.2653517e-02   5.7289307e-01   1.0258842e-01  -7.8965919e-01   7.9893441e-01   2.2909520e-01   4.9573517e-01   8.4240737e-01  -8.5414871e-01   1.5496861e-02  -4.0275793e-01  -2.0389096e-01  -5.6764015e-01   9.9499561e-01  -5.2706991e-01  -3.7022739e-01   9.2487462e-01   1.8561293e-01  -1.3474074e-01  -4.2778577e-02  -2.5505633e-01  -8.7541220e-02   6.4048876e-01  -7.5598937e-01   9.1939436e-01  -2.0950486e-01  -3.6209556e-01   8.6788755e-01  -5.7214579e-01   6.4525056e-01   2.1584368e-01   7.5378821e-01  -5.6151398e-01  -9.5469504e-01  -4.7548417e-01   1.9839545e-01  -8.9171884e-01   2.6739402e-01   9.3430148e-01   3.0521945e-01  -1.8070925e-01   6.7322007e-01   8.3869333e-02  -6.8529680e-01  -4.8063863e-01   9.2383558e-01  -8.5769858e-01  -8.8675380e-01  -8.6495383e-01   7.1227327e-01  -6.7654751e-01  -7.6039692e-01  -1.8746394e-01   6.5746665e-01   6.8686592e-01   8.6891767e-01   3.2448207e-01  -5.6357681e-01  -5.2672159e-01  -3.3915286e-01  -3.6045777e-01  -5.1623772e-01   6.3067505e-01   4.5197238e-02  -7.8261457e-01   2.4261167e-01  -2.2306323e-01   9.0545975e-01   8.0495249e-02   8.8658296e-01  -2.4387644e-01   8.2729500e-01   1.4322502e-01  -9.4285458e-02   9.7903586e-01   8.5268086e-02  -3.7862943e-01   1.5091636e-01   3.4617235e-01  -5.0963492e-01   6.7783093e-02   3.5287452e-01  -6.7891363e-01  -6.6086494e-01  -4.4611210e-01   5.6484615e-01  -8.8248010e-01   6.2499763e-01   3.3587602e-01   5.9259817e-01  -5.1583936e-01  -1.6091147e-01   6.8552363e-01   2.5212634e-01  -8.9521090e-01   2.4543584e-01  -4.8710601e-01   8.3871641e-01   4.2272740e-01  -6.4834409e-01  -9.3561770e-01  -8.6364587e-01  -7.5791232e-01   5.7048039e-01   1.5677590e-01   8.2723456e-01  -9.9002243e-02  -5.1870316e-01   3.5838780e-01   4.9891956e-01  -8.1020029e-01   6.7776924e-01  -9.9066687e-01  -2.5845170e-01  -3.6801065e-01  -7.7134512e-01  -4.9097466e-01   2.4316708e-01  -2.4324523e-01  -3.4653918e-01  -4.2303547e-01   4.0579128e-01  -6.8650652e-01   5.5389024e-01   4.5996002e-02  -4.7568727e-01  -4.6331535e-01  -9.4273498e-01   7.3636493e-01  -7.2148443e-01   7.3083636e-01  -3.7678962e-01  -2.1229970e-01  -4.0884903e-01  -4.8652516e-01   5.3190316e-01  -4.9668714e-01  -6.7043897e-01  -2.1636527e-01  -6.3759313e-01  -8.2255372e-01  -6.4570180e-01  -4.8719214e-02  -4.2356189e-01   7.5485857e-01  -1.4861463e-01  -9.7998687e-01  -5.3445956e-01   1.0503584e-02  -9.7100378e-01  -4.2338040e-01  -3.1083159e-01   5.7529827e-01   8.6618143e-01   6.4477657e-01  -8.8043393e-02  -3.4254321e-01   4.1546501e-01  -9.6698463e-02   4.6562305e-01  -2.1128899e-01   6.2805608e-01  -9.5482750e-01   8.3404895e-02   8.2236520e-01  -8.8450128e-01   4.1285504e-01  -4.8392828e-01  -2.4784958e-01  -3.5406263e-01  -7.0822172e-01  -9.0108842e-01  -1.3255688e-01   5.7891346e-01   7.2718716e-01  -8.2870056e-01   9.5022723e-01   6.2822863e-01   6.4109497e-01  -4.0581899e-01   3.8005747e-02   4.0785707e-02   1.0575295e-01  -3.7189501e-02  -1.0592068e-01  -1.8422518e-01   7.6940198e-02  -1.9823665e-01   6.7669176e-01   4.5678769e-01   8.1783674e-01  -8.0207061e-01  -5.7572395e-01   6.5426984e-01  -7.2553096e-03   2.1291946e-01  -8.5144759e-01  -4.7675208e-01   3.5072227e-01   1.1838572e-01  -7.8019964e-01  -6.5677621e-01   6.8450134e-01   7.6133973e-01  -5.0819550e-02   1.3041832e-01   9.0328188e-01  -3.7122122e-01  -7.9137473e-01  -1.2348711e-01   8.6495322e-01   8.3408945e-01   8.6874297e-01  -7.3088236e-02   8.4399927e-01  -3.3035548e-01  -7.4704187e-01   1.6415464e-01  -1.4750855e-01  -9.3758571e-01  -2.6756331e-01  -4.7173620e-01  -7.8848210e-01   3.4648179e-01  -2.7238558e-01   9.7572274e-01  -8.8996726e-01  -9.2612432e-01  -9.3272917e-01  -3.2204143e-01  -8.7927258e-01  -7.9837480e-01   5.7427610e-01  -1.3266299e-01  -4.3958724e-01  -9.4670468e-01  -4.6746386e-01  -9.4448361e-02  -1.6493761e-01  -8.4936311e-01   3.2089467e-01   2.5738806e-01  -4.7607334e-01   9.0272124e-01   4.9698910e-01  -6.5410389e-01  -9.4079307e-01   6.1733338e-01   9.6529404e-01  -6.2132189e-02  -1.6416086e-01   3.6036804e-01  -4.1842992e-01   5.9979879e-02  -9.4010940e-01  -6.5740372e-01   4.0633915e-01   4.3803081e-01  -6.9147912e-01  -6.9020405e-01   9.0660408e-01  -9.1381608e-01   4.5194362e-01  -9.4087607e-01   5.8696159e-01  -3.0491837e-01   3.7834890e-01   5.1521342e-01   4.6703018e-01   3.3733510e-02   7.9503832e-01  -9.1541639e-01   1.8891387e-01   2.4381469e-02   4.7199974e-01  -1.4357889e-01  -6.2478434e-01   5.6292341e-01   9.9880499e-01   6.9786827e-01   2.3589213e-01  -9.3465980e-01   1.9446687e-01  -3.9048550e-01   7.9528563e-01   4.0282269e-01   9.3913803e-01  -2.8249960e-01  -8.2962968e-01   8.2741693e-01   2.4961747e-01  -4.1730129e-01  -5.8797925e-01  -3.5727042e-01  -5.8832131e-02   3.5748781e-01   3.5470482e-01   3.8206962e-01   3.3004722e-01   4.7567856e-02  -2.0525355e-02   2.8917201e-01  -1.9517433e-01   2.7691637e-01  -8.8579980e-01  -3.5125664e-02   7.0484838e-01   6.1860996e-01   1.6528421e-01  -4.0875361e-01   6.9634095e-01   3.2615389e-01   4.9670286e-02   8.4700470e-01  -4.7152281e-01   7.8282012e-01  -8.5994337e-01  -3.0867208e-01  -3.7328265e-01   4.8269716e-01   9.1710321e-01   5.6412952e-01   6.2035625e-02   6.8294317e-01   4.0900699e-01   7.5959408e-01   3.0630537e-01   2.7053755e-01  -5.5390137e-01  -8.7496248e-02   9.1317632e-01   8.2283325e-01  -7.9153201e-01   6.7252705e-01   3.9615349e-01   5.2345136e-01  -1.8302956e-01  -5.2162564e-02   1.5654225e-01   9.2258847e-01  -1.4392181e-01   3.1875538e-01  -2.9252210e-01   5.1595968e-01  -4.0502458e-02   6.9900693e-01  -6.0910484e-01   5.9011166e-01   9.1849074e-01   6.9562946e-01   6.1628135e-01  -8.4252463e-01   4.0297503e-01   7.1597730e-01  -5.6190843e-01   7.5774172e-01   4.3739164e-01  -3.6902973e-01  -3.4725410e-02   1.8583411e-01   2.0134505e-01   3.3357889e-01   8.8977344e-02   1.5230337e-01   5.5322033e-01  -7.6814979e-01  -9.4149392e-01  -9.8982349e-01  -9.6798057e-01   5.1985023e-01   1.3589361e-01  -2.1443548e-01   9.3195872e-01   5.0077038e-01  -9.5930616e-01   2.6214504e-01  -3.6467583e-01  -9.4079499e-01  -9.0761481e-01   1.8016311e-01  -6.3462855e-01  -9.5959375e-01   8.6205950e-01  -6.3505024e-01  -7.4534243e-02   2.9901709e-01   9.9396936e-01  -6.3647249e-01  -4.3121038e-01  -1.1172543e-01  -2.4920116e-01   1.8178210e-01   5.2711931e-01  -8.4295456e-01   8.2112978e-01  -9.8428496e-01   8.0157491e-01  -5.4430196e-01   8.8442010e-01   5.6818250e-01   9.5833557e-01  -3.7809713e-01  -5.7350438e-01  -4.0520743e-01   7.7932631e-01   7.3037132e-01   5.4237427e-01  -1.4883518e-01  -7.5217206e-01  -7.8880752e-01  -6.6166468e-01  -7.5973189e-01   9.0161387e-01   8.6873289e-01  -7.9160299e-01   1.1324083e-02   2.5221353e-01  -8.0163836e-01   8.8320517e-01  -1.8326764e-01   1.3323279e-01  -2.6012826e-01   5.4509791e-01   2.3912902e-01  -6.0372897e-01  -6.7940458e-01  -9.3706794e-01   2.7551791e-01  -9.8373914e-01  -9.4637049e-01  -8.9144659e-01   7.4678372e-01   3.3708047e-01   6.6305084e-01  -5.2169978e-01   8.9861172e-01   6.0126184e-01  -7.0729545e-01   1.5666583e-01  -6.7264658e-02   9.3839260e-01  -5.5790656e-01   7.9588520e-01   8.3251225e-01   8.3151104e-02   1.3081531e-01  -7.8515402e-01   8.1231253e-02  -5.3418243e-01  -5.0182153e-01   1.7103963e-01  -1.5643252e-01   1.5405978e-01  -9.7429700e-01   8.9653861e-01  -1.4584163e-01   7.6103259e-01  -8.4083832e-02  -7.6257623e-01  -9.6929100e-01  -3.8238574e-01  -6.5709859e-01  -2.3327692e-01   5.4844645e-01   6.2948797e-01   4.8569106e-01  -8.9275942e-02  -7.9759070e-01  -1.9084369e-01  -2.5250037e-01  -5.6817770e-01  -1.6626255e-01  -6.1355689e-03   3.2544782e-01   7.8389398e-01   1.1066628e-01  -2.7655864e-01  -8.1333557e-01   8.0944705e-01  -9.8025547e-01   9.4646511e-01   3.9689711e-01   6.1431858e-01   8.2425436e-01  -7.3196835e-01   8.3456534e-02   3.9146339e-01  -2.5484174e-01   4.9806401e-01  -2.3887228e-01  -6.9099095e-01   8.0789984e-01  -8.0216421e-01   3.8305903e-02  -6.7400333e-01  -4.4200644e-01  -4.3502061e-01  -1.4739318e-01  -2.3075237e-01   3.2224618e-01  -2.2783646e-01   2.0070735e-01   8.8459339e-01   2.1044398e-01  -6.9562780e-01   6.1574018e-01   6.5973148e-01   8.8477134e-01  -1.7732485e-01  -8.1784587e-01  -1.9484425e-02   7.8356280e-01   4.5774102e-01  -6.2859040e-01   9.7514279e-01  -5.5065669e-01   9.5814014e-01   2.9598956e-01   9.4972156e-01   1.3423271e-01  -4.2782076e-01   6.3660811e-01   5.7903200e-01  -9.4906167e-01   8.3549607e-01  -7.4099327e-01   8.4848762e-01   2.1169650e-03   4.6946601e-01  -8.4535872e-01  -7.8227140e-01   8.7037296e-01   1.4070336e-01   2.7837272e-01  -6.0217965e-01  -2.8231062e-02  -8.9097749e-01   1.7788421e-01   1.7845694e-01   6.5489665e-01   9.0202731e-01  -5.0147559e-01   4.5669449e-01   4.7410896e-01   8.3278841e-01   6.4744921e-02   5.2149354e-01   7.2219361e-01   8.0489231e-02   3.4202334e-01   4.4646588e-01   2.8995137e-01  -8.6283937e-02   6.8951854e-01   4.2654848e-01  -4.1891098e-01   8.3097730e-01   9.1164541e-01  -9.5438838e-01   9.5734886e-01   9.9599816e-01  -2.1506912e-02   3.3887572e-02  -7.2020086e-01  -5.7104764e-01  -3.5989448e-01   9.9076666e-01  -5.0314060e-01   7.5118209e-02  -3.9446807e-01   3.1474131e-01  -6.6341896e-01   3.3616727e-01  -4.1818167e-01   6.0985680e-01  -5.4072003e-01   9.9286664e-01  -3.7756918e-01   6.9391490e-02  -4.5166228e-01   5.1680578e-01   2.0777565e-01  -4.5233705e-01  -2.7726509e-01  -7.8495572e-01  -3.6394021e-01   4.3315357e-01   9.1199150e-01  -6.8552888e-01  -5.4580759e-01   4.3462050e-01   3.9529725e-01  -6.2014733e-01  -4.8577054e-01  -3.6071281e-02   1.8884307e-01  -3.6527488e-02   3.0158739e-01   6.8066766e-01  -5.4785131e-01   8.2772170e-01   7.2577502e-01   9.7422696e-01   6.5841553e-01   5.3849463e-01  -9.4407744e-01  -2.8641788e-01   5.7247792e-01   8.8122368e-01   1.8729722e-01   1.8233863e-01   5.8416828e-01   9.0009380e-01   3.7728388e-01  -7.2204564e-02  -5.2520082e-01  -7.7235838e-01  -8.0793454e-01   8.3396607e-01  -7.4494668e-01  -4.2701655e-01   9.3913963e-01   5.4854665e-01  -6.2066182e-01   1.9737324e-01   2.9264980e-01   5.7867364e-01  -1.2111486e-01  -1.8025286e-01   3.5853172e-01  -2.4928347e-01  -8.8806342e-01  -1.9960574e-01  -5.3721143e-01   4.1670849e-01  -9.8173075e-01   2.5238737e-01  -8.0298389e-01  -8.8439256e-01   1.2308616e-01   5.5120568e-01   4.4877898e-01   3.0232929e-01   2.6957214e-01   5.7318792e-01  -9.7538300e-01  -1.7908842e-01  -9.2065280e-01  -8.5807815e-01   1.9177783e-01  -8.4863166e-01  -3.1775341e-01  -7.6593016e-01   9.4831076e-01   7.3383424e-01  -4.3829617e-01  -5.5532758e-01   7.3156954e-01  -8.0420205e-02  -8.9532105e-01   2.3080686e-01  -8.0860103e-01   4.8845306e-01   5.1678180e-01  -4.8164339e-01   1.7005872e-01  -5.1559258e-01  -5.4080511e-01   4.1767934e-02  -7.8301961e-01   3.9714231e-01   3.7182839e-01   3.7520661e-01  -6.9433200e-01  -8.8746858e-01   2.7688869e-01  -6.3500867e-01   1.0749894e-01   1.0740813e-01   4.7050633e-01  -7.7025025e-01  -4.4847286e-01  -7.7655892e-02   7.3662879e-01  -6.1390629e-01  -9.5775303e-01  -3.5756705e-02   6.1977797e-01   9.6783811e-01  -5.4608072e-01   5.1483914e-02  -6.5060474e-01   1.0038356e-01   4.1583914e-01   8.1113663e-01   4.3200951e-01  -9.0775601e-02  -2.6617066e-01   6.3557076e-01   2.1499423e-01   4.8330183e-01  -7.1914955e-01   6.5658329e-01  -7.0429625e-01  -3.1413334e-01  -2.4774405e-01  -2.2330299e-01  -7.9365795e-01  -1.0389267e-01   6.1698798e-01  -5.4157166e-01  -9.0460895e-02  -8.0988104e-03  -1.0574901e-01  -7.9499671e-01  -9.6480541e-01   8.7343498e-01   1.2257218e-01   8.2585184e-01  -2.3206373e-01   6.0022783e-01   1.3151008e-01  -1.1295683e-01   8.4796855e-01  -8.3727542e-01   4.9613012e-01  -8.1813722e-01  -1.7456266e-01  -7.9576760e-01  -4.2433184e-01  -6.2746148e-01  -8.2613608e-02  -9.8924951e-01  -5.5481476e-01
   9.0708376e-01   8.0368900e-01   7.5418304e-01  -4.7420955e-01   4.2325378e-01   1.6576290e-01   2.2803177e-01  -7.7807794e-01   1.2708564e-02   8.4379600e-01  -3.7257827e-01   4.2223027e-01  -2.8769204e-01   3.9294376e-01   8.9589138e-01   9.0497985e-01   4.3235802e-01   1.4347987e-01   4.6475621e-01   9.9402744e-01   8.2292166e-02   9.1884434e-01  -5.2698123e-02  -3.9066199e-01  -7.3932212e-01   2.9299687e-01  -1.9003380e-01  -1.3108909e-01   8.8646492e-01   4.2571919e-01  -1.7838425e-01  -7.0422833e-01  -2.5803559e-01   2.6925524e-01  -7.2408334e-01   2.1042193e-01  -5.6529509e-01  -4.5885914e-01   3.1622842e-01   2.6690672e-01   4.0406896e-01  -8.2601083e-01  -6.7800621e-01   5.7763843e-01   1.6678478e-01   6.5581391e-01   2.3662164e-01   1.1696460e-01   5.9733707e-01   5.7374453e-01   1.8627624e-01  -1.2508837e-01  -8.5168412e-01   3.0569510e-01   8.8501869e-01   6.3997973e-01   4.6301347e-01  -4.7277470e-02   5.3789768e-01  -2.7139666e-01   6.8423672e-01  -9.1592648e-01   1.0472775e-01   5.6710230e-01  -3.9059414e-01  -6.6387146e-01   6.5136848e-01  -7.5966372e-01   9.2204550e-01   2.7602088e-01   2.8353322e-01   5.2525405e-01  -1.0458527e-01  -2.9243091e-01  -1.6285813e-01  -5.5121733e-01  -5.3534337e-01  -2.2190352e-01   7.7080008e-01   8.9772078e-01   7.8349190e-01  -4.9380004e-02  -1.4393675e-01  -5.6980169e-01   2.7955712e-01  -3.8730000e-01  -6.3007767e-02  -5.2065376e-01  -1.3326926e-01  -2.1597614e-01  -2.6968812e-01   2.2508385e-01   2.8107232e-01   2.0002941e-01  -4.9826302e-01   2.4704434e-01   6.1403501e-01  -3.6740823e-01  -5.6302045e-01   4.1834988e-01  -8.4658619e-01   8.4243139e-01   9.0878934e-02  -8.1905778e-01   7.4517718e-01   5.8805039e-01  -5.1477710e-02  -2.7874091e-01  -3.2641276e-01  -3.1870549e-01  -4.7187096e-01   8.6969107e-01  -1.3528845e-01   1.5981238e-01  -4.9610686e-01  -5.1213397e-01  -8.7172890e-01  -2.2921232e-02  -3.2620085e-01  -2.8770550e-01  -1.3533387e-01   6.3417039e-01   2.7475253e-01   3.3110409e-01   8.8160593e-01  -1.2917890e-01   9.2068094e-01  -9.7310714e-01   4.0226184e-01  -8.7898468e-01   3.3145799e-01  -5.0512412e-01   4.6042019e-02   8.4903721e-01  -4.5192069e-01  -3.3268077e-01  -1.9759042e-01   2.6637187e-02  -2.9464347e-02  -7.1579472e-01  -8.2731050e-01  -5.1213019e-01   9.4377778e-01   4.6070150e-01   4.5835819e-01   2.8822841e-01   4.3050642e-01  -3.1691899e-01  -9.4456155e-01   5.5943031e-01  -2.1421945e-01  -1.8262569e-01   7.3374881e-01  -9.4242752e-01  -3.3484816e-01   4.1153647e-01  -9.5916986e-01  -5.5891993e-01   6.7513934e-01   1.1846594e-01  -5.7571776e-01  -1.0416157e-01  -4.5123661e-01  -3.2732438e-01   8.4215145e-01   3.9700706e-01   6.3232583e-01   9.0185521e-01  -9.1433264e-01   7.3315829e-01  -5.9916686e-01  -6.3943484e-01   2.4562352e-01   3.8975208e-01  -2.0432311e-01   2.2315529e-01  -9.1257217e-01  -4.4922419e-01  -3.1972069e-01  -5.2404931e-01  -5.8706337e-02   7.5599378e-01   7.9197269e-01  -1.8885918e-01   9.8678797e-01   2.3370815e-01   1.2541698e-01   6.5596996e-01   8.9379745e-01   3.4122282e-01   1.8504459e-01  -9.9788157e-01   4.2672855e-01  -1.9325134e-01  -7.1477282e-02   2.1584386e-01   8.4593141e-01   1.0965895e-01   4.7372099e-02   6.2314806e-01   3.1872588e-01   4.5691487e-01   1.0841754e-01   1.6658372e-01   7.5843185e-02  -9.1067801e-01   9.5535371e-01  -4.5554070e-01   1.2555964e-02   7.5232746e-01  -5.5684093e-02  -4.5858564e-01   8.1884779e-01  -5.3032228e-01  -4.4243741e-01  -5.0999042e-01  -1.6974180e-01  -6.1402706e-01   3.2661148e-01  -6.9403143e-01   2.5035136e-01  -7.0552615e-01  -2.7669694e-01  -4.8417751e-01   3.4182099e-01  -6.2463541e-01   7.1928783e-01   1.6961371e-01   6.0867046e-01   5.8381012e-01  -7.8136526e-01  -4.4844183e-01   2.2371634e-01  -8.4291324e-02  -5.0920868e-01  -5.0997644e-01   9.4648886e-01  -8.3740511e-01  -5.7286913e-01  -1.0139509e-01   5.4716916e-01  -5.6988683e-01   7.0660674e-02   6.9912779e-01  -8.7264282e-01   4.3719916e-01  -5.2047571e-01  -1.6104308e-01  -1.0869258e-01  -4.1970039e-01  -1.6176989e-01  -6.5246478e-02  -8.7729881e-01  -6.8878234e-01   3.5466712e-01  -5.1224185e-01   3.4434058e-01   7.7388610e-01  -8.6230034e-01  -6.4592024e-01  -5.2286615e-01  -7.9510469e-01   2.3079926e-01  -6.2796186e-01  -9.1947931e-01  -9.8542391e-01   7.9545367e-01  -1.1913535e-01  -4.7241711e-01   5.8797296e-01  -4.6689202e-01   9.9534057e-01   8.0181292e-01   3.0635952e-01  -3.2461431e-02   7.2235669e-01  -1.7216985e-01   3.2739847e-01   5.3512622e-01   5.6029739e-01  -8.4241612e-01   2.4413756e-01  -7.3106533e-01   7.9257194e-01   4.5700683e-02  -4.1288283e-01  -2.6360284e-01   2.0239057e-01  -6.3698230e-01  -5.0645446e-01   1.3217655e-01  -3.7467670e-01  -6.5278640e-02  -8.4525055e-01  -1.3290760e-01  -1.6758591e-01   6.6002424e-02  -1.7494399e-01  -2.6601701e-01  -1.8683102e-01   2.3831174e-01   5.1567268e-01  -9.7495456e-01   7.0508672e-01   7.1414372e-01  -2.3260369e-01   7.8267022e-01  -5.8394476e-01  -8.2379209e-01   2.2663457e-01  -8.5573180e-01  -3.9379823e-01   9.2627253e-01   3.8195751e-02  -7.7502164e-01  -2.6653484e-01   9.2412547e-01   1.3395227e-01   9.8218753e-01   5.6747464e-01  -2.4393642e-01   9.0101133e-01   5.8305300e-02   8.2387860e-01   2.4641683e-01   8.1685652e-01   3.0855305e-01   9.5458320e-02   9.2725653e-01   3.5163316e-01  -9.7214400e-01  -5.8343361e-01   6.7373756e-01   8.2074467e-01  -6.6554056e-01  -1.8906846e-01   3.9058614e-01  -8.0569943e-01  -1.7350931e-01   7.3480880e-01   3.7861688e-02  -1.3889643e-02   4.1528922e-01  -8.6091344e-02   2.8226970e-01   4.8235724e-01   3.9374185e-01   8.9963271e-01  -3.1839158e-01  -5.0807793e-02   2.7727600e-01   7.5673879e-01  -1.7217664e-01  -1.2835687e-01   6.2732231e-01   2.7029046e-01   6.0131087e-01  -3.7632357e-01  -7.0555894e-01   1.2358861e-01   9.9409531e-01  -3.7212526e-01   8.4008721e-01  -1.9327078e-01  -2.4295468e-01   5.6548610e-02   8.2857167e-01   8.6504025e-01  -6.8719732e-01   4.7450960e-01  -5.5124035e-01   4.6994827e-01   6.4319114e-01   1.7705377e-01   6.0230994e-01  -6.1825377e-01   1.0649093e-01   6.6692326e-01  -1.4156363e-01   4.4406122e-01   5.9994532e-01  -2.0377109e-01  -7.8088914e-01  -8.7838909e-01  -9.3609438e-01   4.1469451e-02  -6.2728197e-01  -8.9721582e-01  -5.5721322e-01  -2.8755178e-01  -2.4169443e-01  -4.7465456e-01  -9.4767915e-01   1.8958394e-01  -6.7423575e-01   8.9337328e-01  -1.9136077e-01  -7.7497250e-01   9.4055829e-01  -6.7158529e-01   2.9714552e-01  -3.0247338e-01   2.8516828e-01  -1.3335123e-01  -5.8816179e-01  -7.7488770e-01  -9.0068325e-02  -9.7308173e-01  -6.6080454e-02   3.6452088e-01   3.0734147e-01  -1.5296772e-01   9.6192534e-01  -4.1861954e-01  -4.0914782e-01   2.6085277e-01   8.6005114e-01  -2.0263758e-01   7.3262321e-01  -3.8689634e-01   7.3299809e-01  -7.0958292e-01   4.4852642e-01   2.7239779e-01  -8.6452251e-01   6.9584476e-01  -8.3564482e-01  -8.5592215e-01   4.0941888e-02   6.2209183e-01   7.6910286e-01   6.5233238e-02   7.4334842e-01   3.3542145e-01  -5.9514304e-01  -6.7491569e-01  -9.1319459e-01   8.1661408e-01   3.8559327e-01  -2.3095534e-01   9.7203022e-01  -1.1595008e-01   2.3559403e-01  -8.2238213e-01   6.5784931e-02  -6.5383471e-01  -4.2337966e-01   5.6612721e-01  -2.9746003e-02  -1.1074776e-01  -8.1669523e-01  -3.9291324e-01  -7.1646243e-01   6.2756173e-01  -2.6610325e-01  -8.1100950e-01   9.0859928e-01  -9.4730537e-01  -4.4943920e-01  -2.3154437e-01  -7.2943265e-01  -5.1288851e-01   7.5505882e-01  -1.0332013e-01  -7.5248319e-02  -8.9768990e-01   1.6807060e-01   5.2256944e-01   8.3631103e-02  -1.5379538e-01  -8.4509729e-01  -2.1464398e-01  -1.4770247e-01  -2.7256805e-01   7.1524554e-01   6.2426691e-01  -8.7479289e-01  -7.8994692e-01   9.1389278e-01  -8.9578728e-02   2.8751500e-01   7.8778865e-01   2.3545697e-01   6.9639453e-01   2.2608782e-01   9.3166620e-01  -5.2179691e-01  -6.5701408e-01  -9.7152443e-02   8.2711857e-01   1.0576145e-01  -5.6315496e-02   1.8906578e-01  -4.7992128e-01  -6.7379432e-01   2.0356303e-01   7.4905780e-01   7.2597650e-01  -3.7117018e-01   7.7228194e-01  -6.3539184e-01  -4.6762179e-01  -4.9249182e-01  -9.6817258e-01  -9.4358101e-01  -3.6784342e-01   1.0544237e-01   9.4539147e-01   5.0584992e-01  -4.1167407e-02  -9.0318635e-01  -2.8567195e-01   4.2885421e-01   9.8954643e-01   6.7089741e-01  -8.0185060e-01  -9.5339800e-01  -6.9081596e-01  -1.7586086e-01   9.8073658e-02   7.4918504e-01   8.1371660e-01  -3.9168683e-01  -2.4247085e-02  -9.7664730e-01   9.7149170e-02   8.1019886e-02   6.5896150e-01   1.6088616e-01  -9.9409303e-02   6.0623080e-01  -4.0137425e-01  -5.1895344e-01   7.2315398e-01  -6.4269393e-01  -8.5908432e-01   2.3251390e-01   4.4830938e-01  -8.2049421e-01  -6.5319245e-01  -8.6542708e-01  -8.5206133e-01   6.3192088e-01  -3.9090428e-01  -8.1748402e-01  -8.7675191e-01  -8.5123524e-01   3.8140619e-01   9.9128845e-01  -3.7520358e-02  -1.1531416e-01   7.4301976e-01  -5.0318484e-01  -5.2133757e-01   1.7399190e-01   3.7393380e-01  -8.6563770e-01   5.1897532e-01  -2.2780663e-01   3.9116021e-01   5.1643700e-01   8.8241147e-01  -6.3782286e-01   3.4035406e-02   8.1159834e-01  -3.7284297e-01   1.9943712e-01  -7.0302301e-02   9.4115839e-01  -4.5265233e-01  -3.1345445e-01   6.0688474e-01   3.7120265e-01  -2.8121642e-02  -9.7401056e-01  -9.5562988e-01   3.2817891e-01  -8.7714691e-01   4.9994947e-01   6.2121814e-01   1.0268889e-01  -5.4120870e-01  -7.0991899e-01   9.8410820e-01  -4.5691465e-01  -3.5791273e-01  -4.2961672e-01   6.1790128e-01  -6.7385447e-01   1.2559136e-01   3.4462740e-01   4.3864308e-01  -2.0009004e-01   4.3038091e-02  -1.3242580e-01  -5.1608192e-01  -8.9926362e-01   2.7657716e-01  -2.2698979e-01   1.2093593e-01  -4.0084914e-01  -4.8549944e-01  -3.9366377e-01   4.3687749e-01   6.3930269e-02   2.1125737e-01   3.7054762e-02   5.0241483e-01   2.1251542e-01   1.2395330e-01  -6.3315310e-01   4.9478376e-01  -2.7812529e-01   7.5270189e-01   5.9319582e-01   3.3873645e-02  -1.3807398e-01  -2.9939502e-01  -3.0335779e-01  -7.5421520e-01  -8.8658259e-01  -6.4708658e-01   7.0867788e-01   5.7062639e-01   8.9927168e-01   7.2438831e-01   7.1086911e-01  -5.6797423e-02  -4.9841473e-01   8.0693908e-03  -3.3824574e-01  -6.2865808e-01  -2.9356737e-01  -4.7912299e-01   1.0431959e-01   1.5507834e-01  -4.9047709e-01   5.7869786e-01  -7.9664153e-01  -3.5886476e-01  -9.3572992e-01  -6.1483594e-01   5.6816260e-01  -4.0789138e-01   9.5028221e-01  -3.3583850e-01   7.2226686e-01  -3.3075520e-02  -7.4792139e-01  -5.0913230e-01  -7.2713043e-01   7.8370659e-01  -5.5832534e-01  -6.2470107e-01  -6.5903037e-01   4.6942385e-01  -4.8833822e-01   6.4651900e-01   5.1410187e-01  -3.0166429e-01   4.0516613e-01  -8.8683157e-01  -2.7180143e-02  -8.7924217e-01  -1.6967993e-01   4.4783711e-01  -5.3294923e-01  -8.1948134e-01  -3.8202578e-01   1.3383541e-01   1.2430646e-01  -8.4562205e-01   9.7935731e-01  -5.0723172e-01   1.1800977e-02  -5.6666535e-01  -3.0184702e-02   8.7534183e-01  -9.6741724e-01  -1.1740342e-01  -8.8906696e-01   6.1800367e-01   9.8138195e-01  -6.7843021e-01  -8.8933567e-01   7.9034901e-01  -2.8627912e-01   3.4172243e-01   7.5336195e-01   9.5434913e-01   3.2688988e-01   2.4423078e-01   5.0059432e-02   1.2430815e-01   2.2392859e-02   4.5160625e-01  -9.8020076e-01   7.0602300e-01   4.8672160e-01   7.0860198e-03   2.2913726e-01  -6.9587917e-02   3.9181127e-01  -7.8287785e-01   3.4816273e-01  -4.4891534e-02  -5.9444872e-01  -7.1355797e-01   5.8787297e-01   1.2638634e-01   4.2577054e-01   8.2656526e-01   8.7278080e-01   2.8117006e-01  -4.6825198e-01   2.6864706e-01   4.8970676e-01  -4.9810554e-01   5.9081344e-01   3.3696992e-02  -8.0302789e-01  -2.6286367e-01   4.4433615e-01  -4.9515667e-01  -3.7639849e-01  -1.0873261e-01  -9.3696907e-01   7.9820153e-02   3.2448515e-01  -4.6283890e-02  -8.4982728e-01  -1.8999622e-01   5.3245231e-01  -4.9355071e-01  -4.6362039e-01   1.3767544e-01   2.0912715e-01   4.8001643e-01   3.4934840e-01   3.5485062e-01   8.0655869e-01  -1.1053702e-01   5.6356534e-01   3.2111471e-01   2.2861090e-01   8.2483227e-01   6.3438707e-01   9.6132033e-02  -7.4017685e-01   4.5977998e-01  -8.2832532e-01   3.1624242e-01   3.2966337e-01   1.1539413e-01   1.1235562e-01  -4.7748822e-03   8.0873958e-01  -3.5205112e-02  -5.3065431e-01   2.3026456e-01   5.6502884e-01  -7.4101837e-01   9.9133068e-01   3.1477235e-01   4.7714195e-01   7.3279847e-01   7.2720059e-01   2.5003811e-03  -9.3318013e-02   8.5617842e-01   9.9804589e-01  -9.2690648e-01  -6.6353546e-01  -7.2251666e-01   5.1758836e-01  -7.1285772e-01   3.6676457e-01   3.4461196e-01  -4.2593842e-01   4.9230590e-01  -7.8328314e-01   5.6829781e-02  -4.7239217e-01  -1.8310284e-01  -8.9776705e-01  -2.2468211e-01   5.9629275e-01   2.3111993e-01   2.8372584e-01   2.3897504e-01   2.4230582e-01   7.7079218e-01   5.0316639e-01  -6.5488705e-01  -9.2901114e-01  -7.2193392e-01   1.6292838e-01   8.0669910e-01   9.5003660e-01  -1.3822747e-01   3.1300344e-01  -4.5244843e-01   1.0478756e-01   9.3178878e-01   6.8299635e-01  -1.0693137e-01   9.4293882e-01  -4.1302942e-02  -7.5044044e-02  -2.8565315e-01   6.8491822e-02   2.4399165e-01  -2.8481951e-01   5.0389349e-01   1.5410845e-01   7.1369305e-01  -1.2862094e-01   2.8613519e-01   5.8306578e-01  -6.0672786e-01   8.0613257e-01   7.6656110e-01   7.5381079e-01   8.8227097e-01   7.1502155e-01  -6.3304060e-01  -2.0030410e-01   9.9586932e-01  -6.9497031e-01   5.7329403e-01   4.2993872e-01   4.2757375e-01  -6.7541547e-01   6.7016010e-01   1.7557458e-01   3.4745940e-01  -5.0892408e-02   5.5435028e-01   8.6417605e-01   7.6093799e-01   8.9526635e-01   2.2001054e-01  -1.5596752e-01   8.3111969e-01  -1.2022680e-01   7.4237679e-01  -7.5586839e-01   6.5275859e-03  -2.4409629e-01  -6.3671991e-01  -3.0616951e-01   4.2641356e-01   6.0032016e-01  -2.9000350e-01   4.7114856e-01  -9.2089754e-01   7.6348188e-02  -2.8868586e-01  -1.0520284e-01   4.1009189e-01   6.2805153e-01  -5.8389553e-01  -9.5275082e-01   8.2511808e-01   5.3607942e-01  -1.0295965e-01  -1.2253710e-01   8.0576971e-01  -9.3185571e-01  -3.4231975e-01  -2.3620155e-01  -7.8597690e-01  -1.3852597e-01   3.7647814e-01   1.0078706e-01  -7.3570496e-01   7.6153818e-02  -2.2698592e-01   9.4594073e-01  -8.0278605e-01   6.6443454e-01   4.3981895e-01   8.8744933e-01   4.8037124e-01   4.2877669e-01  -8.7916455e-01   7.8172910e-01  -9.0052807e-01  -2.3582657e-01  -4.1249333e-01  -9.8596085e-01   6.9019278e-01  -3.5911405e-02  -1.4440836e-01  -9.6175220e-01   7.1353546e-01  -4.2741886e-01   4.4481004e-01   1.0418065e-01  -5.8158737e-01  -4.2318896e-01   8.5882183e-01   5.9791848e-01  -9.9646736e-01   4.2920579e-01   6.6001102e-01  -1.7591521e-01  -7.3378658e-01   5.2368661e-01   3.8488942e-01  -9.9964126e-01   6.6388692e-01   6.1659955e-01   4.3914216e-01   1.5854400e-01   8.1019967e-02  -9.6102593e-01   4.5621024e-02  -2.5618936e-01  -5.0339172e-01  -8.6285980e-01   5.2971368e-01  -1.7876911e-01   8.2933812e-01   9.8528796e-02   5.1667947e-01  -3.4472480e-01   6.9821700e-02  -2.4958737e-01   2.4828666e-02  -3.0144473e-01   1.7784521e-01  -8.1412744e-01   6.9882900e-01   7.5808520e-01   8.0464305e-02   4.2326109e-01  -6.5461255e-01  -7.1150534e-01   8.6293325e-01  -5.2550450e-03   9.7186729e-01  -6.9301900e-01  -3.1359646e-01  -9.5175260e-01   2.3782259e-01  -4.5418553e-01  -8.3230733e-01  -8.8408780e-01   9.4573332e-01   5.2168665e-03  -2.6348160e-01  -6.5089762e-01   3.7423824e-01  -7.1906200e-01  -6.8343438e-02   2.3995313e-01  -3.8282785e-01   7.8211407e-01  -8.0173871e-01   5.5312857e-01  -6.6507013e-01   2.9082355e-01   9.3972507e-01  -9.9155549e-01   3.5526367e-01   4.9248206e-01  -2.7367323e-01  -8.9165452e-01  -9.0306087e-01  -3.6556708e-01  -3.6460515e-01  -8.7787374e-01   8.9169404e-01   2.5382539e-01  -4.6214317e-01  -5.1354309e-01  -8.3678122e-01   1.5201646e-01  -3.9553718e-01  -6.3497456e-01   2.3426537e-01  -5.0956255e-01   7.7183718e-01  -9.3068277e-01  -3.8687106e-01  -1.8848357e-02   9.2420976e-01  -7.6950164e-01   5.8387310e-01  -2.6337431e-01  -6.6739671e-01   4.9403286e-01  -8.5557061e-01   5.4279129e-01  -7.4591459e-01  -5.1639505e-01  -9.2094149e-01   8.9551121e-01   9.6888775e-01
  -2.4217014e-01  -6.3632455e-01   2.0293036e-01   4.5991695e-01   1.7828395e-02  -2.2770941e-01  -8.3489668e-01   8.1146551e-01  -9.1774527e-01  -5.8591352e-01  -4.8985071e-01  -7.7860372e-01  -3.3701163e-01  -2.9026386e-01  -3.2695355e-01   4.0973217e-01   9.7271951e-02  -3.2853636e-01  -1.6902754e-01  -7.3384890e-01   6.2744273e-01  -3.2006238e-01  -2.0171267e-01  -6.3258704e-01   9.0074764e-01  -9.0604055e-01   5.4084648e-01   2.9450146e-02   2.0500488e-01  -5.3871895e-01  -3.4525713e-01   3.7915759e-01  -8.0391165e-01   9.4947220e-01   2.8535448e-01  -1.9935411e-01   3.2130729e-01  -6.1195799e-01  -3.1553880e-01  -1.4630506e-01   3.0169132e-01  -6.3521937e-01  -5.3477482e-01  -3.9222802e-01  -3.4754110e-01  -7.3895091e-01   1.3865808e-01   4.5593463e-01   9.8010140e-01   2.9282441e-01  -1.7860538e-01   2.2884172e-01   9.1484572e-01  -2.0258101e-01  -9.7367610e-01  -8.9447851e-01  -8.3198366e-01  -3.0985034e-02  -3.7895299e-01  -1.6442292e-02  -1.0144699e-01   7.4493188e-01  -6.0997855e-01   9.0178094e-01  -9.3840787e-01  -6.2597029e-01  -1.3787251e-01  -4.7930173e-01   5.6136894e-01   9.2313321e-01   8.4546788e-01  -8.0600158e-01   9.9713774e-01  -7.8392569e-01   9.1611889e-01  -3.3391503e-01   5.6932011e-01  -3.2988338e-01  -5.0172611e-01   4.7740556e-01  -3.8760970e-01   6.3291332e-01  -5.4735513e-02  -2.2255291e-01   5.7150048e-01   8.0255219e-01   6.9352101e-04   5.7403666e-01   1.1622266e-01   2.6813929e-01  -6.7244059e-01  -6.9898592e-01  -6.8052866e-01  -1.8847872e-01  -4.6629663e-01   4.0399434e-01  -8.2808078e-01  -5.2647389e-01  -3.7525821e-01   1.1851950e-01  -1.1529318e-01  -8.2454384e-01  -5.8462582e-01   9.0062589e-01   6.4910810e-01   7.3436032e-01  -7.1617844e-02  -2.8029117e-01  -1.6049097e-01  -6.6308459e-01  -8.5681097e-01  -3.9162215e-01  -2.9013111e-02  -8.0736939e-01  -6.0011950e-01  -2.8234388e-03  -7.0363550e-01  -7.1741095e-01  -6.2327404e-01   6.4689188e-01  -3.2390896e-01   6.7600428e-02  -6.7278394e-01   9.3430325e-01  -3.9323289e-01   9.1936960e-02  -9.0343373e-01  -6.1637672e-01   2.6977003e-01   9.8137466e-01  -1.9880374e-01  -4.3612247e-01   1.1604795e-01   3.0791953e-01   5.0302182e-01  -9.9124827e-01   5.0164783e-01   3.0599485e-01   9.0586552e-01   7.4436179e-01  -3.3366628e-01   2.1916717e-01   8.6837793e-01   4.7597326e-01   8.6399015e-02  -7.4138929e-01  -9.1480800e-01  -4.1604364e-01  -3.1849935e-01   1.9642585e-01   1.6387792e-01  -3.2749770e-02   2.3653431e-01   9.7705085e-02  -8.3907752e-01   8.8980272e-01   7.7435000e-01  -6.3093361e-01  -5.0487467e-01  -8.6914328e-01   3.7558076e-01   1.3921841e-01   9.4443627e-01  -3.3287800e-01  -4.3221299e-01   3.1697875e-01  -8.8325631e-01  -1.1588406e-01   8.3025449e-01   2.2192046e-01  -4.6503983e-01  -4.6107261e-01  -2.8824512e-02  -4.2089102e-01   9.4922314e-01  -3.0224256e-01   7.5103243e-01  -3.6228402e-01   4.9601230e-01  -7.3368126e-02  -4.9445292e-01   4.9629979e-01   2.1474289e-01   5.0054965e-01   3.0343659e-01   4.4976693e-01   3.8911841e-01  -3.2408751e-02   6.1808535e-01  -3.6704772e-01  -5.6036900e-01   1.8513454e-02   4.8271308e-01   4.8373080e-01   8.5687353e-01   1.6863340e-02   7.7698426e-01   7.5371968e-01   4.4994280e-01  -1.1420566e-01   3.8925342e-01  -5.5506867e-01  -4.2375067e-01  -8.2664019e-01   7.4025029e-01  -7.4007324e-01   6.1819502e-02   3.8682804e-01  -5.3062994e-02   9.8437488e-01  -9.6686624e-01   5.6679925e-01  -2.3405521e-01  -6.6058369e-01   5.7806958e-01  -1.4316165e-01  -4.0640134e-01   5.5613922e-02  -1.9779847e-01  -3.9730558e-01   6.4445713e-01   1.9920980e-01  -8.3363113e-01  -2.1011254e-01  -6.0993604e-01  -5.4621120e-01  -7.5100362e-01   5.3519132e-01   4.2460114e-01  -9.6683433e-02   6.1301192e-02  -1.3198462e-01  -1.4368548e-01   6.6664141e-01  -7.2574415e-01  -5.9916767e-01   3.2232585e-01   6.6767104e-01   7.3994079e-01   3.6996579e-01   8.2103621e-01   8.5066674e-01  -7.0152532e-01   7.3744041e-01  -9.5064486e-01  -3.0373763e-01  -9.0084078e-02   2.1402415e-01  -9.6332408e-01   1.1173534e-01  -1.9800041e-01   9.5160689e-02   7.3786014e-01  -8.7735939e-01   5.9253685e-02   8.3802707e-01  -6.1457567e-01   1.4536239e-01  -4.3985352e-02  -2.9976448e-01   2.6018860e-01  -6.3247976e-01   9.8750106e-01   6.3097714e-01   6.4635427e-01   8.2819855e-01  -2.6953250e-01  -8.8877623e-01  -5.6830911e-02   7.6627758e-01  -2.8333561e-01  -3.8136639e-01   7.5074666e-03   3.5049027e-01   1.0178722e-01   9.5301852e-01  -8.0449142e-01  -2.6260881e-01  -3.2119474e-01  -5.6870662e-02   5.8407487e-01  -9.5924308e-01   6.2119065e-01   5.0781692e-01  -7.8702528e-01   9.3053046e-01   1.4873386e-01  -3.2674755e-01  -8.6698834e-01  -7.6172848e-01  -8.5474720e-01   7.0856306e-01   3.5768582e-01   7.5874921e-01  -5.0208031e-01  -1.2054134e-01  -9.3767909e-01  -3.4702895e-01  -1.4507220e-01   1.2589630e-01  -1.7960639e-01  -9.2531733e-01   7.7151825e-01  -4.2741993e-01  -2.2399091e-01  -7.0471057e-02   9.7627743e-02  -8.8628278e-01   8.0508668e-01   3.3966150e-01   7.9115164e-01   5.9787432e-02   5.7070201e-01   1.8356085e-01   2.8944370e-01   8.9759255e-01  -1.9526471e-01   1.9609557e-01  -8.2753471e-01  -5.6911909e-02   5.4903480e-02  -9.1252256e-01  -6.9910309e-02  -6.5937852e-01   5.9950540e-01   3.3323751e-01  -2.5991858e-01   4.6736917e-01  -3.5817035e-01   7.9450237e-01  -9.8742835e-02   2.7511994e-02  -2.0546573e-02   5.8272597e-01   6.8522138e-01  -5.4818847e-01  -7.8661212e-01   3.5181449e-01   6.0279212e-01  -3.3019528e-01  -1.1486484e-01  -4.1996238e-01   7.6162526e-01  -1.2727549e-01   3.9048334e-01  -6.4163492e-01  -7.3417487e-01   1.5870387e-01  -5.0700230e-01   2.6826770e-01  -1.5438486e-02   9.1551907e-01   7.5312854e-01   2.1018861e-01   2.8498669e-01   3.6732501e-01   8.5351263e-01  -7.0066388e-01   8.1118502e-01   7.2375927e-01  -7.0821708e-01  -4.1624529e-01   3.4838297e-01  -2.9617127e-02  -7.1355183e-01   6.1640719e-01  -8.7185408e-01   5.5719643e-01  -2.7007606e-01   1.1345841e-01  -5.1239150e-01  -9.9691682e-01  -5.9705475e-01   1.1025008e-01  -9.6844369e-01  -5.8112470e-01  -9.1366742e-01  -3.9409806e-01   8.2339654e-01  -1.3009072e-01  -2.7425374e-01  -7.8250594e-01   3.8123432e-01   5.4441951e-01   1.8368951e-01   2.5230707e-01  -8.9241281e-01  -4.6811018e-01   8.6249116e-01   3.7545603e-01   4.3253463e-01   6.8404835e-01   9.5715319e-01  -7.3013559e-01  -8.8631919e-01  -7.4230702e-01  -8.0552505e-01  -7.9294810e-01  -3.7335109e-01  -5.4877493e-01  -4.8945203e-01  -9.3605685e-01  -6.6084594e-01   2.2147199e-01   3.4439750e-01   7.4050373e-01   4.2814559e-01  -3.8529328e-01   6.7909536e-01   4.8670553e-01  -5.1687869e-01  -9.1602595e-01   9.5842790e-01  -9.5892617e-01   1.3368261e-01   5.7485203e-01  -1.1832898e-01   3.6726359e-01   1.7113598e-01   7.5307991e-01   5.2721208e-04   6.4150302e-01   4.3518291e-02  -9.9216907e-02  -1.9985208e-01   8.1451496e-01   5.2136813e-01  -2.5471705e-02  -2.7086787e-01  -3.0271270e-01   9.1884431e-01   1.5482997e-01   5.7534778e-01   3.2935993e-01   8.8870137e-02   3.0252712e-01  -4.4164260e-01  -1.8166437e-01  -3.1941166e-02  -1.3546083e-01   1.4970563e-01  -3.6275599e-01  -9.3300219e-02   3.6165411e-01   4.2754990e-01  -9.6795555e-01   8.2683227e-01   5.3994918e-01   5.4057582e-01   5.9178277e-02   4.7755727e-01  -7.6285991e-01   2.5730613e-01   1.9602861e-01  -6.4679495e-01   8.4799477e-01  -7.1445722e-01  -9.3188880e-01  -9.3063824e-02  -7.1689868e-01   8.8287993e-01   7.8967959e-01  -2.4553565e-01   8.0819562e-02  -7.1179963e-01  -9.7969662e-01   3.0114973e-01  -4.1119796e-01   5.0169766e-01  -9.7829992e-01  -7.0718887e-01  -1.3023888e-02   7.0729333e-01   4.9614055e-01  -5.4247340e-01   7.2100764e-01  -1.0954378e-01  -5.3524850e-01  -2.5908839e-01  -8.2289282e-01  -4.1749798e-01  -1.3583511e-01  -2.5728263e-02  -4.2968972e-01  -1.5029338e-01  -8.0603051e-01   1.8913369e-01   4.8114934e-02   7.1734994e-01   1.8454148e-01   6.9002323e-01  -9.2592934e-03   3.0448965e-01   1.4500370e-01   7.3385608e-01   5.8164033e-01  -6.9001539e-01  -4.9782249e-01   6.8991286e-01   7.0931275e-01  -1.5716167e-02   4.2262620e-01   6.0394898e-01  -8.2001488e-01   1.9488505e-01  -5.4517597e-02  -5.1731874e-01  -7.3870801e-01   4.5380799e-01   5.3615631e-02  -5.7565336e-02   2.7716245e-01  -3.2897900e-01   9.3994049e-01   8.6111908e-01   9.7504448e-01   9.8697871e-01   7.6298178e-01  -9.1608292e-01   9.9981525e-01   3.3241471e-01  -2.5561923e-02  -9.3252629e-01  -3.4146931e-01  -4.7320584e-01  -1.7663758e-01  -8.0052415e-01  -6.3467710e-01   2.4239932e-01  -2.0355750e-01  -8.0835449e-01   3.7798747e-01   8.8071424e-02   1.5741256e-01  -3.9963183e-01   4.7340259e-01   1.8575579e-01   9.2133151e-01  -5.7140279e-01  -4.0965859e-01  -1.7716636e-01   9.6723147e-01   7.6726662e-01  -5.8919525e-01  -4.9761303e-01  -1.8185802e-01   9.5095627e-01   6.9916010e-01  -4.0249065e-01  -4.5660406e-01   8.3591641e-01   7.4321153e-01   6.4252817e-01   2.2771774e-01  -5.9135187e-01  -3.2245317e-01   4.2562148e-01  -6.2898811e-01   9.6051815e-01  -1.4240375e-01  -3.0270637e-01   9.1438500e-01   3.6663466e-01   2.3577639e-02   4.7403578e-01  -9.7706276e-01   8.6070492e-02  -6.5774748e-01  -2.1054317e-01   6.9739530e-01  -6.3702951e-01   8.8363737e-01   7.8408478e-01   9.2022030e-01   7.8769068e-01  -2.3776836e-01  -6.4066707e-01  -7.7276950e-01  -1.9044955e-01   3.0935737e-02   5.7183974e-01   5.0672223e-01  -6.9214019e-01   6.1702225e-02  -5.7311512e-01  -4.4831626e-01  -2.7989869e-01   1.2349699e-01  -8.0854426e-01  -6.7003485e-01  -5.7320241e-01   1.4596128e-01   5.5128376e-01  -7.4360142e-01   9.9787749e-02  -7.3220613e-01   4.1259358e-01  -1.0764326e-01  -5.5124953e-01   6.8118200e-01   4.3025908e-01  -4.6113591e-01   7.2241242e-01  -1.4347633e-01  -8.7881429e-01   3.7431681e-02   2.8931519e-01   2.5696695e-01   7.6692829e-01  -7.2065789e-01   2.4166105e-01   5.9739463e-01  -8.9466992e-01   4.3843366e-01  -8.3765032e-01   1.0405711e-01   7.9911758e-01  -6.3350940e-01   4.7208361e-01  -3.9523985e-01  -7.3517621e-01  -5.9349599e-01  -9.4424702e-02   3.0111178e-01   2.1221063e-01   9.0273582e-03   3.8647447e-01   5.1640286e-02  -9.0520511e-01   5.2520507e-02  -2.2164780e-01  -6.8175993e-01   7.2457845e-01   8.6921657e-01   9.1497794e-01   9.6466281e-01   1.4273343e-01  -1.2961345e-02   3.5041641e-01   5.2744525e-01  -3.4425027e-01  -8.7277532e-01   9.7468760e-01   3.3707888e-01  -8.1720027e-01  -7.0645719e-01   9.2769270e-01   6.6270283e-01   7.0394272e-01   4.9693190e-01  -6.6780303e-01   6.0197657e-01  -4.2611160e-01  -2.8534853e-01  -4.5225780e-01   9.4222554e-01   6.4016503e-01  -7.1749167e-01  -6.9250314e-01  -4.5009135e-01  -7.5428599e-01  -4.9045682e-01   7.9432763e-01  -4.0584716e-01  -7.4548783e-01  -5.7394841e-01   3.1972858e-01  -4.6226303e-01   7.7237092e-01  -5.1683759e-01   5.6444432e-01   8.4615173e-01   5.3879874e-01   3.4840754e-01  -4.9812060e-01  -8.4971905e-01  -8.1065686e-01   4.0695984e-01   6.7076421e-01  -2.3521505e-01  -7.2637946e-01  -9.1838512e-02  -1.9819815e-03  -5.4914123e-01   4.0188310e-01   7.1764564e-01  -8.3956441e-01   8.4928955e-01   4.4719599e-01  -8.5635926e-01   8.1327648e-01  -2.1500949e-01  -1.6379578e-01  -9.8030954e-01   8.8110606e-01   3.8881998e-01   5.6804618e-01   8.7782438e-01  -4.5013961e-02   1.7823324e-01   2.1006724e-01  -9.7003343e-01  -4.1176416e-01   9.3680552e-02   9.0795759e-01  -8.6488520e-01  -1.9699064e-01  -3.3045968e-01   2.6627942e-01  -7.2078231e-02  -5.0415879e-01  -5.1069798e-01   1.1781520e-01  -2.3991845e-01   8.1746965e-01   9.0971663e-01  -4.4653255e-01  -6.9214802e-01   8.6970318e-01   9.9352419e-01   8.4126180e-01   7.2735977e-01   2.1065474e-01   9.7010035e-01   6.9127944e-01  -1.8536983e-01   3.5134418e-01   4.8023483e-01   9.2218032e-01  -2.7206536e-01   9.1261615e-02  -4.2405761e-01  -5.0753736e-01   5.1243141e-01   1.8922038e-01  -3.9338245e-01  -3.7732398e-01   7.7994618e-02   6.6509426e-01   5.3858094e-01   5.5218521e-01  -6.1344038e-01   2.7619929e-01   9.9034413e-01   7.1566835e-01   5.6512194e-01  -7.6857053e-01   7.2563478e-01   7.0341372e-01   7.9232054e-01  -8.4238557e-01  -3.2710703e-01  -6.6979466e-01  -8.9056905e-01  -4.3523754e-01   8.8061125e-01  -7.5960154e-01  -3.7726721e-01  -7.4634684e-01   6.7480948e-01   6.1683792e-01   8.6994934e-01   9.5132485e-01   9.0057463e-01   6.6267442e-01   4.1408653e-01   2.4415529e-02   8.6191977e-01  -2.2038843e-01  -8.9421169e-01  -6.6051520e-01   8.9649133e-01  -2.1854343e-01  -2.2305098e-02   6.1722295e-01   1.7137641e-01   2.8432231e-01  -5.2437267e-01  -8.8975926e-01   3.7654262e-01   3.3504097e-01   4.2439180e-01  -4.3022872e-01  -9.5252533e-01   2.0190299e-01   2.1001740e-01   7.2616115e-01   7.6219987e-02   1.8591191e-01   2.7801852e-01  -6.3260033e-01  -5.7183661e-01   7.0892749e-01  -2.9211654e-01  -8.9511105e-01  -4.1802703e-01  -1.2145022e-01   8.5974476e-01   9.5455790e-01  -4.9381065e-01   1.8328553e-02   5.7925659e-01   3.4826108e-01   6.1134665e-01   3.9676368e-01   9.0374580e-01  -7.6422064e-02  -1.6675624e-01   4.7835634e-03  -2.4716772e-01  -3.3933564e-01  -8.2312340e-01   6.8276382e-01   4.2759914e-01   1.1680923e-01   8.1667414e-01  -5.0571229e-01   3.4240896e-01   6.9977646e-01  -6.9605119e-01   4.1148355e-02   7.3884277e-01  -2.8843521e-01   2.1934224e-01   2.9622786e-02   5.5920122e-01  -3.2877385e-01   3.8350226e-01   8.0966514e-01  -6.8350795e-02   6.2152669e-04   3.7914214e-01   3.6388248e-01   6.0070752e-01   4.4588946e-01  -5.3470029e-01  -8.4973484e-01  -2.7887699e-01   7.8879103e-01   9.9866580e-02  -9.0736530e-01   6.0781674e-01   7.5518406e-01   3.5983833e-01  -2.1040575e-01   2.0155258e-01   2.4523723e-01  -4.0132699e-01   6.5360679e-01  -1.3597340e-01  -1.9126521e-01  -1.4967080e-01   2.6397000e-01   4.5705926e-01  -6.5246686e-01   1.4164561e-01  -4.4872753e-01   5.7543106e-01  -8.7953651e-01  -3.6890813e-01  -7.7332905e-01  -7.0650324e-01  -8.6443723e-01  -7.8343358e-01  -1.0995934e-01   7.3262229e-01   8.6415469e-01   7.6039397e-01  -1.0075313e-01   3.8034088e-01  -2.2501939e-01   2.0753277e-02   5.5386639e-01  -9.0972780e-01   8.6109840e-01  -1.5548194e-01  -5.3108239e-01   1.5491616e-01  -7.0341401e-01   9.9128169e-01   8.9612014e-01  -5.6511847e-01  -3.0870147e-01   2.2236797e-01  -7.9085798e-01   3.0881023e-01  -1.9924900e-01  -3.5467701e-02  -9.1520397e-02  -6.4643157e-01  -8.9473413e-01   2.7440785e-02   5.9451588e-01   6.7804381e-01   3.2490337e-01   3.0180660e-01   2.4633239e-01  -8.7380997e-01  -9.1449785e-01   8.5723115e-02   4.4511785e-01   9.6285308e-03   9.9826214e-01   2.9062623e-01   1.0925529e-01  -6.7694666e-01   3.8335789e-01  -3.0110475e-01   3.3509169e-01   2.6848930e-01   4.0053584e-01  -1.1677545e-01  -8.5081197e-01   2.7553778e-01  -7.8856016e-01  -7.6942082e-01  -2.5009554e-01  -8.5185707e-02   1.4062275e-01   1.3238342e-01   6.5786925e-01   3.3057453e-01   3.7513632e-01   2.7419162e-01  -9.1012713e-01   1.8227390e-01   9.1429852e-02   3.4099749e-01  -4.5301855e-01  -4.4854802e-01  -4.2953443e-01   3.8738864e-01  -5.8729244e-01   6.4047291e-01  -8.1153336e-01   9.1350269e-01  -8.4103332e-01  -9.1387269e-01  -8.3457681e-01  -5.9215011e-01  -3.1453730e-01  -6.3590406e-01   3.4873419e-01   1.1030270e-01   6.5854279e-01   9.5672725e-01   5.2260747e-01   2.1790857e-01  -8.2778798e-01  -3.2136898e-01  -8.5853080e-01  -3.4981680e-01  -5.3253943e-01  -1.4514789e-01   3.0339239e-01   1.3686018e-01  -2.9215155e-02  -8.3459096e-02   1.4834298e-01  -6.6976202e-01  -3.7265194e-01  -3.7016187e-01  -3.7278500e-01   8.1327781e-01   5.2230394e-01   2.2824893e-01   1.7897862e-02  -3.0183823e-01   2.8870437e-01   3.3966082e-01   6.4374740e-01   8.1913978e-01  -5.9154593e-01   9.9870846e-02   2.4593329e-01   4.1035864e-01  -7.0188365e-01   5.8975710e-01  -6.0946045e-01  -3.1661630e-01   2.9067697e-01  -7.4260430e-02  -8.9898321e-01   4.6126455e-02   4.5295599e-01   5.2060724e-01  -3.3891838e-01   9.1845569e-01  -4.3660540e-01   8.8684442e-01  -5.5611056e-02   6.4811777e-01   9.4736601e-01   1.4601236e-02  -1.2377377e-01  -9.3791306e-01   5.7388206e-01   1.1500950e-01   2.7286930e-01  -5.5762675e-01
   8.9830438e-01   9.7373213e-01  -8.2736704e-01   1.5762128e-01  -1.3444456e-01   3.1578111e-01   5.5289026e-01  -2.2960162e-01   2.9630440e-01   7.6177487e-01   9.5882345e-01  -6.1648860e-01  -5.1600826e-01   7.6470566e-01   1.8960558e-01   5.4736383e-01  -7.3436637e-01  -2.4950196e-01   9.4205985e-01  -1.2319063e-01   8.9670554e-01   3.5156903e-01  -6.6981709e-01  -4.1637287e-01   1.0837616e-01   1.3058709e-01  -2.6687318e-02  -2.1296477e-01  -7.8166429e-01  -6.4342467e-01   7.0013877e-01   8.1328886e-01   9.5944470e-01  -4.3588771e-01   8.9086712e-01  -5.3690166e-01   9.0552884e-01   3.0243874e-01   6.2812850e-01  -1.5313074e-01  -9.2940887e-01   4.3493753e-01  -2.8996508e-01   7.0834790e-01  -7.2098710e-02  -1.8544244e-01  -6.3484392e-01  -7.5772747e-01  -7.2117261e-01   3.0359592e-02   5.5163415e-01   7.3818967e-01  -4.9067927e-01  -8.3456664e-01   2.3833404e-02  -4.4124571e-01   6.8561241e-01  -1.4432347e-01   5.6235216e-01  -3.5490149e-01   9.5470181e-01   7.6682456e-01   4.6770444e-01   9.8144640e-01   5.0173506e-01   1.5837496e-01   4.4933624e-01  -4.0304864e-01   7.2330847e-01  -4.5837025e-01  -8.2133802e-01  -2.4815865e-01   6.2266568e-01  -6.3891615e-01   3.9727308e-01  -8.3455132e-01  -1.6064094e-01  -9.2005051e-01  -4.4827216e-01  -4.4483613e-01   7.9175580e-01   4.1126785e-01   1.9875346e-01  -5.3833810e-02   4.4459245e-01   8.6209305e-01   6.6304953e-01  -6.9207892e-01   2.9335813e-01  -9.3220761e-01   1.1148234e-01   4.6694975e-01  -5.5675904e-01   6.8268325e-02   3.6294577e-01   7.9720124e-02   6.0912627e-01  -9.3771182e-01  -7.0239229e-01  -2.3831255e-01   3.6428643e-01   5.0120910e-01   3.5030607e-01   2.7691022e-01   7.3466048e-01   8.2974658e-01   1.9141906e-01   4.1577509e-01  -4.1745630e-01   7.7284407e-01  -3.6807079e-01  -6.9111149e-01   8.4520283e-02   7.1308951e-01  -6.1959297e-01  -7.2527576e-01  -2.3412904e-02   6.4064395e-01  -8.1360402e-01  -2.2102146e-01  -8.0350687e-01  -3.1469777e-01  -7.7879526e-01   6.1454409e-01   4.2169825e-01   3.8887509e-01   6.1211211e-01  -7.7911169e-01   7.6880718e-01  -5.4804481e-01  -2.6576610e-01  -8.8525729e-02  -7.0846939e-01   7.7981143e-01   4.1054522e-01   9.4448322e-01   2.6385939e-01  -8.3642051e-01   8.0661996e-02  -8.3507006e-01  -7.9691613e-01  -7.0344445e-01   8.9714976e-01   5.6069171e-01   4.4025041e-01  -5.2559180e-01  -8.6969433e-01  -8.9763613e-01   6.5729723e-01   5.3121747e-01  -4.0199124e-01  -3.1384575e-01  -9.5380513e-01  -9.6271413e-01  -3.3605041e-01   9.5102506e-01  -7.7352898e-02   7.6548971e-01   3.7629144e-01  -4.1854722e-01  -2.1628755e-01  -5.9641990e-02  -6.4927711e-01   4.6042180e-01   4.5330586e-02   4.8727074e-01   7.7537885e-01   1.2389158e-01  -4.6692767e-01  -5.7800055e-01   1.0418966e-01   1.9194758e-01  -3.2201686e-01  -6.1664570e-01   7.9810649e-01  -1.4494911e-01   4.5201278e-01   7.8752259e-01  -9.2112672e-01  -7.5927158e-01   9.8408640e-02   3.7990488e-01  -5.5721308e-01  -5.8246747e-01  -4.7171638e-01   7.7680030e-02   7.5773382e-01   5.1278611e-01  -8.8424430e-01   6.1481796e-02  -3.3422001e-01   1.3310511e-02   2.0858153e-01  -7.9642744e-01  -3.1835060e-01  -7.6464324e-01  -7.9190411e-01   3.3672037e-01  -9.1792876e-01   1.4694894e-01   3.6132790e-01   8.2610974e-01   5.2286263e-01   6.7202694e-01   8.0106745e-01  -1.3559676e-01  -9.8548764e-01  -3.0799887e-01  -6.6333971e-01   8.9529507e-01   7.9719061e-01  -2.1159140e-01   6.8576773e-01   8.1028268e-01   4.6578858e-01  -9.2004900e-01   8.0745151e-01  -9.2928310e-01  -8.2458491e-01  -7.1279729e-01  -5.4041665e-01   6.4557864e-01  -7.5736768e-01   3.2545229e-01   5.9683984e-01  -8.4652151e-01   6.2447599e-01  -7.6243951e-02   4.2066903e-01   5.3634086e-01  -6.0501998e-01  -1.2390274e-01  -2.8317922e-01   9.2466804e-01  -1.1972498e-01   7.5954590e-02   3.1507122e-01  -3.8144865e-02  -7.4314868e-01   9.0215939e-01   7.5767721e-01   2.2055738e-01  -7.6188634e-01  -3.2163310e-02   3.3600261e-01  -9.8117087e-01  -9.1546287e-01  -7.3938902e-01  -7.3666475e-01   6.4337750e-02  -1.5814966e-01   5.7878071e-01   9.0102827e-01   2.6020219e-01   9.2493959e-01  -9.4834323e-01  -6.1784995e-01   6.5689688e-01   4.0251066e-02  -4.1879721e-01  -6.7797438e-01  -8.2391399e-01  -1.5198055e-01   8.7798082e-01   2.9202867e-01   2.6360464e-01   9.2445183e-01   5.8695656e-01  -4.8729726e-01   6.9672004e-01   4.1514256e-01   2.2583910e-01  -4.3747776e-01  -3.9148885e-01  -1.2060777e-01   8.4687544e-01   4.6995289e-01  -9.3333887e-01   4.6260627e-01   3.7227575e-01  -2.2889867e-01   2.3023619e-01  -8.8114226e-01   5.2408030e-01  -9.3166594e-01   3.2827100e-01   2.1100574e-01   2.2044208e-01  -4.2447050e-01   5.8182649e-01  -6.7784700e-01   6.3420263e-01   3.7809495e-02   8.5396081e-01   1.1938571e-01   7.5160047e-01   8.2412802e-01  -8.5313909e-01  -4.3830547e-01  -5.7267460e-01   1.4398509e-02   1.5050127e-01  -8.6702417e-01  -8.8941599e-01  -5.1192236e-01  -4.9825309e-01   2.3688441e-01  -6.1769349e-01  -8.1361177e-02  -5.6371307e-01  -7.2789697e-01   1.6862886e-02   5.4776760e-01   4.8058330e-02   8.9619879e-01   8.1070602e-01   6.7723901e-01  -2.8256833e-01  -5.1432861e-01  -1.3805328e-02  -9.1445538e-01   8.4589770e-01  -2.9623791e-01  -6.3784939e-01  -3.7342042e-01  -4.9091797e-01  -9.5686191e-01  -4.6494431e-01   6.2817401e-01   5.8811295e-01   3.5227920e-01   4.4385730e-01  -7.4620780e-01   1.3800833e-01   9.5253659e-01  -8.6310175e-02  -1.1916220e-01  -5.1204958e-01   5.5201319e-01  -3.7925105e-01  -4.6845836e-01   9.5821013e-01  -6.5621369e-01  -2.8751124e-01   9.4695023e-01  -3.3473175e-01   1.0215979e-01  -4.2089875e-01   5.5793450e-01   9.8813208e-01   1.7385109e-01   4.4676361e-01   3.7310418e-01   2.8262583e-02  -2.4174187e-01  -2.6689203e-01   7.6406190e-01   8.3032723e-01  -6.4045638e-02   6.6044018e-01  -3.3269918e-01   8.0304207e-01  -4.9694636e-01  -1.7859912e-01  -8.9650710e-01   8.5882122e-01   6.3136847e-01   6.6694814e-01  -4.7044194e-01   8.5152138e-01   8.6339846e-01   7.1151521e-01   7.2857301e-01  -7.6736963e-01  -2.8662153e-02  -2.3706644e-01  -3.1149863e-01  -4.2062017e-01  -1.3863093e-01  -1.1368706e-01   7.1950561e-01  -2.6257753e-01  -6.6953912e-01  -7.8620920e-01   7.9216603e-01  -2.9672572e-01  -9.6440356e-01  -8.3321146e-01  -8.6217052e-02  -6.9206284e-01  -5.6979158e-01  -5.8515065e-01  -4.4853987e-01   6.9370345e-01  -2.0129081e-01  -3.0648486e-01  -1.8585772e-01   8.1242527e-01  -5.2754119e-01   5.6061571e-01   4.4530919e-01  -6.1457377e-01   6.3345469e-02   3.4692597e-01  -6.2474780e-01  -9.3201558e-01   2.6845471e-01   9.7683143e-01  -6.9727447e-01  -2.4534819e-01   8.1213332e-01   5.0045770e-01   6.0544933e-01   9.1620486e-01   3.9539957e-01  -4.5862567e-01   3.7156341e-01  -8.7165944e-01   1.7864296e-01  -6.3376810e-01  -5.8650637e-01  -6.3850663e-01  -4.9512577e-01   8.9178644e-02   9.5166398e-01   7.3952760e-02   3.9859929e-01  -8.0125050e-01  -9.6426384e-01  -3.0675089e-01  -1.1227508e-01   1.8492282e-01  -9.6160453e-01  -9.5252131e-01  -7.6607912e-01  -9.6054338e-02  -4.8486246e-01   3.2263262e-01   1.9364451e-01  -8.2633213e-03   6.5651062e-01   2.1786555e-01  -8.7347596e-01  -2.6025355e-01   3.9924475e-01  -5.0333147e-01  -4.9082997e-01   7.8113734e-02  -3.3166148e-01  -6.4125134e-01   3.9307171e-01  -1.4283129e-01   8.6509738e-01   5.4172571e-02  -5.3535756e-01   6.9718347e-01  -9.1848778e-01   8.2948616e-01   6.1037898e-01  -1.5473395e-02  -6.7634576e-01  -6.6403863e-02  -5.8958876e-01  -1.4242124e-01  -9.1565248e-01  -5.0953166e-01  -3.5419679e-01   7.3615985e-01  -4.5391753e-01  -8.6833472e-01  -6.5535486e-01   6.3549629e-01   3.6066136e-01  -7.3027270e-01   6.7382348e-01   2.9343142e-01   7.7524143e-01  -7.2445017e-01   6.7997282e-01   9.6893427e-01  -3.4507832e-01   6.2659248e-02  -6.4900647e-01   3.0401335e-01  -2.2154908e-01  -9.3295922e-01   5.0356659e-01   2.2479099e-01  -1.5726107e-02  -3.2030298e-01   4.3347280e-01   4.5712927e-01   9.0157143e-01   6.1846985e-01   5.9770658e-01  -9.5664602e-02   9.8465952e-01   1.9717814e-01   5.9925787e-01   1.5216109e-01  -8.3109531e-01  -1.1342456e-01  -4.8243090e-01   4.0392890e-01   1.2943146e-01   9.5832099e-01  -3.5331714e-01  -9.1127170e-01  -6.6558048e-03  -5.4292144e-01  -6.8636173e-01  -1.2737417e-01   6.3469345e-01  -9.3312076e-01  -2.3307900e-01  -1.7947260e-01  -8.5512021e-02   2.3882499e-01   7.5836081e-01  -5.4085144e-01  -6.1772519e-01  -7.4483409e-01   9.0400958e-01  -9.8838633e-01  -6.0386387e-01  -8.5101070e-01   1.0193125e-01  -8.9605424e-01   3.6430670e-01  -3.6567892e-01   2.1580422e-01  -7.1428257e-01  -5.6956597e-01   9.5498038e-01   8.8888624e-01   2.0633315e-01   8.8255406e-01  -7.1830354e-01   9.7771580e-01  -6.9134214e-01   4.9290242e-01   1.5185655e-01   3.3353909e-01  -1.8083800e-01  -9.6714630e-02   5.3907587e-01   6.9050514e-01  -9.1569488e-01   9.1683750e-01  -2.0148707e-01  -1.5579327e-01  -1.7600400e-01   4.4792233e-01  -7.1700802e-01  -7.3780561e-01   4.5905015e-01   9.2887049e-01   5.5593972e-01   4.5329657e-01   7.1400945e-01   7.2798861e-01   2.4594937e-02   3.8934229e-01   5.1859888e-01  -2.3641078e-02   8.8972657e-01  -1.7704677e-01  -6.4347112e-01   4.8694180e-01  -8.1379872e-01  -8.9487850e-01   6.9901591e-01  -4.5742921e-01  -5.0979749e-01  -3.2914573e-01  -2.1609287e-01   6.3148683e-03   4.6075443e-01   2.8529969e-01   6.3904282e-01   8.4866661e-01  -7.3865921e-01   8.4850816e-01  -5.1790180e-01   7.1205826e-01   9.0208915e-01  -8.6371004e-01   6.6346750e-01   5.0801213e-01  -9.5963798e-01  -9.9660312e-01   4.2994128e-01  -6.2385068e-01   4.1639916e-01   9.4553366e-01  -2.2914660e-01  -5.6898648e-01   2.1145742e-01  -3.9959976e-01   9.5071705e-01  -7.5083960e-01  -4.9875277e-01  -3.6052352e-01  -3.7349345e-01   9.9687165e-01   4.4159699e-01   5.1850070e-02  -3.3073045e-01   3.3966007e-01  -8.0600732e-01   2.9995540e-01  -6.9197207e-01   5.4935917e-01  -3.2050479e-01   3.8801366e-01  -1.7190743e-01   2.3771645e-01   3.1654788e-01  -3.7325451e-01  -1.6427643e-01  -2.0188585e-01   5.2823768e-01   5.1481418e-01   2.2625298e-01   1.0184266e-01   7.6175712e-02   5.5679575e-02  -2.0575302e-01  -2.8950516e-01   9.4739430e-01  -1.3935522e-01  -8.5578580e-01   4.1710583e-01   7.9647033e-01   8.7255530e-02   2.6717703e-01   5.3188919e-01  -7.5790676e-01  -9.4997713e-01   7.6574545e-01  -8.5995020e-02  -6.9397949e-01  -9.4336839e-02   2.5832922e-01   3.7628274e-01  -8.0254952e-02  -1.7965950e-01  -2.7129601e-02   8.9764990e-01  -6.7426981e-01   5.5821716e-01  -7.3532008e-01  -4.2728657e-01  -6.7463201e-01  -3.8249023e-01  -2.6059765e-01  -3.4292659e-02  -1.3060377e-01   7.4251367e-02  -6.8908075e-01   4.6913520e-01  -6.6919008e-01  -8.2788221e-01   1.8948709e-01  -2.2212949e-01  -4.5038885e-01   6.9803996e-01   7.9236372e-01   8.6337631e-01   1.2388073e-01   5.8205291e-02  -1.3823604e-01   4.0124133e-02   1.0335856e-01   2.7495364e-01   4.5016872e-01  -9.5343814e-01   1.4133324e-01   5.8977160e-01   6.4867992e-01   7.3954736e-02  -2.6520773e-01  -5.6800752e-01   5.5523172e-01   5.5056677e-01  -8.4413991e-01   1.9290922e-01   1.6852896e-01   9.4764170e-01  -2.5454307e-01   7.2755018e-01   5.2129529e-01  -3.1811753e-01   4.1829284e-01  -2.2542175e-02  -3.5109712e-03   8.9229246e-01  -3.9218126e-01   6.9068954e-01   7.0085766e-01   7.8271596e-01  -8.5463209e-01  -5.2788701e-01  -1.1448464e-01  -8.5377169e-01  -2.0266038e-01   2.1486253e-01   7.0691338e-02   3.3212335e-01  -3.0190216e-01  -2.7748502e-01  -6.3852447e-01  -9.3317997e-01  -9.7542994e-01  -6.5493205e-01  -1.0529816e-01  -4.8876669e-01  -3.2151127e-01  -3.8721707e-01   8.3641578e-01   4.4935993e-02  -5.4152096e-01  -8.1144636e-01   7.7297359e-01  -7.0462075e-01  -9.4680421e-01  -3.2947988e-01  -3.4547832e-02  -1.9809676e-01   3.5387931e-01   5.1597200e-01   3.7376498e-01  -7.6700483e-01   8.9328900e-01   6.9862045e-01   8.3064838e-02  -1.6744791e-01  -7.7474531e-01   3.1898188e-01   2.0082592e-02  -4.3530127e-01  -1.0054686e-02  -9.6140042e-01  -1.4715909e-01  -5.0881220e-01  -2.6657468e-01   3.8074207e-01  -1.1472156e-01   5.4918349e-01  -2.0034333e-01   3.1797366e-01   7.8948774e-01   8.9000193e-02   5.0715557e-01   9.3655993e-01   6.0071515e-01  -8.7626615e-01  -1.6695047e-01   3.2448078e-01   7.7896172e-01   1.3232512e-01  -5.0885523e-01  -9.2443217e-01   9.6063854e-01   7.0748779e-02  -5.8978246e-01   9.0177348e-01   3.0862622e-01   4.7417558e-01  -1.1104967e-01   5.7042608e-01   1.7867428e-01   9.9775019e-01   4.2914612e-01   2.7565355e-01   3.8167658e-01  -3.2048529e-01  -8.7452794e-02   5.4143957e-01   1.9479056e-02   4.5880453e-02   2.5623900e-01   5.7303044e-01   9.7093241e-01  -8.2846196e-01   8.0346264e-01   5.0525747e-01  -8.6639318e-01   7.6955385e-01  -6.1274405e-01   8.8480879e-02  -1.5158764e-01  -2.2780684e-02  -7.6361614e-01   9.7218100e-01   9.6442420e-01   8.2839494e-01   4.4655513e-01  -8.8557681e-01  -9.8785413e-01  -5.1706714e-01   4.2548573e-01  -1.9460167e-01   8.4088176e-01  -8.4330727e-01   6.0551960e-02  -3.9760376e-01   4.5502223e-02   6.0854546e-01   6.6187820e-01   3.8032408e-01   3.1690410e-01  -5.0766715e-01   5.3319823e-01  -2.8231119e-01   3.2242255e-01  -5.9174128e-01   2.4464076e-01  -4.0455374e-01  -5.7975075e-01  -3.9037482e-01  -5.4988788e-01   4.6330548e-01  -2.0810925e-01  -5.4545508e-01   3.6332658e-01   5.9843305e-01   4.8715273e-01  -1.8991197e-01  -4.2649332e-01  -6.7287869e-01   8.5364533e-01  -3.5860233e-01   8.9682392e-02  -8.4434322e-01   2.0375559e-01   4.1767299e-01  -1.4521413e-01   5.7278974e-01   4.6652353e-01   4.8371445e-01   2.1327636e-01   4.5649831e-01  -3.5048211e-01   4.7824731e-01  -3.9418056e-01  -8.9318064e-01  -6.9322707e-01   8.9977579e-01  -9.2447470e-01  -2.6604585e-01  -1.4119944e-01  -3.6805782e-01  -5.5124750e-01  -2.0847283e-01   9.0092715e-01  -1.9595544e-01   9.8526651e-01   9.9762135e-01  -9.8079900e-03   7.9473344e-01   7.1695232e-01   1.2653354e-01   3.5511493e-02  -6.8661544e-01  -5.3688170e-01   4.7746056e-01   5.5320444e-01  -3.4842931e-01   1.5947251e-01  -4.7120030e-01  -5.1722506e-01   5.1884979e-01  -1.2915534e-01  -6.0865102e-01  -3.9705882e-01   4.9595336e-01   9.4891950e-01   6.6630921e-03   3.0825700e-01  -9.3745087e-01  -2.6588520e-01  -2.2043833e-01   2.4550701e-01  -1.2376529e-01   1.8127715e-01   7.4551967e-01  -8.8088821e-01  -1.7524242e-01   6.1062889e-01  -5.9297823e-02  -3.2791905e-01   2.7390869e-01   5.1609226e-01  -7.9115636e-01   2.4587325e-01   5.3531704e-01  -6.9353839e-01   6.1235002e-01   4.9003523e-01  -1.5767142e-01   3.7283952e-02  -5.8386422e-01   2.1069048e-01  -2.0231626e-02   5.8856133e-01  -9.2454124e-01  -5.5999029e-01   2.1998910e-02   6.0096009e-01   6.9935192e-01  -4.2879122e-01  -2.2222467e-02   8.4416151e-01  -9.0812413e-01  -7.0054952e-01  -8.1432010e-01  -4.1703514e-01   8.6772243e-01   3.1606795e-01   4.1024062e-01  -3.1510407e-02   8.0819707e-01   1.9291271e-01   9.1543143e-01  -6.1698852e-01   1.2648538e-01   3.9929327e-01   8.4841338e-01  -6.8941591e-01   5.6499470e-01  -2.5652672e-01  -4.4936343e-01   9.7651031e-01  -5.6586543e-01  -6.3434013e-01  -5.6849800e-01  -1.0224262e-01   3.2759451e-01   7.1474277e-01   1.1823066e-01  -9.0897966e-02   2.4894071e-01   2.7762993e-01   4.6372761e-01   2.2131057e-01  -1.6199324e-01   6.9282398e-01   5.6963399e-01  -9.2011214e-01   1.9465988e-01   4.4289904e-01  -9.7705370e-01   9.0687911e-01   3.6932812e-02  -3.9781750e-01   7.9838363e-01  -3.3056788e-01  -3.1546088e-01  -5.7257290e-01   7.2451963e-01  -1.2552487e-01   4.2483478e-01  -8.5260091e-01   6.5733944e-01  -8.2419628e-01   2.7219305e-01  -7.6569976e-01  -2.0018848e-01   2.9973005e-01   9.6767386e-01  -4.1307736e-01   4.1827674e-01   4.0454803e-01  -6.9554806e-01   8.7872648e-01  -2.5290092e-01   4.2157804e-01   7.7956070e-01  -1.1193444e-01   4.3622053e-01  -8.7263242e-01   6.3984282e-02  -2.5959529e-01  -4.2683679e-01   4.8089938e-01   1.4604400e-01  -5.8378415e-01  -6.5047223e-01   6.7281008e-01  -8.0820963e-01   5.5014936e-01  -3.5050087e-01   9.4628076e-01   9.7905783e-01  -2.9652956e-01   2.1869975e-01   1.3036570e-01  -6.6543318e-01   3.0719291e-01
   8.6509486e-01  -9.3106638e-01   1.2396656e-01   9.7657763e-01  -6.2572745e-01  -6.6227307e-01   9.9102404e-02   8.2026489e-01  -4.2590479e-02   3.0348526e-01  -5.4995890e-01   9.2330565e-01   3.6437883e-01  -9.7638288e-01  -3.4172381e-01   2.6613073e-01   6.5329820e-01   3.0425047e-01   3.9429583e-01  -4.6403730e-02   8.3049739e-01  -5.2639219e-01   7.2880875e-01  -9.7545014e-01   3.0970015e-01  -8.6853324e-01  -7.6080314e-01   6.2942758e-01  -8.1973413e-01  -7.9220863e-01   2.4724220e-01   5.3858932e-01  -1.5255930e-01  -5.3685168e-01  -5.0469766e-01   7.4494522e-01   3.5031166e-02  -2.2986224e-01   5.4761132e-01   7.0526325e-01  -6.4126858e-01  -9.2605996e-01  -4.0817372e-01  -2.0679095e-01   7.0900545e-01   6.4044850e-01   8.8535713e-01  -9.6333645e-01   9.6338822e-01   1.9022585e-01   4.3350293e-01  -6.7974099e-01  -4.2462983e-01   6.6432154e-01   8.5767490e-01  -9.2662141e-01   7.3453228e-01   8.2903860e-02  -9.4371324e-01  -9.8407664e-01   1.9053559e-01   9.0700747e-01   3.8839697e-01  -2.1213451e-01  -3.7134256e-01   1.8264195e-02   2.1095256e-01  -7.4164573e-01  -9.7789939e-01  -9.7237176e-01  -2.3440420e-01   7.3227140e-01   9.5702022e-02   7.3206840e-01  -5.8632686e-01  -7.0809855e-01   1.4654138e-01  -6.7295020e-01  -7.7895506e-01   6.6625264e-01   4.2363463e-01  -4.9089225e-01   6.3267763e-01  -9.1473573e-01   7.0078248e-02   5.5268313e-01   4.4744335e-01  -4.5154277e-01   8.0975079e-01  -5.0988188e-01   3.9935050e-01   4.3585233e-01   1.9488977e-01   1.3852083e-01   6.9718428e-03  -5.1043091e-02  -6.5427280e-01  -4.3680092e-01   5.1510755e-01   3.7635205e-01  -6.7906059e-01  -2.6575002e-01  -3.6156477e-01  -3.2480541e-01   7.3312019e-01   3.8492094e-01  -6.7474620e-01  -7.0789179e-01   8.4891932e-01   7.8362140e-01   4.2414232e-01   1.2310696e-01   4.9151260e-01   1.4768597e-01   9.1693032e-01   6.7816296e-01  -4.7471840e-01  -8.1500982e-02  -7.3146372e-01  -7.7689364e-01   9.7555099e-01   5.6948189e-01  -6.9019524e-01   8.8981610e-01   1.6461763e-01  -6.9045845e-01   1.5671713e-01  -6.1319693e-01   5.4198821e-01   1.9620834e-01   4.9394777e-01   4.7403914e-01  -2.7365531e-01   8.1872023e-01   3.8311356e-01  -8.6939223e-01  -8.3504816e-01   9.6920311e-01   6.6766469e-01   8.1356040e-03   8.2390866e-01   2.2415772e-01  -7.8126360e-01   3.4847503e-02  -6.9058199e-01   2.1472770e-01   6.0595100e-01  -5.7482574e-03   1.3916711e-01   4.2362912e-01   1.4137537e-01   5.8069422e-01   9.8257858e-01  -8.5206368e-01  -1.3511242e-01   2.2953225e-01  -8.3596779e-01  -2.0905999e-01  -4.9531181e-01  -5.7310744e-01   5.1769303e-01  -8.5918313e-01   9.5164790e-02  -5.3240871e-01   8.2726253e-01   1.4205805e-01   4.6827939e-01   9.3424220e-01  -1.2775123e-01   4.7293712e-01  -1.3376694e-01   3.4762690e-01  -1.8651469e-01   3.0613528e-02   1.4460756e-01   8.7916449e-01   8.4164241e-01   3.8374962e-01   5.9165341e-01  -5.5062345e-01   3.4076891e-01  -7.6584443e-01  -6.4356866e-01   2.1116329e-01  -4.8080009e-01   5.8106754e-01   8.5888638e-01   5.9796276e-01  -8.3903950e-01  -8.9233421e-01   4.2481363e-01   6.0037350e-01  -1.0866937e-01  -1.0151039e-01  -1.6260388e-02   5.1198362e-01  -5.5847502e-01   6.1249733e-01   6.4098680e-01  -2.9140019e-01  -9.5500812e-01   7.7199482e-01   3.1844751e-01   6.2204395e-01   6.2037064e-01  -9.8972959e-01   6.9032537e-01  -6.2456166e-01  -6.3728244e-01   1.6564840e-01   1.3410750e-01   9.6281912e-01  -9.1273828e-01  -2.4345899e-02  -1.4910912e-01  -6.9115433e-01   4.8183804e-01   7.8299620e-01   4.8206481e-01  -8.2457056e-01   4.7418427e-01   4.2611890e-01  -8.1152654e-01   5.8472572e-01   8.5164807e-01   5.2386428e-01  -3.2228108e-01  -9.8124506e-01   2.2088304e-02   2.0697348e-02  -6.8060085e-01  -2.0582558e-01   9.0608995e-02  -7.3746327e-01  -1.2245585e-01  -1.1204413e-02   1.9906953e-01  -4.8009115e-01  -2.6668787e-02  -5.3746478e-01   1.1556129e-01   8.5636126e-02  -9.7156092e-01  -9.7769686e-01   7.8217235e-01  -7.8601101e-01  -2.9334262e-01  -5.5296107e-01  -4.9131016e-01  -7.6646524e-01  -1.6697076e-01   3.9355569e-01   8.9337936e-01  -4.2986621e-01   5.9562284e-01  -5.8572618e-01   6.5766646e-01  -8.5044068e-01   9.2743598e-01  -6.7887673e-01  -4.5048074e-01  -8.7638812e-01  -6.2650186e-01  -2.4651381e-01  -2.9715505e-01  -8.1630651e-01   4.3676830e-02  -4.1718875e-01  -6.2180723e-02  -5.2491988e-01   4.7596171e-01   2.9674400e-01  -5.3817062e-01   9.2439085e-01  -2.1344522e-02   9.4463431e-02   8.3766555e-01   1.5904500e-01   6.4662942e-01   7.3487880e-01   2.1235630e-01   3.0018278e-01  -7.3180512e-01   6.1213566e-01   7.5552128e-01  -6.6256966e-01   4.6545228e-01  -3.6612680e-01   1.0366199e-02  -5.6542560e-01  -7.1395861e-01  -4.0374486e-02  -7.1178703e-01  -4.6877124e-01   3.2341490e-01   6.1757494e-01  -7.8620368e-01  -1.9615177e-02  -2.1768608e-01   7.0337654e-01   9.7515672e-01   2.0748698e-01   6.6557097e-01  -9.0269652e-01  -2.3348693e-01  -6.1310977e-01  -6.8069144e-01  -3.4606139e-02  -3.8347995e-01  -9.1271385e-01  -7.7577377e-01  -6.5525632e-01  -6.7359431e-01  -8.9525887e-03  -4.5055371e-01   1.8951948e-01  -4.7894817e-01  -7.4873798e-01  -9.6699861e-01  -1.7143715e-01  -1.1139650e-01  -5.3106710e-01  -5.2916665e-01  -5.6507809e-01   2.8109939e-01   1.7320135e-01  -2.8245099e-01  -9.0521995e-01  -3.9512387e-01   9.5260834e-01   7.4069216e-01  -5.3169992e-01   3.4576693e-01  -6.7066070e-01   2.7285671e-01   9.7174999e-01  -1.4804860e-01  -1.7011798e-01  -7.3152000e-01  -5.0787979e-01   1.3010285e-01  -6.5258898e-01   1.3256477e-01  -9.8638132e-01  -4.8657472e-01  -1.9947514e-01   8.3980991e-01  -9.4294832e-01  -9.7308428e-01   8.4162156e-01  -8.6574764e-01  -2.7505781e-01   8.1633097e-01   2.3535401e-01   7.7013724e-01   9.4700666e-01   2.9671034e-01  -7.5936514e-02  -3.1290954e-01  -3.3522992e-01  -9.6644908e-01   2.3886698e-01  -8.3477598e-01  -5.6648984e-01  -7.5776035e-01   4.8480216e-01  -2.6778620e-01  -7.7104237e-01   7.1698527e-01   4.0849493e-01  -8.0999645e-01  -4.7455008e-01  -4.9660684e-01  -2.9238392e-01   4.2856065e-01   9.5441073e-01   1.5987959e-01  -3.1884272e-01   8.4411647e-01   2.7910932e-01  -9.3107811e-01   6.9394143e-01  -6.6195381e-01   2.5930068e-01   7.0801433e-01   6.8261947e-01   2.9163072e-01   4.6635785e-02  -8.5540531e-02   9.6842305e-01   3.3219957e-01  -3.8160654e-01   8.3481212e-01   5.0838463e-01   9.1643381e-01   9.0075519e-01   4.1500808e-01  -8.6628005e-01   9.4511328e-01  -2.7362052e-01   1.6133750e-01  -4.9908719e-01   5.3582283e-01  -8.8330339e-01   8.6506628e-01  -6.1166950e-02   4.2665840e-01  -9.5821203e-01   2.7380244e-01  -6.2704584e-01  -7.6102340e-01   9.9777039e-01   8.5871205e-01   9.2173301e-01  -5.1421917e-01   8.3175811e-01  -2.3906764e-01  -4.6048053e-01  -1.4677238e-01   4.4630504e-01   4.8868650e-01  -4.7406463e-01   1.2787461e-01  -8.2954792e-02   3.2349716e-01  -8.0606133e-01   1.8007692e-01  -5.4634892e-01   3.9108534e-01  -6.6548153e-01  -2.0323072e-01   3.4000336e-02   1.5304937e-01  -6.1750751e-01  -7.1961357e-01  -2.9274732e-01  -8.1659947e-01   2.8629587e-01   6.8373847e-01  -3.2670280e-01   4.2620066e-02   7.3274914e-01  -5.9135248e-01  -2.9122553e-01  -6.7169072e-01  -1.3691417e-02  -8.7202233e-01   2.5696290e-01   5.0768561e-01  -5.0595553e-01  -1.0523587e-01  -5.1613395e-01   1.3611999e-01   2.1512694e-01  -8.0609300e-01   5.7261840e-01   4.3094702e-01  -3.8490936e-01   8.5712666e-01   1.7949585e-01   9.4527030e-01   2.0734951e-01  -4.8446002e-01  -5.6965790e-01  -9.8039084e-01  -1.2466746e-01   6.4034255e-01   6.9903456e-01   4.5593006e-01  -7.7328957e-01  -9.0562228e-01  -7.6524685e-02  -2.4989510e-01  -3.9912383e-01   1.3567861e-01  -3.2740687e-01  -7.7205426e-01  -9.3702270e-01   1.0035452e-01   6.5872533e-01   6.5544742e-01   3.4436322e-01   6.8402957e-01  -6.7082463e-01   6.3188089e-01  -2.9842510e-02  -3.5882335e-01   4.7493503e-01  -1.6048805e-01  -2.0150139e-01   8.9363949e-01  -4.4728699e-01  -9.0143487e-01   6.6533877e-01  -6.1351396e-01  -6.8366239e-01   8.2034601e-01  -8.3585377e-01  -5.7495423e-01   1.1050825e-01  -7.5337230e-01   5.2974543e-01   7.1536057e-01  -8.6274768e-01   1.2134477e-01   5.8852588e-01   6.7324024e-01   4.3551371e-01  -8.9626658e-01  -6.6314647e-01  -9.8342888e-01  -5.6992906e-01   6.6892858e-01   5.4546918e-01  -5.8365147e-01   2.3874791e-03   5.9490280e-01  -7.2980659e-01   2.6238684e-01   3.4420383e-01   4.6414679e-01  -6.5806961e-01  -5.7149583e-02  -5.2637675e-01   2.3205363e-01   5.2954848e-01   4.3940583e-01   6.4838988e-01  -3.6669740e-01   8.3362183e-01  -9.4016567e-01   9.0898784e-01   3.6919124e-01  -4.2041082e-01  -4.6546586e-01   4.8858347e-01   2.2532093e-01  -9.1443307e-01   7.2859663e-01   2.7339333e-01   2.9820055e-02   4.4150678e-01  -4.9487795e-01   5.4609687e-01   4.5478429e-01  -9.9209125e-01   5.3578914e-01   2.3842752e-01   9.9096096e-02  -4.2654176e-01  -7.8243576e-01   1.9302763e-01   6.7897016e-01   4.7256048e-01  -3.6858744e-02  -7.1563966e-01   1.2266392e-02  -4.9720817e-01   1.7792698e-02  -2.9748177e-01  -9.1855284e-01   3.1565514e-01  -2.0929407e-01   1.7938516e-01   8.4218564e-01  -2.2296764e-01   5.4909993e-01   3.9961785e-01   2.6168294e-01   8.3379023e-01   5.2723320e-01   8.1273928e-01   2.0845022e-01  -3.0038921e-01   7.7522998e-01  -4.7001455e-01   5.5323549e-01   2.0968273e-01   9.0499142e-01   4.6868919e-01  -2.1544079e-01  -1.8825937e-01  -4.0040847e-01  -4.2361308e-01   1.0761098e-01   8.5480533e-01  -1.4962186e-01  -9.4746401e-01   9.6117766e-01   9.5712286e-02  -9.8715326e-01   5.2920711e-01  -7.7463345e-01  -6.5925965e-01   7.2822002e-01  -1.3131376e-01   8.7062175e-01  -6.7068707e-01  -7.4115367e-01  -3.2919606e-02  -1.0972377e-01  -6.8773336e-01  -3.9783759e-01   8.2962184e-01   5.8551687e-01  -9.0803804e-01  -2.6674013e-01   1.7426504e-01   6.0819821e-01   9.3444779e-02  -8.0171398e-01   5.3680511e-01   5.6768209e-01  -9.5261652e-01   2.1680642e-01   9.2912688e-01  -4.6352383e-01   2.0684591e-01  -3.7486566e-01  -9.9977291e-01   4.0423970e-01  -9.9784944e-01  -2.4385720e-01  -6.9671392e-01  -2.4012203e-01  -5.3145507e-01   5.8974863e-01  -5.8659502e-01   3.2542958e-01   2.1800488e-01   3.1528734e-02  -3.8499272e-01   8.1649926e-01  -1.5506344e-01   7.1408974e-01   3.9680780e-02   3.2320197e-01   3.3694054e-01  -7.0721673e-02   3.9960144e-01   3.4743357e-01  -7.5427937e-01   2.3563722e-01   5.1449876e-01  -6.8169175e-01  -7.0292928e-01   5.6375893e-01   4.8344458e-01  -3.3668579e-02  -8.3160853e-01  -7.9591825e-01  -3.4127688e-01   6.7175873e-01  -1.6804121e-03   3.7879618e-01   5.4945575e-01  -1.9024719e-01  -7.9096011e-01  -8.0125239e-01  -4.8273437e-01  -7.6015224e-01   4.7442605e-01   9.2140580e-02   9.8770003e-01   5.6901433e-01  -8.6791879e-01  -7.3743511e-01  -2.8129468e-01   5.4959257e-01   6.8865348e-01   9.8371975e-01   5.7941903e-02   6.8118347e-01  -7.1620260e-01  -9.0563853e-01   9.1027375e-01  -8.2554044e-01  -3.9431451e-01   6.6195055e-01   3.6221503e-01  -5.9909793e-01  -4.6747760e-01   2.9267086e-01   3.3020556e-01   2.1573094e-01   5.6790613e-01   4.6569016e-01   3.6409100e-02   7.2668953e-01  -2.5122938e-01  -2.5210372e-01   5.0488971e-01  -7.3894252e-01  -1.3869706e-01  -2.9539624e-01  -1.6089161e-01  -9.0091271e-01   6.3776535e-01   9.6842389e-01  -9.0470168e-02   2.0797699e-02   3.1204347e-01   2.0148693e-01   7.7644575e-01   8.5835500e-01  -2.0729903e-01  -5.2096208e-01   3.2918408e-01  -2.7996101e-01  -9.4610786e-01  -1.5159202e-01  -5.8904439e-01   1.3001034e-01  -3.2762415e-01   9.2808683e-01   9.5762611e-01  -4.2097408e-01   1.3875689e-01   9.3224437e-01  -7.1933511e-01  -3.4248479e-02   1.0113561e-01   7.3381755e-01   4.8388615e-01  -7.3378967e-01   1.9107846e-01  -1.0506070e-01   4.1723763e-01  -7.3335307e-01   7.8890692e-01  -4.4696766e-01   4.6956585e-01  -3.3961881e-01   7.4452349e-01  -5.5753438e-01   4.1739816e-01  -4.6601180e-01  -8.6364561e-01  -3.8442682e-01  -2.1451191e-01  -9.2600571e-01   7.8607723e-02  -6.6237747e-01   1.8261877e-01  -1.3451533e-01   8.9648533e-01   1.3541682e-01  -9.8722950e-01  -6.9005430e-01  -7.2164442e-01  -4.7754881e-02   3.2942732e-01  -5.6077190e-01  -1.1962184e-01  -8.4729487e-01   8.7496595e-01   9.0254826e-01   5.0131352e-01  -9.1127286e-01   1.4524048e-01  -9.5837038e-01  -6.0407538e-01  -1.1721753e-01   3.2001932e-01   4.0356727e-01   6.0346058e-01  -8.0885523e-01   5.7256547e-01   1.1899423e-01  -2.7731612e-01   6.1849971e-01  -6.5446043e-01   2.8306634e-01   1.1916506e-01   5.8359465e-02  -6.7274436e-01  -4.8401242e-01  -2.2014697e-01   8.5751542e-02  -9.2342756e-01   4.7016090e-01  -1.8999013e-01  -6.1778017e-01  -6.9954032e-01  -3.6808826e-01  -3.3084543e-01   8.1054150e-01  -3.8747314e-01  -7.6611728e-01   8.0872965e-01  -3.1378947e-01  -5.6031421e-01   8.5852323e-01  -4.5049965e-01   4.8296492e-01  -8.0186958e-01   7.9153166e-01  -3.0415515e-01  -3.8508959e-01  -4.7228250e-01   6.5603938e-01   8.0562739e-01   2.7144144e-01  -5.4759408e-01  -5.7803138e-01  -9.8332015e-01  -9.7509685e-01   3.9519353e-01  -1.3873329e-01   5.7636047e-01  -6.3391299e-01  -7.5549068e-01  -1.0750176e-01  -9.6112152e-01   3.5805959e-02  -3.0719914e-01   9.1133708e-01   3.8461046e-02   1.0998610e-01  -3.1480173e-01  -1.5063065e-01  -5.3947912e-01   5.1112852e-01  -8.4014149e-01   9.4412919e-02   7.4084901e-01  -4.5563319e-02   1.5121289e-01  -4.2249401e-01   2.7702417e-01  -7.9149650e-01  -4.6936541e-01  -2.5855850e-01  -8.8452234e-01   8.8782188e-01  -1.6724844e-01   2.8630352e-01  -5.5944744e-01  -7.5443714e-01  -8.3660265e-02   5.6724777e-01   9.7262869e-01  -9.9862547e-01  -1.1068205e-01   8.1286575e-01  -5.4618264e-01   4.6222580e-01  -3.0558086e-01   7.5201284e-01  -3.6714794e-02  -3.1458289e-01   7.2987881e-01   9.9104805e-01   2.7748871e-01   4.4473082e-01  -2.8598551e-02  -1.9344622e-01  -6.9170348e-01   6.0823567e-01  -7.0711472e-02  -9.7691813e-01   1.6964185e-01   1.7277395e-01  -2.2889852e-01  -9.5127584e-01  -4.5198624e-01   2.0994547e-01   4.9656779e-01  -1.3799151e-01   6.5617663e-01  -7.7645853e-01  -9.3784183e-01  -3.5591829e-01   2.1263789e-01   3.3118896e-01   8.9594381e-01   3.6321022e-01  -9.5304831e-01  -2.7290574e-01   1.0510334e-01   1.5057701e-01  -2.3654677e-01  -5.1951662e-02  -5.6900487e-01  -7.9499988e-01   8.3560429e-01  -6.6977753e-01  -3.7851614e-02   1.2106846e-01  -7.7153134e-01   6.9406576e-01  -9.9309436e-01  -3.1629268e-01  -1.2052061e-02  -8.8503273e-01   9.8319845e-01  -6.2509614e-01   9.3236068e-01  -4.2549226e-01  -7.1906089e-01  -2.5125405e-01  -3.0996636e-03  -8.3618408e-01   9.2509445e-01  -1.4162597e-01   3.8911461e-01   7.6153366e-01   4.6983468e-01  -8.4997945e-01  -2.1477721e-02   8.0685790e-01   4.0254734e-02  -5.4339182e-01   1.9241212e-01  -7.8786851e-01   8.2743144e-01   9.6975778e-01   1.2470296e-01   5.3785520e-01   6.1364116e-01  -6.3679523e-01   1.1651505e-01  -4.6429609e-01  -5.7001514e-01   8.9771058e-01  -2.5838413e-01   8.1724694e-01  -7.9986637e-01   6.7943875e-01   9.6651543e-01   8.6008098e-01  -1.9558853e-01   5.3156205e-01   9.6597730e-01  -2.4253321e-01   3.6435826e-01   6.5322331e-01  -9.3709081e-01   1.9298105e-01  -4.7426837e-02  -9.3597744e-01   5.9241478e-01  -6.8798186e-01   4.5279007e-01   4.8703451e-01   7.3873558e-01  -6.3264569e-01  -4.6580557e-01   8.4327238e-01  -6.6542113e-01  -4.8729316e-01   4.0661481e-02   2.1702604e-01   2.2379430e-01  -4.3619993e-01  -7.7789931e-01   5.8427442e-01  -9.9699157e-01   9.7400271e-01   9.4413457e-02   6.2087223e-03   9.0219379e-01   1.8678544e-01  -4.2974274e-01   6.3955182e-01   2.1585276e-02   7.0780385e-01  -2.5737975e-01  -2.4443399e-01  -6.8680748e-01   8.4290901e-02   9.3967106e-01  -5.2127620e-01   6.2954758e-01   7.7065066e-01  -9.7737370e-01   7.1868639e-01   2.0446890e-01   1.9200440e-01   1.5090485e-01  -1.2209560e-01  -9.0977439e-01   3.7615725e-01   5.8765502e-01  -3.7509951e-01   6.5503093e-01   6.6478133e-01  -7.5286280e-01  -5.9976226e-02   8.5174151e-02   4.5167129e-01   2.2026157e-01  -6.8338242e-01  -8.0957366e-01  -5.3159473e-02  -4.9009442e-01  -2.5638290e-01   8.2358684e-01  -3.4291268e-01  -7.5108990e-01
  -8.9832640e-01   8.9890901e-02  -2.2741509e-01  -6.0769091e-01  -9.1000283e-01  -1.7278613e-03  -3.8946974e-01  -8.9026730e-01  -9.1681269e-01   5.4445958e-01  -1.7118264e-01  -1.2607471e-01   7.5476230e-01   6.1889941e-01  -1.7364952e-01  -8.7000593e-01  -8.9864407e-01  -7.8826084e-01   4.7210245e-01  -8.6419606e-01  -2.8766908e-01   9.7047891e-01  -9.5371642e-01   9.8259488e-01   1.5927889e-01   4.5720637e-01  -6.9564975e-01   8.2380565e-01   2.6577057e-01   1.1840698e-01  -2.2303998e-01   7.5518817e-02   1.9264037e-01  -8.3313269e-01  -3.8820401e-01   2.9532121e-01   7.2276677e-01   5.0148768e-01  -2.2990704e-01   5.1571747e-02   7.4570135e-01   2.3041276e-01   3.4799895e-01   3.6526760e-01  -6.9638369e-01   1.7659288e-01   4.5128482e-01  -1.1477283e-01  -6.8711095e-03   4.7799409e-01   8.2227959e-01  -5.8309023e-01  -4.7061718e-01  -2.9191232e-01  -6.5307035e-01   4.6966798e-01   8.1620500e-01   6.8627695e-01  -4.3819368e-01   2.9094452e-01   5.4261069e-01   6.0507976e-01   8.6119205e-01  -3.6991226e-01  -4.1598179e-01  -6.8069789e-01   8.8164041e-01   6.4724375e-03  -3.8993498e-01  -2.9529146e-02   8.2766010e-01  -2.9638399e-01   3.0991190e-01  -1.4129366e-02  -7.6055503e-01   7.2622414e-01   1.9804376e-01   6.2212269e-01   7.3690850e-01  -9.0972728e-01  -8.4443415e-01   6.3195482e-01   7.3784218e-01  -5.5351938e-01  -3.9463288e-01   7.6025648e-01   1.8696477e-01   6.2977196e-01  -8.5739896e-01   2.3168332e-01  -3.3261508e-01  -9.4946567e-01   4.5186722e-01  -4.7573433e-01   1.0133819e-01   8.1815829e-01   1.0562491e-01  -1.8936817e-01  -6.0991731e-01  -1.1611254e-01   4.9389768e-01  -8.8738015e-01   1.5091024e-01  -3.7515002e-01  -5.6485574e-01   4.4518688e-02   5.3559172e-01  -8.1477372e-01   9.7484265e-01   7.3442521e-01  -5.6995654e-01  -1.8493741e-01  -6.0653059e-01   8.3837128e-01  -5.5753326e-01   2.3165594e-02  -9.5807512e-01   4.4719536e-01   7.6845886e-01   8.6984685e-01  -9.0823609e-01   2.7351174e-01   9.2026398e-01   6.1338923e-01  -8.8165341e-01  -6.2126815e-01   6.0469485e-01  -3.2101520e-01  -4.5215986e-01  -4.3485059e-01  -2.7641999e-01  -5.2357306e-01   6.7963041e-01   8.1623599e-01   2.5945303e-01   8.3531841e-01   6.6041853e-02   6.0037339e-02  -5.6750298e-01  -8.1750184e-01  -6.8771510e-01  -6.5736439e-01  -1.6514189e-01  -9.7070569e-01   3.4909754e-01  -1.6655068e-01  -6.0333654e-01  -8.1767849e-01  -9.4612144e-01   9.7313843e-01  -3.0621967e-01  -5.7633185e-01   5.8084670e-01  -3.5503492e-01  -5.8392347e-02  -2.4831255e-01  -4.7089408e-01  -9.6086403e-02  -6.0344920e-01   5.2122814e-01   4.0308242e-01   3.4766661e-03  -5.3929033e-01  -2.9869017e-01   6.2730344e-01   5.3891312e-01   7.8068159e-01   2.8025957e-01   8.4931431e-01  -7.1392640e-01  -6.9218004e-01  -1.4928354e-01   9.2246183e-01  -8.7638252e-01   3.9383864e-01   9.0872747e-01   4.9523443e-01  -9.7476054e-01  -5.9178139e-01  -6.4118821e-01   2.8043504e-01  -5.4393296e-01   3.0838024e-01   7.3128819e-01   5.5893021e-01  -6.3383603e-01   1.0999732e-01  -7.1195672e-02  -2.3815443e-01   3.8837821e-01   5.0600270e-01  -9.0132091e-01  -6.2538198e-01  -9.4017657e-01  -2.4089220e-01  -8.9268965e-01  -5.0315022e-01  -8.5259878e-02  -6.5631760e-01   8.1324248e-01  -1.2084692e-01   3.3569867e-01  -7.1200080e-01   6.6727819e-01   9.1552980e-01   6.4237548e-01   9.8427102e-01   9.3190978e-01  -4.6697939e-01   2.0492946e-01   8.1148359e-01   6.5301034e-01  -2.2650735e-01   8.4630814e-01   4.8959099e-01  -9.1331353e-01  -9.3507450e-01   7.9018136e-01   6.3108126e-01   2.2377476e-01   4.0137359e-01   3.0425889e-01   2.6960052e-01  -5.6379845e-01   2.9402658e-01   8.9438357e-04   9.6928071e-01   5.6152099e-01   4.6824979e-01  -7.7336109e-01   6.9003631e-01  -7.1540461e-01  -6.7492177e-01   1.8061049e-01   8.1282091e-01   4.9207550e-01   5.8816519e-02  -5.8052823e-02  -6.0110891e-01   1.4850672e-01  -5.7298288e-01  -3.4484727e-01  -2.9361420e-01  -1.8124967e-01  -2.1176629e-01  -2.2440298e-01   3.4059076e-02  -1.2136509e-01  -5.4468702e-01   5.3889907e-01  -5.6283763e-02  -5.3583586e-01  -2.0591784e-01   1.8403917e-01  -5.5632727e-01   5.8606591e-01   6.4541551e-01  -3.7458478e-01   1.1665058e-01  -3.8420766e-01  -1.6951683e-01  -7.9279615e-01   5.3148821e-01   2.0224649e-01  -1.4727997e-01  -3.5406222e-01  -1.4522409e-01   9.6628685e-02   6.7644259e-01  -1.5361895e-01  -6.4841540e-01  -7.6944633e-01   3.8359712e-01  -8.2852393e-02   8.5425531e-01   6.9807874e-01   1.9340941e-01   5.7854866e-01  -7.1904016e-01   4.8762654e-01   2.4123359e-01   4.0998481e-01  -2.2934916e-01  -8.6505831e-01   7.3043640e-01  -5.9828389e-01  -1.4914209e-01  -9.6917357e-01   1.6942379e-01  -3.2245727e-01   8.3503183e-01   4.5257868e-01  -6.6495522e-01  -9.4992585e-02   7.4804981e-01   5.9492320e-01  -2.0914288e-02  -7.2871703e-01  -4.4351716e-01   5.3821717e-01  -9.4626740e-01   9.5067052e-01  -6.8580672e-01   9.0845952e-01  -7.5330728e-01   5.2206013e-01   2.8588112e-01   3.9372627e-01  -4.6490547e-01  -5.9831489e-01  -4.4771152e-01  -6.5507095e-01  -9.5991839e-01   1.9410911e-03  -5.9525836e-01  -5.0872649e-01  -9.4777757e-01   3.4698327e-01  -2.9526180e-02  -6.1569947e-01   4.7491894e-01   8.8850308e-01   3.6075391e-01   5.6771644e-02   4.7521895e-01  -4.4762017e-01   7.2635708e-01  -6.3881519e-02   8.0281630e-01  -7.6225084e-01   2.0929131e-01   3.4470387e-01  -7.0644177e-01   5.0934839e-01  -9.6770840e-01   1.7422039e-01  -3.8988899e-01   9.7890905e-01  -9.9432293e-01   4.3497124e-01   5.6093287e-01   7.5871103e-01  -7.4255258e-01  -2.7351404e-01   3.0974959e-01  -1.1059199e-01   1.3412905e-01  -3.4466203e-01  -9.6275365e-01  -7.6668449e-01   1.4794848e-01  -8.5574336e-01   6.3037671e-01  -8.1178877e-01  -7.4398971e-01  -2.9438827e-01  -3.2312054e-01   3.3883151e-01  -2.8254815e-01   4.6973214e-01  -8.0457588e-01  -4.2978265e-01  -2.7371312e-02  -5.3534885e-02  -1.5303861e-01  -3.1558731e-02   7.8077942e-01   6.1026822e-01  -1.2950182e-01  -3.6494526e-01  -7.1788427e-01   5.6281927e-01   9.5711053e-01   6.2273972e-02  -4.0139159e-01   1.9667936e-01   1.7408815e-01  -8.4595524e-01   7.3052104e-01  -4.3352135e-01  -2.2397014e-02  -2.2300591e-01  -4.9831963e-01   1.7467862e-01   5.4979286e-01  -6.3105499e-01  -3.8801758e-01  -2.9929429e-01   8.7032980e-01   5.1040203e-02   1.6896645e-02  -7.4652268e-01  -6.4715267e-02  -5.4985004e-01   9.6120680e-02  -4.4956189e-01  -7.1881113e-01  -2.6158030e-01   2.5156959e-01  -5.0705078e-01   9.4584755e-01  -4.6153921e-01   5.6191982e-01   8.3065739e-01   2.7030456e-01  -6.3574474e-01  -5.8550383e-02   4.2957713e-01  -4.3796306e-01  -7.0681117e-01   5.6688502e-02  -2.3782063e-01   5.3779224e-01   2.8758614e-01   7.3408909e-01   1.8875665e-01  -7.1052087e-01   3.7411930e-01   4.0362405e-01   4.5263968e-01  -8.1705344e-01   6.3406809e-01   8.7021200e-01  -7.7283494e-01  -9.0122901e-02   9.8998949e-01   2.7143257e-01  -8.1093651e-01  -8.8437194e-01   3.0965802e-01  -3.3057209e-01  -7.5099173e-01   5.2361115e-01  -5.6065151e-01   1.1819566e-01  -9.7562711e-01  -9.9077023e-01  -1.4596481e-02   9.5720515e-01  -6.0671595e-01   3.8084321e-01  -8.5900210e-01  -5.6937653e-02   2.3662848e-01  -2.4987694e-01  -2.8888752e-01  -9.6866170e-01  -6.3788687e-01   5.6214354e-01  -5.5735964e-01   7.0603142e-01   7.8106842e-01   2.8774354e-01  -1.9788844e-01   9.1497341e-01  -8.2507769e-01   5.1304288e-01  -6.6236179e-01   4.2530688e-01   1.6783320e-01   9.6634196e-01  -1.1542514e-01  -8.9493316e-01   8.0749856e-01  -9.4818823e-01   4.0974993e-01   6.9536571e-01   9.3241796e-01   1.2756728e-02   6.3837507e-01  -7.0938822e-01   6.1540818e-01  -2.6231308e-02   9.6470991e-01  -8.9560602e-01  -7.5602140e-01  -4.6027784e-01   5.2570932e-01  -3.9719340e-01   6.5069895e-01   6.6038981e-01   9.1559209e-01  -5.0847455e-01   7.6603940e-01   2.0265869e-02   6.3989816e-01  -3.9118732e-01  -4.1208416e-01  -4.7201398e-01   9.4742731e-01  -6.7702736e-01   2.7217199e-01  -2.9096411e-01  -5.5324845e-03  -1.0015478e-01  -2.7898988e-01   3.8926941e-02  -7.0513634e-01   8.9629683e-01   7.5257464e-01   5.8940110e-01   2.3307242e-01   7.5346741e-01   8.1754300e-01  -1.6178409e-01  -7.3009552e-01   9.0370459e-01   3.3529113e-01  -7.1398207e-01   3.3079645e-01  -2.8277068e-01  -9.6594622e-01  -7.4508820e-01   8.8323337e-01  -7.4752588e-01   8.7051857e-03   3.8711752e-01  -6.1897634e-02   2.7051914e-01  -4.7768873e-01   5.1022431e-02  -1.0176120e-01  -2.6484839e-01   6.5232634e-01   4.7609050e-01   7.3116432e-01  -7.8480681e-01  -8.2473893e-01  -4.5455052e-01  -5.2276737e-01   6.0074645e-01  -9.1030891e-01  -2.2584478e-01  -4.9524050e-01  -1.4666472e-01  -7.9761271e-02   7.3012832e-01  -3.4172206e-01   8.8878020e-01  -3.8045091e-01   2.0001774e-03   1.0556475e-01  -9.4571640e-01  -5.1398517e-03   1.3178594e-01  -3.6073228e-01   5.8998911e-01   8.1880838e-01   2.7337358e-01  -5.3530483e-01   1.5660885e-01   9.2616132e-01   7.9812053e-01   5.4090257e-01   5.2394383e-01   8.2032020e-01   4.1734919e-01  -4.6105795e-01   3.0027491e-01  -5.2122512e-01   6.2417873e-01  -6.3104133e-01   4.5614850e-02  -9.1094908e-02  -7.7262729e-01   9.8755353e-02  -1.8771468e-01   9.1348726e-01  -2.0848041e-01   1.3755443e-01  -1.3475091e-01   6.7802474e-01  -6.3377812e-01   2.3892682e-01   9.2099631e-01   5.1865173e-01   6.0503531e-01  -1.5437857e-02   9.0449999e-01   5.1951574e-01   9.0818338e-02  -5.1667870e-02  -1.1179811e-01   4.3539628e-01  -8.0557326e-01  -5.3747626e-01  -8.6359545e-01  -1.5198197e-01   6.4189790e-01  -7.2692600e-01  -4.5334340e-01  -9.6021324e-01   4.2068536e-01  -3.6535932e-01  -7.4703449e-01  -3.9182820e-01  -1.2771706e-02   5.3338892e-01  -5.7763921e-01  -2.7797384e-01  -2.1476898e-01   9.5942011e-01  -7.6829853e-01  -2.8770784e-02   1.4344992e-01   9.3714866e-01  -7.2939491e-01  -5.2690754e-01  -3.1158044e-01  -7.1442203e-02  -1.8305206e-02   2.9447314e-01   4.8768635e-01  -5.7842611e-01   9.1624424e-01   4.8151828e-01   7.1556395e-01  -1.3215928e-01  -8.7481930e-01   9.2727977e-01  -4.3505701e-01   9.4644192e-01  -8.9042620e-01  -9.8603636e-01  -6.0623717e-01   4.4491167e-01   8.1537918e-01  -4.1787337e-01   5.3019170e-01  -3.4332495e-01   5.0043128e-02  -8.8171515e-01  -7.4597860e-01  -6.6828783e-01   3.2175406e-01   9.7119121e-01  -4.4774383e-01  -1.5630831e-01   5.2526800e-01  -7.4960012e-01  -2.0535367e-01   5.9909114e-01  -8.3025757e-01  -3.9173912e-03  -1.9747443e-01  -8.1191375e-01  -7.3100663e-01   1.3954161e-01   4.8382835e-01   2.0757756e-01  -2.9704389e-01   6.0825067e-01  -5.9896092e-01  -4.6580556e-01  -4.6084891e-01  -4.2220710e-01  -9.4115909e-01  -8.0194449e-02  -8.5002959e-01   7.2286426e-01   3.7373243e-01  -1.4469572e-01  -6.7827605e-01   5.8241551e-01  -5.5207137e-01   6.4315133e-01  -4.1822627e-01  -3.7367017e-01  -2.6634876e-01   7.2264227e-01   3.2943074e-01  -2.8012964e-01  -6.8531986e-01  -4.8378358e-01   4.3506830e-01  -7.1301633e-01  -1.5117453e-02  -2.6215862e-02   5.5016594e-01   2.0038641e-01   1.2434149e-01  -8.1593607e-01  -2.4085226e-01   2.9691771e-01  -6.7703938e-01  -5.0290493e-01   6.3129264e-02  -6.2349577e-02  -9.7415097e-01   8.2674346e-01   4.6371533e-01  -8.0419386e-01   1.8605865e-01   4.4713543e-01  -9.6604111e-01   5.7912823e-01   5.1191209e-01  -2.2172938e-01   5.7788484e-01  -5.3643262e-01  -4.5513161e-01  -6.7026138e-01   9.8329145e-01   2.1612193e-01   1.1841728e-01   4.0652759e-01   9.4986828e-01  -9.8353134e-01  -4.7117016e-01  -9.6262080e-01   7.9889916e-01  -3.4931899e-01   1.7723457e-01  -3.4217646e-01   5.0876867e-01   8.2867720e-01   4.9832048e-01   8.7673033e-01  -3.8956760e-01  -8.4522736e-02  -4.9165914e-01  -2.3066250e-01  -5.5721762e-01   7.3120152e-01   9.8701505e-01  -2.7226116e-01   6.9368859e-01  -3.6507117e-01   2.6359163e-01   5.6520983e-03   8.3226773e-01  -6.4162692e-01   6.4480049e-01   5.5956852e-01  -8.8689427e-01   8.9853681e-01  -8.4187103e-01  -7.5286742e-01   4.7435528e-01  -5.5797617e-01   1.8223815e-01  -4.1031231e-01  -5.8039900e-01   8.8868021e-01  -6.3872397e-01  -4.5128647e-01   1.3171675e-01  -8.8258937e-01  -8.1725209e-01   3.7780253e-03  -5.6502690e-01   7.6929444e-01   6.2328105e-01  -1.2401475e-01  -5.8319398e-01  -8.0120070e-01   9.7600799e-01   7.3842748e-01   1.9760760e-01  -6.0662856e-01   1.0936875e-01  -2.5871715e-02   4.0271810e-01   8.2966557e-02  -4.4120454e-01  -5.9587758e-01  -7.6725204e-01   7.9232243e-01   9.8320381e-01  -3.7435924e-03  -6.6696300e-01   6.7554294e-01  -9.5686137e-01  -7.7486188e-01   6.9542370e-01  -1.0468744e-01   4.2983798e-01  -6.9100772e-01   2.4405057e-01  -7.2648773e-01  -2.2471125e-01  -5.6808988e-01  -7.8355021e-01  -1.8159662e-01  -3.0211473e-01  -6.4401132e-01   6.7669807e-01   7.1407977e-01  -3.7039073e-01  -9.7398640e-01   5.4344539e-01  -9.7885331e-02   6.0970426e-01   4.3353991e-01   1.7487512e-01  -3.0504506e-01  -7.0795485e-01   8.0387271e-01   5.5534615e-01   4.5003593e-02  -6.5133572e-01   1.5428677e-01  -3.1591611e-01   7.4788459e-01   4.7821179e-01  -3.0906526e-01   7.2521345e-01   5.7250671e-01   1.7355975e-01   4.9469401e-01   9.7329154e-01   1.8991109e-01  -7.3708112e-01   2.2362887e-01   7.7477060e-01  -7.1924248e-01  -2.6770687e-01   3.6333118e-01   6.4285615e-01  -1.3897810e-01  -4.8053422e-01   7.5402515e-01  -1.6497541e-01   5.5822151e-01   4.5815386e-01   5.7424513e-01   3.1124317e-01   5.4719408e-01   9.5776903e-01   6.4962079e-01  -2.8052487e-01   8.3106314e-01  -1.8601108e-01   1.3211736e-01  -3.9075002e-01   6.4035080e-01   7.4890263e-01  -9.8747164e-01   9.2155262e-02  -1.1747870e-01   6.1691446e-01  -9.2331377e-01  -2.5328110e-01   9.3762943e-02  -7.6092834e-01   1.1998097e-01  -1.9089646e-02  -4.5578586e-01  -1.3262982e-01  -7.5787734e-01  -2.0471976e-01  -2.2590378e-01  -4.6355309e-01  -1.2856250e-01  -8.8310808e-01  -5.4553305e-01  -8.7725872e-01  -7.0479268e-01  -9.3270419e-01  -7.3989675e-01   2.1696245e-01   1.5925556e-01  -5.9315828e-01  -6.6052956e-01   2.0710171e-01   1.0002779e-02  -3.1295319e-01  -1.3872038e-01   6.1403924e-01   2.1374955e-01  -3.8190916e-01  -2.4566096e-01   2.7475201e-01   5.6282023e-01   3.4362601e-01   6.5312373e-02   6.6629403e-01   8.2067843e-01   6.3671979e-01   1.7686924e-01  -4.2018193e-01  -7.6599636e-01   8.1057749e-01  -1.5380552e-01   7.8699367e-01  -6.6342437e-01  -9.1094967e-02  -8.9025895e-01  -6.9919865e-01   7.6481566e-01  -9.7957966e-01  -1.9798827e-01  -7.5917889e-01   5.1516314e-01  -9.3636304e-01   5.8360901e-01  -8.7801740e-01   4.0123582e-01  -5.1843502e-01   2.1147074e-01   5.9886909e-01  -3.5700584e-01   8.4175005e-01  -5.0591102e-01  -2.9450208e-01  -1.7509606e-01   7.9632086e-01  -8.5221787e-01  -4.8925875e-01  -6.6993519e-01  -2.6429001e-01  -2.8894117e-02  -9.4362736e-01  -4.3105057e-01  -2.1833476e-01  -2.7035209e-01  -3.1683241e-01  -2.1447364e-01   5.1454122e-01  -6.2379065e-01  -5.9497584e-01  -2.2946902e-01  -4.6950783e-01   9.1041737e-01  -4.9895780e-01   2.2930388e-01   8.0005287e-01  -2.8373543e-01  -5.9853302e-01  -2.4553895e-01   7.7588064e-01  -1.0652789e-02   8.7495452e-01   2.7121465e-01   9.7505896e-01   2.0083291e-02   1.1855920e-01   8.4331292e-01  -8.8041380e-02   4.9211009e-01   1.5627997e-01  -8.2522906e-01   4.1856140e-01   6.6223315e-01   6.4867489e-02  -7.4421249e-01   6.0079473e-01   4.0176706e-01  -2.7624305e-01   4.6998765e-01  -6.3649636e-01   6.5255827e-01   8.6279015e-01  -3.0046743e-01   7.6973960e-01  -7.8107130e-01  -4.4018980e-01   7.5278238e-01   8.8094647e-01  -8.6267377e-01   6.7952213e-01  -7.3403694e-01   8.8095659e-01  -4.3542980e-02  -1.2695870e-01  -5.0925061e-01   1.6540628e-01  -8.1282345e-01  -7.7344445e-01   6.4861735e-01  -1.5854521e-01   9.1278303e-01   7.0074792e-01  -9.8773621e-01  -3.3078147e-02  -7.6581322e-01   8.4637224e-01   9.2138122e-01   7.0795335e-01   8.5219679e-01  -7.2399703e-01  -9.3198481e-01  -8.3689194e-01   5.0288266e-01  -4.3701929e-02   5.8249502e-01  -6.0253687e-01  -8.1838582e-01  -1.8239972e-01   6.0418604e-01   9.1027314e-01  -4.0569675e-01   6.2959228e-01  -2.6985746e-01  -2.1306796e-01   2.6208232e-01  -4.9741236e-01   1.1670827e-01   9.3317631e-01   8.2135328e-02
