  -1.2091194e-01  -9.1419101e-01   3.6650762e-01   2.0571895e-01   1.6468932e-01   8.0230040e-01  -2.5082511e-01   9.5577018e-01  -4.1056083e-01  -5.4582587e-01   1.7991358e-01  -3.0561389e-01   7.5258295e-01  -3.4785640e-01  -2.3980900e-01   5.8313096e-01  -4.9881559e-01  -1.3174271e-01  -1.9980218e-01   6.7473239e-01   8.2202262e-01  -7.8605291e-01   3.4931054e-01  -1.0337360e-01  -9.2071038e-01  -2.4633377e-01  -9.6939154e-01  -7.3520762e-01  -8.9044483e-01  -4.8625610e-01   8.6718918e-01  -5.4691936e-01   5.7566985e-01   5.4940266e-01  -1.8335689e-01  -3.7232334e-01   9.3877585e-01   8.5619539e-02  -7.2869940e-01   3.6654298e-01  -8.5346460e-01  -1.8324769e-01   3.8390217e-01  -1.3550816e-01  -4.1947971e-01   3.6967081e-01   5.2029442e-01  -5.0674065e-01  -6.1660265e-01   8.7706596e-01   8.4157485e-01   6.5151991e-01   3.9738508e-01  -3.8738015e-01   6.3384587e-01   1.5931284e-01   2.5154317e-01   4.9760210e-01  -6.9253084e-01  -7.3190384e-01   9.6728427e-01   4.7730987e-01  -7.0347584e-01   3.5673690e-02   5.4794398e-01   7.1133259e-03  -5.7699193e-01  -1.5636518e-01   2.5087046e-01   9.7331167e-01   2.6766876e-01  -4.1672934e-01   8.6982758e-02  -7.8050377e-02   8.9313623e-01  -3.9746104e-01  -5.5002479e-02   4.7586600e-01   2.9260302e-01  -5.6051705e-01  -7.8987502e-01   9.5034462e-01   1.1836063e-01  -8.2915294e-01   3.2892975e-01   1.0494863e-01   9.9210579e-02   5.9752874e-01  -6.5582581e-01   3.8687296e-01   1.2347288e-01   2.4777031e-01   7.9238470e-01  -3.3099496e-01  -1.9477743e-01   1.1767396e-01   2.4644993e-01   2.0791062e-01   7.9928144e-01  -8.9754406e-01  -9.0225705e-01   3.0566997e-01  -6.3249463e-01   4.3778468e-01   5.7259895e-01   2.2375687e-01  -6.4898711e-01   1.6093498e-01   8.8057044e-01   4.1456504e-01  -9.2119035e-01   8.8165979e-01   1.8349829e-01  -8.6742029e-01  -7.0556737e-01   3.7715310e-01   7.8579569e-01  -7.6133395e-01  -5.1157968e-01  -4.8348476e-01   1.1323892e-01   8.5957519e-02   8.4811516e-01   8.3093654e-01  -3.4717448e-01  -4.1269293e-02  -9.1080721e-01   5.2451029e-01   5.3464225e-01  -3.7912073e-02   4.4400096e-01   3.2211199e-01  -1.4131581e-01  -1.2336603e-01  -8.1015722e-01  -1.8038693e-01  -1.7546070e-01   5.3093827e-01  -9.5429535e-01  -8.7542062e-01  -1.5846564e-01  -1.9506551e-01   8.8569354e-01  -6.7812308e-01  -1.6779138e-02  -8.7099823e-01   3.6604277e-01  -6.5887892e-03   9.3078474e-01   6.6212757e-01  -1.4482596e-01  -5.9779142e-01  -4.3130023e-01   7.3258154e-01  -8.3002670e-01  -7.3668386e-01  -4.9550599e-01  -4.5450611e-01   2.0625157e-01  -8.0844636e-01   1.1378971e-01  -2.0656402e-01   9.3026414e-03   9.3486375e-01  -2.5823745e-02  -5.2365337e-01  -9.4563377e-01  -5.0541677e-01  -2.2337472e-02   7.7505158e-01  -8.9416433e-01  -9.2531972e-02   4.6197307e-01   8.6565975e-01   9.8963764e-01   5.7768149e-01  -2.2691531e-01   7.2703236e-01   8.4358895e-01  -2.5907878e-01  -9.8621650e-02   3.8357377e-01  -1.3900534e-01  -9.3139598e-02   7.2158896e-01  -8.2556260e-01   7.0325468e-01   1.7778056e-01  -8.6008855e-01   2.7966168e-02   9.3885672e-01   7.4308107e-01   6.0898894e-01   6.0405104e-01   4.8959604e-01  -2.5045195e-01   7.3238827e-01   7.7258109e-02   3.5965116e-01   8.1742118e-02  -1.0470409e-01   1.2752224e-01  -7.2413225e-01   1.9261838e-01  -4.4261822e-01   9.0326471e-01   9.2386899e-01   8.1972834e-01   8.9539843e-01  -8.1001276e-01  -8.6160197e-01   3.3440561e-02  -2.5396223e-01   3.4592703e-01  -7.7052514e-02   2.0567367e-01   5.2787092e-01  -9.4664925e-01   3.9047092e-01   2.6519742e-01  -5.5650632e-01   2.4020899e-01  -4.9660516e-01  -6.9320811e-01   7.6268698e-01   2.8938951e-01   7.1088343e-01  -1.3077163e-01   9.6540429e-01  -4.1201171e-01   1.3209218e-01  -3.1458091e-01   1.6620083e-01  -6.3443638e-01  -8.5376675e-01   5.5407366e-01  -3.2818688e-01   4.8750257e-01  -8.9477447e-01   3.1006974e-02  -8.2746182e-01  -9.2511118e-01  -9.3700244e-01  -7.9921686e-01  -9.0712597e-01  -4.7963714e-01   5.4488186e-01  -7.1596368e-01  -1.0397576e-01  -6.2951202e-01  -4.2047276e-01  -6.9964310e-01  -5.4849468e-01  -4.8287096e-01  -2.9808584e-01  -8.5716740e-01   5.9405665e-01  -3.4122153e-01  -7.9298387e-01   8.8171627e-01   8.5349676e-01   4.0237066e-01  -1.3571826e-01  -6.7293950e-01  -6.9326009e-01   9.8686045e-01  -4.3472850e-01   3.7250044e-01  -9.5777700e-01  -6.5086641e-01  -3.1542254e-01   2.0753335e-02  -1.0901337e-01   1.7863892e-01  -5.5558601e-01   3.3908694e-01   2.2485393e-01   8.8537256e-01  -2.9093897e-01   6.4491587e-01   9.7708207e-01  -4.6760734e-01  -5.6501124e-01  -4.7978217e-01   7.1550496e-01  -4.3565374e-01   5.8983375e-02  -7.7341073e-01  -8.5338863e-01  -1.0317106e-02  -6.3819235e-01  -2.0265261e-01   8.2919854e-01  -8.7549548e-02   2.4769214e-01  -7.0302688e-01  -7.9614342e-01   9.9257868e-02   6.9752072e-01   5.1598304e-01   1.7537482e-01   9.8853868e-01   2.9321361e-01   9.8996920e-01  -1.2331308e-01  -3.6615544e-01   7.7216300e-01  -6.1868722e-01   5.7012029e-01   8.2422697e-01   2.8547889e-01  -1.9439014e-01  -2.1111587e-03   5.6811304e-01  -8.7925967e-01   8.1837926e-01  -2.8344503e-02  -1.0605216e-01  -3.1465881e-01  -8.1555199e-01  -3.8682927e-01  -7.7016568e-01   7.1932767e-01   2.7838148e-01   1.2578441e-01   3.8168948e-01   5.6248120e-01  -6.3792358e-01   9.6396932e-01  -7.3619801e-01  -2.6443287e-01   4.6176175e-01   1.7932377e-01  -2.5597947e-01  -1.8986462e-01   2.8332358e-01   9.9480343e-02   4.3051974e-01  -1.6211365e-01  -4.6591088e-03  -6.6821481e-01  -2.1630861e-01  -3.4485944e-01   1.2133863e-02   5.7811382e-01   4.2794112e-01  -8.4735444e-01   9.8551696e-01   1.4021101e-02   5.6002317e-01  -1.4578269e-01  -4.0068599e-02   7.4662688e-01  -4.3816209e-01  -7.3002383e-01  -9.2907863e-01  -9.5536498e-01   9.5160096e-01  -2.1237552e-01   9.6682779e-01   2.2975211e-01   4.7045006e-01  -3.9630281e-01   2.6057171e-01  -7.0469139e-01   1.7527649e-01  -1.2210991e-01   1.4341249e-01   2.8962302e-01   8.0818981e-01  -9.9362863e-01  -8.7074553e-01  -5.6761299e-01   3.7319870e-01   2.9551987e-01   1.7041286e-01  -2.2398719e-01   1.7389722e-01   1.0599735e-01   3.8775967e-01  -5.4972241e-01   4.9996452e-02   3.2426022e-01   3.3088387e-01   6.9753642e-01   5.7677763e-01   9.3638509e-01   6.9207418e-01  -4.1186889e-01   5.1785345e-01  -8.6343696e-01   1.5753353e-01   9.5279480e-01  -6.0796860e-02  -1.1213587e-01  -9.0046819e-02  -5.4117849e-01   8.7855920e-01  -4.3413604e-01  -4.8211136e-01   8.0122729e-01  -5.7373632e-01   8.9404784e-02  -8.1933826e-01   4.3584937e-02  -2.9434296e-01  -9.5531054e-01  -1.0080080e-01  -1.7771044e-01   2.1820880e-01   1.0907486e-02   1.4124486e-01  -7.1895305e-01  -1.6952151e-01  -5.4212183e-01  -5.4820560e-01  -7.8417681e-01   4.7864101e-01   6.4268214e-01   2.5498017e-01   8.0901478e-02   3.3865772e-01   4.8617013e-02  -7.9618971e-01  -9.7038644e-01  -4.9523977e-01   6.1939822e-01  -4.3010583e-01   2.9568648e-01   8.9971636e-01   8.7724608e-01  -3.5201088e-01  -1.5699788e-01   2.0428545e-02  -8.2676422e-01  -1.6125501e-01   5.0964433e-01  -2.6273882e-01  -9.9028025e-02   6.9276180e-01  -5.8798763e-01  -1.1958614e-01  -2.0844094e-01  -1.7870815e-01  -4.4317660e-02  -2.3438986e-01   5.4712418e-01   1.9827598e-01   3.3759493e-01   7.1828338e-01  -2.7540643e-01  -7.2250790e-02   7.1939954e-01   1.6878703e-01   4.6058634e-01  -2.7265752e-02  -4.9807969e-01   2.7872352e-01  -1.7847096e-01  -9.5931280e-01  -9.7355296e-01   8.1886013e-01   3.8951492e-02   4.4441208e-01  -5.9332608e-01   6.4176802e-01   5.2726458e-01  -4.6858902e-02  -9.8424039e-01  -4.6166388e-01   9.5472679e-01  -2.3401962e-01  -3.2269651e-01   7.5222798e-01   1.6524033e-01   8.1293269e-01  -9.0268677e-01  -2.4948398e-01  -8.6888720e-01   2.0526833e-01  -1.9733878e-01  -7.2883524e-02  -8.5075690e-01   9.1661431e-01  -1.4929001e-01  -5.5028958e-01  -9.7211571e-01  -4.6930893e-01  -5.8569615e-01   9.9302673e-01   4.7855982e-02   7.0184379e-01  -9.7801174e-01   5.0355688e-01   3.3149627e-02  -4.2838370e-01  -5.6204697e-01   3.5405510e-01   4.1051768e-01  -6.9677691e-01   3.6474177e-01   7.2063601e-01  -3.2147964e-01   1.8163479e-01  -9.6094973e-01   8.0842779e-01  -1.8113525e-02  -8.2553379e-03   7.5760701e-01   3.5067668e-01   3.0914399e-01   1.7283718e-01   1.1780636e-02   3.0458455e-01  -8.2272228e-01   8.4376441e-01  -3.0884347e-01  -1.2891701e-01  -2.6888962e-01  -7.6538392e-01  -6.4155869e-01  -8.5392404e-02  -5.0724591e-01  -2.7060313e-01   8.2330525e-01  -1.2049364e-01   5.8922330e-01  -1.4975728e-01   1.6796195e-01   2.1448719e-01   2.9053334e-01  -3.7289231e-01   2.9540986e-01  -8.0835127e-01   9.0493340e-01   8.9696073e-01  -4.9233837e-01  -4.7169790e-01   6.4766937e-01  -8.2237498e-01  -2.7668769e-01  -8.8002292e-01   5.7464706e-01   3.7259374e-01   5.0681774e-01  -8.0269058e-01  -1.6221092e-01   4.2124672e-01  -1.3874011e-01  -2.3213778e-01   4.7375435e-01   9.0868211e-01   4.6059248e-01   6.4326038e-02  -1.3589293e-01   8.7193028e-01   9.9674133e-02   7.5216360e-01  -3.4343785e-01   2.4144059e-01  -4.5191715e-01   7.3169800e-01  -1.2100085e-02   6.6144781e-01   5.9447757e-02   3.0475185e-01   9.8058035e-01   8.7197697e-01  -3.3335568e-01   2.8657749e-01   9.1331720e-01   8.9775271e-01  -1.9218464e-01  -1.8404358e-01   3.9043490e-01   4.5943730e-01   8.1182047e-01  -1.1126157e-01  -1.1068221e-01  -4.0834978e-01   5.7930403e-01  -2.7867456e-01   9.5912605e-01   4.1710573e-01  -6.0337772e-01  -2.8129441e-01   8.3163737e-01   6.3256957e-01   3.7297858e-01   3.7712520e-02  -5.7117307e-02  -2.7188612e-01   6.7512332e-01  -2.7782618e-01   5.7560984e-01  -2.6330453e-01  -9.6606530e-01   9.8908007e-01  -1.8787675e-01   9.1942753e-01  -3.5069993e-01  -9.1595665e-01  -5.5780558e-01   9.8521252e-01   9.6746309e-01   5.1359907e-01  -7.8312965e-01   7.5252499e-01  -5.3455435e-01  -4.5199894e-01  -7.4756224e-01  -6.4850905e-01   2.6681981e-01   4.9224861e-01  -1.3075906e-01   2.0403883e-01  -3.1171109e-01   1.8915565e-01   4.2225764e-01  -9.0409447e-01   2.1284734e-01  -2.2460383e-01  -7.0164675e-01  -8.7258939e-01  -5.9898887e-01   7.8627421e-01   1.1872310e-01   2.8771388e-01  -4.8593754e-01  -1.0279805e-01   3.6510189e-01  -3.5951698e-01   3.3210181e-01   7.7399125e-01  -2.3323772e-01   4.6399620e-02   4.2991424e-01   4.2839418e-02   5.9208930e-01  -7.0460632e-01  -3.8087373e-01   8.4180708e-01  -2.8645424e-01   2.5871768e-01   9.8319433e-01   1.7064420e-01   3.8135803e-01   7.5949371e-01   9.7668546e-01   8.8211592e-03  -2.3771678e-01   1.7232588e-01  -8.2051884e-01   9.8755060e-01  -5.9467186e-01  -7.2432620e-01   1.3859176e-01   9.6222244e-01  -5.9665969e-03   3.8651161e-01  -6.6186112e-01   7.7122401e-01   4.4995846e-01   3.9899638e-01   5.2949083e-01   4.4052089e-01   9.6213228e-02  -5.7682997e-02   2.2683334e-01  -3.7565950e-01   8.2817407e-01  -6.8188569e-03  -9.8322137e-01   8.1220101e-02  -9.9032161e-01  -5.4255555e-01   1.0520230e-01  -8.1631359e-01   3.9927969e-01   5.9689272e-01  -1.7640832e-01   6.1497442e-01  -7.9804455e-01  -3.4297776e-01   7.1953820e-01   3.0123854e-01   4.7516767e-01   3.9076568e-01  -1.5555451e-01   7.0868014e-01  -3.7085566e-01   5.8386689e-01  -7.5017288e-01   7.2523221e-01  -2.4760724e-01   3.7163894e-01  -3.0320240e-01   4.7653990e-02  -2.3834522e-01  -1.7517979e-01   5.4786267e-01  -3.0169113e-01  -8.9784768e-02  -3.8402410e-01  -8.9325700e-01   1.6304091e-01  -8.7241564e-01  -2.1287148e-01   3.4593984e-02  -7.2131343e-01   6.5758888e-01   7.3224144e-01  -2.9499424e-01  -4.7606376e-01  -3.2003106e-01   3.9176040e-01   9.8204006e-01  -5.3588053e-01  -3.8503349e-01  -9.9875744e-01  -4.6858642e-01   5.0671457e-01  -6.6937640e-01   9.2437721e-01   9.7782213e-01  -3.7887271e-01  -3.1818887e-01  -3.2520139e-01  -3.4155092e-01  -3.1556157e-01  -4.1994871e-01   9.3253189e-01   2.2921609e-02  -9.9918551e-01  -8.6667255e-01  -5.4574597e-01   8.7374027e-01   6.7568894e-01  -8.9039417e-01   1.8989764e-01   3.6706742e-01   4.9850296e-01   3.9588656e-01   3.6333669e-01   3.7694761e-01   3.7417362e-01   8.7039280e-01  -9.4028481e-01   4.1501649e-01   1.1959968e-02   2.8975006e-01   9.9015629e-01  -4.3879884e-01   6.1492338e-01   2.9151291e-01  -1.5549313e-01  -7.7879642e-01   3.1473924e-01   6.2386091e-01  -3.7924607e-01   4.1469210e-01  -7.5987576e-01   2.1163910e-01   3.8583912e-01  -6.9542407e-01   5.5794830e-01  -5.5866917e-01   5.5246854e-01   5.4322923e-01  -7.9307416e-02  -2.8621572e-01  -7.1337537e-01  -4.1040338e-01   5.6924351e-01   8.1916402e-01   1.6430655e-01   9.4261914e-01   3.6752065e-01   3.0098591e-01  -3.2795743e-01  -6.3683087e-01  -3.0532800e-01   5.4164735e-01   8.3358958e-01   3.0658021e-02   6.3912665e-01   4.7713837e-01   4.0375185e-01   4.2920132e-01   9.5385572e-01  -4.2683176e-01   8.4988402e-01   2.7824967e-01  -7.5449231e-01  -5.0138671e-01   7.7656670e-01  -3.4313091e-01  -1.9938435e-01   1.9243904e-01  -1.5170058e-01  -6.6898482e-01   3.0046753e-01   8.4707309e-02  -1.3797619e-01   4.4586977e-01   8.3378434e-01   3.8739854e-01  -4.3564442e-01   8.1176008e-01   6.1351972e-01   5.3004021e-01   3.2956100e-01   2.4785113e-01   2.3904291e-02   8.5813530e-01   7.0879823e-01  -1.2609037e-01   1.9276728e-01  -7.8431405e-01  -5.7499801e-01  -3.5509425e-01   9.3605475e-01   7.1813362e-01   3.8035494e-01  -1.5638198e-01  -2.0418158e-01   2.9601663e-01  -8.8651331e-01   7.1535191e-01  -7.7451179e-01  -1.5354184e-01  -6.3832690e-01  -3.7615584e-01   5.2115854e-01   7.4008712e-01  -9.9977463e-01  -1.0993350e-02  -5.9487398e-01   3.8431796e-03  -5.8003757e-01   3.4312454e-02  -1.6922675e-01  -3.4415228e-01  -6.7636813e-01   5.8744882e-01   7.8358197e-01  -7.8727529e-01  -5.9426129e-01   2.0542990e-01   4.0599095e-01  -8.7083685e-01  -5.3218878e-01   6.6312854e-01  -5.4462757e-01   1.7908119e-01   4.4323032e-01  -2.1740339e-01   7.3121254e-01  -9.0314718e-02  -7.1529263e-02   7.0040786e-02  -9.9371145e-01  -9.0999623e-01   3.8164906e-01   6.2397057e-01   3.3664639e-01  -2.5430170e-01  -5.8866249e-01  -8.8491516e-02  -5.7552366e-01  -9.6203011e-01   3.0128377e-01   8.2731957e-01  -1.4979482e-01   1.0617025e-01  -3.6831131e-01   3.3615047e-01  -5.1866293e-01  -5.1663659e-01   2.4990322e-01   1.4636546e-01  -9.7707490e-02  -9.8262273e-01   5.6785901e-01  -3.7998352e-02   7.1672608e-01  -3.5504485e-01   5.6870665e-01   7.7392906e-01   9.1034062e-01  -5.0853355e-01   7.3225856e-01   6.6169171e-02   5.9334459e-01  -9.1277160e-01  -8.1939483e-01  -3.8018190e-01   9.9755161e-01   4.9197612e-02   1.8878969e-01  -8.3052040e-01  -9.9618659e-01  -3.0088497e-01  -7.7032958e-01  -8.1440478e-01   7.3509193e-01  -2.1259996e-01  -8.4056891e-01  -6.1391453e-01  -7.9393768e-01   7.9394769e-01  -6.2500343e-01   1.8773323e-01  -4.9952971e-01  -4.4163792e-01  -5.2601575e-01  -1.6623944e-01   7.5676884e-01  -6.2153132e-01   7.7041933e-01  -6.0766379e-01  -5.0401475e-02  -3.8984178e-01   6.7381840e-01  -8.9043568e-01  -2.0659419e-01   7.2023258e-01  -5.9091365e-01   9.3857869e-01   8.5753102e-01   6.0973016e-01   1.4948352e-01  -3.3125617e-01   1.6685061e-01  -8.5619335e-01  -5.2487917e-01   7.7695851e-01  -9.1360331e-01  -9.5426106e-01   9.3777797e-01   3.3478236e-02   1.5174926e-01   4.7227748e-01   8.0253792e-01   6.7562385e-01   4.5202600e-01  -5.3342439e-01   9.5445289e-02   7.5284728e-01  -3.4586123e-01   8.1073156e-03   1.7915905e-01  -1.6429077e-01   3.1328358e-01   6.9798481e-01   8.5751395e-01   9.0432795e-01  -4.8832012e-01  -1.0781639e-01   5.8457641e-01  -7.8177383e-01   8.2237438e-01   5.3187955e-01  -8.3687688e-01  -3.4787662e-02   6.5324045e-01   4.1437261e-02   2.7970524e-01   9.5649741e-01   4.8838491e-01  -2.3585819e-02  -5.8978352e-01  -5.1628258e-01   6.8498167e-01  -9.2160067e-01  -6.2492859e-01  -5.2240154e-01   9.5544437e-02   5.6829865e-01  -8.8330535e-01  -6.6135877e-01  -7.2000003e-02  -2.2159325e-01   4.0040935e-01  -9.5488096e-01   7.9907463e-01   3.3604682e-01  -6.0945934e-01   5.5161948e-01  -7.0629964e-01   4.7487391e-01  -9.5894151e-01  -4.2701142e-02  -9.3618450e-01   3.4539231e-01  -4.4860631e-01  -1.7917566e-01  -7.2574834e-01   9.3305545e-01  -5.0765138e-01
  -8.6437005e-01   7.7886591e-01   8.3056771e-02  -5.1808324e-01   5.5627527e-01   8.4255961e-01   9.5478713e-01   4.5125131e-01  -5.6426304e-01  -4.5299648e-02   8.5545669e-01   7.0039403e-02  -3.5780659e-01   9.6221773e-02  -1.4022527e-01  -2.1580441e-01   6.2425505e-02   9.9648750e-01  -5.8290012e-01  -5.4236738e-01   3.7963911e-01  -7.0146344e-02  -4.8322337e-01   6.3372812e-01  -5.7717192e-02  -3.3645340e-01  -5.1997832e-01   7.7510269e-01   8.6010163e-01   7.4740848e-01  -1.4905246e-01  -6.0755192e-01  -6.7952883e-01   9.1820001e-01  -9.1958889e-01  -1.5526656e-01   8.2593584e-01  -9.7598905e-01   4.3656087e-01  -2.7429207e-01  -1.3645018e-01   8.8033014e-01  -2.9715452e-01  -8.2582903e-01  -2.9929224e-01  -3.6590577e-01  -9.8856341e-01   8.4176121e-01   5.6958034e-01  -4.1438630e-01   6.7914501e-01   4.6054958e-01   7.6192316e-02   2.0441242e-01  -2.6386283e-01   7.3985947e-01  -2.7829141e-01   8.9485875e-02  -9.4002317e-01  -9.5290408e-01  -2.2125600e-01   2.3749775e-01  -7.5687815e-01  -3.8078403e-01  -6.8279861e-01  -3.0771114e-01  -7.1584348e-01  -2.6999427e-01  -2.7532901e-01   7.1038589e-01   7.7594830e-01  -8.2011943e-01  -9.0944973e-02   4.6104699e-01   6.4123613e-01  -8.6555308e-01  -2.4019181e-01  -2.2075081e-01  -3.1552696e-01   3.1406770e-01   1.1084413e-01  -4.7969285e-02  -3.7933789e-01   1.7464558e-02   9.3884721e-01   1.0735563e-01   2.4468396e-01  -2.2585669e-01  -1.1295274e-01  -8.4935178e-01  -5.3155229e-01  -1.2522814e-01  -6.2485439e-01  -4.0638517e-03  -8.2499681e-02  -7.6058821e-01  -1.0098104e-01  -7.4743818e-01  -9.5949598e-01  -6.3365324e-01   4.6419926e-01  -3.6124417e-01   7.9224414e-01  -7.5692860e-01   1.8263366e-02   7.5263656e-01  -4.2982831e-01  -3.5105884e-02   9.4068991e-01  -7.5653121e-01  -7.7151573e-01  -8.1748821e-01  -1.5940095e-01   4.3672052e-02   3.3913945e-01   9.6060992e-03  -2.3014982e-01   2.5894788e-01  -2.9205558e-01  -4.8207987e-01  -2.5639807e-01  -8.0077329e-01   9.3897126e-01   3.1146437e-02  -5.8457190e-01   9.4620694e-01   1.5095410e-01   5.0611409e-01  -5.3856469e-01   1.1352470e-01  -8.6754618e-01  -4.9085581e-02   8.5753178e-01  -2.9109066e-01   2.4576208e-01   8.8012256e-01  -9.7348402e-01  -5.8171826e-01  -9.6047826e-01  -7.8239684e-01  -9.7073121e-01   6.9816417e-01   3.3008045e-01   8.9978260e-01   3.4681054e-01  -9.1359864e-01   8.1577396e-01  -2.5570168e-01  -8.0192132e-01  -5.6107593e-01   6.8978442e-01  -6.9666724e-01  -6.2326461e-01  -4.7266829e-01   6.4368110e-01  -4.4271149e-01  -1.9993105e-01  -7.8139077e-02   9.3950664e-01   3.9503405e-01  -9.0707829e-01  -7.6030413e-01   9.1241629e-01   1.0990139e-02   4.2159289e-01   7.2216228e-01   8.4194781e-01   5.6021527e-01   3.0966107e-01  -8.9307994e-01   5.8389377e-01  -5.1575647e-01  -9.8703322e-01   7.3272288e-01   7.8707104e-01  -6.5795810e-01   3.8377613e-01  -9.4294742e-01   6.9044578e-01  -9.8652603e-01   4.5293762e-01  -1.0466593e-01   8.1529317e-02   3.0925418e-01  -8.8249172e-01   4.4645917e-01  -1.1286940e-01  -1.0712703e-01  -8.5417299e-02  -6.9215222e-01   7.9453029e-01   7.5667219e-01   8.9520365e-02  -7.7071757e-02  -7.1877263e-01  -6.9321780e-01   7.0667848e-01  -8.7986598e-01  -3.0431042e-01  -5.7327295e-01   8.0532728e-01   4.8564230e-02  -2.2745834e-01  -3.2847901e-01  -7.9299981e-01   2.1118781e-01  -7.7803482e-02  -6.3325799e-01   2.8293241e-01  -8.3010324e-01  -7.0869598e-01  -5.4025155e-01   1.4156260e-01   1.8024020e-01   3.9585203e-01  -3.1635108e-01   1.7865746e-01   8.1699339e-02  -4.5486130e-01   5.4780696e-01   4.1699348e-01   2.9864591e-01   4.8717235e-01  -6.7086221e-01   6.8874435e-01  -1.6938122e-01   3.2079358e-01  -3.2969629e-01   5.0775002e-01  -8.9021141e-03   5.2904799e-01  -2.3480121e-02  -4.5859323e-01   7.4273708e-01   3.9906236e-01  -8.7619682e-01   2.2833706e-02  -9.0618913e-01   5.9151358e-01  -8.5440530e-01  -4.8008664e-01   3.8895173e-01   5.0873646e-01   6.7006318e-01  -7.8343016e-01   5.6705774e-01  -8.7567880e-02   7.9317352e-02   8.2992498e-01  -9.2135587e-01  -3.0544700e-01   7.1923800e-01   5.7581633e-01  -5.4577509e-01  -2.8091334e-02  -9.3716095e-01   9.3503163e-01  -6.1165921e-01  -9.2278494e-01  -4.7203913e-01   3.3557639e-01  -1.6977323e-01   9.3720050e-01   4.3510909e-02  -7.0079120e-02  -5.6085666e-01  -4.3142028e-01   4.7487031e-01  -1.8464908e-01   6.6090029e-01  -9.6279134e-03  -4.8524122e-03   6.2880494e-01   9.3272853e-01  -8.4292224e-01  -3.9443776e-01   7.2386826e-01   9.2932271e-01   7.1236600e-01   4.1265791e-01  -4.9513714e-01   2.3863176e-01  -1.4606250e-01  -9.9602161e-01  -5.2121110e-01  -1.4203362e-01  -6.6749731e-01   8.4282614e-01  -4.5397269e-01   1.3436143e-01  -9.4392649e-01   2.3247122e-01   3.5193624e-01  -5.2927060e-01  -2.0763680e-01  -1.9425290e-02   5.3830429e-01  -2.3404716e-01   6.2863161e-01  -8.7163682e-01  -8.0249292e-01  -9.9043807e-02   7.6177943e-01   8.5934530e-01   4.7866156e-01   2.6048223e-01   2.8136685e-01  -6.8933529e-01  -8.4959326e-01  -7.1890388e-02  -7.5942192e-01   2.9437368e-01  -1.5936757e-01  -3.2648199e-01   2.1906195e-01  -3.1189577e-01  -2.8182641e-01  -6.6379084e-01  -3.4879057e-01  -3.4409743e-02  -5.7398854e-02   6.4110741e-02  -1.4270593e-01   2.3683167e-03  -6.2426595e-01   8.4110888e-01  -3.3212731e-01   1.3960275e-01   7.0687017e-01  -3.7572547e-01  -5.3707602e-01  -8.4471728e-01  -7.7234672e-01   2.6681065e-01   2.1496909e-01   4.3799715e-01   1.8498670e-01   8.8483963e-01   4.3185290e-01  -2.8968439e-01   8.7107271e-01  -3.5224446e-01   9.5971142e-01  -8.2317371e-01   6.2956565e-01   7.9863871e-01  -5.0760693e-01  -3.2440251e-01   7.8862889e-01  -7.8405827e-01   5.5925166e-02  -9.9911683e-01  -6.3275003e-01   9.0767643e-01   6.2031414e-01   8.4344537e-01   4.4854164e-01   7.7859771e-01  -7.5567323e-01  -8.4578790e-01  -9.8010496e-01  -3.7875185e-01  -4.4311939e-01   9.5295396e-01  -2.5477190e-01  -3.3747714e-01  -6.9252323e-01   7.7414994e-01  -2.7997135e-01  -2.1881245e-02   3.7329512e-01   9.9864815e-01  -4.4779777e-02  -6.0469118e-01  -5.7073495e-01   7.5955263e-01   2.1835982e-01  -1.0649012e-01  -1.8066517e-01  -5.3530997e-01  -9.9356306e-01   4.3805358e-01   1.0600834e-01  -8.8561026e-01  -9.2156717e-01   3.9514656e-01  -7.2899721e-01   2.1073865e-01  -5.9628025e-01   1.5273643e-01  -6.1534337e-01  -2.8836993e-01   8.3782838e-01  -9.6397035e-01  -3.9501897e-02  -5.9128132e-01  -6.8817774e-01   9.3878724e-01   3.2667267e-01   4.3258424e-01   3.8161856e-01   7.9349940e-01  -9.9341452e-01   9.2889217e-01   3.3761871e-02  -5.3099601e-01  -9.4589294e-01   6.5960837e-01  -6.7802332e-01  -5.4384879e-01  -4.5052669e-01  -8.7983166e-01  -3.8695894e-01  -9.6592133e-01   1.0724794e-01  -9.3908818e-01   5.5039893e-01   4.8852748e-01  -2.3070650e-02   2.5716550e-01   7.5290225e-01  -8.2339537e-01  -3.8324070e-01   8.3010160e-01   8.7322262e-03  -4.7098987e-01  -9.2764796e-02  -3.5389418e-02  -2.5102072e-03  -9.3929419e-01  -6.5878397e-01   7.2093771e-01  -2.8903578e-01   4.5392294e-01   9.5907939e-01   9.6868295e-01   5.5754969e-01   5.5923531e-01   1.7224612e-01  -9.8789689e-01  -4.3556283e-01   9.3283883e-01  -1.0224625e-01  -8.0287717e-01   4.7840928e-01  -6.6173952e-01   7.5731740e-01   9.6377991e-01  -2.3724059e-01  -7.2962258e-01  -2.4680499e-01  -6.4103972e-01   8.5328285e-02  -4.6018178e-01   8.4968513e-01   8.3524778e-01   2.2275741e-01   6.2303446e-02   8.9423265e-01  -8.3805129e-01  -7.8415407e-01   7.7596569e-01  -5.8331607e-01   6.2990037e-01  -9.8406705e-01  -4.0070329e-01   8.4769920e-01  -6.1017734e-01   2.8297461e-02  -2.1214697e-01   5.3773738e-01  -4.0171769e-01  -6.4737232e-02   1.5345015e-01   4.8010554e-01  -1.0530935e-01   5.9478255e-01   3.9536220e-01   1.1059767e-02   6.4878468e-02  -8.5197756e-01   1.3298185e-01   7.5620955e-01  -7.4965371e-01  -4.2364963e-01   8.6184298e-01  -5.9695214e-01  -9.0012838e-01  -3.4291508e-01   1.6371627e-01   4.3861285e-01  -9.5705610e-01  -7.5915913e-01  -1.9582655e-01  -5.0340899e-01  -6.9339398e-01  -5.0315088e-01  -1.1156208e-02   7.6656531e-01   7.4885298e-01  -3.0894350e-01   8.4237559e-01   3.7510446e-01   9.5913566e-01   9.7527951e-02   3.1934479e-01   4.2235136e-01   2.4339003e-01   8.6542610e-01   1.1714842e-02  -4.0914664e-01  -9.0561375e-01   2.4545407e-01   5.0443686e-01   2.4605186e-01   8.5906052e-01  -8.4511926e-01   1.5480925e-01   7.0546908e-01   2.6493876e-01  -4.8959055e-01  -2.2316817e-01  -7.0706455e-01  -3.3437161e-01  -8.1921491e-02   1.7372559e-02  -2.2018671e-01  -3.0554055e-01   4.4547801e-01  -2.7397152e-01   5.0741882e-01   9.5518886e-01   2.5043062e-02  -7.8682233e-04   8.0658537e-02   9.5739182e-01   2.8271990e-01   7.6286396e-01  -4.8250104e-01   1.1236577e-01  -1.0578637e-01   8.7545263e-01   5.3533531e-01  -1.0508481e-01   2.2164452e-01   1.6270363e-01  -8.1524834e-01  -4.4087008e-01   2.3216596e-01  -5.7478990e-01   8.7722100e-01  -7.6392530e-01  -8.8356618e-01  -4.5107466e-02   8.4907892e-01  -6.1633720e-01   2.0707926e-01  -1.6483574e-01   6.9519340e-01   5.6527820e-01   2.6001231e-01  -4.0967462e-02   2.1556472e-01  -8.1690889e-01  -4.7369298e-01   4.8505643e-02   2.3630314e-01  -6.1830345e-01  -3.0678990e-01  -6.2463178e-01  -1.5933123e-01  -2.3002630e-01   3.5300187e-01  -1.5271661e-01  -2.1787598e-01   5.8225312e-01   9.1754352e-01   2.4083778e-01  -5.0133452e-01  -9.6136560e-01   8.4068052e-01   9.1426135e-01  -9.0430970e-01  -4.1077035e-01  -7.9765023e-01  -9.0170191e-01   9.8352824e-01  -3.5854910e-01   7.7374752e-01   8.0927227e-01  -6.7058956e-01  -6.4946903e-01   1.9427504e-01   7.0181664e-01  -2.9338258e-01   6.1680013e-02   3.3842395e-01   7.9528266e-01  -8.3811136e-01  -5.8509315e-01   6.0966609e-01  -7.9165926e-02  -3.2631730e-01   6.2323902e-01   5.2865200e-01  -2.8258650e-01  -2.0849195e-01  -5.9153193e-01  -3.6317996e-01  -4.0319914e-01  -2.9592254e-01  -5.4170024e-01   2.4356072e-01  -2.6271548e-01   1.3138484e-01   7.2667130e-01   4.1810038e-01   6.8997050e-01  -8.4418935e-01  -4.5807075e-01   4.4537270e-01  -5.3044582e-01   1.2013990e-01   1.1892671e-01  -9.0134195e-01  -6.2545690e-01  -2.3615458e-01  -3.6798056e-01  -8.3766722e-01   9.0149669e-01   3.9267227e-01   9.9488331e-01   8.7968871e-01   5.1700459e-01   2.8713951e-01   7.9428923e-01   5.6240297e-01  -5.2846611e-01   9.6366066e-01  -4.6890354e-01   7.0327844e-02   9.3894003e-01  -4.6700344e-02  -2.7115866e-01  -1.7194961e-01  -8.8378525e-01   5.0650707e-01   8.9716862e-01   6.6937451e-03  -6.4960094e-01   5.4516596e-02  -9.6106364e-01   5.4214789e-01  -7.4519330e-01   3.5447050e-01  -4.1008450e-01   2.6694882e-01  -5.0751150e-01   5.5880288e-01   3.9659738e-01   9.9699936e-01   1.9970682e-01   8.9231650e-01  -5.2237652e-01   1.7786953e-01   6.4694670e-01  -7.9138019e-01  -1.9986191e-01   5.4376150e-01   7.8730986e-01   9.1818590e-01  -3.1773390e-01   6.3639280e-01  -3.4716183e-01   3.3503932e-01  -9.7559591e-01  -7.1935939e-01  -7.5494753e-01   9.6276736e-02  -4.7696443e-01   1.9275903e-02  -2.6676222e-01  -2.9243688e-01   3.2846183e-01  -6.5012457e-01   8.2798223e-01  -6.7509834e-01  -4.3332648e-01  -7.4560208e-02   1.9383699e-01   5.8390841e-01  -2.9457383e-01   6.9693896e-01   3.1447853e-01   8.5013887e-01   4.8741515e-01   7.8900500e-01  -7.3378574e-01   5.5118944e-01  -7.4592951e-01  -9.4324570e-01  -5.5868573e-01   8.9613804e-01  -9.7193409e-01  -9.4881342e-01  -7.4502057e-01   2.9752760e-01   7.8757621e-03  -7.7085888e-01   5.5905726e-01   9.9891998e-01  -5.2045533e-01   7.9122143e-01   2.9219061e-01   5.0163283e-01   6.6788905e-01  -4.8048573e-01   5.9847367e-01  -9.6226453e-01  -8.4186964e-01   6.5165085e-01  -4.6294033e-02   2.1711217e-02  -1.1598274e-01  -7.8585625e-01   4.6767878e-01  -9.8747947e-01  -7.6245641e-01   7.5356708e-02  -1.0364597e-02   7.3380433e-01  -2.0616529e-02   9.1917686e-01  -7.5788080e-02   7.2446491e-01   3.9484318e-02   1.2762003e-01   9.0068783e-01   9.3774973e-02   6.3812281e-01  -2.6309533e-01   6.9345588e-01   7.0873930e-01   8.7727832e-01   7.0090446e-01   4.4723735e-01   9.8781162e-01  -7.7749535e-02   2.2213222e-01   1.1533309e-01  -6.2452813e-01  -5.2061249e-02  -5.0423295e-01   4.0014570e-01  -7.8106193e-01   8.4772246e-01  -6.3755909e-02  -6.9624978e-01  -5.0792315e-01   7.8134491e-01   6.7108092e-01  -6.5156057e-02  -3.7270300e-01  -1.4391134e-01  -1.6038010e-01   8.9047285e-01  -9.1137687e-01   9.9644707e-01   5.3889013e-01   2.3445970e-01  -3.8003602e-01  -4.0850655e-01   7.4989909e-01   5.7488583e-01   9.7571921e-01  -1.6480853e-01  -1.7186873e-01  -1.7952929e-01   1.9518860e-01  -1.0824225e-01   5.5110816e-01   2.6387316e-01   4.3200403e-01  -5.2673708e-01   1.9285622e-01   1.4442880e-01   1.1800724e-01  -5.2206014e-01   7.8316896e-01  -1.3994359e-01  -9.5928070e-01   5.3683213e-01   6.8408169e-01  -4.5530634e-02   7.0867331e-01   2.6913427e-01  -5.3356968e-01  -7.4301600e-01   2.3162130e-01  -2.7431111e-01  -4.4455350e-02   8.9658810e-01   7.0807986e-01   9.6189000e-01  -9.0494351e-01  -9.2028734e-01  -1.0940402e-01   3.5047678e-01  -7.6344470e-01   7.0610758e-01   5.6587116e-01   5.8638047e-01  -3.2007801e-01   1.5761410e-01  -1.0059281e-01  -1.0910087e-01   1.0747001e-01  -9.3940404e-01  -9.2042456e-01  -1.2722820e-01  -3.9983497e-01  -5.8051062e-01   4.4813458e-01   1.9697739e-01   3.6782627e-01   6.1038390e-01   3.5641924e-01  -3.2193344e-01   5.2449234e-01   9.4751895e-01  -8.1473972e-01   2.6903799e-01  -8.3989690e-01   5.3430728e-01   7.1035647e-01  -2.2631701e-02  -8.3296315e-01   4.0919353e-01   4.1146259e-01   8.7598926e-01   7.6730109e-02  -4.8402426e-01   2.0124386e-01  -8.1112077e-01   4.2840616e-01  -3.2396555e-01   1.1935183e-02   8.2465429e-01  -3.9398021e-01  -7.9389793e-01  -4.8597905e-01  -9.0446027e-01   2.5930245e-01   6.6749732e-01   3.3339895e-01   6.8611641e-01  -6.1274205e-01  -7.4332452e-01  -6.5057488e-01  -8.5487507e-01   1.0146884e-01  -1.6384033e-01  -7.9765958e-01   6.8314526e-02  -4.2646794e-01  -3.0861931e-01   2.0038635e-01  -7.2448850e-01  -3.1917976e-01  -4.7865812e-01   7.1664461e-01   1.5733530e-01   5.7085501e-01  -3.2888136e-01  -5.9870439e-01   6.8434230e-01   7.9462313e-01   5.7154402e-01  -3.4048264e-01  -1.7969102e-02  -6.7522001e-01  -2.0672334e-01  -2.7801327e-01   5.5087010e-01  -8.5497318e-01   3.1136029e-01  -6.3513143e-01  -9.3821286e-01  -5.0703205e-01   8.1888318e-01   3.9445870e-01  -3.2033274e-01  -9.1238811e-01  -5.7649893e-01  -6.2826129e-01   8.8668297e-01  -4.3873288e-01  -8.1431477e-02   4.6164222e-01  -1.9659837e-01  -5.0691399e-01   2.0435436e-01  -3.0281990e-01  -6.2860548e-01  -6.2885570e-01  -2.0601266e-01   7.5781199e-02   7.7647034e-01   2.3659870e-02  -3.7245424e-01   5.0897155e-01  -9.5270319e-01  -3.2020263e-01   4.1323587e-02   5.6454631e-01  -3.5056760e-01  -4.5193995e-01   3.7694658e-01  -2.5252337e-01   2.8417459e-01   8.7610530e-01   2.8113576e-01   4.5476474e-01  -2.9141091e-01   6.3082012e-01  -7.5975522e-01  -3.2703483e-01   9.4705818e-01   6.0468446e-01  -4.1297440e-01  -3.1233135e-01   3.6013306e-01  -2.6172167e-02   7.9226929e-01   4.4640263e-01   3.2316229e-01   9.1522777e-01  -1.0868190e-01   5.6051785e-01   2.2807504e-01   4.1407156e-01   3.3565876e-01  -2.3462665e-01   5.2961675e-01   2.7442524e-01  -5.7845194e-01  -9.6101700e-01   2.0509689e-01  -1.3678089e-01  -4.9738767e-01  -9.5975083e-01  -2.0205305e-01   9.0772514e-01  -8.9520416e-01   2.2542381e-01   4.6601109e-01  -4.9676260e-01  -8.9501422e-01  -6.2132003e-01   7.0244788e-01   7.9237254e-01  -9.0679169e-01  -7.3185478e-01  -5.7912787e-01   3.0806574e-01  -5.6628605e-01  -9.1597834e-01  -9.4068475e-01  -6.4125315e-01   4.2825446e-01  -1.2976947e-02  -6.1899612e-01   5.6950824e-01  -4.0400663e-01  -2.5606133e-01  -5.2193538e-01   9.0608211e-02   6.5867654e-01  -5.2096451e-01   4.1094427e-01  -3.8085633e-01  -7.4488839e-01   8.2418572e-01  -2.5099896e-01   2.5556559e-01   4.8232536e-01   1.3285574e-01  -1.0931319e-01   3.1810477e-01  -5.0035634e-01  -4.3568982e-01   4.2009522e-01   4.1658851e-01   4.5117402e-02   4.1462681e-02  -4.0736553e-01  -1.3105940e-01   3.9338602e-01  -3.4311730e-01  -9.4691305e-01
   5.2513976e-01   7.4021270e-02  -4.6331693e-01   5.7443097e-01   2.5811275e-01  -8.4542813e-01  -3.2951455e-01  -7.3978111e-01   1.2394822e-01   4.5246835e-02  -5.4601729e-01   2.6066571e-01  -4.1304167e-01  -7.4348428e-01  -8.1503088e-01   1.4696151e-01   2.3893723e-01   3.8822247e-01  -2.6880804e-01   7.9256779e-01   7.7464034e-01   1.2999833e-01  -2.1656301e-01   6.6647664e-02  -2.4165314e-01  -5.3234158e-01  -7.7338698e-01   5.6447516e-01   9.7440141e-01   8.6148260e-01  -4.8939116e-01  -9.4143163e-01   8.8421379e-01  -7.2710653e-01   2.1764773e-01  -1.7721946e-01   9.1449643e-01   3.4801099e-01  -7.6803555e-01  -9.6731915e-01   1.5011830e-01  -6.2948268e-01  -4.4009471e-01  -3.7820119e-01   2.2868755e-01  -6.4164744e-01   5.4363045e-01   9.9271263e-01  -5.0814879e-01   7.8875774e-01  -3.8236535e-01  -7.8397575e-01   4.8926685e-01   5.2132780e-01   8.3472889e-01   6.4460706e-01  -1.2158835e-01  -9.3842908e-01  -3.3705392e-01   3.7705809e-02   5.6539418e-01   6.9594057e-01   2.3701917e-01  -4.0739696e-01  -1.0468293e-02  -8.3384032e-01   9.0777510e-02   5.5745144e-01  -1.2764775e-01  -1.2724711e-01  -1.9026864e-02  -9.6216771e-01  -7.5019374e-01  -5.0915816e-02  -7.1158048e-01  -4.9741038e-02   3.5926047e-01   4.7463001e-01   6.0435074e-01   3.9088535e-01  -4.8366352e-01  -7.9888925e-01  -7.4894199e-01  -5.7986713e-01  -1.1113219e-01  -9.9769712e-01  -9.4147765e-01  -6.3204893e-01   9.0080070e-01  -6.9068079e-01   9.3693992e-01   8.9852171e-01   7.6845970e-02  -3.3507893e-01   2.4844634e-01   9.0218652e-01   8.0987960e-01   1.9646083e-01   3.7813970e-01   7.7414690e-01  -9.7512837e-01   7.0348944e-01   2.9622962e-01   1.1585007e-01  -7.6362627e-01  -3.3466024e-01   3.4017211e-01  -8.6423372e-01  -2.8270287e-01  -6.2835556e-01  -7.9299436e-01   6.1980151e-01   4.0076467e-01   7.2351210e-01   6.8556150e-01  -5.4838235e-01  -1.6578876e-01  -5.5864996e-01   7.7687140e-01   9.2300404e-01   5.3929622e-01  -6.9599146e-01   8.5130538e-02   7.9824915e-01   2.4020689e-01   2.5163846e-01   4.8797664e-02  -7.6220680e-01   1.3138430e-01   4.3652817e-01  -3.0588753e-01  -7.6092366e-01   8.7719395e-01  -4.9787107e-01  -8.5085903e-01   3.2075802e-01   6.0162775e-01   1.0064628e-01   3.9761128e-02  -1.7797495e-01  -3.4480288e-01   8.2745650e-01   8.5227356e-01   7.7715172e-01   1.1061886e-01  -6.5921831e-01  -3.7870041e-02   2.4290149e-01   6.8092669e-01   6.6453913e-01  -6.7903774e-01   3.0039758e-01   6.8750683e-01  -5.4839742e-01  -9.8249361e-01   4.9889880e-01   5.1282595e-01  -5.9410871e-01  -1.2166675e-01   3.1947939e-01   3.7220555e-01   8.1964059e-01   2.1400053e-01  -6.8697817e-01   3.4027419e-01  -3.6640180e-02  -1.3189772e-01  -5.7337614e-01  -5.5224067e-01  -7.2674411e-01   5.6022271e-01  -2.3620115e-01   6.5976452e-01   3.7091571e-01   3.1924811e-01   1.0428140e-01  -6.0545828e-01   4.7857075e-01  -5.9391594e-01  -6.1972577e-01  -5.1550076e-01  -7.5055247e-01   9.6469365e-01  -1.0067554e-01   2.4835487e-01   5.4629643e-01   7.4187535e-02  -1.1256089e-01   7.2521454e-01  -3.2040695e-01  -7.2472482e-01   2.2670633e-01  -9.8902543e-01  -8.4466621e-01  -6.7645951e-01  -5.4971990e-01  -2.1033538e-01   1.7187928e-01   8.4621172e-01   8.6991221e-01   1.1455836e-01  -6.7881843e-01  -8.7922896e-01  -3.4393078e-01   8.7358978e-01  -8.2662521e-01   9.8063993e-01   3.8407493e-01  -1.4134641e-01   8.9327048e-01  -1.4435588e-01   7.9824107e-01   5.9455797e-01   8.9280699e-01   7.0550286e-01  -1.2099563e-01  -5.7476970e-01   1.9306134e-01  -9.6118417e-01   4.7810930e-01   9.9067119e-01  -1.9060836e-01  -7.7539430e-01   4.5733064e-01  -8.5879109e-01   1.9405872e-01  -5.9699244e-01  -8.3048193e-01   1.6878949e-01  -7.6612190e-01  -3.3133743e-01  -2.8195236e-01  -7.9662331e-01  -3.6323461e-01   8.9627093e-01   2.4307367e-02  -2.5854375e-01  -3.6313722e-01   8.6015119e-01   6.9703156e-01   7.3430232e-01  -2.8481349e-01  -1.4913240e-01  -6.6171653e-01   7.0799821e-02  -5.3051300e-01  -8.5304135e-01  -4.8004889e-01  -7.9353096e-01   3.0240675e-01   8.7675502e-01   5.1452047e-01  -2.0498212e-01   8.7330259e-01  -4.8443904e-01   5.9739779e-01   6.7258396e-01   1.7347197e-01   3.7402581e-01   9.8937837e-01  -9.1003421e-01   6.4170559e-01  -8.8205025e-01   7.3579381e-01   7.4924181e-01  -6.0266859e-01  -5.4155977e-01  -2.3736218e-01  -9.0342215e-01   5.3369210e-01  -4.8565051e-01   8.5952925e-01   4.9960030e-01  -2.8751443e-01  -7.4773845e-01   9.3572979e-01  -3.8829846e-01   9.0404041e-01  -1.2441272e-02   9.3495415e-01   7.9434902e-01   2.9385420e-01   3.6980362e-01  -6.7979018e-01   6.9002231e-01  -3.9900664e-01  -7.3122124e-01   9.2035040e-01  -3.4682176e-01   8.3225022e-01  -2.6867480e-01  -2.3261580e-01   5.3470490e-01   6.4119073e-01  -3.0295682e-01  -7.9606336e-01  -5.2944811e-01  -5.3100396e-01   2.6393887e-01   3.8906064e-01   4.5907032e-01  -9.6371522e-01  -8.7092304e-01  -6.0140759e-01   7.8827679e-01  -3.7716848e-01   2.6843998e-01  -7.7042217e-02   7.3255054e-02  -1.7187659e-01   4.0664670e-01  -4.0044195e-01  -9.7705013e-01  -2.5211094e-01  -1.6990498e-01  -1.6015562e-01   8.5001979e-01   1.6698465e-01  -8.2709069e-01  -2.4460363e-01  -8.2102080e-01   3.9062388e-01  -1.0395297e-01   5.3717563e-01  -5.2283520e-01   1.3935791e-01  -6.8958036e-01   6.1667843e-01   3.2419778e-02  -9.7674284e-01  -8.1106795e-01  -2.2975599e-01   2.7986454e-01   8.0487417e-02   3.5250846e-01   2.5971242e-01  -5.1558616e-02   9.1633520e-01  -9.0659047e-01   5.5074532e-01  -1.0768119e-01   7.0190365e-01   6.3164395e-01  -2.0286228e-01  -7.5730023e-01  -8.2212456e-01  -4.3634869e-01   2.8592276e-01   4.3577095e-01   5.2355172e-01  -6.2609319e-02   7.1743167e-01   6.7943453e-02  -2.8375769e-01  -9.7029266e-01  -8.0619245e-01   8.4548396e-01   2.8912522e-01   6.2434169e-01  -9.9259226e-01   6.5804969e-01   5.7050058e-02   4.1722547e-02   7.3108912e-01  -9.9205095e-01   8.4547844e-01   6.7699281e-01  -9.6045814e-02  -5.9063399e-01  -6.5469126e-01   5.0646757e-01   7.9570260e-01  -9.1718664e-01   4.9242268e-01   3.0116497e-02  -6.8918375e-01   6.9459889e-01   2.0742235e-01   3.8864060e-01  -3.5555650e-01  -9.2520557e-01   7.1616908e-01   6.9914068e-01  -4.2032898e-01   1.2154682e-01   1.2263397e-01  -2.0302418e-01   4.5120600e-02  -8.2498822e-01   5.3665572e-01   5.6666849e-01  -7.5499068e-01   7.9710460e-01  -1.9676908e-01   4.7286382e-01  -5.2867712e-01   5.5559282e-01  -3.8583005e-01  -3.1509068e-01   5.0395424e-02   9.6332294e-01  -2.2547912e-01  -2.1879683e-01  -4.0581631e-01  -9.8184714e-01   2.9715639e-01  -1.0737740e-01  -2.7516669e-01  -7.3990726e-01  -2.5917821e-01   1.0816982e-02   6.1632522e-01   9.9887220e-01  -3.1545863e-01   5.6850971e-01   3.2973734e-01  -1.0682910e-01   3.1909005e-01  -1.4755539e-01  -6.3669622e-01   1.1213736e-02  -9.4188008e-01   3.9823696e-01   6.2934378e-01   8.2444005e-01   3.9501924e-01   8.6880879e-01  -8.3167081e-01   8.5661401e-01  -7.1346309e-01   9.3471804e-01   4.2290542e-01  -3.3848459e-01   2.1124222e-01   6.9692724e-01  -1.6671810e-01   6.9445608e-01  -6.7806917e-01   8.9609477e-01  -8.7985081e-01  -7.2806908e-01  -3.6572677e-01  -7.5945976e-01  -4.6390475e-01   3.0885325e-01   9.4858197e-01  -5.8308960e-01  -3.6470107e-01  -1.1374371e-01   6.9294773e-01  -8.7250984e-01  -4.6803444e-01   9.6807989e-01   7.0086179e-01   6.6014313e-01   7.7241400e-01   3.1648989e-01  -3.4768547e-01  -7.1756594e-01  -6.7299692e-01   7.9871522e-01  -9.1249949e-01   7.5162465e-01   1.0273075e-02   2.6458483e-01   9.5416577e-01  -2.3612647e-01  -7.5912871e-01  -5.5484762e-01   3.6935785e-01   4.5999185e-01  -9.2769900e-01  -4.9464680e-01   4.2756369e-01   5.0834299e-01   4.6501887e-01   6.4614443e-01   2.1721115e-01  -1.6062806e-01  -7.6474468e-01  -9.7913599e-01   5.2805329e-01   4.9054844e-02  -6.9672382e-01   8.4961884e-01  -9.1219058e-01   2.0219053e-02   3.2891067e-01  -5.2216716e-01  -7.2510173e-01   1.8899222e-01  -5.9559001e-01   2.3173419e-01  -6.6322328e-01   9.4155980e-01   2.1869347e-01  -2.1180798e-01  -6.0611796e-01   5.7495606e-01  -4.3247422e-01   3.3010465e-01  -3.0377656e-01   3.2496267e-01   5.6891146e-01   8.4731655e-01  -2.7381966e-01  -4.3162525e-01  -7.6349126e-01   5.9219346e-01  -1.6352638e-01  -5.4363883e-01  -5.4184980e-01  -7.8547545e-01   2.2778465e-01   5.7813411e-01  -3.0075293e-01  -7.1855502e-01   1.3266835e-01  -6.7607055e-01   5.4859486e-01  -1.7574834e-01   1.6197754e-01   6.5297649e-01   9.9086860e-01  -7.1325456e-01  -7.7820736e-01   3.5221549e-01  -6.2945364e-02   8.6004483e-01   5.9159823e-01   4.0367082e-01  -7.9610071e-01  -8.3682381e-01   8.2539714e-01  -4.4271680e-01   6.2854326e-01   9.3845191e-01   2.7419320e-01   4.4229193e-01   5.4495797e-01  -4.2532792e-01   5.4934747e-02   8.3229931e-01   8.0046215e-01   6.2365534e-01   5.1944108e-01   9.1453864e-02   6.9577492e-01  -6.1675519e-01   1.8461893e-01  -5.4596854e-01  -4.7322580e-02  -1.4461298e-01   3.1223799e-02  -4.5319264e-02   1.2821190e-01  -6.8141421e-02  -7.5946843e-01  -9.8855936e-03  -5.0300284e-01  -7.2075624e-01  -9.4300547e-01  -5.4009184e-01  -7.3980385e-01  -8.8720876e-01   8.0346254e-01  -1.3101511e-01  -4.4494055e-01  -1.0256724e-01  -5.7591213e-01  -9.2190869e-01  -6.2751206e-01   5.7710329e-01   1.3979800e-01  -8.1331437e-01  -5.7812517e-01  -9.6676640e-03   4.7580916e-01  -8.7101991e-01  -8.5401086e-01   2.0455217e-01  -6.5348449e-01  -2.6385173e-01   7.7995119e-01   6.1727578e-01  -1.4997698e-01  -2.8991957e-01  -9.0146491e-01  -7.6351736e-02  -8.2288371e-01   7.2293992e-01  -8.5754812e-01  -4.7254449e-01   6.2355934e-01   2.8187491e-01  -4.6026989e-02   4.5584839e-01  -3.8162038e-01   7.3200308e-01   5.1681820e-02   2.7729136e-01   3.5091043e-01  -5.8182154e-01   9.6693176e-01  -6.3025651e-01   3.5590206e-01  -7.5723654e-01  -6.1713152e-01   4.9464352e-01   4.8474477e-02   8.7293734e-01  -2.4268871e-01  -5.4651753e-01  -7.2772535e-01   2.5002629e-01   9.4754367e-01  -1.0152481e-01   1.8426637e-01   5.5332430e-01   6.9836574e-01   8.4157055e-01  -4.8087828e-01  -5.2798403e-01  -1.2438311e-01  -7.2518449e-02   6.5581152e-01  -7.6395821e-02  -7.3557876e-01   7.7400981e-01  -2.6322162e-01  -7.0923794e-02  -1.1815310e-01   8.0799292e-01  -8.7391855e-01  -7.3605135e-01  -1.0753523e-02  -9.9925052e-01   6.2023221e-01   6.0822337e-01  -1.4777454e-02   4.5061864e-01  -8.5513096e-01  -9.1738564e-01  -6.5332696e-01  -1.1518764e-01   2.8998829e-01  -5.0024612e-01  -9.7638637e-03   6.1387063e-01  -2.8711641e-02   7.9967470e-01   8.1280524e-02  -2.8394535e-01  -4.3283018e-01  -5.6326487e-02  -4.2293171e-01   7.2241863e-01  -2.3213915e-01   8.7200968e-01  -6.4857762e-01  -6.1593242e-01   4.1149686e-01  -6.8490772e-01   9.5748341e-01  -2.6092114e-01  -7.2614154e-01   5.1391796e-01  -6.8291454e-01  -3.9103607e-01  -1.1038121e-01  -4.5051169e-01  -3.5228675e-01  -7.2405121e-01  -6.7606754e-01   4.8805923e-01  -1.1160692e-01  -1.3546029e-01   3.8462437e-01  -4.0667006e-01   5.9912583e-01   6.7234562e-01   8.8195762e-01   1.8175508e-01   1.1943735e-01  -5.9457435e-01  -1.9746469e-01   7.0681963e-01   6.8458954e-01   9.9595372e-02   1.2602872e-01  -5.2079648e-01  -6.0818018e-01   2.7963512e-01   8.4111389e-01   5.9954386e-01   9.8565323e-02  -6.5896090e-02  -8.4491128e-01  -9.4970223e-01   2.0173520e-01   3.8893179e-02   9.9685668e-01  -6.1986828e-01  -8.4878981e-01   8.0480661e-01   1.0682614e-01  -9.8557534e-02  -9.6128692e-01   2.3259543e-01  -1.4206707e-01  -8.9449964e-01   5.2702688e-01  -5.1024758e-01   1.8178357e-01   8.2359875e-01   4.0331541e-02   8.7998854e-01   7.6272226e-01  -4.8443990e-01   4.3679692e-01  -6.4702284e-01  -3.4439916e-01  -9.1476410e-01   9.0953547e-02   4.2135472e-01  -3.7432856e-01  -4.6681192e-02   9.1208796e-01  -4.2856643e-01   4.4611129e-01  -4.4393803e-01  -3.8735083e-01  -8.4725379e-01   6.1778197e-01  -8.0192323e-01  -5.4213819e-01   7.9839227e-01   2.0004782e-01  -4.1554477e-01   3.3019858e-01  -6.4453490e-02  -8.4595351e-01   5.8770577e-01   3.9712165e-01  -6.2004050e-01  -8.3515518e-01  -1.5101503e-01   6.8573022e-01  -8.6411880e-01   1.4740938e-01  -1.3566402e-01  -7.9870685e-01  -6.9289684e-02  -1.1067944e-01   5.0982262e-02   7.5553699e-01  -8.0964198e-01   5.4997409e-02  -5.0822518e-01   3.2633533e-01  -7.5194670e-01   8.5758554e-01   4.8900026e-01   8.1123699e-01  -7.3986890e-01   9.5620202e-01   6.0579885e-01  -2.4395911e-01   8.0455643e-01   2.7929793e-01   6.7289632e-01   5.2815501e-01  -6.5226033e-01   4.2594465e-03  -4.1707502e-01  -6.4972433e-01  -6.4570279e-01  -8.9633602e-01  -7.4197314e-01   2.9804758e-01  -9.4428349e-01  -3.0276447e-02  -8.5680458e-01  -2.0175766e-01   9.4462882e-01  -7.7090334e-01   7.0831978e-01  -4.6810020e-01  -4.8774984e-01   8.7079729e-01  -8.7219802e-01  -7.1655358e-01  -4.4349899e-01   7.7447131e-01  -2.2920080e-01  -5.7721051e-01  -2.4892601e-01  -2.3229702e-01   4.4080493e-01   9.1463459e-01   3.3852140e-01  -6.3816877e-01  -5.2872372e-01  -7.1965956e-01   8.1248556e-01  -7.4633130e-01  -7.0438500e-03  -4.5167953e-01  -3.0654455e-01   1.8672183e-01   7.8541525e-01  -2.5579668e-01   9.4071425e-01   6.7087627e-01  -4.9371133e-01   1.1182793e-01   3.6828123e-01   9.8720037e-01  -1.0479799e-01   8.0073270e-01  -3.0857612e-01   4.2418641e-01   5.1990663e-01  -1.3120097e-01  -5.0915732e-01  -1.0488027e-01  -3.1886680e-02   6.4592918e-01   5.9579975e-01   7.6904895e-01  -5.3500892e-01   3.2075101e-01   7.7364765e-01   7.9785799e-01   1.0801497e-01  -5.5777122e-01   1.8799306e-01  -9.4812467e-01   4.5723115e-01   6.4139469e-02   5.8737993e-01  -8.8173963e-01   3.2813538e-01   4.9447615e-01   9.3078122e-02  -2.0826932e-01   1.8341798e-02  -1.1174619e-02  -4.6948776e-01   3.3307393e-01  -5.4352949e-01  -6.7187108e-01  -4.7494515e-01  -2.2597278e-01   8.9713075e-01   5.6815256e-01  -9.0304110e-02   5.3355074e-02  -2.5448346e-01  -1.9889800e-01   6.8261505e-01  -2.5299780e-01  -9.2745272e-01  -9.7859312e-01   7.2455978e-01   5.0210803e-01   7.9863214e-01  -4.9387833e-01   5.3162230e-01   6.2296635e-01  -7.0951548e-01   9.8325718e-02   6.1468960e-01  -6.5562988e-01   8.9543345e-01  -1.9807453e-01   4.4968098e-01  -5.2998790e-01  -7.5257636e-02  -2.4619782e-01   8.7082389e-03   7.3548226e-01  -6.7501413e-01   7.9574073e-01   2.1121413e-01   6.9546788e-01  -1.6650524e-01  -4.2779184e-01  -2.5521591e-01  -5.4366817e-01   7.4918164e-01  -5.3215972e-01  -3.4219277e-01  -7.6940118e-01  -9.6970769e-01  -5.4310199e-01   1.3481963e-01   5.5133666e-01  -6.9198581e-01  -6.8729965e-01  -7.7145074e-01  -3.8588390e-01   6.6989437e-01  -9.0677631e-01  -3.6376968e-02   9.0311531e-01  -4.3674886e-01   8.1667353e-01  -3.8004369e-01  -3.8970760e-02  -1.4760176e-01  -2.9289842e-01   8.7737754e-01   1.9737304e-01  -5.4500419e-01  -6.4133451e-01   4.7198979e-02  -8.3977206e-01  -9.4446545e-01   9.9510563e-01   8.4423459e-01  -4.5469303e-01  -7.0974488e-01   6.8005661e-01  -8.7713381e-01  -3.3481851e-01  -9.4116274e-01   7.6444269e-01  -6.2241428e-01   2.5375469e-01  -9.7255388e-01   4.8505677e-01  -9.9718777e-01  -3.6239389e-01  -1.3147491e-01   2.1488023e-01   6.1146700e-01  -3.7071335e-01  -5.8515026e-01   2.7422129e-01   6.5941175e-01   3.5121495e-01   5.2022734e-01   5.0012327e-01  -5.1173802e-01  -4.4937270e-01   1.7179176e-01  -2.1515566e-01  -7.2655950e-01  -6.5572217e-01  -4.3319981e-01   1.1163648e-01   7.7021407e-01   2.8005955e-02  -9.2344398e-01   5.1641209e-01   6.9483841e-01  -6.6737396e-01  -1.2622350e-01  -9.9380844e-02  -5.4459531e-01   6.1562029e-01  -5.6195495e-01  -5.3176566e-01   9.9855570e-02  -7.7024424e-01   8.2158284e-01   2.0977732e-01   6.9176400e-02  -6.4633070e-01  -1.8097613e-01   9.4038333e-01  -2.6014549e-01   7.5292947e-01   5.6189807e-01  -3.1927695e-01   7.5911754e-01   6.4380150e-01   2.7844439e-01  -7.7092575e-01   9.1698762e-01  -9.7666142e-01   4.8760714e-01   4.0535618e-01   9.4035411e-01   1.4472438e-01   7.7619715e-01   4.9841568e-01  -4.5226910e-01   8.1168612e-01  -7.6330646e-01   2.2252998e-01  -2.8991205e-01  -8.3062971e-01   8.0845984e-01  -5.2080643e-01  -5.4723160e-02  -3.3049923e-01   7.2589665e-01   2.4094619e-01
   9.4708215e-01   5.0934641e-01   6.5987038e-01  -7.9961780e-01   6.6611570e-01   3.2245644e-01   7.8245246e-01  -9.5218906e-01   3.4447457e-01  -6.4037280e-01   6.0038666e-01  -3.1094057e-02   4.5253781e-01  -3.3755911e-01   9.5151364e-01   6.0214246e-01   2.3725838e-01  -6.8455433e-03  -1.2107658e-01   9.7204992e-02  -1.2891878e-01  -8.3740273e-01  -1.4533002e-01  -9.0581994e-01  -9.8402122e-01  -8.9418126e-01  -6.9831195e-01  -9.4039453e-01  -5.6335964e-01   9.6757750e-01   7.5486809e-01   9.0266997e-01  -3.6968409e-01   6.6093343e-01  -1.1769419e-02   4.6965943e-01  -5.9861209e-01  -1.2274101e-01  -7.8779877e-01   8.6958981e-01  -8.9722845e-01  -6.9356443e-01   1.2306848e-01   9.5757237e-01  -8.8375574e-03   6.0717767e-02  -4.5566341e-01  -7.6892755e-01   9.2658408e-01   4.3718212e-01  -6.4849232e-01  -2.3102255e-01   6.1129968e-01  -7.2624451e-01   5.7951503e-01   5.1056344e-02   9.8076261e-01  -2.8603907e-01   8.4273722e-01  -9.1550986e-01  -4.2362029e-01   3.8944616e-01  -7.9805313e-01  -4.3967687e-02   4.0642236e-01  -9.8920206e-01   2.9795124e-01   2.1307847e-01   5.5283866e-01   7.6835507e-01   5.7724355e-01  -4.9279517e-01   3.6547703e-01   4.5700561e-01   5.6031463e-01  -7.5907566e-01  -7.0130723e-01   9.8024399e-01   3.6843967e-01   4.4993227e-01   8.0966109e-01  -7.6149257e-01  -4.3496308e-01   3.8382645e-01  -2.5833503e-01  -1.9875527e-01  -3.2298759e-01  -5.0741187e-01   8.2072531e-01   7.7359391e-01   2.9024546e-01  -2.2013184e-01   6.0216651e-02  -4.0384204e-01   7.9489566e-01   4.3950972e-01  -2.5827939e-01   6.4315204e-01  -1.3396697e-01   8.2243975e-01  -8.6607252e-01  -6.9916349e-01   6.8738566e-01  -4.4942442e-01  -9.5041378e-01  -7.0647602e-01   2.1568307e-01  -8.0716576e-02  -7.8855569e-01   9.3531292e-02   9.2473856e-01   9.7372821e-01  -8.7634528e-02   9.7035718e-01  -9.7764003e-01  -3.3515727e-01   6.8673100e-01   8.0080767e-01   7.5565740e-01   6.5623212e-01   8.9810891e-02  -2.9681085e-01  -7.9249548e-01  -9.5183080e-05   8.9397418e-01  -7.7321339e-01   3.0918349e-01   1.3846734e-01   9.3713848e-01  -4.1131619e-01  -7.6210980e-01  -2.9447803e-01  -5.3606427e-01   8.7697717e-01   8.4078952e-01  -9.8798492e-01   1.0614979e-02   4.3217041e-01  -5.3723725e-01   1.1701630e-02   9.9443527e-01  -2.5188556e-01   5.1726348e-01  -6.8433544e-01  -4.5411423e-01  -6.7304333e-02  -3.1338806e-01  -7.9226316e-01  -7.8940023e-01   3.3933863e-01   3.3577727e-01   6.6361780e-01   3.1745125e-01   7.3837074e-01  -9.3510402e-01  -9.6538759e-01   5.7653116e-01  -2.0097667e-01  -1.3137454e-01  -7.2465442e-01  -5.6702750e-01  -9.1901091e-01  -3.5301508e-01  -9.2639553e-01  -8.4852054e-01   5.6385414e-01   6.9511745e-01   5.3855156e-01   7.1807149e-01  -6.5804635e-01   7.7096748e-01  -9.2794714e-02  -7.9944316e-01  -4.0598839e-01  -4.6114178e-01   6.0586410e-01  -8.4433867e-02   6.5781854e-01   3.5358775e-01   5.2063800e-01  -8.3265588e-01  -8.5936026e-01   3.9511754e-01   6.2701008e-01   7.0806979e-01  -6.4153542e-01   5.5025756e-02   4.2114013e-01   2.6227940e-01   9.6995937e-01  -7.8655625e-01  -5.2963761e-01  -4.3301919e-01  -3.2285248e-01  -7.3733088e-01  -2.5352650e-01  -5.5300485e-01  -9.7655622e-01   3.1203894e-02   2.1872543e-01  -4.6948855e-01  -8.6974515e-01  -5.6331033e-01   4.9715725e-02   7.5021884e-01   3.6070343e-01  -6.4172858e-01  -4.4206786e-01   4.6849270e-01  -9.0353397e-01   9.6012565e-01  -3.5339169e-01   7.9785038e-01   3.5224974e-01   7.5690229e-01   6.4318536e-02   5.1626844e-01   7.9286541e-01   3.3613598e-01  -9.4276144e-01   3.3162247e-01   8.8356594e-01   3.3047172e-01   4.8286821e-01  -5.3992852e-02  -4.9719633e-01  -6.4016274e-01  -7.0293959e-01   2.9643184e-02   8.1082627e-01  -4.9391645e-01  -1.5324952e-02  -1.4783780e-01   9.2441154e-01   8.8723005e-01   4.1934982e-01  -8.9302969e-01   3.3610077e-01  -6.4445240e-01  -8.0761853e-01   4.3086277e-01   4.8701033e-01   3.9545249e-01  -9.8395487e-01   7.0540614e-02  -8.0568041e-01  -8.8627932e-01  -2.8304282e-01  -9.3079130e-01  -9.1234849e-01   9.9934855e-01   4.5568995e-01   5.1581162e-01  -2.1190263e-01   8.5055490e-01  -3.0049386e-02  -1.9776274e-01   8.5248285e-01  -4.8073350e-02   9.6737215e-01   7.4751243e-01   2.3653683e-01  -5.0798765e-01  -2.8659268e-01  -2.4086167e-01  -9.8633792e-01   7.2851292e-01   5.9387627e-02  -3.7532078e-02  -4.8368775e-01   1.7635688e-02   4.6726452e-01   9.0125469e-01  -5.4892078e-01  -4.1767669e-02  -2.7413597e-01   3.2103177e-02   2.6813223e-01   2.0322511e-01  -9.6212146e-01  -9.0875534e-01  -8.6261969e-01  -7.1434424e-01   3.8987400e-01   4.0109387e-02  -1.4000338e-01  -7.6649031e-01  -7.0616394e-01   9.7433398e-01  -8.2645135e-01  -5.6991604e-01  -3.5997654e-01   5.2283135e-01  -7.3423217e-01   7.1823527e-01  -5.2116303e-01   8.6855275e-01   5.1787521e-01   9.9127212e-01   5.8776884e-01   9.4485664e-01   9.3359051e-01   4.8146800e-01  -1.2439399e-01   9.8344402e-01   5.0587046e-01   4.1335866e-01   1.8353562e-01  -6.0019326e-01   9.7691306e-01   4.3806710e-01  -3.2973399e-01   4.8008488e-01  -2.9772974e-02  -8.6645701e-01  -1.0207948e-01  -5.3748723e-01   9.3464748e-01   5.0699655e-01  -9.6095731e-01  -7.6361751e-01  -2.5951498e-01   9.5330340e-01   2.3255292e-01   4.9115343e-01  -1.2050681e-01  -8.0358596e-01  -4.0580276e-01   2.8469870e-01  -3.3910442e-01  -2.7510825e-01   5.0447535e-01   6.6144110e-01   2.5399799e-01  -7.2393089e-01   8.8599218e-01  -8.0593385e-01   2.2254729e-01   1.2813781e-01  -4.3899832e-01   8.2004680e-01   7.3779251e-01  -9.0546366e-01  -2.4203869e-01  -3.5496769e-01   4.2635701e-01  -7.6311276e-01   6.5510309e-01  -2.6167171e-01   5.9969914e-01   6.2535299e-01   6.9830591e-01  -6.5881538e-01  -9.7045251e-01  -1.3865350e-01   4.4319674e-01   5.8327531e-01  -5.1273036e-01  -8.1891516e-01   1.0614670e-01   7.9964150e-01   1.2415482e-01   8.8182274e-01   4.9072822e-01  -1.1397828e-02  -2.2720907e-01  -9.4405928e-01   2.0769805e-01   6.7165335e-01   5.7243776e-01  -3.5561919e-01  -7.8983333e-01  -5.2977834e-01   5.7120657e-01  -5.7899166e-01   4.8873745e-01  -2.6954496e-01  -2.7141042e-01  -7.4355415e-02   5.3794362e-01  -1.5576071e-01   6.9331180e-01   4.5234844e-01  -7.0897119e-01   6.7869899e-01   5.0323139e-01   2.2260567e-01   6.4085681e-01  -9.1228245e-01  -3.4191649e-01   7.2523803e-01  -2.8389959e-01  -5.7486489e-01   1.7604583e-01   9.5880222e-01   8.6373672e-01   7.8168332e-01   2.7020182e-01  -2.7967545e-01  -4.4775096e-01   4.9391263e-01   4.0090715e-02  -4.8951626e-01  -3.9596211e-01  -4.2142998e-01   1.5531548e-01  -8.8731055e-01   5.0554865e-01  -7.1396917e-02  -4.7546673e-01   2.5574593e-01   5.5052853e-01   5.4623147e-01   3.1656603e-01  -7.6721273e-01  -7.7224501e-01   6.2352313e-02  -9.8846290e-01   4.2134644e-01   1.1586024e-01  -6.4075494e-01  -4.0980226e-01  -7.8970623e-01   1.5882231e-01  -8.3826004e-01  -4.9278504e-01   1.4341838e-01   6.3021114e-01   3.0556917e-01  -3.5650231e-01  -2.1187334e-01  -3.7202841e-01  -4.6300577e-01  -7.9248945e-01  -7.8145277e-01   7.4160243e-01  -5.7127272e-01   9.5630456e-02   9.5287733e-01  -2.6408941e-01   2.5765887e-02  -7.7641597e-01  -4.1737858e-02   4.5803797e-01   1.3591816e-01  -3.7453510e-01  -6.5935213e-01  -9.0518850e-02  -2.3076793e-01  -3.7763675e-01   2.8644330e-01   4.2981907e-01  -4.4865608e-01  -9.0935992e-01   6.8787114e-01  -7.9784967e-02   7.9896576e-01   7.4335759e-01   6.6533103e-01   4.8307511e-01   7.6462987e-01   6.1565655e-01   7.9567919e-01   2.7550889e-01   5.4291802e-01   8.3166641e-03   3.4803158e-01  -7.2118161e-01  -3.9229482e-01   5.7672710e-02  -6.9909818e-02  -3.5279942e-01  -2.2739333e-01   2.5744587e-01   2.2603755e-01  -7.7188424e-01  -1.3245501e-01   4.9488775e-01   4.8861543e-02  -1.9277529e-01   8.3518997e-01   6.0638166e-02   8.3443936e-01   8.3878912e-01  -8.2875745e-01  -8.8134736e-02   1.6497462e-01   4.8209908e-02   4.7222977e-01   9.6870243e-01  -6.9480730e-02  -6.2428528e-01  -3.3942053e-01   5.8382985e-01  -4.5263433e-01   4.5711113e-01   7.7929267e-01  -5.7616253e-01   1.3548178e-01   6.4589393e-01  -2.8410844e-01   9.6301765e-01   2.1344795e-02  -1.4596316e-01  -9.4462126e-01  -8.2480678e-01  -4.0400608e-03   3.1528842e-01  -8.7212213e-01   1.1772508e-01  -1.1198805e-01  -6.9543083e-01   1.3693860e-01   2.9721533e-01  -3.3460680e-01   6.2558544e-01  -3.8190056e-01  -5.7899431e-01  -2.6235746e-01  -7.5438616e-01   6.9227083e-01  -5.1731890e-01  -2.7871628e-01  -9.2356385e-01  -3.5990690e-02   2.2851317e-01  -6.9367426e-01   4.9531807e-01   8.4939511e-01  -1.1709533e-01  -1.8737423e-02  -6.0678405e-01   2.3223118e-01  -4.6082012e-01   3.3224248e-01  -7.8401856e-01  -9.9894597e-01  -7.5306412e-01  -8.9850572e-01  -4.7884630e-01  -2.3428256e-01  -9.3392866e-01  -8.3718294e-02   8.6735540e-01  -4.9127274e-01   9.8849419e-01   5.2314636e-02  -7.2520302e-01   6.5802345e-01  -3.5611635e-01  -5.3671086e-01  -1.7861723e-02   7.9107984e-01  -9.9698743e-01   2.8017762e-01   2.3792624e-01  -1.6433402e-01   1.1202937e-02   8.9392198e-01   4.0610355e-01  -3.0713113e-01   2.4852364e-01   1.4067553e-01  -8.8630199e-02   9.9131777e-01   1.9883153e-01  -5.7459331e-01   1.6891479e-01  -8.3828564e-01  -7.0196126e-01  -2.5796896e-01   9.6723618e-01   7.8242491e-01   7.8177937e-01   7.9038393e-01  -7.8593591e-01   1.3357457e-01   8.1745902e-01  -4.7101609e-01   2.8626836e-01  -4.5317466e-01  -3.3339105e-01   3.9882369e-01  -7.3525143e-01   5.9921426e-01   3.3334110e-01   4.1259356e-01   8.3825937e-01   6.4312961e-01   2.2604705e-01  -7.6034981e-01  -5.7039134e-02  -2.9069202e-02   2.0482229e-01  -1.1832803e-01  -9.8313623e-01  -6.3388262e-01  -9.9996565e-01   9.4389095e-01  -7.5635070e-01   2.6053255e-01  -7.7616174e-01   9.2506150e-01  -6.3786607e-02  -3.6066950e-01  -7.2530888e-02  -5.7351700e-01   4.0468493e-01   6.9170934e-01  -4.9200818e-01  -4.8145472e-01   4.5508779e-01  -4.5181292e-01  -6.7952716e-01  -9.3391693e-01  -8.1206039e-01   3.4035197e-01   6.8588645e-01   6.8438404e-01   8.8588759e-01  -5.7022122e-01   3.7678157e-01  -7.2494198e-01  -6.5118162e-01  -6.0610350e-02   9.2291282e-01   1.5137900e-01   3.7102236e-01   3.3189664e-03  -5.7971050e-02  -1.9778927e-01  -2.5404580e-01  -3.6935274e-01  -6.7771482e-01   7.1391539e-01   1.3075597e-01  -3.2808622e-01  -6.4543754e-01  -6.9845723e-01  -4.2226589e-01   6.8206202e-01   4.0297738e-01  -1.3310032e-01   4.3095475e-01   2.8633392e-01   5.5306678e-01   7.3801910e-01  -3.3009118e-01   5.5269305e-01   4.3086923e-01  -4.7817909e-01   3.8752435e-01   2.5985346e-01   4.5680656e-01   6.4599633e-01   2.6070390e-03   2.8260407e-01   8.7332269e-01  -4.3910677e-01   5.5334632e-01   9.4538615e-01   3.3032033e-01   4.4294252e-01  -4.7241190e-01  -1.1858088e-01   5.8481232e-01  -8.7001473e-01  -6.2214239e-01   2.8648862e-01  -9.9617131e-01   9.6317917e-01   4.8897109e-01   1.8359671e-01   1.4958086e-01   4.6433866e-01   6.6773366e-01  -7.5787417e-01  -4.0399475e-01  -5.8759082e-01  -8.4533995e-01   2.0372471e-01   6.0388960e-01   6.2348165e-01  -6.6841466e-01  -3.8370201e-02   8.4040462e-01   1.3703073e-01  -3.7928343e-01  -9.0950114e-01   1.7682192e-01  -3.6071743e-01  -1.1400625e-02   5.3557432e-01   5.0653968e-01  -6.9488227e-01  -3.3017649e-02   3.2289205e-01  -6.0861240e-01   9.1030629e-01   4.5445444e-01   7.3192236e-01  -8.2738488e-01   8.3830963e-01  -5.1073951e-01  -2.9919833e-01   1.9026481e-01  -5.1143507e-01   1.8051820e-01  -4.1955535e-01  -9.5740329e-02   7.3815142e-01  -1.7849093e-01   1.5456147e-01  -4.3862590e-01   7.3976084e-01   1.0673373e-01  -3.5023376e-01   9.7130486e-01  -7.2313477e-01   1.7066031e-01   9.9569990e-01   8.2484965e-01   8.2909074e-01   3.9077786e-01   3.0566175e-01   1.7511791e-01  -3.3990794e-01  -8.2117731e-01   3.5105815e-01  -1.9562877e-01  -3.6921606e-01   1.6719798e-01  -5.5942486e-01   6.2154670e-01  -1.9443667e-01  -1.2226559e-01  -6.6717558e-01  -5.8698461e-01   3.9238281e-01  -8.9382170e-01  -9.7977868e-01   1.7255336e-01  -8.4319992e-01  -4.6702228e-01   5.5259773e-01   5.4105668e-02   5.9324452e-01  -5.1243567e-01  -5.0279615e-01  -6.3823734e-01   2.1629159e-01   1.0996041e-01   2.1097911e-01  -2.4531828e-01   3.3011631e-01   5.2356750e-01  -4.5806357e-01   9.4726446e-01  -9.3580271e-01  -4.7647676e-01  -7.5723008e-02  -2.5464211e-01   8.0311366e-01   1.1209057e-01  -4.3934926e-01  -2.2284774e-02  -1.6274238e-01   5.5152523e-02   3.6961930e-01  -4.6288687e-01   4.8337306e-01   1.7585882e-01   6.9362856e-01  -9.9721808e-01   8.5630596e-01   3.7235601e-01  -3.5310145e-01  -4.9749323e-01   8.9436510e-01  -3.4167298e-01  -2.1916127e-01  -6.4329015e-02   6.5694009e-01   6.6775540e-01   3.3564162e-01   9.1577975e-02   2.7676762e-01   7.9131744e-01   7.8095511e-01  -5.6671432e-01   4.0420572e-01  -7.2369969e-01  -5.1866197e-02   3.1513412e-01   7.6888693e-01   3.1700446e-01   2.1483691e-01   1.1738482e-01  -8.1022268e-01  -3.6188286e-01  -1.3464880e-02   9.0037706e-01   6.8785208e-01  -7.6583740e-02  -4.1481120e-02  -6.7429586e-01  -1.5357719e-01  -8.2183605e-01   8.8210658e-02  -8.3177081e-01  -2.2583941e-01   9.4187525e-01  -6.7105655e-01   2.3592880e-01   3.1137778e-01  -1.7558889e-01   9.7584290e-01   9.7720121e-01   5.1455179e-01   5.2954342e-01  -8.1023866e-01  -5.3577194e-01   1.1079547e-01   2.3035270e-02  -8.6180505e-01   4.7232851e-01   4.7983157e-01  -2.1145620e-01   3.4996582e-01  -8.4440933e-01  -3.3055694e-01  -9.1422687e-03   4.3050520e-01   1.5889154e-01  -5.8831491e-02  -8.1849738e-02   7.7020314e-01  -4.9501795e-01  -9.7322807e-01  -2.8066452e-01   5.4253067e-02   4.7381786e-01   3.6526575e-01   6.1490531e-01   6.2487578e-01  -2.0233836e-01  -5.9442110e-02  -8.0249477e-01  -8.6958768e-02  -6.1179035e-01   5.9500419e-01   8.4699186e-01  -8.7500578e-01  -5.9314971e-01  -9.4341873e-01  -9.1577507e-01  -2.1986185e-01  -2.8225231e-01  -5.2026899e-01   3.3652313e-01  -3.5674972e-01   6.4331186e-02  -6.5184777e-01   3.1575846e-01   9.3787880e-01  -4.3535444e-01  -4.2741069e-01  -1.3725467e-02  -7.2682180e-01  -5.2455792e-02   2.6539501e-01  -4.6194213e-01  -1.0707941e-01   1.3806149e-01   2.5897479e-01  -2.2398895e-01   1.6827973e-01  -5.2069549e-01  -2.6559149e-01  -5.8250547e-01  -3.7289873e-02   8.7106974e-01  -5.1868765e-01  -5.5267669e-01  -9.5888241e-01   4.7440225e-01  -4.3516347e-01   7.3050297e-01  -2.9346694e-01  -9.4733743e-01  -1.2578252e-02  -1.3054490e-01   9.8792753e-01   1.2932986e-01  -8.8762821e-01  -6.3875905e-01   4.6799312e-01  -1.7518860e-01   6.0813172e-01   5.7055862e-01  -9.1750736e-01   2.1166350e-02   1.2863034e-02  -4.5330537e-01  -4.8208635e-01   5.1606498e-01   5.2034814e-01  -2.0395512e-01   1.9987418e-01  -7.3132215e-01  -7.6219517e-01   9.5191877e-01  -2.0169089e-01   5.2519893e-02   6.4002120e-01  -4.3735416e-01   9.9941705e-01  -3.3852210e-01  -2.9761337e-01  -4.7473024e-01  -3.3696668e-01  -3.4734063e-01   4.9708460e-02   8.9600012e-01   5.1492222e-01  -3.7463732e-01  -2.5996220e-01  -2.8377310e-01   3.4220931e-02  -6.5618702e-01   3.4336596e-01   1.0519401e-02   4.7557345e-01   7.2762753e-01  -9.2085412e-02   7.0985808e-01  -1.7542394e-01  -6.7574458e-01   8.2530590e-01  -5.9964213e-01   1.9005584e-01  -4.0382872e-01   8.5892486e-01   8.8127656e-01   5.9660763e-02  -2.3227998e-01   2.0945766e-01  -7.8371027e-01   5.7332751e-01  -1.7940864e-01   5.3277073e-01   4.3682254e-02  -8.8132222e-02   7.6886667e-02   1.7069517e-01  -8.6132702e-01  -1.3258707e-01  -5.9866487e-01   4.1391402e-01  -4.6945272e-01  -6.4707282e-01   6.2593127e-01  -8.5500660e-01  -3.5186450e-01   3.3859415e-01   3.7093465e-01   9.5726636e-01  -5.6754322e-01   9.5243004e-01  -2.8258431e-01  -9.4288346e-01  -2.7278305e-01   1.5149594e-01   1.9746277e-01  -3.4430593e-01   6.1841724e-01  -1.1852251e-01  -5.3034690e-01   9.8196837e-01   3.9852223e-01  -5.9500094e-01  -1.1454819e-02   1.4742987e-01  -5.8995643e-01   3.9917356e-01  -2.8845064e-02   7.2952647e-01  -7.0773183e-01   3.2815319e-02  -9.2635558e-01   8.2509652e-01   2.1000541e-01  -1.1843471e-01   1.2590135e-01   3.5532081e-01  -7.0887485e-01  -9.9622141e-01  -7.5931721e-01   5.9512514e-01   2.6509202e-01
   6.1174847e-01  -5.4722050e-01  -8.4742745e-01  -8.2879242e-01   3.9833181e-01  -9.9749254e-01   7.6569656e-01   4.7466653e-01   3.0417540e-01  -5.6051878e-01   5.8202399e-01  -7.0404042e-01   9.4838434e-01  -5.8802989e-01   4.2718253e-01  -9.1324285e-02  -6.9942522e-01  -2.5905219e-01   1.3460797e-01   4.3839682e-01  -7.8931932e-01  -7.2947648e-01  -3.5008218e-01   6.2276198e-02   7.6756934e-01  -5.2556996e-01  -6.7519846e-02  -5.2062748e-02  -7.3008049e-01  -3.8160918e-01  -1.4240602e-01   4.8434540e-01  -4.2766138e-01   9.4179170e-01  -7.5606391e-01   4.0743331e-01  -4.2977731e-01  -5.3557109e-01   9.9528777e-01  -6.5065178e-01  -1.8629416e-01  -4.3576779e-02   4.3829003e-01  -5.1190878e-02   6.7698222e-01   6.4769770e-01   2.1571901e-01  -2.7379720e-01  -3.9403881e-01  -3.7392143e-02   3.2430466e-01   2.5269177e-01  -4.0346423e-01  -9.0374827e-01   8.6648935e-01   8.4823848e-01  -4.0962004e-01   2.3293490e-01  -5.0591525e-01   8.3879811e-01  -9.3213288e-01   5.9741173e-01   8.3490620e-01  -7.8482021e-01   4.2601626e-01  -4.1680214e-01  -4.7377545e-01  -8.0106131e-02  -3.7839063e-01   7.2148787e-01   9.4781438e-01   1.1187156e-01   3.5245821e-01  -6.8465539e-01  -4.2948013e-01  -7.3211684e-01   2.6496591e-01  -9.4759138e-01   8.8830878e-01  -5.3933477e-01   1.7641854e-01  -3.2676501e-01  -6.0945103e-01  -2.7845803e-01  -5.0499982e-01  -3.6951842e-01  -4.3098533e-01  -5.5657891e-01  -2.7491866e-01  -5.4169074e-01  -7.8164499e-01  -5.3798393e-01   6.2389041e-01  -6.9134983e-01   6.2971868e-01   6.3321540e-01  -9.7517137e-01  -4.9965718e-01   1.5205044e-01   2.6533048e-01  -9.0619586e-01  -1.2897255e-01  -4.6923938e-01  -7.6668041e-01  -6.1798596e-01  -8.2966770e-01  -1.5330229e-01   3.8727787e-01   1.9454683e-02   6.9393329e-01  -8.2757178e-01  -6.2852478e-01   5.2955175e-01  -5.8662967e-01  -3.5945172e-01   1.8993544e-01  -4.5063394e-01  -1.0899334e-01   5.4436173e-01   1.0797184e-01  -3.9666561e-01  -9.8776347e-01  -6.7633829e-02   2.8924744e-01   9.3971616e-01   3.1670270e-01   2.8336703e-02   8.1280910e-01   4.8008855e-01  -8.6935849e-01   7.4362303e-02   7.7978990e-01  -5.8249149e-01  -3.2906408e-01   4.5275554e-01  -9.6583850e-01   1.4141323e-01  -7.6942638e-01   8.0297834e-03  -7.1248083e-01  -5.1214355e-01  -4.7238964e-01  -1.1236940e-01  -1.4824140e-01   6.8067076e-01   9.5895505e-01   6.6529526e-01   1.9163347e-01  -8.5179501e-01   6.5227565e-01   4.8855768e-01   8.6346935e-01   8.3298493e-01   8.0711419e-01   2.7268323e-01   8.8638307e-01  -5.0884747e-01  -3.6914124e-02   9.6965726e-01   4.8341205e-01  -2.0187340e-01   8.5167263e-01  -8.1988704e-01  -9.5459289e-01  -7.3503039e-01  -8.7820567e-01   7.7727812e-01  -2.2045771e-01  -5.1343991e-01   1.2205605e-01  -3.8887432e-01   8.6920813e-01   9.8187613e-01   6.8190182e-01   7.7955594e-01   6.5904889e-01  -5.7598479e-01   8.3686916e-01  -6.2001372e-01  -4.4508029e-01  -1.3472548e-01   1.4426236e-01   5.2483971e-01  -3.8673199e-01  -1.4889515e-01   6.4768135e-01   7.5676021e-01   8.5904444e-01   3.0077766e-01   7.1122096e-01  -1.0489084e-01   8.8338350e-01  -4.3445015e-01  -2.3306758e-01   6.7086105e-01  -8.4771340e-01  -8.9159450e-01   1.8817531e-01  -7.8335791e-01  -6.5407269e-01   1.5772470e-01  -6.4589722e-01   1.2556984e-01   5.8473500e-01   7.5877938e-03  -9.9090659e-01  -1.5309357e-01   4.8251807e-01   2.2562463e-01   6.7723572e-02  -1.8728974e-01   1.8312594e-01  -8.4227596e-01   7.7242948e-01  -4.0229151e-01  -9.7559362e-01  -2.4488787e-01  -9.9494057e-01   7.9005645e-01   4.2235704e-01  -4.9995814e-01   5.5259725e-01  -6.8353100e-01  -2.5530608e-01   1.7929182e-01  -6.2369084e-01   6.6561932e-01  -1.4949913e-01   3.7519471e-01   5.9868253e-02  -8.4080211e-01   9.3979848e-01   8.9541067e-01   3.3490141e-01   8.8180595e-01   6.4138502e-03   2.0841773e-01   1.3569369e-01   7.8729141e-01  -1.4762922e-02  -1.7103661e-01   1.0947453e-01  -4.4324766e-01   2.6031779e-01   6.6775057e-01  -1.4315707e-01   4.8137704e-01   8.4361886e-01  -6.7746996e-01  -9.3014964e-01  -4.4494703e-01   3.9146122e-01  -5.7234183e-01   5.1354775e-02  -5.8643609e-01   6.9476567e-01   1.2465631e-01  -3.6187549e-01   6.6260775e-01   2.6791569e-01  -1.1133195e-01   4.2916324e-01  -8.3711642e-01   1.7562501e-01  -1.3080929e-01   7.4562447e-01   1.7029454e-01   6.8388937e-01   6.8984888e-01   9.8692417e-01   9.4224709e-01  -7.7611615e-01  -5.8848298e-01   4.0897720e-02  -9.8931595e-01  -3.9378661e-01   9.1786083e-01   5.8336105e-01   4.9308425e-01  -5.0873138e-01   3.9849138e-01   9.8261411e-01  -7.1256628e-01   1.5652094e-01  -5.4184253e-02   9.5627236e-01  -9.7357626e-01  -3.6690305e-01   4.0598373e-01  -2.1392566e-01   8.0437423e-01   8.5625085e-01   7.5414602e-01   1.0169724e-04   1.0791791e-01   8.5797578e-01  -3.4410467e-01   3.4033283e-01  -6.7839075e-01  -6.4590425e-01   4.9309298e-01   6.3954129e-01   8.6448128e-01   7.2205528e-01   1.1468436e-01   3.3771214e-01  -2.5490805e-02  -4.2295911e-01   4.2775287e-01  -2.1872175e-01  -2.3666659e-01  -4.4103141e-01  -8.3354312e-01  -1.7605027e-01  -4.2884716e-01  -4.7886450e-01  -7.7861756e-01  -7.2725374e-01  -3.5376136e-01  -5.5206278e-01  -9.7832038e-01   2.3972171e-01   5.6893542e-01  -5.1907652e-01  -7.0506120e-01  -9.9872025e-01   4.3230248e-01  -9.7734836e-01   4.8255372e-01   7.1382572e-02   7.6973534e-01  -6.1086178e-02   9.1618190e-01   5.8666198e-01  -4.2723458e-01   2.5946583e-01  -3.3817338e-01   8.8776266e-01   8.8067346e-01  -3.9102111e-01   7.9377743e-01   6.4067036e-02   1.3264664e-02   8.3046526e-01  -5.9183818e-01  -5.1564331e-01  -7.1936466e-01  -4.7027707e-01   7.8491379e-02  -1.3532137e-02  -6.3274772e-02   8.1689354e-02   8.5760040e-01   4.9020585e-01   8.8126089e-01  -5.0722917e-01  -9.0292793e-01  -2.3041983e-01   3.9635025e-01   6.0929052e-01  -1.8983160e-02   2.0845923e-01   3.5796539e-02   7.5097203e-01   3.7797454e-01  -5.5472024e-01   5.2021454e-01  -9.1796772e-01  -5.0075490e-01   9.8451219e-01   3.0850805e-01   4.5049963e-01   2.9882714e-01  -2.0917840e-01   5.1055769e-01  -5.3478478e-01   1.4611711e-01   6.1811117e-01   8.8641188e-01   3.6978460e-01  -5.2156135e-01  -8.6277545e-01   9.9570768e-01   5.6491629e-01  -5.5730134e-01  -9.2650067e-01   7.3258282e-01   6.6867767e-01   6.1859529e-01  -1.6548855e-01   8.7727040e-02  -5.9766927e-01   5.5144072e-01   6.0404021e-01  -3.8042814e-01   9.8606711e-03   7.3028203e-02  -2.3718461e-01   8.4215111e-01   3.0627361e-01  -9.1266184e-01  -7.0992011e-01  -5.1578813e-01   4.0060241e-01  -9.1563310e-01  -2.4237772e-02  -2.9218835e-01   2.0248858e-01   5.7959377e-01  -7.0405042e-01  -5.3594783e-01   3.1087633e-01   3.3969278e-01   6.2316108e-01   4.9528827e-01  -5.5087767e-01  -7.7375313e-01  -7.2723245e-01  -2.6465741e-01   7.1217056e-01   7.6266185e-01  -2.1593586e-01   6.9833232e-01   5.0976157e-01  -4.1307113e-01  -2.7599118e-01   7.6207844e-01   4.9036493e-01   4.0705276e-01  -9.4877043e-01   4.8720964e-01   4.0962030e-02   3.8256621e-01   8.6151387e-01   8.5725470e-01   7.4396834e-01  -9.9321370e-02  -2.1062327e-01  -6.0476154e-01   1.0599117e-01  -9.2575793e-01   7.5411874e-01  -8.4631189e-01   5.8927597e-01   3.9310786e-01  -2.7774470e-01   6.6362246e-01  -5.6429292e-01   2.5744508e-01  -6.7201367e-01   9.3996848e-01   1.4335719e-01  -5.6551019e-01   2.4166769e-01  -2.2730722e-01  -3.3830053e-01   7.6930691e-01   5.8106150e-01   2.7677015e-01  -5.2633755e-01  -2.0634629e-01   2.7508713e-01  -8.0254354e-02   9.5916902e-05   9.4103442e-01  -8.8240813e-01  -3.1682989e-01  -7.8682115e-01  -8.3190522e-01  -6.7567467e-01  -6.3015791e-01   5.3114103e-01  -7.0878233e-01  -7.1799774e-01  -9.3761319e-01   4.8639686e-01  -5.2674177e-01   2.7033809e-01   6.8861189e-01   7.5621017e-01  -9.1405692e-01  -5.2537909e-01  -9.8562541e-01   4.9112700e-01  -9.4049093e-01   2.0023516e-01  -3.0086971e-01  -9.0643033e-02  -1.5730717e-01  -2.0051443e-01   3.5977931e-01  -6.4044424e-02  -7.7933910e-01   1.8690669e-02   3.4665235e-01  -2.1723380e-03  -1.5797373e-01  -8.5190977e-01   1.3930411e-01  -1.6575512e-01  -8.9832460e-01   2.8721238e-01  -2.1069279e-01  -1.6319850e-01  -6.5177901e-01  -1.8746561e-01  -5.0394077e-02   4.3010167e-01  -8.6913310e-01  -3.4992508e-01   5.8495299e-01   2.3247889e-01   5.0035579e-01   3.5717248e-01   4.2020912e-02  -1.3123239e-01   6.5006980e-01   8.8571097e-01   8.7538089e-01  -6.2709153e-01  -6.7915039e-01   8.2591268e-01   7.3078503e-01  -2.9754143e-01   2.3456411e-01   7.3935346e-01   2.0330971e-01   6.2659003e-03   3.8387125e-01  -8.4573425e-01  -4.6303095e-01   3.0748188e-01  -4.0456412e-01   5.7737074e-01   5.9375940e-01   4.0612917e-01  -5.9366004e-01  -2.2737514e-01  -3.4867967e-01   2.6848562e-01  -9.0179167e-01   1.6058302e-01   6.2166807e-01   9.5824770e-01   8.8391311e-01  -7.6718065e-01  -6.5815978e-01   2.6459757e-01  -5.8496852e-01   1.7370377e-01   1.6039857e-01  -7.3956823e-01  -6.1815424e-02   2.0046361e-01   1.9713807e-01  -6.9821825e-01  -5.8418456e-01  -8.9875269e-01  -6.9975836e-01  -4.7227071e-01   5.1737788e-01   9.3127478e-01   9.3847850e-01  -6.0246066e-01   9.5051064e-01   3.7036428e-01   3.6353709e-01   2.6550246e-01   7.8069616e-01  -2.0103851e-01   1.0993999e-02  -6.5353395e-01   7.6566391e-01  -9.1085265e-02   5.4397653e-01  -7.8115433e-01  -7.4320966e-02   5.7401860e-01  -6.1432733e-01  -3.6588166e-01  -7.2856427e-01  -5.6798126e-01   6.7095397e-01  -9.4149187e-01   7.3249500e-01   9.7053786e-01   3.6405568e-01  -4.0960212e-01  -5.2042179e-01   3.3097158e-02  -2.0771897e-01  -7.3442001e-02   6.6072845e-01   9.4809118e-01  -6.1673392e-01  -1.0702073e-01  -3.6357250e-01  -6.7665360e-01  -9.8012689e-02   7.5695142e-01   7.4043872e-01   9.3894912e-01   7.0266916e-01   4.4938467e-01  -4.1771660e-01   9.4414868e-01   1.1795592e-01   7.2160413e-01   3.0010784e-01  -4.0615058e-01  -3.4690132e-01  -7.1223873e-01   4.4818302e-01  -3.4018335e-01  -2.3759155e-01   2.5404144e-01   2.6739545e-01   1.6439737e-01  -5.0910252e-01   6.5607557e-01  -1.6702099e-02  -1.6053464e-01   9.5503756e-01  -2.7467236e-01   4.7108254e-02   2.4444002e-01   5.4003988e-01   6.9183197e-01  -6.3372670e-01  -3.8807794e-01  -6.2723505e-01  -9.9855259e-01  -1.3905096e-01  -2.1569183e-01  -5.4939201e-02   9.8178000e-01   9.6076702e-01  -7.4892539e-01   5.8084069e-01  -6.3308219e-01   7.6580100e-01  -7.3385937e-01  -4.0231944e-01  -4.6192876e-01   6.1308585e-01  -8.8922339e-01   4.3586391e-01  -5.3535329e-01   3.2280723e-01  -4.0458399e-01  -4.1686217e-01   2.3832903e-01  -7.7201311e-01  -6.6300471e-01  -6.9969560e-01  -2.0113678e-01   7.7039425e-02  -2.5360963e-01  -7.1745550e-01  -3.2658475e-01   5.1521693e-01  -3.5199369e-01  -3.0535369e-01  -7.4620879e-01  -7.8803651e-02   8.0466959e-01   3.3756349e-01  -9.9033155e-01   5.0348598e-01  -1.5040159e-01  -1.9134912e-01   4.9345483e-02  -6.1568482e-01   3.8741287e-01   5.1611974e-01  -1.9441368e-01   8.4291967e-01   9.2153095e-01   3.4979970e-01  -2.1423383e-01  -5.3082649e-01   5.1109174e-01   7.4349115e-01   7.0796985e-01   4.0930888e-01   5.1757252e-01  -6.9687435e-01   9.7313065e-01   5.4817571e-01  -6.2969641e-01   8.4509909e-01  -9.5254324e-01  -2.4701906e-01   8.3128781e-01   1.6054228e-01  -4.1586736e-02   2.0960781e-01  -9.6233382e-01  -6.0174587e-01   6.7788718e-01  -3.3728923e-01   6.1466357e-01   7.5493180e-02   3.0107870e-01   9.7760619e-02   8.1442064e-01  -7.3387217e-02   9.7547812e-01   6.0389093e-01  -8.4773413e-02  -3.3272590e-01   2.9898386e-01   1.8298591e-01  -3.5824294e-01   9.3911248e-01  -1.5463128e-01   7.0857421e-01  -4.9776244e-01   9.2542068e-01   1.1695234e-01   2.7091957e-02  -5.9942340e-02  -8.3198657e-01  -3.8566536e-01   7.0508871e-01  -3.1830378e-01  -7.9833187e-01  -8.2030764e-01  -9.6622580e-02  -2.9748109e-02  -3.4150618e-01   8.0902091e-01   6.9045696e-01   8.1640477e-01  -9.3854319e-01   9.7618612e-01   4.2167252e-01   8.7941220e-01  -5.0801304e-01  -6.0194897e-01   5.9651708e-01  -7.5365588e-01   6.1377329e-01  -2.3433456e-01   1.4525636e-01  -3.6929661e-01   7.9222530e-01  -7.9919062e-01   2.8714405e-01  -9.2099342e-01  -9.8596331e-01   8.7151673e-01   2.2274051e-02   4.6508778e-01  -7.0836278e-01  -7.5530461e-01  -2.5919830e-01  -9.9274396e-01   1.7636601e-01   2.1554627e-02  -3.9412542e-01  -1.7606406e-01   1.6389663e-01   4.7117819e-01  -5.7076905e-02   6.6131026e-01  -2.8102846e-02  -3.6927423e-01  -8.4460076e-01   7.7419907e-01   3.6869908e-01  -1.6328399e-02  -1.4264905e-01   4.2801697e-01   8.9877490e-01   3.9727185e-02   6.5823188e-01   3.6977941e-01  -6.2194359e-01  -4.1742039e-01  -4.2460671e-01   9.3632838e-01  -8.3535787e-02  -2.9859516e-01  -1.2157475e-01  -2.9688674e-01   3.1041074e-01   9.1619959e-01   1.1372455e-01   3.4375296e-01   5.5157394e-01   6.8886525e-01   9.9884567e-01  -3.9468485e-01   6.1234180e-02   3.8818022e-01   2.8052300e-03  -5.3638138e-01   4.2918501e-01  -2.8172861e-01   8.3278872e-01   1.4147945e-01   2.1281816e-02  -4.4518497e-01   5.4140267e-01  -3.9225643e-01   8.8369806e-01  -8.6180370e-01   3.6864596e-01   5.2481515e-01   7.9117075e-01   3.2608030e-01   3.7998441e-01  -5.0780472e-01   9.5884176e-01  -8.8145286e-01  -9.1541727e-01  -4.4930654e-01  -6.4812287e-01  -2.8459809e-01  -1.9333216e-01  -3.5794423e-01  -9.7284260e-01  -5.5956285e-01   9.9304111e-01  -4.2498698e-02   8.7984490e-01   8.6213723e-01   9.0421286e-01   1.1052297e-01   1.2022668e-01  -5.0820097e-01  -5.4622728e-01   9.7764800e-01  -7.0766741e-01  -3.6391955e-01  -4.4661904e-01  -6.5963225e-01  -3.4942884e-01  -8.4929872e-01  -8.5082366e-01   3.6351210e-01   9.7265453e-01  -4.4130022e-01  -6.3919207e-01   3.9327968e-01   7.6708417e-01  -9.3372792e-01   6.5091034e-01  -5.2720895e-01   8.6744705e-02   8.7438892e-01  -8.4640643e-01   6.9210480e-02  -5.9986612e-01   2.5991759e-01   6.2973530e-01   8.5100922e-01  -4.3288781e-01  -8.9822271e-01   8.4598982e-01  -7.4325957e-01  -5.9374015e-01  -2.7350629e-01  -8.0807087e-01   2.7173340e-01  -3.1336182e-01  -9.3729030e-02   5.4099046e-01  -8.4834687e-01  -7.1926307e-01   5.6792765e-01  -4.9297123e-01  -3.2651650e-01  -8.8473842e-01   7.2528700e-01  -2.8011329e-01   2.9461196e-01  -8.1045621e-02   5.2786209e-01   4.1728978e-01  -1.4541976e-01  -1.1782626e-03   8.2383839e-01  -4.6194950e-01   6.7178729e-01  -4.8045315e-01   6.9043166e-01   6.4952936e-02  -3.7678173e-02  -7.5086176e-01  -2.6675769e-01  -2.1224975e-01   7.2537258e-01  -7.8982073e-01  -8.0652812e-01   9.2608617e-01   9.3761038e-01  -3.3058115e-01   9.2697325e-01   4.2544869e-01  -3.5192535e-01  -1.6258555e-02   4.3222955e-01   5.3996854e-01  -9.9477890e-01  -9.4945149e-01   1.4928474e-01   6.8430028e-01  -2.6828700e-01  -6.0348774e-01   9.9189457e-01   7.6109104e-01  -8.4626828e-02   3.6762771e-01   3.5694278e-01  -5.2851418e-01   2.2589447e-01  -8.8249054e-01  -7.3860465e-01   6.8170184e-01   2.2535115e-01   1.0191927e-01  -4.9738474e-01   9.2961739e-01   1.0330158e-02   5.6703588e-01  -8.3794107e-01  -9.9663040e-01  -8.2139903e-01  -7.9397788e-01   9.0390822e-01  -1.9581554e-01  -2.1439458e-01   5.3832150e-01   6.9125184e-01  -3.7281102e-01  -3.0750332e-01  -1.0927647e-01   8.8664100e-01  -2.0409338e-01   5.4289348e-01  -1.2416059e-01  -9.7431033e-01   2.3912931e-01  -8.9295569e-01   4.6567773e-01  -7.8624911e-01  -5.8581191e-01   5.7322655e-01  -4.2108012e-01   7.9138378e-01   5.0129504e-01  -6.2151821e-01   2.2902899e-01   8.6889328e-01   5.0945149e-01  -4.7513300e-01   1.0104292e-01   3.0166934e-01   5.2890154e-01   8.1470651e-01  -6.6738603e-01   8.5564771e-01   9.7486615e-01   4.8746340e-01  -2.4124201e-02   4.7301016e-01  -4.5316963e-01   5.4683320e-02   6.1699188e-02   6.0172450e-01  -8.4871325e-01   3.6197206e-01  -6.4705409e-01  -1.4076420e-01  -3.5594723e-02  -9.8352188e-01   8.0932852e-01  -6.3065262e-01  -9.9963870e-01  -3.7266217e-02   1.4183074e-01   7.4999330e-04  -4.8741145e-01  -7.1595147e-01  -8.2945795e-01  -9.5222994e-01  -2.7632751e-01  -6.3539760e-01   1.3339052e-01  -1.3969641e-01  -2.6778082e-01   9.4949301e-01  -7.3416072e-01   9.7281841e-01  -3.7920557e-01  -9.4007037e-01   2.9041085e-01  -3.0884520e-01
   2.2285429e-01   1.0989524e-01   8.6719294e-01  -5.6241735e-01  -8.3528473e-01  -5.2878285e-01   2.3403438e-02  -6.4103776e-01   7.6246850e-01   5.6700214e-01   6.4983689e-01   9.3425485e-01  -1.4678918e-01  -9.9965063e-01  -6.9530532e-01  -1.3142280e-02   2.6126574e-01   8.0194239e-01  -1.5312253e-01   5.0613853e-01  -6.7230294e-01  -5.2892361e-01  -9.4041269e-01   9.9024159e-01  -2.9470820e-01   6.5281117e-01  -1.4724561e-01  -1.7347145e-01  -3.2055482e-01   3.7703986e-01   4.0245357e-01  -5.9216531e-01  -1.9166391e-02  -1.4422188e-01   5.8690541e-01  -7.0758714e-01  -7.9353769e-01   1.1038761e-01  -1.9757993e-03  -1.4550576e-01  -5.1567638e-01   5.7673760e-01   6.2491948e-02   1.3988260e-01   3.0923733e-02   3.6596743e-01   3.9007308e-01  -5.3815304e-01   8.4186602e-01   3.4167472e-01  -4.7869377e-01  -6.8058094e-02   9.4901553e-01   8.3381086e-01  -3.8446910e-01  -9.6490474e-01  -4.5753334e-01  -5.7234207e-01   1.6641625e-01   6.6213615e-02   3.4788139e-01   7.2899762e-01   3.3084460e-01  -6.5189176e-01   3.8463027e-01   2.7446645e-01  -6.8556744e-01  -2.7513306e-01  -5.5768705e-01  -7.0828482e-01   9.6999365e-01   7.8262349e-01   3.2898248e-01  -5.2933317e-03  -8.7035126e-01   8.5457015e-01  -5.4311709e-01   6.6758799e-01  -1.0345109e-01   6.3548336e-01  -5.5588829e-01  -7.7828366e-01   8.5322498e-01  -1.8351604e-01  -3.7501135e-01   7.6637487e-01   2.8825531e-01   2.3356256e-01   7.9985143e-01  -9.7936724e-01  -7.8362505e-02   6.5952911e-01  -9.7361747e-01   1.1413725e-01  -6.8817748e-01  -7.9999839e-01  -4.5098341e-01  -4.5826240e-01  -1.3322946e-01  -3.1401744e-01   5.0109505e-01   5.1754688e-01   4.8498507e-01  -9.3529636e-01  -3.6946727e-01   4.7472236e-01   1.6125430e-02   4.3913241e-01   5.7891163e-01   1.7066141e-01   8.9903929e-01   7.2488776e-01   7.6141250e-01  -6.4121629e-03  -9.4027771e-01  -5.8876307e-01   2.1671388e-01  -2.6835987e-01   4.8276707e-01  -9.3730483e-01   9.5647806e-01   3.8714905e-02  -9.1426361e-01   5.4004637e-01  -8.0740421e-01  -4.1179839e-01  -4.1640708e-01  -8.5667410e-02   1.9673669e-02  -6.6592234e-01   3.4677076e-01   4.5475697e-02  -8.9718982e-01   3.6540906e-01   1.4225082e-01  -7.0136492e-01  -6.0068270e-01   1.2721162e-01  -7.8266564e-01   9.4898069e-01  -6.2924582e-01   9.3273363e-03   6.3022163e-01   3.5693098e-01   2.6817714e-01  -9.2152583e-01   3.2473514e-01  -7.8254690e-02  -2.1830901e-01   5.4306991e-01   4.2154741e-01  -8.8896836e-01  -4.4079570e-01   8.1886645e-01  -5.0420127e-01  -8.7696107e-02   8.4626839e-01   3.4410852e-01   5.1283212e-01  -7.7364837e-01   9.5249958e-01   5.2064163e-01   4.7093523e-01  -4.4714514e-01  -9.5481356e-01  -2.7709810e-01   6.4875417e-01   6.7321645e-01   6.2657487e-01  -4.7193672e-01  -4.4179435e-01  -8.3543256e-01   5.4095428e-01  -8.5799131e-01  -2.0574491e-01   5.8436645e-01   9.2497493e-01   3.0340563e-01   4.6426261e-01   8.9590118e-01  -1.4893888e-01   9.0701223e-01   9.4606259e-01   3.1763375e-01   3.9139466e-01  -4.9548253e-01   7.6926781e-01   8.4340831e-02   9.1538145e-01   8.2226973e-01  -9.0946404e-02  -2.6990328e-02  -7.5038380e-01  -6.4135174e-01  -2.8141077e-01   7.7645935e-01   8.8263931e-01  -7.8372428e-01  -5.2624855e-01  -4.5116401e-01   7.7790803e-02  -7.2125764e-01  -8.5037911e-01  -8.6596003e-01   8.4193123e-01  -9.5175384e-01   4.2800251e-01   5.1756639e-01  -9.1311749e-01  -2.2543393e-01   5.4988867e-02  -7.4313840e-01   2.4179662e-01  -3.8358783e-01  -4.3918207e-01  -7.1112606e-01  -8.7257833e-01  -8.0856976e-01   8.1529881e-01   9.2433538e-01  -2.6474121e-02   9.3502491e-01   3.6934747e-01  -7.3558428e-01   1.7546285e-01  -1.6342725e-02  -4.5336519e-02  -2.5634737e-02   9.0914732e-01  -3.6604359e-01  -3.0080597e-01  -3.8924019e-01  -1.6261593e-01   4.1909343e-01   3.4903391e-01   2.6578022e-01   7.7598583e-01   2.5510427e-01  -3.5802469e-01   7.9269431e-01  -6.1818998e-01   4.6165480e-01  -4.7850752e-02   3.7446436e-01   5.2254223e-01   9.6283505e-01   6.6943133e-01  -2.0209983e-01   5.9475398e-01   9.5408505e-01   2.8169311e-01  -2.9235189e-01   9.7098280e-01   3.0176943e-01   4.0650674e-02   4.3873005e-01   1.8739216e-01  -6.6212591e-01   7.4162603e-01  -3.1444949e-01   4.6344753e-01  -8.5016351e-01   2.0037805e-01  -5.5167212e-01  -4.4978107e-01   3.3633326e-01  -8.0421655e-01   3.2135055e-01   9.7315602e-01  -4.0616151e-01   3.0477801e-01   7.6662235e-01   3.5172802e-01  -5.8341779e-01  -1.2036333e-03  -8.6092502e-01   3.3471117e-01   6.9770413e-03  -4.0298728e-01   4.1630512e-01  -9.8445945e-01   6.7626543e-01   8.8949666e-01   6.5834427e-02  -7.8696007e-01   1.3890734e-02   3.5605986e-01  -9.6853512e-01   1.8036520e-01  -2.1827519e-01   9.6365865e-01  -8.9164675e-01  -1.6345463e-01  -8.4021842e-01  -5.5965964e-02  -6.8360729e-01  -5.6554845e-01  -3.2390747e-01   3.9654377e-01   3.6814951e-01  -3.9782419e-01  -9.5605108e-01   2.7694191e-01  -9.6870010e-01  -6.2696106e-01  -5.6780586e-01   3.5745952e-01   5.0673952e-01  -7.8454435e-01  -3.0126033e-01   7.8860033e-01   6.0483668e-01  -9.4349666e-01  -5.5585928e-02   3.1525940e-01   7.9965714e-01   1.0974104e-01  -1.2219286e-01  -7.9063178e-01   9.1309747e-01  -4.7382324e-01  -5.5106630e-01   1.9436667e-01   3.0337370e-01   3.7168715e-01  -8.8336694e-01   2.8305856e-01   5.6596493e-01   3.7604646e-01   6.8351808e-01   2.0897792e-01  -9.9713723e-01   9.4010302e-01   7.8491020e-01   6.7056013e-01  -4.8378275e-01  -9.1033200e-01  -4.8776183e-01  -1.0724764e-01  -8.7780729e-01   2.5634368e-01  -5.9111306e-01  -4.5458949e-01  -3.6499855e-01   3.1137199e-01   1.2779986e-01  -4.6295569e-01   2.3228114e-01  -5.7997398e-01  -1.1008988e-01   2.8304121e-01   7.4771798e-01  -4.2155669e-01  -6.4157231e-01  -9.5880234e-01  -8.9444726e-01  -9.6539077e-01   7.6012444e-01   7.1009742e-01  -8.8173755e-01  -8.8566522e-01  -4.6405291e-01   9.6914871e-01  -7.0609250e-01   2.1639190e-01  -6.7618427e-01   7.3306578e-01  -5.2995870e-01  -5.6809108e-01  -5.6077254e-01   9.3226274e-01   8.1100240e-01  -2.3616602e-01  -8.9435523e-01   4.9336071e-01  -3.7178256e-01  -6.7631324e-01   7.5312365e-01   7.1844842e-01   5.4785891e-02   4.8875813e-01  -8.0803368e-01   8.5597939e-01  -8.2262361e-01   9.7713490e-01   4.4241974e-01  -4.1255308e-01   7.8172721e-01   7.6054701e-01  -8.4256083e-01   6.8146159e-01   9.5644044e-01  -9.1903080e-01   5.9767463e-01  -9.4930660e-01  -6.8769061e-02   1.5526010e-01  -1.4780680e-02  -3.1261624e-01  -3.9061210e-01  -8.8349044e-01   2.6180399e-02   8.9821248e-01  -7.0161469e-01   7.2361211e-01  -7.5035785e-01  -9.6216716e-01  -2.1174479e-01   3.0349691e-01   4.8635504e-01  -6.1135667e-02   2.2863077e-01  -5.8187981e-01   5.1462696e-01   4.6313693e-01  -2.2113976e-01   4.1261374e-01  -1.2512412e-01   2.1294623e-01  -9.7080232e-01   8.3696661e-01   8.0079452e-01   6.5985549e-01  -7.7844754e-01  -4.4353412e-01  -8.7678543e-01  -9.2696389e-01   4.3821430e-01   5.2362474e-01  -2.7382626e-01   4.9415832e-01   9.4534749e-01  -8.0412930e-01   3.8725015e-01  -5.2602206e-01   8.1207648e-01   5.4632819e-01  -3.5220282e-02   3.6751072e-01  -7.5702825e-01   6.7629733e-01   9.3830857e-02  -6.2463792e-01   1.9588406e-01  -6.9047131e-01  -8.4998359e-01  -9.3360635e-01  -3.8896698e-01  -4.5418039e-01   1.0786652e-01  -3.4722993e-01   6.3664038e-01   4.4125143e-01  -3.8414034e-01  -2.7039836e-01   9.9523565e-02  -2.8021583e-01   8.7958017e-01  -1.2539840e-01   7.1078674e-02   6.6123282e-01  -1.9970730e-01   2.5806935e-01  -5.9162479e-01   4.8762416e-01   5.5965167e-01  -9.8703992e-01   3.7986945e-01   2.0475057e-01  -1.1153588e-01  -4.2133542e-01  -3.6512562e-01  -9.8662559e-01  -6.7323911e-01   5.0398803e-01  -8.3666636e-01  -1.5389449e-01   9.6357922e-01   6.8949124e-02   1.2577640e-01   8.5605459e-01   6.0866578e-02   2.7891309e-01  -9.7925297e-02  -4.1643165e-02   2.9189233e-01   8.8004790e-01  -6.9963806e-01  -7.6522947e-01  -9.4625024e-01  -5.9751744e-02  -1.0476429e-04  -2.5228030e-01   2.1008409e-01  -1.9195907e-01  -3.2281825e-01  -1.7543982e-01   4.9250429e-01  -6.0172861e-01  -9.7831689e-01   4.5081145e-01  -3.2306358e-01  -9.1189937e-01  -7.3581990e-01  -2.1805120e-01  -8.7254502e-01   6.6038391e-01   4.3322626e-01   8.2329720e-01   6.0589842e-01   9.0596164e-01   3.0188546e-01   5.7606575e-01   2.1777991e-01  -2.4591147e-01  -9.6765822e-01  -8.9149633e-01  -2.8693655e-01   7.8123650e-01  -1.7152590e-01  -1.6202368e-01   8.4522552e-01  -9.1883754e-01  -1.3858505e-01   4.8449734e-01   8.3163743e-01   8.2178567e-01  -7.9707256e-01   8.0960433e-02   2.6830365e-01   8.7805341e-01  -6.0847915e-01   9.9149169e-01  -2.8865509e-01  -4.4308903e-01  -4.1149349e-01   1.2282450e-02  -7.4503220e-01   7.6108386e-01  -3.3914007e-01  -3.5877562e-01  -3.9252435e-01   1.3217995e-01   6.8320199e-01  -4.3224631e-01   6.5380951e-01  -2.3272817e-02  -6.5952423e-01  -7.2500135e-01   3.0665074e-03  -7.5699755e-02  -1.1460474e-02  -8.2056191e-01   7.7215232e-04   8.4248045e-01  -7.8786947e-01   9.6326346e-01   9.8857560e-01   7.0668781e-01  -7.1750176e-01  -3.4634485e-02   5.2090545e-01  -4.7523135e-01  -3.7580654e-01   5.1434942e-02   6.1064460e-01  -1.1461843e-01  -9.4141498e-01   9.1426217e-01   5.3863306e-01  -7.2217895e-01  -5.8381581e-01  -1.6024577e-02   6.5467520e-01   4.2787911e-01  -7.2129968e-01   1.3107590e-01   7.0691801e-01   6.5998889e-01   8.0788902e-01   1.8091339e-01   5.9237636e-01  -7.4610717e-01  -5.4545759e-02   4.0193471e-01   3.0643501e-01  -2.7566761e-01   3.1899312e-01   5.1673069e-01   5.1104106e-01   6.5225630e-01  -7.7556559e-01  -5.0221718e-01   6.2182836e-01  -5.2207547e-01   9.7171587e-01  -3.1214021e-01  -3.6197019e-01  -1.1513360e-01   3.2254949e-01   6.8648983e-01   7.5138154e-01   9.6067482e-02   1.0628123e-01  -2.6152953e-01   8.8624814e-01   4.1588126e-03   3.4948318e-01  -5.5232007e-01  -7.3388280e-01  -8.9371103e-01  -2.6105786e-01  -5.9115584e-01   4.2890978e-01  -6.5647716e-01  -4.8012248e-01   2.5521114e-01  -2.6753281e-01  -8.8168561e-01   1.3074405e-01   8.2004229e-01  -8.0451118e-01  -6.0075508e-01   8.6843703e-01  -3.9877085e-01  -9.2431866e-01  -4.8495662e-01   7.3484235e-01   1.4447480e-01  -8.0282971e-01   1.5720785e-01  -7.7235519e-01   9.3569668e-01   5.6150502e-01  -3.1611896e-01  -3.6335884e-01   6.4488499e-01   9.3399060e-01  -6.0995518e-01  -4.3229459e-01   3.5960516e-01  -2.3296230e-01  -6.8505403e-01  -1.1504194e-01  -5.0604985e-01   4.2391100e-01   6.8575388e-01   9.1489530e-01   3.3732109e-01  -9.4835483e-02   8.1691784e-01   3.4269259e-01   5.6753290e-01   1.1968344e-01   4.1514041e-01  -7.7592398e-01  -9.8644573e-01   4.1323687e-01  -5.0692622e-01   8.3943267e-01   6.5984622e-02   6.0802353e-01   6.9556272e-01  -5.6898084e-01   1.3864983e-01  -1.3234694e-01   4.3003919e-01  -8.4494771e-01   3.8364214e-02   6.1169070e-03  -7.3195063e-01  -4.4096658e-01  -5.3668685e-01  -3.2385962e-01  -2.3851280e-01  -2.2479292e-01  -1.1604630e-01   8.4903061e-01   1.8133672e-01   1.6806917e-01  -4.8531604e-02  -5.6093213e-02  -7.9397347e-01  -3.5205402e-01   3.5226237e-01   7.7384050e-01   3.6559357e-03   3.0092374e-01   6.9653779e-01   6.5127097e-01  -3.4968368e-01   2.2136692e-01  -4.3378024e-01   6.2824816e-01   3.8436554e-01   9.2524935e-01  -2.4210689e-01   4.5118689e-01  -9.7915816e-01   7.2002931e-01   3.1009798e-01   3.8998574e-01  -4.1481271e-01   2.3223806e-01   6.2673506e-01  -2.7410859e-01  -2.6977235e-01  -7.9265060e-01  -8.9363443e-01  -8.8688480e-01   2.9813123e-01  -5.8749555e-01  -8.4813152e-01  -4.4530001e-01   1.8717725e-01   7.5189904e-01   5.0168514e-01  -7.6318085e-01  -7.0403011e-01  -8.8584579e-01  -3.4563018e-01   1.5208144e-01   5.4859752e-01  -7.8210391e-01   7.8079157e-01   7.4535559e-01   9.8770633e-01   6.7518097e-01   2.1638948e-01  -7.5468512e-01  -2.5290832e-01   1.6932954e-01   4.6383681e-01   8.1673997e-01   3.5477175e-01   4.2944257e-02   2.9443511e-01   2.0479935e-01  -3.5431679e-01  -8.8194714e-01  -9.9661667e-01   8.8945397e-01   7.1661900e-01  -3.5188736e-01   8.7687726e-01   7.0946268e-01   7.9688642e-01   6.1103149e-01   3.1446800e-01   7.9460061e-02   8.0424453e-01   4.3912606e-01  -9.9517204e-01   6.3448615e-01   3.5901366e-01   8.4047100e-01   6.8462410e-01   3.2233488e-02  -5.8558773e-01   8.8393122e-01   8.7095309e-01   2.1719578e-02   3.5601462e-01   3.4287154e-01  -5.6894103e-01  -3.1352318e-01   7.0468567e-01   7.7005564e-01   7.8022420e-01   1.0528361e-01  -9.8964260e-01   5.9859526e-01  -9.9082098e-01  -3.0873684e-01   2.5321397e-03   4.9794644e-02   4.7664798e-01  -1.5803320e-01   8.8623163e-01   9.4725879e-01   2.6407598e-01  -5.3844574e-01   6.7124784e-02  -7.3273188e-01  -7.3257359e-01   2.1085740e-01  -5.9798963e-01  -6.4340712e-01  -5.4468484e-01   9.8828577e-01   6.0867577e-01   2.6184755e-01   9.1459617e-01   8.3601181e-01   5.6853217e-02  -5.1187073e-01   3.1329746e-01   1.3892325e-01   4.1627138e-01   6.7973316e-01   1.0936577e-01   2.1683424e-01  -3.9459811e-01  -1.2095758e-01   1.2969131e-01   5.4804937e-01  -7.9077985e-01  -4.9768992e-02  -2.0247465e-01   4.5330841e-01   9.9271186e-01  -9.2818655e-02   3.1382115e-01   8.2386350e-01   8.9028600e-01   7.1034693e-01   8.7763734e-02  -3.6800422e-01   9.7715957e-01   1.4956057e-01   9.0815466e-01  -5.1855818e-01  -2.7222685e-01  -7.9589812e-01   4.7331419e-01   3.5690841e-04  -7.3813365e-01  -8.5407708e-01  -4.3392643e-02   9.4731166e-02   6.9012081e-01  -8.0838579e-01  -7.8703185e-01   2.0852476e-01  -7.2282828e-01   7.5299775e-01  -1.5492629e-01   4.3622611e-01   2.5774403e-01   6.8987601e-01  -8.3341972e-01   4.3352535e-01  -2.5730259e-01   6.6829686e-01  -5.3057337e-01   3.9031091e-01   7.8596011e-01  -4.1152069e-01  -9.1645272e-01   4.8755227e-01   9.3197053e-01  -7.7992354e-01   7.1837654e-01  -8.1123795e-01   3.7057013e-02   5.9420646e-01  -1.5444480e-01   8.8945451e-01   1.2965940e-01  -9.3927788e-01  -3.1728534e-01  -7.3828027e-01  -9.7435092e-01  -9.1879708e-01   4.5366588e-01  -5.8695253e-01  -5.5872242e-01   1.8278698e-01  -2.2188447e-01   2.1089490e-01   5.5708155e-01  -4.6198678e-01  -2.3522800e-01  -6.8720567e-01  -6.7590852e-01  -3.6187346e-01  -2.1454951e-01   1.0711056e-01   2.6176394e-01   6.8772229e-02  -7.3915020e-01  -4.1225595e-01   5.7021565e-01   8.0662193e-01  -2.0303418e-01  -5.0286691e-01  -3.2496460e-01  -4.7092946e-02  -7.4577689e-01   2.4415479e-01  -1.6213668e-01  -4.4811282e-01  -7.5723477e-01  -1.8933560e-01   6.4360996e-01   4.4059602e-01  -9.5793995e-01   3.6751328e-01  -3.6941165e-01  -8.4377162e-01   5.6681080e-01   2.5640402e-01   1.0149217e-02   1.2476082e-01   8.4592642e-01  -2.9120824e-01   1.2121195e-01   5.7508181e-01  -3.7085738e-01   7.4684918e-02  -7.6345688e-01   1.5631586e-01   6.5640798e-01   7.0527115e-01  -2.7497214e-02   5.5542389e-01   5.0385193e-01   2.3628211e-01   5.3076113e-01   3.9484949e-01   3.0916199e-01   8.7793779e-01  -4.9014238e-01  -3.4423156e-01   8.0684702e-01   1.7686657e-01  -2.1016776e-01   4.5022586e-01   5.8211581e-01  -6.4142731e-01  -4.8671058e-01   8.4281356e-03  -6.9446121e-01  -2.8776867e-02   8.4476873e-01   5.5946005e-01   8.2391873e-01  -2.2590997e-01   8.0072985e-01  -9.8521365e-01   6.7458283e-01   8.2577466e-01   3.6467793e-01  -1.3632900e-02   9.3329442e-01  -7.0106256e-01   1.9924841e-01  -5.7726100e-01   5.3460665e-01   9.1376097e-01   5.1525987e-01  -1.2463431e-01   7.8950327e-01   3.7642065e-01   5.4346687e-01  -9.4353295e-01  -7.1056067e-01   1.9402520e-02   2.8212259e-02   7.3945614e-02  -8.2997409e-01  -7.4194198e-01  -9.3197191e-01   7.6607597e-01   4.1578909e-01  -2.7510057e-01   3.6068370e-01   2.5632803e-02  -1.3827398e-02  -6.8225447e-02   1.8010261e-01  -5.4486384e-01  -1.1218172e-01  -7.4920096e-01   8.3170875e-01   7.9565206e-01  -9.5151053e-01   5.5887493e-01  -8.8205530e-01   1.0526573e-01  -9.8768224e-01  -8.9859457e-01  -3.2782049e-01   8.5318652e-01   5.0534740e-01   2.8144537e-01   6.2781856e-01   2.8207120e-01  -4.7779036e-01  -3.6876222e-01   9.2419371e-01  -4.4549703e-01   4.5349167e-02  -9.5462417e-02  -3.8379741e-02  -9.5389464e-01   2.4720636e-01  -1.8350949e-01  -9.3750521e-01   5.6134363e-01
   7.6950913e-01   6.6966308e-01   4.0538609e-01   3.8709041e-02  -6.0404037e-01  -3.4666782e-01  -5.2043117e-01  -6.2657802e-01   9.9886276e-01   2.5252124e-01   3.3072813e-01   5.4440113e-01   3.5277128e-01   9.2144348e-01   4.3990280e-01  -4.7714950e-01  -7.7879175e-01   7.2555204e-01   2.5255264e-01   5.2560840e-01   4.6440531e-01  -5.7330486e-01   6.0553359e-01  -8.8633632e-01   6.7656679e-01   8.0246902e-01   1.5189636e-01   7.8821288e-01   9.9184471e-01   7.1307600e-01  -1.2328261e-02   2.0042284e-01  -9.5687049e-02  -8.2918266e-01  -8.8870131e-01   3.2272373e-01   6.0067330e-01   7.7933176e-02  -8.7730951e-01   9.8445058e-01  -2.2891825e-01  -4.6380331e-01  -7.4961779e-01  -8.5243826e-02   9.2599446e-01   2.5682337e-01  -8.2023011e-01   2.3821290e-01  -3.5170011e-02  -1.4439291e-01  -6.9432249e-01   8.0705743e-01   5.3406730e-01   9.6451737e-01   6.8926123e-01   6.9286537e-01   9.8722006e-01   4.6699382e-01  -6.9924037e-01  -1.7870921e-01  -6.9885807e-01  -7.3847705e-01  -4.2654928e-01   4.5019824e-01   5.2275261e-01   9.4931692e-01  -8.7720799e-01  -4.9058565e-01   9.2907662e-01  -4.4292257e-01   9.6592777e-01  -2.2026698e-01   2.0492895e-01  -9.8607916e-02   8.8357949e-01   6.0055611e-01  -6.9615433e-02   6.2214917e-01  -7.1208804e-01   8.7440567e-01  -5.2912525e-01   2.9113302e-01   7.5570003e-01   4.7626342e-01  -4.3250787e-01   1.4442601e-01  -7.4600460e-01   7.1867219e-01   9.1384200e-01   7.7817603e-02   9.8800856e-01   8.9409307e-01  -5.9174690e-01  -5.2024921e-01   8.9583095e-01  -1.9994528e-01  -9.9375232e-01   9.6707223e-01  -3.6111650e-01   3.6443636e-02  -1.8578573e-01   7.5005762e-01  -8.5834667e-01  -8.2013968e-02  -2.4779073e-01   2.3369790e-01  -8.9972517e-01  -5.9234487e-01  -3.0498756e-01   8.1903823e-01  -8.0380247e-01  -4.1522547e-01  -6.1105432e-02  -3.8240754e-01  -4.5886746e-01   4.0000223e-01   5.6518727e-01  -6.5115284e-02  -6.6271922e-01   3.6083175e-01  -3.5366725e-01  -2.2202472e-01   2.7546546e-02   3.8414888e-01  -6.5746552e-01   8.9623266e-01  -6.2128099e-01   2.4551006e-01   6.2524120e-02  -6.8188392e-01  -9.3057952e-03   1.8641892e-01  -6.9226851e-01  -4.0902243e-01  -4.2937644e-01   3.0973501e-01   8.7451341e-01   1.8852571e-01   9.9626790e-01  -9.0327134e-01  -8.9550698e-01   8.4315196e-01   6.9766166e-02  -9.3494827e-01   4.4661233e-01  -9.6558770e-02  -1.7449512e-01   3.1345826e-01   7.5083557e-02  -2.7808530e-01  -2.8795324e-01  -8.6123315e-01  -7.9327264e-01   9.3644836e-01  -2.1248268e-01  -2.4929796e-01  -4.5678246e-01  -5.8172153e-01   4.6925444e-01  -8.8903530e-01  -7.3962518e-01  -6.9089634e-01   7.2613630e-01   3.9989543e-01  -6.4349550e-01  -1.7322713e-01   4.9537730e-01  -7.5010384e-01   8.8394708e-01  -9.9989430e-01  -9.9369583e-01   7.0762824e-01  -4.4612586e-01   9.3990295e-01   9.7028994e-01  -6.7668142e-01   1.9688656e-01  -2.1777536e-01   5.9566242e-01  -7.4333875e-01   2.4441646e-01  -4.0555078e-01   4.5875484e-01  -1.9761261e-01   8.7487360e-01  -7.0068960e-01   1.0174176e-01  -8.5281593e-01  -8.4738594e-02   6.1054702e-01   5.4540365e-03  -8.4445429e-01   4.2965982e-01  -8.2339028e-01   2.4310477e-01   8.9107431e-01  -6.5802032e-01   1.1262823e-01   6.9766577e-03   2.7687666e-01  -6.9734114e-01  -2.3930460e-01   7.9352567e-01   7.2449711e-01  -5.4237144e-01  -5.7191664e-01   9.2347255e-01  -1.3976449e-01   2.3379450e-02  -6.7340393e-02  -2.9704836e-01   5.9592679e-01   2.5068140e-01   5.9154158e-01  -2.7921563e-01   6.7373095e-01  -5.9855111e-01   5.1083533e-01   1.7319796e-01  -4.6446980e-01   7.5339016e-01   6.8710937e-01   5.6752302e-01   4.8790277e-01   3.6333265e-01  -5.1083361e-02  -3.7922979e-01  -4.0095784e-01  -7.5564426e-01   4.5037369e-01   6.3271446e-01   6.0109426e-01   1.5478496e-01  -7.2187820e-01   5.0134288e-01  -6.8288669e-01   9.9961080e-01   6.1788199e-01  -6.7794078e-01  -5.5212685e-01   8.1259618e-01   9.4842325e-01   7.3367199e-01  -5.1174287e-01  -2.3737614e-02   5.5490362e-02  -5.1412243e-01   7.5553004e-01  -7.7614184e-02   4.0427174e-01  -7.5918903e-01  -1.0504390e-01  -4.3012813e-01  -4.7304931e-03  -6.8749173e-01  -6.1967228e-01  -5.7997789e-01  -3.4905283e-01   9.7972245e-01  -8.6555143e-01   3.6010997e-01   2.4021886e-01   2.5904581e-01   7.3767390e-01   6.8564914e-01   7.3479195e-01   5.3699678e-01  -2.6504862e-01   1.9592338e-01  -6.0561040e-01   8.2306436e-01   2.5755486e-01   8.3779246e-01  -1.2144330e-01   9.8843568e-01  -5.6289854e-01   8.9423605e-01  -4.6296450e-01  -2.2305067e-01   5.3688580e-01   4.8576981e-01  -1.1909012e-01   8.4680029e-01  -9.3484146e-01   5.4836750e-01  -2.7100091e-01   5.4427840e-02   4.6170752e-01   7.8261991e-01  -6.3107865e-01   4.1443172e-01   7.3312637e-02   7.1785277e-02  -4.9860467e-01  -7.8399694e-01   1.2698226e-02   7.5148625e-01   3.5319851e-01  -5.8467911e-01  -8.9581419e-01   8.4969731e-01  -7.6538768e-01   1.0077642e-01  -5.7356298e-01   8.0706456e-01   9.7740047e-01   7.8790732e-01   4.4264925e-01  -5.6746561e-01   2.6430665e-01   1.6887999e-01  -9.7705256e-01  -3.6716430e-02   2.9284500e-01  -2.5063448e-01  -4.0607209e-01   6.8689906e-02  -4.6623794e-01  -1.2124340e-01  -9.7318436e-01   6.7649712e-01  -7.9273285e-01  -7.1038133e-01   9.9794915e-01  -4.4586737e-01   8.5271064e-01   9.1797925e-01   6.1700499e-02   7.5778929e-01  -8.6997726e-01   4.2714564e-01   4.1223452e-01  -4.5200661e-01   6.7240434e-01   4.3655141e-01   6.3197676e-01  -7.3791739e-01   1.9493613e-01   8.6086844e-01  -1.1022697e-01  -9.9684808e-01  -9.6085832e-02   7.7368260e-01  -9.4582127e-01   6.2483296e-02   7.3006814e-01   2.9591264e-01  -4.8875307e-01   7.9672427e-01  -3.0331020e-02  -4.0574124e-01   6.9234194e-01   5.1026711e-01   7.2748152e-01  -1.6874953e-01   3.6968678e-01  -3.5780633e-02   4.9028468e-02  -2.1035007e-01  -2.0373654e-01   5.4357350e-01  -3.0180092e-01  -2.2536739e-01  -8.6153586e-01   2.7040100e-02  -3.9275646e-02  -3.0914923e-01   3.2875086e-01   8.8455731e-01   6.7917210e-01   5.1338514e-01   8.5364343e-02   1.2707823e-01   9.2990192e-01  -7.7201378e-01   1.3247680e-01   4.0001873e-01  -4.6469140e-01   4.5131572e-01   2.0342926e-01  -9.4071189e-01   8.3306131e-01  -5.9579267e-01  -1.7374507e-01  -2.9475768e-02  -1.6395840e-01   6.9323458e-01   8.6891957e-01   5.5288127e-01   1.0462482e-01  -8.8880132e-01   8.0717307e-01  -3.2849028e-01  -7.0193952e-01  -7.5886038e-01   4.8529759e-01   5.8449547e-01   7.7932613e-01   1.3328368e-01  -5.8457178e-02  -6.4137613e-01  -8.1468716e-01   9.0665768e-01   6.1207339e-01  -2.8170925e-01  -9.3351694e-01   9.2928454e-01  -5.9532960e-01   7.6221062e-01   1.6066596e-01  -1.3231905e-01   7.5784265e-01  -3.1762849e-01  -9.8836713e-01  -4.5365344e-01  -6.5340924e-01  -9.3228557e-01  -7.4667114e-01   8.3407890e-01  -1.9944763e-01  -2.2256828e-01   2.4605438e-01   4.7053163e-01  -4.3905896e-01  -2.7425548e-01   8.0878841e-01  -9.5478694e-01   4.6061400e-01   8.7231350e-01  -8.5421457e-01   6.8122616e-01   6.5983477e-02  -7.5835545e-01  -1.6972954e-01  -3.4957703e-01  -1.4432060e-01   7.5842077e-01  -5.8249945e-01   5.9787721e-02  -3.0509331e-01  -8.7303361e-01  -6.7124714e-01  -3.0981019e-01  -9.1739836e-01   4.6408543e-02  -9.0797573e-01  -8.4419615e-01  -6.1030165e-01   4.7934803e-01  -3.4006728e-01   6.9158704e-01  -1.5498213e-01  -3.8124296e-01  -4.2759748e-01   1.0010811e-01   1.2657958e-01  -6.3386104e-01  -3.1182718e-01  -4.7988701e-01  -1.8316169e-01   6.6398685e-01  -5.6628688e-01   4.4221467e-01   3.5142587e-01  -1.4756963e-01   2.4188629e-01   2.1150269e-02  -5.5747381e-01  -1.2372833e-01  -7.4599711e-01  -5.4448551e-01   1.8935571e-01   8.1015028e-01   1.1470490e-01  -7.2720329e-01   2.7013965e-02  -6.8819932e-01   6.1882838e-01  -8.8805516e-01  -9.7701961e-01   8.2320985e-01  -9.7218631e-01   8.6352351e-01   6.6180612e-01  -9.3244414e-01  -6.7964404e-01  -3.5119598e-01  -5.7372343e-01  -8.4101789e-01   4.2421206e-02  -6.4627425e-02  -6.2610344e-01   5.1466830e-02   3.0183472e-01  -2.3322821e-01  -3.2480114e-01  -9.2709179e-01   7.7184039e-01   1.4154400e-01  -7.2917229e-01   5.9653051e-01   5.3578063e-01   9.3084611e-01  -6.2309310e-01   5.4344670e-01   2.5428244e-01   6.8083249e-01   2.6315569e-01  -8.7103912e-01  -5.1497801e-01  -5.7139346e-01   8.2122895e-01  -2.5089689e-02  -8.6147081e-01   9.8519891e-04   7.3535189e-01   3.8674536e-02   1.0372588e-01   7.8016804e-02  -1.4374726e-01   7.2558943e-01   7.2576926e-01  -9.0232012e-01   6.4617107e-01  -1.2133924e-01   3.3696843e-01   9.3613905e-01  -9.0137577e-01   3.8493117e-01   5.7110505e-02   6.7355284e-01   5.4414196e-01   5.5084502e-02  -5.2564621e-01  -7.9407474e-02   8.7375470e-01   4.7457087e-01   9.5863568e-01   8.9690400e-01  -6.0205682e-01  -9.0491973e-01  -4.2663509e-01   1.0077950e-01   8.5057925e-01  -5.2401499e-01  -1.3034904e-01   4.0405783e-01   5.5496957e-01   1.1929924e-01   7.1127954e-01   5.1879327e-01   2.7924528e-02  -4.6035983e-01   6.9668943e-01  -8.4670241e-01  -7.3079855e-02  -5.8667095e-01   7.4947013e-01  -8.5075056e-01  -9.3399136e-01  -1.8138448e-01   3.9567937e-01   6.8804897e-01  -5.8053869e-01  -2.6568684e-01  -9.2805281e-01   3.6172157e-01   5.0080698e-01  -3.5477914e-01   1.0323820e-01  -6.8993786e-01  -1.4065945e-01   5.1244466e-01  -1.9486093e-01   4.2813424e-01  -2.9207020e-01   5.3485948e-01  -9.7628797e-01  -1.9261115e-01  -1.7562527e-01  -3.2572414e-01   8.4161078e-01   3.5860917e-01   1.9838950e-01  -9.3958923e-01   6.9200515e-01  -2.6107626e-01   5.6269976e-02  -9.5030901e-01   4.2750910e-01  -5.2989562e-01   8.4363078e-01  -2.5294024e-01   8.0225782e-01   2.3324122e-01  -8.4564033e-01   6.3261422e-01   4.1708366e-01  -6.6465843e-01   9.7711198e-01  -2.5114341e-01  -8.4383229e-02  -6.6912045e-01   3.3482155e-01   9.1991480e-01   7.2543292e-01  -3.9249542e-02   5.5930598e-02   4.2052126e-01   3.9438606e-01   3.2931371e-01   3.7575603e-01  -4.2266834e-01   5.4419488e-01  -3.3848798e-01  -2.8042396e-01   7.5732184e-01  -2.7108933e-01   9.9870385e-01  -9.3305026e-01   7.3160343e-01   8.5957488e-01   9.4692364e-01  -5.9718818e-02  -8.5923018e-01   6.9747668e-01   8.6193600e-03  -3.1824565e-01   2.4889541e-01   8.8022492e-01   2.7262644e-01   8.3883539e-01   9.2067772e-01   4.2563386e-01   5.7447711e-01   8.1372829e-01  -3.7341027e-01  -4.5953378e-01  -4.9871530e-01   2.7017389e-01   4.3932531e-01  -8.8637427e-01   6.9596869e-01  -9.7817600e-01   5.7430201e-02   3.3793082e-01   7.5231597e-01  -6.0666809e-01  -4.1085735e-01   2.9864398e-01  -8.9296636e-01   1.7677457e-01   1.9827879e-01   1.1090056e-01  -7.4303836e-01   2.6759936e-01   7.0790392e-01   2.3584757e-01   7.2588302e-01  -4.1126919e-01   6.5693971e-01  -1.3354222e-02   5.7855556e-01  -5.9625227e-04  -3.3119647e-01  -7.3722093e-01  -7.5407609e-01  -6.1664831e-01   6.0620791e-01  -3.7307909e-01   8.9838722e-01  -7.5348390e-01   7.0660192e-01   8.8566002e-01   2.3217986e-01  -2.1075436e-01   6.2125934e-03   7.6980306e-01  -8.0723470e-01  -2.9315096e-01  -7.0448015e-01  -3.6579002e-01  -7.2482961e-01  -4.1713888e-01   1.4691528e-01  -3.9400809e-01   2.2850246e-02   6.6080451e-01   5.7967682e-01  -2.1498623e-01   5.3387752e-01  -6.3125136e-01  -7.2525215e-01   5.0946069e-01   2.5718517e-01  -9.3234963e-01   1.5426780e-01   6.2148099e-01  -6.4184905e-01   2.8098538e-01  -9.4073679e-01  -7.9970139e-01  -5.5837198e-01   5.8721752e-01  -3.1673967e-01   9.6267769e-01  -9.4988695e-01   1.5359829e-01   7.7121204e-01   5.2448723e-01  -5.9831093e-01   2.8936129e-01   4.1284420e-01  -9.8694184e-01   1.8941904e-01  -3.5766376e-01  -8.6053160e-01   8.7524075e-01  -2.6657414e-01  -6.7925879e-02  -2.3289129e-01   8.5602788e-01   1.9703627e-02   2.8187043e-01  -5.4011486e-01   8.9728486e-01  -2.0114511e-01  -4.1191733e-01   5.0313706e-01  -9.8750981e-01  -7.9953964e-01   9.3952303e-01  -7.6725158e-01   1.9057108e-01  -1.5707836e-02  -5.7823351e-01  -2.5931759e-01  -9.5538364e-01  -4.4924808e-01   7.3569070e-01  -8.5049119e-01   9.7221875e-01  -2.1954842e-01  -5.4337883e-01  -9.8022479e-01   5.3132280e-01  -5.1346813e-02  -6.9156466e-01  -7.8431351e-01   6.1414171e-01  -7.5906289e-01   9.2195807e-01   5.8209688e-01   3.4653355e-01   1.4174502e-01   3.5157080e-01   3.0809493e-01  -4.5118052e-01   6.5936891e-01  -4.2586712e-01   1.1396921e-01  -5.8797534e-01  -3.2134138e-01  -8.4087278e-01  -2.0318833e-01  -4.2373068e-01  -9.1668661e-01  -2.6144262e-01  -8.8119300e-01  -7.7035415e-01   3.5303092e-01  -1.0234007e-01  -7.1466247e-01  -9.7397386e-01  -6.6550363e-01   5.4763790e-01  -1.2814912e-01  -7.7565390e-01   2.7534317e-01   1.2873480e-01   7.1711934e-01   5.3698772e-01   9.7870964e-01   5.8373033e-01   3.2879034e-01  -1.8314573e-02  -8.5609778e-01  -7.0469596e-01   6.0379768e-01  -7.7938638e-01  -7.4507353e-01  -1.2826798e-01   9.8753857e-01   1.7710996e-01   4.5108751e-02  -2.3983117e-01  -9.0940607e-01  -3.0879215e-01   9.7644125e-01  -8.7229451e-01   6.2879194e-01  -6.9181401e-01  -6.5850903e-01  -4.1702890e-01   5.5226405e-01  -2.4294288e-01  -9.2482541e-01  -8.9445881e-01  -5.7142864e-01   2.3273420e-01  -8.3183659e-01  -5.8789637e-01  -6.9110552e-01   6.5101116e-01   8.0333003e-01   9.6435405e-01  -8.7804448e-01   2.5521905e-02  -5.1210822e-01  -2.5959289e-01  -6.1074244e-01   4.5140650e-01  -3.7547235e-01  -5.0564111e-02  -2.8876624e-01   4.3730776e-02  -5.5200267e-01  -7.3312954e-01   9.8510627e-01   3.7194763e-01   2.2868479e-01   6.5566448e-01  -6.7427149e-01   1.8433871e-01   6.0408370e-01  -1.7708823e-02   3.3907593e-01  -5.5698014e-01  -2.8759014e-01   9.1502638e-01  -7.4511100e-01   2.0214570e-01   5.3681535e-01   4.3601042e-01  -7.9006105e-01   6.4492252e-01  -9.0878687e-01   8.1370543e-01   5.3346010e-01   9.5652687e-01  -7.8355950e-01   9.7272635e-01   5.6952164e-01   6.8517735e-02   9.0819320e-01   6.1154472e-01  -9.0520038e-01  -4.1816640e-01  -6.2596382e-01  -5.4591341e-01  -4.8375994e-01  -6.4130643e-01   4.8039454e-01   2.8630769e-02   8.3604273e-01   1.0016596e-01   9.3792906e-01  -4.9779717e-01  -5.6269652e-01   2.4264044e-01  -2.9608828e-01  -6.8845949e-01  -2.2198076e-01  -9.0473377e-01  -2.8088077e-01  -2.8384526e-01  -2.2122038e-01  -1.2131963e-01  -2.0390327e-02   4.4625191e-01  -8.4112910e-01   4.2860800e-01   7.5476552e-02  -7.6392049e-02   8.5600234e-01   5.8951336e-02  -7.2993542e-01   3.8101994e-01  -3.8896615e-01  -9.7083550e-01   7.5422622e-01  -6.7350185e-01   9.2202653e-01   6.0655885e-01   3.9037298e-01   2.3517647e-01  -8.6755333e-01   9.1985797e-01  -9.8633419e-01   6.9771675e-01   6.5716980e-01   7.9719752e-01  -6.7786184e-01  -2.4655365e-01   4.9025288e-01  -3.6934553e-01   8.4295379e-01  -8.0382478e-02  -1.4675263e-01  -1.3069173e-01  -5.6347616e-01  -3.6112820e-01   7.3832788e-01  -6.7711247e-01   9.5539952e-01   1.9949872e-01  -2.7113436e-01   4.0252544e-01   8.2165645e-01  -6.4234559e-01  -5.6693122e-01   7.6710884e-01  -6.9563357e-01  -7.7281683e-01  -1.8981811e-01   3.4050512e-01  -3.0272755e-01  -4.1597226e-01  -5.4060477e-01  -2.4909227e-02  -6.6320419e-01   2.2015317e-01  -7.2159440e-01  -2.4099238e-01   7.4849847e-01   3.5960507e-01  -1.6871633e-01  -9.0705488e-01  -2.2622346e-01   9.9142016e-01   2.0452612e-01  -9.8400686e-01   9.8130661e-01  -7.8817458e-02   7.7774158e-01  -3.4432043e-01  -7.4831990e-01  -2.3064818e-01   4.5732871e-01  -7.6676255e-01   2.1853436e-01   6.9458495e-01  -6.2945502e-01  -6.5309911e-02   6.9384829e-01   5.6966705e-01   7.4798242e-01   1.6504102e-01   4.1831639e-01  -5.2390508e-01   8.9290950e-01   9.5536212e-01   9.9958379e-01   5.7781881e-01   5.5598955e-01  -8.3430422e-01   6.0760152e-01   7.0745726e-01   4.8180386e-02   7.9860689e-01   6.1873200e-01  -6.1475253e-01   1.6102739e-01  -9.5689385e-01  -8.9077470e-01  -5.9400426e-01   4.7355774e-01  -5.9030438e-01   8.7610088e-01   2.2675594e-01   8.8011791e-01   1.8646126e-01   5.6795355e-01   5.6842092e-01  -7.4832296e-01   6.2008786e-01   9.3998332e-01   7.3701506e-01   4.7253966e-01   7.6090722e-01   4.4586613e-01  -5.2603610e-01   9.5873845e-01   4.8966142e-01  -1.1167446e-01  -4.7062144e-01   8.3805447e-01   6.8697709e-02   6.3785850e-02  -2.1614950e-01
