  -3.8299160e-01  -9.9553238e-01  -6.8230835e-01   9.7638781e-01   1.6061458e-02  -1.3105449e-01   7.5284289e-01   4.8708834e-02   1.9295023e-01   5.3667771e-01  -6.0284705e-01  -3.9502678e-01   6.5264769e-01  -5.4858942e-01  -8.2005241e-01   3.3007169e-01  -3.8785740e-01   2.0114316e-01  -1.8536666e-01   2.7469994e-01  -4.5593227e-01  -7.2529758e-01   2.3992147e-01   7.5015755e-01   6.1389611e-01  -7.1306989e-01  -7.6503706e-01   6.5752783e-01  -2.8781031e-01  -5.9299725e-01  -7.5249414e-01   7.9585345e-01   9.8322690e-01  -7.3338614e-01   7.5021041e-01  -9.7910588e-01   3.0591589e-01  -8.5658540e-01  -3.7711345e-01   8.8458250e-01  -5.9016941e-01  -7.1411347e-01   3.2662720e-01  -7.6806540e-01   9.4763553e-01   8.1066414e-01   7.9450387e-01  -2.7108354e-01  -7.4237751e-01  -3.0157030e-01   2.8176193e-01   1.3601729e-01  -8.0530458e-01   8.4715186e-02  -5.1799726e-01   9.7921760e-02   3.6272542e-02   5.8971532e-02   3.9530521e-01  -1.3827442e-01  -3.2802262e-01  -9.7035578e-01  -4.9461340e-01  -1.3589232e-01   3.6390247e-02   6.6374891e-01  -8.1532986e-01  -6.2218177e-01   7.8266544e-01  -6.7307330e-01   5.5189726e-01   5.9601330e-01  -1.4095601e-01   6.8530519e-01  -5.9211045e-01  -8.4343003e-01   6.5669576e-01   7.8233860e-01   1.1795974e-01  -7.1499047e-01  -6.1313041e-01   2.1382721e-01  -4.3855254e-01   8.1565632e-01  -8.8822699e-01   5.5921207e-01   8.1303276e-02  -2.6549932e-01   9.9608796e-01  -6.7100700e-01   3.7162073e-02   8.8193930e-01  -2.3180307e-01   3.7165042e-01   9.9858284e-02   1.8152016e-01   7.0841518e-01   4.5060696e-01   4.4552471e-01  -5.4089526e-01   9.1036050e-01   6.4715081e-01   9.7650104e-01   2.6692056e-01   2.4521855e-01   2.6716301e-01  -4.2227563e-01  -9.1986740e-01   2.8305720e-01   7.5762941e-02  -7.3220592e-01  -7.6361080e-01  -4.2691113e-01   5.3271670e-01  -8.7771162e-01  -9.7324114e-01   5.9796761e-01  -7.8178966e-01   6.5884437e-01   3.9558294e-01  -4.2594939e-02  -1.2216655e-01   3.6900986e-01  -2.7649699e-01  -1.0131987e-01  -1.6692527e-01   5.9422183e-01   6.0049737e-01  -3.0802894e-01   1.5503043e-01   8.4051440e-01   2.2456862e-02  -6.6295303e-01   1.4387951e-02   9.0346342e-02   4.7218641e-01  -5.6637322e-01   8.6558003e-01  -4.3420674e-01   6.2808726e-01  -3.0049171e-01   5.7557578e-01  -2.6623587e-01   9.0372437e-01  -4.4372219e-02  -8.1402795e-01  -1.5239066e-01   3.5424502e-01  -3.3790077e-01  -1.1135255e-01  -1.0684021e-01  -6.9383810e-01  -5.9426629e-01  -8.5642748e-01  -7.1407221e-01  -6.1605438e-02   8.7263662e-01   7.6928802e-01   1.5695721e-01   8.6581329e-01   3.5417949e-01  -6.9926082e-01   2.2338139e-01   5.3940901e-01  -8.0970198e-01  -7.9070746e-01   2.5911381e-01   7.2205147e-01  -7.6805306e-01   9.2160562e-02  -1.1089743e-01   6.7626946e-01   1.7631943e-02   8.1120112e-01  -9.1472468e-02  -6.0443516e-02   9.5496700e-01   5.6123284e-01  -1.8209898e-01  -2.5293353e-01  -8.4080385e-01   7.5859747e-01   5.6817359e-01   1.4524625e-01  -9.7738941e-01  -8.8258123e-02  -8.6033838e-01   7.2202685e-01   4.1916400e-01  -1.6075426e-01   1.4846032e-02   8.8618486e-01   5.9481176e-01   9.6003235e-01   5.4254440e-02  -7.7002398e-01   8.4688424e-01  -7.3994387e-01   1.6450582e-01  -5.5338996e-01  -7.0955786e-01  -3.9218897e-01  -2.1495118e-02   9.2188017e-01   5.7465379e-01  -6.8671565e-01  -8.0549572e-01  -9.9838006e-01  -2.2787409e-01   3.1217234e-01   5.0490364e-01   7.7640520e-01  -2.1184861e-01   5.8599206e-01   1.0075752e-01   9.7950363e-01  -9.3787979e-02  -2.0042155e-01   4.2564414e-01  -9.2506620e-01  -6.7257611e-01   5.2715315e-02   1.2138279e-01  -5.6298988e-01   2.3427629e-01   8.6056048e-01   3.7816107e-01  -5.7324935e-01  -2.9769642e-01  -8.9984479e-01  -2.2242979e-01   4.1590645e-01  -2.9084697e-01   6.7727814e-01   2.1607477e-01  -5.8381426e-02   5.1355902e-01   3.8882828e-01  -7.0904896e-01  -9.0138292e-01  -1.9103880e-01   1.9964941e-01   1.5772179e-01   2.7279043e-01  -3.4759754e-01   7.0442537e-01  -7.1278754e-01  -9.3880969e-01   5.0379814e-01  -8.5124570e-01   6.6165606e-01  -1.1387859e-01   3.9544844e-01  -4.7259457e-01   1.2561609e-01   3.5774593e-01  -8.5057484e-01   5.9832524e-01   7.4321320e-01  -4.6903870e-01   3.9071921e-01  -9.0832694e-01  -6.3708461e-01  -4.3707376e-01   1.1480818e-01  -2.8761077e-03   4.3800376e-01  -1.1850005e-01  -2.4310323e-01  -4.0999065e-01  -5.4279018e-02  -7.3685567e-01   4.1190986e-01  -4.6666715e-01   4.8380867e-01   6.3060275e-01  -4.6913012e-01   3.6564907e-01   4.7895423e-01  -7.7846376e-01   6.9746498e-01  -3.1296763e-01   1.5522180e-01   5.4021117e-01   8.0624691e-01   5.7493866e-01   8.3426074e-01  -9.1733024e-01  -8.5983220e-01  -7.8179929e-01   8.9715367e-01   6.1420035e-01  -8.0069382e-01  -6.4190215e-01   7.9405302e-01  -3.1754895e-01   2.3644311e-01   8.8097919e-01  -7.3800190e-03  -4.0018285e-01  -4.8243679e-01   9.5263597e-01  -7.9199258e-01  -5.2297337e-01   7.4739424e-01  -7.0032075e-02   1.9610825e-01  -7.4130374e-02  -4.4892616e-01   2.3601894e-01  -4.6750841e-01   7.4699862e-01  -4.5973838e-02  -6.2865181e-01  -1.5203846e-01  -7.1382357e-01  -7.9913357e-03  -5.6850018e-01  -1.5226400e-01  -8.6115475e-01   1.6513737e-01   5.5133882e-01  -2.8933208e-01  -8.0320746e-01   8.4561017e-01   2.9171881e-01  -2.9905518e-01  -7.5596371e-01   7.2738539e-01  -1.4041997e-01  -1.1972354e-01  -4.0889240e-01   2.7258526e-02  -2.8571413e-01   3.1419708e-01   7.0781858e-01  -1.2258485e-01   6.0487090e-01   7.2228272e-01   5.8369227e-01  -4.0526167e-01   1.7842224e-01   2.8484046e-01  -3.2542656e-01   4.0499017e-01   7.8718658e-01   5.7122930e-01  -7.9529010e-01   5.0719081e-01  -8.2784165e-01  -3.8750114e-01   3.7009581e-01   6.9591736e-01   4.9786915e-01  -9.1062369e-01  -8.6857282e-02   4.7840768e-01   9.4391174e-01  -6.9147178e-01   2.7362249e-01  -7.0235181e-01   9.9921366e-01  -6.9815102e-01   6.4063128e-02   4.0803537e-01   9.9287987e-01  -6.8732557e-01   9.8490117e-01   9.2300218e-01  -8.4537207e-01  -3.8998838e-02  -6.5998003e-01   3.1417136e-01  -3.4557237e-01  -8.8466900e-01   5.6427035e-01  -2.0590093e-01  -5.9199133e-01   2.9630774e-01  -4.0668817e-01   2.2345390e-01  -8.2980578e-01   5.8336832e-01  -9.8740607e-01   9.4877027e-01   6.1522080e-01  -9.0721453e-01  -3.5120891e-01   8.1154108e-01  -7.9461412e-01   2.6591823e-01   4.7110381e-01  -8.1030225e-01   1.9048119e-02   6.0276901e-01   3.9029330e-01  -3.2395312e-01  -1.0729865e-01  -8.9531462e-01  -7.4716134e-01  -3.6365828e-01  -7.0897650e-01  -6.9907621e-01   9.3883748e-02   3.4259579e-01   9.5345196e-01   1.0906036e-01   1.8992369e-02   5.2264075e-01  -9.8803141e-01   7.4610051e-01  -5.8115630e-01  -2.9601681e-01  -7.3934940e-01   4.7880350e-01  -2.0554383e-01  -4.6385713e-01   3.8358325e-01   1.6907438e-01   5.8424808e-02  -8.0532871e-02   4.2068363e-01  -3.3896960e-01   8.1486074e-01   5.1724763e-01   6.0846076e-01  -2.3755780e-01  -6.5645141e-01   9.6860189e-01   2.8167233e-01   2.5791946e-01   1.6631463e-01  -2.2437546e-01   9.9734627e-01   8.6700091e-01   9.9581665e-01   2.6571303e-01  -6.0596169e-02   1.4601678e-01  -7.9211194e-01   2.3956591e-02  -1.9393614e-02   2.9272931e-01   4.4362225e-01   2.6584387e-01  -7.0335063e-01  -1.6241809e-01   5.9769706e-01  -4.8507998e-01   8.1269157e-01  -8.7773450e-01  -3.0679497e-01   1.2680041e-01  -3.4550148e-02   2.7352290e-01   5.2513560e-01  -8.1927126e-01   7.0437753e-01   2.7357262e-01  -4.8407318e-01   3.7324052e-01  -8.7651242e-01   6.1110164e-01  -2.6256747e-01   8.3331270e-01  -8.5509618e-01  -5.2345534e-01  -6.3770397e-01  -8.4239601e-01  -3.3087631e-01  -1.4523258e-01   3.2092591e-01   7.4174776e-01   6.6648305e-01   3.6042482e-01  -5.6267890e-01  -6.8919064e-01  -7.9798412e-01  -5.8165873e-01  -1.4513393e-01  -4.6076992e-01  -6.8431058e-01   8.3247417e-01   5.7500092e-02   2.4482268e-01   6.6547315e-01   9.0098218e-01   8.2373773e-01  -2.9522060e-01  -4.2399590e-01   3.6107728e-03  -3.1126707e-01   5.7694888e-01   3.3993724e-01   2.4884108e-01  -5.6993212e-01   2.6999440e-01  -8.0908051e-01   1.8945379e-01   6.4008954e-01  -3.4640398e-01   6.9949429e-01   7.7747739e-01   8.9701008e-03   3.6433998e-01  -3.7482254e-01  -9.8560408e-01   9.9933218e-01   7.6776910e-01  -5.0060296e-01   4.8016557e-03  -3.5630570e-01   2.7801744e-01  -2.7008718e-01  -2.5057811e-02   9.5651084e-01  -1.5270363e-01   8.6515482e-01  -9.1170772e-01  -9.5636661e-01  -3.6024358e-01   3.5265653e-01   9.2365215e-02   4.2554100e-01   4.5068119e-01  -6.1282116e-01   7.1760252e-01  -1.8004957e-01  -1.1571121e-01   4.8706890e-01  -4.2812013e-01   1.4024139e-01  -8.2186668e-01   7.9329313e-01  -3.1350471e-01   6.6736634e-01   3.9774933e-01   3.0609023e-02   8.8499540e-01  -2.8276942e-02  -8.5004776e-01  -8.0341869e-01  -6.1234289e-02   1.6052886e-01  -2.9948622e-01  -7.5297821e-02  -7.9676910e-01  -2.0155032e-01   1.1743788e-01  -2.9930509e-01   1.3737032e-01   1.5594452e-01   3.5262238e-01  -7.3133230e-02  -9.8872845e-01   4.7830983e-01   2.0809021e-01  -7.7583031e-01   7.4614462e-03  -4.4816778e-01   1.3994691e-01   1.9406306e-01   1.6187219e-01  -5.1554557e-01  -8.5661822e-01  -3.3864810e-01   9.0490686e-01  -2.6533444e-01  -5.3667331e-01  -4.0811520e-01  -8.7357656e-01   4.2323470e-01   9.8338080e-01  -4.5617601e-01   3.6102061e-01   4.8145528e-01  -9.2981301e-01   6.8063483e-01  -8.6045269e-01   1.4785563e-02   3.0947308e-01   8.8071008e-01  -2.6783261e-01  -4.3164653e-01   6.9692513e-01  -9.1084272e-01  -2.2494429e-01  -6.7182009e-01   5.3129126e-01  -6.5605476e-01  -5.8280214e-01   2.9829565e-01   5.5251327e-01   6.1588875e-01  -5.1688474e-01   4.5452409e-01  -3.8385470e-01   5.7551722e-01   7.4933901e-01   3.8020638e-01  -1.9760333e-01   4.8679758e-02  -8.3284510e-01   9.2580186e-01  -8.2934756e-01   8.8693491e-01  -6.2742629e-02  -2.8459912e-01   2.5320064e-01  -9.3409237e-01   4.2289181e-01   4.0657695e-01   1.1183822e-01   2.6480514e-01   9.9601577e-01   6.9295692e-01   4.8154093e-01  -6.5329937e-01   5.0115281e-01  -6.7517951e-01  -7.7800945e-01   6.3242757e-01   4.0941649e-01   5.6892812e-01   6.2688906e-01   7.5407200e-01   7.4702043e-01   7.1485892e-02   4.1371212e-01  -9.2922816e-01  -2.2370180e-01   5.2368465e-01  -3.6676732e-01   4.8255215e-01  -2.8380664e-01  -1.1866287e-01  -3.0611271e-02  -7.1359089e-01  -2.4529885e-01  -8.3695081e-01   4.4065728e-01   9.5612625e-01   9.8982209e-01  -1.0929032e-01   1.7241791e-01  -4.9635216e-01  -7.8838766e-01  -4.4475159e-01   9.7521877e-01   1.6239049e-01  -2.5275922e-01  -2.6230296e-01   1.2466076e-01   4.4940973e-01  -3.7483600e-01   9.5078269e-01  -9.0531996e-02   9.8298974e-01   8.8215618e-01   3.5997588e-01  -5.3262263e-01  -7.7737813e-01   2.6743899e-02  -9.0955932e-01  -5.6751568e-01  -1.6362886e-01  -5.9733578e-01  -1.7367027e-01   2.4774971e-01  -6.0867666e-01  -5.8895856e-01  -4.1904973e-01  -3.0884868e-01  -6.3487213e-01  -1.8718198e-01   8.4870865e-01  -5.9809600e-02  -9.8033816e-01  -9.2993799e-01   7.9160194e-01  -8.7458568e-01   5.1784531e-01  -1.5648524e-04  -1.5614261e-01  -7.2828585e-01   4.8712386e-01  -2.2316399e-01   9.5077351e-01   4.5382407e-01   8.8424283e-01   1.6016176e-01   7.6586763e-01   5.1084495e-01  -2.7209744e-01  -6.2344415e-01  -5.2710601e-01  -5.2197023e-01  -5.9032556e-01  -5.0117983e-01   4.2304777e-01  -8.4955181e-01  -2.2054329e-01  -5.6564300e-01   8.2943172e-01   4.5801227e-01   7.7017761e-01   4.6393732e-03  -8.5151917e-01  -4.3245134e-01   2.5631765e-01   2.5519260e-01  -3.5797850e-02  -3.5585982e-01  -9.1662249e-01  -8.4573644e-01  -8.9118409e-01   1.3523346e-01  -1.1893686e-01  -9.4101855e-01   7.2264657e-01   4.6472112e-01  -8.5678653e-01  -1.9945028e-01  -2.9120268e-01  -8.5116583e-02   3.8952663e-01   8.2197092e-01   2.1957121e-01   1.1024487e-01  -7.9116202e-01   8.2576550e-01   4.4886330e-01  -5.4790179e-01  -5.2003238e-02   6.7229664e-01   8.5703041e-01  -7.4683951e-01  -7.3968760e-02  -7.9746443e-01  -2.2067676e-01   4.8239076e-01   1.0785723e-01   7.9317788e-01  -6.6421171e-01  -4.5840009e-02  -4.3732414e-01   9.7301276e-01   7.2045600e-02  -3.7096088e-01   6.4559472e-01  -3.4180778e-01   2.5160919e-01   4.8221216e-01  -3.6386831e-01   7.6260518e-01  -6.0256426e-01   3.5370141e-01  -7.8997547e-01   2.8706422e-01  -8.4939524e-01  -2.6069158e-01   3.3066491e-01   8.5333453e-01   4.7048867e-01  -1.2334064e-01  -4.2382941e-01  -9.4208534e-01   9.4316067e-02  -2.5829926e-01  -4.4465291e-01   2.2065247e-01  -9.6071869e-01  -7.9459538e-01   8.0332902e-01  -5.4712076e-01   6.7919706e-01  -4.3517575e-01   5.6478554e-01  -4.9126011e-01   1.6728488e-01  -2.7714174e-02  -4.8365332e-01   5.5105449e-02   3.1665298e-01   2.4961708e-01  -7.9295259e-01   8.0954428e-01   9.7440024e-01   8.7001816e-01   8.2426396e-02  -2.1842468e-01  -6.5201340e-01   1.1623124e-01   5.3799101e-01   4.2000636e-01   4.7482720e-01  -5.4297938e-02   2.6288386e-01  -8.3346385e-01  -6.1560405e-01  -5.4910977e-01  -9.5507469e-02  -7.0373473e-01  -5.2885868e-01  -7.4813929e-01  -2.1698438e-01  -5.3170213e-01  -3.3531920e-03   6.1486006e-01  -6.3930803e-01   4.7860316e-01   7.2923960e-03  -4.7176141e-01   8.6668837e-01   4.2087814e-01   3.0867491e-01  -2.3577683e-02  -1.6687477e-01  -2.6552856e-01   8.1376471e-01  -7.4180935e-01  -7.1397659e-01   5.4405962e-01  -5.3391058e-01   3.7942515e-01   3.5186696e-01  -7.7080693e-01   4.9070483e-01   4.9085343e-02   8.8071760e-02   3.2440843e-01   5.6890548e-01   9.5464088e-01   8.6545568e-01  -4.2975339e-01  -4.4967605e-01   2.5175555e-01  -8.3064691e-01  -7.2930562e-01  -2.5018191e-01   2.6817030e-01  -4.7061741e-01  -5.1559814e-01  -5.5641408e-01  -1.4014902e-01  -8.2563090e-01   6.3474996e-02  -2.4137970e-01   2.0330792e-01  -5.4085543e-01   1.8551221e-01   5.0260115e-01   5.0022117e-01  -1.1510972e-01   5.7188617e-01  -7.9034633e-01   1.9700104e-01  -9.0785559e-01  -1.3577647e-01   2.3221868e-01  -6.1932434e-01   2.7707131e-01   5.3390903e-01  -9.3170314e-01  -7.8344436e-03  -9.4916961e-01  -6.7867487e-01   1.6570337e-01   1.9049159e-01  -9.3889569e-01  -8.4247628e-01  -5.5924669e-01  -5.3457926e-01  -6.8513613e-01  -6.5347410e-01   2.4857743e-01  -2.9426725e-01   8.2233044e-01  -6.9047753e-01   3.1589314e-01  -6.9086433e-01  -9.5456898e-01   8.7437230e-01   2.9103238e-01   4.0322312e-01  -9.7760858e-01   1.7585729e-01  -3.6677446e-01  -7.3713429e-03   8.1261243e-01  -8.0768293e-01  -3.9559496e-01  -3.1518823e-01  -9.1039876e-01  -6.2206406e-01  -4.7006619e-01   5.8594683e-01  -2.4216870e-01  -4.5480487e-01   1.4696384e-01  -9.7427047e-01   9.0807219e-01   5.9872977e-01  -1.1553666e-01  -1.3354085e-01   1.4117855e-01   8.4698677e-02   5.6191771e-01  -7.7971330e-01   1.6306767e-01  -8.9787020e-01  -6.4141832e-01  -3.7618130e-01   4.2594842e-01   2.4387262e-01   4.1798594e-01  -6.9887112e-01   8.7259365e-01   4.1640754e-02   8.1570555e-01  -4.3159364e-01   7.6825987e-01   6.2747081e-01  -1.9226559e-01   4.5635160e-01  -2.3788011e-01  -4.3798672e-01   4.2479377e-02   8.2170717e-01   8.4600454e-03   6.0443019e-01  -1.0377525e-01   2.8886871e-01   7.5619591e-01  -8.2755289e-01   2.7230997e-01  -9.6402185e-01   6.9006776e-01   6.1115383e-01   7.6361253e-01   8.8512894e-02  -4.0297841e-01   3.3551627e-01   7.0121896e-02  -2.7716745e-02  -1.5931688e-01  -9.2766034e-01   3.5798615e-01  -1.0694162e-02   6.3213600e-01  -8.1293262e-01   8.9232439e-01  -6.3726200e-01  -1.6773033e-01  -8.4563390e-01  -8.7762071e-01  -4.7928649e-01  -2.9573943e-01  -6.7493795e-01  -9.7322077e-01   4.7049119e-01  -5.7570104e-02   6.5616501e-01  -6.7182171e-01   1.3047559e-01   7.8035149e-01  -2.6933173e-01  -8.9763736e-01   3.2216518e-01  -3.8392759e-01   5.4747694e-02  -8.1387653e-01   5.0593235e-01   9.0327933e-01  -5.7333364e-01   2.9151118e-01  -8.5248986e-01  -2.1307244e-01  -4.4584068e-01  -8.8356055e-01  -7.8069005e-01   5.3078525e-01  -1.9465719e-01  -4.9267377e-02   3.3692757e-02   8.5610750e-01   8.8155702e-01  -2.5382654e-01   5.6087279e-01   1.6190982e-01   8.2215653e-01   3.0565984e-01  -3.4008774e-01   6.6422350e-02   2.9132213e-01   5.8357561e-01  -7.8311536e-01   2.1997749e-02  -4.5635868e-02  -3.5460685e-01
  -3.6820624e-01  -5.7806645e-01   9.7289223e-01   3.8015971e-01  -6.0554401e-01  -6.6098883e-01   2.9589892e-01  -7.3795428e-01  -1.9301322e-01   4.9158809e-01   7.2527669e-01  -7.0808231e-01   2.8320299e-01  -4.3467441e-01   6.3241926e-01   3.1861015e-01   1.0247412e-01   9.3168220e-01   2.8186391e-01  -1.6422624e-01   9.7233918e-01  -6.2989099e-01   7.0404461e-01  -9.4775276e-01  -2.8550884e-01   4.9756955e-01  -8.1240442e-01   5.1618593e-01   6.1825874e-01  -8.8228022e-01   3.0850442e-01   1.8952173e-01  -8.9359524e-01   6.8167702e-01   8.7456065e-01   7.1616324e-01   8.4138082e-01   7.2823667e-01   5.5969644e-01  -4.1313896e-01  -4.6888341e-01  -7.9420261e-01  -7.8231783e-01  -8.5999652e-01   2.2280984e-01   1.3495367e-01   8.9087432e-01  -7.1821967e-01   6.3211706e-01  -6.9398218e-02  -5.6766664e-01  -5.2055385e-01  -5.8847033e-02  -6.7739129e-01  -5.7338022e-01  -3.1876516e-01   2.8227264e-02   1.0657930e-01   9.2336015e-01  -2.5493852e-01   2.3343189e-02  -4.1372886e-01  -5.2847938e-01   9.8632155e-01   2.2834123e-01  -5.8781036e-01  -9.8443917e-01  -3.3154147e-01   9.4487968e-01  -4.4251919e-01  -7.7799900e-01  -5.8555254e-01   2.6971451e-01   7.0841098e-01  -8.7954522e-01   8.8648793e-01   8.4363202e-01   8.0016203e-01  -1.2244601e-01  -9.6265762e-01  -1.8080931e-01  -1.0844423e-01  -7.9292746e-02   4.7808319e-01   5.3166758e-01  -2.0641692e-01  -5.7017367e-01   6.3839276e-01  -8.7133867e-01  -5.2558739e-01  -9.4323603e-02   2.0591567e-01   8.9254097e-01   3.2869828e-01  -6.1644717e-01   4.8071483e-01   3.1394969e-01   4.7596311e-01  -4.7700814e-01  -4.5482566e-01  -9.4540414e-01  -9.4920546e-01  -8.6417102e-01   7.0280883e-01   1.7930160e-01  -3.1893378e-01   2.7800042e-01   1.7789527e-01  -5.3319487e-02   9.0585278e-01  -2.2349627e-01   8.1501526e-01   4.2843499e-01   3.4212719e-01   5.3018041e-01   3.4262115e-01  -8.0934688e-01   3.9857685e-01  -9.2686355e-01   2.7406177e-01   8.5609947e-01   5.1094555e-01   2.1228819e-01   1.9141472e-01   4.7236638e-01   6.2082143e-01   5.9970318e-01   1.0697589e-01  -7.2307500e-01   5.2029695e-01   9.1083935e-01  -1.4731282e-01  -6.6215523e-01  -5.3197790e-02  -4.4691469e-01   9.2596118e-01   5.2917460e-01   5.8009038e-01  -4.2309501e-01  -6.7473741e-01   6.2897645e-01   5.0970387e-01  -4.7700732e-01  -7.8368873e-01   5.4108213e-01  -2.6828137e-02   9.5947336e-01  -8.3025857e-01   2.0880907e-01   4.4127002e-02  -7.0311813e-01   7.5179114e-01   1.6822837e-01  -1.1134999e-01  -2.7518023e-01   3.0599739e-01  -8.4943720e-01   6.8135916e-01  -4.2543427e-01  -2.9899805e-01  -8.1315107e-01  -1.6029964e-01  -8.9784038e-01  -2.8540289e-01   3.3974284e-01  -1.4827417e-01   4.3141266e-01   7.6580055e-01   6.5563665e-02   5.9633540e-01  -7.3812955e-01  -1.8370826e-01  -1.5009632e-02  -9.2303357e-01  -1.6421635e-01   8.9276330e-01   2.2877218e-01  -7.0384630e-01   2.2245804e-01   5.0282947e-01  -5.4994644e-01   9.2372288e-01  -4.4728333e-01   7.3927392e-01  -6.0609438e-01   6.3241680e-01  -6.9716653e-01  -5.7353645e-02  -9.7462096e-01  -2.0575152e-01   1.6912721e-01   8.1825458e-01   9.8386480e-01  -7.5576077e-01  -8.1243057e-01   9.7818996e-01  -1.6675358e-01   6.6212873e-01   8.0460758e-01  -7.8640130e-01   6.3529812e-01   5.3454179e-01  -8.8571764e-01  -4.6791599e-01   2.3164057e-01  -2.1888146e-02  -9.0640758e-01   6.6637179e-01   6.2641192e-01  -6.3044571e-02  -3.5917363e-01  -6.8501297e-01  -2.5955470e-01  -9.2148451e-02  -9.7135526e-01  -8.4138147e-01   8.2248466e-01   4.0149950e-01  -2.9588592e-01   9.3032538e-01  -7.2559197e-01  -5.6207772e-01   3.2273338e-01   6.0226099e-01  -1.0009538e-01  -4.4573362e-01  -9.4489228e-01   9.4664125e-01   6.1243157e-01  -1.6297930e-02  -2.8243299e-01  -7.8516555e-02   4.7576460e-02   5.4618562e-01  -8.5307487e-01  -9.4073818e-01  -7.7912126e-01   1.8172385e-01  -7.0964827e-01   8.2793831e-01   8.8677948e-01  -9.5789693e-02  -4.1313512e-01   9.0792866e-01   9.9783255e-01   9.1686735e-01  -4.4040538e-01  -6.9186769e-01   6.5808196e-01   9.0204778e-01   2.5101017e-01   5.4040322e-01  -3.8435473e-01   8.4764305e-01   3.4368623e-02   7.4731081e-03   1.9513873e-01  -1.7797913e-01   3.3522316e-01   5.7159908e-01  -5.2330575e-02   9.1525676e-01  -3.5188909e-01   3.1899675e-01   6.8044650e-01  -9.6391828e-01  -1.5436590e-01   7.2738998e-02   7.6212365e-01   2.3768359e-01  -1.5988641e-01   5.3779092e-01  -1.5823144e-01   2.2568304e-01   8.7776278e-01  -5.2535713e-01  -7.6773579e-01  -6.3019562e-01  -2.3526392e-01  -2.9039457e-02   2.5412972e-01   7.5402090e-01  -9.1268013e-01  -9.1768389e-01   4.9888635e-01  -7.6426982e-01  -4.1416703e-01  -3.5244576e-01   5.3732361e-01  -6.5184206e-02   6.5222698e-01  -1.0552181e-01   4.9925601e-01   4.2302555e-01   5.7175506e-01  -5.6109994e-01   1.2197247e-01   5.2963806e-01  -2.0902112e-01  -3.5574313e-01  -5.1162245e-02   9.3470804e-01   5.0756317e-01   3.2081700e-01   9.1124990e-03   7.5712203e-02   4.6017287e-01   3.2119302e-01   3.5361895e-01  -4.1210581e-01   1.4689252e-01   9.3337134e-01  -1.2271139e-01  -9.9567989e-01   3.3601585e-01  -4.3049927e-01  -7.7067227e-01  -6.8770105e-01   1.1563382e-01  -6.9994805e-01  -2.3646437e-01   2.5132049e-01   4.0169272e-02   9.4921464e-01   6.7736109e-01   5.3061494e-01  -2.9653104e-01  -4.3188170e-01   2.2386316e-01   8.9360768e-01   6.6555826e-01   3.6917878e-02  -5.1900779e-01   7.3778616e-02  -9.6724518e-01  -5.5912304e-02  -9.6531578e-01   6.9695358e-01  -8.2391423e-01   4.6380439e-01   5.4382603e-01   6.1292179e-01   9.1969982e-01  -1.2415654e-01   9.3573397e-01  -3.0436493e-01  -3.2163667e-01   9.6992411e-01  -5.8484140e-01   8.4927798e-01  -7.9530846e-02   2.2313767e-01   9.0855378e-01  -9.1129542e-01   7.3639242e-01   8.7581449e-01   9.6801689e-01   7.0051472e-01  -8.8134445e-02   3.7148269e-01   9.9846643e-01   5.9713191e-01  -5.1353246e-01  -6.3611107e-01  -5.5434355e-01  -5.6530832e-01  -7.9170352e-01   3.7764753e-01  -6.6073314e-01   1.7415591e-01   7.1285095e-01   6.5927400e-01  -5.4481592e-01  -4.0981919e-01  -3.4015115e-01  -2.0133131e-01  -4.7335218e-01  -7.7935010e-01  -4.4487465e-01  -1.2557929e-01   2.2286512e-01  -6.2332386e-01  -6.6052650e-01   9.3958957e-01   2.6996065e-01  -8.0960898e-01   8.4579978e-01   5.2911012e-01   2.6628823e-01  -9.4247290e-01  -9.1554601e-01   3.9027680e-01  -7.5362468e-01   3.8220644e-01   7.7173324e-01   7.5647076e-02   5.2491724e-01   9.3250187e-01  -3.6792010e-01   9.0606471e-01  -5.1043246e-01   3.1326719e-01   5.2968001e-01  -2.9163092e-01  -4.7186262e-01   2.6216047e-01  -1.2777284e-01  -7.4314968e-01   3.6562630e-01   9.5674328e-01   6.7118307e-01  -1.7618849e-01   7.5699391e-01   8.9935296e-01   1.9785240e-01  -5.4137912e-01  -8.9618959e-02   8.8172734e-01  -8.2878186e-01   7.9114046e-01  -8.9844569e-01   8.6985880e-01   8.4477554e-01  -4.9717338e-01   6.3307783e-02  -8.0962319e-01  -1.3404060e-01  -7.4864145e-01   2.6165070e-01  -6.5469287e-01  -2.2180261e-01  -1.1043981e-01  -2.2257132e-01   8.0725426e-02   2.0529183e-01  -3.0163668e-01  -1.0879425e-01   9.2216902e-02   4.7359768e-01  -9.0293606e-01   6.8540721e-01   1.9914509e-01  -6.7264207e-02   1.6199084e-02   9.1853157e-01   3.0898433e-01   3.0969796e-01   9.9341869e-01   3.7179452e-01  -7.7728994e-01  -8.4698392e-01  -1.9600501e-01  -8.5312736e-01  -8.5948284e-01   4.4290924e-01   6.7273662e-01  -7.2186127e-01  -4.6832536e-01   4.4746160e-01   1.0064019e-01   7.5252856e-01  -3.7991986e-01   6.9584973e-01  -5.2268587e-01  -8.4697245e-01  -4.0105770e-02  -4.7102631e-01   4.6287389e-02  -3.6340501e-01   6.0478594e-01   2.4910948e-01  -3.8732340e-01  -3.5697045e-01   5.1307115e-01   1.9519114e-01  -5.3574573e-01   9.4607479e-01   6.7190281e-01  -2.4461939e-01  -7.4892225e-01   5.3063309e-01  -7.0247780e-01   1.5313655e-01  -3.4595099e-01   9.5403384e-02  -5.1317867e-01   9.2393059e-01   8.5432259e-01  -6.1216953e-02   9.0086632e-01   5.2481375e-01   6.2688210e-01   3.3011906e-01   1.2547920e-01   8.3026219e-01  -1.2546582e-01  -3.7130605e-01   1.7971467e-01   9.9995058e-01  -2.6835022e-01   1.1430506e-03   2.0803098e-01  -5.3724726e-01  -8.1257221e-01  -8.0723780e-01   4.7691114e-01   6.9213969e-01  -4.1207665e-01   8.0132422e-01   3.2097173e-01   5.2319436e-01   2.6278677e-01  -6.8016923e-02   2.3001212e-01   7.6598140e-01  -9.1638943e-01  -3.2706098e-01   8.7425913e-01   1.9199532e-01  -6.1341289e-01   3.1285891e-01  -9.3678685e-01   1.2931416e-01  -8.4315900e-01   7.5613308e-01   8.1992699e-01  -4.7173526e-01   2.9156283e-01   2.9159615e-01  -9.9302489e-01  -7.0241382e-01  -3.6351489e-02  -3.4120482e-01  -4.6331837e-01   5.7974804e-01   2.7722245e-01   5.2966951e-01   8.2331479e-01   8.9965713e-01   7.8797081e-01  -6.2954884e-01  -7.8389351e-01   7.8393055e-01  -7.6406146e-01  -3.3211076e-01  -5.2522393e-01   8.5009079e-01  -5.7539699e-02  -7.4262604e-01   7.4514210e-03   2.3032180e-03  -2.6722480e-01  -2.0235668e-01  -7.4911170e-01   8.9727609e-01   6.7681265e-02  -7.6388078e-01   1.0887847e-01   4.8885529e-01   3.0104654e-01   9.0593549e-01  -8.1242246e-01  -7.4327297e-01   6.9365315e-01   2.6790185e-01   6.4820603e-01  -1.1722289e-01  -4.1150466e-01  -2.9208975e-01  -2.3674382e-01  -5.9356903e-01  -2.3515058e-01   7.6702389e-01   9.7812358e-02  -7.1307916e-01   5.2296656e-01  -8.4752088e-01   6.2951818e-01   3.1228054e-01  -2.0846496e-01  -3.4038977e-01  -3.7242606e-01   5.3820570e-01  -5.6699300e-01   6.2596334e-01   9.8441861e-01  -6.6010275e-01   7.4946678e-01   4.7856746e-01  -1.1657923e-02  -9.3084888e-01  -7.5051930e-01   6.5484404e-01   1.2548335e-01   8.2648370e-01  -3.0728461e-01   8.2939800e-01  -1.4477284e-01   4.7182852e-01   2.6370372e-01   4.8456797e-01  -6.9307374e-02   4.6178424e-01   2.3577906e-01  -5.1183746e-01  -7.1447967e-01   5.9419301e-01   7.2919997e-01  -7.8902098e-01   1.4952867e-01  -7.9825153e-01  -5.9489071e-01   1.4859443e-01  -7.6172791e-01   8.9502287e-01   6.8790172e-01   7.0486283e-01  -5.9144313e-01   2.7560546e-01   3.1348241e-01  -1.5231311e-01  -5.4367440e-01   2.9394464e-01   9.2544689e-01  -2.2562198e-01   1.7325758e-01   8.3146081e-01  -8.5371806e-01  -2.6477935e-01  -5.3123949e-01   8.6439154e-01   1.3775703e-01   2.5020257e-01   9.3574144e-02   9.5879482e-01  -5.9164604e-02  -8.1902643e-01  -5.6540913e-01  -7.9594151e-01   5.3303008e-01   5.1672265e-01  -8.6335051e-01  -8.4524658e-01  -8.2769115e-01   6.9233199e-01   5.1118600e-01   6.7797806e-01   7.1261692e-01  -7.2924168e-01  -2.0685683e-02   5.6633841e-01  -1.1402686e-01   2.4823201e-02  -6.8126118e-02  -4.5510939e-01  -3.3219721e-01   3.0960452e-01   7.5312989e-01   2.3057482e-01   7.1880286e-01  -8.1065875e-01   6.1388949e-02  -4.2548638e-01  -5.2993561e-01  -6.7349197e-01  -8.4143251e-01   6.8866048e-01   4.1656731e-02   2.0939043e-01   7.0191949e-01  -6.7317591e-01   6.9687300e-01  -6.1977521e-01   8.2799632e-01   5.1287245e-01   1.9654092e-01   2.8301341e-01  -8.3284045e-02  -6.6691686e-01  -4.2618456e-01   5.1231126e-01   3.6419739e-01   4.3299448e-01   3.5645169e-01   8.5927662e-01  -7.7449900e-01   6.4669645e-01   2.3016511e-01  -2.4338322e-02   1.6723574e-01   1.1513657e-01  -6.9495580e-01   6.9460772e-01   7.9563862e-01   8.2511955e-01  -9.8925399e-01  -9.3065115e-01   5.2322425e-01  -2.0224186e-01   2.3188923e-02  -4.1527478e-01   4.7230189e-01  -4.6847603e-01   1.4447999e-01  -3.9359962e-01  -2.2574523e-01   8.8054130e-01  -2.7260296e-01  -2.5072767e-01  -5.7620120e-01  -3.0403037e-01   3.2848400e-01  -5.5059521e-01  -9.3733369e-01   9.4217621e-01  -6.6704020e-01  -7.4355722e-01   8.1061281e-01  -8.3211719e-01  -2.0739125e-01  -2.5936506e-01  -8.4296537e-01   7.0698365e-01  -2.4345487e-02  -3.4705352e-01   6.2193404e-01   6.7154770e-01   6.2097769e-01  -2.4496805e-01  -6.4774918e-01   4.7903097e-01   6.6722438e-01   2.2858831e-01   1.8290846e-01   1.5789027e-01  -6.4259846e-01   3.8485209e-01  -9.2507504e-01   6.4813259e-01  -9.4900699e-01  -4.0092753e-01   1.1881824e-01  -4.5727594e-01  -9.3620328e-03  -8.8052987e-02   4.5235631e-01   2.9762827e-01  -5.0580546e-01  -3.2985958e-01  -4.0732179e-01  -5.2236036e-01   1.0168879e-01  -1.1478718e-01   3.9286206e-01  -6.1125579e-01  -3.9105033e-01  -8.7370118e-01   9.6479055e-01  -8.9295055e-01  -7.5962978e-01   3.1292980e-01  -5.5701795e-01  -3.0712836e-01  -9.8591375e-01  -4.2387028e-01  -3.9730887e-01  -9.6555643e-01  -2.0032603e-01   7.9234213e-01  -4.6858115e-01   1.3467525e-01  -9.6105281e-01   9.8565119e-01  -6.1846079e-01   6.9383565e-01  -9.9019379e-01  -8.4877870e-01  -5.9826038e-01  -5.8940786e-01   4.6111695e-01  -5.4710047e-01  -7.9962725e-02   8.9827064e-01   3.0664678e-01   5.0087633e-01   3.8054923e-01   6.1463598e-01   8.6628780e-02   8.2290140e-01   9.0503793e-01   5.0716284e-01  -1.7142914e-01   3.7580581e-01   7.9240586e-01  -2.5693129e-01  -9.6508343e-01  -3.3897478e-01   1.8245822e-01   8.6651145e-01   5.5265458e-01   1.2218630e-01   2.1602248e-01   8.7321569e-01   1.9937320e-01   2.2361125e-02   9.7786805e-01  -1.0772089e-01  -2.5703091e-01   7.1343016e-01  -2.7671402e-01   3.7314849e-01   7.0004642e-01  -4.7344704e-01  -7.9088821e-01   8.2994785e-01   6.2922904e-01  -4.1346639e-01  -4.6761139e-01   5.1455410e-01  -8.5306953e-01   9.5513748e-01   1.1860021e-01   8.2459224e-01  -6.2688265e-01  -7.3470277e-01  -5.1474835e-01   9.4770438e-01   5.5859805e-01   9.1847590e-01   9.3597994e-01  -9.9452729e-01   9.1278012e-01   8.3084093e-01  -9.3040537e-02   8.3365672e-01  -5.0097307e-03   5.3918287e-01  -3.9819664e-01  -4.8856616e-01   8.3674611e-01  -6.5562190e-01  -5.5248981e-01  -6.4020749e-01  -3.6398610e-01   7.9913113e-01   3.7201439e-01  -7.5584531e-01   5.2996099e-01  -1.9448780e-01   3.4735824e-01  -6.2596373e-01   9.2416356e-01   7.6663749e-01   4.6808145e-01  -4.5062705e-01  -5.4627345e-01  -6.3582524e-01  -1.3836685e-01  -3.5769429e-02   9.6845278e-01   6.3748884e-01   6.2721774e-01  -5.6589559e-01   8.5403076e-02  -5.2584919e-01  -1.3006416e-01   6.8886152e-01  -3.9783628e-01   5.2104012e-02   5.2942603e-01  -2.1968685e-01  -9.7186824e-01  -8.1484200e-01   5.8583944e-01  -1.1586685e-01   4.0693187e-01  -8.0334063e-01   3.0626555e-01   6.5998576e-01  -6.5904000e-01  -8.8442569e-01   5.4778532e-01  -5.8038548e-01  -6.3660157e-01   7.9397124e-01  -1.0365802e-01  -4.8834524e-01   8.4069653e-01   4.2042342e-01  -5.4116380e-01   7.5332657e-01  -4.2335286e-01  -1.5932976e-01   8.8125148e-01   8.5000451e-01  -9.9870650e-01  -5.1062098e-01  -5.1801847e-01   7.6830370e-01   2.1077096e-01   5.0046225e-01   7.8104757e-01   1.6090138e-01   5.9939135e-01   3.0900399e-01   2.8738373e-01  -7.4565724e-01   8.2034907e-01   3.2367266e-01  -4.7843625e-01  -1.7784981e-01   7.2914836e-01   7.7465933e-01  -6.5595178e-01  -8.8965747e-01  -6.2548099e-01  -8.5041078e-01  -7.4409919e-01  -7.2705142e-01   4.4240727e-01  -6.9229743e-01   8.0707593e-01  -5.9378874e-01   1.7002748e-01  -7.2808399e-01  -1.3118012e-01   7.5920818e-01   6.1642520e-01   5.4197502e-01  -3.0236810e-01   3.1032693e-01  -2.5521718e-01   7.5777646e-01   4.4943747e-01  -9.0591147e-01   5.4960623e-01  -5.3851081e-01   2.4262141e-01  -1.5931000e-01   9.1449264e-01   7.5399969e-01   9.5044953e-01  -5.1833083e-01   2.6027074e-01   3.8457170e-03  -5.7978293e-01  -3.8546557e-01  -2.1216643e-01   6.4864713e-01   3.5879963e-01  -3.5752159e-01   1.6243976e-01   6.0294442e-01   3.9868726e-01  -8.3393212e-01   8.0450943e-01   1.9642137e-02  -3.1383753e-01  -6.9927739e-01   4.7993802e-01  -6.1920997e-01   1.8721438e-01  -9.3586175e-01  -8.5321509e-01  -1.5522243e-01   8.8910001e-01  -8.9914022e-01   4.8798381e-01   7.5287857e-02   1.1009263e-01  -1.7913323e-01  -1.3886162e-02  -5.0733871e-01   8.0506274e-01  -1.9099818e-01   3.5085052e-01   1.1968280e-01  -4.5932881e-01   3.8737441e-01   3.5858912e-01  -2.2705206e-03   2.4177931e-01   8.6859169e-01   6.7861873e-01  -5.5364979e-01  -5.5294008e-01   7.8712246e-01   4.7067126e-01   6.5003085e-01   9.2776655e-01   5.3619495e-01  -8.1947420e-01   3.4461978e-01  -3.8238394e-01  -6.9334880e-02   7.8344143e-01   5.8359386e-01  -3.4891331e-01  -5.2383271e-01  -9.3629598e-01
  -9.1925424e-01  -6.1464167e-01   2.7275108e-01  -8.3564983e-01   5.9219757e-01  -9.6054008e-01   4.0402111e-03   9.4136713e-01  -5.2101597e-01   4.8288896e-01   7.9990174e-01   5.5287972e-01  -2.5147749e-01   4.6246035e-01  -7.0463514e-01  -6.3172191e-01  -6.7930171e-01  -2.3215676e-01   7.4348795e-01   2.8344846e-01  -4.3100069e-01   7.0629023e-01   2.1178864e-02  -4.5060909e-01  -7.7252901e-01  -9.5461470e-01   3.5471881e-01  -6.1314918e-01   2.7009195e-01  -6.2765541e-01  -4.5393962e-01   2.0135005e-01  -1.1022401e-01   7.9886770e-01   4.0106264e-01   8.1096654e-01  -9.8390694e-01  -5.4658552e-01   7.2730721e-01   3.7156127e-01  -3.1783824e-01  -2.1291336e-01  -3.7619191e-01   5.8874061e-01  -6.4684345e-01   1.9793085e-01  -4.2844534e-01  -6.3656590e-01   3.2737741e-01  -7.8216006e-01  -9.1847980e-02   6.2296998e-01  -1.4236064e-01   3.1879020e-02   6.1645337e-01   9.4589956e-02  -8.7510155e-01  -4.3895893e-01  -7.5675750e-01  -8.7590331e-01   2.5736878e-02   9.8195353e-01   2.7804281e-02  -4.6647585e-01   7.7774918e-01  -9.5227504e-01  -7.1374554e-01  -9.2658718e-01   5.0395086e-01  -6.5678535e-01   5.2430963e-01   4.3642855e-01  -4.6313315e-01   8.3054115e-01   2.6087724e-01  -3.4023272e-01   6.5040961e-01  -8.2731811e-01   4.3137371e-01   3.2063480e-01  -5.0163795e-01   5.9460161e-01  -1.6207892e-02  -7.3387037e-01   3.3566976e-01   7.1650940e-01  -5.7101381e-01   3.0875284e-01  -1.6030798e-02   9.4899144e-01  -6.8942091e-01  -5.1435041e-01   8.2247791e-01  -2.1028712e-01   4.8726545e-01   4.2741135e-01   7.8340303e-02  -2.6629776e-01   6.3825891e-01   5.3144317e-01   6.8262565e-01   8.9362884e-01  -3.6554822e-01  -7.2130303e-01  -6.2715334e-01   5.4533647e-01   6.1582533e-01   3.3748392e-01  -8.0779021e-01  -3.2651929e-01   2.2118486e-01   7.2542656e-01  -3.4935536e-01   6.7465996e-01   5.9508289e-01  -8.3264059e-01   3.3835453e-01   1.2808068e-01  -1.0898528e-01   2.2972902e-01   2.7738682e-01  -7.0257317e-01   1.5340278e-01   2.6790568e-01  -3.8273778e-02   9.1506145e-01  -4.4832061e-01   9.3035597e-01  -6.4886701e-01   7.5036835e-01  -6.1812337e-01   6.7919103e-01   3.0591196e-01  -8.9393537e-01  -8.9038987e-01  -7.6774633e-01  -8.1419863e-01  -9.7966172e-01   6.8055387e-01  -9.7094082e-01  -9.3307648e-01  -9.3925004e-01   9.0656812e-01  -1.4772644e-01  -4.7131547e-01   1.7680409e-01  -9.3999837e-01  -9.6450646e-01  -2.1738977e-01  -9.1256119e-01   9.1227243e-01  -3.0126213e-02  -5.8477103e-01  -1.7798503e-01  -1.1851295e-01   3.2504029e-01   2.3457894e-01  -9.0167469e-02   9.7835760e-01  -3.6719015e-01  -9.3456328e-01  -7.9364450e-01  -3.0697357e-02  -7.9554427e-01   4.6878334e-01  -6.1387644e-01  -3.8130335e-01   2.1772991e-02   3.2051431e-01   8.0411649e-01  -6.4870678e-01   6.3646978e-01   8.1289792e-01   5.5645163e-01   5.1075495e-01  -7.9003363e-01   4.8928213e-01  -5.8625392e-01   9.7321736e-01  -8.7332815e-01  -6.6742820e-01   9.2529135e-02  -3.3295585e-03   7.6042838e-01   9.8293053e-01  -2.0320975e-01  -6.7476697e-01  -1.5540768e-01   6.5296805e-01  -4.3449174e-01   7.0246798e-01   2.9011656e-01   8.2809265e-01  -9.9889923e-01   5.4729438e-01  -2.7527542e-01   7.4480457e-01  -1.7936473e-01   7.4754898e-01   6.0444003e-03  -6.2818295e-01  -9.4510082e-01   9.6075355e-01  -4.5327756e-01   2.6958297e-01  -4.3883186e-02  -2.1887727e-01  -4.4791904e-01  -4.5087346e-01  -8.9323798e-01   5.1982464e-01   5.7808747e-01   2.0488514e-01  -6.6486020e-01  -2.7468225e-01  -5.6605569e-02   4.2919560e-01   3.8274684e-01   6.6392694e-01   7.8981454e-01   3.3890483e-01  -3.6815817e-01   2.0548293e-01   2.8549615e-01   5.7216828e-01  -2.6813930e-03  -8.7635976e-01   2.2328123e-01  -2.6532099e-01   4.9586837e-01   9.0464663e-01   6.9864928e-01  -5.3655713e-01  -5.0545250e-01   3.0542647e-01  -2.2703666e-01  -6.6725708e-01   8.8950503e-01   7.9960372e-01   7.2001227e-01   8.4559724e-01   9.6712405e-01  -2.1685131e-01   8.7287117e-01  -7.8976322e-01  -4.2206793e-01   2.6450812e-01  -7.2249564e-01   7.6138396e-01   3.8995177e-01  -8.4605151e-01   3.1482765e-01   9.4521083e-01   1.4769690e-01   8.9232588e-01   4.3110868e-01   2.6510027e-01  -8.4186561e-02   4.7077727e-01  -4.6331843e-01  -9.4817923e-01   9.0255708e-01  -4.7578739e-01  -4.7189568e-01  -9.5808762e-02   7.3278423e-01   7.9884440e-01  -2.9451043e-01   2.2102939e-01  -1.4395328e-01   2.6323740e-04   6.4290426e-01  -5.1591792e-01   5.9563693e-01  -3.9020871e-01  -3.6651924e-01  -2.5479500e-01  -7.0953897e-01  -4.9550203e-01  -8.1791748e-01   9.3319864e-01  -8.6831385e-01  -9.3894669e-01   2.8930089e-01   3.8993095e-01   9.0919780e-01   1.3136594e-01  -8.1087240e-01  -8.2605342e-01   9.9695591e-01  -1.2669988e-01   9.2308763e-01  -1.5233190e-01  -5.1678757e-01  -1.8693937e-02  -1.9610364e-01  -1.1935264e-02   3.9852612e-01  -8.8076314e-01   4.1247923e-02  -1.0913424e-01  -2.4258401e-01  -1.0327756e-02  -9.5382329e-01  -4.0223722e-01   2.1870934e-01  -7.4327208e-01   5.3993295e-01   2.3364912e-01   8.5912254e-01  -3.9653036e-01   7.4220879e-01   2.8075487e-01  -6.3992078e-01  -5.5348775e-01  -5.6395246e-01  -4.2370314e-01   8.6731510e-01   5.4432840e-01   6.4600619e-02  -6.4418898e-01   2.4821827e-01   8.3155865e-01   4.7075373e-01   7.3195247e-01  -5.0694785e-01  -4.6220490e-02   1.6635169e-01   6.8792015e-01  -4.5418929e-01  -8.6285373e-01   4.8389403e-01   2.1850838e-01  -8.7630118e-01   8.2243129e-01  -5.0312546e-01  -3.7555791e-01   5.5850457e-01   6.5712023e-01  -6.0060773e-01   6.8093111e-01   9.7990315e-02  -5.0358296e-01  -3.5602730e-01  -5.5349441e-01  -6.2274765e-01  -3.1792643e-01   4.3966332e-01  -1.3945925e-01  -9.5125259e-01   1.9973279e-01   3.2056082e-01   4.3686559e-01   2.1569837e-01   2.5119418e-01  -8.1573503e-01   6.7154987e-01  -4.2645372e-01  -1.8769137e-01  -2.4210375e-01   4.1131422e-01   2.2740421e-01  -1.1580645e-01  -9.6733443e-01  -2.0675376e-01   4.2736070e-01   9.2095983e-01  -6.1688521e-01  -7.1983321e-01  -5.8822944e-01  -2.5355025e-01   6.7257329e-02  -3.1973558e-01  -6.9204957e-01   4.6743793e-01  -6.6195240e-01   6.2388285e-01  -1.4437535e-03  -5.8168475e-01  -7.8473376e-01   8.9878999e-01   8.7497611e-01   7.6921720e-01   4.3676065e-01  -1.4150713e-01  -2.5809825e-01   2.6973954e-01   7.6852461e-01   8.7860663e-01  -1.2426325e-01   4.7058924e-01  -5.9267037e-03  -3.0822056e-01   2.1201793e-01  -4.1051599e-01  -9.5407223e-01  -7.4591045e-01  -6.1738020e-01   7.9786801e-01   8.1625536e-01   2.9675614e-01  -5.7663275e-01   3.4913802e-01  -3.8143095e-01   1.3098844e-01   4.8839238e-01  -7.7221563e-01  -2.3616977e-01  -8.2133650e-01  -2.0994004e-01   6.6274449e-01   8.5540009e-01   8.8323102e-01   4.6685093e-01  -1.9963646e-01   9.3941301e-01   2.7171010e-01   8.8024207e-01   5.1527302e-01  -7.5847079e-01  -5.5172905e-01   8.2824799e-01  -9.7042695e-01   2.5657694e-01   4.6176943e-01   1.6346162e-01  -6.6177634e-01  -7.7206021e-01   1.5668443e-01   9.0415340e-01   5.8348128e-01   9.8183876e-01   5.3405344e-01   9.5818669e-01   4.4000071e-01  -2.9876177e-01   3.7174303e-01   4.4155893e-01  -5.6021634e-01   6.6312510e-01  -8.9630336e-01   3.9749945e-01  -8.7342892e-01   9.5164662e-01  -7.7917215e-01   7.6003745e-01  -6.4292024e-01   8.8265649e-01  -8.3558036e-01  -6.3433296e-01   2.7253958e-01   8.2023808e-01   3.6039621e-01   5.5633378e-01   5.2986139e-01  -3.8858732e-01   5.7260436e-01  -6.2216671e-01  -8.0272143e-01  -9.8479353e-01   3.8757029e-01  -3.1069199e-01  -2.1948600e-01   5.0670685e-01   3.9338287e-01   9.0135286e-01   9.1688200e-01   7.7741575e-01  -7.4182596e-01  -6.9906787e-01  -4.7592643e-01   8.3616705e-01  -4.7658806e-01   3.4688993e-01   3.8182569e-01   4.0013279e-01   7.9393411e-01   7.6710177e-01  -2.3770628e-01  -4.5275369e-01  -9.1272185e-01   1.4420169e-01  -4.6342643e-01   2.9607237e-01  -9.6962664e-01   8.8616539e-01   7.7213036e-01   6.2313384e-01   5.5123474e-01   3.9669185e-01  -5.2485376e-02  -1.5515067e-01   8.9860283e-01  -5.7551593e-01   3.5072232e-01  -3.1085926e-02  -4.0240780e-01   8.4416555e-01   3.5553811e-01  -5.1589540e-01   9.5705855e-01   3.3230945e-01   4.4382540e-01   9.6646391e-02   7.5375310e-01   7.6606809e-01   6.5567148e-02  -1.8379893e-01  -4.6819011e-01  -9.8351839e-01  -7.7895021e-01  -7.2018882e-01   4.5747920e-01   3.9840445e-02   9.6593570e-01   3.8269855e-01   6.2144485e-01   8.7256436e-01   1.5984997e-01  -3.2826646e-01  -6.3119591e-01  -4.2812250e-01  -8.5235634e-01  -2.6139296e-01  -4.7374572e-01   3.1447301e-01  -5.3374684e-01  -3.2439776e-01  -1.3476936e-01   2.6370570e-01  -5.0390503e-01  -8.9856586e-01  -8.3460334e-01   7.8241654e-02  -2.8940579e-01   6.4196122e-01  -9.2706710e-01   9.1142575e-01   8.7478094e-01  -7.2459812e-01  -3.1878172e-01  -1.3668738e-01  -8.0395948e-01   5.3375853e-01  -2.2806046e-01  -4.1563586e-01  -8.7397722e-01   4.2091544e-01  -6.7752056e-02   6.2405202e-01  -4.1062652e-01   2.2995239e-01   6.1437435e-01  -4.0811767e-01  -1.1051695e-01   9.7464150e-01   8.4385628e-01  -7.6964581e-01   6.5003687e-01  -5.4829322e-01   9.8961949e-01   2.8354107e-01  -6.5902671e-01   1.2147880e-02  -8.0125816e-01  -3.4369855e-01  -7.5669157e-01   1.6213378e-01  -5.0288203e-01  -7.5226874e-01   7.7696464e-01  -4.7180493e-02   1.4610614e-01  -4.2833747e-02   9.5707142e-01   6.3542212e-01   3.7373599e-01   4.2238512e-01  -6.8498472e-01  -3.4710378e-01   3.4985207e-01  -9.7101231e-01  -9.6110327e-02  -5.3370447e-01  -1.4604402e-01  -7.0444120e-01  -9.4556870e-01   6.4093847e-02   2.2379377e-01  -3.7482309e-01   5.8787859e-01   8.3154476e-01   6.3308173e-02   4.7816969e-02  -5.3865395e-01  -2.4813357e-01   9.1200041e-01  -4.4884565e-01   3.5564933e-02   2.2150793e-01   2.1645165e-01  -3.9892531e-01  -9.3487491e-01  -8.9520989e-01   1.0429707e-01   4.4805784e-01  -6.9944466e-01   7.1634602e-01   5.3515755e-01  -4.0709166e-01  -8.6454146e-01  -3.9483432e-02  -9.8745260e-01  -7.7334114e-01  -8.7615169e-01  -1.2705101e-01  -4.3582259e-01  -4.1977231e-01  -6.6520920e-01  -9.2065169e-01   8.0910398e-01  -4.3743845e-01   9.8590536e-02   9.5104620e-01   6.6040114e-02   9.0248037e-01  -5.5299273e-01  -8.4023879e-01  -9.0928241e-01  -6.2223584e-01   8.3142075e-01   7.0957289e-01  -6.9976550e-01  -2.8382554e-01  -5.3425776e-01  -5.7127289e-01   7.9620845e-02  -3.9366138e-01  -4.1743084e-02   5.7633667e-01   6.4870228e-01   2.4333233e-01  -2.4795968e-01   8.5895790e-01   4.6389660e-01   8.1071559e-01  -6.0605380e-01  -8.4712326e-01   4.7529062e-01   3.3251473e-01  -8.4406086e-02   4.4564710e-01   2.9431550e-01   4.2865334e-01   5.7647869e-01   8.7628959e-01  -4.0426327e-02  -7.5267571e-01  -5.4664183e-01   3.5428092e-01  -5.2147274e-01   2.1463661e-01  -3.1735204e-01  -3.2053675e-01  -1.7109362e-01   9.7081872e-01  -3.7254950e-01   8.8666973e-01  -9.2882316e-01   7.4173185e-01   4.7281355e-01  -2.7160132e-01   2.0675160e-01  -1.0843290e-01   6.5288500e-01   8.8932220e-01   4.0472495e-01  -5.6369457e-01   4.3098628e-01  -3.8226630e-01   3.9310995e-01  -3.9291193e-01   5.9583629e-01  -9.4211062e-01  -5.4753924e-01   3.8674787e-01  -1.8370073e-01   3.0045505e-01   9.9854490e-01  -9.3975162e-01  -5.3130505e-01   9.8607210e-01  -7.2664291e-01  -8.1487859e-01  -1.1740125e-01   1.7717893e-01  -7.1618593e-01  -7.8257384e-01  -7.7420602e-01   1.2145376e-01  -1.9675830e-01  -7.6584015e-01   2.3362255e-03   9.8265570e-01   7.6270997e-01  -9.6966701e-01   3.8008256e-02  -3.7589984e-02  -4.0434457e-02   9.0279797e-01  -1.5392662e-01   1.4104268e-01  -4.7321564e-01  -9.2025827e-01  -3.2668881e-01   7.5801837e-01   8.9300732e-01  -6.5207914e-01   3.1586488e-01   6.6445466e-01   7.5929250e-01   7.3178562e-01   6.7808853e-01   9.0292600e-01   6.1879359e-01   6.0875634e-02   5.6300888e-01   1.6347955e-01   9.0823962e-01  -7.0695814e-01  -6.1242329e-01  -2.9814624e-01  -2.6460783e-01  -1.1209040e-01   5.6709034e-01  -3.5744984e-01  -1.8085094e-02  -3.6211104e-01  -8.2218469e-01  -7.9941431e-01   2.3093490e-01   3.4216860e-01  -4.8648781e-01   5.9501754e-02   9.0505210e-01  -2.6794197e-01  -7.2552195e-01  -4.6242536e-01   4.9687596e-01  -7.9569146e-01   2.3651806e-01  -2.6090727e-01  -1.3182990e-01   7.8455312e-01  -5.8454006e-01  -2.6090142e-01  -6.0326414e-01   4.5338922e-01  -3.5724462e-01   2.9264450e-01   9.5041306e-01   2.3244243e-01   8.6473493e-02  -4.6550061e-01   3.7762617e-01  -9.8643879e-01   4.3581066e-01  -3.4474405e-01  -7.0945561e-01   1.4378307e-02  -6.9918039e-01  -7.0374509e-02   5.3648789e-01  -7.1492804e-01  -4.6602936e-01  -7.3898296e-01  -7.5580490e-02  -6.4045437e-01   6.0039115e-01   7.2234775e-02   5.0143622e-01   9.5416336e-01  -2.3973267e-01  -4.9519657e-01   1.0466816e-02   6.9079920e-01  -7.3528807e-01   3.8917528e-01  -9.6954940e-01   4.4654121e-02  -6.9513662e-01   7.7981102e-02  -7.3650135e-01   8.1963718e-01   6.7742688e-01  -7.3965743e-01  -7.8015167e-01  -3.4097478e-01   1.5720429e-02  -4.1711179e-01   2.7652517e-01  -8.3057599e-01  -9.3938125e-01   7.2749782e-01  -7.8457476e-01   4.6197677e-01   2.4515977e-01   6.4209028e-01   8.3912765e-01   1.2454341e-01   4.1965681e-01   9.7020430e-01  -3.9928200e-02   5.5601799e-01  -8.3953012e-01   8.6077816e-02   7.2475306e-01  -9.7067887e-01   6.4129668e-01   7.6952890e-01  -1.0624349e-01   2.6737648e-01  -5.7146602e-01   7.6979521e-01  -4.3219928e-01   2.6644952e-01   3.7280340e-02   3.2876046e-01   2.6948306e-01   7.3762896e-01  -2.1084675e-01  -9.4884120e-01  -9.1497994e-01   6.1090745e-02   1.1693547e-01  -7.1475419e-01   6.3636521e-01  -6.5494332e-01  -7.8455318e-01  -9.4574328e-01   8.9264750e-01   6.3795728e-01  -3.6760530e-01   3.4476375e-01   4.7661872e-01  -3.5949891e-01  -1.8404759e-01   8.1884929e-02  -7.4836509e-01  -9.1911329e-01   6.9691326e-01  -9.1754438e-01  -1.6753591e-01  -5.6670022e-01  -7.1595813e-01   5.1304162e-01  -9.9978003e-02   4.2424772e-01   5.5207292e-01   3.6071348e-01  -8.1403622e-01   8.2838087e-01  -7.3382013e-01   8.7388607e-01   3.8724464e-01  -3.7713343e-01   5.1793682e-01  -2.4302431e-01  -2.4428435e-01  -9.8351861e-01   2.6360672e-01   2.0802525e-01   8.1567544e-01   1.7213178e-01   2.7436067e-01   2.9731910e-01  -5.7154819e-01   2.3372853e-01  -3.9974645e-01  -8.5616175e-01   5.9905136e-01   3.2817918e-02   2.1825514e-01   6.5628143e-01  -9.7631799e-01   9.9632044e-01   9.0230210e-01  -3.7618775e-02  -8.1855324e-01   3.6266595e-01  -3.7210048e-03   6.8042245e-01   2.3800823e-01   9.8981958e-01  -1.8344602e-02  -1.6461351e-01   8.6091921e-01  -2.8207294e-01   3.3195864e-01  -2.2671904e-01   3.0048213e-01   1.2920452e-01   1.6546154e-02  -3.2262700e-01   5.2390916e-01   8.2641227e-01   8.6766246e-01   3.4959169e-01  -5.4776335e-01  -2.7252202e-01  -7.1790715e-01  -5.6540633e-02  -9.1563925e-01   2.3340219e-01  -2.8411483e-01   4.5218581e-01  -1.4703365e-01  -9.6596157e-01   5.4135596e-01   9.7002935e-01  -4.3010091e-01   2.2308068e-01  -8.7470369e-01   4.8104812e-01   9.7726495e-01   2.7366660e-01   9.9225776e-01  -8.6916334e-01  -4.6591330e-01  -2.8116076e-01   3.5545899e-01   4.9442781e-01  -7.4864604e-01   4.3422244e-01   5.2745307e-01  -5.5085543e-01  -1.4730136e-01   7.4076429e-01  -3.5893036e-02   5.9694365e-01  -2.8938902e-01  -1.3968848e-01   7.3303031e-01  -5.1592698e-01  -1.7031746e-01   1.5056266e-01   9.0967005e-01   4.6002284e-01   7.6173056e-01  -8.3113440e-01  -7.0786262e-01   9.8784207e-01  -9.2494573e-02  -7.7927574e-02   9.8988906e-01   9.9630792e-01   3.4104620e-01   5.6914148e-01  -9.5082466e-01  -2.6975326e-01  -2.0604190e-02   1.8110829e-02  -7.3598805e-01   7.1578244e-01   9.4808063e-01  -6.6551441e-01  -5.9922056e-01   9.6819202e-01  -4.9528976e-01  -5.3816426e-01  -7.8694779e-01  -9.8769548e-01   9.7213475e-01  -8.2715080e-01   5.4996016e-01  -7.0592776e-01   1.3552199e-02  -9.2506846e-01   4.4283295e-01   1.8246550e-01   5.8037443e-02   3.2603340e-01  -1.0624575e-01   3.2650841e-01   3.4658230e-01   6.0235672e-01  -4.2576463e-01  -4.8606482e-01  -6.3088021e-01   4.9548889e-01   4.3603807e-01  -3.4029222e-01   3.8519187e-01  -8.3467015e-01   5.9254633e-01   5.5733258e-02   6.4954226e-02   7.1821562e-01  -8.0614587e-01   9.0394663e-01
   9.3467097e-01   9.4086339e-01  -4.3455637e-01  -4.4855264e-01  -3.3280097e-01  -7.0975450e-01   5.7128324e-01   1.7651826e-01  -1.8328321e-01   4.1107491e-01   9.4722154e-02   7.7944025e-01   2.4193162e-01  -1.2645281e-01  -9.5756440e-01   5.4744293e-01   1.5830012e-01   2.9489975e-01   4.6825078e-01   2.4723386e-01   3.3100520e-01  -5.1299637e-01   7.8302977e-02  -6.9080016e-02  -1.4788116e-01  -4.1991407e-01   1.4056498e-01   2.5259313e-01   2.1945565e-02  -1.9227089e-01   1.1524002e-01   1.8351021e-01   5.2930790e-01   4.0166229e-01  -1.3739988e-01  -7.1482947e-01  -4.9643971e-02   7.2210827e-01  -3.1117125e-01   9.7472059e-01  -6.1810033e-01  -8.2357797e-01  -3.0607871e-01   4.0886695e-01  -7.6848447e-02   7.2342417e-01  -6.8567632e-01  -2.4194699e-01   3.5737468e-01  -4.5284567e-01   8.3128393e-01   6.6853500e-01   9.4465114e-01   7.5699836e-01  -3.9093700e-01   5.9309126e-01  -1.1206816e-02  -8.6488655e-01   1.2551548e-01   9.5544552e-02  -4.2736634e-01  -8.8290568e-01  -8.3318284e-01   4.5913353e-01   4.8488032e-01  -4.5612877e-01   9.8609870e-01   2.0734666e-01   7.2293661e-02  -3.8506097e-01  -3.0937151e-01   3.8973126e-01  -6.6244854e-03   2.8322404e-01  -8.3136131e-01   1.3694377e-02   3.6107562e-01  -9.7455353e-01  -8.2736173e-01   1.6955343e-01   4.0233393e-01  -5.2729419e-01   1.4402434e-01   7.9768833e-01   5.8158407e-02   9.3367402e-01  -5.9736202e-01  -3.6643946e-01  -7.1090134e-01  -1.2886019e-01   4.7751121e-01   7.8171445e-01   7.8914449e-01  -7.4474466e-01   8.8160134e-01   9.4337303e-01  -8.0486777e-01  -7.7984762e-01  -3.5328019e-01   3.8774482e-01  -9.7271292e-02  -9.7391303e-01   5.1102498e-01  -1.8663887e-01  -9.2188421e-01   6.4792998e-01  -2.6613774e-01  -8.2629495e-01  -5.0958007e-01  -8.1212843e-02   7.6441251e-01  -2.3035085e-01   3.1750233e-01   6.0044615e-01  -4.7523661e-01  -8.0179126e-01   7.7662869e-02  -3.3163634e-01  -5.7663939e-01   2.9027512e-01   8.4238195e-01  -7.9431278e-01  -5.6356678e-01   9.9415630e-01  -7.3608661e-01  -4.8050822e-01  -9.2420825e-01  -3.5506316e-01  -1.3174335e-01   4.8375700e-01   3.9933530e-01  -2.4806268e-01  -1.7638079e-01   7.0124820e-02   9.3354824e-01   3.8436750e-01   2.2019254e-01  -2.1585201e-01  -9.9288659e-01   1.1967380e-02   8.8452080e-01  -7.6694207e-01  -6.5299777e-01  -4.2816196e-01   1.3706075e-01  -7.5653435e-01  -6.9697306e-01  -7.8202108e-01  -6.7916648e-01   6.8131554e-02   7.7231867e-01   7.0405319e-01   2.1820134e-01   7.0499770e-01  -9.8670261e-01   5.2349597e-01  -5.4632562e-01   6.0794395e-01   3.4656182e-01   3.1413233e-01   5.7304010e-01   7.3222409e-01  -8.1234824e-01  -5.1784613e-01  -9.8429924e-01   6.9229706e-01   2.1688617e-01   7.9037082e-01  -7.7732610e-02   6.7830543e-01   6.9129478e-01   2.5926952e-01   4.6197600e-01  -7.1867368e-02   8.1621455e-01   6.9641175e-01   8.1350765e-01  -2.4652088e-01  -4.4333142e-01  -9.7502282e-01   4.7247916e-02   5.9140612e-01  -2.9466625e-01   7.7721297e-01   8.0558152e-01   7.4946035e-01   4.1454309e-01  -6.3500388e-01  -3.5121149e-01   6.3538102e-01   1.3980318e-01  -7.6298795e-01   1.7502411e-01  -3.7976455e-01   9.3916464e-01   4.5596750e-03   2.6439122e-01   3.2265692e-01  -5.2099197e-01   1.5607125e-01   2.1480924e-01  -8.6843248e-01   6.2972251e-01   9.3752636e-02   8.7971402e-02  -1.2240077e-02  -4.2676739e-01   9.7547891e-01  -5.9304018e-01  -3.7516832e-01  -3.6158162e-01   3.5701998e-01   9.3325414e-01   5.5194679e-01   2.0389796e-01   4.4129270e-01   4.9522705e-01   8.1955396e-01   1.9042673e-01   8.1993344e-01   9.6594946e-01   8.8699519e-01   1.0736102e-01   2.5645774e-01  -9.2566214e-01   7.4545727e-02  -3.9723293e-01   7.3213668e-01   5.0768201e-01  -6.0587537e-01  -9.6822318e-01   4.6712876e-01   5.9027607e-01  -6.9580561e-01  -8.5512616e-01   9.1951506e-01   1.4165167e-01  -4.4337115e-01  -5.1628859e-01   9.3861653e-01   6.1916089e-01  -9.3456834e-02  -1.4874750e-01  -1.1071527e-02   5.8409661e-01   4.8077016e-01  -6.6349602e-01   9.7680168e-02  -8.5319512e-01  -7.4755825e-01   3.8216816e-01  -2.6201692e-01  -5.8350839e-01  -3.0290320e-01   3.6085003e-01   4.3400147e-01   4.4018891e-01  -4.5341498e-01  -4.7983196e-01   9.3577432e-01  -2.3584684e-01  -9.0847706e-01  -7.2627355e-02   4.7672113e-01  -8.2067744e-01  -3.1259656e-01   4.6118968e-01  -1.3584619e-01   2.8549490e-01  -7.1960797e-01  -8.8573209e-01   2.2761402e-01  -5.6795133e-01   5.9196968e-01  -2.9120490e-01   4.9533338e-01   1.1221848e-01  -6.3128512e-01  -2.7338877e-02  -6.6147183e-01  -1.8669758e-01  -8.4196363e-02  -7.0315873e-01  -4.0353474e-01   2.5017822e-01  -2.9890251e-01  -8.2627902e-01   2.6282708e-01  -9.5324397e-01  -8.1951072e-02   6.0879666e-01   8.8603920e-01   4.4523767e-01   7.0379931e-01   3.8529045e-01   9.4780189e-01  -7.0123464e-02  -9.9726749e-01  -4.4974300e-01  -6.8708721e-01  -4.9379432e-01  -9.6886428e-01  -8.8924747e-01  -4.8878011e-01  -4.4691860e-01   4.1582860e-01   1.8292603e-01   9.7622374e-01   5.5305556e-01   1.5204616e-01   8.2152932e-01  -6.5472312e-01   7.5048981e-01  -9.1400217e-01   4.9324651e-01   5.9648178e-01  -4.1094970e-01  -7.2294445e-01   8.4198313e-01  -3.8590188e-01  -5.0404930e-01   1.6454419e-01   4.0807701e-01   7.1893026e-02   2.7620476e-01   1.5635546e-01   1.2603118e-01   7.9922182e-01  -8.6405012e-02  -2.8575901e-01   3.8552155e-02   6.4440901e-01  -7.9586817e-01   9.4987562e-01  -9.1590578e-01   9.5462677e-01  -1.8446973e-01  -6.7783834e-01   3.7695555e-01   6.7269241e-01  -3.6213544e-01  -8.2492500e-01  -8.4642850e-01  -9.5391343e-01  -4.3068776e-01   6.2224941e-01   4.6710450e-01  -1.3659234e-01   4.0410403e-01   9.4223499e-01  -9.2162881e-01   3.1341744e-01  -9.4708858e-01   4.2847044e-01  -3.0311893e-02   4.7603178e-01   3.6689539e-01   4.6453962e-01   8.2699278e-01  -8.6143396e-01   3.6142971e-01  -3.4218003e-01  -6.0603426e-01   7.3131730e-01  -9.5497168e-01  -5.4958839e-01   1.9019420e-02   6.2976802e-02  -6.5134624e-02   6.7781053e-01   2.1908454e-01  -5.3966314e-01  -5.6974806e-01  -2.5412098e-01  -1.1104303e-01  -5.5538027e-01   3.3854520e-02   3.6228108e-01  -2.1346198e-01  -7.7816243e-01  -2.8550173e-01   6.4398734e-01   3.0223152e-01  -2.0198512e-01  -8.0032191e-01  -4.3548496e-01  -7.3103171e-01   3.1637229e-01   1.7889843e-01  -4.0787276e-01  -9.8661425e-01  -1.6292674e-01   1.9427523e-01  -9.1140082e-01  -5.7115557e-02  -9.2606851e-02  -4.4169698e-01  -7.0978842e-01   5.3407501e-01  -1.0785265e-01  -7.3915503e-01   3.9161702e-02   9.3007614e-01  -4.6499703e-01  -3.0633127e-01  -6.0209588e-01   8.8854575e-01  -7.3919564e-01  -5.0640969e-01  -6.5804523e-01   7.7322748e-01  -5.4808738e-01  -5.3168784e-01  -1.4674047e-01  -2.9487279e-01  -9.7010959e-01  -6.0618342e-01  -5.5102319e-02  -7.8189724e-01   8.1845267e-01   9.8560568e-01  -5.1433820e-01   6.2667087e-01   1.8305448e-02  -4.2362203e-01  -3.8716099e-01   5.7457217e-01  -6.0709227e-01  -5.3767283e-01  -9.9005414e-01   1.3124943e-01   8.3043130e-01   4.3673100e-01  -9.1187715e-01  -4.9336938e-01  -2.2172863e-02   6.7711364e-01   6.6264566e-01  -3.3873525e-01   7.6711952e-01   3.2840283e-01  -8.0724854e-01   5.6216541e-01   2.7651486e-01   7.8727364e-01  -8.5998795e-02   2.0418291e-01  -4.0463344e-01  -4.9055597e-01  -8.3207467e-02  -6.9007490e-01  -7.9677581e-01   8.9570467e-03   6.6251948e-02   6.1644812e-01   9.6844406e-01   4.2515054e-01  -3.2413825e-01  -8.6089978e-01   1.1092407e-01  -2.7364465e-01  -4.7135096e-01   6.3560418e-01  -6.8960093e-01  -9.3652698e-01   5.6614807e-01  -7.1346135e-03   4.1041100e-01   9.4071943e-01   5.4266125e-01  -9.9801373e-01   2.5738941e-01  -7.6544880e-01  -1.6797999e-03   8.8316672e-01  -4.8360255e-01   6.4824154e-01   6.7573187e-01  -5.0028255e-01   6.0687466e-01  -1.3534635e-02   1.5610823e-01   5.3907445e-01   5.3864095e-02   5.0596638e-01  -4.3559180e-01   1.0081100e-01   6.2997751e-03  -4.2599140e-02   6.8280775e-01   9.3348032e-01   9.6389869e-01   4.3453010e-01   5.5421573e-01   1.2674673e-01   4.4166860e-01   6.1642083e-01   4.4666217e-01   8.8416684e-01   9.9337478e-01  -4.2413063e-01  -9.0885529e-01  -8.8638653e-01   1.5535448e-01   7.8233168e-01   4.3626007e-01   1.7325684e-01  -9.3315026e-01   5.9465058e-01  -5.0552092e-01   4.8289947e-01  -1.3764276e-01   1.7245149e-01  -4.5876165e-01   6.9916462e-01   8.0120673e-01  -6.0092868e-01   8.7133739e-01  -5.2331395e-01  -4.0635852e-02   2.8744402e-01  -1.1810170e-01  -7.3579639e-01  -4.0971466e-01   2.6133720e-01  -1.5211116e-01  -5.0041320e-01  -5.4071144e-01   4.4528831e-01   9.7328115e-02   2.4975333e-01  -2.9705071e-02  -8.7186699e-01   5.1037992e-01  -1.7479087e-01  -4.9198076e-01   6.3756311e-01  -3.1776199e-02  -4.5512965e-01   9.3540167e-01   9.3762051e-01  -1.8482972e-01  -3.3802274e-01   6.3656377e-01   6.0371441e-01  -8.0215635e-01   3.5264856e-03  -8.5154821e-01  -6.7574537e-01  -9.3926855e-02   1.7515825e-01   2.4942911e-01   6.8389081e-02   7.5787580e-02   7.6637566e-02   8.7207377e-01   8.2734208e-01   2.5322762e-01  -9.6037379e-01  -6.2985536e-01   4.7194683e-01   6.7048256e-01  -7.9131754e-01   7.5123318e-01   8.7467522e-01   2.0793458e-01  -9.2761588e-01   9.6606239e-01  -4.0129660e-01   8.9853416e-01   4.1710998e-01   8.6725782e-01   5.6736634e-01   5.5639954e-03   4.1181987e-01  -1.2516588e-01   4.2541552e-01  -6.8076501e-01  -7.6452203e-01  -6.7964387e-01   4.8795760e-01   5.0485850e-01   9.1219522e-01  -9.2304543e-01  -4.7199179e-01  -6.9187245e-01  -1.6598975e-01  -6.6029428e-01  -2.9425858e-01   8.9888627e-01  -2.2946598e-01   4.4776910e-03   5.0985108e-02  -4.2390274e-02   8.1023659e-01  -1.8292714e-01   3.5986206e-01   1.4276819e-01  -2.9642912e-01  -4.7926823e-01   3.9897184e-01   8.5291717e-01   6.8284044e-01   7.5952862e-01   1.4486117e-01  -9.3881078e-01  -8.6212665e-01   6.6432475e-01  -5.1365770e-01   2.1099505e-01   8.8051022e-01   4.8720857e-01   6.6962401e-01  -8.9902958e-01   1.2843373e-01   9.1156528e-01  -1.0584283e-01   3.2549933e-01   6.9703107e-01   9.2629661e-01   9.3957684e-01   8.1797459e-01   4.5582690e-01   8.5169693e-01  -4.1738793e-01   1.4768162e-01  -9.3731565e-02  -9.2202346e-01  -6.3173680e-01   1.5788793e-01  -6.0183847e-01  -3.9127715e-01  -9.9081119e-01  -9.2776241e-01   7.5504552e-01  -5.6689286e-01  -9.0568676e-01  -7.2096576e-01  -2.5131979e-01   1.7148431e-01   7.9231257e-02   3.5648908e-01  -3.0365787e-01   2.0816400e-01   3.1298701e-01   3.5960844e-01  -8.5559220e-01   5.9579422e-01  -4.2633789e-01   1.0152421e-01   3.3425117e-01   6.2885411e-01   1.1400739e-02  -8.2831791e-01   8.3238305e-02   1.5175662e-01  -1.5606750e-01  -3.9844034e-01   7.0985692e-01  -1.6742892e-01   3.0801180e-01   5.7582214e-01   1.1926413e-01   9.0304255e-01  -1.8938413e-01   8.6711970e-01  -9.1051773e-01   2.8415900e-02  -4.2708273e-01  -8.5586514e-01  -6.4059755e-02   4.9337862e-01  -8.2637703e-01  -4.2654870e-01   6.8079409e-01  -2.9200749e-01   7.6801261e-01   6.2687880e-01  -2.5236865e-01   2.8900799e-01  -8.8214851e-01   3.1017313e-01   3.9772604e-01   9.1696904e-01  -4.1900621e-01  -2.3719035e-02   8.0422807e-01   8.0320264e-01  -3.4496149e-01   2.6426156e-01  -7.8860147e-01  -3.7762996e-01  -8.3275639e-01   9.2616741e-01  -7.5540103e-01   6.3412153e-01  -8.3532933e-01   1.3973188e-01   2.3549619e-01  -6.5194079e-01  -1.2681116e-01  -6.3325494e-01  -2.3072415e-01  -4.6601874e-01  -7.8754403e-01   8.3639803e-01  -7.9739030e-01   6.6710307e-02  -7.0342646e-01  -8.4265666e-01   4.5148785e-01   4.1809211e-01  -5.1446596e-02   7.0824743e-01   1.8193855e-01  -2.3492395e-01   4.1798127e-01  -6.3214948e-02  -3.1875437e-01  -6.2430631e-01  -9.8180018e-01  -1.2111402e-01   4.4931414e-01   2.8306295e-02  -5.1495435e-01  -7.9136584e-01  -7.0300975e-01  -7.2029577e-01   2.1346927e-01  -8.5024342e-01   5.2282601e-01  -4.6207589e-01  -5.9794130e-01  -6.3951460e-01  -9.4972562e-01  -6.4118575e-01   8.3600474e-01  -3.8683761e-01   8.1824079e-01  -6.3656582e-01  -3.4122769e-01   1.3205903e-01   9.9665122e-01  -3.4816015e-01  -7.8921612e-01   9.6497474e-01  -7.4724330e-01   5.1078302e-01  -1.0860453e-01  -4.4093555e-02  -8.3499314e-01  -4.8193324e-01  -7.4297379e-01   6.5364274e-01  -1.1544552e-01   7.9979782e-01  -7.5564294e-01  -4.6022775e-01  -5.9096049e-01  -9.0474992e-01   9.2826452e-01   8.1130078e-01  -1.9135965e-01   7.4511388e-01   1.7589696e-01  -3.4545356e-02  -7.2640391e-01  -2.6918057e-01   4.5319308e-01   5.8171888e-01   6.1498697e-01   3.3773216e-01   1.8266970e-01   8.2501253e-01   9.8751983e-01   4.7638686e-01  -8.1158115e-01   2.5468715e-01  -2.0954061e-01   7.8984491e-01   6.4690651e-01   4.4008071e-01   4.5368667e-01  -2.2150471e-01   4.7973250e-01   5.7325843e-01   3.2399845e-01   1.6002785e-02  -7.7410957e-01   8.9232195e-01   1.3544930e-01   6.8122855e-01   1.7306267e-01   2.9811556e-01   5.0680119e-01  -8.2993422e-01   6.3619053e-01   4.8627798e-01  -2.4550848e-01  -6.1491892e-01  -6.9506186e-01  -6.2020750e-03  -2.8712215e-01  -4.8297277e-01   9.0814069e-01  -4.0671939e-01   5.5436366e-01   6.3645951e-01   8.9797225e-02   4.5064110e-01  -3.8368937e-01   5.6871223e-01  -7.0331207e-01   2.2198298e-01   1.6922722e-01  -3.1615681e-01  -5.7823341e-01   9.5991751e-02   4.9423041e-01   8.0746268e-01  -1.1845068e-01  -1.6588171e-01   8.1673267e-01   1.6323621e-01  -9.7412205e-02   9.3364203e-01  -2.7990043e-01   6.0035562e-02  -2.8080791e-01  -3.3383456e-01   5.8649931e-01  -8.4874609e-01   4.1093313e-01   8.1925814e-01   1.6452683e-01  -4.6426321e-01   1.1176341e-01   8.1750942e-01  -4.4729019e-01  -9.3817919e-01   5.1799364e-01   7.4714127e-01  -2.4961495e-01   8.8883895e-01  -6.5514537e-02  -4.9873287e-01   8.4076953e-01   7.2262775e-01   4.8801763e-01  -7.6895475e-01   9.4400128e-01   1.8780616e-01  -2.9369034e-01   3.2753369e-01   6.2082729e-01   3.9975760e-02   1.1257366e-01  -8.1077264e-01   4.3374931e-01   5.3059033e-01   5.7730788e-01   8.9800020e-02   9.4936371e-01   4.7339371e-01   5.6772161e-01   5.5006416e-01  -7.0448351e-01   7.8258531e-01   3.1583341e-01  -4.1432948e-01   8.5077833e-01  -2.7398830e-02   5.4603372e-02   9.1736231e-01   8.7386228e-01   3.2356137e-02  -2.6708008e-01  -4.0150462e-01  -5.1878812e-01  -8.8553195e-01   6.2806620e-01  -1.0016072e-01   8.3598400e-01  -7.7272862e-01  -3.5243984e-02   3.2019049e-01  -5.5343068e-01  -8.5787491e-02  -5.6355236e-01  -1.5440011e-01   9.4796478e-01   9.2549151e-01   9.4819093e-01   7.6240144e-01   9.8967300e-01  -3.5548284e-01   4.3101394e-01  -2.2057552e-01  -2.5927962e-01   8.2234032e-01  -6.1959249e-01  -8.5369204e-01   9.3342564e-01   2.6133554e-02  -9.4661931e-01   7.5103890e-01   5.9166927e-01   9.1448506e-01   3.8688895e-01  -3.0830873e-01  -5.8877605e-01  -1.9243576e-01  -7.1610840e-01   5.2276895e-01  -7.2541514e-01   5.8126141e-01  -1.5859156e-01   3.5464250e-01   4.5822420e-02  -3.8506639e-01   9.0748575e-01   4.4593728e-01  -5.8852750e-01  -7.6034884e-01  -1.9226792e-01  -6.7854904e-01   5.2796732e-01  -1.9041897e-01   2.6390886e-01   8.6253885e-01  -9.9128388e-01  -4.2661221e-01  -1.1741235e-01  -3.4589275e-01  -5.5257016e-01   5.5421585e-01   4.1765135e-01   2.1154754e-01   9.1810516e-01  -4.5990830e-01   5.8267086e-01   3.3226700e-01  -2.0386501e-01  -4.5114161e-01  -2.2759465e-01  -3.7837185e-01   7.3403008e-01   7.6928099e-01   4.4772647e-01  -5.3409776e-01   7.2652456e-01   5.8619537e-01  -1.1444080e-01   9.4483807e-01  -3.8608736e-01  -7.6354802e-01   6.9832637e-04   8.7136529e-01   4.0908875e-01  -5.2763892e-01  -8.9009395e-01  -8.4449434e-01  -4.6870188e-02  -6.8767607e-01   9.3537937e-01   2.2182199e-01  -4.3724036e-02  -9.3335628e-01  -6.9837573e-01  -3.7380467e-01  -2.0108801e-02   6.3959538e-01   8.5238121e-01  -6.7392201e-01  -7.0528196e-01   9.6385949e-02  -8.7780199e-01  -7.5379539e-01  -7.9960356e-01  -1.3464724e-01   7.2928132e-01  -7.7875611e-01   3.8983461e-01   7.0654216e-01   2.2774655e-01  -1.6259819e-01  -9.4641322e-01   8.2208379e-03   1.0616754e-01   3.0732854e-01  -5.8740944e-01   9.8378912e-01  -9.6369646e-01   4.8605661e-01   6.0363533e-01   1.3259162e-01   9.7300789e-01  -6.9663733e-01  -8.6955544e-01   8.6035720e-01
   6.0944681e-01   7.3595677e-01  -9.7306412e-01   3.4572251e-02  -2.7695232e-02   2.0641252e-01  -2.1902070e-01   5.1911017e-01   5.5870517e-01   2.6971179e-01   2.0467771e-01   2.0880173e-01   8.3410040e-01   7.5336655e-01  -6.3717660e-01   3.8390698e-01  -8.7251483e-01   4.3864592e-01   8.3795211e-01   2.5522411e-01  -5.7621478e-02   2.7484859e-01  -2.6867487e-01   3.5169701e-01  -3.4361312e-01  -2.4173302e-01   2.8718296e-01   6.4287875e-01  -4.3510293e-01  -7.2260362e-01   1.0812381e-01  -7.6613514e-01   8.9504885e-01   6.7310843e-01  -5.1089917e-01  -7.0908529e-01   5.2751991e-01  -9.5476979e-01   6.3634330e-01  -5.8950530e-01  -8.9733832e-01   3.8469963e-01  -6.9208895e-01   9.0202840e-01  -8.0127725e-01   2.9326120e-02   8.0282072e-01   7.8819450e-01  -2.8048117e-01  -9.5305500e-01  -1.8717501e-01   1.9827578e-01  -5.1397772e-01  -7.4499960e-01  -9.4136961e-01  -3.5003684e-01  -9.0322889e-01  -2.4262913e-01  -3.3229279e-01  -6.0070594e-01  -9.8821106e-02  -9.1280368e-01   3.5995172e-02   9.4635671e-01   1.6894487e-01  -4.5410158e-01  -1.7835524e-01  -9.6023871e-01   6.0160152e-01   1.6033257e-01  -7.0639918e-01   4.5507849e-01  -5.8839726e-01  -8.8201104e-01   8.0038998e-02  -2.2033779e-01   8.1403908e-01   9.6962984e-02  -1.3913381e-02  -3.0203048e-01  -8.6850120e-01   8.4954955e-01  -9.2359096e-01   8.4900258e-01   8.4331928e-01   3.0478998e-01  -5.0262242e-02  -8.9871006e-02  -6.9178745e-01  -9.3919816e-01  -2.8029085e-01   4.0607425e-01   1.0606396e-01  -7.5316051e-01   5.6352051e-01  -7.0041960e-02  -7.6120143e-01   5.4900536e-01  -8.0550909e-01  -7.4454443e-01   3.0985355e-01   9.7850320e-01   2.2464745e-02  -9.2861896e-01  -8.3001776e-01   8.7321296e-01   4.3936000e-01  -8.9131307e-01   4.9466982e-01   1.4766713e-01   4.1979946e-01  -5.2276967e-01   2.5403621e-01   4.0167994e-01  -1.3586577e-01  -1.4783005e-01   5.1629855e-01  -5.0110203e-01  -3.3891299e-01  -2.5993240e-01   5.2180925e-01  -5.0828411e-02  -3.9080402e-01  -4.7237767e-01   1.8471880e-01  -3.0063752e-01  -5.7071804e-01   8.2027617e-02  -5.2853005e-02   4.2234141e-01  -8.4526968e-01  -8.1715729e-01  -1.8762309e-01  -9.9989797e-01   4.3188235e-02  -9.7899226e-01  -1.8393333e-01   5.0647058e-01  -7.6969246e-01  -3.1515085e-01   1.2505432e-01   5.4596023e-01   7.8073036e-01  -6.8416342e-02  -6.6661000e-01   7.0488600e-01   8.5004717e-01  -4.2432356e-01   4.3450552e-01  -2.1300725e-01   3.6949399e-01  -4.7739896e-01   3.8240443e-01   4.8999801e-01  -1.7048349e-01  -6.3210691e-01  -1.5375206e-01   4.5653618e-01   5.6128696e-01  -9.2939301e-01   7.1511215e-01   4.6910688e-01   3.5367969e-01   8.7545679e-01   6.1873245e-01  -1.4668188e-01  -7.7088411e-03  -1.7469098e-02  -5.6314628e-01   2.6471992e-01  -9.1475938e-01  -1.8838115e-01  -2.8327275e-02   2.2946397e-01   1.4509236e-01   5.1550411e-01  -5.2537903e-01  -9.2059501e-02   4.8548846e-01  -7.2306387e-02   7.5514125e-01   9.0322288e-01   8.4360195e-01  -2.5788688e-01   7.8410086e-01  -7.4445593e-01  -6.3119939e-01  -7.2330394e-01  -8.9004291e-02   8.3285992e-01   3.2084437e-02   1.4790591e-01  -9.3664018e-01  -1.8970147e-01  -7.9070200e-01  -7.7073151e-01  -3.5310052e-01   6.0139807e-01   2.2445823e-01  -3.0273051e-01  -3.3670048e-01  -9.2382962e-01   6.3459307e-01   4.6216413e-01  -5.2043858e-01  -9.0685003e-01   7.0686071e-01  -1.1049111e-01   2.8830899e-01  -4.6757706e-01  -1.0808204e-01   9.4623170e-01   4.1626450e-01  -8.1623272e-01  -6.4908808e-01   1.1603778e-01   2.0441997e-01   2.1814170e-01   7.3057971e-01   8.4367523e-02  -7.3044215e-01  -9.5024360e-01   4.0926002e-01  -5.8399485e-01   5.1368364e-01   3.9070359e-01   9.0770204e-01  -7.2598826e-01  -1.0225418e-01  -1.6140637e-01   6.1345475e-01   5.6092798e-01   2.1082473e-01   1.5840593e-01  -1.2930195e-01  -2.5521013e-01   3.9476006e-01  -6.2826252e-02  -3.6306775e-01   3.4002792e-01  -5.5250251e-01   4.3454465e-01  -7.8466761e-01   4.3901071e-01  -1.6698199e-01  -5.1421075e-01  -8.2183346e-01   3.7352801e-01  -4.7778484e-01  -1.8455195e-01   7.6746786e-01  -1.9169844e-01  -2.0817241e-01  -6.1172432e-01   7.2176594e-01   9.3683867e-01  -7.3773929e-01  -8.6718605e-01   2.0949493e-01   6.3972413e-01   1.3960852e-01   6.5362788e-01   8.8974436e-01   7.9731695e-01  -9.8305527e-01  -1.1380738e-01   2.5954501e-01   7.5177200e-01  -2.5458130e-01   7.5690901e-01   7.5861502e-01  -5.8428937e-01   5.6771657e-01  -7.1919782e-01   6.4987762e-02   6.0117328e-01  -8.6271005e-02   8.4603957e-01   1.1993074e-01  -9.2280443e-01  -6.3152059e-01   6.5561819e-01  -6.4459441e-01   5.6887110e-01  -5.3083307e-01  -6.9566864e-01  -7.7677749e-01   8.3694900e-01  -2.8906573e-01  -6.1795552e-01   1.9508800e-01  -6.3550203e-01   4.7256180e-01  -1.9249869e-01   3.5887387e-01  -5.0722741e-01   6.5338177e-01   2.4873527e-01  -4.6469891e-01  -7.2708126e-01   2.0122802e-01   9.7649251e-02  -4.1857542e-01  -6.2990447e-02  -9.2566236e-01   5.8927786e-01   9.0969277e-01  -4.5755142e-01   8.6101496e-01  -2.9800763e-01   1.5718467e-01  -8.3486940e-01  -7.3242407e-01  -1.2223742e-01  -1.2489201e-01  -9.6781829e-01  -6.9406195e-01  -4.2455073e-01  -4.0763564e-01   5.2925974e-01   1.8256978e-01  -6.7563205e-01   1.0939472e-01   3.8524735e-01   2.7017225e-02   9.5824318e-01   9.6448343e-01   7.0893344e-02  -7.5541145e-01   9.6453219e-01  -2.2536392e-02   5.3338337e-01  -6.6326642e-01   9.5212189e-01  -7.3394646e-01   9.5263101e-01  -8.3680065e-02   7.1052295e-01   2.7668361e-01  -4.7267126e-01   4.7362899e-01  -2.1237844e-01   8.7802246e-01   7.8321960e-01   5.0660888e-01   1.1307374e-01   4.6504992e-01   4.1104275e-01  -8.0482446e-01   4.0112544e-02   5.6273247e-01   9.3209978e-01   2.5655541e-01   1.4808836e-01  -1.4450832e-01   1.9170347e-01   8.0075859e-01   3.0262006e-02   5.7823011e-01  -4.1212474e-01   9.1830846e-01   4.2610893e-01   7.0447161e-01  -4.6532787e-01  -5.2333805e-03  -3.9269940e-01  -4.9509904e-01   1.9028296e-01   3.8639920e-01   4.0122277e-01   6.1490170e-01  -4.3502941e-01   4.8522063e-01  -7.1504857e-01   5.1554796e-01  -4.5896295e-01  -1.4339176e-01   3.9229040e-02  -6.6939412e-01   7.9869337e-01   9.3053372e-01  -2.3277769e-01   4.5263730e-01  -2.2026217e-01  -1.0770123e-01   2.9513373e-01   3.1247756e-01   7.3016932e-01  -3.8279901e-01   4.3190705e-02  -9.6217323e-01  -3.2211765e-01  -5.0063952e-01  -4.0947175e-01   6.5230018e-01  -8.3341153e-01   4.7043538e-01  -2.4901726e-01  -9.9928482e-01   7.9031861e-01   1.1321816e-01  -9.0273791e-01   1.3912492e-01  -1.2899518e-01   8.1577581e-01  -5.9542609e-01  -3.2365092e-01  -6.4561195e-01   2.9540000e-01  -5.1333461e-01  -1.6065286e-01  -6.3532303e-01   8.0958020e-01  -2.5999242e-01   7.7520594e-01  -2.3212832e-01   5.1270506e-01  -4.6003389e-01  -8.8723081e-01  -7.5080261e-01  -6.4605087e-01  -4.1226846e-01  -6.8188099e-01  -2.0118498e-01   2.9118310e-01   8.5420123e-01  -7.4969199e-01   6.6363307e-01   4.7874027e-01   3.6108208e-01   4.5507811e-01  -1.1722050e-01   8.0325256e-01   9.9047409e-01   9.4266123e-01  -9.3974399e-01   5.9440691e-01  -1.6709694e-01  -9.5873831e-01  -5.2106358e-01   7.4951694e-01  -9.9751162e-01  -8.1684290e-02   6.1674654e-01  -1.5857400e-01   5.9001572e-01  -7.0090329e-01  -5.0658343e-01   6.9795362e-01  -1.3085691e-01   5.0140645e-01  -4.9263840e-01  -8.7736603e-01  -6.2558723e-01  -4.6861557e-01   5.9889541e-01   1.7520759e-02   1.5019539e-01  -4.7302729e-01   8.8322417e-01  -1.8502290e-01   9.8690835e-01   5.3712698e-01   6.3699467e-02  -3.0424194e-01  -1.5578184e-01   9.6631587e-01  -7.5096042e-01  -3.1704645e-01  -8.2315685e-01   5.0741797e-02   3.3282476e-01  -7.6210722e-01   5.7588146e-01   4.6717689e-01  -9.2621111e-01   9.3166089e-01  -5.9754258e-01  -3.7331592e-01  -1.2470589e-01   8.4036999e-01   5.5249117e-01   2.5277313e-01   3.0090562e-02  -5.8487894e-01   8.3248690e-01   1.7793866e-02   9.3740670e-01   5.8223809e-01  -8.3609512e-01   1.2893822e-01  -7.7051449e-01  -5.3711376e-01  -2.4274034e-02   9.6540535e-01  -7.9406870e-01  -1.0784969e-01  -9.3556184e-01  -3.1710761e-01  -5.9233464e-01  -4.5430957e-01   2.0577993e-01  -1.7211803e-01   5.7100125e-01   2.8916591e-01  -5.8963524e-01  -6.7014360e-02   8.2942579e-01  -3.4170652e-01  -1.7724123e-01  -4.7157213e-01  -7.3618557e-01   9.1915713e-01  -8.8465442e-01   1.5036506e-01  -2.5542347e-01   4.2160640e-01   4.2017205e-01  -9.2263822e-02   9.5465800e-01   4.8348215e-01  -4.4282963e-01   3.6449810e-01   6.9136278e-01   4.7747210e-01  -3.9210317e-01  -2.6250691e-01   8.2284984e-01   2.8318154e-01  -1.2731662e-01  -7.9793076e-01  -3.7649387e-01  -1.5024406e-01   1.3463600e-01   5.1950471e-01   1.3219062e-01   2.3204711e-01   5.3984752e-01   3.1943872e-01  -6.8864260e-01   5.7299180e-01   2.8496556e-01  -6.2302616e-03  -2.5981920e-02   6.7492160e-01   3.9298373e-01  -8.7977906e-01   9.7142421e-01  -7.0842233e-01  -3.1940048e-01   4.1419107e-01   5.0805011e-01  -9.5471596e-01  -2.5038791e-01   8.9776827e-01  -1.8189002e-01  -2.7652435e-01  -4.6563361e-02  -4.6735804e-01  -9.5579973e-01  -5.1022325e-01  -2.4308752e-01  -5.0443719e-01  -9.0837977e-01   8.3629943e-01  -9.6128889e-01   4.5051128e-01   6.3445512e-01  -5.8399348e-01   1.9674429e-01  -7.1673286e-01  -2.1871062e-01   7.0496796e-01   6.7357957e-01  -2.1653677e-01   5.2624864e-01   1.5002807e-01  -1.4691832e-01  -7.8520274e-01  -9.0586156e-01   9.2504518e-01  -7.0433802e-01  -4.2411216e-01   5.3579471e-01   3.6263148e-01  -4.3316058e-01  -4.0573829e-01  -1.5507849e-01  -6.1215335e-01   9.8640370e-01  -9.1975461e-01  -7.8814264e-01   7.5527519e-01   7.5674586e-01   3.4540326e-01   8.2255718e-01   5.6911412e-01  -5.0791401e-01   7.5790121e-01  -6.9419991e-01   8.4147620e-01  -9.7941065e-01  -8.1532099e-01  -6.5767237e-01   2.4735425e-01  -6.0720987e-02   1.8290634e-01   1.1556229e-01  -5.8381330e-01  -3.3609695e-01  -6.9501490e-01   7.8479642e-01  -8.6536804e-01  -8.2981490e-01   5.8941465e-01  -3.4281321e-01   5.9933789e-02  -4.4911671e-01   5.0759939e-01  -1.1857914e-02   1.0801168e-01  -6.4191612e-01   3.3178505e-01   7.5890112e-01   9.8970776e-01  -2.1561354e-01   7.7133930e-01   4.8300372e-01  -4.6141115e-01   3.5661397e-01  -6.1183203e-01  -1.8542806e-01   2.7389655e-01   7.5290179e-01  -9.7731180e-01   6.8256068e-01   8.5763128e-01  -1.5502658e-01  -8.8121496e-01   7.5740293e-01   3.8357673e-01   6.7930299e-01  -2.1022778e-01   8.6881814e-01  -7.1590541e-01   6.0213332e-03   7.8115825e-01   7.9413580e-01   5.6902468e-01   2.0714241e-01   5.0694322e-01   9.7354523e-01  -4.9713835e-01  -8.4302517e-01   3.6554590e-01   6.8291479e-01  -1.8018395e-01  -7.6797469e-01   6.6867121e-01   8.2843463e-02  -5.5000660e-01  -1.2535029e-01   6.9959412e-01  -8.2674905e-01  -7.8650147e-02  -6.6234891e-01  -3.5089981e-01   8.6673436e-01  -7.9857971e-01  -9.0413596e-01  -2.3502155e-01  -7.6113616e-01  -2.1494862e-02  -1.2933071e-01   3.6337740e-01  -8.6724664e-01   2.5759648e-01  -1.3757111e-02  -9.5276334e-01  -7.6696344e-02   6.5481082e-01  -1.9863745e-01  -4.2584838e-01  -8.7493538e-01   7.6255972e-01   6.8664301e-01   2.3083304e-01  -8.5526343e-01  -5.1022745e-02  -4.3655551e-01   5.4598510e-01  -4.2665640e-01   2.6376976e-01  -5.9770787e-01   4.3822483e-01  -4.0683870e-02  -1.1226712e-01  -3.6489661e-01  -7.0675149e-01   5.1653684e-01   5.8353221e-02  -4.4977725e-01   4.9220060e-01  -8.7946667e-01  -8.0298293e-01   8.0945905e-01   3.7694589e-01   4.8434519e-01   9.7048039e-01  -3.6015488e-01   9.7550390e-01  -9.8863564e-01   9.8187642e-01  -1.1476186e-01   2.1335202e-01  -8.7501783e-01  -8.2811442e-01   4.1820411e-01   4.1615867e-01  -5.4638339e-01   7.1628929e-01  -9.7296080e-01  -7.8484347e-01  -7.9690508e-02  -6.1476526e-01   7.8794214e-03   9.8595711e-01   6.6479961e-01   2.2433443e-01  -4.0470046e-01   4.7956675e-01   9.4118886e-01   6.2264583e-01  -7.6692156e-01  -4.4120756e-01  -3.8606638e-01   1.8036849e-01  -2.2593160e-01   5.7864933e-01  -3.9913863e-01   4.5582948e-01   3.0492854e-01   9.2266744e-01  -1.3034974e-01  -1.9224454e-01  -4.9418292e-01  -3.4653952e-01  -1.8034739e-01  -6.9305276e-01  -4.9924586e-01  -2.5067676e-01   7.2074495e-01   3.0341150e-01  -2.5496676e-01  -9.4230360e-01  -4.9218582e-01  -7.4350064e-01  -3.0099109e-01  -2.4114138e-01  -7.2591931e-01  -8.9080458e-01  -4.2990901e-01  -7.0981288e-01  -2.2290772e-01   1.8812231e-01   8.1826436e-01   8.5021134e-02  -9.1945016e-01   1.8909874e-02   8.9734458e-01  -2.1527316e-01  -6.8512150e-01  -5.9222329e-01  -6.6689109e-01   8.2639786e-01   1.5771135e-03  -5.8126703e-01   2.3275937e-01  -7.9390332e-02   5.2804726e-01   3.6901150e-01  -8.7975730e-01  -4.2301183e-01  -2.1136480e-01  -9.5537830e-01  -3.3517805e-01   3.7141827e-01  -2.1015199e-01   3.6985454e-01  -7.1979924e-01   7.3189481e-01   5.2518930e-01  -6.4499256e-01   2.1600729e-01  -7.3905846e-01   1.5253727e-01   2.4960620e-01  -9.3138788e-01   6.4060677e-03  -8.0350662e-01  -1.0844065e-02  -1.7177205e-01  -2.4436787e-01  -8.6146429e-01   3.1686235e-01  -6.7346151e-01   1.7288968e-01  -8.5196984e-01  -3.0996168e-01   1.5817087e-01  -9.4770383e-01  -7.3555440e-01   4.7935613e-02  -7.1834200e-01  -3.7820761e-01  -4.2479581e-01   7.2255972e-01   2.4813422e-01  -8.9811292e-01  -7.3915558e-01  -6.6777833e-01   1.0790742e-01   2.2738106e-01   5.4034732e-01  -3.9477878e-01   3.7311330e-03  -1.3576952e-01   5.9930917e-01  -7.7250183e-01  -7.1926264e-01   9.0650636e-01   7.2218452e-01   7.0703592e-01   3.6146160e-01   5.2215300e-01  -2.8009908e-03  -5.6298292e-01  -3.1953131e-01   2.0561265e-01  -4.6720513e-01  -7.9416006e-01   8.6674593e-01  -2.8153276e-01  -4.4229791e-01   8.9103532e-01   7.0099247e-02   9.0788249e-01   1.4733391e-01  -7.7464332e-01  -5.6928718e-01   6.0517110e-01   5.4139690e-02   4.9073337e-01   5.1581238e-02   6.2200528e-01  -4.3514664e-01   1.3416095e-01  -9.9084932e-01  -7.4691493e-01  -3.2328855e-01  -9.3189850e-01   3.5939689e-01  -9.7494876e-01  -4.9782143e-01  -5.6316556e-01  -3.3895110e-02  -8.9761635e-01  -7.6827399e-01  -1.3080179e-01   7.2679583e-02  -4.0269351e-01   2.1171383e-01   6.7081773e-01  -4.2246949e-01  -5.6001928e-01  -6.8505594e-01  -1.1042378e-01   9.8778306e-01  -7.9271567e-01   4.1699226e-01  -2.0850244e-01  -1.0810333e-01  -1.7697519e-01   4.5009756e-01  -6.7816084e-01   1.8479838e-01  -2.7608983e-01   5.3135807e-01  -9.5578230e-01  -5.1132384e-01   3.2230213e-01   8.7472550e-01   5.4516013e-01   2.1746242e-01   7.4362527e-01   6.8944275e-01   1.9207907e-01  -3.8675059e-01  -1.3876802e-01   3.2104576e-01   5.5316672e-01  -9.1145263e-01   1.0317879e-02  -8.5929568e-01   7.3182392e-02  -4.5448824e-01  -7.8265262e-01   9.3993828e-01  -9.8675313e-01   7.3061283e-04  -7.6351850e-01  -3.2880656e-01  -5.6351359e-01  -6.9318640e-01   9.4522760e-01   7.4475792e-01  -7.1314844e-01  -4.3467222e-01  -2.4870049e-01   5.2714751e-01   2.7687355e-01  -7.8545534e-01   4.6880083e-01   3.1489615e-01   2.6004328e-01  -3.0228741e-01  -1.7942495e-01   5.6195799e-01   3.5410589e-01   7.7950889e-01   5.7870684e-01  -9.7046751e-01  -5.3231205e-01   7.4812823e-01  -8.8845462e-01   9.4143651e-01  -7.0932517e-01  -1.0707216e-02  -7.6819419e-01  -8.6582329e-01   6.1096744e-01   6.3116946e-02  -4.0207220e-01   1.7864703e-02  -1.8076213e-01   8.0541506e-01  -5.2361951e-01   1.7863969e-01   4.8100872e-01   5.8658631e-01  -6.7851673e-01  -4.9189085e-01   3.2485848e-01  -5.7933043e-01  -6.0670159e-01   9.4553806e-01   9.3659753e-01   6.7161074e-01  -9.8782187e-01  -2.8327007e-01  -2.9336259e-01  -9.8562578e-01   8.4502739e-01  -5.7611420e-01   8.7925186e-01  -5.8952270e-01   6.4026501e-02  -3.4418069e-01   2.6044680e-01  -6.3154424e-01   5.9952714e-01  -7.8034121e-01  -4.0590673e-01  -8.5193927e-01  -1.0806605e-01   7.5577334e-01   8.0498715e-01  -7.7999818e-01   7.5924000e-01   9.0954708e-01   1.3771160e-01  -8.5943214e-01   1.1460005e-01  -1.6100410e-01   6.4261063e-01  -4.5340914e-01  -7.8752560e-01  -7.0275951e-01  -1.0848625e-01   3.4382868e-02  -8.7412995e-01   3.0391766e-01  -5.5449092e-01   2.9094902e-01  -5.1719630e-01  -3.9820844e-01  -2.5724978e-01   9.5813524e-01  -5.3280049e-01  -9.3534871e-01
  -8.9448538e-01  -2.6659022e-01   2.9310847e-01   1.0826839e-01  -9.7170365e-01   9.7853921e-01   7.0308693e-01   7.3635976e-01   7.1626473e-01  -4.8195133e-01  -7.5650928e-01  -5.1147294e-01  -3.1842503e-01  -1.9325013e-01   5.9487352e-01  -1.8062688e-01  -2.6320138e-01   7.4190414e-01   7.0584969e-01  -9.5977744e-01  -2.1853959e-03  -2.8554719e-01   5.3909103e-01   3.8772925e-01   2.1506053e-01  -3.3091475e-01  -8.7985815e-01  -2.4308921e-01   3.7275635e-01   3.1676700e-01  -6.7050215e-02  -3.7230141e-01   2.3306727e-01  -7.2635031e-01  -1.8540400e-01   7.6270357e-01  -2.0414744e-01  -2.1872968e-01  -1.3172337e-01   4.2102995e-01   3.1605875e-01  -2.9459140e-01  -5.7993505e-01  -9.8594420e-02  -9.7904581e-01  -7.5987760e-01   7.3656308e-01  -8.5851837e-01  -2.5699232e-01   9.1017542e-01   4.5020932e-01   4.4334746e-01  -9.6613336e-01  -1.0840569e-01  -3.8847673e-01  -1.6689782e-01  -7.7893864e-01  -4.2415964e-01   7.8003113e-01  -2.2602080e-01  -2.1110118e-02   8.5698993e-01  -6.6346889e-01   1.3652886e-01  -5.4496321e-01   9.9669374e-01   6.2670572e-01   3.6053536e-01  -4.2669276e-01  -8.3387845e-01   1.4795066e-01  -3.8956118e-01   2.2816306e-01   7.0299601e-01   3.9665161e-01   6.4679296e-01  -6.0698613e-01  -6.0994123e-01  -5.3350558e-01  -3.7491245e-02   2.3323373e-02   6.2980673e-01  -7.8504581e-01  -8.9609541e-01  -7.5903495e-01  -9.5079453e-01   4.4857220e-01  -9.2617459e-01  -4.0136862e-02   4.9813908e-01   1.6901430e-01  -2.1227284e-01   2.6376576e-01  -7.6279112e-01  -5.8808522e-01   5.8989761e-01   7.5240659e-01  -5.2920451e-02   8.0599995e-01  -6.3690385e-01  -4.4944995e-01  -7.1803441e-01   6.5490158e-01  -1.2819886e-02  -6.3753050e-01  -9.4367424e-01   1.6946496e-01   8.8040096e-01   3.0501851e-01   9.0189107e-01  -9.2467102e-01  -9.8033395e-01   7.5426330e-01  -4.4533427e-01  -2.7752733e-02  -6.6923631e-01  -8.2497656e-01  -2.4305830e-01  -4.4401820e-01  -4.1900737e-01   1.8849553e-01   5.8225526e-01  -7.4816345e-01   9.8027003e-01  -9.0367323e-01   7.5269429e-01   8.9265745e-01  -7.4213743e-01  -9.9327858e-01   1.6917908e-01  -4.9338730e-01   6.8025439e-01   2.9368474e-01  -8.4251896e-01   7.7880931e-01   5.0622890e-01  -4.9369189e-01  -5.1852940e-01  -2.5737857e-01  -7.2731028e-02  -4.9947255e-01   7.4420170e-01   1.9492668e-01  -1.9995516e-01   7.5614576e-01   1.8608723e-01   2.2063428e-01  -4.5812819e-01   4.3592457e-01  -6.5476930e-01   8.6071729e-02  -3.1487714e-01  -8.3220138e-02   8.3133599e-01   4.2868119e-01   6.5958936e-01   8.2783472e-01   9.5105752e-01   2.1698166e-01   5.0850979e-01   8.6102630e-01  -3.3152275e-01   6.1808435e-01   2.0133428e-01   3.8553667e-01   2.7110193e-01  -9.6269207e-01  -2.6537580e-02   2.8784702e-02  -2.2143948e-01   6.8829805e-01   9.9158334e-01   4.8919212e-01   7.5135630e-01  -2.5517067e-01  -2.9892714e-01   8.9356690e-01   7.4891290e-01  -1.5593405e-01   9.4820701e-01   2.4506229e-01  -5.4403633e-01   1.3809382e-01   8.3316469e-01   8.4609392e-01  -6.2247362e-01  -9.1716373e-01  -8.0233773e-01  -8.8328761e-01  -6.1234124e-01  -7.5154487e-01  -7.6068494e-02  -2.3294113e-01  -9.8060828e-01  -3.0755716e-01  -2.0601866e-01   2.2684846e-01   2.7074730e-01  -8.4973223e-02   4.3935415e-01  -7.1730099e-01  -6.4357647e-01  -9.4778521e-01  -2.7106632e-02   9.4882555e-01   8.5242947e-02  -2.0416091e-01  -3.7457817e-01  -4.9601685e-01  -2.8619474e-01   8.0149729e-01   2.0353448e-01   9.2144972e-01   5.2907830e-01  -1.0629769e-01  -7.4487493e-01  -4.6770898e-01  -2.2929625e-01  -6.2392571e-01   1.2214772e-01   1.4328674e-01   5.6707921e-01  -3.8701730e-01  -5.3347773e-01   3.2125769e-01  -8.2154441e-01  -4.2559794e-01   5.7573524e-01   8.6467927e-01   8.0367460e-01   4.1297733e-01   3.2708382e-01  -2.3692097e-01  -3.7995330e-01  -6.7699373e-01   2.5989492e-01  -5.9742755e-01   6.7328874e-02  -7.6954827e-01   6.6994474e-01  -8.5642259e-01  -4.4731969e-01  -8.7458782e-01  -3.1879779e-01  -9.5445906e-01  -3.6791491e-01  -9.6411664e-01  -9.8399847e-01  -8.5379863e-01  -2.3415830e-01  -6.4334406e-01   8.6159743e-01  -2.7719731e-01   8.6749141e-02  -9.8530867e-01   2.6187878e-01  -3.2913669e-02  -5.6983670e-01  -8.5089799e-01   8.8446024e-01   5.3724053e-01   6.7221849e-01   9.0136276e-01   3.2056967e-01  -6.5862650e-01   1.4220337e-01   6.6737589e-01  -7.5910919e-01   9.1702536e-01   8.5633770e-01   2.9832248e-01  -1.3268344e-01   6.6435630e-01   8.1809992e-01  -2.1174816e-01   5.5283378e-01  -4.7835768e-01  -7.3752500e-01   9.4281120e-01  -6.6921657e-01   9.3615303e-01   4.0079314e-01  -8.8677713e-01  -7.0661163e-02   9.5981497e-01  -1.2469100e-01  -9.0869946e-01   4.7969756e-01   3.3453421e-01   2.4200382e-01  -8.3774942e-01  -4.9458090e-01  -2.4075595e-01   2.6929055e-01   4.3130463e-01  -5.6958591e-01   3.7867064e-01  -4.4623024e-01   4.5390657e-01  -8.9465276e-01  -3.0135582e-01  -4.7261493e-01  -8.1137060e-01  -4.5512798e-02  -6.9926264e-01   3.2912480e-01  -3.2639795e-01   9.7279717e-01  -4.2761770e-01   9.0448609e-01   6.9926003e-01  -3.0983904e-01   8.5092036e-02  -7.3964807e-01  -6.9394517e-01   5.4299783e-01  -3.6147863e-01  -9.5902670e-01   4.0072259e-01  -2.4787013e-01   2.1756900e-01  -6.1224734e-01  -6.7029576e-01   8.8802158e-01   1.0419388e-01   2.3875231e-01  -8.4207848e-01  -7.8056944e-01   7.6632054e-01   6.6948568e-01   5.1961125e-01   3.9820477e-01  -7.8219152e-01  -3.5295587e-01   1.9508303e-01   1.7717318e-01   3.5377236e-01   3.1343508e-01  -3.0868269e-01   2.7451363e-01  -7.8872893e-01  -9.7809470e-01   5.6252297e-01   2.0653999e-01   7.4021358e-01   9.8546560e-01   8.4048804e-01  -8.4117961e-01   6.4716286e-01  -1.2025922e-01   7.7746291e-01   8.2914104e-01   9.9986573e-01  -1.5784274e-01  -6.4768010e-01   2.2619670e-01   3.0064836e-01   9.6004687e-01  -8.0503305e-01   6.2665330e-01   8.4950926e-01  -8.1645239e-01   6.5271188e-02   7.9935223e-01   8.2352958e-01   8.1302334e-01   3.3477015e-01   8.8926064e-01   2.1283368e-01   6.5628715e-01   9.0218336e-02  -2.8616542e-01   5.6713258e-01   4.9919945e-01   3.4340611e-01  -5.4297574e-01  -4.8594405e-01   2.3023536e-01   7.6835762e-01   2.9090173e-01   3.2977788e-01  -6.7574041e-01   8.7926250e-01  -2.9684474e-01  -2.4356472e-01   1.3487457e-01  -5.2934626e-01  -2.6344911e-01  -8.9302729e-02  -7.1967168e-02  -1.9492192e-01  -5.5715487e-01   9.4727747e-01   7.5250925e-01   7.0609265e-01  -7.7123315e-01   7.2512759e-01   9.6418791e-01  -5.4201739e-01   2.4459317e-01  -3.5671938e-01   1.6460188e-01   8.0821784e-01  -6.4547864e-01  -4.4203951e-01   6.0357406e-01  -2.8067487e-01   5.2099645e-01  -6.0712881e-01   3.4116101e-01   4.5651760e-01   4.4920769e-01  -8.2649995e-01   9.6290519e-01   7.0173772e-01  -7.2657359e-01   8.9780342e-01   1.5573109e-04  -4.3858098e-01  -6.6559822e-01  -6.5107854e-01  -6.1810039e-01  -7.7246024e-01   1.6877934e-01   7.3614375e-01  -2.6847058e-01  -9.0330510e-01   1.6732855e-01   6.3214310e-01   5.7305844e-01   8.7363173e-01  -2.9814777e-02   3.0297489e-01  -3.7005027e-01  -7.0312498e-01  -8.8580429e-01  -5.6854258e-01  -1.6828491e-01  -2.9670508e-01   7.9672836e-01  -7.8424424e-01  -6.5528346e-01  -9.6198131e-01  -6.0276379e-01   3.7779998e-01  -4.7661153e-01  -8.7466962e-01   5.0353679e-01   3.2689208e-02   8.4030947e-01   9.3739932e-01   2.7099110e-01  -2.8074724e-01   8.7682581e-01   8.1954173e-01   4.8909730e-01  -8.6844489e-01   7.5979971e-01  -6.5369875e-01   2.4447379e-01   7.6937559e-01   4.7860468e-01  -8.4394902e-01  -1.1920039e-01   1.2509020e-01   1.3931947e-01   9.0395246e-01  -9.0030687e-02   2.2317159e-01  -9.3208469e-01  -1.2134999e-01  -5.9632480e-01   4.5742653e-02  -7.9602816e-01   4.3042907e-01  -5.8184066e-01  -4.1170886e-01  -2.7172395e-01   9.9317573e-01  -3.5563728e-01   7.6038330e-01   8.4918783e-01  -1.9147788e-01   7.2891267e-01   6.7175905e-01   6.9175865e-01   7.8719780e-01  -2.2775826e-01   8.8231940e-01   3.6575013e-01  -3.4453044e-01  -6.7732052e-01  -4.9703653e-01  -9.9133392e-01   2.8879170e-01   9.3556928e-01   5.6736695e-01  -3.8901273e-04  -7.5134566e-01   4.6968631e-01  -5.0864740e-01  -7.9757461e-01  -9.3989152e-01   4.3477417e-01   6.7497627e-01   3.8032411e-01  -7.3894213e-01   9.9595106e-01  -3.6460581e-01   8.0967867e-01   3.0160859e-01  -1.3847245e-01   8.0053320e-01   5.1033291e-01   6.1360144e-01   8.2416943e-01  -2.8719638e-01   7.3446105e-01  -1.2069668e-01   9.0437193e-01   9.0133563e-01   8.9104563e-01  -7.3241535e-01   4.5955048e-01   3.0620016e-01  -9.1959843e-01  -2.4794488e-01  -5.7570082e-01   5.6150647e-01  -5.5624047e-01  -2.9970423e-02   3.4393245e-01   9.5097677e-01  -8.4230822e-01  -5.2181574e-01   9.5186071e-01   1.1753168e-01  -2.1584445e-01  -7.1848589e-01   2.7729325e-01   8.4940522e-01   4.8078028e-01   8.4317634e-01  -9.4167115e-02   4.9188047e-01   7.6560948e-01  -1.5963133e-01  -2.0986300e-02   8.3744784e-01  -2.7578592e-01   9.4638296e-01   8.6749234e-01   9.6449441e-01   2.3839998e-01   7.7122144e-01   5.8504633e-01  -6.9079456e-01  -9.8709504e-01   8.7565400e-01  -1.0760339e-01  -4.9146703e-01  -2.7214529e-01   7.1532777e-01  -3.6695652e-01   9.3250074e-01  -3.6148792e-02  -7.8064518e-01   8.6134375e-01  -7.5739516e-01   5.9569280e-01   7.5528212e-01   1.6872453e-01   8.1785219e-01  -6.9233990e-02   4.8521550e-02   5.4638169e-01  -3.8457492e-01   1.0641427e-01   9.3694902e-01   3.1698449e-01  -3.0062964e-01  -7.6680880e-01   6.6211830e-01   6.6397209e-01  -2.8653454e-02   6.1317166e-01   8.0533454e-01  -3.7509051e-01   8.3654177e-01  -3.5123627e-01   2.9577105e-01   6.3766375e-01   4.7906332e-01   4.8259129e-01  -5.6855687e-01  -7.6097991e-01   7.6213154e-01   1.4554783e-01  -6.2649378e-01  -9.3601164e-01  -7.7164391e-01  -3.9139667e-01  -3.3810379e-01  -4.6701770e-02   5.2888535e-01  -3.9749806e-01  -9.4557863e-01   6.7501952e-01  -7.3457707e-01   9.1094097e-01   1.6031526e-01   1.0694673e-01   2.5075969e-01  -1.1491371e-01   8.7372417e-01  -5.1055897e-01  -6.3158552e-01   2.6215380e-01  -5.5516085e-01  -5.6991071e-01   8.1584820e-01   7.2938182e-01   9.7421214e-02   8.5911664e-01  -3.9046349e-02  -7.5164589e-01  -4.5414044e-01   4.6311581e-02   2.3983930e-02  -4.0561148e-01   2.7296281e-01   5.1578196e-01  -2.9375712e-01   4.2812472e-01  -8.1505074e-02   2.6186840e-01   3.3148688e-01   8.6744897e-01   9.7416954e-01  -9.1628250e-01   6.1843576e-01  -6.1616406e-01   3.5375728e-01  -1.2039458e-02  -1.6773317e-01  -6.5318286e-01   1.7508040e-01   7.4013066e-01  -7.5598542e-01  -6.6405097e-01   3.6751331e-01   7.4235057e-01   1.5152122e-01  -9.0441624e-01   9.8247302e-01  -8.1070912e-01  -4.9624585e-01  -2.4226645e-01   6.8855617e-01   5.1168810e-01  -4.7290854e-01  -5.6330352e-01   1.2751070e-01   7.7019528e-01   8.8447650e-02  -5.9071058e-01  -6.1679612e-01   9.8651432e-01   9.9731208e-01  -5.3306671e-01  -3.1655877e-02   8.8718786e-01   1.8773226e-01  -2.2985590e-01   3.2197687e-01   6.2331425e-01   1.3414115e-01   6.7370485e-01   3.8350715e-01   5.6113826e-01   6.4779029e-01  -5.6391536e-01  -7.4474290e-01   5.4995473e-01  -4.3258111e-02   3.6414041e-02   8.7125108e-01  -6.8642726e-01   5.3381912e-01   9.0118970e-01   7.8061791e-01   6.1404240e-02  -7.5970452e-01  -3.0454482e-01   2.0674317e-01  -3.5090609e-01  -8.2972056e-01  -1.7232636e-01   2.0222593e-01   4.7011769e-01   5.0239476e-01   5.4603708e-01   5.0241764e-01   4.3695142e-01   1.7604964e-01  -9.5295378e-01   1.7623165e-01   8.7920321e-01   4.8995592e-01  -6.1193156e-01  -6.8290499e-01  -1.7088827e-01  -5.6736814e-01  -8.5443219e-01   9.8102166e-01  -4.7504920e-01  -8.5807526e-01  -9.5069292e-01   1.2781725e-01   2.5674415e-02   6.3834901e-01  -1.7360812e-01   7.5343507e-01   5.4367420e-01  -2.3613140e-01  -6.5582256e-01   9.4286443e-01  -5.3616145e-01   7.3419107e-01   1.3766211e-01   6.7347535e-01  -1.0592886e-01   5.0712113e-01   5.4740048e-01   7.6129394e-02  -6.2435191e-01   3.8347170e-01   3.1200909e-01   4.4589488e-01   7.1599110e-01   8.8867350e-01   4.2576713e-01  -3.5219390e-01  -6.7151045e-01  -5.9421194e-01  -4.9417562e-01  -6.3689024e-02   4.0465290e-01   3.3064438e-01   8.8415847e-01   7.4015863e-01  -7.8865766e-01   6.7989683e-01   8.4548445e-01   4.0243671e-01   5.5082179e-01   1.2266006e-01  -7.2447974e-01  -1.6903158e-01   2.2275632e-01  -9.2382603e-01   4.3801803e-03  -9.2017768e-01   3.9658063e-03  -3.5406856e-01   2.0146019e-01  -5.0549066e-01   5.4920094e-01  -3.6533093e-01   7.8157759e-01   7.3419342e-01  -9.7319567e-02   4.6983727e-01  -4.1557509e-01  -5.1452192e-02  -3.5309308e-01  -5.0954565e-01  -9.2229264e-01   3.9142691e-01   5.9327793e-01  -3.2883205e-01   5.6046104e-01  -9.9576168e-01   5.7990713e-01  -6.2598709e-01   3.3129197e-01  -9.1441503e-01   8.3294974e-02   9.0654672e-01  -2.6527989e-03   3.9760632e-01   4.6041318e-01   6.2870891e-01  -7.2933523e-01  -7.5164888e-01  -7.4211590e-01   9.2613721e-01  -1.1945807e-01   7.0328115e-01  -4.6616919e-01   3.6009468e-01   1.6797711e-01   3.8495788e-01   9.8115919e-01  -5.5647082e-01  -9.4843385e-01   1.3580603e-01  -2.6808592e-01  -9.1592232e-01   5.9443770e-01   9.9997945e-01   8.8190675e-01  -3.7173737e-01   1.1733715e-01   5.4312309e-01  -6.1283799e-01  -6.0432725e-01  -8.0378714e-01   7.0796434e-02  -8.0085676e-01  -8.5755339e-01  -8.5498350e-01  -7.4174252e-01  -4.9759131e-01  -5.1341534e-01  -1.4761362e-01  -6.7102830e-01  -1.5941907e-01  -3.4418880e-01  -1.1810876e-01   5.9125937e-02   3.8893482e-01   6.1485136e-01  -2.1073828e-01   9.3539725e-02   5.3190630e-02   6.0831320e-01   9.9911858e-01   5.2645640e-01  -9.2160597e-02  -7.4123976e-01  -8.0965206e-01   7.6303271e-02   1.3804837e-01   6.7513495e-01   8.8987186e-01  -2.0465339e-01   7.6719183e-01   2.8582569e-01   3.9954898e-01   5.8284085e-01   4.5652721e-01   4.8311099e-01  -1.9735754e-01   7.5371349e-01   3.5137132e-01  -8.5750529e-01   9.4372788e-01  -1.2261946e-01  -8.4552260e-01   1.4735029e-01   3.4475589e-01  -7.5520791e-01   5.9964101e-02   7.1602411e-02  -4.5761153e-01   6.8885947e-01  -4.0122745e-01   6.2848162e-01  -4.6510342e-01  -3.9512747e-01   3.1298487e-01  -6.5318924e-01  -9.7180436e-03   6.6336335e-01  -1.8595550e-01  -7.5935369e-01  -8.1706386e-01   3.3373888e-01  -8.9764619e-01   7.3119293e-01  -9.7331892e-01  -9.4033403e-01  -8.2723950e-01   5.2621053e-03  -8.9267826e-01  -1.8657283e-01   7.7265379e-01   8.2875578e-01  -4.2888278e-01  -8.6054214e-01  -5.4611494e-01  -8.0484322e-01  -1.8339613e-01   8.3308294e-01  -3.1407541e-01   9.3138507e-01   9.1025997e-01  -6.5151166e-01   7.4242769e-01  -1.1022455e-01   1.2579817e-01   9.3273094e-01   4.5491839e-01  -6.7552885e-01   8.9374294e-01  -5.4545218e-01   4.6356759e-01  -6.1233084e-01  -6.5659191e-01   7.6211858e-01  -6.2786599e-01  -6.1588132e-01  -2.5018304e-01   5.5824907e-01  -3.0070514e-01   4.5940378e-01  -5.7127156e-01   7.7952164e-01  -9.2505817e-01   2.4821988e-01   9.1850547e-01   4.9213867e-01   3.7433197e-01   7.5835746e-01  -9.8291452e-01   8.0424493e-01  -8.2779252e-01  -4.1907815e-02   4.6441945e-02   9.3250553e-01  -3.6980286e-01  -1.8295358e-01  -8.5783413e-01   5.8928639e-01   3.3001582e-01  -7.0074346e-01  -8.2662665e-02  -6.9237592e-01   8.7328166e-01  -6.3276920e-01   4.5530135e-01  -9.1245183e-01   7.1531524e-01   3.7723249e-01  -8.1561848e-01   4.3414141e-01  -1.8851977e-01  -7.3279276e-01  -8.2900133e-01  -3.6161543e-01  -3.1673222e-01   1.8360515e-01  -2.1055931e-01   7.6073248e-01  -5.9298099e-01  -1.5868393e-01   1.0546809e-01  -8.3541931e-01  -1.1297126e-01   8.5231265e-01  -3.4541174e-01  -9.8668050e-01   1.9113590e-01  -5.4917405e-01   1.0948800e-01   8.8383901e-01  -9.3737756e-02   1.6173010e-01  -9.3476652e-01  -9.3748294e-01   3.8768278e-01  -2.0190664e-01   9.9942240e-01  -8.8915275e-01  -3.1608417e-01   4.9790757e-02  -2.3661190e-01  -3.0815110e-01  -3.4478293e-01   2.3212737e-02   3.3220733e-01   8.3987227e-01   6.7464598e-01   8.6618142e-01   1.0722176e-01   6.1166341e-01  -1.3604945e-01   5.9119758e-01   5.5402878e-01   4.5573474e-02   7.8463791e-01  -8.2479762e-01  -9.7393071e-01  -8.4034464e-01   4.9000406e-01   5.8490269e-01  -9.0976736e-01  -8.4056275e-01  -1.7740423e-01
   4.8145454e-01  -7.4632452e-01   3.1911359e-01  -8.2628027e-01   3.1945818e-01   7.8921124e-01  -1.1178725e-01   8.6268493e-01   7.0377103e-02   5.2917435e-01   9.1111624e-01   5.5552478e-01  -3.0116994e-01  -4.4629065e-01  -3.3774790e-01  -8.5693510e-01   7.9205381e-01   6.1902819e-01  -8.8030453e-01  -9.6670443e-01  -7.7712623e-01   2.5117505e-01   1.2382681e-01   8.4722744e-01   5.7459525e-01  -3.9311187e-01  -4.1262930e-01  -8.5016972e-01  -2.2266804e-01  -9.1343971e-01  -4.2549781e-01   1.1826493e-01  -7.4733288e-01  -2.6821823e-01   2.6934763e-01  -9.3416336e-01  -8.9680468e-01   7.2597639e-02   5.1262450e-01  -1.1793227e-01   5.5714688e-01   5.1241152e-01  -4.3969784e-02  -6.4227873e-01  -5.8032755e-01  -7.8059497e-01   2.2495941e-01   9.6421397e-01  -4.0473671e-02   8.3745388e-01   2.4007594e-01   1.3846533e-01  -7.0071635e-01   6.8427124e-01  -4.6579071e-01   4.4673598e-01  -3.0303838e-01  -9.4584986e-01   9.0919925e-01  -8.8060359e-01  -8.4268050e-01  -1.4107243e-01   2.1022250e-01  -8.3984727e-01  -5.9447482e-01   2.5206052e-01  -5.5072174e-01   8.6026006e-01  -5.8613781e-01   3.2481995e-01   1.1889704e-02   9.2116433e-01  -6.5243134e-01  -8.7548484e-01   5.2345664e-01  -7.6913077e-01  -7.8148954e-01   7.0932098e-02   6.1364934e-01  -9.7018339e-01  -8.4668862e-01   6.8990046e-01  -3.1003471e-01  -3.9432734e-02   8.6827369e-02  -2.4274922e-01   3.4322119e-01  -1.6822877e-01  -7.3371680e-01   1.3779535e-01   9.0871649e-01  -7.4693454e-02  -4.5424425e-01   5.0378271e-01   6.5577313e-01   1.3550214e-01  -3.2152320e-01   3.6036313e-01  -8.3307161e-01  -2.8014226e-01   3.3398665e-01   5.9239629e-03  -1.0694093e-01  -4.7611038e-02   1.4955383e-01  -9.3828295e-01  -3.4665235e-01   3.3771672e-01   2.3397705e-02   2.3043940e-01   3.5222550e-01   9.2028946e-01   1.4834650e-01   5.6422841e-01  -5.9654237e-01  -9.3126691e-01   8.1191709e-01   5.5164619e-01   6.0452205e-01   7.2016489e-01  -6.0709895e-01   1.6712612e-01   6.9980635e-02  -7.6705281e-01   7.2537677e-02   6.4415867e-01   6.9530742e-01   7.6453863e-01  -1.1053114e-02   6.8984549e-01  -5.4251606e-01  -2.7749854e-01  -3.9078678e-01  -8.6560775e-01   5.2575267e-01   5.8383773e-01  -9.3654742e-01   5.0982259e-01   8.3830286e-01  -8.2130115e-01   5.1723982e-01  -8.6221362e-01  -5.6355523e-03  -2.0339452e-01  -1.1742216e-01  -6.3608528e-01  -5.8315595e-01  -4.7518788e-01   4.1386801e-01   4.3310152e-01   8.7480156e-01   1.4666829e-01  -9.1961363e-02   1.3635083e-02  -2.2097173e-01  -9.1658066e-01   3.2668394e-01  -1.0113772e-01  -5.1075038e-01  -5.1760051e-01   1.9809831e-01   6.8849774e-01   1.6254452e-01   5.5972562e-01  -3.2400134e-01  -3.3668296e-01   1.7321458e-01  -7.8616284e-01  -5.7434084e-01  -9.9460174e-01   7.2488795e-02  -4.1195034e-01   7.0659753e-01  -7.5195147e-01   1.4166684e-01  -6.6941251e-01  -3.5119291e-01   9.9843135e-01   9.8573112e-01   8.3979715e-01   4.0399645e-01  -6.6327590e-01   6.7659706e-01   2.7984235e-01   4.4794041e-01   4.7399608e-01  -4.4950239e-01  -8.4479008e-01  -3.1850450e-01   3.0556593e-01   3.3415669e-01   5.8975636e-01  -6.2850815e-01  -1.2140278e-01  -8.8999095e-01   1.8212292e-01  -7.0937684e-01   9.3239157e-01  -3.7186424e-01  -4.5369590e-01   7.9626771e-01   9.3787430e-01  -4.5657647e-01  -7.5488029e-02   3.5229969e-01   5.4714746e-02  -1.4680993e-01  -2.3298266e-01  -8.4508294e-01  -6.9642581e-01   6.1695039e-01  -3.6785011e-01   5.2452956e-01  -4.4738816e-01  -3.2433040e-01  -3.1310650e-01   1.5013903e-01   5.0111514e-01  -7.3656998e-01   6.5285631e-01  -3.0565319e-01  -5.5243961e-01   5.7175430e-01  -9.8018619e-01   5.8891442e-01  -9.3790772e-01  -5.7294761e-01  -9.7367129e-02  -1.0859521e-01  -7.6041194e-01   2.1697629e-01   2.9481647e-01  -5.7156738e-01   7.4504588e-02  -8.0303922e-01  -4.0769180e-01   4.9941180e-01  -8.1614018e-01  -5.9458687e-01   7.1335766e-01  -6.1176664e-01   5.1377057e-01  -3.5349556e-01  -6.7908953e-01   6.4227665e-01   6.2173589e-01  -6.3171265e-01  -2.5071580e-01   6.6569462e-01   6.4945428e-01  -7.9707148e-01   8.3755186e-01   4.2109093e-01   6.8999723e-01   9.4454909e-01   3.9080908e-01  -2.7668504e-01  -5.8622665e-01   2.9547803e-01  -1.8065344e-01  -2.4456411e-02  -8.2604275e-01   2.5976168e-01  -5.6829859e-01   7.7348925e-01   8.7160529e-01   1.9356551e-01   2.5288785e-01   6.3419024e-01  -8.9707668e-01   2.8470472e-01   5.9651752e-01  -9.0682562e-01  -2.8607557e-01  -5.8326942e-01  -4.1254923e-01  -4.7044090e-02   2.0959154e-01  -2.9843489e-01   2.9531424e-01  -8.0450950e-01   6.4152933e-01  -4.6033760e-01   4.0419222e-01   6.2379157e-01   5.4262430e-01  -3.2903148e-01  -9.7440201e-01   5.4726976e-01   2.2059167e-01   6.8474799e-01  -4.0070684e-01   6.0735450e-01   4.5586599e-01   3.0923064e-02   6.2770012e-01  -8.8182881e-02   8.8528844e-01  -4.1590227e-01   6.2075057e-01  -2.2917713e-01  -1.7285979e-01  -7.5102252e-02  -4.9719643e-01   7.7408504e-02   1.6133239e-01   4.4764293e-01   4.6302376e-01  -6.5674761e-02  -5.6088820e-01   9.7926098e-01   4.4764434e-01  -7.1395452e-01   4.6119036e-01  -4.4648989e-02   6.7995631e-01  -7.3947042e-02  -3.3045681e-01   6.0115649e-02   4.3683899e-01   8.9406464e-01   1.9295711e-02  -9.3915820e-01   1.8658814e-01  -5.9924322e-01   7.4094797e-01   5.1407782e-01   3.3513444e-02  -1.2643049e-01   4.5894915e-01  -5.6641634e-01  -9.8212223e-01   9.9662640e-01  -2.9484523e-01   5.0412219e-01   4.0438460e-01  -9.7766983e-01  -6.9151448e-01   9.2475144e-01  -8.0268159e-01  -2.8008138e-01   8.1294010e-01  -4.9526213e-01   4.1480528e-01  -4.5516672e-01  -4.5938662e-02   8.0718210e-01  -2.4171905e-02  -5.5652832e-01  -7.8918714e-01   3.0253773e-01   5.6171485e-01  -3.5295632e-01   7.4471400e-01   8.4990969e-01  -3.9674778e-01   1.2629971e-01   7.2906725e-01   2.2457704e-01  -6.7100995e-01  -6.9289929e-02  -1.1092813e-01   2.2720138e-01  -2.7769259e-01  -7.0901102e-01   1.1124950e-01  -6.0773708e-01  -5.0190954e-02   6.5051783e-01  -8.0305398e-01  -4.9369516e-01  -3.8271968e-01  -1.5036302e-01  -4.3372081e-01  -3.6105106e-01  -3.2104178e-01  -9.1008099e-01  -9.6054848e-01  -2.1107547e-01  -7.9491668e-02  -1.7738728e-01  -5.8233350e-01  -4.7753824e-01   2.0920127e-01   3.8545952e-01  -4.8735234e-01  -4.2937457e-01   8.6669153e-01  -9.0051870e-01   5.6088992e-01  -4.4174140e-01   9.4926224e-01  -4.7931326e-02  -6.8448857e-01   4.0138647e-01   1.1453271e-01  -7.1856397e-02  -2.6169440e-01  -3.7034616e-01  -8.4481991e-01  -9.8960464e-01   3.0442780e-03  -2.6152044e-01  -4.3990721e-01  -8.0314885e-01  -2.0477387e-01  -6.5512194e-02  -1.7946489e-01   4.3395255e-02  -9.4129953e-01  -5.0502487e-02  -8.8180454e-01   2.6405685e-02  -3.5013903e-01   9.0484720e-01   7.4819456e-01  -9.3621959e-01  -9.7489249e-01   5.1014672e-01  -6.8794248e-02  -1.3092463e-01  -3.5093238e-01  -7.5037733e-02  -7.2101145e-01   8.3391016e-01   4.3961117e-01  -5.4550952e-01   8.5256890e-01   3.6211110e-01   3.6741585e-01  -5.8357279e-01  -7.5115472e-01   3.8649172e-01  -8.6144137e-01  -5.3529105e-01  -7.5394170e-01  -8.6344971e-01  -4.7813334e-01   2.3528241e-01  -9.1824047e-01  -5.0920234e-01   9.7790428e-02   1.7665252e-01   9.8011950e-01   3.2777140e-01  -8.9490059e-01  -2.6668590e-01  -8.1079786e-01   4.6259424e-01   6.9343483e-01   3.6454219e-01  -3.0894288e-01  -1.2778373e-01   2.4633700e-01   9.8917032e-01  -4.3679988e-01   3.0119025e-01  -6.6275148e-01   4.6258857e-01  -2.0423639e-01  -7.3552963e-01   7.7695009e-01  -6.5556777e-01   3.9286435e-02   2.9046227e-01  -7.0903574e-01   4.3577347e-01  -1.7257119e-01  -4.9447227e-01  -3.2378489e-01  -5.2007114e-04  -7.3363214e-01   1.8257001e-01   7.9602157e-01  -5.3782645e-01  -6.5710379e-01   4.2441323e-01  -2.0053987e-01  -1.2561129e-01   8.0199447e-01  -5.0803210e-01   2.1138901e-01  -4.1685110e-01   4.7112384e-01   5.9200722e-01   4.3416869e-01  -1.0835819e-01  -4.2866609e-02   2.4930147e-01   2.4492954e-01   3.3900620e-01  -5.9141443e-01  -7.2723739e-01   2.4104754e-01   3.8579778e-01  -6.9968746e-01  -2.7345271e-01   6.5377179e-01   9.3323102e-01   9.7990509e-01   6.6010467e-01  -7.2307413e-01  -1.7887121e-01  -1.7773444e-01  -6.6176535e-01   2.8940970e-01   3.4576631e-01   2.3517569e-01  -8.2892745e-01   2.1695434e-01  -9.1622866e-01  -3.9712975e-01   3.0764386e-02  -7.2199878e-01  -4.6505192e-01   9.4423997e-01   3.9509772e-01  -3.0116842e-01  -6.9192938e-01  -8.3872884e-01   8.6252473e-01  -2.8468490e-01   5.2758698e-01  -8.2232043e-01  -2.8582460e-02  -9.4392773e-01   2.0842859e-02   6.9217230e-01  -2.2590126e-01  -5.9370118e-01   4.1471056e-01  -5.3213799e-01  -8.9878130e-01  -8.7378499e-02  -3.1568763e-01   5.3477660e-01  -6.7344493e-02   9.8064359e-01  -4.3156388e-01   2.2372890e-02   1.5889523e-01   1.3643162e-01  -2.1385064e-01   6.2972840e-01  -3.5754410e-01  -1.1697598e-02   5.4546597e-01   9.1529987e-01  -7.8780322e-01   5.7790425e-01   6.4847913e-02   1.6507995e-01  -5.0923991e-01  -5.5346501e-02  -9.6765351e-01  -5.9133286e-01   9.1822380e-01   3.0970104e-01  -2.0894566e-01   7.6344750e-01   4.2417494e-01   5.3318633e-01   9.5683036e-01  -8.8730003e-01  -2.4382549e-01  -7.1865437e-01  -8.2623031e-01   9.8915686e-01  -6.7950004e-01  -7.9627915e-01   7.2371920e-02  -3.1323284e-01   8.1189079e-01   8.0843503e-01  -4.5069663e-01  -8.6191413e-01   5.9385832e-01   8.8045304e-01   6.8770022e-01   1.0637810e-01   5.5612332e-01   8.6336884e-01  -3.1717571e-01   4.1013494e-01  -8.2850867e-01   4.7543484e-01   9.1992973e-01   9.3610223e-01   1.5417251e-02   2.1771747e-01  -2.9339637e-01  -9.7677027e-01   8.6377906e-01  -2.5809527e-01   9.9579716e-01  -6.5111763e-01   4.6222379e-01   8.7572672e-01   1.4639376e-01   4.3083550e-01   9.0886482e-01  -2.6213411e-01  -3.6045180e-01  -5.5114973e-01   2.1319741e-01   7.3079649e-01  -9.2685898e-01  -7.2795886e-01  -1.2032733e-01  -9.8294126e-01  -9.0106962e-01  -1.3445868e-01  -6.9649659e-02  -5.8286974e-01   9.0821514e-01  -8.1388529e-01  -2.6333467e-01  -3.7163207e-01   9.6531584e-01  -4.7486825e-01  -9.8114699e-01   7.6464310e-01   9.4522795e-01  -7.6058917e-01   6.6638558e-01  -7.9455361e-01  -3.0097832e-01  -2.3911792e-01   5.3139573e-01  -7.3941754e-01  -3.0157900e-01   5.3647430e-01  -6.7478352e-01   9.6381682e-02  -6.2068528e-01   9.3907462e-01   2.2270241e-01   4.5687122e-01   2.3139217e-01   4.8601754e-01  -6.0577901e-02   3.1437505e-01  -4.9376815e-01  -3.2175188e-01   1.0847041e-01  -7.0478104e-01  -5.9211964e-01   7.6899794e-02   4.7278753e-01  -5.2772240e-01   7.5846768e-01  -5.2938787e-01  -1.3755105e-01  -3.3114271e-01   3.1014951e-01  -3.4671891e-02   6.8053485e-01  -3.6814393e-01   7.1273514e-01   6.2337253e-01   1.4355870e-02   3.9585365e-01   8.6888155e-01   8.1932995e-02  -7.7525114e-03  -8.9986890e-01   1.2984725e-01   6.0368487e-01  -9.9273764e-01  -5.4726530e-01   6.8072133e-01   2.1836999e-01  -3.7284559e-01   9.8274987e-01   6.3014433e-01  -9.8740128e-01   1.0492285e-01  -2.8897253e-01  -9.0504049e-01  -7.8540714e-01  -8.8459249e-01  -5.2394738e-01  -7.0498639e-01   3.8201310e-01  -5.4530630e-01  -7.5035025e-02   1.4718794e-01  -3.9730319e-01   1.5013867e-01   2.6524305e-01   5.7914370e-01   6.7035782e-01  -7.8018212e-01  -3.0372596e-02  -6.5698632e-01   1.9629002e-01   5.2631658e-01  -8.5805170e-01   7.6367064e-01   1.1221446e-02   2.3657063e-01  -4.9899385e-01  -5.7604575e-01  -1.1534245e-01  -9.4573105e-01  -5.9370468e-01  -7.0178160e-01  -6.3460600e-01   1.3875624e-01  -2.7419775e-01   2.7262015e-01   1.6267881e-01   2.8978507e-01   6.4499314e-01   4.1309717e-01  -3.6271589e-01   8.4713446e-01   1.3242200e-01  -3.6392872e-01   9.6161897e-02   3.5400041e-02  -4.8575864e-01  -2.4168694e-01  -4.8488955e-01   2.0942835e-01  -6.4321338e-01   7.7601623e-01  -5.5653917e-01  -2.0290085e-01  -2.5616807e-01  -9.0083281e-01  -1.5094525e-01  -5.1344397e-01  -2.5738071e-01   1.5487496e-01   1.5776602e-01   3.6569514e-01  -2.5127715e-01  -4.0638133e-01  -2.6376880e-01  -5.8749590e-01  -1.9828208e-01  -1.3730797e-01  -3.5337360e-02  -3.7262085e-01  -2.2459889e-01  -5.4955492e-01   7.9515776e-01   6.0409464e-01   8.4097806e-01  -5.8049784e-01  -6.1568239e-01  -1.8339456e-01   6.0999542e-02   6.7498404e-01  -4.9908206e-02   2.7180042e-01  -6.1539795e-01   9.5503815e-02   7.4503469e-01   5.3137540e-01   5.9465354e-01   5.4439588e-01  -5.0080175e-01  -7.0233488e-01  -4.7936352e-01   8.7963206e-01  -6.7440080e-01   4.5725328e-01  -6.9395106e-01   4.7817386e-01   3.2758073e-01   5.4704816e-01   5.1688185e-01  -1.6739458e-01  -9.0196730e-01   6.2132219e-01  -1.5777231e-01  -8.2611336e-01   1.9960788e-01   5.8033834e-01  -6.3180966e-01  -3.2236030e-01   9.5430390e-01   1.7458640e-01   7.0523621e-02  -7.9989110e-01  -9.9869151e-01   7.9984983e-01  -9.3220269e-01   3.3238233e-01  -4.0505513e-01   5.3116874e-01  -2.9827971e-01  -6.1049395e-01  -6.5411342e-01  -5.1591545e-02  -2.7472630e-02  -4.0336919e-01  -5.7804055e-01   9.6502050e-01  -5.7098262e-01   7.0180438e-01   8.9329792e-01   5.2376650e-01  -5.2875270e-01  -5.6961690e-01   5.5986803e-01   6.2727944e-03   3.3698230e-01   7.3424740e-01  -7.7180568e-01  -3.4882791e-01   4.8076779e-01  -5.2769753e-01  -7.5083565e-01   6.4131846e-02  -9.5531021e-01   5.1643828e-01   1.1949716e-02  -6.7060260e-01   4.2642949e-01  -9.6953647e-01  -3.5392112e-01   2.7662148e-01  -7.6021983e-02   6.8503336e-01   7.9534192e-01   5.2354062e-01   9.2574276e-01  -6.2671816e-01  -9.7507441e-01   3.9722897e-01   4.3762802e-01  -7.5249781e-01  -7.2940589e-01   9.9945397e-01   5.7253309e-01   2.2923192e-01  -7.1398675e-01   4.7598427e-01   1.2486293e-02  -7.3876124e-01   4.7415131e-01   5.5941881e-01   9.4351620e-01   6.0113559e-01  -7.9279106e-01   9.4634730e-01  -8.1654994e-01  -6.2090952e-01  -8.0874831e-01   6.3917370e-01  -7.2659998e-01   3.3148539e-01   1.6185068e-01   1.2021416e-01  -1.4213086e-01  -7.7451913e-01   5.1332068e-01   8.5560232e-02   9.7908116e-01  -9.4728991e-01  -9.3620956e-01  -8.3601197e-01  -3.8616385e-01   3.9657000e-01  -2.1873365e-02  -6.8026577e-01  -9.0466718e-01   6.4914536e-01   3.0275081e-01   3.3150209e-02   8.5414700e-01   4.0039229e-02  -7.9168595e-01  -3.0107248e-01  -3.6618856e-01   9.6207123e-01  -4.3284749e-01   2.6849270e-01  -9.4853284e-01  -2.8259794e-01   7.6697785e-01   5.9543792e-01   5.2032213e-01   8.6283267e-01   8.6486821e-02   8.2909696e-01  -4.3977012e-01  -9.7529383e-01   8.2794720e-01   2.6129944e-01   5.9886329e-01  -3.0788422e-01   6.7821344e-01  -1.6245573e-01   9.6373695e-01   3.7572635e-01  -5.6139186e-01  -8.5667112e-01   9.4072094e-01  -1.2232574e-01   1.5742436e-01  -8.9573903e-01   2.8953790e-01   8.8302854e-01   7.0227630e-01  -9.8937690e-01  -8.1566002e-01  -2.1132540e-02   1.6620349e-01   7.4736252e-01   6.9096093e-01  -8.8034170e-01   3.6533475e-01  -4.7568152e-01   7.1749209e-02  -1.2880755e-01  -4.9253619e-01  -8.8683724e-01  -4.3963714e-01   5.5039578e-01  -1.2027516e-01   6.7050153e-01   5.6002686e-01  -2.4653683e-01  -3.4207309e-01  -8.3708962e-02   8.6819723e-01  -6.5997111e-01  -9.3251732e-02  -3.2599242e-01   1.2957437e-01   8.8854264e-01  -2.5572838e-01   5.1725714e-01   9.4735579e-01   1.3123273e-01   2.3990677e-01   4.7512653e-01  -9.6400230e-01  -8.5013459e-01   1.7347333e-02   9.1271492e-01   2.3351894e-03   1.9765183e-01  -2.9271935e-01  -7.4027022e-01  -9.3734940e-01  -6.2822227e-01  -7.5520888e-01   5.3322456e-01  -1.6427808e-01  -7.4102076e-01   7.2477819e-01  -3.4084141e-02   5.5125793e-01   4.7838567e-01  -5.4918526e-01   7.9881314e-01   8.6345017e-01   2.0039564e-01  -6.9036593e-01  -8.5149460e-01   4.4200235e-01  -1.4494623e-01  -8.3641168e-01  -2.5704827e-01   3.8826382e-01  -9.8052916e-01  -4.7462292e-01  -4.2405277e-01   6.4386951e-01  -6.2939744e-01   4.4265850e-01  -8.7279634e-01   5.9448451e-01  -3.2851875e-01   3.3544112e-01   7.6615930e-01   7.5193694e-01  -9.2071252e-01   3.1882535e-01  -8.6005670e-02  -1.6568202e-01   1.0473279e-01   5.1679610e-01  -2.3046738e-01  -6.3070494e-01   9.2139163e-01  -4.4136661e-01   9.7789644e-01  -9.7346205e-01   6.9882736e-01   9.1732933e-01   8.8159781e-01   4.6334261e-01  -3.1448167e-01  -9.5597951e-01
