  -7.2609809e-01   6.1861703e-01  -5.6185601e-01   7.1842576e-01  -7.3837726e-01   1.9290124e-01   8.1207225e-01  -3.4003454e-01   5.5541744e-01  -3.0587576e-01   3.4821800e-01   9.6362753e-03  -9.9700367e-01   4.1489168e-01   9.4280995e-01   1.9994455e-01   6.7834914e-01  -8.4674016e-01   6.3920153e-02   5.0691748e-01   8.9961630e-01  -7.2284791e-01   8.6137632e-01  -4.8006912e-01   3.3593766e-01   7.9656810e-01  -4.2370050e-02  -2.8261982e-01   5.6105108e-01  -7.1201337e-01  -8.0997232e-01   7.6738379e-01   9.2008499e-01  -7.4742367e-01  -9.5590003e-01   2.1036741e-01  -7.2961013e-01   4.2822888e-01   3.7706205e-01   5.6011575e-01  -1.0845628e-01   8.1510122e-01  -8.5957763e-01  -1.8276911e-01   1.7525316e-01  -1.1445022e-01   4.0107112e-01   5.4158282e-01   8.8553487e-01  -7.3660293e-01   4.6562973e-01   3.8900940e-01   9.5905763e-01  -9.2457820e-01   6.7804643e-01  -2.3137922e-02   1.8368952e-01  -6.8254779e-01   3.2613778e-01  -4.6399480e-01  -5.9211353e-01  -2.4247347e-01  -5.1362617e-01  -1.5351527e-01  -1.1488959e-01  -5.9791049e-01   7.4274494e-01   4.8398055e-01   9.5200960e-01  -6.1454902e-01   5.3756660e-01  -2.2364972e-01   7.8642046e-01  -3.1036586e-01  -6.7615768e-01  -1.5028497e-01  -5.9591161e-02   9.9795977e-01  -9.0637430e-01   8.4451494e-02   7.1962103e-01   7.4357105e-01   8.2046379e-01   5.4259805e-01  -8.7699648e-01  -4.3569302e-02   9.9719121e-01   9.1306752e-01  -5.1209144e-01  -3.6854174e-01   8.9050046e-01   1.5384136e-01   8.2655353e-01   7.6180712e-01  -4.7028985e-01   2.8271332e-01   1.9832804e-01  -7.1500830e-01   7.2574519e-01  -6.7574808e-01  -1.2660223e-01  -1.5967382e-01  -5.0404395e-01  -2.2479312e-01   6.0291311e-01   4.3761222e-01   6.7534348e-01  -1.2349308e-01   4.2330182e-01  -1.0838307e-01   8.1215204e-01  -2.7233831e-01   5.3405957e-01   7.6853044e-01   1.0329990e-01  -8.3075873e-01   7.0372673e-01  -4.7904740e-01  -1.7025983e-01   9.2997256e-01  -5.2341626e-01  -6.1937210e-02  -6.5899509e-01   3.9883077e-01   7.6533969e-01  -1.7008672e-01  -4.8046361e-01   8.7827997e-01  -7.4762596e-01  -9.1581725e-01  -3.8307294e-01   8.6180191e-01  -8.9472768e-02  -9.1750993e-01  -7.5449120e-02   3.5299585e-01   4.3893801e-01  -7.3453887e-01  -9.6607440e-01  -7.8660737e-01   3.6336814e-01   6.2670054e-01  -1.6137895e-01  -9.1303637e-01  -3.0773184e-01  -8.0781379e-01  -5.0709928e-02  -1.1948901e-02   9.1892785e-02  -1.8958451e-02   7.6693312e-01   9.1017962e-02  -8.4335507e-01  -5.0717736e-01   5.4216828e-01   8.8841242e-01   6.7133147e-01  -7.8871390e-01  -4.4217670e-01   9.1659914e-01  -2.7571147e-01   8.2223419e-01  -1.6922840e-01  -8.7157312e-01  -7.8189012e-01  -9.7049428e-01   5.6101760e-01   7.0669794e-01  -3.5321764e-01   2.9490172e-01  -5.5816248e-01  -1.6260346e-01  -8.8911695e-01  -5.4115133e-01  -4.2613458e-01   3.6184912e-01  -9.2512328e-01  -8.3339450e-01   9.9802021e-01   3.3211875e-01   3.2012840e-01   1.8005587e-01   2.7583889e-01  -8.0239647e-01  -5.2562721e-01   8.1206958e-01   9.2208524e-01  -6.3022105e-01   6.6748208e-01  -1.1742001e-01   7.2995333e-01   6.9306571e-01  -9.2247188e-01   3.7556741e-01   4.1506543e-01   1.5869187e-01  -3.0911152e-01   5.0718146e-01   7.9646433e-02   9.8113834e-01  -9.0029608e-01   4.1723770e-01   5.7703073e-01  -1.3702349e-01  -5.5028806e-01  -3.0852695e-01   4.9325859e-01  -8.0587845e-01   5.0974604e-01   9.8214090e-01   2.0232686e-02  -2.5373427e-01   6.9729830e-01  -7.5763236e-02  -6.1215280e-01  -5.0378533e-01   5.8422655e-01   5.6349639e-01  -5.8280569e-01   3.1845627e-01  -7.2088437e-01  -3.8917281e-01  -1.6272508e-01   8.9185053e-01   7.2137969e-01  -6.8291639e-01  -1.7224492e-01   1.9919450e-01   8.8913918e-01  -2.9292816e-01  -8.1369060e-01  -2.8123090e-01  -9.0487239e-01  -9.0785124e-02  -8.5057882e-02   5.0214131e-01   3.4413220e-01   7.7399989e-01  -3.4774769e-01  -1.3885668e-01  -6.7243981e-01  -9.7710556e-01   3.7619777e-01   4.1553963e-01   4.5909105e-01   4.4633946e-01  -5.0779474e-01  -4.3011894e-01   9.5177049e-01   5.1028422e-01   8.9404995e-01  -6.0858184e-01   4.4964045e-01  -2.6018771e-01  -5.2742321e-01  -9.2421302e-01  -1.0782612e-01  -7.5720411e-01   4.0424617e-01  -6.7741425e-01  -7.3563981e-01   2.6009384e-01  -4.8058949e-02  -5.6665576e-01  -5.6833397e-01   4.9055529e-01  -6.9295676e-01   7.4506362e-01   9.1329101e-01   3.0999541e-01   8.5183028e-01   8.6589187e-01   8.9245322e-01  -6.0035470e-01  -6.7236741e-01   9.9299722e-01  -8.4229727e-01   8.5439551e-01   3.6722102e-01  -1.4741862e-01   5.8092179e-01   6.5478968e-01  -5.4202277e-01  -2.7046913e-01  -3.0180261e-01   3.7862524e-01  -1.0123118e-02   4.8532499e-01  -6.1086151e-01   5.9730365e-01   7.1960229e-01   7.5699721e-01  -4.9946097e-02   2.9578070e-01  -9.3414683e-01  -9.9304353e-01  -2.0580870e-01   9.6210952e-01  -7.7491996e-01   3.8134327e-01   8.7140757e-01  -8.5086728e-01  -2.3031360e-01   9.5021589e-01  -5.0444915e-01   1.8702931e-01   4.0527416e-01   6.6180433e-01  -1.8978660e-01   6.6662547e-02  -2.0154826e-01  -3.4954637e-01  -9.8754112e-01   9.9492742e-01   5.6638916e-01   2.5992531e-01  -4.5434709e-01  -6.1475127e-02  -9.1189545e-01   3.1894841e-01   1.6586329e-01  -9.3607256e-01   9.3749807e-01   1.1826336e-01   7.7596195e-01   1.1570555e-01   5.4128620e-01   8.3595654e-01   6.2705801e-02  -9.0210199e-01  -3.9720574e-01   4.1213919e-01  -5.4543424e-01   1.7984805e-01   8.7667899e-03  -9.6041817e-01  -1.5980336e-01   6.6744141e-02   8.9196374e-01  -3.0573831e-01   5.3993640e-01   6.5954534e-01   6.7260997e-02   7.5856577e-01  -1.4640789e-02   6.5469058e-01   2.8828799e-01   2.3938201e-02   5.0697267e-01   8.6526292e-01   6.3312346e-03  -5.1428681e-01   7.4379026e-01  -7.7667558e-01   1.5275439e-01  -2.4478998e-01   9.4414665e-01   5.7142179e-01  -8.5383893e-01   1.8722896e-01  -1.9133570e-01  -1.8358568e-01  -9.3916974e-01   1.1326746e-01  -6.1827344e-01  -1.6798489e-01  -2.5022804e-01  -4.2432325e-01   6.8875503e-01   6.1021333e-01  -4.9659141e-01  -5.7633965e-01  -8.5217917e-01  -2.8462449e-02  -5.8728488e-02  -6.7193959e-01   3.9415568e-01  -7.7751063e-01   7.7087365e-01   4.5672356e-01  -7.2766546e-01  -1.9075812e-01  -6.1899828e-01   8.0998966e-01  -7.2687246e-01  -8.0084353e-01   1.1477631e-02  -6.8737947e-01   9.3722582e-01  -4.8321122e-01   4.1921860e-01  -3.8870708e-01   4.9855691e-01   1.8381725e-01   3.6951204e-02  -5.7119788e-01   5.4764620e-01  -8.6236532e-01  -2.4121356e-01   4.7968499e-01  -7.5830557e-01  -9.7834916e-01   3.5479801e-01  -8.3938393e-01  -4.8139160e-01  -7.4254249e-02  -8.3089542e-01   2.6702591e-01   2.0068402e-01  -9.7519909e-01   3.5010186e-01   1.3848991e-03  -6.4285485e-01  -4.8136213e-01  -7.7979195e-01  -6.9909890e-01  -6.6226981e-01   8.5996139e-01  -9.0668231e-02  -3.9847211e-01  -4.4669226e-01   9.0021369e-01   1.8306620e-01   7.8638579e-01   6.1001637e-01  -3.9367430e-01  -1.8424030e-01  -1.9382125e-01  -6.0977672e-01  -7.8620387e-02  -9.3140369e-02   4.2684590e-01  -7.8216192e-01   8.1518175e-01   9.4216253e-01  -1.2874439e-01   3.1738841e-01  -4.8919351e-01   9.2057465e-01   6.5988190e-01  -2.3034527e-01   5.6755725e-02  -9.8717446e-01   8.3288995e-01   3.1210137e-01  -3.3564581e-01  -5.0169147e-01  -2.7347677e-01   6.8683210e-01   3.5241900e-01  -7.0338727e-01  -1.1385675e-01  -4.4836735e-01   4.3114197e-01   3.7583597e-01   7.3904412e-01  -5.8258291e-01   3.4567604e-02   1.2687887e-01   5.3022547e-01  -5.6795517e-01  -8.5846867e-01   8.0887555e-01  -5.0629048e-01   3.2356898e-01  -1.2956067e-01   9.2555206e-01   8.0623583e-01   9.1626486e-01  -9.5269738e-01  -1.3269358e-02   7.3024923e-01   5.2597970e-01   4.9848574e-01  -5.3376535e-01  -2.7742153e-02   1.3409823e-01  -9.5280412e-01  -2.5247003e-01   3.5424111e-01   8.7788592e-01   4.6535137e-01  -7.2812848e-01  -2.2989636e-01   8.0684852e-01  -1.1826070e-01  -3.7008029e-01  -9.6015661e-01  -1.5010169e-01  -9.5980919e-02   2.1005310e-01  -9.5768852e-01   2.4602060e-01  -3.5723406e-01  -5.9096372e-01   8.2051503e-01  -7.4411981e-01   4.7147040e-01   9.2420835e-01  -6.1124175e-02   8.6363830e-01  -9.7910038e-01  -2.8390856e-01  -4.9662306e-01   7.2656730e-01  -2.6421525e-01  -7.0358506e-01  -6.7066695e-01   3.2520028e-01   1.1963674e-01  -9.5017859e-01  -1.3788317e-01  -9.8043038e-01  -1.1395635e-02   5.4793689e-01   7.1391676e-01  -5.3703659e-01  -7.9223126e-01  -6.2816535e-01  -9.4804098e-01  -7.9763650e-01   6.5187346e-01   6.1920437e-01   2.5031995e-01   1.1195305e-01   8.7614153e-01   9.4096744e-01   5.6149035e-01  -7.1218374e-01  -1.5530730e-01  -9.5162152e-01  -3.3485939e-01  -3.6329871e-01  -8.4371447e-01   4.6266020e-01  -7.1830042e-02  -7.0475583e-01   1.1988107e-01   9.7693338e-01  -3.5143010e-01   5.2936338e-01   4.4481561e-01  -5.6518966e-02  -2.7598917e-01   3.2260082e-01   3.4113896e-01  -2.2120018e-01   9.5772238e-01  -6.6845138e-01  -8.6949687e-01   1.5038350e-01   6.1615752e-01  -1.7361404e-01  -5.5282143e-01   8.5611532e-01   2.1862011e-01   9.8213578e-01   1.1421887e-01  -9.5328123e-01   9.1112722e-01   3.1994675e-01   3.2959818e-01  -3.1194830e-01  -1.5546256e-01   7.6776087e-01   7.5778932e-01  -6.6031911e-02   2.0201976e-01  -6.5176266e-01  -2.0724740e-01   7.3194454e-01  -8.9068847e-01   4.1308980e-01   8.9649075e-01  -3.0125774e-01  -5.8077004e-01   8.2691220e-01   3.1362327e-01   4.3324235e-01  -4.8947169e-02  -3.6053347e-01  -1.6234184e-01  -4.7357489e-01   3.9297170e-01  -2.5072848e-01  -4.8053615e-01   4.7505482e-01   5.2909913e-01  -1.8735700e-01  -5.1988185e-01  -5.8677656e-01  -3.6925050e-01   2.7730422e-01   8.4134131e-01  -9.9288557e-01  -2.3088163e-02  -3.5571606e-01  -4.4665227e-01   4.9701096e-01  -6.9397238e-01   4.3883241e-01   4.8100856e-01  -3.6845059e-01  -2.0686044e-01   8.4148171e-01   4.3218853e-01   2.6457732e-01   9.5872220e-01  -7.0211789e-01  -5.2995709e-01   4.9909437e-01  -2.0259153e-01   7.5850579e-01  -2.9214046e-01  -6.4601141e-01   8.2446998e-01  -2.0417689e-01  -1.4642148e-01  -6.5601221e-01   2.8716800e-01  -4.7514801e-01  -2.6087931e-01  -6.5087739e-02  -8.3929310e-02   8.8921098e-01  -2.5646885e-01  -4.3966447e-02   9.6102263e-01   3.8944604e-01  -8.7573797e-01   7.4422562e-01  -2.6189519e-01  -6.3553888e-01   4.8021501e-01   4.1409706e-01   9.3159694e-01   1.7226237e-01  -3.5406153e-01   7.2659801e-01  -5.0777437e-01   8.5704572e-01  -4.1956715e-01   1.3347297e-01   2.0359276e-01   6.7830272e-01   3.7319156e-01  -9.5430105e-01   1.0450730e-01   8.1257991e-01   9.5108198e-01   6.0006503e-01  -8.0268201e-01  -7.1715822e-02   1.1842700e-01   3.2665616e-01  -7.5870322e-01  -1.5890185e-01   7.0369166e-01   2.0642397e-01  -6.0119567e-01  -9.8642541e-01   2.9960421e-01   4.8008583e-01  -2.4537969e-01  -7.9202671e-01   8.0160167e-01   6.6457370e-01   9.9257696e-01  -8.8438973e-01  -7.3148741e-01   9.8598824e-01   4.4791011e-01  -6.1256226e-01  -8.6210554e-02   2.8877290e-01  -3.7679920e-01   9.5881638e-01   9.6383120e-01  -3.8210292e-01  -6.0859401e-01  -6.0230087e-01   7.6419063e-01  -2.3817865e-01  -9.2192579e-01   4.7515874e-01   4.8897899e-01   4.1202074e-02   9.7456459e-01   1.1145120e-01   6.2529519e-01  -8.3789687e-01  -5.0051806e-01  -6.6400225e-01   2.7794158e-01   4.3226747e-01  -5.4291281e-01  -2.3807272e-01   4.0982714e-01  -3.8235949e-01   6.5671746e-01  -9.9385674e-01  -9.6147386e-01   5.6152918e-01   6.0616307e-01   7.6941978e-01   3.8405612e-01  -1.8914336e-01   4.3521452e-01   1.3502062e-01   1.0003521e-01   7.2310764e-02   5.0864135e-01  -4.9430436e-01   1.9132057e-01   4.4977343e-01   5.9659665e-01   3.7117998e-01  -9.9388651e-01   7.6358147e-01  -5.8022761e-01   8.0879125e-01   1.3805535e-01  -9.0887614e-01   3.4380819e-01  -6.6670743e-02   4.4140039e-01  -3.9470179e-01  -7.9859306e-01  -6.5140794e-01  -9.1224135e-01   9.2764777e-01  -3.3741160e-01   7.0382920e-01   2.2346884e-01   4.7020169e-01   4.2763174e-01   3.3585150e-01   6.8361790e-01   2.7294830e-01  -9.1450933e-01  -3.4352971e-01  -7.0875644e-01  -8.6676932e-01   9.9976858e-01  -8.6131394e-01  -1.9946195e-01  -5.3149695e-01   3.4184924e-01  -8.6087833e-01  -9.2199069e-01   2.5730054e-01  -5.1986983e-01  -2.3251224e-01   9.2625944e-01   5.7475194e-01  -2.4762284e-01  -9.2775917e-01   3.6798140e-02   1.3230491e-01  -5.5679756e-01   7.1586004e-01   4.4649192e-01  -1.1834522e-01   4.5417599e-02   2.0335416e-01  -7.1001155e-01   8.0704773e-01  -7.8605846e-01   6.9989264e-01   6.0643965e-01   8.0675314e-01   7.8342127e-01  -4.8789331e-01  -1.5263372e-01  -6.2585229e-01   8.6464371e-01   7.4845834e-01  -1.8930529e-01   9.1980749e-01  -8.3436747e-01   5.8465017e-01   7.3666016e-01  -8.3672697e-01   9.9207941e-01  -9.0239512e-01  -6.1579969e-01   6.3864599e-01  -6.3306295e-01   9.5599347e-01   3.6970413e-01  -8.8441200e-01  -7.9578158e-01   1.7992186e-01   9.2523032e-02  -3.4879735e-01  -8.0557300e-01   6.3838811e-01  -2.9610556e-01  -4.1871805e-01  -2.9522848e-01  -3.8064411e-01  -3.9566560e-01   5.4778771e-02  -3.0683628e-01  -4.2920162e-01   2.2397052e-01  -7.1712512e-01  -2.7714897e-01  -1.8843350e-01  -6.5340735e-01   1.2744247e-01   9.1266650e-01  -9.3442780e-01   4.9697802e-01  -5.4465497e-01  -9.2875157e-01  -2.6885987e-01  -9.6829698e-01   3.5373808e-01  -2.8423610e-01   5.1015589e-01  -8.4130088e-01   4.9679893e-01  -5.5773357e-01   5.4186750e-01   3.6334193e-01   6.4636304e-02  -9.9061211e-01   2.2415823e-01  -2.6053279e-01  -8.8580472e-01  -5.1970982e-01   8.6151031e-01  -8.7957709e-01   1.4194551e-01  -8.7609100e-01   7.3382147e-01   5.3224446e-01  -5.0616264e-01   2.2315467e-01   2.2385908e-01  -7.8190483e-01   9.5911673e-01  -4.3579225e-01  -1.1330114e-01   4.7230464e-01  -8.8854437e-01  -5.0461725e-02  -3.6217752e-01   9.2861421e-02  -5.0285254e-01   4.8069124e-01   9.9467104e-01   3.3125362e-01   6.4841104e-01  -5.1416183e-01   1.6643458e-02   4.2828353e-01   7.1379299e-01  -5.8479532e-01   9.5737393e-01   7.2745046e-01  -5.1263493e-01   5.6046110e-01  -7.5130458e-02   5.1774686e-01   7.1470859e-01   1.8951367e-01   5.8660660e-01   2.3030250e-01   3.4895706e-01  -9.4259182e-01   9.1367902e-01   9.5374662e-01  -9.3361225e-01   9.8859331e-01   2.5121088e-01   4.3725202e-02   6.7192113e-01  -3.8079614e-01   6.7612198e-01   6.5708325e-01   5.4154501e-01   1.6628866e-01   7.3883855e-01  -4.4157448e-01   3.1796586e-01  -6.8234808e-01  -8.7986801e-01   7.3542217e-01  -5.9354760e-02  -4.0440282e-01  -2.0559117e-01   8.5160068e-01   2.2633706e-01   2.4857108e-01   4.8124345e-01   5.3071905e-01  -6.0074841e-01   6.6277623e-01   7.4731236e-01  -3.9073835e-01  -9.3847459e-01  -6.5766461e-01  -3.6720878e-01  -3.3773125e-01   3.7389141e-01   8.9719787e-01  -4.3478988e-01   2.3835620e-01   3.6631374e-01  -8.6601129e-01  -6.9312861e-01  -9.9662933e-03   9.8987407e-01  -2.7732367e-01  -2.5050071e-01  -2.2086673e-02   9.2974044e-01   6.1292405e-01  -8.6315474e-01   4.9400629e-01   2.2621496e-01   6.0175133e-01  -8.6179593e-01  -5.3662069e-01  -1.2769884e-01  -2.1877660e-03   6.9393989e-01  -7.4272254e-01  -9.6909742e-01   9.7151738e-01   3.6475348e-01  -2.5129759e-01   7.2532256e-01  -2.5430148e-02   4.3359147e-01   2.6830338e-02  -8.8496218e-01  -4.6379570e-01  -6.4483642e-02  -5.6414336e-01  -8.6523294e-01   9.8335735e-02   8.7244793e-01   1.7687678e-01   9.4761234e-01   2.6235374e-01  -5.2484470e-01  -8.7070553e-01  -4.6286821e-01   9.5191517e-01  -1.5880553e-01   2.2833155e-01  -2.3736764e-01  -6.2546785e-01  -1.5045841e-03   1.2780036e-01   3.8026580e-01   5.9786837e-01  -7.1508252e-01  -1.6489860e-01   2.6006597e-01   2.9427392e-01  -8.7220927e-01  -5.6172442e-01  -4.8365945e-01   4.5370450e-01   4.0257629e-01   2.7053698e-01  -3.6373771e-01   3.9053887e-02   8.4737194e-01   6.7912216e-01  -8.7709297e-01  -7.4442560e-01   6.9556615e-01  -5.2584591e-01   9.8462625e-01  -2.3354926e-01   5.2988501e-01   3.5429364e-01  -7.5685904e-01   8.9058139e-01   8.5678959e-01  -5.0576315e-01   2.2944712e-01   4.0349945e-01   9.1093873e-02   6.2366832e-01  -1.0913679e-01  -4.9227538e-01  -4.9345128e-01  -8.2296046e-01  -6.7618870e-02   2.6354305e-01   3.6998773e-01  -1.0010414e-01   2.1569203e-01   3.0565731e-01
   6.0209633e-01   8.9121557e-02  -1.0480019e-01  -8.0255857e-01   8.4904011e-01   9.0966213e-02  -9.9512643e-01  -2.2145467e-03  -2.4831388e-01   5.9694046e-01   8.8920882e-02   6.5984976e-01   3.2742589e-01   9.1858609e-01   2.6659564e-01   4.4818333e-01  -5.9178360e-01   4.7182262e-01   5.9527616e-01   2.8979429e-02  -1.3056481e-01  -9.9817769e-01   2.8302946e-01  -1.0367787e-01   3.1496966e-02  -8.5506354e-01  -7.4391628e-01   8.1517232e-01   6.7345892e-01  -3.7829252e-01   4.0045280e-01   1.8463600e-01   1.9065914e-02   9.9251022e-01   9.1077082e-01  -9.4686138e-01   1.4948448e-01  -4.7201006e-02  -3.8705292e-01  -3.2727376e-01  -7.1828241e-01  -1.1533696e-01   1.1923623e-01  -1.4438708e-01  -5.3837760e-01   2.5693988e-01   2.2432306e-01  -3.7830131e-02   3.7110704e-02   6.2213855e-01   3.7854492e-01   6.4765597e-01   3.1816433e-01  -2.9615018e-02  -1.3739260e-01   7.8829793e-01  -1.3918356e-01   9.2417341e-01   2.1329179e-01   9.1402361e-01   2.5214202e-01  -1.8328595e-01   6.6311701e-01  -7.0881948e-02   5.0302788e-01  -2.3954477e-01   7.6285005e-01  -2.5810942e-01  -2.5923240e-01   1.6950406e-01  -4.5307857e-01   6.2027629e-02  -8.0416833e-01  -8.7237608e-01   6.7251091e-01   4.6922346e-02  -5.4402340e-01  -5.3062037e-01  -1.0347304e-01   1.6358533e-01   4.6430023e-01  -9.6739485e-01   7.6673870e-01  -6.9125914e-01  -6.8028224e-02  -1.4010484e-01   9.3645703e-01  -9.8422239e-01   9.7089522e-01  -5.5194226e-01   8.3535705e-01   3.2972254e-01   9.3346981e-01   2.5998041e-01   8.1884744e-02  -3.5011677e-01  -4.8505202e-02   3.0533760e-01  -7.3041323e-01   5.6351649e-01   3.6561967e-01   7.4300076e-01  -6.6145357e-01   2.3208590e-01   6.6478672e-01   4.5770723e-01   4.8776336e-01   4.3247821e-01  -8.8263051e-01   1.6067331e-01   7.5994874e-01   7.6599676e-02   4.6017408e-01   2.1521759e-02   3.4871707e-02   6.5281935e-01  -8.7624872e-01  -2.7251654e-01   5.4819799e-01  -4.6723305e-01   4.5117534e-01   1.1534025e-01   8.7043386e-01   8.4112798e-01   2.2774525e-01  -5.9740415e-01   5.2241038e-01   5.9093776e-02  -7.2387717e-01   4.5277643e-02  -4.7852013e-01   7.9795172e-01   9.6566889e-01   5.3586786e-01  -1.6184539e-01   7.7455933e-01   5.8866646e-01   5.6988713e-01   6.6206458e-01   2.6673712e-01   5.5045172e-01   1.9564084e-01   6.3354945e-01   4.3890209e-01   8.3839125e-01   8.8874212e-01  -8.6741599e-02  -8.0936160e-01  -6.6851084e-01  -8.9465670e-01   7.5918228e-02   2.7485684e-01   5.3646383e-01   9.8955641e-01   8.5380997e-01  -2.4888047e-01   8.1415402e-01   3.8541421e-01   1.8996441e-01  -5.1885926e-01  -8.8770552e-01   6.1031020e-01   6.8521660e-01  -9.6195114e-01   4.5851809e-01  -8.1006381e-01   4.3841071e-01  -2.3511629e-02   6.3862402e-01  -7.9298817e-01  -7.2386066e-01  -9.9719273e-01   8.3244450e-01  -6.0431575e-01   7.9641860e-01  -1.1092883e-01  -1.7333166e-01   8.6366134e-01  -1.3967551e-01   5.1803814e-01  -5.6197988e-01   3.1941605e-01  -1.9573327e-01   1.4973766e-01  -4.8766547e-01   2.6793535e-01   1.4329109e-01  -5.1545791e-01   4.1506887e-03   8.4906461e-01   7.3395675e-01  -3.6415454e-01   4.3436626e-01  -4.1494596e-02   2.8090377e-01  -1.0529494e-01   8.9196029e-01   8.1101975e-02  -7.9157914e-01  -3.0715441e-01  -8.5247173e-01   6.2872036e-01  -3.3286951e-01  -4.1195194e-02  -3.2017228e-01  -4.0319227e-01  -9.3865394e-01  -1.2597062e-02   1.3717894e-01  -4.6735885e-02  -7.3212451e-01   7.8524511e-01   6.3812413e-01  -6.8632718e-01   1.5492032e-01  -7.1310788e-01   8.3967437e-01  -4.0202041e-01  -4.7569092e-02   4.1329571e-01  -3.2173293e-01  -7.5004096e-01  -3.9036623e-01   5.3176373e-01   9.4234689e-01   9.0810804e-01  -8.1070830e-01   6.6090642e-01  -5.5902910e-01  -9.1831483e-01  -4.6954293e-01   3.6488480e-01   6.6962303e-01   2.3573303e-01  -6.2532961e-01  -2.4795643e-01   1.5104360e-01  -5.1654941e-01   5.0568517e-01  -1.6475777e-01  -4.0526610e-01  -5.3436977e-02   8.3785033e-01   6.6446935e-01  -6.3284036e-01   2.3646688e-01   8.4511621e-01  -8.0550162e-01  -5.0004121e-01   4.0584781e-01   6.3648727e-01  -5.4523925e-01   5.2385101e-01   6.8368945e-01  -5.8167599e-01   1.3030835e-01   2.6647879e-02  -2.2602645e-01   5.6538123e-01   3.7343364e-01   1.4632303e-01  -6.7618237e-01   6.1952410e-01   1.7720447e-01  -3.1521541e-02   1.7242598e-01  -1.3239787e-01   2.3132053e-01  -3.4573424e-01   4.7180133e-01  -6.5370484e-01  -8.3872473e-01  -1.4975708e-01  -9.7945535e-01  -6.5507884e-01  -1.0042185e-01  -2.8416554e-01  -3.2981127e-01   8.5890193e-01   3.2430435e-01  -1.8037030e-01  -8.8684708e-01   6.5015535e-01  -5.6974011e-01  -3.7982856e-01  -4.4069696e-01  -4.1632860e-01   2.3334051e-01   2.4540422e-01   3.1819918e-02  -4.7987477e-01   4.0603922e-02  -3.1893213e-01   5.3628730e-01   4.6741080e-01  -6.7853876e-01  -1.0212265e-01   2.9727906e-01  -2.5376134e-01   7.2058704e-01   2.0374282e-01   3.0216324e-01   2.2698881e-01   1.7906831e-01   6.0223058e-01  -7.2320257e-01  -6.8022931e-03   8.0528477e-01  -9.6992635e-01  -8.5498725e-01  -9.4470582e-02   7.0767243e-01   4.7718225e-01  -2.1609489e-01   3.2011224e-01   8.3356367e-01   6.9102767e-01   2.8496017e-01   4.2206705e-01  -4.6875492e-01   7.4214348e-01   6.3779975e-02   1.2839289e-01   9.0189286e-01  -3.9482524e-01   3.2352203e-01   7.5762143e-01  -7.4155152e-01  -9.2726002e-01  -5.0908951e-01   3.5130120e-01   2.7262034e-02   3.2900082e-02   8.7127730e-01  -2.6510927e-02  -3.3592844e-01  -9.3618045e-01  -3.1305811e-01   2.5606543e-01  -9.3291924e-01  -1.2953815e-01  -3.3549762e-01   3.6993398e-01   7.3083121e-01  -3.0696217e-01  -4.3722862e-01  -9.2201869e-01   4.2752683e-01  -7.1400858e-01  -3.8530043e-01  -5.0859934e-01   3.5755340e-01   7.1668282e-01   5.0428246e-01  -7.0285989e-02  -1.2490207e-02   9.4503664e-01   5.5849480e-01  -4.5321135e-03  -1.4433409e-01   3.7670805e-01   7.4625441e-01  -5.3654743e-01  -5.5711578e-01  -5.6669070e-01   5.9184370e-01   8.1032293e-01   7.4884146e-01   8.9733484e-01  -5.1469522e-01   7.5497197e-01   1.7536790e-01   7.4526227e-01   3.2657288e-01  -9.7009131e-01  -1.8438684e-01   1.5590676e-01  -9.5735992e-01   3.2978941e-01  -3.8068579e-01  -5.9454878e-01  -8.5608982e-01  -8.1395573e-01   6.2397444e-01  -1.8042409e-01   4.2358780e-01   4.7387244e-01  -9.3017907e-01   7.7219624e-01  -6.0801433e-01   7.3339353e-01  -1.9620544e-01  -8.1961309e-01   9.4951158e-01  -1.6867666e-01  -5.5318426e-01   1.4657627e-01   1.5019641e-02   1.7204341e-01  -3.9486010e-01  -8.7837387e-01  -8.8515243e-01   3.9209593e-01   7.2931812e-01  -5.1299157e-01  -2.4473928e-01   5.7887957e-01   2.7435041e-01   8.4945986e-01  -3.8862000e-01  -9.4726734e-01  -8.9050155e-01  -9.8963061e-02  -6.7444889e-01   2.7546596e-01  -4.0687922e-01   5.6042174e-01   6.1911688e-01   3.9646104e-02  -7.7022533e-01   1.3522766e-01  -7.3501799e-01  -1.1180533e-01  -9.3587489e-01  -2.8228448e-01  -1.0310207e-01   9.8740015e-01   2.8997927e-01   8.5420355e-01  -4.3017698e-02  -9.3971061e-01  -7.8409096e-01   1.1553297e-01  -8.4397497e-01  -9.0752947e-01  -2.4379968e-01  -5.4860751e-01  -5.0815899e-01   7.6391137e-01   4.3787335e-01   8.7517986e-01  -9.9208499e-01  -4.6545963e-01   7.7242695e-01   9.1876259e-02  -1.8735340e-01   5.9828225e-01   3.3756248e-01  -5.1789764e-01  -3.2471782e-01  -1.3807306e-01   9.6331690e-01  -8.6166444e-01   2.8242139e-01   4.4961215e-01   1.6647429e-01   8.1244648e-01   5.2200695e-01  -6.9407495e-01   4.2233083e-02   8.1504714e-01   5.3293092e-01  -8.3216111e-01  -4.3808160e-01  -6.0891962e-01   5.4312231e-01   9.5618489e-01  -5.0705690e-01  -5.2669858e-01  -4.1361556e-01   7.4580754e-01  -5.2811500e-01  -2.9301392e-01   8.4376693e-02  -5.2002509e-01  -3.3097827e-01   3.8434316e-01   5.6627625e-01   3.0426636e-01   4.4522232e-02  -5.8682334e-02   5.2712763e-01   6.7823242e-01  -4.7706773e-01  -5.5143805e-01   1.3672220e-01   5.6323165e-01   8.0149010e-01   9.2500749e-01  -9.7584928e-01  -1.0941167e-01   3.0547715e-01  -6.3322094e-01   7.2057996e-01  -4.6734400e-01   8.4347262e-01   5.3063544e-01   1.5005164e-01   1.5168819e-01  -8.8248339e-01   2.9374089e-01  -1.0708129e-01  -9.4302506e-01   6.7409941e-01   8.7453432e-01  -4.4874667e-01  -5.4805997e-01  -2.3285647e-01   3.6079057e-02  -9.3376597e-01   9.9282762e-01  -8.9576105e-01   3.5659175e-01   7.4733793e-01   9.0533838e-01   3.7976557e-01   6.5745773e-01   4.9095590e-01  -8.2765211e-01   2.7411287e-01   8.1621114e-01   2.6219590e-01  -1.1607008e-01  -8.1817046e-01  -5.1645482e-02   8.8095284e-01   6.7318836e-01   8.6814974e-01   9.6207797e-01  -1.6437541e-01   5.4820459e-01   1.2592899e-01   4.1703207e-01  -9.3140085e-02  -3.0952991e-01   7.6920618e-01   1.8463483e-01  -8.0450792e-01  -9.9961759e-01   1.3328698e-01   7.9464485e-01   9.4551250e-01  -5.0843083e-01   3.6645139e-01  -3.9625075e-01   5.6605505e-01  -6.5404208e-01  -7.3713100e-01  -2.8891329e-01   9.8157839e-01  -7.0979014e-01  -4.9874980e-01  -9.2262674e-01   6.6429506e-01   9.1674627e-01   7.0146796e-01  -8.5845696e-01   2.5108824e-01  -5.7694877e-01   6.0104794e-01  -3.3838481e-01  -4.8781167e-01   6.2379691e-01  -4.1545440e-01   7.8393890e-01   4.4606508e-01  -1.4709324e-01   6.8655194e-01  -4.7530425e-01  -7.8169227e-01   9.3289912e-01  -9.0959185e-01  -6.9198731e-01  -2.9608119e-01  -5.0385774e-01   9.8276719e-02   4.1305599e-02  -7.9782604e-01  -3.7827119e-02   7.6332121e-02  -2.8942871e-01  -8.2610877e-01  -6.3132232e-01   8.5514695e-02  -3.1795357e-01  -1.5254698e-01  -2.6012444e-01   5.0497681e-01  -4.1818598e-01  -7.9145584e-01   1.2062292e-01   2.3634557e-01   1.8067423e-01   4.8591452e-02  -9.1056817e-02   9.7983601e-01  -5.5503682e-01  -4.2884473e-01  -9.8272753e-01  -4.9910744e-02  -3.8762586e-02   7.1124530e-01   3.9243380e-02  -9.3861358e-01  -2.1905653e-01  -7.7686585e-01  -3.3916329e-04  -6.6461280e-01   8.8644714e-02  -6.6927516e-01   4.5520782e-01  -7.6941087e-01   6.7343015e-01  -2.6530031e-01   5.8747824e-01  -2.7974176e-01   8.2101050e-01   6.1614266e-01   7.5584868e-02  -2.4701216e-01   3.7642731e-01  -7.2014625e-01  -2.4077807e-01   8.0655020e-01   5.2704249e-01  -1.6920926e-02  -9.2089137e-01   6.1177678e-01  -2.8605235e-01   2.2027911e-01  -6.1336938e-01   5.3148585e-01   8.1012853e-02  -6.7551919e-01   1.6769943e-01  -6.6631391e-01   7.8194950e-01  -4.0734533e-01  -4.0409825e-01  -9.4986875e-02  -5.1005013e-02  -8.5770005e-01   6.5642655e-02   1.2443870e-01  -8.1121122e-01   8.4566617e-01  -2.8325789e-01  -5.2710677e-01   5.2195583e-01   2.0171123e-01   7.0882467e-01   1.9256773e-01  -8.9670735e-01   4.3844743e-01  -6.2001232e-01  -7.6214549e-01   3.9958062e-01  -7.0525614e-01  -8.0196715e-01  -6.5895757e-01  -8.1735633e-01   3.8964798e-01  -9.9932960e-01   8.0818412e-02   8.4259254e-01  -8.8392629e-01   7.6355464e-01   3.2388078e-01   5.8255635e-01  -5.0675580e-01  -6.5790553e-01   2.0439780e-01   9.4956717e-01  -4.4396784e-01  -9.9205899e-02   1.1137539e-01   3.1826035e-02   4.7664712e-01  -1.0826119e-01  -7.0969580e-01   9.7317667e-01  -9.4869022e-01   3.7095173e-01  -7.3727701e-01  -4.3538963e-02   4.5272342e-01   8.2944965e-02  -7.4211214e-01  -7.9112079e-01  -6.8502020e-01   7.0866843e-01   7.7956165e-01  -9.9911787e-01   8.9392317e-01  -4.4508929e-01   5.9584429e-01  -5.1670352e-01   7.7861476e-01   6.1229421e-01  -4.3924699e-01  -1.7942276e-01   2.6455211e-01   3.8126538e-01   5.3223913e-02  -1.3232638e-01   7.9013214e-01  -8.2677309e-01   3.4773812e-01   9.5353795e-01  -2.0772137e-01   9.2455420e-01   4.7600455e-01  -5.1478350e-01  -6.0281510e-01   5.5683752e-01   1.7094591e-01  -4.0435713e-03   4.8073280e-01   3.5391543e-01  -2.2286574e-01   2.9794663e-01   5.9199676e-01   4.3574036e-01  -9.7296487e-01  -5.9088223e-01  -5.5254209e-01   3.5826349e-01   6.0267866e-01   5.2934791e-01   2.3826914e-01  -5.0591744e-01   4.9530202e-01  -6.3643404e-01  -2.9539472e-01  -5.5319656e-01  -8.5738122e-01   8.1443172e-01  -4.7353167e-01   9.3814633e-01  -1.0704757e-01   4.8976969e-01   6.4513149e-01   7.8951156e-01  -7.5868518e-01  -6.0562361e-01  -1.8070592e-01   3.3415011e-01   2.0789531e-01   2.6371819e-01   9.2410756e-01  -9.1505456e-03   5.3671118e-01  -9.9132263e-01   7.1014235e-01  -5.1650534e-01   2.2356294e-01  -4.9581103e-01  -9.5886682e-02  -3.9301503e-01   6.9216919e-01  -2.6705463e-01  -1.6670975e-01  -4.6432978e-01  -5.5758165e-01  -4.2264128e-01   7.7583876e-02  -7.6285740e-01   7.8094280e-01   3.9188127e-01  -5.9964724e-01   5.6481749e-01  -5.4777123e-01   6.2410631e-01  -3.5817948e-02   2.6915886e-02   1.5584271e-01   9.4656388e-01   6.8901139e-01   1.5381175e-01  -4.2741728e-01  -6.9282442e-01   5.3266266e-01   3.9951141e-01   3.6320452e-01   3.9841964e-01  -9.8955755e-02  -1.6564255e-01   1.5317411e-01   2.9614192e-01   3.6266353e-01  -7.5803729e-01   6.2736752e-01   3.6307861e-01   9.9409380e-01   8.5383216e-01  -8.8050898e-01   3.6223604e-01   1.4775521e-01  -5.4053324e-01  -5.0626065e-01   5.2316208e-01  -3.5349150e-02   9.7566678e-01  -9.7107792e-01   2.8852869e-01   9.4017240e-01  -1.5766671e-01  -3.3925634e-01   7.1603172e-01  -2.2610274e-01   7.0074439e-01  -2.6882943e-02  -2.4902544e-01  -6.3083630e-01   7.3823274e-01  -1.8667752e-01  -2.1105293e-01   7.7814631e-02   8.5783304e-01  -3.4958648e-01  -2.9591238e-01  -7.0742879e-01  -9.2831309e-01   4.9799817e-01   9.9020716e-01  -6.3158412e-02   5.7917409e-01   3.8384314e-01  -8.8051664e-01   4.6285467e-02   4.3362689e-01  -7.5337246e-01  -8.9813043e-01   3.8178271e-01   3.2867096e-01  -3.8527983e-01   6.4071324e-01   4.4703897e-01  -8.1643676e-01  -1.7305821e-01   7.4722680e-01  -5.4961381e-01   8.0794382e-01  -7.7897610e-01  -2.4754867e-01  -5.3452905e-01   9.3365592e-01  -9.1179514e-01   9.8045124e-01   3.8217118e-01  -3.9768511e-01  -9.6837651e-02  -8.5439079e-01  -5.0324162e-01  -7.3292847e-01  -2.4356048e-01   9.5781157e-01  -7.4036573e-01   9.1251334e-01  -3.8200832e-01   8.7693114e-02  -3.4305401e-01   4.6344769e-01  -2.5092496e-01   5.0921612e-01  -6.3403211e-01  -8.0636724e-01   7.9376878e-01  -1.8066260e-02   6.2297015e-01   5.2312324e-01   7.7372712e-01   7.0124682e-01   1.7965000e-01   2.3300978e-01   9.8101890e-01   1.8796841e-01  -8.9502982e-01  -1.1566994e-01  -1.5838411e-01  -2.0131860e-01   4.3287796e-01  -8.4436501e-01  -4.6125713e-01   5.1697543e-01  -6.1528691e-01  -7.0905791e-01   1.1562985e-01  -9.4857430e-01   2.5143814e-01   3.7737669e-01   5.9084238e-01  -8.0267884e-01  -7.0109558e-02   3.5551261e-01   1.1672451e-01  -4.7881848e-01   7.4800225e-01   7.1882570e-01  -3.9378950e-01  -4.6189242e-01  -6.1939720e-01  -1.1335385e-01   9.8657757e-01  -7.8370484e-01   2.7349571e-01   8.4276231e-01   4.9636091e-01  -5.0060580e-01   4.1644111e-01  -3.7664873e-01  -9.4113253e-01   9.9289067e-01  -7.1758642e-01   8.1935691e-01   3.9480082e-01  -9.4458262e-01  -4.0770377e-01  -6.2546877e-01  -1.7708996e-01   3.1227921e-01  -6.6234729e-01  -2.8468753e-01   2.0989698e-01   7.9108520e-01   5.1820307e-01  -5.5773902e-01   1.1305222e-01  -8.7846207e-01  -6.6293288e-01   3.3368356e-01   2.1273589e-01   8.1968451e-01   6.5721911e-01  -6.8586094e-02  -8.4637444e-01  -4.2909826e-01  -7.1634972e-02  -5.3420030e-01   5.0985301e-01   6.9338953e-01  -3.3658135e-01  -6.6188023e-01  -8.5357034e-01   7.9811443e-03   4.9862413e-01  -5.9445619e-01  -1.7510666e-01   9.8985520e-01   1.2522219e-01  -4.0657693e-01  -1.3270063e-01  -1.9931552e-01   3.1143143e-01   4.9085310e-01  -2.1716689e-01   2.9915124e-01  -8.7883906e-01   6.7198902e-01  -9.6656258e-01  -5.9264766e-01  -6.1599723e-01   5.7616577e-01   3.7525266e-01  -8.9678904e-01  -7.3826298e-01   3.1402611e-01   2.2643100e-01   9.4900257e-01  -4.4480020e-02   8.1959368e-01   8.8158865e-01  -9.1105557e-01   4.0769316e-02   2.4854576e-01   6.2746613e-01   2.8949250e-01  -1.1745180e-01  -6.4343843e-01   5.8454873e-01   7.2648239e-01  -5.7062225e-01   7.4174926e-01   4.1203638e-01   9.5864046e-01   5.4688530e-01   9.3804355e-01  -1.5775742e-01   3.6265423e-01   7.8134128e-02   4.6911269e-01   1.7093141e-01   1.7620847e-01   2.9482824e-01  -8.6938721e-01  -6.1943197e-02   6.7500977e-01  -7.9121131e-01   6.1823233e-01  -4.7954291e-01
  -3.3505119e-01   8.9418661e-01   9.4132955e-01   5.5578368e-01  -6.9305847e-01   6.6357513e-01   2.8302289e-01   9.9229499e-01   3.3620945e-01  -5.2895933e-01  -2.4929037e-01   3.5364561e-01  -4.5258547e-01   4.7710572e-01   4.5580159e-01  -6.5377760e-01  -6.9543715e-01  -8.5169823e-01   5.5865088e-01  -1.4279779e-01   6.1970057e-01  -7.7894336e-01  -8.9989569e-01   1.3294848e-01   5.7835593e-01   5.1809301e-01  -4.4802856e-01   6.1310353e-01  -6.4254861e-01   4.5235834e-01   3.0675971e-02   7.3053176e-01   8.5334317e-02  -9.8363312e-01  -6.7980092e-01   3.0141874e-01  -2.9161167e-01  -2.2423079e-01   3.8191452e-01  -3.5929259e-01   7.2697760e-01  -7.5362408e-01  -6.4894024e-01  -4.2572217e-01  -1.1252130e-01   9.7828188e-01  -8.2495928e-01  -7.0769258e-01   7.7584051e-01   6.8610725e-02  -2.4421500e-02  -8.0620755e-01  -1.1999897e-01  -1.6400175e-01   7.2184989e-02   4.9997105e-01  -4.5809731e-01   6.4649535e-02   6.7594873e-01   3.8226173e-02  -1.0332086e-01  -1.2200700e-01   2.1136362e-01  -8.9378712e-01   2.6936450e-02  -1.1770614e-02  -3.5128370e-01  -5.9937476e-01   3.6941312e-01   8.7776524e-02  -9.3873736e-01  -1.0479339e-01  -7.8041894e-01  -7.0701937e-01  -2.3761433e-01  -1.1547593e-01   3.6524758e-01  -2.0976171e-01   9.4666794e-01  -4.0093838e-01  -4.9815029e-02  -9.5468478e-01   1.1374235e-01   3.5150768e-01   4.7707147e-01   8.4844078e-01  -6.2099885e-01   4.1839450e-01  -3.1782065e-02   3.0431936e-01   7.3157480e-02  -6.3937859e-01   5.8094594e-01  -8.3983844e-01  -4.6815996e-01   9.7646035e-01  -9.1720962e-01  -5.2885739e-01  -9.7805238e-01  -2.9603836e-01   8.2465355e-02  -8.0836905e-01  -8.1047458e-01  -5.5858393e-01   8.6170612e-01   6.4842914e-01  -7.3365425e-01  -5.9368297e-01   7.1656858e-01  -1.1884841e-01   7.7230629e-01  -4.7910962e-01   1.9110487e-01   6.5954898e-01   1.4131514e-01  -3.1000869e-01  -2.1308894e-01   5.8821721e-01  -4.7590344e-01   8.4314067e-01  -9.4232920e-01   6.9400701e-01  -6.3504548e-01  -9.3916365e-01   6.5257801e-02  -4.7237466e-01   5.6755673e-01  -4.9673597e-01  -2.9073875e-01  -5.0703895e-01  -5.5947709e-02   4.4367777e-01   4.9518436e-01  -7.8164816e-01   8.0259388e-01   9.6783336e-01   2.5794174e-01  -1.0785226e-01   3.7692382e-01  -4.3310175e-01  -6.1507463e-01  -9.3287164e-01  -8.7863736e-01   9.6442363e-01  -7.1972825e-01   5.9102824e-01  -8.2928663e-01   1.9556871e-02  -5.5255346e-01   2.7229576e-01   1.6008433e-01  -5.0987248e-01   5.6524179e-01  -9.2118800e-01   5.5356410e-01   8.9833751e-01  -3.1069574e-01   3.7743936e-01  -3.1490134e-01  -6.4472539e-01   9.3026121e-01  -6.0067632e-02   6.4322463e-01   7.6313495e-01   5.8412756e-01   1.5005533e-02  -3.8262343e-01  -3.9943970e-01  -8.4414894e-01  -4.6010510e-01  -5.7319920e-01   3.9284421e-01  -3.2947240e-01   9.6440810e-01  -5.1271813e-01   3.6757843e-01   4.3360088e-01  -7.1402444e-01   8.6325270e-01   6.6680707e-01  -9.7156922e-01   8.4026501e-02  -1.8240386e-01  -1.4469581e-01   3.4186451e-01   3.9600096e-01  -3.0988820e-01   5.6541796e-01  -8.4665448e-01   1.8258979e-01   3.4115915e-01   7.3393158e-01  -5.8877226e-01  -6.4761796e-02   1.9862864e-01   7.7103813e-01   6.5695471e-01  -6.4416586e-01  -5.9976000e-01   1.4836841e-02  -5.1243013e-01   7.9881354e-01  -5.8677493e-01  -5.1314740e-01   2.8625336e-01  -9.3865831e-01  -2.8676133e-01   9.2503197e-01  -7.6018559e-02  -9.5756791e-01   3.2591483e-01   4.3564740e-01  -9.5365897e-01  -7.4670571e-01   8.2090059e-02  -1.2566182e-01  -4.1386713e-01  -2.8016889e-01  -4.6813488e-01  -9.1311624e-02   1.6326243e-01   9.0677497e-02  -7.9569725e-01  -7.8372751e-03  -7.8903868e-01   4.3133709e-01   3.0671793e-01  -6.6314807e-01   2.5698102e-01   2.5009419e-01  -2.4159878e-01  -2.6084796e-01  -9.9535107e-01  -5.9329972e-01  -7.9674636e-01  -4.9648700e-01  -5.7974500e-01  -1.6279497e-01   2.9655137e-01  -4.1463811e-02  -6.5427122e-01  -3.5205543e-01   7.7603102e-01   3.4286696e-01  -8.9938452e-01   9.3024262e-01   8.0621148e-01  -3.3665058e-01   4.6820314e-01   5.9625941e-01  -1.2501397e-01   3.0994919e-01  -9.2689390e-01   3.6586918e-01   5.8542140e-01  -1.0008902e-01  -2.4118603e-01  -9.7170020e-01  -1.5605438e-01   9.8056791e-01  -6.1317552e-02   8.6401495e-02  -1.9703247e-01  -5.2048789e-01   1.7339722e-02   7.6877746e-01   9.6801263e-01   2.7266743e-01   5.7911453e-01  -6.6499592e-01  -9.7882436e-01   7.0041960e-01   5.1289733e-01  -4.3614174e-01   3.7627167e-01   9.2634605e-01   4.4456756e-01   4.7583709e-01   9.4879836e-01  -6.0675353e-02   1.0890001e-01   5.5077425e-01   7.1083921e-01   2.3210241e-01  -5.6061708e-02   1.2517453e-01   3.2647959e-01  -4.2178900e-01   6.6107420e-01   8.3793450e-01   2.5194597e-01  -6.4615690e-01  -9.4415930e-01  -8.6195526e-01   6.3911679e-01   6.1476560e-01   4.8414378e-01  -8.3024285e-01   6.6332768e-01   7.1843038e-01   8.9895849e-01  -8.0926398e-01  -1.5885037e-01   2.5563201e-01   5.5273137e-01   7.0620101e-01   2.5785739e-01   3.0311581e-01  -9.3677428e-01   9.4816168e-02   8.2156090e-02   9.4903522e-01   4.5831878e-01  -3.3328001e-01   5.2046520e-01   1.0904618e-01   9.0904297e-01   5.8442184e-01  -2.8610515e-01  -5.4359735e-01  -7.1780480e-01   2.1105383e-01  -3.7057500e-01  -6.1327174e-01   8.6658736e-01  -1.6203941e-01  -3.8096349e-01   6.6449361e-01   4.1047917e-01  -6.2584941e-01  -2.8858069e-01  -3.7012493e-02  -5.5076080e-01  -8.8893412e-02  -6.3730675e-01  -3.9301920e-01   5.1716505e-02   5.0369132e-01   2.8042308e-01  -6.1972156e-01   3.7570322e-01  -1.6176766e-01  -2.3170669e-01  -3.6476674e-01   2.6742520e-01  -9.7825907e-01  -1.8654546e-02  -8.4165938e-02  -1.5947092e-01  -4.1345755e-01   9.6745209e-01   4.3394387e-01   1.7823354e-01  -2.7141147e-02  -4.7663598e-02   5.9175277e-01   7.3725596e-02  -3.3209717e-01   2.3653320e-01  -4.2201757e-01  -2.5523311e-01  -7.9303174e-02  -4.0516562e-01   9.0251576e-02  -9.0413691e-02  -5.4946968e-01   9.8608802e-01  -4.4015740e-01   9.1575465e-01   1.5060481e-01  -2.9819937e-02   9.6790670e-01  -8.1827614e-01  -7.9918286e-01  -3.2939692e-02  -4.2399489e-01   6.7303776e-01   5.8515087e-01   9.8766584e-01   9.6525146e-01  -2.0475774e-01  -3.6707769e-01   6.0936255e-01   9.3019917e-02   9.4021131e-01   5.7928263e-01   1.3739386e-01   4.8522343e-01   5.8538061e-01   3.6802916e-01  -7.7459545e-01   9.1552051e-01   1.8352119e-01  -2.9949416e-01  -9.6209190e-01  -3.6051760e-02  -5.4822896e-01   2.3987182e-01   2.4272791e-01   8.0771772e-01   9.6411466e-01  -5.4737343e-01   8.6974933e-01  -5.1536065e-01  -7.1782382e-01  -5.9384985e-01  -5.1100100e-01  -6.2112347e-01  -1.3233191e-01  -1.7859678e-01  -9.3569751e-01   9.7425918e-01  -4.2703072e-01   5.7065975e-01  -1.5099440e-01  -2.9805576e-01  -8.8094421e-01   6.2549488e-01   4.2500356e-01  -4.1373095e-01  -4.9352024e-01  -6.1711888e-01  -2.3128804e-01   9.6626007e-01   4.7819585e-01   5.0339693e-01   4.6446054e-01   4.4951440e-02  -1.2728925e-02  -1.4513077e-01   6.4764183e-01  -8.1841756e-01   5.7779134e-01   4.1511359e-01   6.0260129e-02  -3.9653413e-01  -2.5630863e-01   9.1133807e-01   4.8066245e-01   2.5053266e-01   7.6200491e-02   9.0646086e-01  -1.0759473e-01  -7.7343572e-01  -5.4236794e-01   3.6627699e-01   5.7207127e-01  -2.4719213e-01   5.5635174e-01  -2.8450657e-01  -4.2332176e-01   5.7030118e-01  -3.4233866e-01  -8.4098759e-01  -7.6930728e-03  -3.4926224e-01  -4.5676889e-01  -4.6089739e-01   2.2661134e-02  -7.7241213e-01  -4.0096746e-01   1.4306188e-01   1.8339116e-01   4.6130341e-01  -9.6587934e-01   1.2935176e-02   3.8848525e-02   1.8400501e-02  -8.3552641e-01  -9.9790304e-01  -8.7448310e-01   3.7252442e-01   7.3514147e-01  -4.9922814e-01  -5.6764793e-01  -7.4699499e-01  -3.2958937e-01  -5.8151980e-01  -5.5010146e-01  -1.9157031e-01  -8.9931853e-01  -6.2077935e-01   9.7401236e-01   4.8749586e-01  -9.4128615e-01  -3.5880111e-01  -7.5456206e-01  -2.3110654e-02  -6.1053485e-02  -2.0744360e-01   3.3332985e-01   6.2721752e-01  -4.3353498e-02   7.4436303e-01   9.7049358e-01   2.7377851e-01  -7.6595390e-01   4.6782524e-01   2.5499195e-01  -5.2403223e-01  -4.1220686e-01   6.6115267e-01  -8.0367388e-02  -8.3573754e-01  -1.7186523e-01   8.5288060e-01   8.3348759e-01   1.6872117e-01   2.2399938e-01  -7.0648134e-01   5.5020722e-01   1.7958960e-02   9.0736792e-01   3.8768071e-01   3.3563015e-01   6.6554462e-01   9.9329932e-01   8.1640898e-01  -9.2523252e-01  -9.2407227e-01   8.5469499e-01   9.0338453e-01   9.0762920e-01   2.9667956e-01  -8.6148286e-01  -4.7433587e-01  -8.0904529e-01   3.2807261e-01   1.7751006e-01   4.9096020e-01  -2.2361067e-01   2.4681014e-01   4.4795364e-01   7.4608045e-01   6.7999573e-01   4.5413096e-01   8.7242795e-01   4.5129858e-01  -4.9043740e-01  -7.8148840e-03   1.8973703e-01   9.8915856e-01  -8.6387194e-01  -6.4457499e-01  -1.4477641e-01  -8.7448532e-01  -1.7355257e-01   1.1782876e-01  -5.8528028e-01   4.4326223e-01   3.7066813e-01   3.9667652e-01  -8.3688444e-01  -8.2358751e-01   8.3692691e-01   7.9688562e-01   8.9133802e-01   9.2301974e-01  -1.2317737e-01  -6.0770334e-01   3.3976122e-01  -2.1236933e-01   3.3864414e-01  -3.3026408e-01  -3.3160356e-01  -8.2221690e-01   4.0416497e-01   2.4725971e-01   7.8176193e-02   1.7909730e-01  -4.4864909e-01  -5.8458131e-01   6.6222556e-02  -7.5748709e-01   3.1097336e-01   5.4921412e-01   2.0118619e-01  -3.6236881e-02   5.1857620e-01  -4.7571858e-01   8.3415924e-01  -4.0602140e-01   8.3459141e-01  -9.8787927e-03  -7.6670331e-01   3.5378387e-01   5.3711617e-01   2.2102767e-01  -9.5904883e-01   9.0236400e-01  -2.3314287e-01  -4.2541695e-02  -7.3154974e-01  -3.4437205e-01   9.6278250e-01   4.5616011e-01  -6.8350703e-01   3.8385715e-01   4.4478570e-01  -6.5660104e-01   8.0240522e-01  -5.9885056e-01  -5.5686219e-01   6.6702678e-01   5.7359483e-01   2.9832893e-01  -2.8875325e-01   3.1945749e-01  -3.7907516e-01   3.4607128e-01  -7.2707845e-01  -7.2932356e-01   6.9623935e-01   9.0366683e-01  -2.4401832e-01  -5.0620726e-01  -4.2144360e-02   3.6273889e-01  -2.4376450e-01  -4.6602945e-01  -2.2095484e-01   3.6655598e-01   8.8023495e-01  -6.5030894e-01   7.5002619e-01  -6.3286080e-01   2.7891203e-01   8.6641048e-01   7.7787100e-01  -5.0156544e-01  -1.7991216e-01   3.4105483e-01   7.0416058e-01   3.5889209e-01  -1.4217302e-01   9.5683294e-01   2.6473798e-01  -7.7447989e-01  -1.9998340e-01   4.4163651e-01   5.5485892e-03  -9.4522785e-01  -9.8891114e-01   8.0134667e-01   4.9050597e-01   5.9250928e-01  -1.1626969e-01   2.9685246e-02  -6.2286288e-01  -7.5815415e-01   9.9536733e-01  -9.4780581e-02   1.7445883e-01   8.1557513e-01  -8.9433433e-01  -7.4659957e-02  -5.1869679e-01  -8.1490543e-01  -6.1600820e-01   3.3193284e-01  -5.2131530e-01  -1.6096708e-01   1.1019051e-01   2.1635060e-01  -8.3279098e-01  -1.9956340e-01   1.8649749e-01  -3.3034562e-01   2.8037021e-01   7.2584538e-01  -7.9284005e-01   2.3065580e-01  -2.8472425e-01   9.9670627e-01  -5.2631930e-01  -1.4458198e-03   4.1171436e-01   6.3698616e-01  -6.3114322e-01  -7.5588673e-01   9.2661633e-01  -2.8367804e-01   3.2457912e-02   2.8602443e-01  -1.6354720e-01   9.4183641e-01   6.9121462e-01  -4.8799279e-01  -2.4487894e-01   2.7492721e-01   8.4801525e-01  -8.7219047e-01   7.8480782e-04  -3.4075635e-01  -2.3142375e-01   4.0248613e-01   2.0231223e-01  -5.4277442e-01   1.8178105e-01  -3.7002144e-01  -7.9584762e-01  -1.7558801e-01   8.9869390e-01  -2.5516498e-01  -5.5901403e-01  -8.0235529e-01   2.0933346e-01  -8.1821008e-01   5.0477528e-01   2.3578956e-01  -5.6117753e-01  -4.1084559e-01   2.3773077e-01  -7.6954791e-01   1.1256892e-01  -7.9152514e-02   2.9642545e-01   3.1797167e-01   9.2857372e-01   8.9763879e-01  -2.8522051e-01  -9.8936842e-01   7.3052427e-01   2.0193184e-01   1.7016810e-01  -8.3258877e-01   8.7832761e-01  -3.8562980e-01  -3.1427238e-01   4.6632504e-01  -1.0518519e-01   6.9159442e-01  -6.2804089e-01   4.5463401e-01  -7.5471166e-02   1.5119614e-01   2.0229626e-01   1.3085802e-01   5.0077889e-01   3.3640275e-01  -8.1450731e-01  -6.6939879e-01  -3.7483569e-01   4.8269717e-02   3.3156337e-01  -6.8679797e-02  -9.7727242e-01  -3.7374859e-01   1.7342475e-01   9.6184498e-01   7.8050197e-01  -1.1792755e-01   2.0644972e-01   3.7537425e-01   5.8629391e-01   3.2315420e-01   8.4551600e-01  -7.3550932e-01  -9.3120416e-01   2.6630976e-01  -8.6478833e-01   1.6714416e-01  -7.1910085e-01   3.9683451e-01  -5.0688369e-01   8.2255281e-01   2.4073657e-01  -4.5585933e-01   2.1774336e-01  -9.5223455e-01  -3.1580677e-01   9.7858736e-01   7.4192278e-01   3.1962044e-01   9.5901400e-01   9.9365349e-02   1.0713791e-01  -7.6617863e-01   9.4509626e-01   9.5984713e-02   2.3878124e-01   2.2418668e-01   8.8215092e-01  -7.8084074e-01   3.8074800e-01  -9.4364337e-01   2.8971404e-01  -8.4165137e-01  -8.2852588e-01   1.8184483e-01  -1.6435877e-01   6.5093146e-01   2.1225261e-01   9.5295576e-01   4.3796516e-01   9.8766628e-01   3.2609887e-01   8.5093314e-01   9.6932497e-01   8.7459485e-01   4.0406976e-01   1.8190576e-01   6.0641625e-01  -4.9552779e-02  -2.7369822e-01   3.7441179e-01  -5.0724525e-01  -7.9951582e-01   4.5028328e-01  -1.6992166e-02   7.4037692e-01  -3.3595983e-01   3.2350666e-01  -6.7569124e-01   1.3922056e-01  -1.2814638e-01  -3.8511685e-01   1.0987182e-02   5.6474633e-01   7.9578536e-01   1.3707792e-01  -4.8074184e-01  -4.7476311e-01   7.2439592e-02  -2.2235146e-01   8.2743211e-01  -8.5526539e-01   8.5564533e-01  -3.3224025e-01  -2.9060668e-01   9.8438825e-01  -6.5739660e-01  -6.4926948e-01   4.9618060e-01   2.5895407e-02  -7.5135851e-01   7.6901045e-01   8.0865828e-01  -7.2045952e-01   4.8591173e-01   3.6165561e-02  -5.6032557e-02  -8.5439726e-01   8.8664879e-01  -4.5444608e-01   9.4887363e-01  -8.1419079e-01   9.8999012e-01  -3.5794231e-01   1.3755034e-01  -8.1207750e-01  -6.9354839e-01   9.8216475e-01   5.7394826e-01   8.9261286e-01   4.8421527e-01  -4.2733380e-01   1.3216829e-01  -9.2736391e-01  -6.8699875e-01   9.4681800e-01   4.9371966e-01  -2.3716316e-01   5.0179621e-01  -8.0276702e-01   8.9316867e-01   2.5158021e-01  -6.1086752e-01   6.2859252e-01  -7.9685795e-01   3.1272803e-01   6.8247219e-01  -4.8939237e-02  -1.9126608e-01  -1.2997992e-01  -5.5664741e-01  -7.6543569e-02   8.6723469e-01  -9.9027787e-01  -4.9740463e-01  -6.6957458e-01   9.9509518e-01  -8.3459488e-03   1.4389438e-01   6.9239081e-01   6.6638782e-01   6.2190824e-01  -7.3575398e-01  -7.4923973e-01  -1.3124158e-01  -4.2224422e-01  -8.5218307e-01   2.9801778e-01   6.5752885e-01   6.6909072e-01  -8.5746724e-01  -9.6584109e-02  -9.5671370e-01  -4.2145949e-01  -3.5912140e-01   5.1626138e-01   5.7756378e-01  -5.6276038e-01  -1.9688214e-01   6.8491109e-02  -6.4381882e-01   1.9786217e-01   7.2562074e-01  -1.9051294e-01   2.8135301e-03   6.9998096e-02   9.3967050e-01  -1.2522570e-01  -8.4088987e-01   3.9181690e-01   8.1095653e-01   7.0410474e-01  -5.2339079e-01   7.6172286e-02  -6.6545227e-01   1.1740300e-01   9.7204366e-01  -5.3943233e-01   9.9594485e-01   2.9014316e-01   8.2879377e-01  -2.9895098e-01  -1.7450019e-02  -4.3631142e-01   9.3514817e-01   3.0451352e-01   8.2207801e-01   9.7066964e-01   5.9578853e-01  -8.0559370e-01  -2.6295855e-01   6.8623192e-02  -8.7285326e-01  -4.0901985e-01   7.8042160e-01  -1.2955963e-01   7.1485154e-01  -4.5964639e-01   2.2350954e-01  -9.4807406e-01  -3.0704779e-01  -3.3778045e-01  -3.2768479e-01  -1.7889375e-01  -9.2893667e-01  -7.8272772e-01   1.7189020e-01   3.5293824e-01  -1.9394072e-01  -5.2227063e-01   7.2820271e-01   7.5534764e-01  -7.8840131e-01   8.1238559e-01  -3.9450826e-01   8.0229149e-01   5.0857727e-01   1.4111501e-01   6.7595190e-01  -5.8644752e-01  -8.9318258e-01  -9.0547218e-01   4.4313966e-01  -9.6080563e-01  -4.2591665e-01   5.6745276e-01   6.2643637e-01  -2.8330775e-01  -9.2724725e-01   1.3511528e-01  -3.8657178e-01  -1.5464307e-01  -8.0651083e-01   4.0153064e-01  -8.7668913e-01   7.4740065e-01  -7.3507517e-01   2.7830230e-01   5.9372292e-01  -3.8471692e-01  -8.8957982e-01   3.1094238e-01  -5.1996990e-01  -6.2393896e-01   1.3676880e-01  -8.4638089e-01  -7.1181995e-01   2.9832946e-01   5.6358638e-01  -6.1286326e-01   4.3640045e-01   2.5024644e-01  -3.7352077e-01  -6.7712953e-01  -6.1473008e-01
   7.7636670e-01  -1.7971066e-01  -6.8737587e-01   8.7600361e-01   1.8734755e-02   9.0026422e-01  -6.2793325e-01   6.4539138e-01  -1.0311309e-01  -3.1956181e-01  -7.0790390e-01   1.7144847e-01   9.1022633e-02  -1.8603364e-03   5.4097315e-01   9.6214944e-01   2.9382683e-01  -7.4551373e-01  -4.8009443e-01  -3.8405895e-01  -7.1776540e-01  -7.0499952e-01   6.5828120e-01   3.7264732e-01  -4.7982235e-01  -9.9155158e-01  -9.3192608e-01  -1.5635169e-01  -2.5167863e-01  -3.8962357e-01   8.7561089e-01   3.0933941e-01  -4.7183559e-01   3.2825230e-01  -9.0792126e-01  -5.9269696e-01   2.2593870e-01   1.6714657e-01   2.5705959e-01  -3.3086679e-01   5.0777346e-01  -4.1049882e-01   3.1714980e-01   3.2899752e-02  -3.7857767e-01   5.0639219e-01  -6.5719540e-01   6.3847160e-01   2.9288055e-01   2.4165962e-01   3.8987469e-01   2.1176941e-01  -6.7176789e-01   9.6461299e-01  -7.0391966e-01  -6.6456714e-01   2.1927953e-01  -4.2457003e-01  -8.0651147e-01  -5.4890688e-01   1.4237404e-01   3.2240583e-01   8.4264756e-01  -9.2393425e-01  -5.4828456e-01   8.2523367e-01  -4.6865725e-01  -4.3255216e-01  -3.3509625e-01   4.4799105e-01   3.6368051e-01   3.3315967e-01   8.0140509e-01   5.0327379e-01  -2.4577760e-01  -6.0805011e-01  -4.5768604e-01  -4.4228023e-01   5.5957826e-01   4.5339117e-01   2.6798057e-01   2.9303725e-01   4.8884448e-01  -6.1959987e-01  -6.8192109e-01   5.1058183e-01  -8.5453259e-01   5.9432967e-01   5.1035987e-01  -6.1614925e-01  -8.7667190e-01  -7.3372607e-01   2.2715851e-01  -2.9451932e-01   3.3774364e-01  -4.4178116e-01   9.7785154e-01  -4.2221098e-01   3.9225757e-01  -9.2310281e-01   6.5573169e-01  -3.6393517e-01   5.5388276e-01  -1.0684965e-01  -2.4685556e-01  -2.7124236e-01   1.5716174e-01  -8.1508295e-01   8.9043959e-02  -8.4389455e-01   5.9458108e-01  -4.2334653e-02   5.1126323e-01   7.2674835e-02   6.0742845e-01  -5.6247319e-01  -2.5172780e-01  -8.8733674e-01  -9.4085673e-01  -2.3681519e-01   1.9222831e-01   1.1552061e-01   8.9332455e-01  -9.1987401e-01  -9.3723394e-01  -9.6449253e-01  -6.6824006e-01  -5.9147480e-01   4.4261288e-01   5.0645147e-02  -8.5360513e-01   9.1509132e-01   8.5106781e-01  -6.2714584e-01   7.6811503e-01   5.1593475e-01   4.5306887e-01  -6.6457164e-01   4.1978434e-01  -3.0185104e-01  -5.9583976e-01  -7.3051199e-01   7.5856593e-01  -1.8990397e-01   8.7475578e-01   6.3176121e-01  -2.5528058e-01   1.1362455e-01   4.2470737e-01  -9.5023728e-01   2.3627417e-01  -1.0253191e-01   2.6177522e-01  -9.0025934e-01   6.6611487e-01   8.3428160e-01   9.2826328e-01  -9.1713116e-01  -8.1761204e-01   7.7719335e-02   7.0124610e-01  -4.3287607e-01   6.8345474e-02  -9.6762208e-01  -4.4005986e-01   7.2666328e-01   7.9424447e-01   6.5049654e-01   9.1367957e-01  -2.9430690e-01   8.8202152e-01   1.1830349e-01  -4.6439767e-02   6.3218027e-01   8.6987715e-01  -8.8674860e-02  -4.8529742e-01  -9.3301794e-01  -4.6165862e-01   4.3097122e-01   5.0545886e-02  -4.9474254e-02   5.4039471e-01   1.5369573e-01  -5.1092070e-01   5.6430757e-01  -6.6520508e-01  -2.1779701e-01  -1.0459476e-03   4.4552533e-01   4.1183277e-01  -5.1166253e-01  -7.8151242e-01  -1.3021198e-01  -1.1022023e-01  -4.1330380e-01   9.9920734e-01  -7.9221125e-01   1.0451427e-01   3.6900183e-01   9.4957517e-03  -6.3221574e-01   4.6707140e-01  -6.4651258e-01  -7.5320823e-01   5.3292239e-01   9.3072203e-01  -8.4491563e-01  -8.3990618e-01  -9.0660172e-01  -2.4904375e-01   3.8812255e-01   1.4690761e-01   6.7897731e-01  -8.3844904e-01   7.7373580e-01  -7.8043269e-01   7.3803315e-01  -2.9305505e-01   1.0757575e-01   4.8548834e-01   2.6531466e-01   2.4137510e-01  -8.4725895e-01  -3.8210372e-01   8.3690239e-01  -8.5888900e-01   2.6534964e-01  -5.6368019e-01   8.4304794e-01   6.6762982e-01  -3.6135282e-01   7.0188587e-01   1.4978872e-01  -7.0011065e-01   4.0074227e-01   4.5528231e-01  -8.5774333e-01   2.1524831e-01   9.4155991e-01  -5.4718835e-02  -2.1874142e-01   3.3338670e-01  -4.1994690e-01   7.7388037e-01   6.4806490e-01   2.0116971e-01  -3.8031331e-02  -5.8028493e-01   5.7659749e-01  -7.6235117e-01   9.1325024e-01   3.0364415e-01   5.7197999e-02  -9.6487610e-01  -1.3487131e-01   6.6463667e-01   7.5756980e-01   6.2202608e-01   8.0649735e-01   2.9043804e-01  -9.3903590e-01  -7.6084497e-01   4.6536239e-01  -8.8694799e-01  -8.0415610e-01  -7.1854425e-01  -9.9387190e-01  -2.0283760e-01  -7.9082713e-02  -2.6467441e-01   2.2104914e-01   8.3546663e-01  -4.6440050e-01  -2.0803298e-01  -8.1323638e-01  -1.4458269e-01  -7.3384656e-01   6.3256070e-01   8.6840439e-01  -7.3141097e-01  -4.7689735e-01   7.2687007e-01  -6.0673231e-01   8.9879745e-01  -4.1115265e-01  -5.1225022e-01   3.1371739e-01   2.7525387e-01   9.5418105e-01   7.5033472e-02  -8.9301179e-01   9.2299714e-01  -7.0872770e-01   3.4761467e-01  -2.9058547e-01  -7.8145324e-01  -2.5061402e-02  -1.6081525e-01  -7.6985385e-01  -9.7317649e-02   2.7823886e-01   6.9503146e-02  -4.3792338e-01  -8.5354453e-01  -6.1178445e-01  -8.7744861e-01  -7.6961116e-01  -4.8034664e-01  -4.5732175e-01   4.7647867e-01  -7.3988986e-01   4.6204390e-01  -3.6036041e-01   6.0001408e-02   5.9957109e-01  -8.3886525e-01   9.5797120e-02   3.8790404e-01   2.0863817e-01  -3.3529169e-01   6.7322865e-01  -2.1924243e-01  -1.4494188e-01   1.5537075e-01  -7.0551761e-01   6.3661491e-01  -1.6898428e-01  -8.1599074e-01  -3.9189722e-02   9.3969856e-01  -4.6776182e-01   1.3259599e-02   5.9989379e-01  -2.9625715e-02   3.5023483e-01   3.2132373e-01  -4.4926424e-01   1.9255854e-01   2.3006537e-01  -9.1458805e-02   9.7177640e-01   3.1067770e-01   4.4494001e-01   2.8543292e-01  -5.2895287e-01  -3.9089836e-01   4.6306296e-02   6.0676615e-01   7.3425273e-01  -1.4915087e-01   1.0818290e-01  -1.3814217e-01   2.5088745e-01   3.2270263e-01  -1.2185180e-01   1.9691021e-01  -8.3797581e-01  -3.9779730e-01   2.5643974e-01  -9.8843385e-01   4.9631324e-01   1.3883719e-01   4.3869257e-01  -2.5483508e-01   1.8143661e-01   1.0381820e-01   9.3220823e-01   2.2112058e-02   6.4187364e-01   6.8939058e-01  -5.2359423e-01   3.8381749e-01   6.1995433e-01  -8.0982972e-01  -7.7772631e-01   5.0820365e-01  -9.3063959e-01  -6.5286141e-01   1.2846261e-02   3.0008061e-01  -3.1110677e-01   8.9932435e-01   5.3380525e-01  -3.2692190e-01  -6.4239432e-01  -6.7945682e-01  -1.3708213e-01  -6.7970141e-01   2.1499768e-01  -3.9106555e-01  -3.4589871e-01  -1.1643193e-01   3.8247345e-01   5.7100066e-01  -5.0516974e-01   2.5177614e-01  -3.4500356e-01  -6.7433791e-01  -1.9754271e-01   6.9795225e-01  -6.8786956e-01  -5.6280237e-01   5.0578486e-01   2.6707275e-01  -7.0153036e-01   8.6639096e-01  -9.8059872e-01  -4.1645471e-02   1.3425288e-01  -2.6024568e-03  -7.7490209e-01   7.9696837e-01  -8.8474065e-01  -8.8876921e-01  -3.1795432e-01  -3.2910073e-01   3.5496847e-01  -1.2605413e-01   2.6918267e-01  -7.7463325e-01  -3.8056679e-01  -2.4770125e-02  -3.9250706e-01  -2.4859186e-01  -6.7775728e-02   2.0459718e-01   6.0625474e-01   3.1393404e-01   3.7592613e-01  -4.1965941e-01  -5.8692843e-01  -7.5994570e-01   1.1216323e-01  -5.3253690e-01  -4.3111430e-01  -3.3175261e-01   8.7154131e-01   8.8543842e-01   9.6185493e-01  -6.1276489e-01  -9.6248994e-01  -7.8899362e-01   5.0449114e-01  -9.4534288e-01  -9.1786311e-01  -6.8541302e-01  -8.7671173e-01  -7.8425921e-01   1.3256036e-01  -4.8743142e-02  -3.7671721e-01   8.1645637e-01   7.4242061e-01  -2.9812902e-01  -3.8981764e-01   8.7540820e-01   6.8096022e-02  -6.4731250e-01   5.6734898e-02  -4.9439407e-01  -3.6671122e-01   7.3211322e-01   2.1103126e-01   9.1993775e-01   1.0056201e-01   8.0465207e-01   8.3296663e-01   4.5184346e-01   8.4494468e-02   5.2739984e-01   3.6623435e-01  -1.8644688e-01   4.7378984e-01   7.2044564e-01  -6.2635153e-01   2.0373068e-02   4.4947281e-01   3.6848867e-01  -6.0658208e-01   2.5605045e-01  -3.9412525e-01  -8.1151857e-01   1.4159862e-01  -7.4117182e-01   5.4809707e-02  -1.2566730e-01   1.2190170e-01  -8.5691302e-01   4.9587317e-01  -3.7909538e-01  -2.8904937e-01   8.6846839e-01   2.2326703e-01  -3.9193369e-01   2.8203744e-01   9.1082056e-03  -9.0684853e-01  -2.7774354e-01   7.6560808e-01   6.8377259e-01   1.3061168e-01   2.5227524e-01  -1.2667647e-01  -4.4443748e-01   4.9520825e-01  -5.9470901e-01  -9.6252932e-01   2.3978382e-01   9.3173033e-01  -9.7828401e-02   4.4788442e-01  -3.9316857e-01  -9.5529474e-02  -3.7302417e-01   5.3083704e-01   7.4659316e-01  -7.3193000e-01  -4.4584084e-01  -8.9523705e-02  -4.9295859e-01  -6.4296518e-01  -9.5986428e-01   6.9852523e-01  -1.0098900e-01  -3.4784920e-01   8.9557664e-01   9.7803729e-01  -8.1343170e-01   6.8536885e-01   6.9256828e-02   7.9834108e-01  -4.9792927e-02  -5.7575331e-01   2.5445790e-01  -2.7429462e-01  -1.7779855e-01  -3.6901408e-01   2.0282154e-01   6.6176441e-01   6.7414737e-01  -8.0148073e-01   7.5340425e-01  -1.5026696e-01   2.3141839e-01  -4.5745184e-02  -9.3766262e-01  -3.9275332e-01  -8.6022835e-01  -1.6021725e-01   1.2895920e-01  -4.9855781e-01   6.7099205e-01  -3.3944677e-01  -8.3365418e-01  -1.9659701e-01  -3.4438078e-01   8.2006174e-01  -1.0081977e-01   4.0566896e-01  -5.4341018e-01  -2.7821931e-01  -1.8440817e-02  -5.0643850e-01   7.0194436e-03  -3.9068489e-01   1.7590783e-01  -2.4575762e-01  -5.5535345e-01  -3.0667493e-01   1.6418185e-02   1.5226048e-01  -2.4289973e-01   1.9015967e-01   1.4227987e-01   4.0062448e-01  -7.4129162e-01  -2.5451978e-01  -1.6603565e-02   6.8370671e-01   8.8118385e-01   4.0683725e-01  -8.6621557e-01   2.4463352e-01  -5.8810972e-01   6.1668074e-01   6.5775702e-02  -8.9410402e-01  -8.7536243e-01  -7.4278066e-01  -3.0296994e-01  -9.0731607e-01   4.7457104e-01   5.0858249e-01  -8.9143180e-01   6.5348655e-01   9.8332649e-01   7.1340865e-01   7.2194645e-01  -3.5841058e-01   4.4372224e-01  -3.6574045e-01   7.7535726e-01   3.1346960e-01   5.7832519e-01   7.5044837e-01   7.1658310e-01  -4.8656718e-01   3.7590479e-01   7.8782541e-01   4.5194008e-01   9.4872308e-01  -7.1729807e-02  -2.3629361e-01   6.5825335e-01  -2.3052854e-01   3.6231267e-01   4.6369382e-01   6.9437138e-01  -8.1326148e-01   3.0680774e-01   2.3041350e-01  -5.6891181e-01  -5.6587533e-01   4.7604745e-02  -6.3884223e-01  -1.3134518e-01   7.5328068e-02  -8.7892858e-01   9.9082996e-01  -3.0691060e-01   2.3118359e-01   6.1505954e-01  -1.0621078e-01   2.2394352e-01   1.6168243e-01   6.9773872e-01   1.6608377e-01  -5.0253250e-01  -3.7276052e-01   5.0402279e-01   8.0951114e-01  -9.2351274e-01   8.1564050e-01  -2.0572517e-02   2.7521465e-01  -1.0967025e-01   8.8134598e-01  -7.6651590e-01  -3.5809671e-01   8.8061435e-01   2.9362298e-01  -5.9410043e-02  -8.4761835e-01  -8.9405239e-01  -2.5593650e-01  -2.1724023e-01   4.6848188e-01   3.4666969e-01   6.4130954e-01  -7.5582516e-01   4.1828422e-01  -5.7754634e-01   4.4472098e-01   7.2993805e-01   5.3502568e-02  -1.7100174e-01  -2.4255072e-01   5.4772625e-01  -9.5401287e-01  -5.9729314e-01   3.3276899e-01   3.2864675e-01  -3.2034090e-01  -1.7626683e-01   6.9046502e-01  -3.5313619e-02  -7.7731129e-01  -2.6350662e-02   6.4464553e-01  -7.3791251e-01  -4.5502826e-01  -4.1791530e-01  -7.1910316e-01  -9.4570183e-01   7.0615925e-01  -5.9567943e-01   1.9635654e-02   3.9496076e-01  -7.4995832e-01  -6.5010836e-02   7.1369503e-01  -1.9023290e-01  -6.5813158e-01  -6.7772753e-01  -9.3160385e-01  -5.9848678e-01   2.6671610e-01   2.8012737e-01   9.6814607e-02  -4.1215432e-01  -2.7112765e-01  -6.8464402e-01  -3.0049555e-01   6.3536226e-01  -1.8586018e-02   2.0633483e-01  -8.4279624e-03   7.7308965e-01   7.4058152e-01   4.3488452e-01  -2.0423229e-01  -9.1977599e-01   9.4436979e-01  -1.5737454e-02   2.8093615e-01   7.0539442e-01  -8.1306201e-01  -5.5862042e-01   4.8859185e-01   9.1392275e-02   3.4921694e-01  -8.1495094e-01  -1.3428426e-01   6.4334068e-01  -3.5593286e-01  -2.3985026e-01  -7.6833832e-01  -9.9134942e-01  -2.2517141e-01  -2.5228849e-01  -6.6403902e-01   4.9106734e-01  -1.1048071e-01  -8.9900258e-01   2.0870744e-01  -8.1935009e-01   7.5103840e-01  -7.4610662e-01  -4.5401121e-01  -7.2012869e-01  -4.5654171e-01   5.4313082e-01  -2.6374197e-01   7.6919797e-01   5.3597648e-01   3.1601131e-01  -3.3852083e-01  -4.9550870e-01   6.6003223e-01  -6.2560098e-01   5.5804139e-01   8.0003390e-01   1.8014429e-01  -4.7648273e-01  -8.9415750e-01  -3.3566093e-01  -7.5182858e-01   3.8801610e-01   1.2829926e-02   6.7237343e-01   4.6376888e-01   8.0118277e-01  -9.9719206e-01  -3.3119585e-01  -7.4689022e-01   5.8979769e-01   1.4433584e-01  -7.0188884e-01  -8.7870688e-01  -8.9970790e-01   6.0738509e-01  -7.1533258e-01  -4.8385172e-02  -4.4521183e-02   7.1775302e-01  -4.5190095e-02  -7.7220588e-02  -5.3577674e-01  -5.3970410e-01  -4.3686129e-01   2.6056585e-01   3.2275666e-02   6.7760271e-01  -7.6740069e-01   9.6282561e-01  -2.2875102e-01  -3.8760562e-01   1.5595183e-01   6.8417526e-01  -6.5185358e-01   5.2642941e-01   5.1539049e-01  -9.8509284e-01  -5.0216996e-01  -5.2721032e-01  -2.2991860e-01  -7.0852694e-01  -9.6398524e-01   2.7734652e-02  -2.1657032e-01  -9.8801040e-01  -8.0272545e-01   3.7526866e-01  -4.9054333e-01   7.3894962e-01   2.4292809e-01   9.8277025e-01  -8.3481854e-01   5.4487098e-01   3.1737801e-01  -9.2314609e-01   6.4742659e-01   1.5850318e-01  -9.8519097e-01  -8.3603951e-01   4.7489343e-01  -8.8435799e-01   6.6395826e-01  -3.2516470e-02   9.1614399e-01  -7.6974036e-01  -5.3670757e-01   8.7971247e-01   6.1946067e-01   6.9073800e-01   7.4257425e-02  -6.7257614e-01  -8.2364185e-01   7.4697648e-01  -8.3155738e-01  -9.5634709e-01   1.4392167e-01   9.8292701e-01  -4.7888550e-02  -3.2460316e-03  -1.4279533e-01   6.3445624e-01  -9.1011087e-01  -3.1838983e-01  -1.3842892e-01  -9.7783911e-02  -7.3078433e-01  -5.3646015e-01   9.4699098e-01   1.4066686e-01  -2.5939883e-01  -1.6834433e-01   8.5807529e-01   4.3374607e-01  -9.4757022e-01   7.1512460e-01   3.4290567e-01  -5.3902783e-01   2.1215459e-01   5.4475257e-01  -8.4053959e-01  -6.4415371e-01  -5.0996641e-01   1.0562274e-01   3.2137856e-01   5.6677697e-01   6.5806960e-01   7.5711849e-01   8.0927130e-02   8.0820523e-01   5.4670100e-02   2.0494637e-01  -2.4001658e-01  -7.7652697e-02  -9.4190037e-01   5.5752903e-01  -4.3288955e-01   5.0857560e-01   9.4039221e-01  -2.7991809e-01  -6.3110803e-01   3.7510655e-01   9.9327196e-02  -1.9835381e-01   5.2234143e-01   1.3531374e-02   5.6711741e-01  -6.1822990e-01   5.0868262e-01   7.7053222e-02  -2.0853457e-01   6.7921667e-02  -1.7878440e-01  -1.7091091e-01  -9.3259968e-01   7.1882602e-01  -6.3887887e-01  -3.8947369e-01  -8.3591067e-01  -7.2880081e-01   7.7254963e-01   7.0131340e-01  -4.4274798e-01   9.6472558e-01  -8.8777357e-01   4.9498339e-01  -4.0410565e-01   8.2781875e-01  -8.5004157e-02  -7.4472085e-01  -2.7488420e-01  -5.4155881e-01   4.7329230e-01  -1.1146609e-01  -1.4410022e-01   1.9381755e-01   2.1566355e-01   8.5603634e-01  -5.6349711e-01   5.5736086e-01   4.3440670e-01   2.7509408e-01   5.4189342e-01  -4.9680648e-01  -3.6201935e-01   5.3631867e-01   1.3185741e-01  -7.2107296e-01  -9.7441424e-01   6.5718351e-01  -6.1265443e-01   9.5582101e-01   8.8271523e-01   3.0714033e-01  -8.4593462e-01   4.6369170e-01   9.1564235e-01   5.5529658e-01  -4.9799527e-01  -6.1073230e-01   3.6026362e-01  -9.9150961e-01  -6.6441212e-01  -3.4115400e-01  -5.8568515e-01   6.9048543e-01  -6.6377498e-01  -9.3364433e-01   6.2911136e-04  -8.9163625e-01   4.2480187e-02  -1.6614908e-01   7.8694238e-01  -5.5482533e-01  -6.3862861e-01  -9.0201296e-01  -3.0162056e-01  -8.3423040e-01   1.2002098e-01  -8.4866316e-01  -9.0074728e-01   6.3565717e-01  -6.4839100e-01  -5.7957492e-01  -4.2622631e-01   1.6806450e-01  -5.0574358e-01   1.9208498e-01   3.1453956e-01   7.9578507e-01   4.1248152e-01   4.9129462e-01   3.6363392e-01  -2.9411645e-01   4.8252716e-01  -9.7980977e-01   5.2623431e-02  -2.7119753e-01  -5.8764439e-01  -8.8964962e-01  -2.2531728e-01  -8.1536490e-01   3.2639814e-02  -5.0595584e-01   5.3214771e-01   1.1692037e-01   4.2932551e-01  -3.3118114e-01   5.5239572e-01  -8.9692893e-01  -8.8059627e-01  -9.4610644e-01   6.2580392e-01   3.5661404e-01   2.0587810e-01   4.8634023e-01   1.5788863e-02  -8.0479767e-01  -4.0823297e-01  -1.4328840e-01  -7.9962258e-01   3.4504771e-01   7.2763791e-01   8.3953915e-01
  -7.7770402e-01   3.8477370e-01  -3.9086555e-01   1.6900279e-01   3.3767029e-01   9.9451398e-01   3.5506360e-01  -4.7386254e-03   4.3414222e-01   9.4407605e-01   9.2044829e-01  -9.2819122e-01  -8.4809869e-01   4.0666017e-01   3.8086304e-01  -8.7138348e-02  -2.3838146e-01   8.9227327e-01  -9.3126050e-01  -7.1055528e-01  -9.7333618e-01  -4.3574410e-01  -6.7434380e-01  -5.2869572e-02   2.8686588e-01  -3.1547398e-01  -4.4225039e-01  -5.6132723e-01  -6.0407730e-01  -4.6290115e-01  -2.8368711e-01  -5.4845403e-01  -6.4116167e-01   3.4006860e-01   2.3745524e-01   4.2918722e-01   2.5735792e-01  -8.0984822e-02  -2.4793414e-01   9.6675602e-01  -8.6452035e-01   3.5842803e-01   7.7818713e-01  -1.5636607e-02   8.6647722e-01  -9.5181651e-01   9.8615703e-01  -4.1473986e-01   9.3571187e-01   8.4077520e-01  -8.7516252e-01   4.9145259e-01   6.5838518e-01  -7.9375797e-01   9.3210614e-01  -5.0448316e-01   4.2125167e-01  -5.8747259e-01   6.4836180e-01   6.0286517e-01   4.7333468e-01   3.9482865e-01  -8.4892771e-01  -2.9526919e-01   4.3863183e-01   5.8218611e-01   2.7304952e-01   5.1913647e-01   2.8264440e-01   4.9401197e-01   7.6223987e-01   1.6092038e-01  -4.4628334e-01   5.2883416e-01   1.3947621e-01   5.4909236e-01  -1.3581728e-02   3.6063926e-01   5.6740039e-01  -9.0480294e-01   7.8116543e-01   4.7652809e-01  -5.8315455e-01   5.3893020e-01  -8.6753593e-01   3.4860990e-01  -1.9625474e-01  -6.5837747e-01   7.8147605e-01   4.9799519e-02   3.8473497e-01  -8.6085467e-01  -4.8396118e-01  -6.0449372e-01   7.4417553e-01  -1.6840974e-01  -2.1582225e-01   7.2313914e-01   4.5616108e-01   8.1457383e-01  -9.9111728e-01   2.4411993e-01   8.6568562e-01   9.5406038e-01   7.5491969e-01  -1.5985440e-01  -9.2574531e-01  -5.3713655e-01  -4.0410505e-01  -9.1165494e-01   9.3623969e-01   2.8970083e-01  -2.2363817e-01   9.9748115e-01   8.5157333e-01   8.9984475e-01   2.3487254e-01  -6.2981463e-01   7.6353057e-01  -3.0475595e-01  -8.7494856e-01   7.3333177e-01   1.2868489e-01  -5.7671388e-01  -4.0091928e-01  -8.8265368e-01   4.2295426e-01  -7.7819237e-01   9.9342368e-01   6.6215565e-01   3.7955433e-02  -4.2680940e-01  -7.0138154e-01   4.7860563e-02  -1.2541932e-01   7.5397313e-01  -3.3897269e-01  -2.6960134e-01  -7.3401674e-01  -6.0344617e-02   1.6899441e-01   6.5330602e-01  -3.4512301e-01   7.1457170e-01   6.1438461e-01  -9.5322167e-01  -9.0957931e-02  -5.6257776e-01  -1.9032590e-01  -7.9869020e-01  -7.4853212e-01  -6.5088625e-01  -6.6867296e-01   9.8043855e-01  -4.3825312e-01   4.2463617e-01   3.2007994e-01  -5.1648236e-01  -6.1469145e-01  -4.4567145e-01  -5.3017712e-02   4.9945858e-01   2.2529312e-01   1.4998086e-01  -6.2381823e-01   3.1629926e-02  -7.4362230e-01   2.0515515e-01   9.1740378e-01   2.9373287e-01   1.2352845e-01   9.1022813e-02   6.2699038e-01   7.4201491e-01  -3.1800372e-02   4.6696894e-01   3.0467228e-01  -7.9689174e-01  -4.6544516e-01  -8.4995138e-01   9.6892144e-01   9.9809235e-01  -9.2202457e-01   3.3605672e-01  -8.4271917e-01   9.4941726e-01  -8.9970647e-01   4.8862184e-01  -4.0646217e-02  -8.5662321e-01  -7.2062847e-01  -2.5367616e-01  -9.2908064e-01  -2.4766229e-01   7.6011117e-01   4.7456358e-01  -4.1203463e-01  -8.5182038e-01  -4.2165500e-01   4.7752714e-02   9.7268559e-01   2.5763805e-02  -3.5733955e-01  -4.8389984e-01  -4.5971110e-01   6.6064293e-01  -2.3109196e-01  -9.3368927e-01  -1.2279159e-01  -9.7080162e-01   3.6524878e-01  -6.3423407e-01   5.5304741e-01  -9.3341388e-01  -8.3901553e-01  -6.8016632e-01   2.1442154e-02  -9.7547990e-01  -6.2483295e-01   3.0926217e-01  -7.0094834e-01   1.3815279e-01   4.0855661e-01  -6.2770165e-01  -2.7339515e-01   3.5358917e-02  -5.5544272e-01   4.2482779e-02  -9.0017136e-02  -8.4950997e-01  -2.5832567e-01   5.6713816e-01   8.6635516e-01   5.0019968e-01   6.4126074e-01   8.9687508e-01  -3.9971223e-01   8.0231474e-02   5.5504895e-01  -1.0994944e-01  -1.3955672e-01  -6.3374462e-01   5.9808954e-01  -9.0969274e-01  -6.1684181e-01  -1.6028966e-01   1.1861196e-01  -9.5206173e-01  -5.1838501e-01   7.9737562e-03  -9.8211051e-01  -2.2113742e-01  -1.4188571e-01  -6.3613955e-01   1.9502852e-02   2.9273697e-02   8.1625953e-01   2.1956041e-01  -9.4903427e-01  -7.5841049e-01   5.6278997e-01   3.3768180e-01  -8.4429603e-01  -4.9304318e-01   3.2821905e-01  -2.0260802e-01  -3.5631339e-01   9.0980470e-01   2.0632837e-01  -9.8490146e-01   1.6049837e-01   4.6797414e-01   2.9053834e-01  -1.1198561e-01   9.3646905e-01   7.3839747e-01  -1.6262642e-01  -4.5821535e-01  -9.3028127e-01   3.8954910e-01   5.8435131e-01  -6.9021552e-01  -9.5474772e-01  -3.7980573e-01   3.9670485e-01  -4.1399041e-01   5.7203652e-01   2.7652446e-01   7.2476739e-01   6.5681339e-01   9.6821556e-01  -2.5030206e-01   6.7192016e-02  -4.9641884e-01   7.2506174e-01  -5.9036156e-01   3.0986863e-01  -5.7597369e-01  -1.7263864e-01  -4.1540031e-01   2.8839675e-01   1.7839370e-01  -2.0476852e-01   7.6579617e-01  -4.7190109e-01   4.6774367e-01   3.2670430e-01  -6.9435670e-01  -5.8648064e-01   1.6953331e-01   5.6894435e-01  -3.4425141e-01  -7.2601469e-02   5.5666380e-01   5.7156979e-01  -2.0680484e-01  -4.5118884e-01   3.5182940e-01   5.8839917e-01   1.0912907e-01   8.7377828e-01   7.2509401e-01  -1.2441932e-01  -7.1612521e-01   6.0465619e-01   8.6139753e-02  -4.3006445e-01   8.3015806e-01  -7.3356369e-01  -4.6397763e-01   8.4371702e-01  -6.0539944e-01  -3.6263255e-01   5.0572947e-01   4.3092252e-01   9.6120347e-01  -8.7493757e-01   5.2002601e-01   7.5482290e-01  -1.6299548e-01   8.2284802e-01  -7.7758431e-01   2.2115142e-01  -7.5207556e-01   2.6539761e-01  -6.5941255e-01  -1.5229810e-01   7.5122641e-01  -4.3361644e-01  -2.5838490e-02  -1.3479022e-02  -7.3971960e-01  -8.2509026e-01   4.1968107e-01   4.4756193e-01   8.1086752e-01  -1.6319843e-01   4.6655836e-01  -6.8272639e-01  -3.5431812e-02  -6.1425196e-01  -2.2179521e-01  -7.9251660e-01  -2.2217000e-01  -8.8377663e-01   1.0742990e-02  -5.5102864e-01  -5.9189606e-01  -6.4576092e-01   4.1300276e-01   2.2712509e-01  -2.8137318e-01  -2.0699399e-01  -1.3005166e-01   2.2641526e-01  -3.3796698e-01   7.7437911e-01  -3.3419200e-01   9.7821216e-01  -7.8404964e-01  -1.2834720e-02  -8.5074276e-01  -1.4904095e-01   2.6893714e-01  -7.0936096e-01  -6.9323067e-01   5.1924640e-01  -2.7376299e-01  -5.1490481e-01  -6.5488654e-01   2.5197597e-01  -8.8776597e-01  -7.6257449e-01  -5.6184837e-01   6.5739798e-01   6.6320177e-01  -6.9056474e-01   4.9348439e-01   9.6431676e-01  -3.3871828e-01   4.0947771e-01  -2.0124550e-01   7.4683830e-01   9.3047300e-01   8.2714099e-01   5.7975490e-01  -7.2116769e-01  -2.9051696e-01   7.2187839e-01   9.5390154e-01  -9.7186597e-01  -3.1133743e-01   4.5755200e-01  -4.2291498e-01   4.2218301e-01   5.9843939e-01  -8.1994483e-01  -4.0584386e-02  -7.1716038e-01   3.5674633e-01   2.0702013e-02   4.1363185e-01   6.5769608e-01   6.8405495e-01  -3.1649892e-01   1.7550311e-01   1.7348511e-01  -6.4098845e-01  -2.6796739e-02  -3.8559779e-01  -1.0467878e-01  -8.5918671e-01   3.3943528e-01   5.5223715e-01   2.5726240e-01   6.3087080e-01  -4.7246347e-01   1.0834180e-01   9.6743606e-01   8.9511222e-01   1.4202263e-01  -7.2379998e-01   3.9224466e-02  -2.5850659e-01  -7.9187378e-01  -3.8303465e-01   5.5668119e-01  -9.2371639e-02   1.8223201e-01  -8.8321391e-01   1.5176550e-01  -1.9144372e-01   5.7433173e-01   6.5832575e-01  -9.7863481e-01  -9.9806990e-02   3.8162499e-01   3.2583711e-01  -3.6614637e-01  -2.0340693e-01  -1.2849425e-01   8.6299980e-01  -1.4519459e-01   9.7084270e-01  -9.5497569e-01   4.7808374e-01  -2.2482466e-01  -7.6427375e-01   5.8190642e-01  -8.8772733e-01  -6.2787872e-01  -7.7613757e-02   4.9604160e-01  -6.3441789e-01  -4.0222457e-01  -5.2104704e-01   1.8719156e-01  -5.7176834e-01  -6.0395621e-01  -2.3812269e-01  -6.6961728e-01   1.9301959e-01   1.9266705e-01   6.6463635e-01  -1.4374080e-01  -3.0085021e-01   1.4646189e-01   2.0178189e-02  -1.2823284e-01  -5.3997877e-01   9.2205062e-01  -3.4936832e-01   9.7597539e-01  -9.8404489e-01   9.0898830e-01   3.1130449e-01  -5.7911969e-01   3.9402701e-01   7.9988888e-01   5.1411739e-01   6.9162771e-01  -7.3092896e-01  -9.5667681e-01  -3.5135224e-01   3.8729254e-01   7.4274123e-02   8.9712670e-02   4.4704311e-01  -6.0652949e-01  -9.6267910e-01  -7.3085194e-01   6.8494561e-02   2.9480255e-01  -2.6829349e-01  -1.7103915e-01  -3.4359732e-01   5.2225243e-01   4.7896555e-01   8.5747300e-01   6.4627832e-02  -7.2594896e-01  -9.8624274e-01  -4.2829149e-02  -2.5599961e-01   8.3614952e-01  -5.9220742e-01   6.6558398e-01   5.8423965e-01   3.5593221e-01  -7.8779781e-01  -9.8710196e-01   6.9271568e-01   2.1452284e-01  -5.7609514e-01  -2.4399542e-02  -4.8194344e-01   1.9492539e-01   6.0918293e-01   8.6397940e-01  -7.0770287e-01   7.5704620e-01  -7.6588785e-01  -7.6631033e-01  -4.9526257e-01  -5.1702329e-01   1.6897091e-01  -7.8932306e-01   2.0069880e-01  -8.3781426e-01   6.0353650e-01   6.1093109e-01  -8.7480702e-01   5.2262346e-01   5.6728877e-01   1.2883042e-01   5.3787958e-01  -6.3013426e-01  -6.4896523e-01  -9.0621667e-01   3.4864435e-01   6.4647350e-01  -2.7183234e-01   8.5653998e-01   9.3307481e-01   5.5158328e-01  -3.0172324e-01  -9.4449515e-01  -1.7034229e-02  -1.7852836e-01   5.9747911e-01  -8.1098995e-01   3.9141266e-01   4.5189553e-01  -3.3222381e-01   3.4739116e-01  -9.8638579e-01   8.6019643e-01   4.9605380e-01  -8.9180809e-01  -8.5424342e-01  -8.7611248e-01   6.3364785e-01  -1.8511672e-01   3.9859082e-01  -7.3973391e-01  -5.8350324e-01  -8.7085153e-01   8.3344782e-01  -6.9925617e-01   3.8134316e-01  -4.5654206e-01  -3.7922563e-01  -2.0797893e-01   5.2088321e-01   3.5619579e-01  -2.7918762e-01  -6.7055501e-01   2.6763725e-01  -5.1554660e-01  -4.8224645e-01   4.9138659e-02   8.1315388e-01   4.9592601e-01  -9.2773570e-01  -9.0568515e-01   7.3448460e-01  -5.8764978e-01  -7.8107157e-01  -3.0823966e-01   3.0414482e-01   8.1951634e-01   1.9818198e-01   9.5478821e-01   4.6966966e-01   5.8107674e-01  -6.3829989e-01   8.4791774e-01  -5.2221892e-01   3.2071662e-01   2.8044756e-01  -6.4521190e-01   8.2308631e-01  -6.2515809e-02  -3.6947184e-02  -4.2273130e-01  -1.0500218e-01  -1.5677895e-01  -5.8838044e-01  -7.4341344e-01  -9.0224610e-01   5.4571707e-01   7.4213609e-01   6.0215916e-01  -5.2217337e-01  -3.8810583e-01   3.9165582e-01  -1.9863981e-01  -5.7036607e-01  -2.1935684e-01  -6.1145145e-01  -8.1506970e-01   8.1493561e-01  -9.3595607e-01   8.1500951e-01   1.3334965e-01   1.2057340e-01   4.4148545e-02  -1.6313213e-03   2.1653675e-03   1.9460525e-01  -5.9721950e-01   2.9227035e-01   1.9551274e-01  -2.5330960e-01  -9.1197143e-01   8.8273620e-02  -4.6402551e-01  -4.5513685e-01   8.3692537e-01   4.2344738e-01  -2.0771335e-01   5.4717892e-01  -3.3479419e-01   2.2679974e-01   5.8664652e-01   7.8104988e-01   1.8719369e-02   6.1096136e-01  -4.4770036e-01   1.5912459e-01  -7.2955420e-01   5.0009429e-01   5.7779053e-01  -8.2729765e-01  -2.5305941e-01   5.3409053e-01  -8.4219967e-01   4.9481862e-01   6.5673340e-01   6.6708456e-01   7.1980771e-01   3.9007644e-02   9.0167848e-01  -2.5128293e-01  -8.2405682e-01  -4.6598233e-01  -9.6131840e-01  -8.9485788e-01  -2.1453908e-01  -3.6193607e-01   3.8614231e-01   9.0298882e-01  -8.0825619e-01   2.6615404e-01   5.2885885e-01  -9.2850261e-01  -7.6820049e-01   2.2774367e-01   5.3280215e-01   7.1580175e-01  -9.5043589e-01   7.1600944e-01  -1.4711117e-01   8.2517205e-02  -4.1107617e-01  -5.5593417e-01   9.9162095e-02  -8.0301351e-01  -4.7411925e-01  -9.9533858e-01   9.1984862e-01  -5.0813409e-01  -3.3275409e-01  -7.0916555e-01   2.3281251e-01   6.7837456e-01   2.0904628e-01  -9.3063140e-01  -7.3170586e-01   5.1371432e-01   3.7823912e-01  -4.7213876e-01   3.0127212e-01  -3.3625586e-01   7.4200083e-01  -6.4382601e-01   5.5188276e-01   7.2122192e-01  -1.8826713e-01  -5.9121658e-01   6.8750628e-01  -6.1002923e-01  -5.4643201e-01   7.9907307e-01   3.8228301e-01   8.0645809e-01   3.9817422e-01   2.5278721e-01  -1.9453343e-01   8.9856034e-01  -4.4297187e-01   1.7988308e-01   9.3973759e-01  -6.6031255e-01  -4.4287343e-01  -1.1793370e-01  -9.0087165e-01   7.8733398e-01  -7.9816890e-02   9.1347750e-01  -5.2522025e-01   1.6834976e-01  -7.6932134e-01  -4.7232714e-01   1.6391342e-01   9.1711481e-01   8.8881540e-02  -7.1320905e-01  -7.4507157e-01   9.6482558e-01  -1.7428146e-01   7.8416556e-01   8.2749054e-01   2.0728080e-01   7.5217031e-01  -9.8349615e-01   9.6593868e-01   3.7988579e-01  -2.8020733e-01   1.2823343e-01  -7.3968348e-01  -6.1810147e-01  -3.9176104e-01   6.4183092e-01  -4.2636095e-01   9.6697333e-01   4.7063831e-02   1.2708166e-01   7.7480762e-01  -2.4813375e-01  -3.8482698e-01   9.3807363e-01   4.2605481e-01   8.0658982e-01  -6.9296371e-01   1.2068554e-01   5.3459059e-01  -7.6835411e-01   7.7981306e-01   5.4745756e-01  -1.6935645e-01  -9.7319987e-01  -8.0910312e-01  -8.6973035e-01  -9.8007858e-01   3.5724027e-01   7.8924084e-01  -1.6453678e-02   8.5250701e-01   7.6489211e-01   7.3548780e-01  -7.4219496e-01  -8.2141798e-01   8.9767917e-01   6.6055506e-01   5.5812097e-01   4.0495232e-01   2.1805122e-01  -8.0676937e-01   2.8042298e-02  -3.9477737e-01   2.8957843e-01  -6.8789786e-02  -5.6743313e-01   8.3289010e-01  -6.5000026e-01  -5.9239245e-01  -5.9349769e-01  -7.5780256e-01   2.5284358e-01   9.8372713e-01   3.6042758e-02  -9.4363874e-01  -5.7570800e-01  -3.5787245e-01   2.3429091e-01  -7.0176421e-02   3.9346072e-01  -3.9335543e-01   5.4657417e-01  -9.2346056e-01   2.3449477e-01  -4.3833408e-01   5.9036297e-02   4.7111581e-01   2.3298236e-01  -8.8406804e-01   8.8910554e-01  -8.1134317e-01  -3.9586778e-01   7.0867876e-03   2.1299178e-01   8.3571067e-01  -8.9299423e-02  -1.5305849e-01   5.2417747e-01   6.3261676e-01  -7.5788618e-01   5.4148472e-02   1.5971733e-01  -7.5219188e-01  -7.3327736e-01   6.6931136e-01   4.2463299e-01  -6.9442221e-02   6.8484228e-01   4.8266535e-01  -7.1260708e-01   4.4196050e-01  -5.5778794e-01   7.2250517e-01  -5.3369053e-02  -9.2216032e-01   9.7219696e-01   5.5054477e-01   9.9524677e-01   9.8030123e-01  -8.4724137e-01   5.1875532e-02  -7.5681070e-01  -6.0774179e-01  -5.2519536e-01  -1.0576520e-01  -7.2415355e-02   5.2592790e-01  -2.3754368e-01   5.6568904e-02  -1.6485468e-02  -6.5445261e-01  -5.7482015e-01   7.4713359e-01   5.4254335e-01   1.1089313e-01   5.3692027e-01   3.8524221e-01  -9.2357944e-01  -8.0177664e-01  -1.7964833e-01   6.0769671e-02  -8.9233307e-01   3.7643980e-01  -6.5965670e-01   3.7473748e-01   8.1470990e-01  -5.0458975e-01  -9.6465890e-01  -6.8396233e-01  -5.3584916e-01   6.9268661e-01  -6.5511875e-01   6.0227668e-01   9.2991155e-01   4.7465644e-01   5.4934038e-01   3.1227438e-01  -9.4674404e-01  -2.4752489e-01  -5.0819674e-01  -5.4846666e-01  -6.5493606e-01  -3.9168455e-01  -5.2785476e-01   6.3355122e-01   7.8748232e-01  -3.4403120e-02  -2.1499653e-01   1.7229810e-01  -9.0062472e-01  -3.2550968e-01  -8.2181709e-01  -8.5736896e-01   7.4685488e-01   9.5255506e-01  -4.9010869e-01   1.5285044e-02   5.0921809e-01  -5.9697879e-01  -7.7677817e-01  -3.8483600e-01   7.2878855e-02   1.0716960e-01   8.8657144e-01  -7.9940047e-02   3.2938774e-02  -7.1197902e-01  -4.8281225e-01  -3.6503214e-01  -8.2279835e-02   4.7538860e-01  -5.2415430e-01  -8.8090564e-01  -6.1913322e-01   6.0482047e-01  -4.5991727e-01   1.6783361e-01  -1.7356385e-02   6.0945599e-01   8.9513242e-01  -3.9275956e-01   2.9606183e-01   2.4289788e-01   4.1002943e-01  -6.9494683e-01   3.8698039e-01   9.7355199e-01   7.0289664e-01   7.6289271e-01  -9.2029399e-01  -4.2573956e-01   4.4679597e-01   5.8571304e-01  -5.2909681e-01   7.4866681e-01   8.6509218e-01   1.1018567e-02  -4.3501461e-01   4.7277927e-01   9.0793457e-01   6.9023087e-01   5.0038686e-01  -2.1692878e-01   5.4208939e-01   6.7766861e-01   4.4948725e-01   3.7851446e-01   5.3967717e-01   1.8149323e-01  -2.2217941e-01  -8.3307781e-01  -5.7377884e-01  -2.0147970e-02  -6.1674486e-01  -6.9845424e-01  -2.6501238e-01  -4.7785427e-01  -9.2725246e-01   2.3293060e-02   6.4131844e-01   8.7583457e-01   5.4415072e-01   4.7151478e-01  -2.1872592e-01  -4.4521234e-01   5.9205860e-01  -5.6503428e-01   2.7700496e-01   5.2206476e-01  -7.1786166e-01   4.5427642e-01   7.4357438e-03
  -6.7506737e-01   8.2946459e-01  -6.3654514e-01  -2.9192427e-01   9.4372259e-02  -8.7223225e-01  -5.7530690e-01   5.7344536e-01   6.4680044e-01   9.7926580e-01  -5.0908201e-02  -2.9195000e-01  -5.4707610e-02  -2.7569325e-01   3.5234854e-01   6.6364532e-01   9.1526413e-01   9.7230902e-01  -5.5480969e-01  -7.0612225e-01   5.2454084e-01  -5.3302201e-01  -4.8249245e-01   3.9019260e-01   1.2649680e-01   6.0741625e-01  -4.3656491e-01  -5.5502189e-01   1.8188956e-01  -3.7860891e-01  -5.2526927e-01   6.3945158e-01   1.5209671e-01  -3.0059081e-01  -8.8467544e-01   4.9868751e-01  -6.1181379e-01   7.0205625e-01   7.6917091e-01   1.3575641e-01   1.0771220e-01   5.1077668e-01   3.0403075e-01   6.8147311e-01  -9.3437105e-02  -9.0477884e-01   2.5017515e-01  -3.2284567e-01   8.8840352e-01  -2.6143212e-01   6.7573959e-01  -1.8066748e-01   1.2145162e-01  -5.2695969e-01   8.3544341e-02  -4.7035608e-02  -2.4628130e-01  -5.1898307e-01   7.7068674e-01  -7.0234500e-01  -8.5031206e-01  -9.9201775e-02  -2.0309772e-01  -6.3224006e-01   5.4377486e-01  -6.1245148e-01  -4.3300668e-01  -1.3842999e-01   7.9641014e-01   9.4792450e-01   8.6005252e-02   1.7794054e-01   9.3171711e-01  -9.5852721e-01  -4.1653547e-01   6.2152637e-01  -8.6937654e-01   4.0445671e-01   2.2723375e-01  -4.2930896e-02  -4.6086708e-01  -4.1326935e-01  -2.1464867e-01   1.6825063e-02   6.3262429e-01  -6.3676074e-01   6.7698915e-01  -3.0644376e-01   2.8115731e-01   3.3700920e-01  -7.2160823e-01   4.1204884e-01   8.6194000e-01  -5.4689355e-01   2.3858021e-02  -6.7775464e-01  -3.5123629e-01   4.6059354e-01  -8.0399736e-01   3.2496517e-01  -3.8071811e-01  -8.1439991e-01   1.3904824e-01  -9.0508911e-02   8.4360198e-01   8.0735297e-01   6.0041379e-01  -5.4182302e-01   5.5762953e-01  -3.4350540e-01  -9.1955890e-01  -2.2585844e-01  -3.0826824e-02  -3.7040381e-01   8.2925902e-01   2.9248948e-01  -7.2589860e-01  -7.3849843e-03   4.7533299e-01  -5.7382029e-01   5.4799630e-01  -9.2114065e-01   7.5817479e-01  -2.0276888e-01   5.3768613e-02  -4.2567058e-01  -9.9630640e-01   7.7915111e-01  -7.3119990e-01   1.2163830e-01  -7.1660713e-01  -4.9644719e-01   5.4837831e-01  -6.1797001e-01  -9.4621668e-01   7.8499704e-01   4.0592547e-02  -4.6857502e-01  -2.8317006e-01   3.6656729e-01   8.2024716e-01   1.0789454e-01   7.7167518e-01  -6.4423282e-01   2.5424540e-01   3.4297758e-01   7.8585731e-01   3.5273961e-01   2.8358469e-01   5.4780809e-01  -6.2677547e-02   1.2153421e-01   4.7460204e-01  -9.1584382e-01  -1.0891952e-01   7.9605583e-01   5.9320028e-03  -5.8237877e-01   3.3107663e-01  -3.3232938e-01   2.1063181e-01  -9.5817211e-01   5.7239159e-02  -1.0432105e-01  -8.0470717e-01   3.9276544e-01  -4.4147068e-01  -1.4631590e-01  -7.4044454e-01   2.1235645e-01   1.5267470e-02  -5.1274334e-01  -7.9432929e-01   3.3329284e-01  -5.2327354e-01  -9.8558156e-01  -5.1850446e-01  -7.1096497e-01   5.8279738e-01   5.1927360e-01   6.4204950e-01   5.8575190e-01   3.7987998e-02  -3.2225736e-01  -9.6744060e-01   1.4787376e-01   8.4328839e-01   9.6689249e-01   3.4869022e-01   3.0444801e-01  -1.0688947e-01  -4.1603987e-01  -4.2587479e-01  -7.5191994e-01  -2.7380835e-01  -7.4565951e-01  -9.9108011e-01  -1.0630380e-01  -6.5704863e-01   2.9887260e-01   3.4923229e-01   4.4087095e-01   7.5726878e-01  -4.1653573e-01  -4.1225274e-01   2.7570166e-01   2.0420093e-01  -5.9330094e-02  -6.9085109e-01  -2.1881921e-01   6.3542231e-01  -4.2822151e-01  -9.6460439e-01   6.2619489e-01  -6.3375627e-01  -3.5620265e-01   9.6172652e-01  -4.3581410e-01   8.7884711e-01   2.5746112e-01  -3.6007233e-01   5.2868032e-01  -7.1929395e-01  -8.3639065e-01  -8.0370301e-01  -4.7885111e-01   3.7848487e-01   6.4120808e-01   2.1964086e-01   9.4267730e-01   5.1165838e-01   2.6680100e-02  -7.3513060e-01   1.1151395e-01   8.8726081e-01   7.9183994e-01  -4.8735612e-01  -3.7049118e-01   8.2232174e-01  -6.1352396e-01  -5.0256685e-01  -2.8312881e-01  -3.9477855e-01   6.5415918e-01   5.3221902e-01   3.4918723e-02   5.7698338e-01  -5.6124427e-01   6.5938833e-01  -4.3795240e-01   6.8969959e-01   4.1456986e-01   2.2424607e-01  -9.5273329e-01  -1.0036968e-02  -2.4652705e-01  -7.4099025e-02  -2.8210069e-01  -3.4279920e-01  -7.5012390e-01  -1.9115454e-01   9.8055003e-01   9.2637636e-01  -9.1941536e-01   4.3797574e-03   7.0457503e-01   1.8283079e-01   5.9355038e-01  -9.5024415e-01  -7.3969522e-01  -7.1773965e-01  -6.1149429e-01   8.8890319e-02  -8.8036993e-02  -9.2822580e-01  -2.8480977e-01  -4.0941675e-01  -5.6981469e-01  -2.7381370e-02   7.7996426e-01   3.6508405e-03   9.5367447e-02   4.2911094e-01   7.3537491e-01   5.0166983e-01   4.8005290e-01   5.2277064e-01  -9.9700477e-01  -3.9464655e-01   3.0285094e-01   3.0500093e-02  -3.2877955e-01   6.4503300e-01  -3.5711182e-01   9.7917144e-01  -9.4940902e-01  -4.9102870e-01  -6.5313532e-01   8.5757774e-01   3.1454674e-01   3.6678013e-01   4.8292090e-01   7.7123464e-01   9.1689198e-01  -9.8404376e-01  -4.1207964e-01  -1.1401415e-01   3.4379841e-02  -2.4398554e-01  -4.5337074e-01  -8.8737794e-01   4.1211427e-02  -3.9919417e-01   9.2773335e-01  -4.3285911e-01  -6.0576133e-01  -3.1170002e-01  -7.1190996e-01   8.5130586e-01  -5.5368594e-01   2.3879202e-01  -1.2400971e-01  -1.5904289e-01  -2.0946641e-02  -7.0634324e-01  -3.8170509e-02  -6.6564328e-01  -1.3920053e-01   3.2440543e-01   4.1126365e-01  -8.2940518e-01   3.4504728e-01   4.4351944e-01   4.7251292e-01  -5.0667389e-01   9.8573187e-01  -4.5532367e-01   9.5724910e-01  -3.1894580e-01   8.5344327e-01   6.2601085e-01  -9.4631410e-01  -5.8509508e-01   1.8295661e-01  -3.7339869e-01   2.1482774e-01  -1.9383927e-01   9.2294143e-01  -2.3148699e-01  -5.4234610e-01  -4.3673309e-01   3.9845975e-01  -4.1938984e-01   8.1636030e-02  -9.0558266e-01   7.0618867e-01  -6.1577900e-01   5.6943664e-01  -1.0364513e-01  -8.0468232e-01   6.6192761e-01   5.6115822e-01   5.6841948e-01   5.8905626e-04   8.4049543e-02  -5.7126354e-01  -2.6477225e-01   9.5433401e-02  -6.5968477e-01   6.8044097e-01   9.4627900e-01   2.4495771e-01  -3.7051012e-01   1.8183879e-02  -8.0751690e-01   3.2548112e-01   7.7306508e-01  -4.9181278e-01  -2.4400970e-01  -8.4517605e-01  -6.0883510e-01   1.2294888e-01   5.6790288e-01  -1.6868108e-01  -1.9987142e-01  -5.5394863e-01  -9.4260712e-02  -7.2677609e-01   2.0879429e-01  -5.6642558e-01   2.9696962e-01   4.6655713e-02   2.2151043e-01  -2.2852513e-01   8.8253441e-01   6.3747179e-01  -9.2096328e-01   8.2897035e-02   4.8203934e-01   7.3332801e-01  -9.2147744e-01  -1.7191694e-02   6.1056907e-01   9.9442623e-01  -4.5016015e-01   3.7859315e-01   8.5666267e-01  -2.4609639e-01   8.8404728e-01   3.6335667e-01   9.2336992e-01   1.0226763e-01  -6.8688881e-01   3.7422412e-01  -4.8075715e-01   2.4617378e-01  -2.1601806e-01  -2.5332630e-01  -6.6840741e-01   6.6197856e-01  -9.1294536e-01   1.1505957e-01   6.7236128e-01   8.7635766e-01  -6.6988793e-01   3.5003129e-01   9.2046516e-01  -4.0941865e-01   3.4309398e-01   9.7569064e-01  -6.1744346e-02   1.7116054e-01   7.6477637e-01  -2.7032956e-01  -1.2750184e-01   1.1698180e-02   4.1964517e-01  -1.0840531e-01  -4.4593995e-01  -3.1286953e-01   8.6483429e-01  -1.7841260e-01   5.4514555e-01  -3.1350251e-02   1.0174386e-01   1.9940951e-01   2.8678412e-01   8.1586182e-01   1.0240320e-01  -6.7930235e-01   6.4115733e-01   7.6791819e-01   4.2537643e-04   6.7687369e-01   8.2022879e-02   9.4248849e-01  -8.5054988e-01   7.7463679e-01   2.3341310e-02   3.8228623e-01  -5.7043315e-01  -1.2704389e-01   2.5386667e-01  -4.9399104e-01   4.6124220e-01  -2.7430019e-01   7.6748772e-02  -2.9778438e-01  -9.8265184e-01  -7.0152711e-01  -2.8182308e-01  -3.4115416e-01   1.7449498e-01   2.9901035e-01   2.2818425e-01  -4.2321551e-01  -4.9668978e-01   4.5234709e-01   5.6633732e-01  -1.3399537e-02  -4.9498232e-01   3.6182962e-01  -4.4226474e-01   2.4850304e-01   2.1490244e-01   8.6089764e-01  -7.6493113e-02   9.0182828e-01   4.5721532e-01   5.6563917e-01  -9.0448492e-01   9.0749698e-01   1.9960768e-01  -5.0119201e-01  -2.7324230e-01  -7.5694673e-02  -8.7488724e-01  -4.9882784e-01  -5.6995437e-01   2.0901539e-02  -5.9681403e-01   4.2387689e-01   1.7870012e-01   7.2933448e-01   4.5586106e-01   3.9483871e-01  -8.5144000e-01  -7.1582422e-01  -4.0624006e-01  -2.5884275e-01  -2.1867640e-01  -8.3446563e-01  -6.5660558e-01  -9.6401977e-01   5.0175016e-01  -6.8577365e-01   7.2909355e-01  -9.0732816e-01  -9.5228326e-01  -3.5610896e-01  -5.5484042e-01  -8.7587208e-01  -3.4460708e-01   1.0470818e-01  -4.2048324e-01   2.6700807e-01   4.4329977e-01   8.5767149e-01  -2.3524142e-01   7.8168588e-01  -4.3357655e-01  -3.9055058e-01   4.1148693e-01  -4.8136352e-01   3.0198743e-01   8.3226293e-01  -6.7775581e-02  -2.9177369e-02   9.7326431e-02  -8.9625317e-01  -2.9736364e-01   5.6737277e-01   6.7315911e-01  -5.5148978e-01   7.4768108e-01  -3.6959966e-01   5.2738522e-02   6.3319460e-01  -6.5659648e-01   6.2762408e-01  -2.4553015e-01  -5.9304666e-01   7.6268375e-01  -7.7980446e-01   3.7454638e-01   8.3325561e-01   8.1947825e-01   7.0376302e-01  -9.4824967e-01  -4.4733679e-01   3.4416809e-01   4.9706045e-01   7.3372053e-01  -8.9475870e-01  -5.9870994e-01  -6.3187341e-01   7.5322104e-01   5.8692306e-01   6.0064768e-01   1.5531099e-01  -9.0651660e-01  -9.1677602e-01   9.5187834e-01   5.7104850e-01   4.6145982e-01   7.4561723e-01   5.1859507e-01  -6.9403910e-01   7.5769029e-01  -8.7324638e-02  -6.0566420e-01   1.5945592e-01  -9.6816008e-01   1.0544009e-01   4.7662847e-01  -2.0357187e-01  -2.5113450e-01  -5.4711527e-01   4.6839710e-01   4.8615933e-01  -2.2276841e-01  -1.6327610e-01   7.5630236e-01   3.9644356e-01   6.9028813e-01   6.6040835e-02   7.3798317e-01   9.8019269e-01  -7.9828124e-01  -8.3617761e-01  -6.3349620e-01   4.7319485e-01   6.9470055e-01  -4.0999771e-01   1.3476030e-01  -1.7317249e-01   7.0587593e-01   7.0013251e-01  -9.9623358e-01  -1.7198590e-01   8.9391601e-01   5.2826827e-02  -7.3681602e-01   7.9974622e-01  -6.3578913e-01   9.8916500e-01  -2.2330711e-01   8.8208456e-01  -3.0382312e-01  -3.3072640e-01  -3.2900480e-01   3.9944454e-01  -3.5092135e-01  -8.7803629e-01   5.8537216e-02  -3.0708464e-01   7.8289767e-01   3.3163589e-01   2.8535987e-01  -4.7837869e-01   7.0539499e-01   3.0842884e-01   2.5775199e-01  -3.5139017e-01   6.3787117e-02   4.0909993e-01  -9.4219671e-01   2.3915110e-01   3.8089231e-01  -5.9952159e-01   7.2902931e-01   7.3120370e-01   7.3016465e-01  -9.6105447e-01  -2.5343942e-01  -4.6258846e-01   2.3753897e-01  -4.1476340e-01  -2.2031480e-01  -7.4714648e-01   5.9506859e-01   7.6231828e-01   4.2769135e-01   6.2902301e-01   6.3542086e-01   3.9209057e-01   8.8831195e-01   1.0643420e-01  -5.2111318e-01  -1.5155638e-01  -2.3020112e-01  -6.4293413e-01   1.8480613e-01  -3.3659952e-01   9.9912080e-01   9.7305783e-01   4.4791555e-01  -2.7136576e-01  -4.0556356e-01  -3.2085680e-02   7.2893356e-02   9.7437773e-01   1.8700858e-01  -8.1116181e-02   8.1014590e-01  -9.5030178e-01  -6.2718084e-01   9.1930056e-01   1.0233193e-01  -5.8469656e-01  -3.8738352e-01   5.4030801e-01  -7.9650071e-01  -6.4358655e-01   7.9020417e-01  -5.7342016e-01  -6.2819876e-01  -4.8590142e-01   1.0963878e-01  -1.3039678e-01  -7.7181436e-01   1.8721516e-01   1.3286270e-01  -4.3763221e-01   5.8743864e-01   9.4177503e-01  -1.6088884e-01  -6.3213296e-02  -9.9674980e-01  -1.2180439e-01   1.0960773e-01  -4.3826124e-02  -2.9831800e-01  -9.3580232e-02  -7.9806893e-01  -9.6551181e-01  -2.9431602e-01  -4.2207001e-01  -2.2648252e-01  -1.3076079e-01  -6.6990612e-01   5.9831835e-01   1.8733689e-01   1.1513197e-01   7.0891903e-01   9.8451152e-01  -8.6957274e-01   5.3516298e-01   7.3661274e-01  -4.7677706e-01  -2.8710018e-01   4.9655045e-01   4.0756618e-01  -2.4285475e-01   7.6937015e-01   9.0648168e-01   2.3231713e-01  -9.6026631e-01  -3.1840507e-01  -5.8985836e-01   3.5731194e-01   9.8629328e-01  -1.1070184e-01   5.2577447e-01  -7.0730659e-02  -2.8867739e-01  -7.8391001e-01   8.1405769e-01  -1.6852908e-01   3.6655570e-01   3.4343949e-01  -8.2371933e-01  -1.1893712e-01   4.8419312e-02   2.1239556e-01  -8.5367273e-01  -5.7060441e-02  -6.4300425e-01   2.9443513e-01  -8.4263663e-01  -4.1549609e-01   7.9470659e-01   5.2000723e-01   4.7522767e-01   4.5891962e-01  -9.1751041e-01   5.5043691e-01   8.4685439e-01   8.1561781e-01  -9.3256285e-01   3.1238675e-01  -5.1759839e-01   8.4904430e-01  -8.2792221e-01  -6.6208231e-01   7.7624679e-01  -8.4769671e-01   1.1021249e-01  -3.4767205e-01   6.8327971e-01  -2.4954606e-01  -5.8382847e-01  -3.5786773e-02  -5.9384128e-01  -7.3010564e-01  -9.1533157e-01   4.8811106e-01   3.3090633e-02  -5.5560442e-01   2.1878489e-01   6.3672233e-01   6.9996444e-01  -2.3678676e-01  -8.3722425e-01  -7.4119088e-01   8.1539382e-02   9.9888844e-01   4.1366303e-01   5.6294515e-01  -2.8931828e-01  -6.1813573e-01   6.3414095e-01  -7.4916197e-01  -7.1972552e-01   1.2791410e-01  -7.8082916e-01   2.7009810e-01   2.0382676e-01   9.9950739e-01  -7.7350725e-01  -1.9845058e-01   9.4676793e-01  -6.2855979e-01   9.9377853e-02  -6.8955012e-01  -1.2714924e-01  -5.3864008e-01  -1.5561225e-01   8.9333713e-01  -9.3660866e-01  -3.5952664e-01  -8.4709406e-01   5.3004846e-01  -5.7335259e-01   9.6943464e-01   1.8245317e-01   4.1751579e-02   3.9926407e-01  -6.3567683e-01   3.7629245e-01   9.5051432e-01   5.5787593e-01   9.6511233e-01  -3.1122593e-01  -1.3003848e-01   6.6651811e-01  -9.5244832e-01  -6.7309340e-01  -2.6215904e-02   3.8744862e-01  -5.0852476e-02  -8.7418214e-01   1.4319362e-01  -9.4696275e-01  -7.9498703e-01  -6.0795974e-01  -6.5404088e-01  -4.0408629e-01  -5.2594711e-01  -7.4557455e-01   7.6142695e-01  -2.7241733e-01  -9.4270056e-01   5.5604512e-01  -9.3042627e-01   1.9502497e-01   4.4274889e-01  -9.4561389e-01  -5.0053105e-01  -2.0404808e-01  -4.4443524e-01  -7.6467042e-01   6.5151915e-01   9.7774203e-01   3.0572745e-02  -2.0988756e-01  -6.4937786e-02  -6.8798666e-01  -4.7630466e-01  -9.0340895e-01  -2.6892130e-01  -9.6587011e-01   7.3637421e-02  -8.1169254e-01   8.0313632e-01  -4.5499286e-01  -8.0121275e-01   7.1619798e-01  -3.4072614e-01  -6.2978057e-01  -5.0784169e-01  -7.1072394e-02   5.9193381e-01   5.4067267e-01  -5.1768363e-01   2.9251653e-01   8.2509001e-01   3.8245870e-02   6.1215655e-01   1.6515531e-01  -5.4403890e-01  -1.5310359e-01   1.4654384e-02   2.1783513e-01  -3.1901173e-01   1.3052909e-01  -2.4845577e-01   1.2360279e-01   2.5202851e-01   4.8995689e-01  -1.5152169e-01  -3.6071880e-01  -8.8534011e-01   8.9793516e-01   8.1453933e-01   2.5900062e-01  -1.2374986e-01  -4.2982055e-01  -2.3291893e-01   5.5493110e-01  -4.6597882e-01   9.8630426e-01   2.4192224e-01   9.7377436e-01   6.4626536e-01  -1.7508111e-01   8.9906096e-01  -9.3516954e-01  -6.4552765e-01  -6.4757221e-01   9.9288481e-01  -4.8377724e-01   1.6156225e-01  -7.0509790e-01   6.5278287e-01  -3.9168874e-01  -4.3525603e-01  -7.9668582e-01   1.7587283e-01   9.6272806e-01   9.2838641e-01  -5.4023459e-01  -1.8034877e-01   8.1549623e-01   2.7230574e-01   2.4514653e-01  -1.2421421e-01  -1.1477204e-01   8.6609896e-01   6.2405122e-01  -7.9991308e-02   7.1668567e-01   1.7511065e-01   5.9431093e-01   2.6788056e-01   5.5202393e-01  -8.6664399e-02   8.6146238e-01  -8.9076709e-01  -9.2493794e-02  -4.9275355e-02  -6.9956897e-01   8.7902386e-01  -5.7684827e-01  -8.6224285e-02  -4.5057816e-01  -7.7905208e-01   3.5182906e-01  -3.1407978e-01   8.5902659e-01   7.4688857e-01   9.2770796e-01   4.5676536e-01   8.3190622e-01  -3.4905878e-01   4.9598607e-01  -4.0530769e-01  -7.7465223e-02  -9.6160609e-01  -9.7890077e-01   7.1246934e-01   9.1935938e-01   1.5402122e-01  -1.2844882e-01   7.7255359e-03  -3.6881210e-01  -6.5674934e-01  -1.0351570e-01  -6.2965448e-01   1.5688177e-01   8.9066060e-01   4.0317192e-01  -1.5070283e-01  -1.1307800e-01  -8.5980225e-01  -9.5012312e-01  -6.3676871e-01  -9.5016657e-02  -4.0553722e-01   5.2226878e-01   4.0820613e-01   1.8724381e-01  -1.7173432e-01   8.5514650e-01   1.7240515e-01  -4.9568662e-01   9.8091789e-01  -8.6283407e-01   9.5928091e-01   9.6686464e-01   2.9129294e-01   3.8010741e-01   7.0946408e-01   7.1573184e-01   3.1435656e-02   9.2089690e-01  -5.0067939e-01   7.1433818e-01  -4.9097759e-01  -5.8445400e-01
  -5.6230538e-02   6.3755277e-01   3.9778089e-01  -6.8994074e-01  -1.9891195e-01   3.2529945e-01  -9.0977293e-01  -1.5367789e-01   1.0224792e-01   6.2436816e-01   8.1154630e-01  -5.6115218e-01   7.8276217e-01   4.0965217e-01   9.9918455e-01   1.9662593e-01  -2.1504621e-01   7.9884481e-01   4.9796862e-01   4.6081203e-01   9.7880555e-01   2.4676463e-02   3.2846491e-01   2.3843455e-01   8.2316478e-01  -7.0951504e-01  -5.4183452e-01   9.9475812e-01  -8.2778391e-01   9.3096362e-01   3.6632641e-01   1.3881579e-01  -9.2483330e-01   9.3996313e-01   5.8729502e-01  -5.1001265e-01  -5.5269042e-02  -2.9438253e-01  -4.5762943e-01  -3.7946407e-01   3.6005209e-01  -8.9943890e-01  -5.2906667e-01  -1.4331749e-01   8.6739470e-01   7.3935079e-01   2.5472912e-01   8.9932563e-01  -6.0162576e-01  -2.2243376e-01   4.0914431e-01   8.8326630e-01  -6.1694263e-02  -3.3766507e-01   9.0977890e-01   1.3024206e-01  -6.5340869e-01   8.3894707e-01  -3.7458367e-01  -8.7208941e-01  -7.8644055e-03  -1.7268139e-01  -3.8117661e-01   7.6875414e-01   6.5757125e-01  -4.3557765e-01  -6.7208538e-01  -2.0280975e-01   2.7444344e-01   3.1666850e-01   2.8991644e-01   3.9966150e-01   6.3869608e-01   5.1856080e-02  -9.0425201e-01   2.9767787e-01   3.7556878e-01  -7.6257114e-01   3.6428502e-01  -9.7832162e-01   2.3489156e-01   9.9292417e-01  -3.1226164e-01  -3.6909038e-02  -7.9950541e-01   4.7379671e-01  -6.3641246e-03  -1.9411262e-01   9.0011027e-01  -3.9550593e-03   6.6300191e-01  -2.6625763e-02   9.1503916e-01  -9.7417472e-02  -1.2416787e-01  -7.3660182e-01  -3.0495757e-01   6.0872034e-01   9.2202146e-01  -8.0357138e-01   6.3888285e-01  -6.7212319e-01  -8.8845566e-01  -8.6563028e-01  -7.7819768e-01  -1.3766341e-01  -8.4741205e-01   8.8038936e-01  -9.6899614e-01   4.6417931e-01  -6.8121198e-01   9.0414235e-01  -8.7453349e-01  -5.4022159e-01   9.7334484e-01   4.4023818e-01   7.6279596e-01   3.0608646e-01  -7.4649762e-01   1.0863539e-01   6.3650815e-02   7.5607838e-01  -5.6933614e-01   4.0441183e-01  -4.0756175e-01   1.5548609e-01   9.9774074e-03   2.4591242e-01  -8.6610106e-01   1.6019445e-01   8.1753648e-01  -7.1722552e-01  -3.7747457e-01   8.9655720e-01   9.7091058e-01   1.8530559e-01  -2.4885266e-01  -9.7210028e-01  -4.4430883e-01  -3.6635783e-01  -1.4485744e-03  -9.4106473e-01   6.3001548e-01  -1.1917298e-01  -6.7025800e-01   7.4681389e-01  -6.2102734e-01  -4.8055835e-01  -1.9081795e-01   3.4709208e-01  -4.9105289e-01  -1.3003242e-01  -9.2550285e-01   9.5463985e-01   9.2435329e-01  -4.7293803e-01   5.6469984e-01  -7.7852553e-01   1.1571767e-01   5.3689591e-01  -2.1441147e-01  -1.2058558e-01  -6.8057336e-01  -6.1750403e-01   6.9396603e-01  -7.4324243e-01   8.6317887e-01   8.1463809e-01   9.1191053e-01  -5.9438928e-01   7.6176637e-01   1.2892545e-01  -7.9731083e-01  -1.9577175e-01   5.3131809e-01   4.7002082e-01  -5.4451073e-01   3.1468827e-01  -6.9864782e-01   9.6345089e-01   7.0235723e-01   3.2836767e-01   9.9049427e-01  -4.3323733e-01  -1.5086910e-01   1.0781614e-01  -6.3760209e-01   8.4100471e-01   5.2269511e-01   7.8479960e-01  -5.2650374e-01  -3.7055823e-01   9.8838109e-01  -5.0476519e-01  -6.7740239e-01   8.7377351e-01   9.1707725e-01  -1.3589516e-01  -4.5592140e-01  -8.9630703e-01  -8.6042710e-01  -8.2358712e-01   6.5220612e-01  -8.6035273e-01  -4.7855722e-01  -2.3172083e-01   7.6526428e-01  -8.4662897e-01   4.6081646e-01   5.2861009e-01  -8.0230127e-02   8.1171310e-01  -6.9414032e-01   4.5706237e-01  -5.6668647e-02   7.5231063e-01   6.2661657e-01  -6.8762965e-01  -1.3410970e-01   6.5943549e-02   1.3689306e-01   3.4690951e-01  -2.6184053e-01  -7.0627447e-01   7.4405364e-01  -8.8043917e-01   9.2068228e-01  -3.8067146e-01   4.7895741e-01   8.4804829e-01  -2.8812309e-01   4.5498713e-01   7.8541167e-02  -3.1221292e-01   9.9456089e-01   5.0389159e-01  -8.1672281e-01  -7.3884963e-01   3.5157855e-01   9.2070493e-01   9.1418846e-01   4.4696886e-01  -3.0716061e-01   4.6512149e-01  -5.7944120e-01  -8.9838762e-01   8.5628170e-01  -1.9195256e-01   9.1947959e-01  -6.1571809e-01   9.2164434e-02   8.4015460e-01  -9.5160023e-01  -2.7951495e-01  -5.9981334e-01   9.1493339e-01  -8.4967700e-01  -9.7250941e-01  -5.4911195e-01  -5.9048173e-01   9.3090754e-01   3.9458763e-01   5.8501234e-01  -6.4572348e-01   6.9688886e-01   5.0340794e-01   1.6118392e-01  -5.0863465e-01   7.6503128e-01   3.7404690e-01  -4.3465116e-01   1.4028395e-01   4.7964561e-01  -8.8264529e-01  -8.0483508e-01  -7.5699323e-02   1.8716910e-01  -2.0631106e-01   1.4185224e-01   8.0785799e-01  -1.1118592e-02  -3.0746910e-01   9.5172914e-01  -9.7481310e-01  -1.0327810e-01   3.0761988e-01   1.9970646e-01   9.5204642e-01   9.5381068e-01  -8.5387424e-01  -2.0929596e-03   8.1871406e-01  -7.8614973e-02   2.4933138e-01  -6.0785368e-01   1.4037146e-01   8.6782150e-01  -8.5459347e-01   2.6210133e-01  -2.7941681e-01   9.4917595e-01  -9.0335710e-01  -7.9916638e-01  -8.9609282e-02  -2.5876259e-01   6.1386129e-01  -3.9238990e-01   8.2042395e-01   5.4626852e-01  -9.2501227e-01  -9.4036503e-01   7.9049925e-01  -5.3742484e-01  -5.6005153e-01   3.1021846e-01  -2.1049087e-01   5.3810780e-01  -1.3537267e-01  -6.2572641e-01   1.9389415e-01   3.1807691e-01  -4.8112389e-01  -2.2967017e-01  -7.9842492e-01   2.6588842e-01   4.8714901e-01   4.0708483e-01   2.5803783e-02   6.9907120e-01  -7.4710508e-01   2.2577370e-01  -4.6528528e-01   1.7479160e-01   8.8364781e-01   3.2331683e-01   6.1207598e-01   1.1567559e-02   5.4936086e-01  -5.8468652e-01  -5.5986811e-02  -1.8086699e-02  -3.7888561e-01   8.0168406e-01   8.2376074e-02   9.1040569e-01  -9.6140393e-01   7.2555506e-01   3.2907462e-01   5.8628866e-01  -8.7373868e-01   2.1503468e-01   6.8391991e-02   5.3060219e-01   9.6680571e-01  -5.1916697e-01   3.8336830e-01  -4.3335005e-01  -3.5147208e-01   1.7853933e-02  -2.9372807e-02  -4.7028952e-01  -3.1231303e-01   6.5112062e-01   7.3089372e-03   6.2202948e-01   8.2936605e-01  -8.4136057e-01  -1.5972918e-01  -1.6563361e-01  -5.8560754e-01  -6.7705667e-01  -3.0702458e-01  -4.8829147e-01   3.2870077e-01  -6.4991213e-01  -9.7515643e-01   9.3508224e-01  -1.6599553e-01  -4.2495920e-01  -7.2199898e-01  -7.0719817e-01   9.6620899e-02   5.4805541e-01   6.1719974e-01   4.5049741e-01   9.5115815e-01  -1.4601724e-01   6.9808514e-01   5.8889994e-01   5.3015126e-01  -5.7039408e-01  -2.0200273e-01  -9.4328984e-01   6.9853139e-02  -5.2615846e-01  -3.1498482e-01   8.7640369e-01   4.6040371e-01   4.2876387e-01   7.3528202e-01   1.3281864e-01   3.1393707e-01  -3.1162257e-01   7.1592068e-01  -6.3820709e-01  -5.7873862e-01   9.3526401e-01   7.2449448e-02  -8.9191490e-01  -6.7745597e-01   2.5303360e-01  -4.0419693e-01  -6.6636981e-02  -1.2954438e-01  -5.4944196e-02  -3.7821549e-02   8.6185049e-01  -6.8137074e-01   9.3907338e-01  -7.2124241e-01   1.6754473e-01  -2.5281371e-01   1.7582994e-01   7.1500282e-01  -7.2490808e-01  -7.4726308e-02  -8.0504156e-01  -9.6159250e-01   7.1852013e-01   4.7681472e-01  -6.6227166e-01  -5.5959873e-01   1.2193790e-02  -4.7796348e-01  -7.3098989e-01  -7.9933568e-01   4.9605389e-01  -6.2000419e-01  -2.6376633e-01  -5.6041690e-01   9.0454906e-01   8.7174346e-01   9.2598376e-01   3.7310047e-01  -7.5686795e-01  -6.6161827e-01   3.9561024e-01  -9.4744058e-01  -9.5207461e-01  -7.0277243e-01   1.2841804e-01   2.4097928e-01  -6.7725359e-01  -6.9688180e-01  -5.8267787e-01  -7.6780267e-01   8.0931837e-01  -7.5740736e-01   7.6743976e-01  -6.1978657e-02  -6.7695793e-01  -1.1549327e-01   9.4457666e-01  -6.0006226e-01  -4.6003736e-01  -7.9363672e-01  -3.9525636e-01  -4.6513675e-01  -1.8098218e-01   4.6339468e-02   3.6434788e-03  -4.1370837e-01  -4.8192465e-01   3.0959566e-01   2.7370733e-02   7.0178509e-01   1.6100000e-01   6.2271737e-01  -4.9902072e-01  -2.2708523e-01   4.5626203e-01   3.7742532e-01   4.4742170e-02   7.1109736e-01  -7.1960896e-02  -8.7473212e-02  -8.0710949e-01  -4.9208136e-01   7.5853607e-01  -7.4228455e-01   6.3253982e-01  -8.1915168e-01  -9.6696918e-01   2.7369435e-02   3.2445537e-01   2.7954825e-01  -3.8262466e-01   9.1091185e-01   1.1344503e-01  -8.2298883e-02   8.8703167e-01  -9.0725515e-01  -9.1349555e-01  -5.1751083e-02  -4.6462156e-01   3.8586564e-02   4.5870049e-01  -9.9335387e-01  -1.0602130e-01  -9.8653568e-02   4.8471136e-01   6.6157148e-02  -6.7088981e-01  -9.4566604e-01  -7.3651181e-02   8.9195933e-01  -3.2191715e-01   8.4094153e-01  -6.2650130e-01  -3.8355141e-01  -5.4636260e-01   5.6088758e-01   1.3904358e-01  -4.0478681e-01  -6.3544165e-01   4.8548530e-01   4.0312204e-01  -6.8583838e-01  -5.4588665e-01   6.3977579e-01   6.6167229e-01  -6.9597215e-01   5.8343506e-01   3.1941138e-01   7.2072638e-01  -3.4073156e-01   1.1867556e-01   4.9145517e-01   3.3694216e-01   4.4463144e-02   4.4008419e-01   4.2181576e-01   7.7637536e-01   3.8982877e-01  -5.7451190e-01   9.6894527e-01   6.7087811e-01  -5.7937078e-01   6.5682602e-01  -4.7480512e-02  -3.9784968e-01   7.5833046e-01   1.8235331e-02  -4.6647036e-01   3.2032842e-01   9.0304656e-01  -8.3705965e-01   1.3335777e-01   1.4385818e-01   6.1778919e-01  -7.1050308e-01   5.1271475e-01   2.5888581e-02  -8.7029736e-01   7.0976052e-01   6.2549667e-01   6.9627340e-01  -2.8241569e-01   7.9734112e-01  -6.3395396e-01   2.1051004e-01   8.8170016e-02  -6.3278510e-01   8.1329717e-01   7.6355004e-01  -8.9052985e-01   2.8799842e-01  -5.5608609e-01  -8.4251590e-01   9.0157372e-01   4.1404263e-01  -9.8837178e-01  -2.3195013e-01   4.0550413e-01  -7.0481297e-01  -1.2512878e-01   7.4497373e-01  -5.4208023e-01  -8.1580475e-01  -8.2396021e-01  -1.7788717e-01   5.6009884e-01  -8.6714083e-01   6.5733392e-01  -9.7493142e-01   5.7506049e-01   4.4449286e-01   9.1015989e-01   3.8800650e-01  -2.2128706e-01  -9.4873675e-02  -3.5461080e-01  -7.9516152e-01   4.8746457e-01   3.6885947e-01  -1.4435541e-01  -9.4327530e-01  -5.0238172e-01  -9.5019936e-01  -4.8848051e-01  -2.6176010e-01  -7.5522087e-01   1.0772108e-01   1.5076688e-01   6.9181758e-01  -1.2745475e-01   6.4065317e-01  -3.8934435e-02  -1.3340839e-01   9.6655923e-01  -3.6845686e-01   4.1756496e-01   9.0366224e-01  -3.0782017e-01   7.5672495e-01   4.0197400e-01   8.9172360e-01   3.3688674e-01  -4.2086552e-01   4.9189454e-01   2.0328470e-01   7.6946431e-01  -4.5761475e-01  -5.6983594e-01  -7.5218015e-01  -7.1079568e-01  -9.2422463e-01   4.3380890e-01  -4.7765370e-01   1.6090529e-01  -7.9191269e-01  -8.9887706e-01  -1.5771192e-01  -2.8684696e-01  -7.7968614e-01   6.1872531e-01   4.1716321e-01   1.0417461e-01   1.8268194e-01  -6.9468555e-01  -7.4122231e-01  -7.3003174e-01  -6.8576157e-01  -3.2158010e-01  -9.0323308e-01  -2.2032008e-01  -8.2875063e-01   9.1801516e-01   3.0498414e-01   1.3276393e-01  -7.2216233e-01  -1.8824697e-01   1.7104701e-02   4.3778071e-01  -9.5429838e-01  -2.5405483e-01   4.4477003e-01   1.3700168e-01   8.1458429e-01  -3.1046794e-01  -5.8313231e-01   1.1056688e-01   7.1137567e-01  -1.8448538e-01   6.6049390e-01  -1.6587463e-01  -2.4172165e-01  -4.1851548e-01  -1.8896526e-01   1.4640181e-03   9.2081997e-01  -2.0570367e-01   7.4952077e-01  -3.4340580e-01   9.3704718e-01   9.0182213e-01   8.3969789e-01   5.7523425e-01   9.6521852e-01  -2.9648143e-01   1.0551878e-01   4.8745833e-01  -2.7684731e-01  -4.5511179e-01  -6.5359636e-01  -1.4518774e-01  -1.8524931e-01  -6.1872378e-01   3.6772104e-02  -8.6736112e-01  -5.2354919e-02   6.8595020e-01   4.5944269e-02  -2.2811253e-01  -8.1277204e-01  -7.9141298e-01   2.9153980e-01  -1.2975505e-01   2.9997639e-01   3.7572655e-01  -8.4792542e-01   9.7477267e-01   5.2391082e-01  -4.5347638e-01   1.7530271e-01   6.9970784e-01   2.3746846e-01  -8.0296967e-01   1.1749114e-01   1.5006960e-01   3.2242611e-02   6.0076371e-01  -1.6548505e-02  -6.7989884e-01  -8.4110029e-01   1.7977666e-01  -3.6929049e-01  -8.8715039e-01   1.0857645e-01   8.9365644e-01   4.1586643e-01   9.8762359e-01  -5.4273753e-01   8.0846712e-01   6.8836944e-01  -7.5054385e-01  -2.7168387e-01   5.9251840e-01  -4.1219906e-02  -5.1547441e-01  -7.1195764e-01   4.9754896e-01   9.4157354e-01  -4.0879575e-01  -5.1126581e-02   5.7992005e-01   7.0828323e-01   6.5636454e-01  -6.6076082e-01   1.4437596e-01  -4.2195375e-02   4.5726817e-02   3.3229261e-01   8.4357434e-01  -1.4067773e-01   6.1976685e-01  -3.9561594e-01  -5.4938508e-01  -7.4222299e-02  -2.3903457e-01   5.2137896e-01  -9.6767682e-01   1.8773669e-01  -4.2749549e-01   1.6197441e-01   4.0958207e-01   8.4687746e-01  -4.7370786e-01   5.7818481e-01   1.1950055e-01   7.3642913e-01  -7.4384147e-01  -1.2358300e-02   2.9194180e-01   3.3282396e-01  -2.3395233e-01  -9.7812649e-01  -3.4538663e-01   8.6668903e-01  -2.8763710e-02  -9.2364526e-01  -5.2722099e-01  -6.3847771e-02   8.5824136e-01  -8.2456204e-01   6.3295204e-01  -3.3170190e-01  -6.4493482e-01   6.3535612e-01  -7.4433034e-01  -7.9691033e-01  -8.2593254e-01   4.8225088e-01   6.2753977e-01   4.4610520e-02   5.5293252e-01   4.9898104e-01   8.5503334e-01  -7.9821235e-01   7.5705172e-01   8.7084675e-01  -3.8156798e-01  -4.5302071e-01  -8.7802361e-01   1.9742842e-01  -3.2697236e-01   4.5874371e-01   8.0303165e-01  -7.7541021e-02   8.6268116e-01   9.1876930e-01   4.6345032e-01   4.7602695e-01   2.7720079e-01  -6.3787211e-01   7.5326560e-01  -5.0490997e-01  -2.1027253e-01  -1.8492744e-01  -8.4726716e-01   5.6425550e-01  -4.6103808e-01   2.1399044e-01   8.4700284e-01   4.1966597e-01  -2.6591670e-01  -4.6891345e-01   5.4279804e-01   3.5705682e-01  -7.7288896e-01  -4.0285172e-02   4.4521053e-01  -2.6127637e-01   4.1064086e-01   2.3567657e-01   3.3500443e-01  -8.8282582e-01  -4.9746345e-01  -4.9605430e-01  -3.7793494e-01  -1.0361542e-01  -6.8688825e-01  -1.4273016e-01  -5.4692034e-01  -4.2900182e-01   3.7236860e-01   1.9349080e-01  -6.0274425e-01  -1.4429385e-02   7.9919317e-01   1.4834965e-01  -2.6142806e-01   6.9776755e-01  -7.8473034e-01  -1.8336474e-01   1.9885644e-01   4.8350224e-01   3.5885642e-01  -5.9791118e-01  -6.9213143e-01   5.8415812e-01  -2.5978950e-02   9.2895290e-02   9.4380684e-01   5.8256155e-01  -7.2963007e-01   5.6107009e-01  -3.6391758e-01   4.8409625e-01  -5.2618219e-01  -7.1746705e-01  -4.4464745e-01   2.2915116e-01   4.3861019e-01   1.4301129e-01   5.5706588e-02  -3.9229914e-01   5.3584001e-01   6.1439866e-01  -4.3546250e-01  -2.6884977e-01  -5.9084067e-01  -7.0888970e-01  -5.2867161e-01  -9.8437144e-02   8.7716159e-01  -3.3226046e-01   4.1345706e-01  -1.9316150e-01   8.1501405e-01  -5.8545850e-01   7.1643729e-01  -8.6068702e-01   1.2953769e-02   9.7394691e-01   2.7198369e-01  -5.5135294e-01   6.5162149e-01   4.3233988e-01   7.4935614e-01  -4.8129110e-01   4.6510415e-01   8.9996241e-01   8.8466128e-01  -9.3720105e-01   9.2154636e-01  -3.2607892e-01  -1.8275337e-01   1.5119543e-01  -8.5784855e-01   3.3553862e-01  -8.5103304e-01   7.1423603e-01  -8.6752230e-01  -7.3008136e-01  -7.7108769e-01  -5.4788326e-01  -9.8100866e-02  -5.5124912e-01   4.0295624e-01   2.2437879e-01  -3.6284490e-01  -5.2640307e-01  -2.8098627e-01  -6.0894966e-01  -9.0843818e-01  -9.5618099e-01  -4.5168481e-01  -7.7433801e-01   9.5351121e-01   2.1537874e-01  -6.0057104e-01  -5.3703935e-01  -3.4157934e-01  -5.6030809e-01  -4.7469759e-01  -6.6581979e-01  -3.9813669e-01  -1.5459086e-02   7.9529093e-01  -5.0795801e-01   6.0104729e-01  -7.1421286e-01  -5.3027610e-01  -8.9505826e-01  -7.8942084e-01  -9.9930644e-01   7.1915715e-01  -8.7248610e-01   9.1575520e-01   4.2045622e-01  -6.2371068e-01   3.4339752e-01   2.4114513e-01  -1.8188360e-01   3.5635513e-03   1.8988227e-01   5.9382483e-01  -3.3611502e-01  -4.0287138e-01  -4.9087580e-01   1.6081611e-01   1.8615032e-01  -4.8115925e-03  -5.8035467e-01  -3.1460820e-01   9.4935527e-01  -2.6403875e-02   3.0112621e-01   2.3209278e-01  -2.6101657e-01   5.3573759e-01  -6.3405153e-01  -4.1134153e-01  -5.0975030e-01   1.9748991e-01  -4.4404018e-01  -4.9206521e-01  -2.1449418e-01  -6.7358510e-01  -4.7917355e-01   7.7565820e-01  -5.7466010e-02  -2.4531763e-01   8.9895652e-01  -3.9048529e-02  -4.1031948e-01  -3.7290975e-01  -1.4664392e-01  -8.2946146e-01   7.5749000e-01   3.6030001e-01   8.3120517e-01   5.2844570e-01  -9.8838848e-01   5.1121396e-01   8.4143690e-01  -5.6257450e-01  -3.6398719e-01  -4.0360850e-01
