  -6.8624830e-01  -7.1401569e-01  -3.5100822e-01   7.2296511e-01   1.7283495e-01  -2.5490594e-01  -7.3493630e-01  -2.7888746e-01  -6.1583459e-01  -5.0873025e-01   1.6264240e-01   6.0140383e-01  -5.5875648e-01   1.2451959e-02   3.2533835e-01   3.8660261e-01   4.9166561e-01  -6.8624819e-01   2.4768521e-01   8.8556902e-01  -2.1173552e-01  -8.0596710e-01  -6.0445958e-01  -1.2614103e-01   3.7886449e-01   3.7060226e-02  -1.6958417e-02   7.9419473e-01   9.2672269e-01  -6.3139176e-01  -1.6703573e-01   2.1520885e-01  -3.4956849e-01   9.9527129e-01  -7.9253091e-01   9.8909543e-01   6.2625210e-02  -6.9055676e-01   6.6445969e-01   2.2703922e-01  -4.4942486e-01   5.5972469e-01   4.1648054e-03   2.3716407e-01   4.7340647e-01  -9.5451685e-02  -5.7694494e-01   4.2134113e-01   7.8629187e-01   5.8029565e-01  -2.3262412e-01   1.9525444e-01   1.2580609e-01  -8.1576108e-01  -1.4079867e-01   3.4161063e-01   9.3307144e-02   1.3579347e-01  -2.2865965e-02   3.6041188e-01  -8.5328302e-01   1.7311873e-01  -8.6076704e-01  -2.0526402e-01   7.3820662e-01  -2.0401479e-01   5.7806476e-01  -6.2408031e-01   2.8538734e-01  -3.5337870e-01  -5.6526723e-01   3.6156995e-01   5.5440017e-01   1.1700960e-01  -2.6432930e-01   6.7249603e-01   3.3748439e-01   6.6801091e-01  -4.2921008e-01   6.8794849e-01   7.8398496e-01   6.2212232e-01  -5.9767123e-01   6.4629468e-01  -7.1918975e-02  -4.3058491e-01  -6.5801190e-01   1.7647796e-01   4.7373572e-01  -3.8643831e-01  -8.8375659e-01   8.1879932e-01   8.0158654e-01   9.0225916e-01  -2.2868489e-01  -6.6283658e-01  -8.5678870e-01   3.8521375e-01   1.3524597e-01  -5.4845449e-01  -8.5846398e-01  -6.8972979e-01  -6.3984574e-01   6.9941435e-01   9.3559105e-01  -9.6269455e-01  -8.6058189e-01   9.7019312e-01   5.2735077e-02  -4.9933437e-01   9.1097625e-01  -8.7113663e-01   5.6650774e-01  -9.0395678e-01   3.3595813e-01  -3.2208621e-01   3.9189156e-01   8.6110304e-01   5.9574392e-01   4.6077998e-01  -2.5946883e-01  -1.5285656e-01  -1.9151072e-01   6.0292382e-01  -6.3237780e-02  -4.1850802e-01   1.6108778e-01  -2.3562589e-01   1.6562092e-01  -9.2794104e-01   1.7009207e-01  -5.1540827e-01   5.4085896e-01  -5.3059431e-01  -7.7005054e-02   7.1859620e-01   2.3275675e-01   6.2042623e-01  -9.4746882e-02  -1.6037031e-01  -6.8527877e-01   6.2579855e-01  -9.4370068e-01   3.3824840e-01   4.1440683e-01  -6.3314615e-01   8.6881464e-01   3.8097871e-01  -1.0454564e-01  -5.3580932e-01   7.5105218e-01  -5.1753158e-01  -5.9439200e-01  -6.9330786e-01  -2.8728917e-01   1.5317186e-01   9.2924049e-02   8.9005332e-01  -1.2104059e-01  -2.1347672e-01  -8.3492418e-02  -1.0976492e-01  -4.5527571e-01  -4.5279406e-01  -7.0369070e-01  -4.5622625e-01   3.5272998e-01  -8.8635172e-01  -4.8877023e-01   7.1993883e-01  -9.7530004e-01  -2.4746205e-01   3.3436838e-02   9.4502284e-01   9.5773653e-01  -9.6013286e-01   5.1278729e-02  -4.8504926e-01   4.5921068e-01  -7.3856690e-01  -3.9050976e-01  -4.6630467e-01  -9.1909726e-01   6.2574009e-02   1.5111973e-02   7.6911860e-01   2.0188631e-01   2.6464075e-01   4.5605587e-01  -2.3800948e-01   8.9774814e-01  -7.8474413e-01  -4.8848481e-01   1.3379938e-01  -9.0850030e-01   7.2559291e-01  -8.6502140e-01   9.1724689e-01  -7.6355909e-03  -6.6946689e-01  -3.9150644e-01   4.6214838e-01   8.7760739e-01  -8.8094226e-01   2.2417155e-02   9.7712597e-01   2.3318995e-01  -8.5345621e-01  -4.7500483e-01  -2.5561808e-01   7.4286936e-01   3.3568712e-01   5.4046770e-02   9.5450096e-01  -3.2206942e-01  -4.7474179e-01   3.7138759e-01   6.2703044e-01   1.9095871e-01  -7.9842455e-01   2.7093037e-01   9.2194563e-01  -8.1103370e-01   6.5809210e-01   7.3008120e-01   3.0853190e-01   7.7096180e-01  -1.6492445e-01   3.5371045e-01  -6.5575604e-01  -4.9976237e-01  -1.1514240e-03  -7.8968694e-01  -3.6682534e-01  -6.8192707e-01   1.7920154e-01   3.2567030e-01  -5.3659568e-01  -3.3995433e-01  -4.6163594e-02  -8.0333091e-01  -7.2359961e-01  -8.6363915e-01   2.7393552e-01   3.7824256e-01  -3.0340131e-01  -4.5333654e-01  -6.5004205e-01  -3.0297201e-01  -1.5327359e-02  -1.9370340e-01   4.1253686e-04   9.3960321e-01   2.9704129e-02  -3.9085476e-01  -2.2125916e-01  -7.3824429e-01  -7.5952510e-01   6.5468553e-01   1.8461050e-01  -5.7745357e-01  -4.7823174e-01   9.1350514e-01  -9.7944140e-01   1.1702111e-01  -6.1878689e-02   2.2571107e-01   2.9272676e-01  -3.8413931e-01   3.1591064e-01  -5.5689685e-01   7.0046480e-02   2.3181444e-01   9.3252233e-02   5.1722654e-01   7.7092749e-01  -7.6806157e-01  -2.7498154e-01  -4.6941634e-01  -5.3336161e-01   8.1042895e-01  -6.9255033e-01  -9.2152031e-01  -3.6716350e-01  -7.6107700e-01   1.9980955e-01  -2.1115211e-01   4.1241015e-01   9.4438969e-01  -7.9318822e-01  -8.3710828e-02   7.9415000e-01   1.2763708e-01   5.2326754e-01   8.9646431e-01  -7.8329558e-01   6.7797705e-01   5.9158435e-03  -2.1854230e-01   1.5713208e-02  -9.9287225e-01   3.8838327e-01  -5.9332331e-01   2.3517855e-01  -3.4504114e-01   5.8527154e-01   2.0329263e-01   7.1163077e-01   4.4116083e-01  -1.2957608e-02   8.0016103e-01  -1.9630230e-01   1.6499450e-01  -5.7054138e-01   1.5417951e-01  -7.8852032e-01  -2.7816124e-01  -3.0716675e-01   9.3896923e-01  -8.8288993e-01  -6.7968632e-01   5.6555540e-01   2.3368695e-01   6.2433306e-01  -1.0139273e-01  -4.6293273e-01   2.8885966e-01  -8.4081802e-01   2.1972808e-01   8.9582956e-01  -7.0690604e-01  -5.2061434e-01  -8.0802345e-01  -2.3435970e-01  -2.4604476e-01   9.4814865e-01   3.8530597e-01  -8.5174785e-01  -8.6726303e-01   5.1888792e-01   2.3389264e-01  -9.4951766e-01  -7.0193574e-02   6.9201354e-01  -9.5919426e-01  -2.1208784e-01  -6.2948687e-01   3.6690465e-01  -7.8243545e-01   1.9989558e-02  -8.9561278e-01   4.3084202e-01  -4.9087278e-01   8.7303682e-01  -5.0222196e-01  -3.7765574e-01   1.0816458e-03  -7.9214729e-01  -3.0848899e-01   2.9993854e-01  -5.0945405e-01   2.5111935e-01  -6.0547083e-01  -5.1346578e-01  -4.9615064e-01   3.0949371e-01  -3.7268616e-01  -7.7760823e-01  -2.5193854e-01  -4.5656410e-01  -9.4875921e-01   4.6075894e-02   8.2810153e-02  -6.0989873e-01   4.0822854e-01   5.1754035e-01   8.8642982e-01   1.4924746e-02   6.9705786e-01   1.3505401e-01  -9.7689421e-01   9.7976189e-01   9.3437128e-01   7.6586421e-01   6.5926178e-01   1.5931999e-01   1.9382616e-01   9.4739210e-01   4.5517742e-01  -9.7800483e-01  -1.5700882e-01  -6.6350670e-01   2.7012357e-01   8.7638907e-01   5.7417473e-01  -9.6074022e-02  -2.8935221e-01   8.3852098e-01   8.4686650e-01   5.6164676e-01  -3.5024604e-01   8.8072505e-01   4.0943494e-01  -5.7612949e-02  -4.3618784e-01   1.9849814e-01   1.8610997e-01  -4.0154746e-01  -6.7609723e-01  -5.7890362e-01  -1.4396077e-01   1.6124723e-01  -6.3454297e-01   3.6144317e-01   4.6213977e-01   6.3969893e-01  -6.1551637e-02   8.2177456e-02   5.0973395e-01  -2.1523802e-01   7.9392011e-02   6.4964553e-01   6.0960609e-02   1.5155199e-01  -5.8545508e-01  -8.0481934e-01  -5.3057178e-01  -1.8464893e-01   6.7162598e-01   7.5527613e-01  -5.1198907e-01   8.4654859e-01   8.6156871e-01  -9.9566555e-01  -9.6249679e-01  -4.3412324e-01  -6.0548148e-01   5.7970140e-01   1.1798713e-01   5.7937332e-01  -2.5024238e-01  -6.8589030e-02   4.9123209e-01  -1.8360258e-01  -6.2261681e-01  -8.7670826e-01   4.5300823e-01  -7.7128111e-01   4.4006629e-01  -5.0459899e-01  -7.9534068e-01  -7.5882498e-01  -2.0412453e-01   5.6864451e-01   8.2356903e-01   7.0827440e-01   5.1992207e-01   3.2967968e-01   7.8812930e-01  -1.3190992e-01  -8.2792498e-01   2.0256982e-01  -8.3968433e-01   9.8465167e-01  -7.9814752e-01  -2.5710215e-01  -1.4858117e-01   2.8328596e-01  -7.4550074e-01   6.5634635e-01   5.6541258e-01  -8.7702176e-01   8.1811826e-02  -5.9534595e-01   6.0355678e-02   4.9430936e-01  -7.3357657e-01  -7.5811065e-02  -8.9265912e-02  -6.4674416e-01  -5.7366682e-01   8.2313682e-01  -8.7187351e-01   4.4745605e-01   5.0104631e-01  -8.1716180e-01   6.9589823e-01  -2.0147846e-01  -4.8240722e-01  -5.3367377e-01  -3.5937661e-01  -2.8208854e-01  -3.3234601e-01   5.4651377e-01   3.1335829e-01  -9.0777313e-03  -3.9353525e-01  -9.6960707e-01  -4.5198212e-02  -1.1516299e-02   5.9908230e-01   8.7354106e-01  -2.7192499e-01  -7.1191464e-01   3.8407789e-01  -3.5504793e-01  -2.5385582e-01  -1.2797232e-01   7.3272542e-01  -7.1471532e-01  -7.2001856e-01   2.6888529e-01  -1.4407665e-01   6.4539164e-01   7.6582636e-01   9.1692582e-01  -9.2781129e-01  -5.0785005e-01   7.0234026e-01   7.9949359e-01  -5.6533243e-01   4.1744924e-01   4.8311887e-01  -3.4545650e-01  -5.9468464e-01   5.9849362e-01   5.7852217e-01   8.6482552e-01  -5.9553497e-01  -2.7774794e-01  -9.2788031e-01   1.8406214e-01   1.3540995e-02   1.2325619e-01   3.5726390e-01   6.8868545e-01   2.3723758e-01  -4.7683432e-01   8.6463211e-01   7.1168700e-02  -5.9493922e-01   1.1249791e-01   9.1482667e-01   2.8472563e-01   6.5442650e-01  -7.9428624e-01  -8.3614642e-01  -6.6153808e-01  -7.5885588e-01  -6.9879660e-02   2.8265495e-01  -6.6843695e-01  -6.2884256e-01   7.4858076e-01   6.4419590e-01   4.5951481e-01   5.6604657e-01   9.7121021e-01   9.0531036e-01  -2.3655905e-01   4.7963170e-01  -7.9960647e-01   1.8407906e-01   2.2305725e-01  -4.0834590e-01  -9.3633908e-03  -5.9485050e-01   3.8354064e-01   1.6390893e-02  -7.4296793e-01  -4.1006264e-01  -5.2632733e-01  -9.6856694e-01   3.1177601e-01  -9.7672703e-01  -2.9084291e-01   3.2629430e-01   5.8694680e-01  -3.5392836e-01  -3.4998450e-01  -2.8861356e-01  -3.0233563e-01  -7.7346207e-01  -2.0661912e-01   4.8945085e-01   8.0524081e-02   4.4487534e-01  -1.8243343e-01   3.7369815e-01   6.2470266e-01   3.6917813e-01  -9.0812283e-01   4.5726301e-03  -4.2195038e-01   1.8106043e-01   4.1401178e-01  -5.8482241e-03   7.8828120e-01   9.8954011e-01   4.4096497e-01  -9.0325026e-01  -9.3389719e-01  -4.4169533e-01  -8.2916046e-01   8.4214008e-01   8.3445360e-01  -7.0839046e-01   5.6057500e-01   4.7949051e-01  -6.8139274e-01   9.3779116e-01   5.6807789e-01   5.3581465e-01   2.8068869e-01  -7.9674253e-03  -6.6210432e-01   2.3930438e-01  -6.0492124e-01   7.8610880e-01  -1.9442955e-01  -8.9779483e-01   7.4334222e-01   9.8922095e-01  -8.8320076e-01  -3.4224218e-01  -6.0521431e-01   3.8270437e-01  -3.6498821e-01  -1.6814022e-01   1.8390336e-01  -5.1446363e-01   3.3867362e-01  -7.5256628e-01  -4.2582271e-01   9.8574286e-01  -2.8593592e-01   1.7253841e-01   5.4179149e-01  -8.2266812e-01   3.9717790e-01  -8.0501504e-01   8.0529394e-01   4.2760769e-01   2.5904963e-01   4.0816260e-01   9.8304575e-01   3.6422549e-01   4.3783035e-01   6.6814765e-01  -6.0629627e-01   4.7489647e-01   5.1827588e-01  -6.2398724e-01   6.6452763e-01   9.4829843e-01   3.4020375e-01  -8.1537103e-01  -4.5342974e-01  -3.6040657e-01   8.3541628e-01  -6.7129505e-01  -9.6563130e-01   1.7028537e-01   4.5757296e-01  -7.9912910e-01   2.7996223e-02   1.3994928e-01  -9.8346102e-01  -9.8411317e-01   7.0666330e-02   6.2009413e-01  -7.4747186e-01   5.7933261e-02  -1.5092485e-01   3.1793443e-01  -1.4731853e-01   4.3839681e-01  -6.3271956e-01  -8.7052131e-01   9.8457591e-02  -9.2404428e-01   3.0515643e-01   5.8369455e-01  -5.6277674e-01   8.4285170e-01  -6.4975170e-01  -9.5801243e-02  -6.3108707e-01   6.1159229e-01   2.6503806e-01   2.2086530e-01  -5.1740209e-01  -3.6003044e-01   4.9206979e-01  -6.8658324e-01  -3.7416785e-02  -2.4189060e-01  -7.7671939e-01   8.8365935e-01  -3.3920178e-01   5.7675896e-01   9.6067444e-01  -4.9927074e-01   9.9738960e-03  -1.0619637e-01   1.3097703e-01  -6.5397399e-01  -9.1842093e-01   6.6253612e-01  -4.9853636e-02   2.2140755e-02   3.5929728e-01  -7.3444081e-01   9.4417709e-01  -8.8696241e-01   7.4509698e-01   9.8724901e-02   1.6729093e-01   2.6001400e-01   1.0114138e-01   2.7399704e-01  -7.8195679e-01  -3.1523533e-01   6.1964281e-01   1.7721022e-01  -3.7231470e-01   9.5870718e-01  -5.1215314e-01  -2.0056682e-02  -3.7066985e-01  -6.8845522e-01  -9.4794850e-01  -5.4658500e-02   3.4643162e-01   1.7863137e-01  -9.0818702e-01   8.3222068e-01  -5.8028262e-01   9.5382958e-01   5.3346868e-01   3.9025160e-01  -9.6309428e-01   2.3696098e-01  -6.5661352e-01  -5.3742286e-01   1.3782581e-01   6.4786873e-01   4.4896962e-01   9.0368247e-02   4.9901518e-01  -2.4092063e-01  -2.3010958e-01  -4.7353672e-01  -1.1096618e-01   9.2111438e-01   9.7180473e-02   6.6018700e-01  -5.8988116e-02  -3.5100906e-01   2.1129802e-01  -2.4544246e-01   4.8342645e-01   6.0579450e-01   9.4476153e-01   6.2617297e-01   5.8201317e-01  -9.1426995e-02   2.4267160e-01   8.8765948e-01  -6.2117939e-01   7.6473358e-01  -9.1041275e-01  -8.0990612e-01   1.3552116e-01  -2.8067237e-01  -5.7629675e-01  -3.2790943e-01  -2.3716155e-02   4.9436427e-01  -1.7663575e-01   3.6537422e-01  -8.1814982e-01  -5.2946649e-01  -4.8043288e-01   3.9646341e-01  -1.8716559e-02  -4.5358805e-01  -1.8352485e-01  -3.3515497e-01   5.6164862e-01   1.0321448e-01  -7.9592746e-03   6.8004375e-02   5.2633632e-02  -2.2528627e-01   1.4657913e-01   8.2644237e-01   3.3476413e-01  -9.9351946e-01   9.5105642e-01  -1.9293689e-01   2.5371961e-01   2.4690022e-01   8.2001675e-01  -2.4374990e-02  -3.9969217e-01   3.7826815e-01   4.5452297e-01  -1.4987361e-01  -1.9763900e-01   1.4999102e-01   5.7804315e-01  -5.6490526e-01   1.6631474e-02  -1.3658104e-02  -6.8311272e-01   9.5701552e-02  -7.6377380e-01   5.3499451e-01  -7.1855089e-01  -4.7266593e-01   5.4070272e-01   7.0282420e-02  -1.5391238e-01  -5.0203498e-01  -4.8330170e-01   8.6935093e-01   6.1988387e-01   6.6327993e-01   5.1020114e-01  -3.0120975e-01  -1.2541818e-01  -7.9493867e-01   7.8787057e-01  -8.0617106e-01  -6.4410036e-01  -2.5164890e-01  -7.8616529e-01   1.8763254e-01   8.5425106e-01   6.5264635e-01   9.5187309e-02  -8.2341905e-03   6.5179784e-01  -5.3759685e-01  -9.2535183e-01  -2.5089008e-01   7.3924144e-01   8.9404690e-01   4.0968764e-01  -8.1392968e-01   9.0008525e-01  -4.4913780e-01   5.9146339e-01   4.9136473e-01  -5.8652356e-01   3.5975366e-01  -4.8870322e-01   2.5866189e-02  -7.9021494e-02  -7.8736712e-01   5.1757606e-01   7.1042945e-01  -2.4898128e-01  -3.4443109e-01  -8.6801028e-01   4.6921114e-01   6.1612582e-01   4.9176199e-02  -6.4911485e-01  -9.8503430e-01   4.2595400e-01  -3.6264804e-01   5.9829557e-01   8.1405183e-01   6.0581211e-01  -8.7151676e-01   1.6596628e-01   4.8250633e-01   4.1740234e-02  -8.7048180e-01  -1.2657086e-01   3.4194473e-01  -5.7261062e-01   8.9257724e-02  -2.8184866e-01   4.8100767e-01   5.9879715e-01   4.2343483e-01   5.7857030e-01   5.6194056e-02  -9.4592353e-01   3.7380762e-01  -4.3911050e-01  -2.2256982e-01   9.2714877e-01   6.6695155e-01  -4.5252621e-01   6.6969524e-01  -7.2995077e-01  -6.6118594e-01   4.2712181e-01  -5.4828289e-01  -1.2549335e-01   5.0322340e-02  -1.4092939e-01   8.5954287e-02  -2.1858897e-01  -6.7789417e-01  -7.9892523e-01  -3.7157407e-01  -1.1679665e-01   1.8892643e-01   3.2177861e-01   2.0708857e-01  -8.3179749e-01  -6.3847692e-01   6.0234173e-01   9.3466086e-01   7.4416883e-01  -7.4902002e-01  -3.7961576e-01   3.6403677e-01   8.5278395e-02  -6.0990247e-01   9.2104109e-01  -3.5407486e-01   9.0472651e-01  -8.5166208e-01  -7.4232180e-01  -7.4841125e-01   9.7731072e-01  -4.7037485e-01   8.1494501e-01   4.9173016e-01   6.4574219e-01  -8.3419083e-01  -9.6789807e-01   3.6269113e-01  -4.2918928e-01  -3.6160340e-01  -3.2805980e-01   6.6221802e-02   3.2003964e-01  -5.7025948e-01  -9.9298246e-01   7.2117689e-01   8.0846301e-01   7.7877349e-01  -9.3194658e-01   7.8348300e-01  -2.7113554e-01  -9.7429574e-01   6.5449680e-01   3.9854232e-01   8.7315279e-01   1.7169989e-01  -4.2793218e-01  -2.2258544e-01  -9.7015493e-01  -3.6460965e-01   7.0188922e-01  -1.9404848e-01   2.0915383e-01  -3.8759649e-01  -1.4863913e-01  -7.2029679e-01   8.3017009e-01   9.9149526e-01   5.8770749e-02   7.3807939e-01   4.9236225e-01  -6.5709910e-01  -9.5403210e-01   5.5909310e-02   9.4235798e-01  -4.8629390e-01  -3.7835999e-01   9.4958753e-01  -7.3164708e-01  -4.8012330e-01  -5.0970095e-01  -2.9721655e-01   4.2666183e-01  -2.2272660e-02   7.3697327e-01   4.2009370e-01  -2.5858056e-02  -1.8925964e-02  -9.7953329e-02  -1.5687000e-01  -6.2085248e-01  -5.8123808e-01  -8.5362500e-01   6.6961297e-01   9.8454534e-01  -5.7428646e-01  -8.0800557e-01   4.0015899e-01  -7.3482816e-01
  -5.6657758e-01   5.4848716e-01  -4.8669914e-01   1.8282547e-01  -2.0143471e-01   6.9853731e-01   7.5381647e-01  -7.0703721e-01  -9.0032623e-02  -3.2434483e-01  -6.7310388e-01  -4.4712695e-01   6.2696097e-01  -7.3009945e-01  -3.4038634e-01   8.2913867e-02   3.3593710e-01   9.8630011e-01   2.6705532e-01  -2.3099516e-01  -7.3936803e-01  -4.0371828e-01   6.5764259e-01   9.9967674e-01  -3.3857646e-01  -3.5699157e-01   9.3119877e-01  -6.6356982e-01  -4.9762709e-01   5.7490489e-01  -3.7895254e-01  -9.1897076e-01  -4.9394276e-01  -3.2911206e-01  -4.7362977e-01  -2.7082473e-01   3.2540199e-02  -9.0956226e-02   7.9426649e-01  -3.8121712e-01  -7.5502583e-01  -7.5134318e-01   6.1083428e-01   6.7462290e-01   3.9066750e-01  -7.5409439e-01   1.1768995e-01  -1.1161974e-01  -5.4823856e-01   4.7173591e-01   9.7487074e-01  -1.7236814e-01   1.0186836e-01   4.6137762e-01   5.6976455e-01   2.6958241e-01   9.3242658e-01   3.3703676e-01  -9.4437486e-01  -8.5386617e-01   3.4354378e-01   1.8532962e-01   2.3545328e-01   2.3561577e-01   4.3194622e-01  -1.0762400e-01   2.9978641e-01   3.0310096e-01   2.3223666e-01  -5.9904777e-03   2.1819683e-01   6.7002139e-01  -3.7289311e-01  -1.1857967e-01   8.0343190e-01  -2.5820894e-01   7.0907741e-01  -4.7459837e-01  -7.4794247e-01   8.4011337e-01  -5.6846417e-02  -3.3544916e-01  -4.3758455e-01   8.4196867e-02  -8.0420234e-01   9.6077225e-01  -1.7326041e-01  -8.5530823e-01   6.9261080e-01   1.8974384e-01   4.5539133e-01   3.1365600e-01  -1.5391647e-01  -9.3661180e-01   9.9892715e-01  -1.1035639e-01  -3.9806592e-01   6.1619111e-01  -6.1282181e-01   2.7527899e-01   6.7389183e-02   4.1970205e-01  -9.6011027e-01  -8.9852219e-01  -1.9057120e-01   6.5044676e-02  -9.5953524e-02  -4.6075574e-01  -9.9313963e-02   2.4948532e-02   9.3315207e-01   3.6721001e-01  -2.2440256e-02   5.9488440e-01  -6.6964140e-01  -1.5642046e-01   7.9002034e-01  -4.9234645e-01   6.4149380e-01   3.5002213e-01   7.1955308e-01  -4.4783252e-01  -9.2829681e-01  -4.9267089e-01   8.7653195e-01   7.5932892e-01   2.2575600e-01  -7.3937591e-01  -3.5446711e-01  -5.2530373e-01  -6.6290841e-01   8.9311584e-02   9.3692405e-01  -9.4523045e-01   4.1627957e-02   7.2438149e-01   2.5094252e-01  -9.7521237e-01   8.3346965e-01  -7.7167030e-01  -4.3144134e-01  -5.2068891e-01  -8.3973499e-02   7.8846168e-01   4.4113558e-01  -7.9788348e-01   5.1529992e-02  -1.0173310e-01   6.1089423e-01   8.9487290e-01  -9.9971449e-01  -1.5548791e-01   9.9117626e-01   1.5770743e-01   2.2685477e-01  -1.1554502e-01  -7.2403736e-01   4.9741226e-02  -2.9875722e-01   1.3591144e-01   7.0644013e-01  -5.9224850e-01   5.6479700e-01  -7.1811233e-01  -1.4806517e-01  -7.9209100e-01  -3.5828942e-01   4.1877337e-01  -2.3966106e-01   4.4370011e-01   9.3405797e-01   9.5507137e-01  -2.0523473e-01   8.4537480e-01  -9.8269986e-02  -3.4738486e-02  -5.1253961e-01  -3.3569573e-01   9.4754808e-01  -6.7964174e-01   2.8597853e-01   4.7804244e-01  -9.2878336e-02  -6.2238674e-01   1.5734429e-01   4.3879453e-01   3.9274774e-01  -2.6520258e-02   9.4887298e-01   4.1981109e-01  -9.0147967e-01   1.0889126e-01  -9.1998116e-01   8.5323456e-01  -2.0730461e-01  -6.4486672e-01  -6.3132102e-01   6.5510454e-01   5.0141686e-02  -3.5177312e-01  -6.3233199e-02   7.6824879e-01  -1.4724295e-01  -3.0066805e-01   6.9028187e-01  -8.6250157e-01   7.6576366e-01   3.3777096e-01  -1.6660041e-01   7.0987052e-01   6.2449719e-01  -3.7534438e-01   9.2373115e-01   2.2111592e-01  -3.1924560e-01   1.2059958e-01  -2.1840009e-01  -3.5424982e-01  -2.9662073e-02  -1.2593948e-01  -1.7795496e-02  -7.8223453e-01  -7.1550023e-01   1.6024469e-01   2.1020938e-01   9.9197607e-01  -3.2982637e-01  -2.7481353e-01   4.2478134e-01  -6.8790567e-01  -9.4107061e-01   3.6289397e-01   4.1416003e-01   9.8867129e-01  -4.8193057e-01  -6.3907778e-01  -2.6591704e-01  -3.9640194e-01  -4.0648571e-01  -7.8815810e-01  -9.3494027e-01  -2.4938746e-01   5.7226646e-02   1.3166818e-04   1.0870959e-01  -8.1959701e-01   5.9378530e-02   9.2738293e-01  -6.9379943e-01  -3.5498344e-01  -8.8129526e-01  -1.5668759e-01  -5.9383721e-01   8.6268905e-01   8.5634154e-02   1.4657315e-01   1.7205539e-01   2.8618994e-01   6.7101612e-01   7.5749050e-01   3.5625428e-01  -3.4012860e-01  -6.0591613e-01   5.8753402e-01   1.6932303e-01  -5.3941970e-01   4.0923929e-01   4.3911115e-01  -2.4667707e-01   7.5653331e-01   9.0989906e-01   1.8686097e-01  -9.7047958e-01   6.0586631e-02  -2.1514483e-01   7.3395727e-01  -4.7902517e-02   2.0981437e-01   8.8483879e-01  -1.8813733e-03   5.7641799e-02  -4.4141508e-01  -9.4027840e-01  -6.1693187e-01  -2.0954361e-01  -5.3434909e-01   5.6261656e-01  -2.1433893e-02  -6.8848452e-01   5.8289109e-01  -5.7109621e-01  -3.5852836e-01   9.3558173e-01  -8.1543262e-02   3.3734348e-02   7.0195114e-01   2.0586286e-01  -3.7914639e-01   9.7268773e-01  -7.6578069e-01  -5.0425778e-01  -8.7062274e-01   3.3819644e-01   9.2236878e-01   1.9517972e-01   1.3550574e-02   6.7928403e-01  -8.0600154e-01   6.4425818e-01  -2.3900238e-01  -5.2819751e-01  -1.2295542e-01  -5.4057969e-01  -5.0220990e-01   7.6388894e-01   4.5323410e-01  -2.4866373e-01  -8.4497766e-01  -2.7334785e-01   9.8091522e-01  -7.1921145e-01   4.8542238e-01  -4.1468601e-01   2.6292856e-01  -4.2894912e-01  -8.4051129e-01   3.0160435e-01   2.7478879e-01  -1.4804360e-01   2.8315065e-01   9.6377003e-03   2.3267389e-01   8.6332352e-01   5.5756637e-01  -5.2203381e-01   1.2226620e-01   5.2868969e-01   1.0038804e-01   5.1915080e-01  -8.2763207e-01   6.2747051e-01   1.5872144e-01   6.7809700e-01   7.6321135e-01  -4.5560299e-01   6.7200527e-01  -3.6561940e-01   6.5318186e-01   9.0348366e-01  -9.1969111e-01  -1.8839109e-02  -3.3183230e-01  -7.8838336e-02  -5.0376774e-01  -2.3925315e-01  -9.9685362e-01  -9.1086203e-02  -4.4476949e-01  -4.0109007e-01  -7.7650500e-01  -7.4305634e-01  -7.9714288e-01  -2.2785418e-01  -2.4413620e-01   5.4711039e-02   1.4305925e-01  -1.8211695e-01  -1.4522510e-01  -2.2797424e-02  -9.4927774e-01  -4.5990336e-01   9.5867227e-01   2.6079178e-01   6.8705972e-01   1.8038941e-01   4.9824932e-01  -8.3790556e-01   1.5132411e-01   7.3921749e-01   5.2753182e-01  -4.9128466e-01   9.4212027e-01   5.8211193e-01  -8.4286598e-01  -3.6739588e-01   3.3904604e-01   4.1483728e-01  -9.8037245e-01   9.8467937e-01  -9.6957681e-01   6.2735783e-01  -9.1246306e-01   4.4704737e-01  -9.1266689e-01   8.7738333e-01  -7.6911898e-01  -7.2141848e-01   4.9852100e-01   9.0538819e-01   7.4348840e-01  -1.1704965e-01   5.3554708e-01   1.6587807e-01   6.0379518e-01  -1.4446567e-01  -1.5111567e-01  -3.6428729e-01   4.2750720e-01   6.1554382e-01  -9.5182033e-01  -1.1879621e-01  -4.5070035e-02   1.3799379e-01  -5.9104507e-01  -5.5643604e-01   5.1857062e-01  -6.7485039e-01   4.4774301e-01  -8.5027920e-01   7.0279516e-01   8.1323458e-01  -1.2966758e-01   5.9504614e-01   7.9404158e-01  -8.0594297e-01   6.2658278e-01  -8.7860343e-01   6.2114255e-01  -1.2901633e-01   5.2125883e-01   7.8355854e-01  -9.4030114e-01  -2.2948522e-01  -2.5630953e-01  -8.1692503e-01   8.2032546e-01   6.9404390e-01  -1.7976186e-01  -1.6699140e-01   3.0542954e-02  -6.1593543e-01  -6.1396688e-01  -2.3389106e-01  -4.7116334e-01  -2.6717963e-01  -7.4028714e-01  -7.5114518e-02   6.7644847e-01  -7.5999745e-01   6.3710611e-01  -9.5456916e-01  -4.7307766e-01   1.5637555e-01   3.3542113e-01   8.6777186e-01  -5.5187549e-01   2.3268852e-01  -8.8888332e-01  -5.9358899e-02  -7.2375560e-01  -9.6879878e-02   9.6275887e-01  -6.1563740e-01  -1.6419760e-01  -5.8114875e-01  -9.7491283e-01   4.3472414e-01   1.0370035e-01  -8.6018884e-01   5.5183692e-01  -2.3368884e-01  -7.3886732e-01   8.8291374e-01  -9.5897297e-01  -9.6409815e-01  -2.2885779e-01   6.1892112e-01   9.0002322e-01  -8.5427505e-02  -3.0010621e-01  -5.4053936e-01  -2.1310621e-01   9.8516071e-01   4.1316825e-01   6.4423397e-02   9.2189768e-02  -3.8171562e-01   7.3203636e-01   4.3407905e-02  -7.1733584e-01   4.3841241e-01   9.2915565e-01  -2.1999071e-01  -4.1798107e-01   6.9031242e-01   3.8823253e-01   3.4063260e-01   8.0800708e-01  -6.2117108e-01   7.8596410e-01  -6.6401177e-01   2.7242441e-01   3.0961097e-02   6.0109219e-01  -1.3172996e-01   8.1885782e-01  -6.4181344e-01   5.6930931e-01   1.9526755e-01   6.0256623e-02  -8.7022406e-01  -5.6434312e-01  -7.6639137e-01   8.0626442e-01  -6.2524960e-01   7.9788828e-01   7.7857055e-01  -7.5338047e-01  -3.8642149e-01   9.4478340e-01   7.9233060e-01   5.2414462e-01   8.5557716e-01   6.2813095e-01   3.6768247e-01  -6.2070771e-01   5.2449161e-02   3.6724252e-02  -1.7981201e-01   5.2274023e-01   5.7474999e-01   5.9231828e-01   8.9724553e-01  -3.1362872e-01   7.5508607e-01   7.5897388e-01   4.5639233e-01   3.8959519e-02   9.5535777e-01  -1.2803614e-01   6.3510301e-01   2.6269924e-01  -3.8343562e-01  -7.1403027e-01   3.3132735e-01  -8.1966165e-01   5.1943628e-01  -1.7189468e-03  -3.9281719e-01  -2.0426245e-01  -6.5660147e-02   2.8548212e-01   3.9761184e-01  -1.4589685e-01  -8.3560032e-01   6.9649476e-01  -2.2267462e-01  -6.8210951e-01  -2.9209828e-01  -8.9116438e-01  -8.8778782e-01  -4.1480443e-01   5.5135279e-01   8.3791464e-02   8.1045390e-02   3.5946419e-01  -2.3555009e-01  -6.1773322e-01  -7.5969255e-01   3.4371124e-01   4.6766545e-01  -3.3683580e-01   5.7019509e-01   3.8512602e-01  -6.2504240e-01  -6.2462904e-01  -4.8524422e-01   2.6374577e-02   4.9912314e-01   2.7056985e-01  -9.1362740e-01   7.9475528e-01  -5.3172874e-01   3.5337990e-01  -2.0580046e-01   8.1681143e-01  -5.7124401e-01  -4.7384199e-01   6.7066117e-01   5.4610048e-01  -3.8970625e-01   4.6424140e-01   5.3974371e-01  -6.5584795e-01  -3.5648204e-01   1.3580884e-02   6.3770129e-02  -6.8884097e-01   9.0847975e-01  -5.0815799e-02  -7.8834515e-01   6.4440377e-01  -4.5073132e-01   5.7357726e-02   1.4503591e-01   2.0905998e-01   2.3180797e-02   7.7046558e-01   8.8908345e-03  -9.8736665e-01  -6.4137418e-01   6.9084317e-01  -3.4487423e-01   8.2217600e-01  -8.1540534e-01   6.8777220e-01   8.6930665e-01   5.9132346e-01  -1.3938748e-01   7.1277393e-01   6.5057076e-01  -5.5068636e-01  -7.9547206e-01   3.3968716e-01   7.8796420e-01  -7.4381654e-01   3.7444726e-01  -6.8370368e-01   3.6459565e-01   3.9795736e-01   2.0436986e-01   4.4861491e-01  -1.4830761e-01   3.3089774e-03   1.8192532e-02   8.9406212e-01  -4.7095527e-01   3.8579037e-01  -8.5284685e-01   1.5446847e-01   2.2888617e-01  -2.5642918e-03  -1.2669792e-01  -2.9448586e-01  -2.1572985e-01   5.3367991e-01   6.7836716e-01  -9.6134378e-01   3.8594180e-01  -5.2465415e-01  -3.2048409e-01   4.2811599e-01   5.0622607e-01   6.1513151e-01   1.1672803e-01  -9.2831683e-01  -1.9879892e-01  -8.7822337e-01   5.9418620e-01  -8.0523953e-01  -8.0519728e-01  -9.2746467e-01  -9.0161330e-01  -5.8618896e-01  -2.9249293e-01   1.3705962e-01   8.0311908e-02   6.2067457e-01   2.5674230e-01  -4.0541115e-02  -9.7308326e-01   2.5138709e-01   6.0252170e-01  -5.2096401e-01  -3.8879860e-02  -4.0193564e-01  -2.2240460e-01   9.0366399e-01  -4.1675596e-01   5.5286055e-01  -8.9936916e-01  -1.3924098e-01   1.9327162e-01  -6.5740274e-01  -2.3751909e-01  -7.8536438e-01   5.3435134e-01   7.9683641e-03  -6.2087683e-01  -8.2472182e-01  -2.0406869e-02  -1.7098367e-01  -4.4728336e-01   5.1164024e-02  -5.7001995e-01  -3.2975745e-01   6.3418273e-01   3.7332859e-01  -8.0781195e-01  -5.0803041e-01  -5.4638468e-01   5.6781089e-01   7.4135204e-01  -5.3762778e-02  -2.7265504e-01   6.8517046e-01  -3.6401971e-01   8.0619905e-01  -7.5049229e-03  -7.3039418e-01  -3.6785669e-01  -5.9039499e-01   2.9590361e-02  -9.3936965e-01   1.3916269e-01  -7.0607892e-01   7.4805775e-01  -9.9749606e-01   1.4593308e-01   8.2697893e-02   9.3700963e-01   8.5190633e-01   3.3916387e-01  -5.9025932e-01  -9.0750128e-01   7.6161017e-01  -6.8251267e-01  -1.8501446e-01   6.0837688e-01  -7.8090766e-01  -7.8168923e-01   5.9258708e-01   1.2670153e-01  -3.6091982e-01   2.5942884e-01  -7.4706054e-02  -1.5302659e-01  -7.9114413e-01  -9.9663297e-01  -5.9012764e-01  -8.6029344e-01   7.1039168e-01  -4.6958718e-01   5.3831854e-01   1.9929808e-01  -9.5573513e-01  -5.4976056e-02   6.0408568e-01  -3.6800727e-01   6.2132043e-01   6.7854196e-01  -5.6367393e-01   4.2712015e-01  -1.9123263e-01  -8.3322341e-01   6.6883864e-01  -8.1893323e-01  -6.4137597e-01  -2.4798539e-01  -2.6742398e-01  -9.4233121e-01  -6.7651356e-02   7.7194009e-01   2.5212094e-01  -1.7126983e-02   5.5599492e-01   5.6488052e-01  -9.4215047e-01  -4.3688120e-01   2.9593756e-01   5.9548287e-01  -5.5150043e-01  -1.4593409e-01  -1.3259834e-02  -4.6320516e-01   1.6967976e-01  -3.2923109e-01  -4.3068227e-01  -9.2769018e-01  -1.6515756e-01  -2.0336691e-01   1.2450468e-01   9.9000937e-01  -4.7508388e-03  -2.9594960e-01  -9.5101842e-01  -7.3153255e-01   3.8929820e-01   7.3289279e-01  -2.2732896e-01   9.3926721e-01  -7.3477136e-01  -8.0150284e-01   4.0454798e-01   7.7904930e-01   3.3870287e-01   5.5553834e-01   2.5416439e-01   1.5198636e-01   2.3537363e-02   6.1687392e-01  -9.2111306e-01   3.0231679e-01   2.1777639e-01   3.2132358e-01  -1.2754160e-01   5.3087792e-01  -8.2367307e-01   3.4499960e-01   8.9082752e-01   9.8766718e-01   8.9102575e-01   4.1450561e-01   3.0790513e-01   6.3266207e-01   6.2564107e-01  -7.3711834e-01   7.0098515e-01   1.6232271e-01  -4.6795649e-01  -2.7783163e-01  -6.8831138e-01   6.4809923e-01  -3.1660064e-01  -1.6509168e-01   1.0739408e-01   3.5057200e-01  -9.4489432e-01  -9.7245036e-01  -5.5769795e-01  -1.7207246e-01  -1.0984183e-01   1.5012317e-01   6.7168607e-01  -8.0141418e-01  -5.9779864e-02   3.9539093e-01  -2.2173329e-01   3.3213620e-01   1.5024304e-01  -1.6407899e-01   8.1211100e-01   2.1711462e-01   6.1794867e-01   8.3303173e-01   9.6527330e-01   2.5426109e-01   9.6537619e-01   5.0537940e-01   6.2033289e-02   3.5837966e-01   8.9470323e-02  -9.8091858e-01   6.3917556e-01   7.7535051e-01  -7.9663538e-01  -5.6624610e-01   3.2994777e-01  -1.1016980e-01  -5.2107805e-02   7.4136887e-01   9.7566353e-01   4.5817668e-01   6.8338572e-02   4.4408409e-02   2.6196286e-01   4.0197244e-02  -6.5943996e-01  -9.4587616e-01  -2.1562920e-01   8.9245914e-01   5.9398595e-01  -5.6550884e-01   6.5996010e-01  -9.0495943e-01   3.5987268e-01  -4.0305875e-01  -4.4660271e-01  -5.0963180e-02   7.8030218e-01   6.9450073e-01  -6.3832405e-01  -3.7889621e-01  -2.6489314e-01  -8.4051283e-02  -1.3084973e-02  -7.2853781e-01  -2.9868769e-01  -4.7028320e-01   9.8443366e-01  -4.4235118e-02  -7.1524099e-01  -7.0849770e-01  -9.8716986e-01   5.3620321e-01  -1.9154363e-01   6.6893970e-01   2.2849027e-01   5.4850898e-01   2.7316115e-01  -5.7867414e-01  -1.5432419e-01   3.9997010e-02  -9.4347576e-01   9.1778588e-01   5.2716439e-01   5.5196784e-01   1.3546608e-01   8.0096836e-01  -7.1704441e-01  -6.0243144e-01  -4.1025820e-01   9.2304736e-01   6.6173615e-01  -7.3696451e-01  -6.4061632e-01   5.7865879e-01   2.0599819e-01  -2.8342539e-01   9.6361566e-01   4.7742272e-02  -8.8445057e-01  -1.2618621e-01   4.1982528e-01  -4.8284092e-01   2.2970391e-01  -7.4068368e-01   2.5483675e-02   5.5790001e-01  -9.7075226e-01  -5.0407829e-01  -7.1359433e-01  -8.2929218e-01  -5.8625850e-01   5.3892968e-02   4.9408116e-01   1.4866684e-01   7.4015015e-01  -7.8294458e-02  -6.4217845e-01  -4.0642388e-01  -4.6166744e-01   4.6243512e-01   4.3732015e-01  -6.5037691e-01  -3.5897068e-01  -5.0229617e-01   6.3026055e-01  -8.6158630e-01   7.7148128e-01   7.8532339e-01  -1.3672909e-01  -6.3186633e-01  -9.8227883e-02   2.2367872e-01  -6.5535215e-01  -2.6509075e-01  -7.1057930e-01  -7.0401108e-01  -1.6732407e-01   9.0737122e-01   7.8715809e-01   3.1594049e-01  -9.0349561e-01   9.2748791e-01  -5.2963558e-01   5.1093362e-01   9.1183468e-03   2.5137686e-01   3.1983175e-01   5.8386213e-01   8.5943475e-03   4.3973126e-01   2.1350604e-01   9.5496922e-01  -5.8063409e-01  -6.9384365e-01   5.9834599e-01  -3.5330933e-01   2.8022330e-01   6.7904077e-01  -2.0798679e-01  -1.3684201e-01   8.7493346e-01   7.4420166e-01  -7.1838805e-01   3.7143225e-01  -9.0488359e-02   2.8290449e-01  -7.7012346e-01   4.6405693e-01   5.7417758e-01  -2.9801385e-01   6.1575678e-01  -5.8185879e-01  -7.0504507e-01   1.0398588e-02  -3.8004142e-01   8.3638555e-01  -2.0956951e-01
  -9.6136209e-02  -2.6875898e-01  -7.4807850e-02  -5.3531861e-01   3.1832024e-01  -4.0828172e-01   4.8371978e-01   4.9937269e-01  -2.9055019e-01  -8.9291378e-01   4.8323500e-02  -8.2214899e-01  -5.1374753e-01  -1.2487897e-01   7.5017456e-01   8.7352285e-01  -7.9730785e-01   9.6854934e-01  -6.6471488e-01  -7.3405200e-01   5.4261528e-01  -5.6434695e-01  -7.0509753e-02  -2.4833665e-01   6.7469123e-01   1.6976717e-01  -6.3125138e-01   1.7253311e-01   8.9851694e-01   2.0334237e-01  -6.1821801e-01   7.1365435e-01   6.9647035e-01   2.9203372e-02  -8.7241629e-01   4.3456599e-01   8.5966354e-01   6.6783552e-01   3.8755921e-02  -3.1618158e-01   6.5737594e-01   2.2503694e-03  -2.3107594e-01   8.1361771e-01   9.6230243e-01  -8.9686429e-01   2.8498171e-02   1.4549950e-02   4.2519909e-01   4.4777632e-01   1.5641195e-01   3.9402049e-01   4.6400151e-01  -3.7197150e-01   6.1836250e-01  -7.3157526e-01   1.9671360e-01   1.4340240e-01   7.2653137e-01  -6.7266134e-01   8.2255774e-01  -9.0103985e-01  -8.3797460e-01   9.7328404e-01  -2.4134984e-01  -6.8922351e-01  -2.4431963e-01   9.2968660e-01   7.9244383e-01  -7.2670440e-01  -9.3360600e-01  -2.8202392e-01  -8.2409469e-01   1.4701145e-01  -2.2189189e-01   4.5313960e-01  -2.8108997e-01  -4.7247916e-01   6.6813278e-01  -2.1016729e-01   6.7085809e-01   6.5663815e-01  -1.8195645e-01  -6.1324327e-01  -1.9637528e-01  -8.9361799e-01   8.1708147e-01  -6.3211563e-01   4.3663543e-02   1.4565290e-01  -3.3088300e-02  -9.7270951e-01   6.2602282e-01   9.7708930e-01   2.1912388e-01   7.9522808e-01  -1.2776650e-01   9.3476758e-01  -7.7029208e-01   5.8815698e-01  -9.8329136e-02   8.5421507e-01   3.1832702e-01  -1.4375262e-01  -4.2647067e-01   2.1616229e-01  -9.4659430e-01   4.6969422e-01  -9.6577999e-01  -8.3859829e-01   9.0004266e-01   7.0016413e-01   3.9010345e-01  -2.8604496e-01   8.1147012e-01  -1.2337473e-02   7.5325039e-01  -5.0863020e-01  -5.4705720e-01  -4.4518302e-01  -2.9941922e-01   1.1990573e-02   4.9392354e-01   1.7478955e-01  -6.6847193e-01   2.5577005e-01   9.3452183e-01  -3.5077462e-01   5.1473614e-01   5.9906152e-01   3.1688887e-01   5.5750821e-01   6.6672748e-01  -6.5042129e-01   1.4201378e-02  -5.6647966e-01   6.0408502e-02  -5.7945851e-01  -9.9859808e-01   1.9258994e-01  -3.7379772e-01  -4.7591735e-01  -7.1587054e-01  -3.8849113e-01  -2.8476150e-01  -2.8698707e-01  -6.3183617e-01   6.1544152e-02  -6.0529969e-01   1.4322934e-01  -1.3895035e-01  -5.8819164e-01  -5.8121847e-02   2.8830766e-01  -2.3303961e-01   3.8282880e-01   9.9159970e-01  -1.8103488e-02   1.9435507e-01  -3.8277966e-01   7.1461724e-01   2.0808949e-01  -9.1080527e-01   8.6956946e-01   3.4123701e-01   3.5373408e-01  -8.5570010e-01  -4.2708764e-01  -2.1838499e-01   3.4320723e-01   2.8066293e-01  -7.1460403e-01   2.4060460e-01   3.4645822e-01   7.0478089e-01  -2.7610546e-01  -1.4090283e-01   9.7965642e-01  -7.4253118e-01  -5.8952994e-01  -5.2805809e-01   2.4193947e-01   9.6395603e-01  -1.6327095e-02   5.0651977e-01   6.1734758e-01  -6.5280476e-01  -5.2036733e-01  -5.5358333e-01   4.5058299e-01  -2.7745998e-01  -9.8144338e-01  -6.3782974e-01   8.6017376e-01  -6.8234847e-01   5.4263687e-01   2.5228202e-02  -1.7917291e-01  -3.7117874e-02   2.8028995e-02  -4.6389738e-01  -7.5159122e-01  -5.8403070e-01  -9.2010567e-01   4.6986460e-01  -4.2436533e-01   3.0808810e-01   6.4000524e-01  -2.3352012e-01   9.8998805e-01  -2.8350080e-02   1.1478446e-01  -8.8438564e-01   9.4717999e-01   4.6504015e-01   6.2537015e-01   9.1851444e-02   4.1270392e-01  -4.5089528e-01  -8.9361701e-01  -1.0273203e-01  -6.0737356e-01  -5.9118589e-01   1.3511748e-01   8.6631105e-01  -9.6862116e-01   5.6926714e-01  -5.8812884e-01  -6.5103530e-01   9.5336806e-01   1.9233902e-01  -2.0465609e-01   6.1436377e-01  -4.5410578e-01   9.9989214e-01   9.8298214e-01  -1.8642864e-01  -2.2740630e-01   8.0479692e-01   6.9655835e-01  -1.2004069e-02   8.3076882e-01   3.7329866e-01  -6.7508178e-01   1.9736250e-01   8.9958645e-01  -2.2516803e-01  -7.9511232e-01   3.0536775e-01  -3.8956017e-02   9.1642439e-01  -2.0712829e-01   8.0842747e-01   5.7635797e-01   7.8578131e-02  -9.6951434e-01   7.1295285e-02  -5.2362518e-01   5.9364370e-01   2.4371785e-01  -3.9111953e-01  -5.8560542e-01   5.0461387e-01   1.2744745e-01   5.9719317e-01  -8.3456934e-01   6.7647296e-01   1.0628675e-01  -3.8333146e-01  -7.7285446e-01  -9.0176721e-01   1.0303595e-01   2.8359545e-01  -3.7876219e-01   1.1562179e-01   9.8417263e-02   9.3331537e-02  -1.1837237e-01  -8.8260639e-01  -9.8422985e-01   6.3980635e-01   5.3327349e-01   5.5385007e-04   8.5923937e-01   3.0074147e-02   5.6911656e-02   3.9261635e-01   6.1694748e-02  -2.6346703e-01  -6.2774865e-01  -4.1476176e-01  -6.9222630e-01   8.3070731e-01   4.4398379e-01  -2.9422757e-01   3.4164490e-01   8.7411777e-01   4.6209604e-01   8.9212090e-01   4.8326760e-01   6.2890545e-01   8.2186268e-01   8.3516898e-01   3.6526854e-01  -1.7792217e-01  -2.7973020e-01  -3.6747018e-01  -5.3855435e-01   4.6464105e-01  -5.8453059e-01   1.7769339e-01   5.2252606e-01  -4.5612219e-01   8.8288752e-01  -3.3723213e-01   6.2169478e-01   4.0036816e-01  -7.8594131e-01  -4.6129923e-01   2.9775302e-01  -6.7665870e-01   2.4870745e-01  -6.7455222e-01  -5.5348583e-02  -4.5684657e-01   8.5579971e-01  -2.5021056e-01   2.3870117e-01  -9.8145452e-01   2.3504748e-01  -6.9336496e-01  -7.9335834e-01   1.8032224e-01   9.1935856e-01  -5.3339960e-01  -5.6577554e-01   2.8738770e-01  -1.6683004e-01   1.0163293e-01  -8.3696622e-01  -2.8505604e-01   6.2654323e-02   9.7350734e-01  -4.2073422e-01   2.4562556e-01  -4.9246620e-02  -8.6500733e-01   4.2447209e-01  -7.8329693e-01   9.3935948e-01  -1.7002981e-01   8.6245077e-01  -4.7116550e-01   9.0121559e-01   9.8328063e-01   2.3823234e-01   9.6083625e-02   4.1768417e-01   5.5856363e-01   2.0385061e-01   1.2487862e-01  -5.3267676e-01  -1.0681363e-01  -8.2616941e-01   9.2833744e-01   7.1487955e-01  -8.9669800e-01   2.4015661e-01   6.9746542e-01  -3.3975655e-01  -4.8984625e-01   4.6163835e-02  -4.9452160e-01   4.6679237e-01  -9.3639304e-01  -6.6641775e-01  -1.5253652e-01   9.6358042e-01  -9.4641502e-01  -9.3346877e-01  -3.9459528e-01  -3.5078450e-02   9.9194526e-01  -3.2108340e-01  -3.9340304e-01   7.1957900e-01   3.8683975e-01  -6.0992979e-01   7.8905994e-01  -2.0491510e-01   8.5982809e-01   8.0018904e-01  -5.5540591e-01  -8.2894156e-01   2.7221604e-01   2.3896977e-01  -2.8376813e-01  -8.9449067e-01   5.0159033e-01  -9.5137791e-01  -7.6568103e-01  -9.4185159e-01   2.2460033e-01   7.9825272e-01   7.4241073e-01  -7.9160210e-02  -8.0152422e-01   4.4375375e-01  -9.5136107e-01  -5.0597477e-01  -7.1609977e-01  -7.1287048e-01   4.4923497e-01   5.0669004e-01   8.9525451e-01   1.4773910e-01  -3.7127923e-01  -5.0466853e-01  -2.8967370e-02  -3.2402054e-02   9.7318869e-01   2.1048433e-01   5.2269321e-01  -3.7574449e-01   2.1773430e-01  -9.1978568e-01   8.9531651e-01   6.5713036e-01   4.2328415e-01  -9.9645780e-01   2.0917121e-01  -4.5148397e-01   5.5218777e-01  -3.9159403e-01  -3.8216479e-01   5.1722725e-01  -5.9800583e-01   3.8610232e-01   4.0232621e-01   4.7165062e-01   7.6227569e-01   2.3694112e-01  -9.1444169e-01   6.5015142e-01   9.8731144e-02   6.6943542e-01  -2.1701601e-01  -9.8303630e-01   1.7380185e-01   7.0562133e-01  -2.4846221e-01  -5.2096257e-01  -5.9707970e-01  -1.5649242e-01   6.2622640e-01   5.1758792e-01   5.8701615e-01   6.3209722e-01   6.8147133e-01   6.6000935e-01   6.0549750e-01   7.8264869e-01  -7.0450580e-01   7.6107026e-01  -8.5120116e-01   2.3354337e-01  -7.9536055e-01   1.1037516e-01  -1.4103743e-01   8.0535230e-02  -2.1595332e-01  -1.5890148e-01  -4.2776748e-01   3.7591348e-02  -9.2974955e-01   3.0414504e-01  -3.8465187e-01  -5.9465034e-01  -7.9233694e-01  -6.5131476e-01  -2.8443188e-01   9.0892269e-01   9.2644622e-01  -6.6757482e-01   7.3212402e-01   7.7163175e-01  -3.5797034e-01   1.5996229e-01   3.7302225e-01   4.4380894e-02   3.9060322e-01  -4.6599212e-03   9.2004643e-01  -1.7651166e-01  -5.6289468e-01   4.3456491e-01   6.3533207e-02   4.7965138e-01   5.1491099e-01  -5.3107529e-01   9.8130276e-01   9.0296624e-01  -8.4251521e-01  -6.3944249e-02  -4.2380288e-01  -4.4403876e-01  -3.0482865e-01   5.2404735e-01  -7.5132215e-01   3.1168203e-01  -3.7244978e-01   6.0549220e-01   2.0970735e-01  -9.8384629e-01   1.3106839e-01   7.6782496e-01   6.2635658e-02  -9.9609849e-01  -5.3774230e-01   4.3469305e-01  -6.7876039e-01  -1.6202390e-01   8.6497983e-01   7.9076090e-01  -1.7773602e-01   1.9699137e-01   8.4047489e-01  -5.8357254e-01  -7.8445911e-01   9.3927080e-01   2.5596765e-01  -2.4434689e-02   1.0719712e-01   1.1196177e-01  -3.0453503e-01   4.0203321e-01   7.1556894e-01  -1.0331312e-01  -6.2989354e-01   7.6532904e-01   5.3976936e-01  -7.3138692e-01   5.6091859e-01   9.7724483e-01   6.0606071e-01   2.8490230e-01  -4.7517064e-01   5.6241260e-02   5.8896852e-01  -8.8055920e-01   1.3304581e-01  -9.3637766e-01  -7.1809664e-02   7.0895921e-01   6.3599387e-01  -7.5943822e-01   4.0864892e-01  -8.1688812e-01   7.6293436e-01  -4.6772215e-01   4.2160934e-01  -8.6264539e-01  -5.0643314e-01   7.1494015e-01  -2.4543471e-01   9.9495626e-01   2.9160407e-01  -5.4990261e-01   7.4162254e-01  -1.3723858e-01   4.4698235e-01  -6.5312552e-01   5.5689822e-01   4.9469160e-01  -7.8261195e-01   5.6141106e-01  -3.7055493e-01  -4.7860743e-02   8.3862110e-01  -4.3594557e-01   7.9165231e-01   3.5456288e-01  -2.6695283e-01   4.8836791e-01  -2.2911079e-01  -5.1096778e-01   8.5443840e-01   3.8090795e-01   1.3466899e-01   5.7570672e-01   1.2846092e-01   5.8906156e-01  -5.2272013e-01  -5.7399513e-01  -7.9046246e-01   7.4242671e-01  -9.0050660e-01   1.3471532e-01   3.7826245e-01   2.9704447e-01   8.8791380e-01   4.3068757e-01   7.2656247e-01  -3.4118649e-02  -1.1230755e-01   8.7992709e-01  -1.0673173e-01   4.7900588e-01   9.0293187e-01   6.6784815e-01   6.4977128e-01   4.5837542e-01   6.6198389e-01  -9.2427844e-01  -4.7987223e-01  -8.7899851e-01  -4.9850711e-01  -1.9886456e-01  -2.0035930e-02  -1.1699727e-01   4.5431836e-01  -5.6323217e-01   9.8113122e-01  -8.7668974e-03   1.9394003e-01   5.7968231e-01   9.4548384e-01   1.2332334e-01   3.8450066e-01  -7.6734848e-01   2.4344224e-01   2.8781640e-01   5.9932431e-01   8.9387237e-01   3.0362144e-01  -6.8687100e-01   7.2943832e-01  -9.4815815e-01   3.2394781e-02   1.0298871e-01   8.4187051e-01  -3.8132033e-01  -7.4964659e-01   8.8535665e-01   3.1953743e-01   3.7511454e-01   9.1217573e-01   7.4117097e-01  -6.0866692e-01   6.5612634e-01   1.0900218e-01  -2.5422372e-01   7.3715802e-01   7.2903424e-01   8.2146037e-01   2.5944914e-01  -9.3258725e-01   4.3790172e-01   1.7668990e-01   9.5491723e-01  -1.3241950e-01  -4.5264831e-01   9.0240350e-01  -4.6396799e-01  -5.7266277e-01  -4.5930112e-01   2.9633944e-01   5.9046941e-01   4.6218142e-01   9.0873022e-01  -9.6049726e-01   1.9603869e-01  -7.3353049e-01   5.0211613e-01   8.1394665e-01  -1.7303798e-01   6.0072060e-01   9.0614624e-01  -5.6669046e-01  -4.7050367e-02   9.9280631e-01   3.9472537e-01   2.7401531e-01  -8.1303096e-01   8.5745839e-01  -5.9765834e-01   8.0137594e-01  -2.9086985e-02   8.0063393e-01  -4.2169617e-01  -1.3594831e-01  -7.7800343e-01   2.9695410e-01   2.0069456e-01   2.7732918e-01   4.1103947e-01  -9.9649344e-01  -3.7171382e-01   6.9404989e-01  -6.8143945e-01  -4.8981505e-01   3.3951085e-02  -7.6203019e-01   7.7728548e-01   9.1204763e-01   5.0015653e-01  -5.8689193e-01   6.3095195e-01  -6.6464045e-01  -5.5065701e-02   2.9163679e-01   4.9175230e-01   6.6326907e-01  -2.2692248e-01  -1.9145723e-01   1.0587663e-01  -7.3710172e-01  -6.6769920e-01  -3.7271277e-01   9.3057205e-01  -6.8845492e-01  -3.3616915e-01   5.8826578e-01  -8.0866040e-01  -9.4933348e-01   3.9031109e-01   3.8352087e-01   4.5097225e-01  -9.9358025e-01   9.0499642e-01   3.0734282e-01   4.0511719e-01   1.8651169e-01   3.1517667e-03   5.4233568e-01  -3.9041300e-01   2.7309990e-01  -6.0583183e-01   2.5703461e-01   1.7779196e-01   1.6258656e-01  -6.1089607e-01   7.0419844e-01   2.7004677e-01   5.0562915e-01  -7.3971014e-01   8.8659630e-01   3.3031785e-01  -6.9089055e-01   1.8293287e-01  -4.5175139e-02  -2.7222114e-01   3.8291346e-01  -5.0329441e-01  -4.4659868e-01   9.0681038e-01   1.5197886e-01   7.6686330e-01  -2.9161208e-01   9.6345803e-01   4.3410788e-01   1.6286825e-01   9.6676733e-01   4.6064905e-01  -1.5262428e-01  -9.0317433e-01   2.6721935e-01   5.2900934e-01   7.0127212e-01   8.5091875e-01  -7.4637191e-01  -8.2071848e-01  -9.6394488e-01  -5.7039135e-02  -2.5390551e-01   5.6271262e-02  -3.7726148e-01  -9.1785431e-01   4.2487637e-01  -9.8831238e-01  -6.6152295e-01   7.1903078e-01   3.9586483e-03  -3.2124197e-01   8.2308388e-02   5.9102050e-01  -1.0558526e-01   5.2087135e-01   8.3998386e-01   6.6151740e-01   6.8459351e-01   7.8045720e-01  -7.9384261e-01  -9.9113948e-01   5.8736753e-01   7.4070294e-01   8.6013060e-01   4.3966574e-01  -4.1884454e-01  -2.1577007e-01  -5.1196259e-02   8.7933483e-01  -5.6674170e-01  -1.0426621e-01   6.6787011e-01  -6.1087684e-01   9.8531015e-01   8.8004440e-01  -1.1516470e-01  -2.0172453e-01   6.7187173e-01   5.3682358e-02   3.6881646e-01  -8.5237936e-01  -1.5509729e-01   2.9100355e-01   6.9464871e-02   7.4539732e-01   6.1068486e-02  -6.0542571e-01   4.8998419e-01   6.4758682e-01   6.2020526e-01  -8.6270902e-01   1.7173673e-01  -4.2584607e-01  -1.7670171e-01   2.3425963e-01  -4.7909956e-01   9.6076033e-02  -4.7534323e-02   1.3074045e-01  -9.1871097e-01  -9.5008021e-01  -6.0955895e-01   1.0646089e-02  -6.2306376e-01  -4.5810495e-01  -8.4449977e-01   4.9842990e-01   1.6601378e-02   5.2669552e-01   1.9513856e-01  -2.9715889e-01   4.7443668e-01   9.1683932e-01  -3.2562639e-01  -8.9668900e-01  -6.4451201e-01  -2.7108122e-01   4.8613156e-01  -8.2759752e-01  -1.6271551e-01   4.9694388e-01   4.5523302e-01   4.9491806e-01   7.8859949e-01   2.1061571e-01  -9.0167629e-01  -5.4188836e-01   9.5648510e-01   4.8747120e-01   5.5608280e-02  -1.5094620e-01   2.1216001e-01   7.5622990e-01  -1.7024088e-01   2.4591432e-01   7.9686690e-01  -3.0910885e-01   4.2078018e-01  -6.4802723e-01  -4.1015978e-01  -2.4038007e-01  -2.1096317e-01  -9.6360630e-01   9.5348967e-01  -4.9612231e-01  -7.8184114e-01  -3.3912835e-01  -8.3544673e-01   1.1120091e-01   6.2318247e-01  -1.1211749e-01  -9.3127467e-01  -3.7792017e-01  -6.9627968e-01   9.9416927e-01   3.6912574e-01  -1.2718499e-01   1.8497137e-01   5.4643718e-01   4.7616742e-01  -6.8966132e-01   5.6028968e-01   8.3119120e-01   2.4262039e-01  -3.1790050e-02   2.1407007e-01  -8.9918557e-01  -5.4359577e-01  -6.6046038e-01   6.5841956e-01  -3.7758122e-02   6.7870534e-01  -6.3117324e-01  -5.8091462e-01  -3.5445791e-01   3.3637491e-01  -4.2994699e-01  -8.2293045e-02  -9.0964960e-01  -3.9492787e-01  -2.3071087e-01  -4.0046429e-01   2.2496444e-01  -8.3961936e-01  -3.8112266e-01  -3.0565202e-02   9.6552049e-01  -4.2526642e-01  -8.5810766e-01   1.8688736e-02   9.1721413e-01   4.0365634e-01  -4.6096433e-01  -7.1260151e-02   1.2043756e-01  -4.1537176e-01   8.2291713e-01   3.6237335e-01   7.9030603e-01   7.4080491e-01  -5.3347264e-01   3.8027046e-01   1.6927689e-01  -1.4541360e-01   5.7378152e-01  -7.1725569e-01  -3.4013395e-01  -6.7694714e-01   6.2621407e-01  -1.6696747e-01  -9.5052180e-01  -1.9209433e-01   9.5164807e-01  -7.4596079e-01  -1.5912406e-01   8.1373887e-01   7.9833028e-01   7.6578456e-01  -6.8199588e-01   7.5410697e-01   2.4767148e-01  -7.2491003e-01  -2.5253894e-02   2.9905702e-01   2.0010861e-01  -1.1584547e-01   3.4037363e-01  -6.1587352e-01  -4.4920691e-01   8.1605459e-01   4.7999691e-01   4.5494455e-01  -8.2672120e-01  -8.4072583e-01  -5.8344312e-01   9.5747340e-01   6.5256328e-01   8.3347019e-01  -3.5993492e-01  -4.4607426e-01  -3.6324064e-02  -4.2450107e-02  -8.1393461e-01   9.1031412e-01  -9.3354016e-01  -1.4521033e-01   1.4312368e-01   2.2887291e-01   1.6172248e-01  -1.6465000e-01   4.3705507e-02  -3.6000624e-01  -4.6956469e-01  -6.7252284e-01  -9.5861575e-01   7.7678313e-01   6.1055691e-01   2.8845211e-01  -8.8053270e-01  -6.9893485e-01   8.5297228e-01   7.5218981e-01   4.2914974e-03  -7.9037850e-01  -3.3628812e-02   8.9805390e-01  -6.7127410e-01
  -4.1871649e-02  -2.6772567e-02   1.7005359e-01  -3.5120473e-01  -7.6038125e-01   2.6352056e-01   9.4672184e-01  -4.5843164e-01   5.5111926e-03  -4.5733549e-01   7.7906448e-01  -2.7385524e-01  -7.6225794e-01  -7.3342059e-01  -3.4267375e-01   5.0755571e-01   1.9485961e-02   7.9437418e-01  -7.3241953e-01   1.3848865e-01  -5.4014636e-01  -3.7767515e-01  -7.1902986e-01  -6.7855093e-02  -5.7834853e-01  -6.0012550e-01   5.0458665e-01  -3.0034681e-01  -8.6215083e-01  -6.8485106e-01   6.0913575e-01  -6.1535721e-02  -6.1877613e-01   8.4826540e-01  -9.4102366e-01  -5.6210068e-01   1.3554789e-01  -4.9826958e-02  -2.8285439e-01  -4.9684078e-01  -4.7462277e-01   7.0369249e-01  -2.1720456e-02   1.8698496e-01  -8.1213697e-01  -5.4883262e-01   9.0747568e-01  -7.9041937e-01  -8.1559972e-01  -7.2827490e-02   5.7984628e-01  -5.9784234e-01  -1.3223104e-01  -8.7805012e-01  -4.8727804e-01  -3.8644059e-01  -3.8432054e-01  -5.4102069e-01   4.9839848e-01   3.4129276e-01  -1.7074267e-01  -6.3908785e-01   6.7347072e-01   5.0166718e-01  -5.4407776e-02   8.7052010e-01  -7.8327719e-01   1.4991589e-01   4.4471735e-01  -8.3934489e-01   1.6390508e-01  -6.9805459e-01  -3.0042268e-01  -3.5235806e-02   6.1914799e-01  -8.6180854e-01   8.6612041e-01   7.0602935e-01  -3.0199426e-01  -9.7983206e-01  -1.3596988e-01   9.5101789e-01  -2.6509179e-01   2.2955346e-01   1.3044766e-01   9.6941473e-01   3.9912413e-01   7.1947111e-01  -8.5241917e-01   9.9376673e-01  -5.1014917e-01   8.0916555e-02  -1.8346151e-02  -4.9410097e-02   2.4878837e-01  -7.4613473e-01   6.9919461e-01  -7.7911969e-01   5.8670934e-01   8.3360974e-02   4.2326201e-01  -1.9462378e-01   4.9236931e-01  -3.5657910e-01   2.0484711e-01   6.7423741e-01  -5.7922212e-01   2.1629669e-01  -9.2641583e-01   6.9009946e-01  -3.2897846e-01   8.1292899e-01   2.2331377e-01  -1.6312538e-01  -4.0960326e-02  -7.9702125e-01  -9.7321962e-01  -2.3278709e-01  -1.0516012e-01   8.5814700e-01   5.5316847e-01  -3.1491575e-01   7.7348850e-01  -2.5070051e-02   1.8605774e-01   2.1215331e-01  -9.9805443e-01   3.0766434e-01   5.4054216e-01   3.2878432e-01   2.9784609e-01   9.0693357e-01   7.7684740e-01   1.9556047e-01  -6.6675459e-01   9.8226150e-01  -3.8589816e-01  -2.2066778e-01  -7.2606685e-02   6.7349167e-01   8.8340394e-01  -6.3419584e-01  -1.5652222e-01   6.6203675e-01   9.1151877e-02   8.3843508e-01  -8.3871536e-01  -9.2235192e-02   1.0366456e-01  -3.8097762e-01   9.2707188e-01   5.9613885e-02   8.4426049e-02  -7.6885708e-01   3.6123950e-01  -8.7683715e-01  -3.6916704e-01   8.3704779e-01   4.0064382e-01  -2.5948057e-01   3.7096411e-01  -2.6011020e-01  -1.4309717e-01  -9.3160073e-01   8.3953306e-01   7.6405730e-01  -1.0205237e-01   6.7365432e-01  -1.6905667e-01  -6.3948602e-01  -6.8076731e-01   9.4350959e-01  -2.7823861e-01  -2.6804818e-01   2.8657124e-01  -9.9610507e-01   5.0035523e-01  -6.8374797e-01   2.7211897e-01  -6.1089291e-01  -4.5383835e-01   6.1377054e-01  -9.0657100e-02  -2.1413172e-01  -3.4826664e-01   2.6706082e-01  -8.7209585e-01   2.2769827e-01   8.0092763e-01  -6.4445172e-01   5.3948991e-01   3.2004033e-02   4.2641902e-01  -5.1285864e-03  -9.5556481e-01   8.8992960e-01  -4.9726034e-02  -7.5539283e-01   2.4593380e-01  -4.7058452e-01   8.2372359e-01   3.1817617e-01   6.5774085e-01   3.2119941e-01   6.0055780e-01  -3.9805358e-02  -4.3807671e-01   1.4777178e-02  -5.0820248e-01   4.5310085e-01  -3.2693302e-02  -6.3430772e-01  -8.0189559e-01  -8.1031276e-01   6.4283051e-01  -4.0418818e-01   1.3706104e-01   5.2094733e-01   5.3123808e-01   7.0625667e-01   4.4011847e-01  -7.9389457e-01  -3.5542711e-01  -9.3302103e-01  -2.4537894e-01   6.6966956e-01   4.7985713e-01   2.8565889e-01  -6.9434588e-02  -2.8614233e-01   9.2919636e-01  -4.9726643e-01   9.6178105e-02   3.0390381e-01   1.9076852e-01   1.5082883e-01   7.7400794e-01   1.2078283e-01  -2.2670549e-01   5.5991314e-01   4.4584138e-02  -6.2219606e-01   9.1399477e-01   3.4101989e-01   6.2228976e-01  -9.0351300e-01   5.5049001e-01   1.2475234e-01   2.2888554e-01  -3.1040966e-01  -9.0809504e-01   6.6063133e-02   1.7935099e-01  -1.7317795e-01   1.8118501e-02  -4.3047802e-01   5.1413768e-01  -6.9266208e-01   6.4717646e-01   2.6260529e-01  -9.3474693e-01  -6.0993386e-01   3.5201213e-01  -5.0270109e-01   6.0543625e-01  -3.5618797e-01  -3.1441026e-01   8.0119827e-02   1.2876591e-01   8.6448995e-01   8.5779753e-01   7.9523228e-02   3.6588433e-01   3.8415345e-01  -9.9374800e-01   3.5073324e-01   5.3439779e-01  -7.3485637e-01  -1.4335858e-01  -5.8541337e-02  -5.4510997e-01  -4.9921939e-01   6.7787522e-01  -9.2452334e-01  -7.7007466e-02   5.8981497e-01   3.6344315e-02   4.8683374e-01   5.0181079e-01  -3.2713280e-01   5.1928412e-01   4.3604825e-01  -4.5965967e-01   1.5043164e-01   7.0326228e-01  -2.1316343e-01   4.2153762e-01   7.4764382e-01   9.8198155e-01  -3.5655273e-01  -1.4723810e-01  -4.4966899e-01  -6.2014653e-01   6.0050595e-01  -6.2489262e-01  -5.5862928e-01  -1.8864740e-01   2.8176374e-01   9.5755289e-01  -3.7489853e-01   4.8969727e-01   2.4159344e-02   3.5914351e-01  -8.7928623e-01   8.4586481e-01   4.1462040e-01   3.9731806e-01   1.3822685e-01  -6.4434581e-01  -1.5983593e-02  -1.3720040e-01  -9.8856254e-01  -2.2037141e-02   2.3223607e-01   8.9427555e-01  -8.0533735e-01   6.6793860e-03  -8.0729391e-01   7.4913999e-01  -6.1307767e-01   8.1490000e-01  -9.8212435e-01   9.4224682e-01   8.0567240e-02   7.9522272e-03  -2.4992552e-01   8.0781590e-01   2.3242381e-01   4.8654682e-01  -1.0333966e-01  -6.8538942e-01   5.3474787e-01   7.8039602e-02  -2.7718004e-01   7.3790372e-01  -7.1753700e-01   7.8098975e-01  -8.8370501e-01   9.6116691e-01   6.1206085e-01   8.4693436e-01   3.5282031e-01  -3.0579398e-01  -6.3976398e-01  -7.0282221e-01   1.8917563e-02   8.8073629e-01   5.2440079e-01   5.3462217e-01  -3.5394033e-01  -7.3875346e-01   7.0276527e-01   8.3422349e-01  -2.1162575e-01   6.6491064e-01   5.6169882e-01  -6.0011204e-01  -9.6251367e-01  -9.1849681e-01  -5.6577379e-02  -6.2612912e-01   4.2267524e-01   8.6712308e-01   4.9268784e-02  -4.0115399e-01   4.4712109e-01   1.7773384e-01   5.3039489e-01  -7.0410257e-01   8.6413973e-02  -8.3019326e-01   6.8770123e-01   4.0399312e-01   8.2000486e-01   7.2034338e-03   5.7623227e-01   7.0345727e-01  -9.7508121e-01   1.9524776e-01  -9.4821898e-01   2.9439514e-01  -4.5203766e-01   1.2670775e-01   1.5825633e-01   6.9080814e-01   2.4801223e-01   2.3530054e-01   5.0726465e-01   9.2826165e-01  -3.1814774e-01  -9.6062181e-01  -3.1611803e-01   7.4716010e-01  -3.8310160e-02   1.0673445e-02  -7.3887103e-01   7.7684284e-01   3.9588687e-01   3.0092936e-02   7.4450136e-01   6.0987536e-01  -6.3004690e-01  -7.0060423e-01   5.8490595e-01   8.5854488e-01   3.7675585e-01  -3.7725759e-01   4.1970808e-01  -6.1432850e-01   3.0488023e-01   3.4293283e-01  -1.6713229e-01  -1.8829612e-01   3.2161990e-01   5.6705627e-01  -1.8474672e-01   1.0786575e-01   3.2598749e-01  -3.5261904e-01   4.9474328e-01  -1.6454395e-01   7.3372531e-01   3.1642217e-01   7.8305992e-01  -7.8447025e-01   4.2860951e-01   7.7681585e-01   3.9126266e-01  -3.3543598e-01  -7.0786394e-02  -6.0801607e-01  -9.7207886e-01   6.3587800e-01   1.1314420e-01   5.8096012e-02   9.5762221e-01  -4.1230507e-01   1.6957938e-01  -2.9240565e-01  -6.2489863e-01   4.4833116e-01  -8.1898729e-02   3.7437466e-01  -3.0703000e-02   3.1666293e-01   1.7147484e-01   9.2123336e-01  -7.3224588e-01   8.4834592e-02   9.7434441e-01  -6.1898926e-01   9.6219878e-01   1.0746354e-01   9.4090964e-01   8.1001517e-01  -3.0652485e-01   4.2328943e-01   2.2732632e-01  -2.9087067e-01   3.0485718e-01  -1.8941498e-01  -6.2475243e-01  -9.0933302e-01  -5.7872379e-01  -9.2844544e-01  -9.8930541e-01  -8.1903410e-01  -7.3318799e-01   6.6109047e-01   2.5320840e-01   8.4327644e-01   8.5701684e-01  -9.8097835e-01   6.7775434e-01  -3.1127749e-01   6.2012203e-01  -3.2220882e-01  -6.3757991e-01   5.3160689e-01   5.2709964e-01   1.6419775e-01  -6.8470157e-01   4.8192764e-01   2.1782913e-02   5.6937999e-01  -3.8084193e-01   1.6742097e-01  -3.7369241e-01   4.6239645e-02  -8.0368894e-01  -2.0219853e-01  -4.3104271e-02  -1.6390855e-01  -3.6910428e-01   8.0217223e-01  -8.8623287e-02   2.7127047e-01   6.3254643e-01   4.8874608e-01  -9.3284749e-01  -3.8798076e-02   1.5229334e-01  -2.1178419e-01   7.3188274e-01  -1.7110042e-01   2.9548158e-01  -7.7032563e-01   2.8785384e-01  -8.3483195e-01   2.8619425e-01   8.1391329e-01   4.6650076e-01   4.4795265e-01   1.4532313e-01   9.9719466e-01  -7.3240357e-01  -8.2708780e-01  -4.3728906e-01  -2.8243934e-02  -8.0902778e-01   7.8409329e-01   2.3698438e-01  -4.5928029e-02  -8.3272611e-01  -7.7795369e-02   8.3857732e-01  -9.2378411e-01   6.2490037e-03   3.5985963e-02   1.8655398e-02   2.6646465e-03   9.0848935e-01   7.5971854e-01   8.4940255e-01   1.2761826e-01  -2.2083693e-01  -1.1601104e-01   4.9521253e-01   9.2818370e-01   1.6545081e-01   5.6581911e-01   9.8597018e-01  -6.3580520e-01  -9.3220555e-02  -8.9029462e-02  -3.7086108e-01   5.5640886e-01   4.0272152e-01  -6.1559787e-01   1.7504598e-01   4.0414204e-01   6.0395809e-02   1.8481101e-01   8.4731437e-01  -8.5027070e-01  -5.0930230e-01   5.4375266e-01   4.4226616e-01  -6.8630677e-01   7.3895238e-01   4.1621589e-01   9.3431221e-01  -4.7464409e-01  -4.2915266e-01   8.4841941e-01   9.7000739e-01  -1.5714047e-02  -8.0662510e-01   5.6416715e-01   1.9739550e-01   2.7926355e-01   9.9681854e-01  -5.5943682e-01   6.5313004e-01   4.6512046e-01   1.1288615e-01  -9.7819150e-01   4.7964652e-01  -4.6888033e-01  -3.6920320e-01   3.7210527e-01  -6.6481136e-01  -6.0909908e-01  -9.4856480e-01   6.6703292e-01   6.0718164e-01  -2.2651483e-01  -1.6191204e-01  -4.4666901e-01   1.1800066e-02   6.1919388e-01   8.1942816e-01   3.2236610e-01  -5.5501343e-01   2.1458531e-01  -4.7627534e-01  -2.2971362e-01   7.7153233e-01  -1.3301274e-01  -6.5797877e-01  -7.5721192e-01  -8.1364892e-01  -3.5517016e-01   1.9596629e-01   2.9820041e-01   4.6619806e-01  -6.9724270e-01  -7.4672570e-01   8.8788528e-01   2.1318440e-01   7.7746085e-01  -3.2741617e-01   4.5930403e-01  -8.2796589e-01  -9.1408885e-01   2.3117937e-01  -1.4129404e-01   3.0537092e-01   4.0766276e-02   4.3669353e-01  -6.9968216e-01  -6.8690904e-01   5.3968893e-01   5.4036829e-01   9.8706416e-01   7.6188962e-01  -3.2074778e-01   6.2772068e-01   1.4518471e-01   1.5812750e-01  -6.0825462e-01   8.7632593e-01   7.5572130e-01   7.7560740e-01  -9.7154531e-01   8.4630943e-01  -7.4241075e-01   7.7316163e-01  -2.5373354e-01  -9.0471465e-01   3.4019422e-01   6.9452850e-01   3.1863759e-01   5.5114715e-02   1.7378362e-01  -8.5530113e-01   2.4533751e-01   7.6556028e-01   2.3314254e-01  -9.0393982e-01  -6.1757723e-01   8.7887070e-01   4.0583036e-01   5.7967652e-01  -5.6207378e-01  -7.9977991e-02   2.4913077e-01  -1.5600907e-01  -6.2576213e-01   3.9167418e-01  -4.4834819e-01  -7.9976954e-01  -3.7174857e-01   5.2304093e-01   2.1305481e-01   3.7616512e-01   6.9090818e-01   1.0087643e-01  -9.6944459e-01  -6.0644604e-01   3.3752031e-01   4.7315802e-01  -4.0478702e-03   1.4149997e-01   8.5445258e-01   2.1423267e-01   3.0704768e-01  -2.1268534e-02  -5.3222535e-01   2.4176456e-01   4.6837559e-01  -7.3284147e-01  -5.5364256e-01  -7.0928345e-01   2.6002643e-01  -2.1190081e-01   8.4299512e-01  -1.3084800e-02   3.0957035e-01  -4.2098272e-01  -4.7100215e-01   4.5870680e-01  -7.1703799e-01  -6.2461148e-01   6.2562287e-01   2.4357128e-01  -9.7883958e-01   8.1775857e-01   9.8853956e-01  -8.1485713e-03   6.1672896e-02  -6.9375681e-01  -3.6780758e-01   6.7948651e-01   2.8863629e-02   9.9200421e-01   5.2412220e-01   8.9227940e-01   1.1771934e-01   9.3062318e-01  -5.7827227e-01   8.7208943e-01   1.8925284e-01   8.3843925e-01  -5.1239998e-01  -5.7735566e-01   4.5934486e-02   6.6554025e-01   9.5486699e-02  -1.1580344e-01  -6.5907700e-01   2.4606345e-01   1.2385383e-02   1.9373522e-02  -1.5965362e-01  -5.4010653e-01   2.3147931e-01   1.1912141e-01   9.1731666e-01   3.4709121e-01   1.8754340e-01   3.6449337e-01   6.1107859e-02   6.5508205e-01   9.1581781e-01  -8.1734815e-01   8.5691240e-01   3.1884169e-01   2.1466937e-01   4.5112026e-02  -8.6089428e-01  -8.2489556e-01  -2.1597281e-01  -2.5163386e-01  -2.9356162e-01   7.3375922e-01  -6.5113311e-01   8.3488678e-01   5.1561454e-01  -4.1525602e-01   9.9320393e-01   5.1550498e-01  -9.5126489e-02   7.4790766e-01  -2.7705067e-01   9.3015235e-01  -2.0134480e-01   9.1058302e-01  -3.1465178e-01  -7.0367054e-01  -1.8060355e-01  -3.1190160e-01   9.6351277e-01   4.7991344e-01  -7.7794049e-01  -4.4249424e-01  -8.3899828e-01   9.9283034e-01   1.9023893e-01   6.5015295e-01  -5.3756608e-01   1.4399456e-01   3.0403783e-01  -9.2484719e-02  -3.7942477e-02  -1.3472979e-01  -2.1306278e-01   5.5807505e-01   9.2584945e-01  -4.8194940e-01   4.0210229e-02  -5.5055466e-02  -8.6058765e-01  -9.2189228e-01  -3.7894227e-01  -2.8549626e-01   8.7624519e-01   1.5734895e-01   3.3503132e-01   7.4549588e-01   9.1646719e-02  -1.2464332e-01   2.6002595e-01   3.4910464e-01   7.3457717e-01   3.9727059e-01  -2.4598063e-01  -8.9580237e-01   1.7229282e-01   6.2000410e-01   5.7246301e-01  -8.2879991e-01  -8.4232555e-01   6.5256180e-01   5.7712367e-02   9.1097625e-01   2.8455482e-01  -9.5731530e-01  -1.4828194e-01  -4.3584251e-01  -6.6897205e-01   4.6644725e-01   3.5979000e-01   9.7902978e-01   4.6043927e-01   8.9107804e-01   7.1515964e-01  -8.7591392e-01  -9.6230178e-01  -5.0586567e-01   2.8442420e-01   1.4020669e-01   9.6847520e-01   5.3649558e-01   8.8150434e-01   8.5485597e-02   8.2019237e-01   7.9968619e-02  -1.5853637e-01   8.6907937e-01   5.7316963e-01  -8.2098919e-01  -4.8634302e-01  -1.0723270e-02  -6.7854785e-01  -9.7127191e-01   7.9488290e-01   9.1484528e-01  -9.6199923e-01   7.5393613e-01   5.0051721e-01   7.4163201e-01  -1.3041655e-01  -9.6203202e-01   8.5299258e-01  -2.8193149e-01  -3.7734651e-01   8.6129331e-01   6.2412048e-01  -7.2725022e-01   7.4484125e-01   6.3527940e-01  -6.6359577e-01  -1.6293379e-01   5.0541051e-01   5.7890147e-01  -3.9099937e-01   7.9172710e-01  -2.1301119e-01  -2.7409711e-01  -5.7546773e-01   5.7705256e-01  -9.8533772e-01  -3.0899936e-03  -5.9321081e-01  -4.9725040e-01   2.7858899e-01   2.8171057e-01  -1.9992688e-01   8.0381918e-01  -1.3537550e-01  -3.2815630e-01  -8.6098087e-01  -6.0198546e-01  -8.6743007e-01   7.3865581e-01  -2.3199688e-01  -2.9054086e-01   1.1307640e-01   6.5482158e-01  -2.0332807e-01   5.2280648e-01   2.3911200e-02  -8.2445665e-01   5.4474476e-01   9.3345716e-01  -5.6899556e-01   6.3773943e-02  -2.6545025e-01   1.8878579e-01  -2.7307976e-01  -7.3150164e-01   1.7722598e-01   2.3893590e-01   5.2430997e-01  -1.9339516e-01   6.1198690e-01  -5.9835804e-01  -4.1318764e-01   7.3250313e-01  -8.3810344e-01  -1.8933365e-01  -5.7763948e-01  -1.2570412e-01   1.7508752e-01   1.1911928e-01  -6.7857917e-01   3.8657473e-01  -8.8007576e-01   9.8186199e-01   8.5058036e-01   2.7000974e-01   6.2257533e-01   8.5229296e-01  -4.8408911e-01  -2.3776600e-01   4.9904042e-01  -5.6099853e-02   2.3137515e-01  -2.2594808e-01   6.5741276e-01  -8.8147297e-01  -7.8139747e-01  -4.2520296e-01  -3.6296293e-01   2.0435878e-01  -6.3265854e-01   7.7547627e-01  -8.7046269e-01   6.0129546e-01  -2.3670736e-01  -4.0121750e-02  -3.1190574e-01   5.7685472e-01   7.9740455e-01   3.9907421e-01  -4.2589179e-01   5.0670383e-01   1.9200072e-01  -8.9096516e-02   4.0091867e-01   4.3672349e-02  -2.0516733e-01   7.4404121e-01  -3.9274584e-01  -3.7516270e-01   3.1872959e-01   1.4030332e-01   4.5837506e-01   5.1761973e-02   6.4743389e-01  -6.8280200e-01  -6.8511724e-01   8.8988469e-01   6.2315356e-01   7.5473093e-01  -9.5586899e-01  -8.3887667e-01   1.8560537e-01  -6.0935248e-01   9.8656514e-02   3.0475013e-01  -5.1732212e-01   1.1786669e-01  -8.1226835e-01   4.2869067e-01  -7.0445524e-01   6.7221335e-01   5.4545775e-01  -4.9917616e-01  -8.1175340e-01   5.1008581e-01  -8.7828319e-02   2.8946001e-01   2.3575922e-01  -2.3733248e-01   2.8184347e-01  -7.6922846e-01   2.3465810e-02  -5.5922118e-01   8.3351801e-03   6.5527883e-01  -1.1621778e-01   2.3802679e-01  -4.3047361e-02   3.6822160e-01  -9.1935652e-01   3.2893117e-01  -3.5636035e-01   9.1831723e-01
   9.6815335e-01  -1.0362091e-01   9.5144950e-03   5.5355249e-01   1.7191315e-01  -7.2029539e-01  -4.5245609e-01   8.9794545e-01   6.7153588e-02  -1.9092719e-01  -2.3844219e-01   9.9047713e-01   9.8638323e-02   5.4305666e-01  -2.5459761e-01  -4.3775491e-01   7.9551051e-02  -5.2193937e-01   1.1376446e-01  -7.4596027e-01  -6.8229160e-01  -6.8137774e-01  -9.1743061e-01  -2.6402617e-02   9.2489132e-01  -2.1551903e-01  -7.3009232e-01   7.1677658e-04   6.6105873e-01   2.0929924e-01  -2.5283411e-02   7.5580094e-02   4.0559230e-01   9.6119089e-02   5.0232167e-01   2.3350014e-01  -2.5351641e-01  -1.7501523e-01  -5.7246333e-02   9.9538015e-01   7.5580106e-02   5.7412959e-02   4.9711525e-01  -4.3793584e-01   9.8533511e-01  -7.2538870e-02  -2.7567463e-01  -5.4516008e-01   2.3017720e-01  -4.0203007e-01  -6.9297083e-01   9.1058688e-01  -5.9494433e-01  -6.2486860e-01  -5.1529157e-02  -6.1290034e-01  -2.4426238e-01   3.5706449e-01  -4.1203439e-01   2.5404142e-01  -1.1489868e-01  -9.1081940e-01   4.8951339e-01  -1.1802110e-01  -2.6979194e-01  -4.3556587e-01   2.2337576e-01  -6.5366642e-01   6.7203018e-01   1.9509327e-01   7.0476192e-01   5.8124612e-01  -4.8964709e-01   3.2397724e-01  -1.8143529e-01  -5.6025869e-01   1.8416547e-01   2.4639565e-01   8.9567730e-01   8.9472697e-01   3.8080169e-01  -8.5084748e-01  -3.9619590e-01  -8.4663217e-01   8.9629347e-01  -3.0190773e-01  -1.1392643e-01  -5.2139182e-01  -4.0797724e-01   5.1210731e-01  -4.8522143e-01  -2.0564032e-01  -5.8745317e-01  -4.5211187e-01   6.3435973e-02   6.4201815e-01   1.6256004e-01  -1.8867021e-01  -7.2639464e-01   5.5239332e-02  -5.7241180e-01  -2.7364017e-01   5.1904305e-01  -7.0889610e-01   5.8947914e-01  -1.4080158e-01  -2.2271884e-01   6.6634726e-01  -8.8209285e-01  -5.5054678e-01   9.9509433e-01   8.7782181e-01   8.9777784e-01  -3.7166737e-01   5.4843132e-01  -6.4491524e-02   2.5072977e-03  -6.8009045e-01   9.1910468e-01   3.6757640e-01   5.7302305e-01   7.4673625e-02   3.9166070e-01  -5.2540507e-02  -1.9867917e-01   1.1070356e-01  -4.7593153e-01  -6.0719187e-01   9.2984864e-01   9.0342643e-02   9.1129304e-01   1.1621271e-01   9.1592346e-01  -5.9309399e-01   2.1553283e-01  -5.4369009e-01   7.3310617e-01   9.2119704e-01  -3.1249687e-01   6.6537672e-01   3.0710565e-01  -5.3109384e-01  -8.0868247e-01  -6.7153819e-01  -2.6214104e-01   8.9595576e-01  -2.1127283e-01   3.3290154e-01   7.1806774e-02   6.3014737e-01  -3.9763329e-02  -7.5902294e-01   7.6582006e-02   2.2601253e-01   5.7883144e-01  -3.6495910e-01  -9.7195024e-01  -8.1204131e-02  -7.1719546e-01  -8.6581392e-01  -2.6301375e-01  -5.5335103e-01   9.0350802e-02   6.3725026e-01   5.0788289e-01   6.1658789e-01  -6.1742624e-01   5.1494764e-01  -1.4261918e-01   9.7582435e-01  -5.2204814e-01  -2.9033879e-01  -7.6619298e-01   5.3483473e-01  -3.0732649e-01   4.9062838e-01   5.6797421e-01   7.0486591e-01   7.2844740e-01   7.3688609e-02  -6.0537278e-01  -2.3031220e-01   9.9189119e-01   7.2124114e-01  -9.4902206e-01   2.8754402e-01  -3.3687942e-01   1.7752558e-01   5.1870602e-01   4.2027712e-01   2.0692100e-01   3.9754664e-01   5.8788089e-01   6.3931341e-01  -1.8634663e-01   4.3571430e-02  -3.4743281e-01   6.4100609e-01  -2.5050454e-01  -7.6768177e-01  -3.5733768e-01  -8.0292078e-01   7.0933569e-01   7.8878839e-01   2.6903790e-03  -1.4270713e-01  -4.6971435e-01  -3.5592865e-01  -6.6239290e-01   2.7714961e-01   7.2031524e-01  -3.4127929e-01  -5.6051728e-01   1.6223830e-01  -1.9478304e-02   5.2450386e-02   2.7880308e-01   8.1495730e-01  -2.9561983e-01  -5.9056357e-01  -2.4821143e-01  -6.2132895e-01   2.6029705e-01  -4.6655439e-01  -9.3250266e-01   3.5690524e-01  -3.9300469e-01  -6.7529760e-01   1.7470875e-01  -8.0259878e-03   1.7579146e-02  -8.1281271e-01   1.8102464e-01  -7.2583155e-01  -4.5939063e-01  -6.9606205e-01   7.6751685e-01  -9.0681671e-01  -6.2813671e-02  -7.4480241e-01   3.1985461e-01   3.9181856e-04  -9.4496796e-01  -5.8564671e-01   5.4842606e-01   9.2374266e-01  -1.8562578e-01   7.1775169e-01  -3.7217438e-01   3.6432040e-01   1.9588011e-01  -9.7327232e-01   5.8484278e-01  -9.1197012e-02   1.0928271e-01   2.9188816e-01  -7.6461767e-01   4.2056631e-01  -1.6360977e-01   7.0786077e-01  -9.1002005e-01   7.5247269e-01  -9.3196635e-01   3.8384392e-01  -5.0101092e-02  -3.3648484e-01  -9.1224086e-01   5.9008691e-02  -1.4887734e-01  -2.2636496e-01  -5.7298823e-01   8.2633209e-01   6.9930548e-01  -8.5946085e-01   6.3954183e-01  -7.4547764e-01  -6.6806729e-01   4.8438512e-01   3.5650332e-01   2.5910938e-02   3.5527306e-01  -6.2905538e-01   9.6315531e-02  -8.1875151e-01  -5.8141333e-01  -5.2388265e-01  -5.3962819e-01   8.3343106e-02  -2.0620032e-01   6.3540699e-01  -3.2146178e-01   4.1566437e-01  -2.4532150e-01   6.2879929e-01   1.3124582e-01   3.6676088e-01   5.7323843e-02   3.7150309e-01   8.7303247e-02  -3.2963030e-01   3.4362058e-01   6.4767527e-01  -4.3655060e-01  -5.2013823e-01  -8.3921830e-01   9.0088037e-01   2.2857624e-01  -8.0322209e-01   5.7859815e-01  -3.3744055e-01   3.9814531e-01   7.3981969e-01  -6.5250574e-01  -9.3482857e-01  -1.1611963e-01  -2.7474431e-01   1.7957916e-02  -4.1454766e-01  -1.9762454e-01   1.7683384e-01   4.8211465e-01   7.0256802e-01   1.0995313e-01  -6.7345954e-01  -6.1444520e-02   6.0029435e-01   9.1542856e-01  -8.1790631e-01   1.2148948e-01  -4.9664954e-01   5.4104458e-03   8.3332308e-01   6.5152306e-01   8.3350453e-01   2.4071615e-03  -1.3924894e-01   9.2388851e-01  -9.6801039e-01   5.8070135e-01  -9.9547856e-01  -4.7188998e-01  -6.0756488e-01  -3.5479574e-02   1.9839265e-01   8.9222734e-02  -8.7093171e-02  -2.8209268e-01   7.4598635e-02  -8.9997309e-01   6.8789720e-02  -3.3041384e-01  -3.2940265e-01  -6.2434153e-02  -8.3103885e-01  -5.9624887e-01   4.1852118e-01   6.4036584e-01   1.6650840e-01  -8.2628401e-01  -5.9302883e-01  -3.1804264e-01   6.2986247e-01  -7.0658659e-01  -3.0722147e-01   9.6165032e-01  -6.4569086e-01  -4.3285704e-01   7.4022485e-01   1.3070098e-01  -6.9386790e-02  -8.5628805e-01  -4.6349537e-01   9.2810697e-01   5.8427897e-02   8.4519731e-01   6.1247565e-02  -4.2735684e-01   6.9893072e-01   2.1754972e-01   5.4485739e-01  -3.1935221e-01  -9.0264120e-01   2.6131088e-01  -2.0946793e-01   1.8180408e-01  -7.0087490e-01   9.6806065e-01  -9.3501347e-02   6.1657684e-01  -2.3905145e-01   8.1975937e-01   7.3656253e-01   5.3488383e-01  -9.0585738e-01   7.8865034e-02   2.9590476e-01   2.5222788e-01  -9.2798976e-03   3.2935992e-01   7.4150628e-01   3.3252911e-01   6.9047631e-01   4.4396437e-01   2.2871959e-01   6.2576313e-01   9.9937160e-01  -2.5504326e-01  -2.7696972e-02   5.0902106e-01  -3.6753719e-01  -4.6511957e-01  -3.1352979e-01   2.3611950e-01   7.7802439e-01  -7.0442550e-01   8.1660747e-02   5.5324781e-01  -7.2212555e-01  -2.3879042e-01  -1.9467334e-01  -4.4519215e-01  -4.2043719e-01   5.6974004e-01  -9.6527069e-01  -3.3207661e-01   9.2290399e-01   5.4599971e-01   5.2599575e-01  -8.2175907e-01  -4.4709658e-01  -2.1641553e-01   6.8612279e-01  -8.7121082e-02  -2.8428345e-02   1.3876792e-01   9.6404561e-01  -1.0754887e-01   7.7899817e-01   7.7766365e-01  -2.9875094e-02   6.5535243e-02   2.3455044e-01  -4.0802586e-01  -7.4345576e-01   6.0801070e-01  -3.8608086e-01   3.4296507e-01  -7.6542871e-01  -1.3433927e-01  -5.8869302e-01  -2.8968543e-01   7.8883443e-01  -2.2747524e-01   8.8287887e-01   7.8645237e-01   5.8953190e-01   4.3958765e-01   4.4926014e-01  -9.1298176e-01  -2.8311847e-01  -2.8949041e-01  -8.5704128e-01   9.5363038e-01   2.5974177e-01   1.7516485e-01   1.0222679e-01   3.5505122e-01  -9.6995847e-02   2.8528395e-01   6.5358245e-01  -1.1657808e-01  -2.4334370e-01  -9.6388475e-01   4.6079273e-01   7.9239051e-01  -9.2293237e-02  -1.7452133e-01   6.6606020e-01   8.0681915e-01  -7.9965177e-02  -1.5227867e-01  -5.4681181e-01   4.1878918e-01  -2.9505428e-01  -7.1200490e-01   4.9242023e-01   5.0755273e-01   2.1039233e-02   7.8231480e-01  -3.1024586e-01   4.3964887e-01   9.5662191e-01   5.0908932e-01  -8.7558227e-01  -8.5358343e-01   3.3787457e-01  -6.5141856e-01  -9.5851415e-01   9.3151169e-01  -1.2579787e-02   4.6290447e-01   1.2495609e-01   5.4135436e-02  -3.9680548e-02  -5.3984229e-01  -1.8139582e-01   9.2939263e-01  -3.6617683e-01  -2.3368260e-01   9.3615759e-01  -5.8576581e-01  -4.8178414e-01   5.2798674e-01  -2.7703219e-01   7.4081569e-01  -4.4257322e-02   1.8918690e-01   3.9872544e-01   2.2415276e-01   8.1911278e-01   4.8274501e-01   2.4165529e-01   2.9826292e-01  -5.7536011e-01  -8.5464956e-01   5.5982864e-01   8.2310147e-02  -7.1603224e-01  -9.2636605e-01   1.6055479e-01   2.9032094e-01  -1.8859303e-01  -9.4751079e-02  -4.9740517e-02   2.5182720e-01   2.2099902e-01   1.1924304e-02  -3.2212984e-01   6.6506990e-01  -9.9024084e-01   8.2170511e-01  -5.7948187e-01   1.2367149e-02  -3.4118849e-01   1.4429043e-01   1.1623939e-01  -6.2713571e-01   4.3878105e-01   2.9362874e-01   3.8716335e-01   6.9175683e-01  -9.8178602e-02  -7.8047278e-01   4.7645249e-01   5.1117724e-01   4.9692607e-01   4.0580466e-01   2.4073610e-01   9.1583253e-02  -4.2978726e-01   9.0069803e-01  -5.7196376e-01   3.6818938e-01  -6.5930886e-01   9.0718883e-01   8.6032502e-01  -8.4161601e-01   1.6865123e-01   8.0773564e-01  -1.7311778e-01  -5.8840346e-01   5.3138994e-01   3.8760841e-01  -2.0891515e-01   7.0966813e-01  -7.0086851e-01  -2.8586322e-01   2.9414240e-01  -6.9959295e-01  -1.9483759e-01  -4.9067108e-02  -1.0140691e-01  -5.4903998e-01  -4.8317737e-01  -2.4442382e-01  -6.9109284e-01  -7.1325783e-01  -9.7013950e-01  -8.3145457e-02  -5.4522650e-01   4.8586830e-01  -1.6880671e-01  -8.5748129e-01  -9.9152691e-01  -4.1353548e-01   6.5910220e-01   6.2144445e-01  -1.3014068e-01  -1.6969247e-01   9.9438357e-01  -7.5984071e-01   2.3037635e-01   9.1390262e-02   4.5926432e-01  -4.2712874e-01  -5.1728663e-01  -9.8432234e-01  -8.9885719e-01   2.2508034e-01  -9.8181378e-02   8.8222622e-01   9.8678868e-01   2.7848784e-02  -2.9138010e-01  -3.8261526e-01  -8.8613412e-01  -4.7750769e-01  -2.2471637e-01   3.7695730e-01  -8.4354873e-01   7.5831859e-01   1.4459209e-01   1.3008188e-01   8.0176692e-01  -2.6999855e-01   6.9270709e-01   4.7360464e-01  -5.9885490e-01   4.7005407e-02  -6.6235259e-03   8.9398071e-01  -5.9249523e-01   5.2134546e-01   9.3711607e-01  -5.3058932e-01  -9.3387005e-01  -6.4192375e-01   2.9890457e-01   4.2753758e-01   7.5754730e-01   5.8429729e-01   2.6683675e-02   3.9598749e-01   9.8196369e-01   4.9529359e-01   8.9755607e-02   5.7554462e-01   7.5768987e-01   5.1375252e-01  -5.0521205e-01   7.6730079e-01   7.6408435e-01   3.2009092e-01   1.6329405e-01   2.3721791e-01   4.2222257e-01  -2.2490593e-01  -9.0743296e-01  -2.1227660e-01  -8.3042517e-01   1.5324173e-02   6.3153417e-01  -9.0244423e-01   7.6128185e-01   6.0408974e-01   1.3686105e-01   1.9340143e-01   1.6882796e-01  -6.2820313e-01   8.4735165e-02   6.9008339e-01   1.8464110e-01   1.6622021e-01  -4.6500062e-01  -4.5619313e-01  -1.3710451e-01   7.2187694e-01   2.3949000e-01   5.5369233e-01   8.2277067e-01  -9.3214092e-01   2.3691473e-01   7.4291291e-01  -4.0645882e-01  -4.4721656e-01  -2.3501568e-01  -1.2677346e-01  -7.0388298e-01  -3.0964324e-01  -9.3044628e-02  -3.8909824e-02  -8.1032713e-01  -1.1138110e-01  -4.1584699e-01  -8.6522677e-01   5.6007418e-01   3.9237043e-01  -4.5169910e-01  -3.6471896e-01   8.8585357e-01  -7.4109287e-01  -5.3842143e-01   3.8516786e-02  -9.1231051e-01  -8.8364777e-01  -9.2352892e-01  -5.0231871e-01   7.0069292e-01  -3.4013538e-01  -6.2528059e-01  -9.6817164e-01  -1.8137266e-01   8.9224314e-01  -3.5561947e-01   3.5759329e-01  -1.9140218e-01   5.7486818e-01   4.1143359e-01   2.7125107e-01  -5.3011226e-01  -5.1903789e-01  -8.0281636e-01  -4.1320565e-01   6.6429986e-02  -6.0913778e-01  -7.1438078e-01  -3.1606178e-01  -2.9526471e-01   6.3564787e-01  -4.6023109e-01  -7.6191810e-01   2.6902576e-01   2.4619154e-01   8.7907475e-01   8.4396350e-01   9.6554431e-02   9.9569710e-01   3.3607143e-01   7.8395141e-02   3.2572581e-02  -5.2975883e-01   1.6247348e-01  -2.6799914e-01   5.6159869e-02   5.2544752e-01   1.4312166e-01   4.8178047e-01   1.9479753e-01  -5.9770984e-01  -2.9214152e-01   4.4447510e-01   9.6176585e-01  -5.7556517e-01   1.0882869e-01  -9.8908599e-01   2.8409308e-01   2.6921775e-01  -6.7305203e-01   7.2857189e-02   3.7645214e-01  -7.9318869e-02   9.3671054e-01  -5.8959558e-01   2.2588206e-01  -4.0649318e-01   7.3231800e-02  -9.5265266e-01   9.9848184e-01  -8.4103478e-02  -4.1148776e-01   6.9900652e-01   4.0276017e-01  -2.9117661e-01   2.6690051e-01  -3.9068053e-01  -4.9401156e-01   1.2102268e-01  -3.3457150e-02  -9.5629349e-01  -5.8875589e-01  -6.4467487e-01   8.8397954e-01   5.5804308e-01   8.3157109e-01   2.3572363e-02  -5.0978301e-01   5.2379113e-01   5.3174180e-01   5.5349155e-01   4.9267964e-02  -5.1179403e-01  -6.9101863e-01   6.7488113e-01  -5.8726254e-01  -3.9215287e-01  -8.8473706e-01  -6.4672902e-01  -2.2182068e-01   9.6178220e-01   1.8684628e-01   8.7172525e-01   7.8791542e-01  -8.0935162e-01   2.3073646e-01   4.4595777e-01  -7.8164929e-01  -3.8985457e-01  -3.9485531e-01   4.5044783e-01  -5.6728862e-01  -4.0973250e-01   4.1011226e-02   4.9651440e-01  -9.5458784e-01  -6.0708140e-01   4.8011524e-01   4.2628786e-01  -8.9095849e-01  -7.1771922e-01   4.2718309e-01  -1.8276184e-01   2.2688819e-01   2.6837381e-01   3.5306954e-02   5.8031783e-01   4.0687989e-01  -2.5641910e-01   3.8554756e-01  -8.8350993e-01  -2.7351670e-01  -4.8930599e-01  -1.0927529e-01  -8.0564652e-01  -6.0954265e-01  -1.1709945e-01  -5.6190217e-01   9.6926973e-01   8.8154511e-01   9.8117751e-01   5.4734351e-02  -9.8990727e-01  -5.3187352e-01   9.0431744e-01  -2.8836693e-01  -1.5491693e-01   6.7102787e-01   8.0005326e-01   4.4640812e-01  -9.9188645e-01   8.4883266e-01  -7.8320648e-01  -8.5886062e-01   3.6254821e-01  -1.6592036e-01  -9.1500497e-01   3.5271450e-01   1.3682723e-01  -4.1519912e-01  -8.2233040e-01   3.2613221e-01   3.7353988e-01  -7.8242602e-01  -8.6928277e-01  -4.7000490e-01   3.5961463e-01  -8.7613266e-01   8.3029494e-01  -6.5536706e-01  -2.1413339e-01   9.9412249e-01  -1.8968149e-02  -1.6181449e-01   4.2268036e-01   5.8587091e-01  -1.4775848e-02   4.2436252e-01  -4.4190932e-01   6.0818293e-01  -4.2677737e-01  -3.8134950e-01  -6.0365650e-01  -8.8271562e-01  -2.1389369e-01   7.5197189e-01   7.9462556e-01  -8.1891503e-01  -8.7734038e-01   1.3589476e-02  -1.4251338e-01   2.8493103e-02  -1.5983720e-01   2.1746925e-01  -8.1371037e-01   8.8106054e-02   8.8829298e-01   2.1623933e-01  -5.2133005e-01   3.1814081e-01   1.2659947e-01  -7.1104548e-01  -9.4262291e-02   3.6683299e-01  -6.8008828e-01  -9.6279670e-01   3.0664647e-01  -8.7996922e-01  -3.9781978e-01   1.6461460e-01   5.4671768e-01  -9.1331729e-01  -9.2484863e-01   7.8501147e-01   2.4367266e-01   4.1339647e-01  -8.4090848e-01   5.1918444e-01   6.5159496e-01  -2.9431927e-01   6.9479123e-01  -7.9688972e-01   4.6078053e-01   6.9315650e-01   7.5838561e-01   3.0777460e-01  -8.0384689e-01   1.7718676e-01   2.1644812e-01   5.3413006e-02   3.9466192e-01   6.9463158e-01   2.8334749e-01   3.9723891e-01  -2.7602303e-02   3.0239238e-01   6.7162628e-01  -4.9388456e-01  -7.7006857e-01  -9.4629251e-01  -6.0182697e-01   7.0090893e-01  -3.0304925e-01   9.9563927e-01  -8.3175364e-01   3.1394665e-01  -1.5544083e-01   7.2983058e-02  -4.0030305e-01  -8.5974222e-01   1.0044854e-03  -9.9517184e-01   2.5545275e-01   2.2563688e-02   4.5415863e-01  -1.3457229e-01   5.9932931e-02  -3.0511950e-01   7.9276296e-01   4.3337475e-02  -7.9370969e-01   8.3958627e-01   1.0666053e-01   4.5110405e-01   2.3256886e-01  -1.7311571e-01   4.1162740e-01  -3.0343782e-01   8.0268406e-01   5.6901176e-01  -7.9381330e-01   9.9656068e-01   9.5063516e-01   5.5883833e-01  -6.6569261e-01  -6.1936356e-01  -7.2607492e-01   2.0908848e-01   8.7050184e-01  -7.3476028e-01  -5.1425572e-01   7.7415661e-01   3.2415195e-01   6.6082387e-01  -9.8750027e-02   7.0283930e-01  -5.7546801e-01  -2.9787264e-02  -1.0091241e-01  -2.5124179e-01  -7.0824952e-01  -5.3287224e-01  -7.0250040e-01  -2.3762263e-01  -5.3174423e-01  -2.3547901e-01   8.2300837e-01   3.2765848e-01  -9.9724097e-01  -5.3786454e-01  -1.2718825e-01   1.2021823e-01
   9.4310977e-01  -9.7744688e-01   1.9582285e-01   4.1745701e-01  -7.9286221e-01   4.5891600e-01  -7.2896391e-01  -6.9615653e-01   2.5259617e-01   8.7312971e-01  -1.6908018e-01  -2.8500580e-01   7.8976985e-01   1.3125538e-01  -6.2759091e-01  -3.2530974e-02  -2.8746520e-01  -8.4927806e-01  -1.9470630e-01  -4.5483831e-01   3.0582667e-01  -2.4747935e-01  -4.6490518e-01  -5.5307879e-01  -4.3639850e-01  -2.8819750e-01   3.3348981e-02   2.9114161e-01  -1.3796793e-01   4.6717592e-01  -8.5961510e-01  -4.1700603e-01  -5.7377147e-01   2.8816083e-01  -1.1792170e-01  -6.3824673e-01  -1.3747618e-02   2.0955011e-01   2.0816307e-01  -6.1001068e-01  -6.3738908e-01   8.1701069e-01   2.2582602e-02   4.8607422e-01   5.4877872e-01  -6.6385481e-01  -1.0316304e-01   5.8742913e-01  -9.6801430e-01   4.5135071e-01  -6.1897414e-02  -2.4342397e-02   3.7113763e-01   6.7928983e-01   2.4997256e-01   6.3676340e-01  -7.7797862e-01   6.2942282e-01   8.4583537e-01   8.0963747e-01   7.9803403e-01   8.3037869e-01   4.4528379e-01  -6.5845067e-01   3.6009819e-01   2.4559564e-01  -2.0585014e-01  -1.3046978e-01  -4.0279475e-01   2.1866784e-01  -5.4939832e-02   6.9091086e-01  -5.5271266e-01  -1.5185831e-01   3.0277069e-01   6.6587374e-01  -4.5659742e-01   7.8020119e-01   1.1315850e-01   1.6549779e-01  -8.8841042e-01   7.8658264e-01  -6.6207216e-01  -4.6535465e-01   1.6705204e-01  -8.3787562e-02   4.2996834e-01   4.8599309e-01   9.9733145e-03   7.9920860e-01   8.8537742e-01   9.3546063e-01   8.0629652e-01  -4.2012767e-01  -2.5899505e-01  -4.7946210e-01  -5.6737132e-01   7.9655213e-01  -6.9138820e-01   1.3000528e-01  -7.1264869e-01   3.7668492e-01   6.6267193e-01  -6.5961617e-01   4.6696031e-01   1.2162172e-01   5.6362492e-01  -3.7946161e-01  -3.6204089e-01  -3.0396440e-01   1.3033692e-01  -6.5438017e-01  -1.7788681e-01  -1.9756015e-01  -6.5274812e-01   9.6242705e-01   5.5947407e-01  -5.1259580e-01   2.4523405e-02   1.8223570e-01   2.2276072e-01   8.9083561e-02  -5.4120727e-01  -3.0864939e-03  -2.0908754e-02   6.4091666e-01  -7.1959384e-01  -9.0963518e-01  -1.1309187e-01  -5.6839729e-01   6.6952530e-01   6.1207693e-02  -3.8789216e-01  -9.3910096e-01  -2.2368642e-02  -1.1351179e-01  -9.4881184e-01   2.9486325e-01   9.3883352e-01  -7.3773878e-01   5.1572864e-01   7.2528187e-02  -3.2783689e-01   8.3516896e-03   7.0062261e-01   2.1452478e-01  -3.5708186e-01  -6.1539552e-01  -8.1594712e-01   5.7553876e-01   8.2381688e-01  -9.0537803e-01  -1.1693369e-01  -9.6026264e-01  -1.2073110e-01   4.1772666e-01   6.8893604e-01   6.4585177e-01  -4.0302772e-01  -9.5904871e-01  -1.3729960e-01   7.9940415e-01  -5.6279675e-01   7.3785598e-01   8.6096842e-01  -9.0462894e-01   2.3822233e-02   4.3775704e-01   5.9393888e-01  -4.5291546e-01  -5.1226108e-01  -5.0186687e-01   2.1385452e-01   2.7517677e-01  -5.4479229e-01  -1.0083442e-01  -5.1457660e-01   4.6838164e-01   5.8717845e-01  -7.2489768e-01   2.7694019e-01   2.4251154e-01   4.3907633e-01  -9.2382731e-01   3.2328422e-01   8.4326344e-01   5.8475719e-01   4.4736270e-01   7.3428412e-01   8.4897932e-02   3.1596201e-01   2.9023344e-01   1.2932597e-01   4.2442039e-01   2.5869108e-01  -3.1356782e-01  -7.5173428e-01  -5.1240615e-01   2.3938138e-01   8.9564245e-01  -9.7180568e-01  -9.8398007e-01   2.1187230e-01   8.2214787e-01  -5.8319844e-01   5.6810694e-01   5.0494257e-01  -9.4606942e-01   5.5870442e-01  -5.6030756e-01  -4.0220150e-01  -2.9451274e-01   5.6954920e-01   9.2577821e-01   3.2809344e-01   1.4413536e-01  -6.1939438e-01  -4.4453236e-01  -9.9789244e-01   9.7947456e-01  -9.9078494e-01   8.0658155e-01   8.0337930e-01   3.1461623e-01   6.2722077e-01  -2.3965222e-01  -7.7950333e-01  -9.9580614e-01   7.0908531e-01   8.0499096e-01  -4.3505869e-01  -4.5405523e-01  -6.3589256e-01  -3.4212972e-01   3.8055767e-01  -4.3783742e-01  -3.9861540e-01   9.4218622e-01   6.0997114e-01  -5.5049732e-01   7.8258268e-02   6.7196504e-02   4.1757238e-01  -1.5435442e-01  -3.1312005e-01   4.5515348e-01   9.7142870e-01   2.6172133e-01   2.2894107e-01  -2.6714235e-01  -3.1251066e-01  -7.2451719e-01  -2.5268675e-01  -6.4037822e-01   1.4254649e-01   1.8008277e-01   9.5488540e-01  -8.7129314e-01   2.1075429e-01  -7.0176480e-01   1.9010709e-01  -4.9759811e-02   7.9557057e-01  -6.4450357e-01   2.8931956e-01  -6.6029081e-01   2.4471745e-01  -1.0404775e-02  -2.7617088e-02   9.0873753e-01  -6.7659074e-02   9.0239191e-01  -9.5690666e-02   7.6421707e-01   5.6949822e-01   7.3977221e-01   9.1519896e-01  -4.2081325e-01   8.1768596e-01   3.0840992e-01   8.2518241e-01  -1.3495591e-01   7.1895144e-01   4.3406826e-01  -9.4974238e-01   3.3397555e-01  -6.2175713e-01   5.4517811e-01   2.3863565e-01  -9.2040407e-01   6.1723002e-01  -1.8125360e-01  -8.4684254e-01  -4.8014857e-01   2.2595149e-01  -3.8222158e-01   9.6457066e-01  -9.0912354e-01   1.6959685e-01  -9.2854929e-01  -8.4068761e-01  -6.1195649e-01   6.5876176e-01   4.1297278e-01   5.5611244e-01   8.6526092e-01   7.5456564e-01   5.2257968e-01  -3.6071861e-01  -1.7914357e-02   6.0746456e-01   5.6745433e-01  -3.6247389e-01   1.8070677e-01  -4.9326293e-01  -1.9424598e-01  -1.1207553e-01  -3.6681558e-02  -7.9851014e-01  -9.2420222e-01  -3.5417110e-01  -3.7720547e-01   6.5552995e-01  -6.6742626e-01   8.4290049e-02  -1.4283129e-01   5.9266398e-01  -5.9109627e-01   4.7260842e-01  -8.6611401e-01   8.4919752e-01   5.8837255e-01   3.0306435e-02   5.2626863e-01  -8.4694020e-01   5.6157844e-01  -4.2341607e-01   4.1451184e-01   5.2610167e-01  -5.0555050e-01   2.7923375e-01  -9.8160831e-01   7.0202992e-02  -2.7505439e-01  -7.4580399e-01   3.1122646e-01   5.3061122e-01  -5.5042087e-01  -7.7406508e-01   3.6335825e-01   6.2995447e-01  -6.4568547e-01   3.5250837e-01   8.2189358e-01   3.3294485e-01  -8.6216812e-01  -3.5608039e-01   4.7162326e-01  -9.0911990e-01  -7.9295796e-02  -5.5756930e-01  -1.1698600e-01  -5.0623858e-01  -7.8445999e-01  -7.7533785e-01   3.5574349e-01   3.5379926e-02   8.7463672e-01  -2.4994660e-01   1.9210978e-02  -6.1843339e-01  -6.6179718e-01   4.9244333e-03   1.7613093e-01   5.5369144e-01  -2.1556097e-01  -1.4718202e-01  -7.1449058e-01  -5.8045917e-01  -1.6081390e-01   9.0888240e-01   6.9346842e-01   1.8939601e-01  -5.5913989e-01  -7.6693332e-01  -1.0286486e-02  -9.3939096e-01   9.3783361e-02  -7.2347063e-01   7.6096856e-01  -9.2591859e-01   6.8114196e-01  -4.4990174e-01  -2.2098839e-01   4.0107204e-01  -4.3663107e-01  -9.6700401e-01   2.0269178e-01   6.5740978e-01   5.3726387e-01   9.7183147e-02   3.1335443e-01   9.9734655e-02   2.7634120e-01  -6.9627203e-01  -6.1071154e-01   4.7956709e-01   7.4131078e-01  -7.6338496e-01   7.9716438e-01   1.1605842e-01   6.8951373e-01   4.8000922e-01   1.6577814e-01   7.6877503e-01   4.9411705e-01  -8.5798366e-01  -7.3941994e-01   3.2241276e-01   1.0947262e-02   2.1850458e-02   2.6428189e-01  -3.4839997e-01  -2.0422371e-01   5.1814292e-01  -1.7769079e-01   6.3952982e-01   5.3384419e-01  -8.4551824e-01   6.6449265e-01   3.4754984e-01   7.0802538e-01  -6.6759318e-01   6.9455288e-02   3.5381065e-01  -2.2663320e-01   1.9396547e-01  -7.1938518e-01   8.4386446e-01  -4.0287630e-01   6.5361885e-01   3.1657861e-01  -4.4502260e-01  -4.6651306e-01  -2.6855993e-01  -9.0940609e-01   4.1634132e-02   4.4125435e-01  -4.9276676e-01  -5.4366052e-04   4.4212975e-02   5.9439843e-01   2.6006502e-01  -9.1176869e-01   7.0858141e-01   3.5478438e-01  -6.6910603e-01  -6.8374787e-01  -2.7014538e-01   4.9776363e-01  -5.0313561e-01   7.9564730e-01   8.9055700e-01  -3.2839925e-01  -6.9970474e-01   4.9892938e-01   4.9029473e-02   4.0314723e-01  -5.1489896e-01  -6.9304587e-01  -9.1267675e-01   3.5741466e-01  -4.5774260e-03   5.6443785e-02   2.0413071e-01  -2.5351002e-01  -2.4926635e-01   8.1061516e-01  -4.1503944e-01   7.8530673e-01  -4.1296684e-01   4.4370590e-01  -5.4616324e-01  -7.9683592e-01  -9.7247774e-01   8.7485504e-01   8.3765627e-01  -9.0530417e-01  -3.7646116e-01  -7.9004034e-01   8.9868759e-01  -3.1645290e-01  -5.3819091e-01  -5.9967492e-01  -7.4194542e-01   2.4957278e-01   4.8046611e-02  -5.0476334e-01  -1.5071235e-01  -6.9653099e-01  -9.1610791e-01   3.0694867e-01  -8.0992134e-01   3.8380375e-01  -5.8536474e-01  -7.3426422e-01  -1.7641711e-01  -8.4248811e-01  -2.0450957e-01   4.6587443e-01  -1.8885800e-01   5.4020745e-01   9.8440790e-01  -4.5971397e-01  -4.6385775e-01  -3.3740534e-01  -1.9450545e-01   1.0422791e-01  -2.1091459e-01   8.7413240e-01   9.6687695e-01   9.9400073e-01   8.5561984e-01   4.4491179e-01  -5.9989068e-01   7.8549364e-01   1.7986958e-01   7.7948487e-01   1.3888926e-01   9.6181739e-01   1.3194642e-01  -3.3386747e-02  -5.8181652e-01  -9.1655736e-01  -2.4581961e-01  -2.3425921e-01  -6.8332185e-01   3.5536140e-01   7.0835748e-01   8.5359763e-01   9.7722335e-01  -9.5955174e-01   9.3357184e-01  -7.4792265e-01   8.0750248e-01   4.8323769e-02   2.9915336e-01  -9.7082296e-01  -6.9465241e-01  -5.2322895e-01   8.9228994e-01   8.8425295e-01  -4.4631110e-01  -3.0031309e-01  -3.7970114e-01   3.8349234e-01   9.0757952e-01  -7.0887890e-01  -1.6034954e-01  -4.0702288e-01   4.5862454e-01   4.0630449e-02  -6.8724104e-01   9.6970013e-01  -8.3923243e-01  -6.1211190e-01  -7.2226447e-02  -5.5766071e-01   2.5656960e-01  -7.9205186e-01  -7.6488500e-01   4.4934344e-01   2.3639258e-01  -7.7951900e-01   5.8317202e-01   5.3296257e-01  -8.0973571e-01   1.4089330e-01  -1.9539728e-01  -5.3039402e-01  -6.9064233e-01  -9.6572875e-01   5.9126500e-01  -7.0267186e-01  -3.7179817e-03  -7.8898279e-01  -9.9297932e-01   3.0562168e-01  -5.3795066e-01  -8.2534162e-02   5.9242640e-01  -3.6493227e-01   9.2365758e-02  -6.8139881e-01   9.6885589e-01   9.7155432e-02   5.1371316e-01   4.7098632e-01   5.3535342e-01  -4.6271962e-01  -5.4776904e-01  -2.2045084e-01  -9.5563856e-01   4.4608525e-01  -6.3319084e-01   5.7102340e-01  -9.6271223e-01  -4.9455104e-01   4.2943078e-01   2.3572950e-01  -7.4608783e-01   6.7160907e-01   1.2550163e-01   3.3633601e-01   5.4320450e-01   2.7684525e-01   9.0431922e-01   3.4726660e-01   8.5065464e-01   5.8917678e-01   6.5924439e-02   8.7821379e-01  -6.2239834e-01   1.4630316e-01   8.9273227e-01   6.4442044e-01   7.1703974e-01   2.1961255e-01  -1.3544993e-01  -1.9843200e-02   4.7339617e-01  -7.2678290e-01  -7.8047112e-01   8.0523237e-01   3.1902827e-01  -6.8018681e-01  -1.5684267e-01   4.4311600e-01  -8.8869325e-01   9.7228133e-01  -9.5987488e-01  -3.1454517e-03   1.3981570e-01  -6.6305005e-01  -5.9279789e-01   9.0804386e-01  -8.8239082e-02   4.7322979e-01  -6.1506872e-01   9.0300016e-01   9.5722386e-01   5.4133888e-01   2.9914583e-01   1.7660312e-01  -3.9206009e-01  -9.3745767e-03   4.7224754e-01  -5.8323268e-01   9.4001046e-02  -4.9945597e-01  -2.1241963e-01  -1.0988477e-01   4.5774941e-01   2.8015853e-01  -6.7845695e-01   3.8561691e-01   7.3608834e-02   5.1799752e-01   7.1088820e-01   2.9333420e-01   6.5768820e-01   5.9887848e-01   6.3252277e-01  -2.7006284e-01   9.9341189e-01  -3.5249274e-01   8.0672442e-01  -5.5925822e-01   1.9723107e-01   4.5583072e-01   7.4947688e-01   5.3761535e-01   5.2658646e-01   8.7432864e-01  -4.2707710e-02   3.0702402e-01  -2.5824997e-01  -1.9008178e-01  -4.4794752e-01  -6.8387351e-01   7.4553871e-01   7.8637861e-01  -6.1452456e-02  -9.2710614e-01  -2.2439566e-01   2.4037182e-01  -5.7218980e-01  -8.6895158e-01   3.9073746e-01   9.8394433e-01  -1.5944416e-01   5.8912174e-01  -4.9221817e-01  -4.5983576e-01   4.5421794e-01  -9.5706607e-01  -4.3441837e-01   4.9849098e-01   6.9716072e-01   4.0994200e-01   5.4366266e-01  -2.6007480e-01  -9.8148759e-01   2.6166426e-01   2.2795039e-01  -5.0864938e-01  -1.0591907e-01   7.4286636e-01  -2.0030281e-01   6.7689659e-01   7.8546336e-01   6.2122154e-01  -7.3201087e-01   5.5993409e-01  -6.6350992e-01  -9.2229395e-01   9.2244421e-01   2.4085890e-01   7.1552896e-01  -4.2729298e-02   3.1339761e-02   6.3628559e-01   5.2736620e-01  -3.5597380e-01   9.8756876e-01  -5.1459114e-01   9.3091632e-02   3.3998230e-01  -6.3280264e-02  -8.8239243e-01   8.3987592e-02   2.0320762e-01  -9.4052287e-01   3.2758099e-01  -7.6936690e-01  -6.8884934e-01  -6.4925587e-01  -6.0532539e-01   9.0278870e-01  -8.6716647e-01   3.9927205e-01   3.6541670e-01   7.8907572e-01  -7.1180183e-02   1.2890233e-01   2.6607423e-02  -4.7150203e-01  -5.6119673e-01   3.1045140e-01  -6.9660960e-01   7.9425128e-01  -2.1525034e-01  -2.0929958e-01   5.2196089e-02   7.2682898e-01   3.5950397e-01   1.4316710e-01   9.5264187e-01   6.2379194e-01  -4.2095341e-01   8.7624837e-01  -8.9403040e-01   9.1947940e-01  -9.0960456e-01   9.1608242e-01   2.2041023e-01   8.9594440e-01   1.7806593e-01   8.0254617e-01  -1.0136134e-01   6.4770044e-01   2.2955919e-01   2.6420325e-01  -9.4860841e-01  -1.5475378e-01  -6.5343222e-01  -1.0520170e-02   6.1821768e-02   9.8545295e-02   2.9060537e-01   3.6418834e-01  -6.6799078e-01  -7.4782502e-01   3.4164076e-01   3.3252176e-01   6.4806439e-01  -1.4764947e-01  -9.5323702e-01   6.6901332e-01  -3.2692448e-01   4.6082006e-03   1.6699589e-01   6.1974853e-01   2.9412042e-01   4.8002721e-02   4.6501611e-01  -8.5571589e-01  -6.4296384e-01   6.5547764e-01  -3.6083055e-01  -7.4195673e-01   2.9885364e-01  -5.8624665e-01  -3.1736803e-02   1.8911534e-01   4.1508068e-01   9.6356191e-01   1.8235177e-01  -4.8697734e-01  -5.2937894e-01   7.0200630e-01   2.7406494e-01   1.6984428e-01   4.3529858e-01   9.8243657e-01   2.1672427e-01  -1.8504690e-01  -2.9887758e-01  -6.2243510e-01   2.4071498e-02  -5.9604673e-01  -8.8291160e-01   2.6513455e-01   2.6213524e-01  -5.1996353e-01   7.4693544e-02  -8.1962893e-02  -2.3281959e-01  -6.3371980e-01   2.6511252e-01  -4.6343714e-01   3.6623830e-01  -3.1542295e-01  -9.0117248e-01  -6.7906810e-01  -3.5954099e-01   4.6498870e-01   8.7069705e-01   8.1645044e-01   8.4974544e-01  -5.0945187e-01  -4.1979813e-01   6.2748045e-01   9.9496727e-01   4.9947171e-01  -9.5133364e-01   2.2005398e-01   8.4228526e-01  -5.9197533e-01   7.8073558e-02   6.6265730e-01  -3.2435345e-01  -2.3843222e-01   3.7933021e-02   9.5235166e-01   4.0262408e-01   7.0681142e-01  -8.8483562e-01  -9.7598069e-01   1.5708324e-01  -1.8868953e-01   6.3758940e-01   3.0162876e-01  -5.4197042e-02   6.3887190e-01  -3.1211107e-01   2.8985709e-01   8.9310953e-01   9.0416855e-01  -8.4862595e-01   6.3355773e-01   3.6346476e-01   9.2131540e-01  -8.3748880e-01   9.5507535e-01  -6.2887677e-01   5.0929933e-01   5.6955847e-01  -7.3615596e-01   3.8520923e-01   6.2715378e-01   7.5238693e-01   1.5302859e-02   2.4200133e-01   7.0381360e-01   8.6183920e-01   5.3858564e-02   6.3685521e-01  -6.0574364e-01   9.0327210e-01   5.9230829e-01  -5.4291927e-01  -9.3668529e-01  -6.2058971e-01   3.6590250e-01   9.6647894e-01  -4.9641300e-01   8.7796960e-01  -5.8678474e-01  -5.6994190e-01  -2.1818196e-01  -6.6409816e-01   7.4480146e-01   5.6163632e-01  -2.1129142e-01   6.9946327e-01   6.3944974e-01   6.3273330e-01  -5.2455212e-02   3.2413385e-02  -3.5408656e-01   4.9887056e-01  -8.7332115e-01  -5.0583548e-02   3.1687371e-01  -2.7691453e-01  -8.9008445e-01   5.2925169e-01  -9.1394782e-01   6.2777727e-01  -6.1434482e-01  -5.2925018e-01  -1.8531583e-01  -2.7367151e-01  -9.0705665e-01  -4.1210695e-01   2.4641627e-01  -8.9161063e-01  -9.4296371e-01   9.6325320e-01   1.2139340e-01  -4.5906531e-01   4.2986977e-01   7.1844389e-01   3.9263158e-01   7.9206648e-01  -5.8280535e-01  -7.9924590e-01   3.8851250e-01   2.2766658e-01  -8.0951179e-01  -9.8840672e-01   7.4049240e-01  -1.0566117e-01   7.9848396e-01   1.7973129e-02  -9.9689709e-01  -2.9480457e-01   1.5558910e-01   6.3996541e-01   5.4346468e-02  -4.0458676e-01  -4.1018897e-02  -1.9125273e-02   1.3755534e-01  -7.6658259e-02   5.5692810e-01   8.0134132e-01   5.6494481e-01  -2.3733379e-02  -4.3358845e-01  -7.3486525e-01   5.6253333e-01  -6.4703198e-01  -4.3946109e-01   4.1418931e-01  -3.5198681e-01  -7.5169940e-01  -2.8893164e-01  -1.6417279e-01  -1.5831644e-01  -4.0340139e-02  -7.3099092e-02   3.6732192e-01  -6.0050940e-01  -3.6202610e-02   6.1470269e-01   6.3204644e-01  -3.5874007e-01   2.2832833e-01  -8.7957707e-01   3.6093360e-01   4.8130178e-01  -3.5622388e-01  -2.1055654e-01   4.1556978e-01  -1.7773499e-01  -4.4698788e-01  -2.1496563e-01   2.3217481e-02
   2.7958300e-01   7.9110126e-01   1.2061431e-01  -2.9680158e-01   8.3246825e-01  -1.5677276e-01   2.4535470e-02  -8.9393570e-01   1.1144534e-02  -9.0320210e-01  -8.2961822e-02  -7.5172979e-01  -2.5774166e-02   6.4145880e-01  -7.9152878e-01   2.7553976e-01   1.8899258e-01   2.6203200e-01   8.9382898e-01  -2.9270773e-02   3.9680023e-01   5.5414935e-01   8.2060592e-01   8.0405712e-01   4.1898444e-02   7.1876796e-01   4.1492984e-01  -2.6133784e-01  -3.1495056e-01   9.3920495e-01   3.7275067e-01  -7.9332078e-02  -7.2116618e-01   8.7759522e-01   6.3901307e-01   8.4773617e-01  -8.3506807e-01   3.2137224e-01   4.0981926e-01   1.7550807e-01   3.5634537e-01  -6.8150585e-01   2.9631524e-01   9.3212920e-01   4.5567881e-01  -7.0855326e-01  -1.7845856e-01  -9.1766471e-01  -4.8593942e-01  -3.7553177e-01  -5.1125095e-01   5.1965327e-01   6.9654595e-01  -4.0262848e-02  -4.9009214e-01   9.4004241e-01   1.1308170e-01  -2.3643093e-01  -4.3998570e-02   5.7512209e-01  -4.8718620e-02  -4.0360928e-01   7.3551844e-01  -1.6920015e-01  -5.1505875e-01   7.5624232e-02   1.4374129e-01   5.7085138e-01  -5.6910945e-02  -2.1019022e-02  -2.5368203e-01  -2.9301842e-02   5.5734696e-01   8.0778703e-01  -6.3824881e-01   5.9955980e-01   8.5467022e-02   1.9735841e-01   8.9472849e-01  -1.7956949e-01   1.2556796e-01   3.7248741e-02  -6.3688302e-01   2.1488941e-01   9.2832960e-01  -1.5569110e-01  -4.9883885e-01  -2.2036083e-01  -1.6408175e-01   3.1417656e-01  -4.3150769e-02  -8.4801075e-01  -4.2054903e-01   9.4762049e-01  -2.9623359e-01   9.3110306e-01   1.8961490e-02   4.3042896e-01  -6.9579835e-01  -8.6579267e-01  -4.2784491e-01   4.9267103e-01  -7.4698718e-01  -9.4377936e-01  -8.7089704e-01  -9.0944716e-01   9.4628296e-01  -6.9984034e-01   3.2825256e-01   2.1826565e-02  -7.8994008e-01  -4.2731495e-01   3.5273785e-01  -6.2247846e-01  -6.0517315e-01  -6.9709010e-01  -2.7428195e-01   2.3822241e-01   3.6975618e-01  -8.0327409e-01  -1.0842657e-01  -6.8810061e-01  -6.1351241e-01   7.8254059e-02  -3.3682031e-01   9.1879971e-03  -3.0108702e-01  -5.8805610e-01  -6.5676584e-03   7.1665211e-02  -4.7145799e-02   7.9743977e-02   5.2848254e-01   4.2051778e-01  -6.6703420e-01  -9.1900819e-01   5.9478898e-01  -3.9170538e-01  -5.6008465e-01  -3.0501685e-01   1.7215683e-01   3.3335745e-01   5.0314353e-01   9.2642473e-01  -9.4902448e-01  -1.8319860e-01   6.1289205e-01   5.7442055e-01  -3.1677256e-01   9.0604130e-01  -3.7949776e-01  -3.5639975e-01  -7.3893017e-01   5.7048192e-01  -5.3892530e-01   6.5446621e-01  -7.7040612e-01  -6.7553388e-01  -5.2934043e-02  -3.1075296e-02  -6.6501575e-01  -6.9315111e-01  -3.3223605e-01  -2.4626975e-01   1.0158160e-01   9.9245874e-02  -6.5979549e-01  -1.7131887e-01  -8.9948925e-01   8.0087980e-01   1.9706521e-01  -2.5796357e-01   8.2608385e-01  -7.1646278e-01  -6.4844477e-01  -3.2641841e-01  -9.7055609e-01   1.9218306e-01  -3.6580153e-01   5.5714126e-01  -6.3811845e-01   3.4169882e-01   2.3566164e-01  -2.8298744e-01   7.8814020e-01   7.8575976e-01  -3.3627435e-01   7.2611782e-01  -9.7655927e-01  -3.8275047e-01  -2.7602759e-01   2.3067661e-01  -7.8014412e-01   1.5458725e-01  -4.2735095e-01   7.5366323e-01   3.3257546e-01  -7.5911993e-01   7.0929075e-01  -8.7655148e-01  -1.5006736e-01   3.1898454e-01  -4.3163944e-01   4.0886005e-01  -7.9445908e-01   2.1370230e-01  -1.6960008e-01   2.5246770e-01   1.7646818e-01  -9.1723898e-01   5.1136368e-01  -7.1936435e-01  -1.8739167e-01   1.7050651e-01  -1.0322921e-01  -7.2774053e-01  -5.3908017e-02  -2.3706773e-01   4.8858233e-01   4.2792017e-01   9.4485951e-01   1.6687197e-01   8.5031624e-01  -5.2466994e-01   8.4121569e-02  -6.5820948e-01   2.6577373e-01  -1.0225393e-01  -9.7828788e-01  -8.2170808e-01  -1.0939359e-01   3.9612217e-01  -6.3933578e-02   6.4618929e-01  -4.6331649e-01   5.0391545e-01  -9.1959045e-01   3.7426176e-01  -2.1867629e-01   7.8568745e-01  -2.3859887e-01  -1.4924207e-01  -3.1959236e-01  -8.0926201e-01   8.1570984e-01  -4.8874933e-01   8.0184462e-01  -6.4813824e-01  -7.0416347e-01   3.9952819e-02   6.3572702e-01   9.7662980e-01  -8.3531008e-01  -2.7209198e-01   3.0087678e-01   6.2548454e-01  -3.6669899e-01  -9.5964832e-01   6.2432847e-02  -1.3230723e-01  -8.7241414e-01   2.7313175e-01   4.0670753e-02  -9.3019270e-01   2.6480486e-01   3.2184095e-01  -3.1252056e-02   4.3367657e-01   4.3912088e-01  -1.5010722e-02  -5.0581155e-01   1.8522448e-01   6.9472053e-01   5.5004672e-01  -5.1383474e-01  -7.0678495e-01   8.0796556e-01   1.3881768e-02   2.2890514e-01  -9.4118654e-01  -8.4852945e-01   2.0552934e-02  -3.0936456e-01   9.4850727e-02   2.6516881e-01  -8.4947122e-01  -1.9802533e-01  -7.5729741e-01   5.5179010e-01  -9.1454139e-01  -8.9562799e-01   8.7553334e-01  -7.2598365e-01   8.6460767e-02   9.8818330e-01   2.9369285e-01   7.9096474e-01   1.3109428e-01  -6.6074892e-01   5.9057033e-01   8.4464595e-01   6.3808986e-01  -7.2358519e-01   2.1716216e-01  -2.1217392e-01  -1.9014244e-01  -5.8301480e-01  -8.5130334e-01  -9.8525494e-01  -7.8671241e-01  -5.7917252e-01  -1.5884631e-01  -9.6299732e-01  -2.8335911e-01  -3.6375889e-01  -8.1221693e-01   3.5971701e-01   1.1883684e-01  -2.7397093e-01   2.8495185e-03  -4.6628842e-01  -8.8705860e-01   3.2222019e-01   1.4600772e-02   6.6123431e-01  -7.5475521e-01  -3.3327310e-01  -3.3811247e-01  -4.5285952e-01   2.0258427e-01  -4.4286477e-01  -2.7961120e-01  -6.9451071e-01  -9.8475948e-01  -6.9456038e-01  -9.5304902e-01  -6.9288219e-01  -3.1762839e-01  -1.5545572e-01  -6.4006251e-02  -6.6564156e-01  -7.3204561e-01   6.7825292e-01  -4.9033881e-01   3.3650217e-01   9.1474329e-01  -9.3920488e-01  -8.0739913e-02   8.8669475e-01   5.5517208e-01  -6.3758556e-01  -1.6623546e-01  -7.0338103e-02   1.1701009e-02   3.0183602e-01  -5.9997686e-01  -3.9861032e-01  -9.6113244e-01  -8.4133437e-01  -1.3243851e-01   3.2866812e-01  -9.3484742e-01   5.9358993e-01  -9.1556987e-01   5.7396628e-01   5.6509799e-01   4.3057982e-01   4.0662730e-01   9.3041592e-01  -6.6580364e-01   2.9519408e-01  -8.1523381e-01   2.9455958e-01  -6.0973733e-01  -3.0171914e-01  -6.8582869e-01  -3.8018192e-01  -3.9324388e-02  -8.8507401e-01   4.5183378e-01  -7.2744381e-01   6.4995948e-01   8.2217577e-01  -8.4650170e-01   6.5864762e-01   2.9189358e-01   4.4099270e-02  -5.9282562e-01  -5.7785629e-02   2.7792437e-01   7.9788764e-01  -4.4442531e-01  -7.3865357e-01   7.5851074e-01  -9.7315390e-01   4.7762817e-01   7.2127180e-01   4.2150065e-01   2.2000642e-01   2.0363872e-01   2.9517205e-01  -3.9293374e-01  -2.3769736e-02   1.2411695e-01   7.6601641e-01   7.2993119e-01   6.2011467e-01  -4.2621207e-01  -9.4808915e-01   1.6511095e-01  -3.9154805e-02  -7.2847107e-01  -1.4681991e-01   3.2047147e-01   1.5727211e-01   9.0782359e-01   6.7587083e-01  -3.3460111e-02   9.4385969e-01   1.1397660e-01  -6.7100625e-01  -1.1603083e-01  -5.2552334e-01   9.9321297e-01   5.2976307e-01   7.4281664e-01   9.8361028e-01   8.7401783e-01   8.8706012e-01  -9.9852583e-01  -2.2979926e-01  -7.7464098e-01   1.9399711e-01   4.6323699e-01   6.7772449e-01  -5.6158812e-01  -3.2133346e-01   4.3630016e-01   8.8727197e-01  -8.1347589e-01  -1.1246427e-01  -4.5497757e-01  -9.8062428e-01   5.5257307e-01   6.6540797e-01  -4.5833655e-01  -1.1908004e-03  -8.6721456e-01   5.0095541e-01   3.4166310e-01   4.1520297e-01   1.4289043e-01   2.9569669e-01   8.1453970e-01  -6.0605504e-01   2.3488618e-01   3.5246162e-01   5.3793875e-01   7.3553148e-01  -2.4418036e-01  -6.7682257e-01   1.4751621e-01   6.0575379e-01  -8.1122461e-01  -6.7509951e-01   4.5254186e-01  -2.5621721e-01  -8.9648678e-01   4.2541754e-01   9.3184791e-01  -4.1597894e-01   9.2988212e-01  -4.1609965e-01   8.8302686e-01  -4.1993418e-01   6.8092003e-01   5.2726168e-02  -8.7173851e-01   6.9833978e-01   8.5291692e-01  -7.3356219e-01  -5.0171520e-01  -6.9052751e-01  -7.6847821e-01   7.9477796e-01  -2.9376234e-02   6.1109516e-01  -6.1193577e-01   3.2627410e-01  -1.5786580e-01  -4.7329772e-01  -9.1785316e-01   5.2147819e-02   1.5439810e-01  -5.4849231e-01  -8.4175951e-01   4.3546756e-01   5.7361732e-01   8.4850036e-01  -2.6556669e-01  -5.0266502e-01  -9.8910927e-01  -9.6278976e-01   8.0459940e-01   9.2891178e-02   5.6539722e-01   9.5317632e-01   3.6846361e-01   8.6934983e-01  -1.4226425e-01   2.2540932e-01   7.3400634e-01   6.6462060e-01  -1.8754940e-01   1.8140067e-01   6.4600499e-01  -4.8537653e-01   2.1562990e-01   1.1042630e-01   3.7160893e-01   6.1242498e-01  -6.5777332e-01  -1.1044447e-01   3.8278964e-01   8.6705728e-02   3.2566803e-01   1.5135592e-01   9.2624550e-01   8.8210265e-02  -6.0166647e-01  -3.0672091e-01   8.4439219e-01   8.0066951e-01   7.1222456e-01   2.8926329e-01   4.0369371e-01   5.0368066e-01  -3.7504770e-02  -1.6509790e-01   9.0592205e-01  -8.3873234e-01   8.0721016e-01  -3.0754922e-01  -7.0405708e-01  -7.4985747e-01   5.2028955e-01   4.2738153e-02   4.7149646e-01  -8.6853784e-02   2.3330467e-01  -6.6734772e-01   3.8407619e-02   1.4855399e-01  -8.5566237e-01  -7.9046359e-01   3.6095381e-01  -8.7370119e-01  -3.6975726e-01  -2.5658193e-01  -8.7200894e-01   3.6533767e-01   2.0115208e-01  -7.8016921e-01   2.2939472e-01   6.3431289e-01   1.9163761e-01  -8.8808069e-01   5.9953084e-01  -1.3195200e-01   2.7893270e-01   8.8545985e-01   4.1995744e-01   8.7529025e-01   2.4235554e-01  -9.3852114e-01  -7.7221830e-01  -8.4283032e-01   2.1717510e-01   8.4048653e-01   8.0820806e-01   1.7972638e-01   9.2843222e-01   7.9187744e-01  -8.4285839e-01   9.5476901e-01  -9.5882684e-01   9.6874157e-01   2.1729309e-01   5.2954738e-03   5.4803511e-01  -9.0906513e-01   9.0446784e-01   6.5655797e-01  -6.2799947e-01  -8.2907430e-01   1.3720435e-01  -9.0025529e-01   5.2368535e-01  -2.1590522e-01   4.3879267e-01  -6.6365775e-01   7.7591695e-01   6.7463310e-01   4.4391611e-01  -2.1510709e-01  -8.6342406e-01   9.8025069e-02  -1.3878129e-01   7.5116952e-01  -8.8510574e-01  -4.0326086e-01   1.6684758e-01   5.4561145e-01   2.4847502e-01  -3.6491092e-01  -6.1366761e-01   9.5540521e-01  -9.5258379e-01   1.1033367e-01   3.9603820e-01  -9.4999175e-01  -4.9110148e-01   3.3256361e-01   6.0218005e-01   2.1127895e-01   2.0775956e-01  -5.8493458e-01  -2.0597662e-01   3.5303615e-01  -6.8956261e-01   4.3888884e-01  -9.4773659e-01  -2.2744022e-01  -3.6993634e-01   9.3852025e-01   2.1504766e-01   8.4165937e-01  -6.9414690e-02  -6.7531986e-01  -6.1044460e-01   7.0234723e-01   1.8326275e-02  -5.4630665e-01  -9.8230889e-01  -8.3721799e-01   2.1206827e-01  -9.8813288e-01  -4.2682400e-01  -1.8665060e-01  -8.0570374e-01   5.4334078e-01  -5.6542100e-01   1.2757077e-01  -7.7771063e-02   2.8143334e-01  -7.7967930e-02   8.6854946e-01  -8.4987006e-01   1.4442863e-02  -4.0297806e-01  -9.6669188e-01   7.0515142e-01   6.3827053e-01  -7.2035094e-01   5.5036472e-01  -5.9555003e-01  -5.6794527e-01   5.0933094e-03   1.2142203e-01   3.2851431e-01   3.7554209e-01  -5.7636183e-01  -6.4425216e-01  -8.5631440e-01  -1.2669147e-01   8.6123317e-01  -5.8503424e-01  -3.9293157e-01  -3.9684770e-02   1.2594783e-01  -3.1069919e-01  -6.0257084e-01   9.5424056e-01  -5.4419806e-01  -4.9099261e-01   8.1790994e-02   8.7377160e-01   9.0933557e-01  -6.7082774e-01   1.9776258e-01   2.4361764e-01  -6.5718594e-01  -7.0169569e-01   3.6232585e-01   3.5034003e-01  -9.3215192e-01   5.2198535e-01  -8.1842899e-01  -2.4141590e-01  -1.7395555e-01  -6.5107387e-01   4.7731380e-01   9.0366822e-01   7.4084764e-01  -5.3621208e-01  -7.0588250e-01   7.8073600e-01   4.7371032e-01  -9.8076873e-01   7.4270359e-01   4.5365692e-01   8.8296321e-01   4.4473315e-02   3.8792440e-01   7.8009028e-01   3.8580232e-01   9.3696279e-01   3.1553961e-01  -8.1806297e-01  -1.2014248e-01  -8.6342490e-01  -1.4435536e-01   8.1104473e-01  -9.2797748e-01   5.7338675e-01   9.3519758e-01   3.5158048e-01  -9.5547697e-01  -1.0083510e-01  -2.3191162e-01  -3.1287433e-01  -5.6414560e-01   6.0969721e-01   5.2345859e-01  -7.4346924e-01   4.1552370e-01  -9.2015951e-01   4.2139125e-02  -1.1956429e-01   2.0255586e-01   3.2503221e-02   4.6559512e-01  -3.9167935e-01   3.8973307e-01   4.4327427e-01  -6.6618543e-01  -8.3996117e-01  -2.4968002e-01   2.7643062e-01  -4.7688158e-01  -8.6055369e-01   8.2831658e-01   3.2932292e-01  -8.7133485e-01  -2.1838517e-01   5.8574708e-02   1.3393892e-01  -1.1732469e-01   4.1233288e-02   7.1806754e-01  -7.9523012e-01  -2.5514043e-01  -1.2135876e-03   5.7607062e-01  -6.8755653e-01  -4.4014970e-01  -7.2458859e-01  -7.2000238e-01   6.6672277e-01  -1.6491119e-02  -8.0856999e-01  -3.4110033e-01  -3.5630188e-01   9.9151100e-02  -9.5543080e-02   2.2983575e-01   7.4861877e-01   5.4988749e-01   6.6488087e-01  -5.6547483e-01   2.1043869e-01   7.4322275e-01  -8.3706192e-01  -7.9593624e-02   5.9870453e-01  -6.1123052e-01  -9.2075010e-02   1.6332107e-01   9.6010538e-01  -2.9113338e-01  -4.2926048e-01   7.6958690e-01  -9.2507025e-01   1.4365071e-01   3.9672852e-03   6.5007736e-01   6.3936879e-01  -8.5090232e-01  -7.5714731e-01   3.5413951e-01   2.0897182e-01  -7.1820309e-01  -3.4790095e-01  -6.3781394e-01  -1.5787032e-01  -2.3235959e-01   6.0836408e-01  -1.4967331e-01  -6.1196067e-03  -2.0133677e-01  -9.4105132e-02  -2.9263543e-01  -7.3326737e-01  -3.9939813e-01   4.3678688e-01  -4.9379400e-01   5.9636179e-01   5.6117927e-01  -7.2018409e-01   3.0499269e-02   5.5390901e-01   7.8413860e-01  -4.7135941e-01  -7.4585837e-02   7.4082180e-01   7.2813066e-01   3.8250968e-01  -2.4635792e-01  -8.6451106e-01   2.6825540e-01   6.5428676e-01   2.0024089e-01  -8.4352605e-01  -6.6674744e-01   1.1191493e-03   6.3263692e-01  -8.3603760e-01   5.4033070e-01  -7.7706392e-01   1.8585094e-01  -4.3623937e-01   5.3478752e-01   2.5853448e-02   5.7084429e-03   7.9495937e-02   9.6441050e-01   5.6680253e-01  -8.6976849e-01  -6.3476163e-01   2.3132687e-01   5.2881993e-01   1.2697213e-01   2.1300835e-01   8.6127199e-01   9.4051548e-01   9.6392803e-01   1.8593310e-01   1.8716095e-01   2.4754234e-01  -1.5504744e-01  -9.6784186e-01   6.9888096e-01   7.9852247e-02  -6.0261343e-01   3.1505514e-01   1.4368387e-01   9.7586180e-02  -4.2189877e-01  -3.0874216e-01   2.2941108e-01   7.7729995e-01  -8.8123027e-01   7.9311649e-01  -5.9973505e-02  -8.8915171e-01   2.8173490e-01   8.4486064e-01   9.1966855e-01  -9.2838877e-01  -3.1858977e-01   3.4946574e-01   5.1144971e-01  -6.6709338e-01   9.4476135e-01  -2.8275589e-01  -1.7453295e-01  -3.1527419e-01  -5.4364783e-01   4.6823369e-01  -1.5845210e-01   5.0251744e-01  -8.7909020e-01   7.9258468e-01   4.4615535e-01  -1.6646425e-02  -2.1295411e-01   1.3117481e-01   6.5622651e-01  -3.9402677e-01  -9.5667907e-01  -1.9336696e-01  -9.9462783e-01   1.7163803e-01  -9.7721360e-01   6.1751384e-01   8.6091603e-02  -6.9826865e-01   2.6929983e-01   3.2001334e-01  -1.9138877e-01   8.4214398e-01   3.7625198e-01   1.6222951e-01  -6.7930560e-01   7.8292363e-01   9.8015305e-01   6.7154982e-01  -2.6654154e-01   4.9231964e-01  -4.3077598e-01  -5.6298994e-01   6.3589403e-01  -5.6915549e-02   2.1771517e-01  -9.6699813e-01   3.5119938e-01   9.3821782e-01   4.2766480e-01   5.3906524e-01   3.8373752e-01   8.1161608e-01  -3.2639952e-01   6.7749357e-01  -2.0469221e-01   3.8312196e-01  -2.5116791e-01  -5.3473375e-03   8.1063742e-01   8.3045889e-01   4.9522795e-01  -1.4626097e-01  -4.5134993e-01  -9.5894809e-01   8.2754634e-01   7.7272165e-01  -4.0278023e-01   9.9291261e-01  -8.1673214e-01  -9.8635103e-01   5.6624457e-01   4.5173385e-01   3.7520356e-01  -9.4539722e-01   8.4292492e-01   7.7396667e-01   6.3781008e-01   9.3786770e-02  -2.3569529e-01  -7.9167313e-01   7.0171631e-01   9.0622207e-01   2.5653540e-01  -9.4263104e-01  -9.2358767e-02  -5.9949140e-01  -3.7748348e-01   5.0114633e-01   6.8557160e-01   9.2895443e-02   7.6820974e-01  -1.9927999e-01   3.6912295e-01  -2.2582051e-01  -8.3608431e-02   9.1544917e-01  -8.4982624e-01   4.6771516e-01   3.6919020e-01  -9.8771919e-01   8.1369512e-01  -4.9150114e-01  -5.5458673e-01   8.2848895e-02  -9.4813572e-01   5.3109224e-01   6.0160822e-01  -9.0943893e-01   6.8956411e-01   8.3164474e-01  -5.7571191e-01   8.8170543e-01   9.4728748e-01   6.3870290e-01  -5.0203855e-01   1.0220685e-02   3.0290949e-01   8.4085724e-01   5.1092701e-01  -4.8704244e-01   4.2625797e-02
