  -7.9579124e-01  -9.9028174e-02  -8.8908037e-01  -4.9463804e-01   5.5983747e-01   3.1228790e-01  -9.7648529e-01   1.5086151e-01   3.3708583e-01  -5.2552819e-01   1.1290618e-01  -2.1064514e-01   7.0102774e-01  -6.8434009e-01   4.9050656e-01   7.6576172e-01  -7.2161550e-01   1.7077013e-01   2.5618779e-01   2.7974028e-01   2.8367510e-01   4.0618302e-01   9.5406554e-01  -6.1601338e-01   8.2567929e-01  -6.7635697e-01  -4.2468161e-01   3.0731651e-01   3.5276031e-01  -5.9498150e-01  -9.3268092e-01   8.8874851e-02   4.8788976e-01  -2.7237851e-02  -2.9415731e-01  -8.0098900e-01  -5.1394887e-01   5.9482179e-01  -8.7066563e-02   3.9646463e-02   3.2438800e-01   1.8435611e-01   1.9192223e-01   1.4356574e-02  -6.4904635e-01  -2.2815422e-03  -6.1365636e-01   6.6258362e-01   2.5998468e-01   6.9128854e-01  -7.5985634e-01  -1.8676176e-01  -7.3005671e-01   6.2638769e-01   8.2978504e-01  -8.6063853e-01  -1.8444593e-01  -2.3575596e-01   2.4627250e-01   3.7648227e-01   4.8051094e-01  -3.4392148e-01   7.5018697e-01   1.6356680e-01   2.5270488e-01   6.3363188e-01  -1.7178190e-01   8.6447752e-01  -5.6246029e-01  -9.5931552e-02   1.8116208e-02  -5.8906762e-01  -1.4054243e-01   7.3586127e-01  -9.8253614e-01  -6.9624794e-01   3.0472888e-01   7.5755977e-01   5.4484531e-03  -5.1906406e-01   2.3583598e-01   3.4318725e-01  -6.2063276e-01   4.4812899e-01   7.4786826e-01   5.0803369e-01   6.3260577e-01  -3.6377391e-01  -4.2277484e-01   7.2192825e-01   9.7184963e-01   1.7842411e-01   5.8521102e-01  -7.2151630e-01   7.3723350e-01   8.9223017e-01   1.1783661e-01   9.4251692e-01  -1.4507346e-01   2.5528311e-01   6.8762552e-01   6.8635960e-01   3.7874560e-02  -4.1165388e-01  -8.7637133e-01  -1.0143576e-02  -3.8569919e-01  -6.4040903e-01  -8.9287121e-01   7.1765727e-02   1.5570672e-01   4.0703770e-01  -9.1287099e-02   7.1597020e-01  -1.8315983e-01  -9.7491598e-01  -9.9774908e-01   6.1814387e-01   3.5541731e-01   4.5491241e-02   9.9425591e-01   6.6870184e-01   5.6439999e-01  -9.3218704e-01  -3.8447786e-01   7.2698393e-01  -3.9831390e-01   1.5615915e-01   6.3602103e-01  -2.2479143e-02   2.2241055e-01   9.9336210e-01  -5.2922622e-01   1.1114329e-03   1.6010891e-01  -6.7528182e-01   9.4849254e-01   1.6697870e-01   5.4246168e-01  -3.8090450e-01   5.4341746e-02   5.3098374e-01  -3.1169849e-01   7.1606569e-01  -7.5974153e-01  -5.7275388e-01   3.6170178e-01  -9.5274585e-02  -7.5232645e-01  -2.6473503e-01  -2.8107031e-01   3.3244388e-01   6.7883732e-01   5.2094247e-01  -3.9246259e-01   6.2070448e-01   1.0187464e-01   6.0786989e-01  -4.4988623e-01   3.4497898e-01   3.1221597e-01   9.5360729e-01   4.7178501e-01  -4.9366925e-01   9.3051348e-01  -8.2088482e-01  -2.7386508e-01   7.7789765e-01   7.1304795e-01  -6.0800115e-01   5.1582491e-01   3.1620333e-02  -3.7094221e-01   4.9015539e-01  -2.3339022e-01  -1.9591279e-02   5.7083470e-01  -7.9889629e-01  -1.7857703e-01   6.1856342e-01  -8.2256154e-01   9.7872519e-01  -8.3732499e-01   1.8069285e-01  -1.1357824e-01   2.9637831e-01  -7.3337861e-01  -4.8304780e-01   2.2968992e-01  -5.7761875e-01   2.3220922e-01   6.8088781e-01   6.6210563e-02   6.2348795e-02  -3.9791121e-02  -6.0959983e-01   9.7767854e-02  -3.2195907e-01   4.6948314e-01  -8.7019647e-01  -5.5576860e-01  -5.1926746e-01  -5.1698702e-02   9.9952848e-01  -7.6517456e-01   3.0255200e-02   8.2410355e-02   3.0766262e-01   7.3192503e-01  -8.7823175e-01  -9.5497927e-01   9.2688165e-01   5.5730927e-01   9.3910754e-01  -9.7919330e-01   6.1540703e-01  -1.5647886e-01  -8.2951205e-01   3.7379578e-01  -6.6082000e-01  -5.6865084e-01   4.8772296e-01   6.1792889e-01  -1.9623752e-01   4.8938582e-01   1.7331248e-01  -7.2246123e-02   3.8451798e-01   6.6284053e-02  -9.6520037e-01  -9.8839456e-02  -7.2165839e-02  -5.3613378e-01   5.7075771e-01  -4.2023108e-01  -1.9535869e-01  -7.5647590e-01   3.1094938e-01   1.4851348e-01  -9.1012328e-01  -6.0035188e-01   1.3801095e-01   8.4928631e-01   2.2497066e-01  -8.2518720e-02   8.5431885e-02   8.8492904e-01   2.2738385e-01  -3.9614695e-01  -6.0597126e-01  -1.1527067e-01  -1.8813131e-01  -5.0893731e-01  -5.2632824e-01   9.8082294e-01   2.4453100e-02  -7.3319593e-01  -8.6651545e-02  -9.0837416e-01  -8.6371733e-02  -1.8963229e-01  -5.7394984e-01   7.4965940e-01   7.8926271e-01   6.8284866e-01   9.5434256e-01   8.5549568e-01  -9.2356153e-02   3.7733260e-01   4.4320898e-01  -3.4647290e-01  -4.3443243e-01  -1.8303053e-01   5.2044957e-01   6.8780516e-01  -4.8090481e-01  -3.3719325e-02   3.6493211e-01  -2.4727735e-01   2.8275193e-02   4.0399517e-01   8.2093487e-01  -6.1263958e-01  -2.6242274e-03  -1.5516657e-01   8.1212964e-01   5.7862186e-01   1.0320816e-01   3.7557744e-01   9.0457221e-01   1.2723888e-01   8.9056275e-01   6.3766223e-01  -8.8187749e-01   7.6323727e-01  -1.0890577e-01   7.3608613e-02   2.1111232e-01  -2.4497500e-01  -4.2446425e-01   9.6982745e-01  -6.3823202e-01  -1.1046747e-01  -5.1768480e-01  -3.3622938e-01  -4.6402118e-01  -2.1668373e-01   4.7256975e-01   3.3302345e-01   5.3424583e-02  -5.9935285e-01  -9.8422276e-01   7.1423267e-01   9.9404182e-01  -1.9641989e-01  -5.9409484e-02  -8.5750320e-01   4.8386143e-01  -5.5869781e-01   2.2599464e-01  -3.0805264e-02   2.3952181e-02   6.3485601e-01  -6.7283906e-01  -6.9195110e-01   7.0333562e-01   3.1240232e-01  -6.4228849e-01   4.4030950e-01   7.0750181e-01  -7.9666930e-01  -9.3366966e-01  -6.0198880e-01  -1.4429211e-02  -9.9869590e-03  -6.6397857e-01  -6.6889255e-01   5.9155702e-01   6.2899160e-01   6.4466565e-01  -9.3979370e-01   6.7570035e-01  -9.6451792e-01  -2.0136925e-01   6.6056537e-01  -1.4850758e-01  -3.3325872e-01   3.5270943e-01  -3.8504440e-01  -7.1206264e-01   2.8853476e-01  -7.1501922e-01  -4.3461352e-01  -4.5430706e-01  -7.7807283e-01   1.4264887e-01  -7.7480171e-01  -6.5600970e-01  -9.6157229e-01   5.0836465e-01   6.7303088e-01  -1.6253094e-01   6.8098723e-01  -5.0250334e-01  -5.2589153e-01   9.2722100e-01   4.8552377e-02  -1.2856203e-01  -6.2757190e-01  -8.7591071e-01  -4.8339074e-01   1.2901407e-01   2.6377986e-02  -5.7784299e-01   6.7290421e-01  -3.4672846e-01  -8.3249373e-01   7.1177350e-01  -5.7333109e-01  -7.6407667e-02  -4.7991775e-01   5.3057655e-01   8.4378145e-01  -1.0664830e-01  -9.1222053e-02  -4.0060526e-01   1.8610973e-01  -9.9681787e-01  -5.1104710e-01   5.7382093e-01  -5.8084071e-01   4.6355002e-01   8.2180705e-01  -8.8990365e-01  -8.0632525e-01   2.6965354e-01   3.3573780e-02  -5.2616674e-01   8.7302478e-01   1.5915901e-01  -7.9116500e-01   4.9215084e-01  -5.0129357e-01  -2.8446011e-01   3.6370530e-02   7.5026927e-01   4.0069664e-01  -4.0492977e-01   4.8402400e-01  -9.5116957e-01   3.6227017e-01  -1.8362887e-01  -1.4857479e-01   4.1725166e-01  -5.9005837e-01  -9.5926617e-01   7.7132887e-01  -3.4412296e-01  -2.8203368e-01   8.5682722e-01  -1.1884956e-01  -2.8045652e-01  -6.4588644e-01   6.1312843e-01  -2.5076052e-01   1.6014909e-01  -9.8352883e-02   2.3914622e-01  -3.1133213e-01   1.4654588e-01   2.6177053e-01   9.1905751e-01   1.4964794e-01   7.7926992e-01  -4.3994501e-01  -4.4134133e-01  -6.0467909e-02   2.4019797e-01   7.3079843e-01  -1.4979660e-01   7.7710436e-02   4.5919566e-01  -2.1820946e-01  -2.4059314e-01  -4.4743208e-01   4.2811674e-01   6.5143089e-01  -8.0147700e-01  -1.3529257e-01   9.9887899e-01  -5.1759620e-02   7.2178556e-01   4.0162051e-02  -5.7130783e-02   8.2543012e-01   2.4739231e-01  -6.3667300e-01  -1.5656236e-01   5.1545366e-01  -5.5736105e-01  -4.6693309e-01  -1.8550753e-01   3.6246826e-01  -3.9560162e-02  -8.1242850e-01   7.6775927e-01   7.5596655e-02   3.6309821e-01   5.0123656e-02  -8.5428109e-01  -2.5905422e-01   4.8937626e-01   3.0643735e-01  -6.8411337e-01   4.2409837e-01   4.1247090e-01  -4.3829297e-03  -9.1610312e-01   3.2228415e-01   4.4340295e-01   6.3759291e-01   5.5438896e-01  -5.4660071e-01   3.3424354e-01   8.0311565e-01   1.5367828e-01  -9.0934984e-01   6.9696492e-01  -1.7733265e-01   6.0552046e-02  -9.7809357e-01   9.2086151e-01  -4.1133500e-01   2.8270200e-01  -1.5486706e-01  -1.0187771e-02   1.3406538e-01  -3.9212756e-01  -3.0982626e-02  -9.7297375e-01   9.2002059e-01   3.7366106e-01  -1.8246048e-02  -3.8535206e-01   6.3582818e-01   1.5379247e-01  -8.3738027e-01  -4.9808394e-01   8.8751797e-01   7.2001369e-01  -6.3724386e-01   2.7668228e-01  -5.5183341e-01  -2.2263107e-01   6.5640040e-01   4.1344047e-01   9.1506187e-01   5.0969942e-01   8.2931322e-01  -8.3351240e-01  -6.9983372e-01   4.1325455e-01   5.5320769e-01   2.7995372e-01   1.7972224e-01  -5.0780194e-01  -9.3405203e-01   9.4948124e-01  -7.9160446e-01  -8.2172134e-02  -2.8357672e-02   6.7056945e-01   8.2867685e-01  -1.9481818e-01  -8.5413497e-01  -9.3968855e-01  -4.7438901e-01  -1.3570500e-01  -7.3809983e-01   6.2059773e-02   2.8486808e-01  -9.1068824e-02   9.8255114e-02  -3.6436869e-01   1.2918277e-01  -2.2332516e-01  -6.6956929e-01   4.2859702e-01   2.3725677e-01   4.7562369e-01   2.0521711e-01   7.3060969e-01  -6.3451154e-01  -7.6743528e-01  -6.3177407e-01  -9.0695139e-01   7.6835723e-01   1.9738147e-01  -8.2435335e-01   9.7222821e-02  -5.8753161e-01   9.0649751e-01   8.6627249e-01  -9.7637085e-01   4.9694232e-02   3.7390367e-01   2.2817375e-02  -1.1645209e-01  -9.8608368e-01   9.2376821e-01   9.7077761e-01  -8.1457253e-01   4.9032553e-01  -7.5041775e-01   8.4865354e-02   9.9300776e-01  -3.7870610e-01   8.3176612e-01   1.5998842e-01   4.5034758e-01  -3.0928805e-01   5.2160441e-02  -8.9779089e-01   3.7717996e-01   8.0291519e-01   1.1502040e-01   2.0275438e-02  -1.0364646e-01   9.2870941e-01   5.8205891e-01  -3.9566853e-01   7.0043324e-01   6.4380858e-01  -7.3665527e-01   6.2970413e-01   2.1546358e-01  -2.1826605e-02   3.6143062e-01   6.0935884e-01   9.7919144e-01  -1.9345735e-01  -3.1658323e-01  -3.0151647e-01   7.3520465e-01   3.9773343e-01   3.6174258e-01  -1.8544431e-01   6.2882802e-01   3.5773052e-02   1.8536874e-01   9.7073475e-01   9.8212147e-01   5.6961733e-01  -9.4384893e-01  -3.7674218e-01  -7.8150191e-01  -7.1503895e-01   3.7099938e-01   3.3127007e-01  -3.7774407e-02  -6.9731300e-01  -4.7592248e-01  -4.7468847e-01   4.5544488e-01  -1.5873506e-01  -1.1254748e-03  -7.2800181e-01  -4.1701007e-01   7.8537103e-01   3.7213871e-01  -9.5839047e-02   3.9733678e-01   5.9742865e-01  -7.4079927e-01   3.0911625e-03  -6.7432317e-01  -3.5129606e-01  -3.1347828e-01  -8.3927322e-03   1.3603089e-01   9.7760605e-01   8.4795379e-01   3.3196460e-01  -6.9469478e-01  -3.6673627e-01   2.2590645e-01   8.5174107e-01  -3.6676603e-01   9.8876808e-01  -4.1538833e-01  -3.4603859e-01  -4.1345489e-01  -5.6256455e-01   1.8219765e-01   5.6012672e-01  -4.0189025e-01  -5.6125475e-01  -8.2675893e-01   1.0849563e-01   9.2269808e-01   1.0406057e-02  -3.5477093e-01  -5.6224390e-01  -2.5391698e-01  -7.7221425e-01  -8.6599067e-01  -9.5854349e-01  -6.3358636e-01   7.5290020e-03  -5.5108101e-01   9.6735480e-01   9.0709278e-01   8.0956480e-02  -7.6878720e-01  -9.1911374e-01  -3.4592485e-02  -5.6518296e-01  -4.7063720e-01   1.5504582e-01   1.7203046e-01   7.3193951e-01  -7.0213594e-01  -3.2324899e-01   7.9708200e-01   6.8314648e-01  -8.8336705e-02  -3.1673061e-01  -2.4234341e-01   9.8435261e-01  -3.4472569e-01   4.4317913e-01  -6.2009089e-01  -7.9597297e-02   6.0807943e-01  -8.8493006e-01  -7.2791409e-01   2.6139289e-01   4.3101749e-01  -9.7332229e-01  -5.5135875e-01   6.4074107e-02   7.2362600e-02   9.4885037e-01   6.8850033e-01  -3.4242592e-01  -5.0009424e-01   9.2117278e-01  -1.2460137e-01   2.2968202e-02   3.4437124e-01  -7.8121941e-01  -2.4478018e-01  -3.6957326e-01  -8.7667482e-01  -8.9932960e-01   1.8134882e-01  -5.8861035e-01   7.2444847e-01   1.7349337e-01   7.8983475e-02   7.5103345e-01  -7.8716493e-01  -4.1758103e-01  -7.3950185e-01  -1.8120072e-01  -3.4219432e-01   7.1854280e-02   1.6631989e-01   3.6826492e-01   8.8054220e-01  -1.9710935e-01  -9.3947372e-01   6.9843090e-01   1.4008156e-01  -6.6655781e-01  -7.6896637e-01   5.8618202e-01  -2.4836029e-01   1.4963555e-01  -1.1865289e-01  -9.1789557e-01  -3.4742160e-01   1.5438815e-01   5.1422509e-01  -4.7101968e-01   5.1933963e-02   9.5180017e-01   4.3128002e-01  -8.7331266e-01   6.1024118e-01  -3.5913633e-01  -9.9040045e-02  -6.4337566e-01  -4.1325681e-01  -8.6477577e-01   9.0484894e-01  -3.8162041e-01  -3.5447103e-01  -5.2180877e-01  -5.1767763e-01   4.2069535e-02   1.0274160e-02  -7.3845357e-02   3.5102678e-01  -5.4035597e-01   3.6217170e-01   3.6877842e-01  -6.2165952e-01  -3.0212335e-01   4.8460340e-01  -8.4977525e-01  -8.7539411e-01  -7.4122926e-01  -1.0880464e-01  -1.1967998e-01  -6.5156608e-01  -7.3522102e-01   7.2099485e-01   1.5911864e-01   6.6140144e-01   2.3618778e-01  -1.1105045e-01   6.8143580e-01   7.7286081e-01   1.8541826e-01  -7.8099274e-01   2.5229923e-01  -1.7613378e-01  -7.9631321e-01   4.3011152e-01  -5.5397996e-01  -1.9068211e-01   4.3197851e-01  -5.9435197e-01   4.8976538e-01   1.2593913e-01  -8.6403013e-01  -1.5370673e-01  -2.4442014e-01   4.4212175e-01   8.5237987e-01   7.8324307e-01  -8.1453944e-03  -6.2266740e-01  -2.4658221e-01  -7.4447069e-01  -1.2018798e-01   3.4967725e-01  -6.5311226e-01   6.1759434e-01  -5.6161227e-01  -5.3678214e-01  -8.7858718e-01   5.5245675e-01  -3.5956756e-01   5.8255293e-01   2.2263299e-01  -5.2336243e-01  -1.9219769e-01   3.4508030e-02  -1.2138039e-01  -7.1591911e-01  -9.7339575e-01  -5.8341537e-01  -8.1771056e-01   5.2960011e-01   5.6872696e-02  -9.3202948e-01   6.1314108e-01  -9.0758567e-01  -4.0586084e-01   9.3456236e-01  -2.3587435e-02   7.3310427e-01  -8.0892511e-01   2.8470635e-01  -3.2836929e-01  -4.1619992e-01  -8.8563222e-01  -3.2918985e-01   2.0830677e-01  -5.1550961e-01   1.3311397e-01   5.5767562e-01  -7.9833096e-01   2.3016853e-01  -6.0341895e-01  -2.4861344e-01  -9.4581196e-01   5.8653990e-01   5.5398925e-01  -8.3984503e-01  -6.5963899e-01  -6.5793395e-01  -8.3156791e-01   9.0595211e-01   6.1243373e-01   3.6380628e-01   3.4436527e-01  -9.2693503e-01  -9.9549842e-01  -5.5653900e-01  -6.7155413e-01   7.0183536e-01  -5.0293307e-02   7.2347629e-01   4.5579489e-01  -9.9317155e-01  -4.1423916e-01  -6.4468827e-01  -5.6473489e-01  -4.1334299e-01   9.2407472e-02  -6.4254085e-01   3.4238278e-01   1.9551878e-01  -8.0846841e-01   2.5573280e-01  -8.7398032e-01  -2.2068566e-01  -3.1884862e-01  -2.5814209e-01  -2.8075588e-01  -4.8462834e-01   5.6953887e-01  -7.9958267e-01  -9.7525431e-01  -5.2391379e-02  -8.2846152e-01   2.6844785e-01   5.3268533e-01  -3.5173307e-01  -4.2058349e-02   6.4789480e-01  -7.4763802e-01  -8.3331163e-01   3.1331036e-02  -2.5259995e-01   3.3093032e-02  -9.3631203e-01  -1.8520073e-01  -5.8699027e-01  -3.7990805e-01  -5.6493609e-01  -5.2344267e-01   3.6393240e-01   2.4477748e-01  -6.0342873e-01   5.8255551e-01  -1.6981662e-01  -7.4022123e-02   8.0453883e-02   7.1260031e-01  -5.8002905e-01   9.3956669e-01  -4.3107999e-01   4.6164776e-01  -4.6314324e-01  -5.7837916e-02  -5.4026231e-01   3.5789274e-01  -9.5087898e-01  -9.6892649e-01   6.0859984e-01   3.7866280e-01   8.2244141e-02  -4.9285729e-01   7.8729786e-01  -5.7464074e-01   3.8608291e-01  -9.3000348e-01  -7.1465568e-01   2.0781569e-01   6.1618735e-01  -2.9067228e-02  -3.9819850e-01   1.8819351e-01  -5.6151032e-01  -5.7258301e-01  -3.4008186e-01  -1.6509041e-01  -9.0713020e-01   5.6470308e-01   3.5433589e-01   5.5642419e-01   8.1617364e-01  -1.4628171e-01   6.0002095e-01   9.6334309e-01  -5.5429832e-01  -3.2274896e-01  -6.8095349e-01   1.9152179e-01   6.2062406e-01  -3.2023228e-01  -3.7888498e-01   5.6071465e-01   8.3937970e-01   4.9660682e-02  -2.2665019e-01   3.2196497e-01  -7.5490904e-01  -3.3775577e-01  -3.2876635e-01   2.7811560e-02   8.9999803e-01   5.8600517e-01  -5.2625400e-01  -3.7509476e-01  -4.8541583e-01   5.9538081e-01   8.8775600e-01   6.0498998e-01  -3.2989766e-01   3.8055303e-01   1.1374749e-01  -6.3877042e-01  -2.4262978e-01  -3.2238666e-02  -2.4754515e-01  -6.3198221e-01   5.3746102e-01   6.9620025e-01   1.6539287e-01   6.8968502e-01   5.9866986e-02  -4.3476300e-03  -7.6480298e-01   5.1033111e-01  -1.1455975e-01  -1.7236496e-01  -4.7577919e-01   5.6174555e-01  -7.8051392e-01  -6.7045330e-01  -7.1978902e-01  -7.3805186e-01  -6.3762978e-01   2.1540334e-01  -7.9463040e-01
  -8.4314020e-01   4.0648267e-01  -8.4535539e-01   8.8849215e-01  -1.8486016e-01   8.3367616e-01  -3.6056009e-01  -6.6369548e-01   1.0813977e-01   5.6566492e-01   2.1716486e-01  -5.6195719e-01   6.0843988e-01  -6.2540516e-01   6.7850030e-01  -2.1834312e-01   6.2186609e-01  -7.6701770e-01  -9.7408713e-01  -8.2922340e-01  -7.0331075e-01   7.0750856e-01   8.6230999e-01   9.8557359e-01   9.7966487e-01  -5.5558229e-01   1.9344640e-01   7.8709228e-02  -5.4553920e-01   6.7179142e-01   8.6896961e-01  -8.2697677e-01   3.7603642e-01  -5.2298562e-01  -4.0920276e-01  -9.7060874e-01   5.5589111e-01   9.9733320e-01  -7.0937617e-01  -9.2544827e-01   1.1897490e-01   3.1823335e-01   4.0769502e-01   9.5487736e-01  -3.8032717e-01   6.3873183e-01  -1.4705181e-01  -6.5932849e-01   9.6450906e-02  -5.9210049e-01  -8.9299699e-02   3.2779396e-01   9.9357115e-01  -8.7726769e-01  -7.3979594e-01  -1.6279891e-01   9.8271553e-01  -8.2061857e-01   1.5605455e-01   8.1277192e-01   4.3565152e-02   9.9785365e-02  -8.5393591e-01   4.3044721e-01   2.1224572e-01  -7.7293505e-01   2.3623514e-01   8.1295442e-01   5.0464029e-01  -7.0331470e-01  -6.6808218e-01  -2.5307358e-01  -5.1681726e-01   1.3606208e-01  -5.6663613e-01  -3.1137064e-01  -2.9062879e-01   5.3875414e-01   7.7429209e-01  -4.5463795e-01  -4.9430663e-01  -8.4618857e-01   6.3412969e-01   3.2399449e-01  -6.7079434e-01   4.0406809e-01  -4.4417713e-01  -7.5554570e-01  -9.1866281e-01  -1.5484589e-01  -5.2191942e-01  -3.6599905e-01  -1.1269381e-01   1.6910081e-01  -2.6107308e-01  -6.3134887e-01  -7.2844941e-01   4.1705402e-01   6.4915898e-01  -1.7596531e-01  -2.3023526e-01  -3.2737778e-02  -4.9259229e-01   5.8177218e-01  -7.2914701e-01   5.1187231e-01  -5.5042649e-01   6.1851596e-02   1.9727895e-01  -4.3585444e-01  -8.3950788e-01   9.9547199e-01   4.5783065e-01  -6.7103958e-01   1.1431217e-01  -9.3652195e-01  -5.2139131e-02  -8.6140081e-01  -7.6954061e-01   5.0308111e-01  -8.4585862e-02  -5.6968324e-02  -7.0751403e-01   4.2977385e-01  -6.0818459e-01   5.3940441e-01  -7.8114082e-01   5.4209686e-01   3.4388933e-01   9.9131529e-01   8.4698470e-01   6.2632826e-02   7.9918996e-01  -9.3922733e-01  -1.5246059e-01  -5.7568310e-01   5.3188081e-01   7.1456587e-01  -3.3510105e-01   2.3597576e-01  -6.4389833e-01   9.3584484e-01  -9.5724774e-01  -6.6719374e-02   8.4690405e-01  -4.8789664e-01   8.0360665e-01   9.1723737e-01  -7.8778833e-01  -4.1373036e-02  -4.4945343e-01   8.3525161e-01   4.3362839e-01  -7.2848674e-01  -6.9496598e-01  -3.6655279e-01  -9.5496839e-02   2.4043146e-01   2.3510552e-01   2.9493498e-01   8.1959683e-01  -1.1285303e-01  -9.9923436e-01   6.8821933e-01  -3.0240494e-02   5.4702760e-01  -8.1553418e-01  -6.8805992e-01   4.9602940e-01  -1.1675553e-01  -6.8888341e-01   3.2998975e-01   4.3308812e-01  -3.6141930e-01  -6.8127232e-01  -9.8610222e-01   5.1632410e-01  -9.3999515e-01   2.0093343e-01  -6.2683465e-01   9.3587159e-01  -3.0945300e-01  -8.7771481e-01  -5.0433266e-01  -6.0058532e-01   8.7152646e-01   6.4088979e-01  -3.7090364e-01   4.6430101e-01  -5.9104117e-01  -1.0067749e-02   9.4163748e-01   2.1080458e-01   9.1394044e-01  -6.8716205e-01  -7.5829226e-02  -3.6485799e-01   3.1326732e-01  -2.8009183e-01  -3.3969255e-01   7.0280381e-01  -3.7671272e-01  -3.2917237e-01   3.0741744e-01  -4.5692518e-01   9.1193562e-01  -6.0811147e-02  -8.1733930e-02   7.9486202e-01   9.5355290e-01  -8.4331358e-01   6.6227256e-01  -1.8733497e-01  -6.2108869e-01   3.8363070e-01   5.4939733e-01   9.2484864e-01  -7.1469774e-01  -7.5242898e-01   1.4687480e-02  -1.7316579e-01   3.2173348e-01   3.4139552e-01  -9.2232654e-01   8.5737382e-01   6.1464863e-01  -5.4820181e-01  -2.1346458e-01  -2.5877775e-01  -2.4774885e-01  -8.1276065e-01   2.5980260e-01   7.2887520e-01  -4.4803608e-01  -4.9274565e-01   6.4886792e-01  -4.1525980e-01  -7.3924302e-01  -1.9088425e-01  -5.5425564e-01   9.4599463e-01   2.1344636e-01   3.9865807e-01  -3.1202966e-01   8.3124024e-01   6.3574232e-01   4.9046640e-01  -5.3762796e-01  -8.1237745e-01  -9.2176025e-01   5.7272051e-01  -5.6059874e-01   6.6097014e-01  -9.0367255e-01   5.4568359e-01  -4.6816956e-01  -6.8963874e-01  -7.6731632e-01  -7.8244858e-01   3.9317924e-01  -8.6696392e-01   6.4908071e-01  -2.3978142e-01  -9.1986336e-01   5.2339631e-01   4.2009874e-01   4.2051457e-01   1.7594852e-01  -2.6101254e-01   6.8277922e-01   1.9899900e-01   6.7948717e-01   7.2464869e-01  -6.0803778e-01   6.0911928e-01  -7.8919963e-01  -5.1124576e-01  -5.9933672e-02   9.6655591e-02   9.6344409e-01  -9.1315650e-01   6.7503867e-01  -5.2265619e-01  -5.7554755e-01   5.3131625e-01   8.9961678e-01  -3.6571231e-02  -6.8545564e-01   4.3773332e-01  -4.8419603e-01   6.6840282e-01  -4.3871172e-01  -7.9684085e-01   3.3489864e-02   9.3506380e-01   7.5119369e-01   1.8401058e-01  -8.6968252e-01  -6.9763766e-01   1.9238942e-02   4.2401393e-01   1.5728070e-01  -9.3931442e-01   9.6386036e-02   3.5073544e-01  -7.9475798e-01  -9.6072835e-01   1.7457596e-01  -3.4580352e-01  -1.8728960e-02   6.8481172e-01  -9.9282944e-01   5.7279489e-01   4.2285037e-01   2.2779745e-01  -4.1353098e-01   7.5443280e-01  -1.3162846e-01  -4.3804690e-01   8.9931117e-01  -1.2200322e-01   9.9492470e-02  -5.8031774e-01  -7.0462440e-01   4.6660538e-01   3.8394335e-01  -2.7408624e-01   5.0013042e-01  -2.2148420e-01  -5.0274903e-01   8.2478582e-01   1.4626655e-01   4.0280742e-01   5.5170259e-01   5.0459636e-01   3.2953094e-01   9.4425165e-01   4.7419435e-01   6.9604796e-01   8.6399995e-01  -4.2961201e-01  -2.4378177e-01  -4.1133602e-01   9.3661846e-01   3.6960446e-02   3.8241356e-01   6.2687397e-01   6.0646873e-01   6.5008059e-01  -6.8399610e-01   5.4641727e-01  -6.3672715e-01  -7.8515093e-01  -4.1170650e-01   7.5717606e-01  -8.0729067e-01  -5.5906707e-01   9.4042597e-01  -8.7291128e-01  -7.8688720e-01  -3.9943390e-01  -4.6767320e-01  -5.2109458e-01  -3.6318982e-01  -4.1983388e-02  -2.1456229e-01   2.8097835e-02   8.8993923e-01  -8.9036122e-01   8.1059956e-01  -2.3388387e-01  -8.6035129e-01  -6.3363109e-01  -1.3703721e-01  -3.3987477e-01   5.8101412e-01  -8.1227702e-01   7.8190823e-01  -8.2964302e-01   2.7109759e-01  -6.2790161e-01  -6.3392727e-01  -1.9500941e-01   5.6487900e-01   1.0433339e-02   8.4370734e-01   8.9414626e-01  -9.5533948e-01   7.6015262e-02  -1.5031130e-01   9.4380889e-01   3.0704386e-01   6.2311658e-01  -8.6513827e-01   4.4425630e-01   2.7769557e-01  -8.7439015e-01  -8.1906694e-02   5.6033059e-01  -6.3033947e-02   5.9093418e-01  -5.0111210e-01   1.2796691e-01  -7.7505806e-01   5.5091094e-01   8.2039133e-01  -5.1013624e-01   9.7714026e-01  -9.3970823e-01   5.3391432e-01  -1.0396962e-01  -4.1011764e-01   7.7928552e-01   9.0241110e-01  -3.4295394e-01   6.3457960e-01  -9.4556163e-01   9.3094831e-01  -2.6559242e-01   8.9951233e-01   5.2861757e-01   4.6241250e-01   9.0800016e-01  -3.6639598e-01  -7.7987057e-01  -6.0466903e-01   6.7819933e-01  -9.7580585e-01  -2.4369911e-01   2.6483078e-01  -7.8170052e-01  -7.4630117e-01   5.5543930e-01  -3.9278954e-01  -4.2821822e-01  -2.3972508e-01   1.8736445e-01  -3.8289064e-02  -1.3043653e-01  -8.3380821e-01  -3.9431116e-01  -7.2837156e-01  -3.5993852e-02   4.1313618e-01   5.9469644e-01  -2.9726708e-02   7.0872982e-01   7.8573317e-02   6.5195940e-01   6.7650664e-01   4.9449151e-01   3.3567426e-01  -2.7915299e-02   5.8014458e-01  -4.7061573e-01  -3.3005013e-01  -2.1213275e-01   7.0033000e-01  -6.6384341e-01   1.5598034e-01  -5.4515136e-01  -3.5724177e-01   8.2005596e-01  -8.0265649e-01   8.1933010e-01   3.5885899e-01   2.8905526e-01  -8.6507553e-01  -8.2090318e-01   3.5636335e-01   8.8763678e-01   1.8981431e-01  -7.6239127e-01   5.2743689e-01   5.5879670e-01   1.4372270e-01   2.7801427e-01   5.6134327e-01  -2.6370384e-01  -5.8916338e-01  -4.7751144e-01  -6.7041326e-02   5.8521811e-01   3.6396155e-01   9.0684898e-01  -2.2255611e-01  -4.8551798e-01  -8.5507182e-01   1.3488747e-01   5.9026021e-01  -1.7458647e-01  -1.6464033e-01   5.3797268e-01   3.6070900e-01   1.2954532e-01   6.0808065e-01   8.6567551e-01   6.5073162e-01   1.9550530e-01  -5.7521437e-02  -9.2658217e-01   1.3609113e-01  -2.5838176e-01   3.6098136e-01  -9.7629688e-01  -2.3379374e-01  -9.1333527e-01   5.2326612e-01   5.4048151e-01  -6.0028265e-01  -2.0253262e-01  -2.1154162e-01   8.0644524e-01  -6.4124590e-01  -6.7338150e-01  -9.5797182e-01   2.1902311e-01   8.3327885e-01   5.4461957e-01   3.9976046e-01  -5.4577353e-01  -6.1966225e-01  -1.9423204e-01  -8.3554499e-01   6.8926704e-02   7.6698232e-02   6.9401159e-01   3.0712817e-01   4.5743497e-01  -1.8351013e-01   2.3988702e-01   7.7435943e-01  -7.5114310e-01  -6.4002972e-02  -5.8712301e-01   9.8360198e-01  -8.8266488e-02  -8.7106622e-01  -6.6621313e-01  -1.5178250e-01   1.8758255e-01  -6.4210006e-01   5.2115726e-01   2.8915808e-01  -3.0415141e-01   6.8102973e-01   4.0749037e-02  -6.3807195e-02   8.5558586e-01   5.7562863e-01  -4.7230122e-01  -5.8799122e-01  -6.9956958e-01  -3.2114621e-01   6.9019263e-01  -8.0993377e-01   1.5157212e-01   5.8463035e-01  -9.1812525e-01  -6.3611469e-01   5.9796055e-01   4.0441882e-01   7.4356033e-01   9.0854679e-01  -5.3464100e-01   9.8796728e-01   9.9056407e-01  -7.6166520e-01  -1.0593837e-01  -5.9539382e-01   6.8607922e-02   6.9711852e-01  -1.4568348e-01  -9.9850437e-01  -9.4419940e-01   7.4661922e-01  -6.5206824e-01  -6.6029261e-01  -2.7115886e-01   6.6857399e-01  -5.5543079e-01  -9.3728998e-01  -8.0348653e-01  -6.2111061e-01   6.4102690e-02  -1.2317889e-01  -8.0326450e-01   2.4113842e-01  -7.5023792e-01   9.2311695e-01  -7.4369752e-01  -3.1577524e-01   2.3671011e-01   2.1819748e-01   2.6696837e-01   1.8366195e-01  -8.9001719e-01   2.4314745e-01  -4.4964003e-01   4.0792358e-01  -4.1304736e-02   4.3872486e-02  -1.4612493e-01  -3.1843280e-01  -3.9455408e-01   9.8912621e-01   1.3407199e-01  -2.3325563e-01  -1.6737784e-01  -1.2399660e-02   1.3770975e-01   2.7237946e-01   6.0631668e-01   9.6175390e-01   5.9947715e-01  -8.1512656e-01  -6.7235967e-01   4.1740411e-01  -1.3323834e-01   4.4420074e-01  -5.1973063e-01   9.0048168e-01   5.9195350e-01  -2.5222635e-01   6.5745486e-01   3.7192273e-01   6.6560067e-01   8.7877846e-01   5.4517832e-01   5.3404710e-01   7.3877148e-02  -6.8829253e-01  -4.2951797e-01   7.5209606e-01   4.2173410e-01  -3.7608631e-03  -4.9940413e-01  -3.1009981e-01   2.6577698e-01  -5.2064557e-01   2.5850961e-01  -7.6855625e-01  -8.0341830e-01  -8.1805477e-01  -8.3957788e-01  -4.9478868e-01  -4.5390126e-01   7.1748009e-01  -1.4944731e-01   6.8915347e-02  -5.3876098e-01   9.6866846e-01   7.7037150e-01   2.1233793e-01   6.5706245e-02  -7.5831707e-01   8.2364814e-01  -5.7201044e-01   3.5171865e-01  -1.5079974e-01  -4.7612541e-01  -2.8705812e-01   1.9955628e-01  -6.7693029e-01   1.6447530e-01  -8.1621254e-01  -2.3237970e-01  -6.1739531e-01  -1.6392706e-01   9.6699812e-01  -7.3248830e-02  -9.9163622e-01  -2.0879028e-01   2.7204388e-01  -4.8018627e-02   2.2839668e-01  -8.3707833e-02   9.0502674e-01   9.5875269e-01  -1.9679141e-01  -1.7310345e-01  -8.0376939e-01   3.3318148e-01   2.8379658e-01  -2.4337549e-01  -3.6730731e-01   1.3593557e-02  -4.1940541e-01  -8.0675895e-01  -1.8390506e-01  -2.2382687e-01   4.3974618e-01   4.8302327e-01  -6.5691400e-01  -6.2794304e-01   6.9706482e-01   4.6601931e-01  -3.9920583e-01  -5.3709380e-01  -3.2912055e-01  -6.2850009e-02  -7.8878990e-01  -8.7570900e-01   2.4424814e-01   2.0124205e-01   6.2781104e-01  -8.4264749e-01   6.7357069e-01   6.1900439e-02   4.5900557e-01  -2.0403375e-01   1.2041144e-01  -8.7506217e-01   5.3356242e-01  -9.3568878e-01   9.9744264e-01   6.0947651e-01  -3.5119141e-02   6.2633494e-01  -5.6089901e-01   1.4085802e-01   2.3421038e-01   3.9931872e-01   7.7926556e-02  -1.6658913e-01  -3.7638703e-01  -9.7382248e-01   8.6647553e-01   2.6907417e-01   3.0280509e-01   9.0354532e-01  -3.4796397e-02   2.3016792e-01  -3.4113647e-01   9.4837572e-01   2.1956520e-01   5.7532439e-01  -2.6729029e-01   9.2697631e-01  -6.4854798e-02   6.7887961e-01   2.6428667e-01   7.8412477e-01  -8.8695384e-01  -5.0444158e-01  -6.8140835e-01   6.2463444e-01   7.3893366e-01   7.8365899e-02  -3.6026526e-01  -4.3439721e-01   5.1454008e-02  -8.6717985e-01   4.7970131e-01   9.5884775e-01   9.6489103e-01  -1.7221230e-01   4.5731672e-01  -9.5644407e-01   6.5441961e-01  -7.2595122e-01  -8.9755159e-01   8.9953991e-02  -1.0046737e-01  -1.3742375e-01  -9.7377888e-01  -4.5707915e-01   4.1475213e-01   3.4352462e-01   2.9595077e-01   8.0649639e-01   1.4586968e-01   3.9775304e-01  -4.1530508e-01  -2.8831612e-01   5.6798482e-01   3.7134244e-01   8.3644955e-01   8.0171840e-01   7.3062766e-01   7.1989773e-01  -9.3036324e-01  -3.7772862e-01  -2.9091577e-01   2.1719705e-01   8.7112948e-01  -4.7517967e-01   5.3153607e-01  -6.2389106e-02  -7.8395780e-01   1.5158319e-01  -7.4462139e-01  -7.1868309e-01   4.7454316e-01   7.4361379e-01  -5.8302273e-01  -4.9350325e-01   5.8756512e-01  -1.7384227e-01  -8.7537534e-01  -9.8638089e-01   8.6665157e-01  -2.6668698e-01   2.1084725e-01  -6.1485487e-01   7.6161414e-01   1.4218358e-01  -7.6092445e-01   3.4600599e-02  -2.6798382e-01   5.3915248e-01  -1.9500299e-01   8.7740277e-01   4.4700186e-02  -1.7888093e-01  -4.7116555e-01   8.2392332e-01   7.3334977e-01  -3.9499729e-01   9.5225883e-01  -5.7394762e-01  -2.5714769e-01   4.7238480e-01   1.3629932e-01   5.1538214e-01  -1.8655964e-01   7.5913356e-01   2.2343426e-01  -4.2472933e-01  -7.5328195e-01  -8.9281803e-01  -6.2256845e-01   7.5186839e-01   4.2427536e-01  -7.5967284e-01   6.5592984e-01   4.8941423e-01   1.4280284e-01   7.7572068e-01   8.1494760e-01   9.1237868e-01   1.2015481e-01  -3.2063161e-01   3.2377581e-01  -2.3102350e-01  -1.7717463e-01   4.6972678e-02  -3.0288142e-03  -6.5683339e-02  -8.0916543e-01   9.2422831e-01  -9.9610381e-01   9.0436232e-01  -9.5016076e-01   5.7319370e-01   7.5928214e-01   4.0853721e-02   2.4003355e-01  -7.5441975e-01  -3.7498920e-01  -7.2392792e-01   7.4692347e-01  -7.9875829e-01   2.5312567e-01  -5.9703759e-01  -5.8216349e-01   1.4769245e-01  -7.1027892e-01  -2.5316772e-01   7.8102670e-01  -3.8241812e-01  -1.2765218e-01   2.5047456e-01  -1.1355640e-01  -5.1316024e-01   3.9889518e-01   6.7979494e-01   6.5849686e-01   5.4946482e-01   5.7940650e-01  -8.4540750e-01   8.9458015e-02   2.8261841e-01  -7.9808827e-01  -5.8719250e-01  -8.6984839e-01   4.3208078e-01  -2.5607342e-01  -3.9669329e-01  -5.7015277e-02   9.5989605e-03  -9.9299954e-02  -8.5974036e-01   5.0406511e-01  -3.3352976e-01  -5.3018744e-01  -9.5239439e-01  -2.9126143e-01   8.4668328e-02  -1.2233645e-01   5.1310437e-01  -5.4906852e-01  -7.3048941e-01   2.1707732e-03  -2.1495155e-01  -6.4380429e-01  -1.5855024e-01  -3.0728719e-01   8.2481442e-01  -2.6600839e-01   5.8003661e-01  -2.3301683e-01   3.5453659e-01  -6.3268878e-03   8.5265174e-01  -1.0937258e-01   7.3484563e-01  -6.8637085e-01  -5.3371960e-02   4.1552934e-01   7.0332029e-01   2.5402148e-01   9.0842614e-01  -2.3230199e-01  -7.0118132e-01  -9.1010677e-01   8.1382655e-01  -3.7685011e-01  -3.8251595e-01  -5.6743577e-01  -7.7319431e-01  -6.1635160e-01  -7.8419567e-01  -7.7426331e-01   4.0790333e-02   8.5911284e-01   7.4360310e-02   5.7647374e-01  -6.9269525e-01  -8.9141711e-01   7.0219806e-01   8.1274344e-01  -9.7866485e-01  -5.6555097e-01  -5.7727224e-01  -5.3073394e-01  -1.6096367e-01   1.3931748e-01  -3.6973280e-01  -6.7319494e-01   9.7122827e-01  -1.6399984e-01  -7.4292880e-01  -5.2283284e-01  -5.5453571e-01   7.9245312e-01  -9.4107022e-01  -8.6320859e-01  -3.9777919e-02  -9.7183621e-01   6.9378939e-01  -1.7569309e-01  -4.1220074e-01  -9.2345005e-01   2.5721741e-01   4.2311484e-01   2.9795838e-01  -9.3797088e-01  -3.8810486e-01   9.2303946e-01   2.6843050e-02  -1.0524284e-01   8.1039757e-01  -3.1930155e-01   3.8875303e-01   1.7001491e-01   1.0812240e-01  -6.2431592e-01  -2.7552707e-01   2.3662414e-01   8.5828331e-01   3.0924739e-01   7.2690522e-01   8.9284980e-01   4.1860744e-02   1.1531247e-01  -1.5817706e-01  -2.3423323e-01  -9.6854621e-01   4.1453728e-01  -5.5494533e-01  -6.9792077e-01   5.6738120e-01  -4.9444615e-01  -8.6757623e-01   2.6902745e-01  -5.6206878e-01  -9.4810834e-01   3.5401410e-01  -7.4294147e-02
  -5.8651423e-02  -4.3082853e-01  -5.4264113e-01  -2.5310976e-01  -8.5421355e-01   3.1470078e-01  -4.2663080e-03  -2.8898320e-01   8.5591564e-01  -3.7704214e-01  -7.2740675e-01  -2.9217266e-01  -5.7990805e-01   9.4655366e-01   1.8430962e-01  -5.3845513e-01  -8.1977506e-01   1.3656187e-01  -5.4140862e-01   7.4212863e-01   6.6228235e-01  -5.8746151e-01  -7.6337383e-01   5.7028041e-01   9.1514251e-01  -4.5305568e-01  -5.9233439e-01  -9.3853472e-01  -4.7084693e-01   3.5681670e-01  -5.0943863e-01   2.7186625e-01   4.8650543e-01  -3.9253491e-01  -1.5275388e-03   5.1946718e-01   4.1875806e-01  -7.9067400e-01  -3.6637085e-01   3.2396561e-01   9.3299346e-01  -6.5608820e-01   5.6705498e-01  -3.4273759e-01   1.9905596e-01  -3.7619109e-01   5.3098383e-03  -6.9312398e-02  -9.1040890e-01  -7.3684909e-01   6.7771391e-01   4.6155719e-01  -2.5968040e-01  -2.0680497e-01  -1.8065605e-01   8.8986297e-01   4.5043609e-01   2.4160324e-01  -2.5252290e-01   5.8994387e-01  -5.1805478e-02  -9.2184291e-01   4.5590351e-01  -3.7427169e-01  -9.1187748e-02   2.3678105e-01   8.3072890e-02  -7.4524793e-01   9.3809174e-01  -5.1273715e-01   1.0878255e-01  -9.7404755e-01   8.9616436e-01  -7.3875863e-02  -8.2480548e-01   3.2408052e-01   9.3080144e-01  -6.5681259e-01   3.9090937e-01  -2.6021844e-02   8.3849515e-01   3.7524988e-02  -9.6023676e-01   8.2284856e-01  -4.9729909e-01   2.7116747e-01   7.5771063e-01   1.2108202e-02  -4.1310437e-01   9.4610928e-01  -1.0044420e-01   5.6203245e-01  -7.4191623e-01  -8.4872206e-01   5.5080046e-02  -6.7582845e-01   4.5534277e-01   1.8423355e-01  -4.3452350e-02  -7.4460959e-01  -8.8383865e-01   5.9010348e-01   3.9374551e-01  -7.0704922e-01  -3.7114335e-01  -5.6564257e-01   6.4274485e-01   9.0902018e-01  -6.9063102e-01  -7.6679308e-01   4.0374171e-01   6.8820654e-01   5.6042209e-01  -4.0193345e-01   4.7788130e-01   2.6464538e-01  -7.8908898e-01   3.8926438e-01  -5.0859744e-01  -6.2288017e-01  -7.9882668e-01   1.1307535e-02   9.9460972e-01   7.4980767e-01   8.8600015e-01  -9.8790277e-01   5.5302968e-01  -8.0553193e-01   3.1480111e-01  -7.3815028e-01  -8.4468545e-01  -3.6763042e-01  -2.1713285e-01   3.7858158e-01   6.3239864e-01  -1.9980470e-01  -6.7743119e-01  -8.3721212e-01   3.5075557e-01   4.7230466e-01   6.2673335e-01   9.2207572e-01   4.8374386e-01  -7.5683542e-01  -9.0429690e-01   9.0304904e-01   9.5638478e-01  -3.8278874e-01  -7.7970957e-01  -8.8799535e-01  -1.1863513e-01   5.9924836e-01  -8.8819921e-01   3.0263334e-01  -8.0029421e-01   3.1750813e-02  -4.3761481e-01   9.0675543e-03   1.3760010e-02   6.9040548e-01  -2.1058684e-01   6.1198197e-01   3.8921886e-01   4.1663788e-01  -4.6267646e-01   9.4123409e-01  -2.8849735e-01   7.5760078e-01   1.7540403e-01   2.7275839e-01  -9.9663437e-01  -2.6979959e-01   9.2584476e-01  -6.4966467e-01   8.1179869e-01  -2.0558653e-01   3.2267172e-01   3.7992521e-01  -4.6307610e-01  -9.0541919e-01  -9.0517292e-01   1.0990225e-01  -4.8506110e-01  -5.1045636e-02  -4.7601230e-02   8.1252670e-01   2.7281764e-01  -2.3141625e-01   6.3115103e-01  -5.2425630e-01  -3.0511380e-01   6.3525823e-01   4.9423405e-01  -7.6904530e-01  -3.4071517e-01   4.5931859e-01  -2.2784997e-02   9.2961787e-01   4.0299296e-01   6.7521957e-01   1.6534430e-01  -6.4371651e-01  -6.1619887e-01   8.0298210e-01   8.1679150e-01   9.7019026e-01  -9.1874016e-01  -6.6794620e-01   8.9964934e-01  -6.1479822e-01   8.2872537e-01   2.3467998e-01  -6.4857822e-01   2.9132782e-01   3.7851150e-01  -6.8951908e-01  -8.3959371e-01   9.4712580e-01  -7.5911317e-01  -1.1261935e-01   5.8158704e-01   3.5799104e-01   1.6629920e-02   9.7287975e-01  -1.6362385e-01   3.0217281e-01   6.0581960e-01  -6.4490294e-01  -7.3464977e-01   9.9038573e-02   9.5961285e-01  -7.3779851e-01  -9.6957914e-01   5.1630023e-01  -7.8434298e-01   6.1210579e-01  -5.0019827e-01   6.0328228e-01   6.2157337e-01   7.5513191e-01   5.5905811e-01   9.2067684e-01  -5.7928050e-02  -3.3009267e-01   5.1940802e-01  -4.8456033e-01  -1.2355114e-01   2.0158080e-01  -2.4497607e-01  -4.4909163e-01  -5.9990862e-01  -2.1730372e-01   3.2801557e-01  -4.0473124e-01  -4.5576292e-01   3.9103038e-01  -6.6508608e-01  -7.1632459e-01  -6.6505154e-01   2.1206970e-03   6.0788794e-01  -7.2573840e-01   6.5874925e-01  -3.4551120e-02  -6.8906869e-01   6.1057846e-02  -1.7053990e-01   2.4652020e-01  -9.5415237e-01  -5.1737623e-01  -4.2190665e-01  -7.2678073e-01  -8.6012042e-01  -9.1729674e-01   3.9014645e-01  -3.5743240e-01  -8.7988000e-01  -8.0945616e-01  -3.9543735e-01   5.7831364e-01   4.8803867e-01   4.6393461e-01   1.7952108e-01   5.8228443e-01   9.0585071e-01   4.1266773e-01  -8.2552653e-01  -6.7681064e-01  -9.7631527e-01   6.9744310e-01  -9.7237740e-01  -6.2545494e-02   9.7239514e-01   1.1999944e-01   4.8487927e-02   2.1374222e-01   8.9955020e-01  -5.7659080e-02   4.1587801e-01   1.9976622e-01   4.8276953e-01   9.3750865e-01   7.2854950e-01  -9.9732344e-01   9.2102149e-01   2.4183362e-01   9.4194714e-01  -7.4288895e-01  -6.0615045e-01  -4.3251504e-01   3.9816218e-02  -1.9150547e-01   8.1217283e-01   9.2791289e-01  -4.4414022e-01   8.9983370e-02   8.1159981e-01   7.0815181e-02  -4.7315125e-01   8.5881264e-01  -3.1823917e-01   3.5143840e-01  -3.1594033e-01  -3.0211999e-01   7.9595922e-01  -5.5821929e-01  -5.1978376e-01  -2.2829783e-02   1.4729848e-01   5.0228740e-01  -7.1636494e-01   9.4419937e-01  -9.3710800e-01  -1.8453427e-01  -8.6692528e-01   7.1093321e-02   6.6658591e-01   7.0688688e-01   4.6235268e-01  -4.6740487e-01  -7.4466127e-01  -2.0548442e-01   5.2446964e-02   3.5857182e-01   9.3952991e-01  -3.7892087e-01   2.0918350e-01   4.0639535e-01  -3.9222681e-01   5.2004812e-02   8.8758246e-01  -3.0329574e-01   1.4182763e-01   2.7673995e-01   1.2805727e-01  -5.3146510e-01   8.7730981e-01   6.7788741e-01   1.5554538e-01  -8.3819418e-01   8.8168555e-01   4.9736149e-01  -9.6406718e-01   3.5585719e-01   9.3163611e-01   8.9690987e-01  -2.8753115e-01  -6.0943915e-01   2.8164249e-01  -7.5898771e-01  -2.2463059e-01   8.4038402e-01   8.6639888e-01   1.2073037e-01  -3.3785562e-02  -1.2741077e-01  -6.6210636e-01   6.5956756e-01  -4.3432742e-02  -5.0430757e-01  -4.1882937e-01   4.7557468e-01  -4.2587601e-02   8.5427558e-01  -4.9527776e-01  -5.6728852e-01   4.2600699e-01   3.3701058e-01   3.1335192e-01  -8.1737748e-02  -7.7278550e-01  -1.7156049e-01   5.8364037e-01  -8.5126344e-01  -6.4503526e-01   4.2151981e-01   1.5638729e-01  -6.3972878e-01   8.0428861e-01  -1.6565708e-01   3.7923717e-03   2.1292741e-02   8.1636997e-01   5.1056848e-01  -1.5412802e-01  -2.2530613e-01  -5.8012324e-02   4.4575509e-01   9.0593788e-01  -5.6098612e-02  -8.7958987e-01  -6.2608523e-01  -9.5506785e-01  -5.7115814e-01   8.4199091e-01   4.4224033e-01  -3.4801773e-01  -7.1599178e-01  -9.9509998e-01  -5.6015357e-01  -7.3363423e-01   4.3888767e-01   9.7842491e-01  -5.8958866e-01  -4.5244033e-01   5.4644806e-02  -9.9956617e-01   7.6681345e-01  -9.1277098e-01   5.2089822e-01  -2.2679246e-01   4.5823225e-01   7.5879059e-01   5.9507408e-01   4.4301543e-01   1.1132770e-01  -4.9270194e-01   3.0952178e-01   9.8448827e-02   6.5604067e-01  -6.7463709e-01  -1.2776178e-01  -5.3442240e-01  -3.9477893e-01  -8.9719426e-01   9.2357923e-01   9.3494582e-01   1.5150330e-01  -8.5084352e-01  -5.6088382e-01   4.6964155e-01   5.0117757e-01  -8.4438724e-01   4.6747352e-01  -2.7517294e-01  -7.0004367e-01   4.9166306e-01   1.1713653e-01   8.5900173e-01   4.2767115e-01   8.4504990e-01  -3.4437693e-01  -6.0980669e-02  -3.6515247e-01  -9.0719833e-02  -4.4027772e-02   4.4366290e-01   4.6943458e-01   6.9177909e-01   4.6680258e-01   1.9558219e-01   4.7408224e-01   2.7020755e-02   7.2234132e-01   7.8979766e-01  -3.4884006e-01   5.3418846e-01   4.7646682e-01  -1.9235316e-01  -5.3572492e-01  -2.3181008e-01   4.3401905e-01   2.7739484e-01  -7.7676752e-01   5.0336990e-01  -7.3113108e-02  -3.2820141e-02  -6.3201243e-01  -2.9076899e-01  -6.4480985e-02   6.1538507e-02  -3.5799283e-01  -2.3129296e-01   5.5150682e-01   5.8748309e-01   8.5057706e-01   6.3744700e-01   1.4714140e-01  -5.5849459e-01   9.4544548e-01   3.9759861e-01   3.2003230e-01  -5.1220076e-01  -8.6795344e-01   3.3383565e-01   4.1851604e-01   2.0752355e-02   4.3144917e-01   4.4095681e-02  -6.8575929e-02  -8.4940283e-02   7.3468493e-01  -9.6817655e-01   1.9734286e-02   2.4859147e-01   4.2580082e-01   2.7556092e-01  -6.0446094e-01  -7.0701541e-01  -4.9010719e-01  -3.2423081e-01   5.8438815e-01  -2.7984570e-01   4.3965515e-01   7.9052694e-01   5.0146652e-01  -8.7357694e-01   2.6435608e-01   1.6712269e-01   6.3558529e-01  -8.9777711e-01   3.0658677e-01   3.3479537e-01  -9.4293944e-02  -9.0790253e-02  -8.4157072e-01   1.5368182e-01   1.0938854e-01   4.6348580e-01   1.1399587e-02  -8.9315699e-01   9.2841943e-01   5.6725456e-01  -9.5028732e-01  -8.3517219e-01   4.9000312e-01   7.0781711e-01  -5.1987672e-01  -9.7715688e-01   4.3434496e-01   8.7196320e-01  -3.2761036e-01  -8.3745881e-01  -5.0837784e-02  -8.1156867e-01  -3.1750417e-01   6.0234896e-01   2.8053682e-01  -4.0299000e-01   1.9988248e-01   9.5276534e-01   9.3042929e-01   8.8155026e-01   8.5447718e-01  -1.1122028e-01   4.2257691e-01  -1.5765641e-02   7.8271098e-01  -5.6835167e-01   4.3059405e-01  -7.1212166e-01   9.6514815e-01   3.9070421e-01  -1.0309638e-01  -6.1234842e-01  -7.5768696e-02  -2.8892442e-01   4.8724878e-01   7.6529272e-01  -6.8274248e-01  -4.7771039e-01  -4.2283602e-01  -3.1597194e-01  -2.9309413e-01  -3.2666005e-01   3.6969962e-01  -6.5414151e-01  -5.9457542e-01  -3.8316013e-01  -2.8054834e-01  -2.5735908e-01  -5.3179228e-01  -8.9832076e-02  -6.8451276e-01   6.3490328e-02   7.0818100e-01   8.1045643e-01   8.1799342e-01  -4.8207382e-01   9.6051242e-01   6.2878664e-01  -4.5671211e-01  -4.7446913e-02  -5.3108932e-01   5.3497970e-02  -6.4182745e-01   8.1398340e-01   7.0664471e-01  -4.7135143e-01   1.4770476e-01  -4.4378451e-01   6.3867045e-01  -2.4060046e-01  -5.8393716e-01  -1.3018829e-01  -9.5139793e-01  -4.2690710e-01  -3.8996580e-01  -4.7569007e-01   1.9722167e-03   5.3566460e-01   4.1059809e-01  -4.6316846e-01  -4.8022535e-01  -8.5865496e-01  -5.0664708e-01   8.6542019e-01   3.1359073e-01   5.5761239e-01  -8.8918036e-01  -7.0086927e-01  -8.7756909e-01   9.7445048e-01  -6.8581763e-01   9.6767277e-01   9.3665402e-01   4.3931654e-01   6.4496872e-01   7.8831514e-01   3.7130965e-01  -5.8318921e-01  -6.7558239e-01   3.1795440e-01  -1.8833649e-01   5.9567962e-01  -6.4623978e-01  -1.5723001e-01   9.3153890e-01   2.2899166e-01   4.4556855e-01  -7.7282401e-01  -7.8190995e-01  -4.8147608e-02  -9.4210704e-01  -5.7396515e-01  -9.3756783e-01  -7.3579321e-01   9.6760358e-01   3.1869586e-02   6.9386955e-01  -1.4785394e-02   9.4154249e-01  -8.3573104e-01   9.1993976e-01  -4.9197809e-02  -9.0521148e-01   1.0327949e-01  -6.0105479e-01   4.5769520e-02   6.0698336e-03   3.5662861e-01  -9.6921090e-01   4.1819222e-01  -5.1492259e-01   4.5500395e-01   9.9104119e-01  -6.8099836e-01   6.0188174e-01   1.7795292e-01  -8.8434895e-01  -4.2771099e-01  -1.1251269e-01  -3.9127297e-01  -1.2538507e-01   9.2202208e-01   2.7226059e-01   3.7641268e-01  -6.6045930e-01  -6.1010932e-01   2.1769938e-01   1.8671407e-01   7.8141067e-01   8.1666654e-01  -8.7109679e-01   9.8956498e-01  -8.6888521e-01   8.4426749e-01  -8.6261974e-01   3.1158834e-01   1.2187266e-01  -7.0045791e-01  -1.5590625e-01   7.3921404e-01  -8.8609297e-01   7.1791632e-01  -6.7746021e-01  -8.3698377e-01  -2.3936329e-01   5.8045240e-02  -5.2886759e-01  -5.4602384e-01  -6.4572459e-01   6.9127259e-01  -2.7654080e-02   7.7126806e-01   4.5188539e-01   6.3340430e-01   4.9207559e-01  -7.0134747e-01  -3.3400839e-01  -6.9072487e-01  -6.7048476e-01   6.5148881e-01  -5.8931340e-01  -7.9720288e-01  -7.5902766e-02   7.2260324e-01  -6.3001657e-01  -9.2346695e-01  -8.0510083e-01  -8.7926206e-01  -1.5419336e-01  -7.7574537e-01   5.9052549e-01  -7.8231650e-01  -7.9939797e-01   5.5737833e-01   6.3307283e-01  -3.6073489e-01   4.7381290e-01   7.9252666e-01  -8.7410615e-01   3.1182141e-01  -8.2279367e-01   6.0547996e-02   2.0627308e-01  -8.0653945e-01  -6.6940431e-01   9.0284119e-01  -8.9856396e-01   7.7931708e-01  -6.5820663e-01   3.2432276e-01  -3.4233766e-01  -1.5775590e-01  -7.9706456e-01   9.2557557e-01   7.6769530e-01   9.6130180e-01  -1.5104966e-01   5.5942150e-01   8.7618514e-02   5.9636760e-01  -6.7527523e-01  -7.6731946e-01   7.7603534e-01  -1.5242043e-01   9.6052496e-01  -3.0869843e-01   5.0659880e-01  -9.6030197e-02  -2.3234412e-01  -8.6662531e-01   5.7456232e-01  -6.2456980e-01   7.9267562e-01  -3.6201984e-02  -3.0432106e-01   9.9404465e-01   3.8918039e-01   1.0958891e-01  -9.2960024e-01  -8.0616792e-01   3.4072461e-01  -4.5861689e-01  -7.2616332e-01  -6.5728082e-01  -5.2620486e-01  -5.2146966e-01  -4.8448363e-01  -4.6641610e-01   3.9320165e-01  -6.6787744e-01   9.2213115e-01  -6.1389884e-01  -5.6801384e-01  -7.1690246e-01   3.9701819e-01   4.5254347e-01  -3.5048230e-01  -6.7460961e-01   1.7079242e-01  -1.4703002e-01  -3.5276821e-01   1.7312400e-01   4.8832116e-01   5.8383705e-01   6.4118820e-01  -3.2379660e-01   8.1084372e-01   1.9011078e-01   1.0810982e-01  -9.6638707e-01   5.9138973e-01  -4.7562602e-01  -5.4408385e-01  -6.0968214e-01   1.1404648e-01  -1.9029968e-01  -7.0876358e-01  -6.6643012e-01   7.5378404e-01  -4.0018184e-02  -1.0407997e-01  -2.1994780e-02  -6.3904704e-01   9.6465054e-01   8.1982970e-01   2.6155785e-01   3.2896626e-01  -6.2379646e-01   3.6524427e-01  -9.2012409e-01  -4.6458030e-01   5.2073058e-01  -8.1928693e-01  -5.8912864e-03   8.0632804e-01   9.1349159e-01  -8.6533362e-01   2.3767012e-01   6.1015599e-01   3.0835987e-03  -7.5379890e-01  -9.7929011e-01   3.6844491e-01  -6.4760280e-01   4.1121018e-02  -2.0740379e-01   8.5605533e-02   4.3317493e-01  -4.4188508e-01   4.5022862e-01  -9.0181367e-01  -1.4938598e-01  -5.9769230e-01   5.6890385e-01  -9.9191914e-01   8.3900188e-01  -3.8863763e-01  -9.7512025e-01   3.0499317e-01  -4.7046652e-01   3.7150044e-01   4.5573209e-01   2.9694075e-01  -5.7916740e-01   8.0713039e-01  -9.0149945e-01  -3.0330531e-01   5.8109957e-01   4.4979758e-01  -3.9044774e-01  -1.3514564e-01   4.7116461e-01  -9.6501083e-01  -1.9345770e-01  -8.0033068e-01  -5.3313352e-01   3.2733452e-01   9.6932792e-01   5.8277460e-02  -1.1362422e-01  -2.4960493e-01  -9.0126032e-01   6.8880590e-01  -2.3157512e-02   4.9965197e-01  -4.1636595e-01  -9.4881043e-01   2.5670106e-01  -3.7348016e-02   9.1445153e-01   8.7495756e-01   7.6206024e-01   3.2346769e-01   5.0492185e-01  -4.4928904e-01   5.5245030e-01  -5.6285559e-01  -9.3700959e-01  -1.5210386e-01  -3.8377475e-02   1.7189747e-03   8.7205325e-01   6.6938516e-01   2.2079647e-01  -5.0073654e-02  -2.1411658e-02   8.5027786e-01   3.7449513e-01  -3.7888289e-01  -4.3665692e-01  -5.1810466e-01   3.9775219e-01   5.8103010e-01   2.8625965e-01  -2.0161061e-01  -5.3148534e-02   4.5894609e-01   4.4723724e-01   1.6946532e-01  -5.9853506e-01   9.7415367e-02   7.3716083e-01   2.6684500e-01  -4.8014485e-01  -4.2343582e-02   3.3380015e-01  -4.7925874e-02   7.6889577e-01   7.7490028e-01   4.3586818e-01  -4.9991500e-01   7.7482939e-02   1.7242282e-01  -1.4330108e-01  -5.0950397e-01   8.0970103e-01  -6.5054060e-01   3.7306260e-01  -8.0275939e-01  -3.7922526e-01   7.4573606e-01   8.2713660e-01   6.0080054e-01   5.7261241e-01   6.3067289e-01  -4.0906487e-01   3.6722960e-01  -4.2253743e-01   1.9792280e-01   9.0619988e-01  -1.4120184e-01  -6.2392625e-01  -5.2406060e-01  -3.6388526e-01   6.7598947e-01   5.1334994e-01   1.6313458e-01   1.4641603e-03   2.3882367e-01  -1.2080886e-01  -8.3295674e-01  -7.1449715e-01   1.3055440e-01   7.2789357e-01   9.9319022e-01  -8.3600958e-02  -2.4676062e-01   3.1118351e-01  -2.7042546e-01  -9.7489522e-01  -9.8574878e-01   4.7998716e-01   7.5554059e-01   1.3212969e-01   9.9377251e-02  -4.1326392e-01   5.3729978e-01   7.6819266e-01   8.2444314e-01   4.8342961e-01   6.7284038e-01   5.5707962e-01   2.4843498e-01  -7.3984305e-01   6.6931731e-01  -8.4963860e-01  -6.0892809e-01  -4.1928747e-01  -8.8377637e-01   3.1604546e-01   3.1075773e-01  -9.3911665e-01   4.0310058e-01  -1.7177420e-02  -7.5287392e-01   7.9656141e-01   5.7778676e-01
   9.5185682e-01  -5.9325635e-01  -9.2128904e-01  -8.5901704e-01   7.5559361e-01  -4.7944053e-01   2.8543959e-01  -3.9347797e-01  -8.2149932e-01  -6.6813268e-01  -8.1958805e-01  -6.9066435e-01   7.4230695e-01  -1.3160944e-01   4.1037459e-01  -8.1059433e-01   6.8717289e-01   4.3399601e-01   8.5630888e-01  -5.7810550e-01  -6.5724194e-01  -7.1436524e-01   2.3794388e-01  -3.8918704e-01  -4.0368549e-01   4.0788563e-01   4.6517243e-01   8.7600403e-02  -6.6399620e-01  -6.6280793e-01  -6.9081291e-01  -7.3639384e-01   5.3390696e-01   6.2582221e-01   5.2572769e-01   5.8146822e-01  -8.9963987e-01  -6.5772054e-01   6.8943850e-01   7.4370742e-01  -1.4976764e-01  -9.2134415e-01  -2.0000932e-01  -2.2002132e-01  -4.3105295e-01  -6.4625250e-01  -8.5606266e-01   7.4965901e-01   2.9606619e-01  -7.7079935e-01  -9.4599961e-02   7.2709100e-01   2.8976161e-01  -2.3109625e-02  -6.1305586e-01   5.2597122e-01   8.9442768e-01  -2.3668333e-01   1.2812243e-01   1.1258162e-01   7.7990725e-01   4.1740859e-01   7.4853068e-01   4.8827047e-01  -3.0172074e-01  -3.7126894e-01  -6.3390804e-02   3.8592844e-01  -1.9299598e-01   8.3978303e-01   6.7831098e-01   6.7558103e-01   4.4931177e-01  -6.9828102e-01  -4.9135500e-01   8.8378830e-01   9.1516420e-01  -6.1682628e-01   2.3083748e-02   3.1492064e-01  -9.1754660e-01   1.4896850e-01  -9.4486401e-01  -7.0051258e-01  -2.6538681e-01  -8.6374725e-01  -1.9483078e-01   5.3298261e-01   3.9389523e-01  -1.9886645e-01   6.9062490e-01  -8.3904976e-03  -8.2578863e-01   1.3708425e-01  -3.5458840e-01  -4.1196011e-01  -9.7306266e-01   6.7568120e-01  -2.9730571e-01   3.1539644e-01  -8.9714559e-01  -5.5116779e-01  -2.4238165e-01   3.6867133e-01   7.8455524e-01   8.3693156e-01   2.9442464e-01   7.1306436e-01   3.1819179e-02  -8.4531234e-01  -6.0981941e-01   3.2887136e-01   4.7811324e-01  -8.4901753e-01   1.3355808e-02   1.7314838e-01  -5.6654609e-01  -7.0740203e-01   4.4816173e-01   3.5567673e-02  -1.7006343e-01  -7.7328204e-01  -5.4463009e-01   3.6408876e-01  -6.7803309e-01   2.6751852e-01   5.2143871e-01   9.2330671e-01  -2.8740420e-01   3.6014378e-01  -2.2776150e-01  -6.7043668e-01   8.4777727e-01   2.9470343e-01   6.2001210e-01   4.5456142e-01   9.1376096e-01  -4.2106832e-01   1.9004544e-01   3.5938064e-01  -7.8023136e-01   2.8005147e-01  -8.5959985e-01  -6.2829000e-01   6.1397303e-01   7.1257239e-01   8.2641075e-01   6.6324485e-01   8.0321679e-01   4.1760905e-01  -4.0989780e-01   6.5836525e-02   6.1774228e-01  -9.7618828e-01  -4.6921789e-01  -8.0285956e-01  -5.7130241e-01   4.2219565e-01   4.7985892e-01  -1.0752907e-01  -3.7083581e-01  -5.4800061e-01  -8.5668935e-01   3.0002086e-01  -6.7077274e-01   9.0165915e-01   9.2198572e-01   9.7736911e-01  -9.9079599e-01   8.5943918e-01   2.7400453e-01  -1.9786074e-01  -8.5987526e-01  -8.7914729e-02  -6.2831991e-03  -2.5174153e-01  -5.0363818e-01   4.5046490e-01  -6.7431853e-01   3.5236303e-01   5.8065732e-01   9.8624950e-01   9.5799839e-01  -2.5593720e-01   1.3652127e-01  -1.8670620e-01   9.0539618e-01   6.0531673e-01  -1.2425517e-01   5.9018734e-01   2.1507962e-01   1.6515465e-01  -9.3156948e-01  -6.4602202e-01   7.5955468e-01   8.2211951e-01  -5.2736349e-01   9.2553449e-01   2.0321338e-01   6.4008826e-01  -4.9154486e-01  -4.3606919e-01   5.0313036e-01  -8.4651198e-02  -8.9935086e-01   5.9092162e-01   2.3582891e-01   6.3245408e-01   2.3636678e-01  -9.4867494e-01  -8.1480217e-01  -8.7844040e-01  -7.9453972e-01  -8.1421817e-01   8.7168000e-01  -2.1465040e-01   1.7972345e-01  -7.8344762e-01   7.7448051e-01  -8.3409084e-01   1.6249231e-02  -8.5264857e-01  -2.7084344e-01   3.4877139e-01  -2.8243637e-01   1.6014527e-01  -1.2489103e-01  -7.7886414e-01  -4.0051663e-01  -7.0967223e-01  -4.6767765e-01  -8.2962530e-01   5.8204769e-01   9.0518941e-01   4.5765576e-01  -1.8511910e-01  -6.8849574e-01  -3.5493128e-01  -5.7376169e-01   7.3373977e-02  -6.2245489e-01   5.8092562e-01   7.2704589e-01  -4.2179893e-01  -9.7154217e-01   3.0661718e-01  -3.4427822e-02  -7.8246522e-01   3.9962170e-01  -8.7582208e-01   8.5718245e-01  -6.5404390e-01  -5.9104391e-01   9.8185039e-01  -3.3698980e-01   3.6984758e-01   2.3345682e-01   6.9436609e-01  -6.1318875e-01   1.6612628e-01   4.5211008e-01  -5.1245344e-01  -3.9404512e-01  -3.6419313e-01   8.2399356e-01  -6.8304217e-01  -3.2358763e-01  -9.0900689e-02   6.1025494e-01   9.0284096e-01  -2.2652092e-01  -5.7175389e-01   7.8664286e-01  -2.3533415e-01   4.3439765e-01   2.4075578e-01  -3.6600018e-01  -5.4335345e-01   8.2752824e-01  -9.7670385e-01   5.8368956e-01   1.4775579e-01   2.9893257e-01   9.0326969e-01  -3.9348535e-01  -9.0952809e-01  -2.7167449e-02   3.1343599e-01   2.6176994e-01   9.6727575e-02  -2.2466537e-01   8.6458441e-02  -6.4598402e-01   3.8326526e-01   1.6246257e-02   1.4984381e-01   8.4236245e-01   5.3526634e-01   4.9053036e-02  -6.1162267e-01   5.5824490e-01  -8.5573383e-01  -1.8853474e-01  -1.5440407e-01   4.0351102e-01  -2.1558209e-01  -8.7659758e-01  -4.9963331e-01   4.3045649e-01  -8.0581174e-01  -6.2303034e-01   4.0434003e-02   8.6249394e-01   4.5075819e-02   1.2991793e-02  -8.5325232e-01  -9.8301190e-01  -6.2717540e-01  -2.3383896e-01  -3.3916489e-01   8.5179914e-01   7.1725839e-01   1.6441246e-01  -5.9101809e-01   3.9750330e-01   7.8646782e-01  -3.6203614e-02  -2.8385033e-01  -4.5033855e-01   2.2905217e-01  -9.4173781e-01  -3.9730476e-02   4.2817806e-01  -7.4080898e-01  -6.4702242e-01   3.5117965e-01   4.5613167e-01  -4.8334778e-01   9.0225460e-01  -4.0050413e-01   1.9250681e-01   9.3695369e-01  -3.6976380e-02  -1.2090842e-01   2.1005808e-02  -3.5413827e-01   7.2666180e-01  -6.5933651e-01   4.8254077e-01  -6.7688658e-02  -9.2771240e-01   5.7802388e-01   9.0916294e-01   7.3618334e-01   6.9962837e-01   7.5305134e-01  -5.7142240e-02  -3.3004736e-01   9.0123236e-01   6.4534576e-01  -7.6474028e-02  -3.5429269e-01   3.8234713e-01  -1.4509607e-01   3.4493707e-01  -7.8391637e-01   4.7036122e-01  -3.2606416e-01   1.9944634e-01   8.2232795e-01   3.4358466e-01   9.5815382e-02   1.1357224e-01   2.3192277e-01  -2.3299164e-01  -9.4539952e-01  -4.1437224e-01  -1.4964527e-01  -9.0272353e-01   1.5745511e-01  -7.2176289e-01  -3.6376874e-01   5.4482648e-01  -5.0903629e-01   6.6032455e-02  -4.6122924e-01  -5.7890498e-01   2.6758352e-01   6.1475034e-01   4.5011374e-01  -7.5772991e-01  -3.2837835e-01   1.2267288e-01   9.8679729e-01  -6.3163152e-01   6.6929493e-01  -5.3772081e-01   9.9748126e-01  -9.2394478e-01   8.2966862e-01   6.5973691e-01   7.6059540e-01   1.6936971e-01   7.9646093e-01   8.9983299e-01   7.2472189e-01   6.3746257e-01   3.8210173e-01   5.9317810e-01  -3.1477761e-01   8.2213042e-01  -6.5608119e-01  -4.5831076e-01  -7.7388293e-01  -9.6451418e-01   2.9261692e-01   9.0007738e-01   7.3787209e-01  -9.5585963e-01   4.7070039e-01   3.9550913e-01  -9.0404199e-01  -5.6740957e-01  -6.5297489e-01  -1.8816732e-01   9.5355692e-01  -9.5298134e-01  -7.4604418e-01   4.9671870e-01  -2.6914709e-02  -3.0784309e-01  -7.4551209e-01   6.5850653e-01   7.5386308e-01   6.8176133e-02   6.0789315e-01   3.9474698e-03   3.9044671e-01   1.5882623e-01   4.3198382e-01   4.5234543e-01  -1.0092558e-01   6.4206879e-01   4.4857544e-01   2.2239779e-01   9.9057320e-01   9.6456199e-01  -3.8833971e-01   3.3378745e-01   2.1019336e-01   2.4448141e-01  -8.8016119e-01  -5.3494196e-01  -5.7044862e-02   9.0864935e-01   8.6363870e-01  -1.2487724e-01   5.0483647e-01   5.3112781e-01   7.0762642e-01  -8.0725299e-01  -2.3105926e-01   7.3542118e-01  -3.0241625e-01  -4.0045147e-01   5.8244350e-01   3.7472499e-01  -5.9635248e-01   2.0297892e-01   3.2734335e-01  -1.8339416e-01   7.1444428e-01   4.1880271e-01   5.1603120e-01  -3.8689204e-02  -7.4567178e-01   1.0377139e-01  -7.6137984e-01  -5.0655228e-01   9.2128718e-01  -3.3319455e-01   7.0387802e-01  -5.3357311e-01  -9.6933278e-01   7.6005595e-01  -4.6839862e-01   4.1332465e-01  -2.5012725e-01  -8.5410163e-01   7.1408340e-01  -8.8306733e-01  -4.1610033e-01  -7.3271118e-01  -9.5065774e-01  -8.2250620e-01   2.6793644e-01   4.0686063e-01   9.8033670e-01  -9.9655791e-01   5.6434070e-01   6.1988075e-03   9.5054085e-01   2.9878358e-01   8.4255892e-01   5.5773146e-01  -6.4832079e-01  -8.5574865e-01  -3.3095261e-01  -3.9354086e-01  -9.8834407e-01   2.9783486e-01  -1.8351918e-01  -1.4868465e-01  -5.1424071e-01  -1.2192670e-01  -4.1320493e-02   1.5796981e-01  -5.5080055e-01   3.6574768e-01   7.2676574e-01  -3.3840222e-01  -3.0513264e-01  -2.4911243e-01   1.4741009e-01   5.9987306e-01   7.9058473e-01  -3.7419908e-01  -6.4109515e-02   7.8432369e-01  -7.1811515e-01   4.7085970e-01   1.3496765e-01  -4.9333046e-01   8.7631308e-01  -3.6094067e-02  -2.9087734e-01   8.6912639e-01   8.4354071e-01   1.9421831e-01  -4.1604733e-01   7.8007786e-01   9.4732205e-01  -3.7958575e-01   3.5328181e-01  -1.8010015e-01   8.1991226e-01   7.8225471e-01   3.3474594e-01  -7.3230889e-01  -8.9291082e-01   3.5737975e-01  -7.6674691e-01   6.5200889e-01  -1.5836714e-01  -9.3953388e-01   4.9888076e-01   6.7912472e-01   4.5798757e-01  -1.4101508e-01   8.2912403e-01  -8.1614918e-01   7.3928927e-01  -6.0077012e-02  -2.4731305e-01   9.2924159e-01   8.3681248e-01  -6.7586790e-01  -7.6665476e-02  -1.7490119e-01   6.2281934e-02   2.5481448e-01   2.4545549e-01   2.2538458e-01   4.6044515e-01   6.5973994e-01   4.2550630e-01   8.4433310e-01  -1.7620588e-01  -3.0042126e-01   1.4358502e-01  -2.8010398e-01   3.0561542e-01  -9.4038208e-01  -5.3333923e-01   3.3163659e-01  -2.9691858e-01  -9.6491838e-02  -6.4451357e-01  -1.9821401e-01  -3.9747071e-01  -7.8878207e-01   1.1664607e-01   9.7624184e-01   4.3669582e-01   9.7689361e-01   2.6046911e-01  -7.8313212e-01   9.1438807e-01   8.7129323e-01  -9.2636534e-01   6.5331586e-01   4.0723983e-02  -1.7005195e-01   2.3923108e-01   6.1806609e-01   8.4574068e-01  -4.7784744e-01  -6.2807367e-01  -4.0343774e-01  -4.6220146e-01   7.3340534e-01   7.0557330e-02   5.9610301e-01  -7.1022130e-01   8.2320291e-01   7.6439385e-01   8.5744090e-01   5.3961256e-01   2.1115938e-01  -6.6617807e-01  -3.9501244e-01   7.6050128e-02  -8.0594023e-01  -4.6354170e-01  -5.4934909e-01   6.7416136e-02  -1.0624267e-01  -5.9819357e-01   5.9513992e-01  -7.5137825e-01  -1.2295158e-01   8.7748435e-01   4.1130935e-01   6.3932782e-01  -9.0497362e-01  -3.2700415e-01  -5.7944071e-01   7.5061601e-01   9.0124406e-01   7.3432563e-01  -2.5120471e-01   3.8889185e-02  -8.5815690e-01   2.8621625e-02  -8.4377093e-01  -1.4802901e-01  -4.2596636e-01   6.5328449e-01  -3.3899309e-02  -7.2386050e-01   6.6045434e-01   5.2586662e-01  -6.1782906e-01   9.2847668e-01  -8.5650477e-01  -9.8646955e-01  -8.0981989e-01  -6.6227021e-01  -9.6716918e-01  -1.0564436e-01   7.5683777e-01  -1.5737357e-01   6.2210115e-01  -4.1649744e-01   8.9169682e-01   3.8552050e-01  -5.3155555e-01  -6.5990302e-02   8.5123210e-01  -7.2674434e-01  -2.9680219e-02   8.0640666e-01   6.7036673e-01  -2.8851417e-01   2.7310696e-01   2.0041604e-01  -8.5091248e-01  -5.5413197e-01  -3.7789542e-02  -2.0257243e-01   1.7501458e-01  -5.4300170e-01   2.7006980e-01   1.7075101e-01  -6.5715964e-01   2.7706139e-01  -3.2201567e-01  -5.4900727e-01  -6.2744890e-01   7.1400847e-01  -2.1571066e-01   9.1144256e-01  -8.0962052e-01  -8.4184446e-01  -4.4374208e-01   4.1844396e-01  -2.2748891e-01   1.5399248e-02  -3.4672853e-01   2.2926867e-01   3.0403074e-01   5.3224798e-01   3.8660514e-01   3.1301903e-01  -4.8966227e-01  -8.4790979e-02   2.5943507e-01  -3.3067009e-01  -8.5037457e-01  -5.4309552e-01  -1.8866517e-01  -6.9492041e-01   7.6120400e-01   9.3744915e-01  -4.4143302e-01  -3.6620261e-01  -8.6826963e-01  -2.8261165e-01  -1.0968511e-01  -1.4228819e-01  -3.9182065e-01   4.3807516e-01   1.3518358e-02   8.4336548e-01   3.9567334e-01  -6.4233448e-01  -4.9125912e-01  -8.7351151e-02   7.0941942e-02  -3.0411203e-01  -4.3370538e-01   5.5793793e-01   7.3890283e-01  -3.7078613e-01   8.0139354e-02  -6.9991955e-01   6.6332767e-01  -2.3408721e-01   3.2218243e-01  -9.0437411e-01  -4.8810651e-01  -4.7333720e-01  -7.2871803e-01  -4.7896846e-01   1.6807855e-01  -7.8224088e-01  -3.2412671e-01   9.1727342e-01   7.2873970e-01  -9.7047340e-01   9.1645324e-01  -4.4843946e-01  -5.0653987e-02   4.9490976e-01  -5.0454782e-01  -2.2950058e-01   9.1080470e-02   2.6576782e-01  -9.9654337e-01   4.0896219e-01  -1.4150341e-01   7.1182780e-01   9.9245736e-01   1.7960075e-01   3.7269196e-01   4.4179432e-01  -5.7393099e-01   1.8233831e-01  -7.1631812e-01  -7.6360174e-01   8.4453788e-01  -8.0944481e-01  -6.2061555e-01  -5.4236403e-01  -7.7544489e-01   3.9228221e-01  -8.5687817e-01  -4.5698987e-01  -5.3334534e-01   2.2772275e-01  -3.1650540e-01  -6.5935493e-01  -4.9827436e-01   1.7367579e-01   9.7283484e-01   3.7772509e-01  -8.4499994e-01  -1.2740956e-01  -8.8307169e-01   5.0615463e-01  -3.1982743e-01  -1.5659829e-01  -8.7917893e-01   3.5607047e-02   3.7161684e-01  -1.3568214e-01   1.6227024e-01   7.9471567e-01  -5.7906745e-01   9.8583661e-01   8.0338875e-01  -7.7395946e-01  -3.7983200e-01  -5.2179899e-01  -7.0101098e-01  -4.1361323e-01   3.3895660e-01  -3.4318133e-01  -1.5952603e-01   8.6450180e-02  -1.2160448e-01  -2.9642033e-01   3.5175369e-01  -5.3063683e-02  -4.4501099e-01  -3.2379295e-01   4.0529833e-01  -3.5635206e-01  -4.8621239e-02  -1.0570670e-01  -7.3089257e-01  -8.6233722e-01   7.4490916e-01  -8.6606569e-01   3.4490369e-01   5.1669504e-01  -5.1050074e-01   3.9674952e-01  -9.3827442e-01  -5.9633645e-01  -1.1766518e-01  -1.3562404e-01  -6.4808047e-01  -3.4847487e-01   2.1876068e-01  -6.8595440e-01  -3.3320308e-01  -4.9983310e-01  -6.5831887e-01  -5.6456311e-01  -6.1960017e-01   4.0336303e-01   2.9955891e-01  -1.5946747e-01   2.1277885e-01  -7.8494196e-01  -6.5790250e-01  -2.6626652e-01  -9.3057723e-02  -1.1714994e-01   5.1663496e-01  -1.5723037e-01  -4.8760542e-02   5.2319948e-01  -8.9021655e-01   4.2378612e-01  -9.5009574e-01  -5.8157041e-01  -7.4915828e-01  -5.6685360e-01   5.3887558e-01   8.2288263e-01   2.3528478e-01   6.2815716e-01  -9.4392956e-01   4.8439916e-01  -9.9489406e-01   8.9386152e-01   4.9530624e-01  -4.5544149e-01   4.8328874e-01  -1.8643096e-01   8.2717699e-01  -1.6819028e-01   7.2191568e-01   8.3754041e-01  -9.8413991e-01   5.4057292e-01   7.0713008e-02  -9.3624919e-01  -5.4682464e-01   2.3296130e-02   3.2945580e-01   7.3082519e-01  -3.8712902e-01  -9.1792914e-01   3.1911484e-01   3.6048081e-01   9.6527487e-01  -8.0192597e-01  -9.6651068e-01  -2.0315031e-01   1.4722605e-01  -7.4725182e-01  -7.7962832e-01  -1.2264203e-01  -2.3955603e-01   9.1637721e-01   7.1557759e-01   1.9477057e-01   8.3778599e-01   9.5357899e-01   3.7563982e-01   1.3071594e-01  -5.2679623e-01  -5.3073714e-01  -3.7988078e-01   4.2831968e-01   7.9903624e-01  -4.0778315e-01  -4.1825957e-01  -5.5753573e-01  -7.9210954e-02   6.1699032e-01  -9.4768589e-01  -8.8138344e-01   6.9473894e-01  -9.0717997e-01  -2.3750171e-01   4.5588657e-01   7.5532215e-01   7.2070012e-01   1.0316366e-01   5.9621108e-01  -7.1778092e-01  -9.9249510e-01   1.6171799e-01  -2.2469021e-01  -6.4087441e-01   5.3595944e-01   2.3950643e-01  -9.8167186e-01  -5.5553980e-01   8.1230556e-01  -6.2825357e-01  -4.4274032e-01  -1.4068815e-01  -5.7738256e-01   1.8134397e-01  -8.7627961e-01   1.4564121e-01  -8.8075150e-01   9.2104405e-01  -7.0687722e-01  -1.3943449e-01  -7.6542640e-01  -7.5286440e-01   6.7646235e-01  -1.1114860e-01   2.9925696e-01   7.1844079e-01  -3.0269120e-01  -9.2512474e-01   4.5962470e-01   9.6579691e-01  -2.6478647e-01   1.5119743e-01  -8.6996553e-01  -2.8586280e-01  -3.9842025e-02  -8.8237951e-01   1.3005042e-01   2.0780699e-01   9.7639945e-01   6.5890623e-01  -8.0190251e-01  -5.5603655e-01   2.2890864e-01  -5.4171727e-01  -5.7034769e-01   7.0487940e-01  -4.4218851e-01  -7.8504811e-01   3.3920878e-01  -6.3855636e-01   3.1978612e-01   2.2543821e-01  -8.1171692e-01  -3.9488793e-01  -7.4104825e-01  -6.6635134e-01   7.4563673e-01   3.8940653e-01   6.5715787e-02  -7.7811260e-01   9.5425441e-01   2.4218590e-01  -9.0266926e-01  -8.5490643e-01   6.0880101e-01   1.6149923e-01   6.6604829e-02  -2.1136293e-01  -5.2035660e-01  -7.0259265e-01  -4.3883211e-01  -5.0294355e-01   8.6363915e-01  -1.1488147e-01   1.0739624e-02
  -3.0352086e-01   4.1197349e-01   1.3930859e-01   2.4764414e-01  -6.9235885e-01   5.7027765e-01   2.9262315e-01   1.7620753e-02   8.8849953e-01   7.2845592e-01  -6.1859456e-01   5.7485668e-01  -4.4178537e-01  -2.1983606e-01   1.8381596e-01   3.2357537e-01   1.0447424e-01  -2.4822569e-01   2.9226172e-02   7.6561762e-01  -9.8064900e-01   3.2295289e-01  -1.6845926e-01  -2.9637623e-01   4.9070604e-01  -2.6413704e-01  -7.3940933e-01  -8.7626957e-01  -1.8631545e-01   6.6425882e-02   2.7626099e-01   1.3849250e-01  -9.3386228e-02  -3.7216563e-01   8.1795318e-01   4.4900481e-01   3.2706137e-01   3.9505718e-01  -8.4626313e-01   3.0781339e-01  -4.8929375e-01  -2.5667478e-01   3.8085169e-02   9.7726502e-01  -8.3032710e-01  -5.6861666e-01  -3.9146670e-01   5.2116095e-01  -7.6049946e-01  -7.9965236e-01   5.1821989e-01   1.9495452e-01   4.3030844e-01  -5.9518901e-01  -3.2063999e-01   1.1078015e-02  -9.7623262e-01  -6.6327043e-01   6.8060444e-01   4.3437521e-01   9.0191704e-01   4.1219953e-01  -1.0159161e-01  -9.9952677e-01   9.6840483e-01   5.5113764e-01  -4.3720994e-02   4.8232774e-01  -6.3685661e-01  -5.1677951e-01  -8.6480541e-01   5.7931689e-01  -4.4152322e-01  -7.3485756e-01  -8.4463350e-01   1.8514435e-02   6.0285602e-01  -5.0073101e-01   5.5326943e-02   3.5290759e-01   4.1705586e-01   2.2153368e-01  -7.6404484e-01   6.4233252e-03  -9.3667923e-01  -1.3118968e-01   1.0031856e-01  -3.5314960e-01   7.5421785e-01  -7.5547566e-01  -5.2509727e-01   9.0234375e-02   2.2865704e-01  -6.0557255e-01  -7.9928812e-01  -1.4259050e-01  -5.4031094e-02  -1.4494705e-01  -7.3745510e-01   2.2488316e-01   9.3426839e-01  -3.4760086e-01   2.8365059e-01  -4.2305553e-01   8.3364010e-01   5.7003653e-01   8.2058958e-01   1.7765000e-01  -4.6424197e-01   1.0289783e-01  -8.9583182e-02   3.1910465e-01   6.1479965e-01  -7.6613671e-01  -1.2922521e-01   3.3485584e-01   6.3587008e-01  -8.3347649e-01  -2.7857454e-01  -1.8378170e-01   5.7116275e-01   9.0539062e-01   7.9891672e-01   8.5665333e-01   1.3368279e-01   4.6158769e-01   3.3312138e-01   4.7945972e-01   4.1492005e-01  -1.0478717e-01  -5.2916267e-01   6.3361454e-01   2.7909268e-01  -1.3377070e-01  -3.3817268e-01  -3.3254954e-01   3.1635912e-03  -2.4167756e-01  -7.9940429e-01  -5.8340318e-01   8.2072381e-01  -8.0457480e-01  -9.4713683e-01  -5.1777718e-01   6.3458672e-01  -2.1636947e-01  -2.2606466e-01   7.5815663e-01   8.9427722e-01  -7.4886998e-01   5.1866398e-01   8.1688414e-01   3.6990146e-02   2.5930684e-01   3.9256962e-01   5.0768328e-01  -8.2537984e-01   4.9252860e-01  -3.7224694e-01   7.4905817e-01  -7.3780860e-02  -8.1160393e-02  -7.7240580e-01   7.4093539e-01  -3.7160199e-01  -5.7278212e-01   1.7373470e-01  -2.0718370e-01   6.1707607e-01  -8.9592768e-01   2.1600294e-01  -8.6331674e-01   7.8508631e-01  -3.2058188e-01  -8.6834724e-01  -1.8834063e-01  -4.7173669e-01  -7.7579781e-02  -4.0969324e-01   4.2618455e-01   8.8475310e-01  -6.7444770e-01  -7.6289765e-01  -3.4739121e-01  -4.9433425e-01  -6.3977550e-01   3.4132151e-01  -6.7408001e-01  -3.8209602e-01   6.2940980e-01   7.5249699e-01   7.0531962e-01   2.7776887e-01  -9.2508148e-01   3.4623887e-01  -8.0879522e-01  -6.0358535e-01   2.5894232e-01  -6.7402711e-01   3.1258705e-01  -7.0284785e-01   6.6166629e-01  -1.8878669e-01   7.8715934e-01   5.7931185e-01  -3.0156660e-01  -3.3320828e-01   5.2531642e-01   7.1388141e-01  -4.0610765e-01  -1.2774444e-01   3.8227164e-01   3.6098601e-01  -5.5523430e-01   8.9225116e-01  -7.3352844e-01   5.8155272e-01  -2.3193313e-01  -8.0722912e-01  -7.5064726e-01  -9.8024574e-01  -2.9222134e-01  -5.1300490e-01   7.5750302e-01  -2.5336676e-02  -6.1671948e-01   7.0074402e-01  -2.3541807e-01   4.0355169e-01  -1.1392727e-01  -8.2964851e-01   6.5416553e-01   6.4650443e-01   9.6176817e-01   2.3298640e-02  -2.2387795e-01  -8.7401941e-01   6.9067121e-01  -6.1776374e-01  -3.3920269e-01  -7.1037120e-02   6.6565803e-01  -4.4116108e-01   3.4669079e-01  -8.8294085e-01   8.4006639e-01   6.8936201e-01  -4.6835968e-02  -2.5593181e-01   6.3520597e-01   8.9073603e-01   7.6433025e-01  -4.8537455e-01  -8.8567363e-02   2.1966630e-01   2.9234398e-01   4.1818232e-01  -3.0761155e-01   7.9658295e-01  -3.9555567e-01  -8.8456986e-01   7.7525987e-01   3.7245195e-01   8.0445856e-01   3.0569100e-01   1.2704441e-02   6.0641794e-01  -4.6466424e-01   8.8489973e-01  -9.9565175e-01   2.3370607e-01  -9.9539352e-01  -3.8204446e-03   5.0551067e-01   8.6574880e-01   3.5783163e-01   8.6440384e-01   2.5986022e-01   6.4082859e-01  -9.9518347e-01  -9.7738158e-02  -6.5616394e-01  -7.4035890e-02  -8.8253118e-01   7.4606637e-01  -2.0972221e-01  -7.6403086e-01   5.9060305e-01   1.5725844e-02   4.8062078e-01  -3.1821629e-01   2.2972862e-01   1.9221161e-01  -2.0122802e-01  -2.6963649e-01  -3.4196684e-01  -7.8318381e-01  -9.1205377e-01   5.1199374e-01   7.8868727e-01  -4.0964344e-01   8.1055593e-01   3.5774191e-01   9.8245152e-01  -1.1873228e-01  -2.6486558e-01   6.7233648e-02  -7.1533930e-01  -2.7505715e-01   6.4617422e-01   5.2999965e-01  -9.6140614e-01  -2.8840000e-01   6.8015349e-01  -8.7631520e-01  -2.0873322e-02   6.4597391e-01   6.0019442e-02   3.8948257e-01  -6.0698755e-01   5.1333623e-01   5.0481497e-01   2.1332839e-01   7.1482175e-01  -3.2188507e-01   4.7751962e-01  -9.7015778e-02   3.7564347e-01   7.3711224e-01  -2.2408902e-01   2.9131703e-04  -2.3379704e-01   4.0485047e-01   8.9650498e-02  -1.6590838e-01   8.9273833e-01  -2.5447042e-01  -9.7116437e-01  -7.0226820e-01   7.2100394e-01   8.4247789e-01  -8.5138536e-01  -4.9088868e-01  -6.4213127e-01  -3.4655821e-01   4.1712376e-01   8.9206338e-01   7.8749131e-01   2.1270776e-01   4.4761094e-01   7.8872334e-02  -7.1912700e-01  -9.4295461e-01  -4.9770767e-01   4.6262569e-01   3.2736862e-01  -8.8683634e-01   7.2414028e-02  -8.6954652e-01   1.4766119e-01   8.8888487e-01   4.3975889e-01   4.0153409e-01   5.1906790e-01  -4.3088385e-01   2.1201848e-01   6.5694519e-01  -5.7285105e-01  -5.4974631e-01   2.5525442e-01   1.5616728e-01  -8.9318019e-03  -4.9548311e-01  -6.4609288e-01  -8.6712344e-01   8.3934061e-01   5.6471997e-01   2.7877347e-01   6.3931838e-01  -7.5633810e-01  -1.9887497e-01   9.2067200e-01  -8.4794572e-01  -5.5552706e-01   6.7750983e-01   9.0453836e-01   5.6530101e-01  -6.1770167e-01  -7.2916266e-01   9.0229204e-01   7.4116395e-01   4.5863775e-01   9.8160385e-01   4.8343667e-01   5.4662345e-01   9.1485006e-01  -3.1573430e-01  -3.6865676e-01   5.0847681e-01   6.9919017e-01  -2.3979002e-01   7.2028990e-01   4.3588844e-01  -6.2074025e-01   4.2460215e-01   4.0833600e-01  -6.9444845e-01  -2.5086823e-01   3.7821598e-01   9.8002263e-01  -6.3329382e-01   8.9810332e-01   6.2922601e-01   5.1519203e-01   1.1117264e-01   6.8503666e-01   2.3668737e-02  -6.0112985e-01   5.8504209e-01  -2.0960611e-01   8.2784174e-01  -4.6406311e-01   3.2049108e-01   8.5972068e-01   1.8331680e-01   3.4298789e-01   5.1773694e-01   6.1208452e-01   6.2653938e-01  -6.7610845e-02   9.9815356e-01   2.6189786e-01  -3.2900646e-01  -3.8266615e-01   2.7702831e-01  -4.5824022e-01   9.9417537e-01  -9.0987257e-01   4.1171288e-01   4.4990740e-02  -6.6315363e-01   2.1188126e-03   2.0988935e-01   5.6327025e-01  -5.3916027e-02   4.4981006e-01  -3.5588067e-01  -9.9978249e-01  -5.5092363e-01  -7.9204981e-01   2.7012555e-01  -6.6937278e-01   5.1464081e-01  -2.6006133e-01   9.5145870e-02   9.7203033e-01  -8.5560945e-01   7.1079264e-01  -8.7777959e-01  -8.9469660e-01   2.1638287e-01   6.0975494e-02   5.8027088e-01   4.8936858e-01   6.1333079e-01  -2.6503276e-01  -2.1014194e-01  -2.4953695e-01   7.4150017e-01  -7.9103812e-01  -6.9155292e-01   7.5306294e-01  -6.3557468e-01   8.6147961e-01  -7.9582513e-01  -5.5985895e-01   2.1856727e-01  -6.2640047e-01  -9.2982504e-02  -8.3960065e-01   4.4847118e-01  -9.3376879e-01   4.1190279e-01  -1.7705698e-01  -5.6256277e-01   4.8749647e-02  -1.5511585e-01   5.0134295e-01  -7.8338119e-01  -2.3731069e-01   6.3934436e-01  -6.3314024e-01  -6.3417786e-01  -7.0109223e-01  -4.5520179e-01   6.6809910e-02   2.8001977e-01   2.6244081e-01   7.7286600e-01   2.9512838e-01   4.2190515e-01  -4.9588911e-01  -9.9024768e-01  -2.1069345e-01   7.9850749e-01  -1.6135781e-01   3.8490106e-01   7.5204408e-01   8.9545974e-01  -2.7779183e-01   7.7159937e-01  -8.5356025e-01  -1.6211673e-01  -5.4771363e-01  -1.2451215e-01  -4.8638515e-01  -9.6380373e-01  -2.9794888e-01  -3.8803079e-01   7.8778556e-01  -6.1507896e-01   1.4041321e-01   2.9292091e-02  -3.8071177e-02  -3.0291319e-01   4.7267361e-01  -8.7281483e-01  -6.1961076e-01  -9.4134875e-01   2.8051111e-01   4.4841900e-02  -6.7240087e-01  -2.2850173e-01  -7.5818769e-01  -8.1964810e-01  -7.0451751e-01  -3.7672425e-01   1.3420418e-01  -8.4818852e-01  -2.9501795e-01   6.2952766e-01   9.3446218e-02  -5.4845444e-02   8.3279384e-03   6.3105123e-01  -4.9980401e-01   6.2548132e-01  -5.5658218e-01   2.4183092e-01  -8.7057170e-01   4.6462755e-02   4.4760189e-01   2.5215770e-02   7.8543637e-02   1.8246687e-01  -9.5521209e-02  -7.3569323e-01  -7.8881456e-01  -8.4319446e-01   1.6063244e-02   6.4153579e-01  -5.0359696e-01   9.4056092e-01   1.0449111e-01   9.5568301e-01  -9.2218597e-01  -2.7713431e-01  -1.8679561e-01  -9.9365288e-01   9.9414528e-01   9.5989167e-01   3.6200353e-01   9.6485223e-01   7.1893806e-01   1.8800130e-01  -7.9914419e-01  -5.7808231e-01   3.0050755e-01   4.7316099e-01   5.2012865e-01  -9.1573605e-01   1.3861009e-01  -1.7307148e-01   2.2240455e-01   6.7374140e-01  -9.1266629e-01   7.8911084e-03   3.6027792e-01  -5.0185847e-01   6.4660018e-01  -5.0134339e-01   4.5379383e-01  -3.7308053e-01   6.0432241e-01   8.6529761e-01   3.3536279e-01   8.2358424e-01  -9.6846894e-01   4.1203065e-01   2.1096474e-02  -7.8802698e-01  -5.8657907e-01   3.3833318e-01  -4.0808846e-01   8.1522563e-01  -1.0204243e-01  -3.0854867e-02  -4.9461206e-01  -8.8108729e-01   9.6091219e-01   3.5301355e-01  -9.0850027e-01  -6.8074402e-01  -3.6077010e-02   9.5434647e-01  -6.3408341e-02   8.3598870e-01   1.1787078e-01   6.0951506e-01   4.3384549e-02  -1.6973133e-01  -4.8216672e-01  -3.6861744e-01  -8.9069567e-01  -5.0248900e-01  -9.3928933e-01   6.1164655e-01   2.1569537e-01   1.3506572e-01   5.1918544e-01  -5.6054069e-02   4.5385215e-01  -6.4427509e-01   8.3222937e-01  -1.6737821e-01  -7.7226010e-01  -7.0466183e-01  -3.3756499e-01   7.7396521e-01  -9.5549931e-01   4.9633018e-01  -5.2237480e-01   5.2586378e-01   1.0259511e-01  -2.6814299e-01  -8.0401365e-01  -9.8620207e-01   4.8265858e-01   6.0438386e-01  -2.1966631e-01   6.6478841e-01  -2.3284750e-01  -1.6067761e-02  -1.7015651e-01   9.4276947e-01  -5.4186812e-01  -8.0282074e-01  -6.3004433e-01   6.4920620e-01  -3.2737993e-01  -3.0969876e-01  -1.1878191e-01  -7.8427932e-01  -8.3596151e-02   6.8042482e-01   4.4902528e-01  -2.0028335e-01   9.8053073e-01   8.6798634e-02   5.4695299e-01   8.1052712e-01  -8.7861651e-02  -1.1243848e-01  -5.2555078e-01  -5.8496310e-01  -3.5552114e-01  -2.2659323e-01   7.4757214e-01   6.0310919e-01   4.8492937e-01   6.6350566e-01   9.9556958e-01   6.4621725e-01   4.6845722e-01  -6.1114903e-01  -2.0084357e-01   4.4610629e-01   5.3588277e-01   1.3737799e-01   8.4777900e-01  -9.1964222e-01  -7.8976719e-01  -1.7784902e-01  -1.7445228e-01   8.8135786e-01   9.7295594e-01   3.4390285e-01   4.7895326e-01   4.1346546e-03  -9.0544939e-01   7.1864386e-01   2.5382244e-02  -2.2123048e-01   2.6543043e-01   4.3681923e-01   3.2144849e-03  -9.4284782e-01  -2.6859917e-03  -3.0030586e-01   5.6482239e-01  -9.8507551e-02   5.0210490e-01  -1.1581032e-01  -2.0831797e-01   6.7454403e-01  -9.4505438e-02   9.3262413e-01  -1.4406323e-01  -1.8436570e-01  -5.0954367e-01  -6.3192531e-01  -5.9577088e-01  -8.4292303e-01   7.2097562e-01  -7.4439359e-02  -3.3086545e-01  -2.0300047e-01   6.0909182e-02   9.9751279e-01  -5.9274915e-01   8.5495977e-01  -6.3184362e-01   2.7683397e-01   8.0059830e-01   5.3760193e-01   6.1018343e-01  -4.4416818e-01   2.8523123e-01  -3.4532648e-01  -4.9971509e-01   1.1363886e-01   9.6081981e-01   6.8117932e-01   4.0804565e-01  -8.9104775e-03   9.8639809e-01  -5.5730952e-01   4.4212804e-01  -5.9790434e-01  -3.7618209e-01  -5.3802410e-01  -7.6775559e-01  -7.5240113e-01   1.1148171e-01  -1.0732153e-01   4.3734600e-01   6.0468260e-01   1.8511537e-02  -6.7280993e-02  -3.0730001e-02  -2.8577246e-01   5.0498091e-01   2.5037275e-01   3.0632984e-01   7.6225756e-01   5.1298059e-02  -5.6166093e-01   1.8551802e-01   1.3825224e-01   4.0906101e-01   9.8817576e-01  -4.3221777e-01  -8.6068272e-01  -1.3778682e-01   5.1587936e-01  -3.3868385e-01   9.3832882e-01   5.2874518e-01  -7.4385997e-01  -3.4044244e-01   7.7931409e-01  -7.5833313e-02   6.9934184e-01   7.3033658e-01   1.8812644e-01   2.6108528e-01  -9.0089627e-01   1.2557458e-01  -8.0764447e-01  -8.2939866e-02   7.4464823e-01   3.3362174e-01  -8.3746867e-01   9.7991953e-01  -2.7487733e-02   3.7261303e-01   7.5105357e-01   3.7940334e-01   4.0134059e-01   6.2909520e-01  -8.6738365e-01  -2.4785210e-01   7.0694062e-01  -6.3488390e-01  -2.6437888e-01   3.4088527e-02   6.2051923e-01   6.0805842e-01   4.0171448e-01   3.2456488e-01   5.3438397e-01   2.6280572e-01  -5.6652972e-01  -6.9927489e-01   3.3900839e-01   8.7131130e-01   1.0616214e-01   5.3799522e-01   5.5832496e-01   5.6392445e-01   4.4089419e-01  -8.0957228e-01   9.0534297e-01   5.6979950e-01   5.6452175e-01   5.0878696e-01  -7.8668208e-01   8.5066628e-01  -6.3112984e-01   6.5323905e-03  -9.9412201e-01  -2.9039008e-01  -2.1127770e-01   7.0369236e-02   8.4781630e-01   5.4316795e-01   8.5569793e-01  -7.4537137e-01   8.3445091e-01   4.1777380e-01   6.8134561e-01   8.8215811e-01  -6.7624382e-01  -1.7142886e-01   1.9510035e-01  -8.1030597e-01  -2.9013293e-01   2.6432254e-01  -4.8127560e-01  -4.5815241e-01   9.8728203e-01  -9.9248529e-01  -6.4325289e-01   8.6995955e-01  -6.1782731e-01  -3.3974002e-01   6.4935423e-01  -4.1826927e-01   2.4924285e-01   5.9027107e-02   4.1446958e-01   5.1681818e-01   9.6562625e-01  -8.6642590e-01  -4.1280333e-01  -6.5696786e-01   1.9726833e-01  -1.1414896e-01   1.4473757e-01  -8.0053016e-01   2.6207604e-01   3.4867435e-01  -6.5388635e-01  -9.1829265e-01  -7.3727163e-01   5.3315913e-01  -2.3494773e-02  -8.1273029e-01  -6.2787008e-03   6.5621929e-01   5.7201619e-01  -2.6988376e-01  -8.4801057e-01  -2.1221414e-01  -5.2063497e-01   7.0663614e-01  -5.5149172e-01  -4.9706151e-02  -4.0941599e-02  -4.5012358e-01  -4.8165674e-01  -5.8259387e-01   8.0173799e-01  -2.1099440e-01   3.0907470e-01   8.7040958e-01  -7.3485174e-01  -8.6288413e-01   2.4314403e-01  -5.2074506e-03   1.2133755e-01   6.8867015e-01   1.8629337e-01  -2.2244400e-01  -2.9741079e-01   1.5085830e-01  -6.6908336e-01   8.3188544e-01   7.0859830e-01  -8.1105967e-01   3.3843125e-01   4.2856698e-01   2.4100184e-01   7.7438115e-01   3.9158302e-01   2.1542240e-01  -5.6975145e-01   7.0945474e-01  -2.4807120e-01   1.5737504e-01   2.9210277e-01  -4.5159316e-01   9.1201053e-01   6.8870399e-01   6.8535105e-01   1.1344046e-02  -1.3353528e-01   3.3749082e-01  -9.4400601e-01   5.8928373e-01   3.4607723e-01   1.0044704e-01   1.9333685e-01   5.1672770e-01   3.8519870e-01  -5.2588197e-01   9.9659270e-01   5.7127777e-01   1.6816426e-01  -3.1312243e-01   2.8520517e-01  -3.0419776e-01   1.9696882e-01   7.7099567e-01  -6.8780799e-01  -4.5849469e-01   4.7855041e-01   8.6773140e-01   6.4561252e-01  -8.1100012e-01   9.4448910e-02   5.8363880e-01  -2.3479453e-01   8.3096517e-01   3.4780065e-01  -3.7923076e-01  -8.8226915e-01  -1.7665298e-01   4.4502927e-01   7.7556709e-01  -6.3678062e-02  -9.9807754e-01  -7.6915627e-01  -6.8928754e-02  -8.4741890e-01  -9.2352093e-01   5.3520266e-01   3.4847182e-01   8.7589240e-01   7.1911013e-01  -4.4452522e-01  -9.6002106e-01  -1.1144519e-01   4.0473969e-01   6.8891338e-01  -8.8451821e-01  -5.4421240e-02   5.1020662e-01  -1.6861443e-01   9.3855599e-01  -2.2387508e-01   2.1742426e-01  -4.8004622e-01  -5.3027762e-01   9.0481905e-02   8.8366233e-01  -3.0436281e-01   6.3838849e-02   8.9049670e-01  -2.6601249e-01  -8.5764454e-01  -9.9983010e-01  -6.3101145e-01   9.1735031e-01   6.6944561e-01   1.3128022e-02   6.6079765e-01  -8.1577335e-01   4.2753164e-01   6.5857047e-01
  -1.8337679e-01  -5.2735344e-02  -7.1765096e-01   5.0871155e-01   9.1026250e-01  -6.0204643e-01  -2.6364928e-01  -3.0138817e-01  -4.6052982e-01  -7.8987136e-01   2.5056884e-01   6.8412361e-03  -1.6577956e-01   5.6704743e-01   2.3232165e-01  -8.2882053e-01  -3.5687690e-01  -5.1769403e-02  -1.5730098e-01  -9.4409436e-01  -5.8260729e-02   7.5744682e-01  -8.0890330e-01   9.1617902e-01  -4.0641058e-01   6.5960137e-01  -1.5040207e-01  -8.7398792e-01   8.0798822e-02   7.5285969e-01  -1.0902744e-01   3.9521435e-01  -9.3061337e-01  -7.0830999e-01   9.4392997e-01  -3.7173311e-01  -1.9404866e-02   4.6328307e-01  -2.6504422e-01  -8.3798836e-01  -5.8271186e-01  -1.2600410e-01   1.5461820e-01   2.9650369e-01   3.4739806e-01   1.6728653e-01  -2.6293840e-01  -3.5045615e-01   6.8013601e-02   8.2438408e-01   8.4505085e-01   9.5289962e-01  -4.0454742e-01   3.1001950e-01  -3.5417078e-01  -7.9214126e-01   5.6573253e-01   4.0839305e-01  -2.6271816e-01  -4.5978698e-01   6.8382847e-01   5.3032476e-01  -5.1968163e-01   3.6731063e-01   7.0452907e-01  -4.1937629e-01   6.2105438e-01   4.7011537e-02   1.4562443e-01   6.6168678e-01   9.8082283e-01   6.2366530e-02  -2.3287672e-01   9.2101730e-01   3.7271300e-01  -6.4497374e-01   1.4800162e-01  -9.0277884e-01   6.7021726e-02  -4.2030094e-02  -7.0118351e-01  -3.9498954e-01   4.6752482e-01   6.4176967e-01  -8.9868350e-01  -7.0716909e-01   3.8886260e-01  -6.4641357e-02  -8.6841735e-01  -2.7408389e-01   2.3011129e-01  -4.2917036e-01   4.7830744e-01  -4.5865417e-01   5.7457730e-01  -3.5314059e-01   3.6735957e-01   7.4018186e-01  -8.4846419e-02  -5.8418293e-01  -3.7020320e-01   4.9603925e-01   7.6957444e-01  -8.7228445e-01   7.1826770e-01   9.5733612e-01   2.3557784e-03  -2.5791544e-01   8.9203718e-01   1.3456382e-01  -6.8442479e-01  -5.4103929e-01  -7.1216858e-01   6.4419400e-01   7.9207165e-01  -9.9380923e-01  -5.3958185e-01   3.9015470e-01  -3.8323671e-01   4.1762782e-01   7.5141922e-01  -1.0513850e-01  -9.4383209e-01  -1.0925134e-01  -6.3123947e-01   7.7279749e-01   6.0461348e-01  -3.2998661e-01  -2.7175325e-01   6.9017459e-02  -2.0217792e-01   7.1112896e-01  -9.3328532e-01   4.0292425e-02  -7.2587966e-01  -1.3336171e-01  -4.1786591e-01  -1.8804032e-01   6.6994308e-01   7.8734423e-01  -6.0396766e-01  -8.0519796e-01   6.3051528e-01   7.2046854e-01   7.0750325e-01  -3.9421061e-01  -4.7482880e-01   7.7803067e-01   2.6263673e-01  -2.3191086e-01  -8.8918300e-01  -6.0387091e-01   5.1787538e-02  -3.4441617e-01  -1.0413956e-01  -1.0869262e-01  -6.5866330e-03   8.0279418e-02   2.6480754e-01  -1.4424398e-01   3.4824970e-01  -4.2140851e-01   1.9057430e-01   1.0200640e-01   8.4056430e-01   9.0839802e-01   6.5771488e-01   5.7567835e-01  -5.4009440e-01  -1.2940971e-01  -5.0315981e-01   5.4692228e-01   4.2630310e-01  -3.4868483e-01  -1.6684619e-01   4.3994382e-01  -4.3589645e-01   3.8975220e-01  -2.9646406e-01  -4.1629378e-01   2.8456093e-01   5.1897019e-01  -6.0350197e-01   6.6389627e-01   8.5298907e-01   2.6916678e-01  -2.5685769e-01   1.4296394e-01   5.8092119e-02  -9.8429321e-01  -8.1313510e-01  -1.0266848e-01  -3.9515888e-01   1.2006984e-01  -7.0491619e-01   8.6406020e-01  -9.3852987e-01  -9.7011784e-01  -1.4079658e-01   7.8171446e-01   9.2783754e-01   3.4622278e-01  -3.6450852e-01  -2.6329777e-01   8.6543671e-01  -1.7131287e-02  -7.9083737e-01  -9.1985878e-01  -3.5023308e-01  -7.3498762e-03   6.7793095e-01  -2.3910244e-01  -9.7131381e-01  -2.7337565e-01  -9.9875341e-02   2.3959978e-01  -4.3795564e-01  -6.5931974e-01   2.8948300e-01  -6.8444052e-01   1.2614885e-01   8.0408859e-01   5.2329410e-01   6.4521484e-01  -6.5238922e-01   8.4082031e-01   3.6934765e-01   1.4979093e-01  -5.4558235e-01   1.6333943e-01   6.8418773e-01   4.0808616e-02   1.4774027e-01   2.2604987e-01  -7.9827523e-01  -5.9280722e-02   1.0697551e-01   4.4441472e-01   8.4760027e-01   5.3809728e-01  -2.1602176e-01  -2.9644732e-02   4.7619867e-01  -4.2883843e-01  -9.2988153e-01   2.2663462e-01   4.7845081e-01   4.9437963e-01   3.0808115e-01   7.0989398e-01  -7.1363149e-01   6.4956891e-02  -1.4127942e-01  -4.9256530e-01  -8.8323844e-01  -1.5606189e-01  -5.3966227e-02   7.0500477e-01  -8.3390151e-01  -7.0228097e-01  -6.0876946e-01  -5.7245971e-03   5.6903650e-01   8.0951567e-01   8.1979472e-01   5.1288180e-01   7.4992733e-01   2.7416097e-01   2.4868820e-01  -9.7675588e-01  -6.0135212e-01  -8.2429684e-02  -9.8744041e-01  -9.3742765e-01   6.0675671e-01  -5.3992801e-01  -1.9305143e-01   7.2670182e-01   5.5380441e-01  -4.8743930e-01   5.7183936e-02  -6.5276825e-01   9.3675932e-01   7.4736494e-01  -4.8830330e-01   6.7058899e-01   1.1898941e-01  -3.8957426e-01   7.5449296e-01   5.9355041e-01  -7.4290731e-01  -7.8529843e-01  -5.1984585e-01   2.0585005e-01   9.3098805e-01  -1.3085646e-01   4.5330634e-01  -5.9186451e-01  -2.2736755e-01  -1.1904459e-01  -9.1932366e-01  -3.8426604e-01   2.9256050e-01  -3.2119175e-01   5.7972001e-01   9.0393449e-01  -3.2354374e-01   8.4378484e-01  -2.2153228e-01   4.2792469e-02  -2.2044282e-01  -2.4087529e-01  -9.1501867e-01   9.5443645e-01   9.7160283e-01   7.4934023e-01  -1.6558005e-01  -1.9603821e-01  -5.7696915e-01   3.1630552e-01  -4.5107725e-01   1.5903346e-02   2.3061759e-01   8.5061320e-01   7.9385745e-01   6.7761271e-02  -3.9879802e-02  -4.2923651e-01  -1.6136518e-01  -6.2872762e-01  -5.4180879e-01  -8.9631732e-01  -9.5187744e-01  -7.2271442e-01  -5.8188292e-01   1.2315212e-01   4.8460758e-01   5.3928213e-01  -1.4752588e-01   5.4866901e-01  -3.5162958e-01  -8.3510439e-01  -7.0061892e-01   5.3536447e-01   9.9784409e-01  -4.2552667e-01  -5.6558501e-01   9.3375674e-01   9.1598162e-01  -1.5833805e-01   7.5559057e-01   7.7004438e-02  -8.6647399e-01   2.2658358e-01   8.7185979e-01  -8.9854869e-01  -9.7222950e-02   5.2152558e-01   7.5109212e-01   7.9669384e-01  -3.8182746e-01   3.7734728e-01   6.1222402e-01   8.3531878e-01   7.3693863e-01  -4.8265693e-01   4.4043574e-01   8.7346739e-01   4.3180785e-01   1.4959472e-01  -2.2053979e-01   2.6479277e-01  -5.5727911e-01   7.6385035e-01  -5.5450070e-01   4.7526622e-01   6.2692279e-01   6.1852337e-01   9.6748131e-01  -3.8514695e-01  -8.3987930e-01  -8.3670345e-01   3.4971645e-02   6.3135885e-01  -3.9652673e-01  -7.7396554e-01  -3.5413705e-01   8.5629207e-02   3.6247952e-02  -9.2211716e-01  -2.0729322e-01   4.8099650e-01  -5.5862368e-01   2.2466428e-01  -3.4102501e-01   3.7970449e-01   4.7306508e-01   3.2417692e-01   4.7281811e-01  -3.6952766e-01   9.9585114e-01   3.7128768e-01  -4.7273511e-01   7.7860159e-01  -3.2725011e-01  -1.4793603e-01   6.5787583e-01   5.8852732e-01  -8.9710207e-01   8.0989422e-01   1.0752469e-01   7.4178615e-01  -8.1585224e-01   5.6969803e-01   9.7172353e-01   6.8899880e-01  -7.6757450e-02   6.1782062e-01  -9.5454269e-01   5.7481339e-01  -8.2201622e-01   9.3165425e-03  -9.1594742e-01   2.4616401e-01   4.5787184e-02   1.4815306e-01  -6.1874948e-01   9.4370892e-01   3.2979994e-01   8.8961448e-02  -7.9130992e-01   6.0712495e-01  -1.7095426e-01  -1.0351440e-01  -6.5567106e-01  -5.2851917e-01   5.4714121e-01   3.0144418e-01  -2.7112671e-01  -4.7598852e-01   4.3103829e-01  -3.1352101e-01   1.6766810e-01  -8.4574940e-01  -6.0128573e-01  -1.5564735e-01  -7.2988742e-01  -2.9877882e-02   7.2752481e-03  -3.3651677e-01   5.8748548e-01  -2.6213171e-02   7.7161201e-01  -4.7525212e-01   4.5568676e-01   3.5521512e-01  -4.0736441e-01   3.0811894e-01   5.7283832e-01   6.1209591e-01   7.8140786e-01  -6.0941261e-01   4.4822556e-01   9.7343992e-01  -2.8306444e-01   3.8221741e-01   4.2487177e-01  -8.5962649e-01   9.0407817e-01  -6.4215237e-01   8.1453641e-01   2.9173511e-01  -5.4115465e-01  -4.8637401e-01  -1.4661403e-01   4.8976957e-01   4.0215471e-02  -5.0221519e-01   9.0803589e-01  -8.6276297e-01  -1.0844376e-01  -9.5414552e-01  -2.1655391e-01  -5.7548626e-01   4.2441038e-01   1.7236194e-01   3.9952542e-01  -1.7471331e-01   4.1460041e-01  -8.7249260e-01   6.2212987e-01   7.4571219e-01   8.3707019e-01  -3.7157930e-01  -7.0975675e-01   6.0030190e-01  -6.0256264e-01  -6.2324473e-01   6.0079908e-02   6.6072206e-01   7.5566058e-01  -4.1091806e-01  -4.9919618e-01   1.4763159e-01   4.5670033e-01   9.1419270e-01  -9.7444273e-01  -6.5042855e-01  -6.3281145e-01  -4.2709558e-01   2.9666502e-01   5.0774406e-01  -2.1053099e-01  -2.9794189e-01   3.6575020e-02   3.6166701e-01   5.2117144e-02  -3.5009927e-01  -9.1686548e-01   8.3868702e-01  -5.8988535e-01   6.9679736e-01   4.0458742e-01   2.0576185e-01  -5.5229644e-01   8.4479433e-01   9.1000607e-01  -5.2365257e-01   5.7780253e-01  -2.0445051e-01  -2.3778951e-01   4.4590022e-01   5.9162221e-01   8.2547364e-01   3.7245963e-02  -2.6083354e-01  -8.2204182e-01   1.9723904e-01  -6.5614107e-01  -9.4107087e-01  -1.1681572e-01   6.5022046e-01  -6.0860842e-01  -2.2339001e-01  -6.4273450e-01   8.7445158e-01  -8.3206528e-02   2.1786968e-01  -7.5814094e-02  -8.1150345e-02  -8.6098057e-01  -3.4539528e-01  -5.0113398e-01  -7.8728011e-02  -5.4349935e-02  -9.8612595e-01   8.0109446e-01   4.6133195e-01  -2.2334945e-01  -9.2929288e-01   4.6815520e-01   8.3659266e-01  -5.0682772e-01  -3.4584161e-01  -1.9252364e-01  -6.3705391e-01   7.9230716e-01  -2.9808288e-01  -3.7036685e-01  -2.2038627e-01  -3.4149365e-01  -7.6599709e-02  -4.5070125e-01   9.4990196e-02   8.9618591e-01  -7.9476709e-02   3.0047190e-01   2.3575869e-01  -1.8121557e-01   3.9497489e-02   6.1118940e-01  -8.0297322e-01   5.4794448e-01  -9.3506325e-01  -9.1302538e-01  -3.9779233e-01  -4.3968289e-01   7.2711802e-01   6.8070739e-02  -8.9342981e-02   8.9494034e-01   2.3640705e-01  -4.9106371e-01  -3.5687974e-01  -6.9053115e-01   5.6192896e-01   2.9719361e-01  -7.1499962e-01  -8.3522883e-01  -2.2262888e-01   7.5626183e-01   5.1188372e-01   8.9764435e-01  -9.3834840e-01  -5.0675649e-01   1.8265194e-01   1.1605965e-01  -6.8625721e-01   8.4684974e-01  -5.9049249e-01   1.5567035e-01   2.3386266e-01   9.0510039e-01  -7.6153981e-01   1.7141336e-01   9.8963513e-01   7.9602162e-01  -9.5184654e-01  -1.0204515e-01  -5.3177484e-03  -2.3034530e-03   4.6851673e-01   9.5903925e-01   1.3875004e-01   7.1251524e-01   8.8183567e-01   1.8062096e-01   5.7329676e-01   9.9795143e-01   4.6079825e-01   3.2454204e-01   3.0070082e-01  -4.0896389e-01   7.3450637e-01   3.6192176e-01  -3.1342869e-01   4.4243710e-01   4.4754173e-01  -2.6059128e-01  -1.8135044e-01   7.8930791e-01  -3.1834718e-01  -7.6217023e-01  -3.6275420e-01   6.6986268e-01  -1.4128459e-01  -9.3521060e-01  -8.6002691e-01   6.9033533e-01  -3.6215123e-01   9.2374473e-01  -4.3745529e-01  -6.1034018e-01  -4.1804763e-01  -8.1496786e-01  -8.3301002e-01  -2.6365294e-01   6.0886348e-01  -7.4165469e-01  -3.2838696e-01   6.9099107e-01  -2.6749332e-01  -3.3679203e-01   6.5240589e-02   8.2913069e-01   5.0241111e-01  -3.7951226e-01   3.7315916e-01  -6.4650764e-01   6.3086335e-01  -9.4727960e-01  -8.2163531e-01  -9.9443478e-01  -4.1477811e-02  -6.9457523e-01   7.5034472e-01  -9.1382515e-02   5.6152085e-01   8.7433278e-01   4.1320465e-01  -7.4421341e-01  -3.3853737e-01   5.6219570e-01   6.2856733e-01  -3.0036040e-02   9.8073999e-01   9.7856606e-01   3.8775888e-01  -8.0309328e-01   9.2660190e-01   2.0905611e-01   9.6116872e-01   9.3902649e-01   6.4642844e-01   1.0357437e-01  -9.0726363e-01   2.3799461e-01  -6.4814812e-01   2.1018730e-02  -1.1507998e-01  -2.5312477e-01   6.8270385e-01  -3.2106030e-01   1.3004740e-01   6.3878191e-01  -2.9168641e-01   7.9223624e-01   2.9838097e-01  -3.7960043e-01   8.7999708e-01   9.4561639e-01  -3.4485447e-01  -7.2136138e-01   1.8803286e-02   4.5776969e-02   9.7787355e-01   9.8213787e-01   8.3263893e-01   8.0845322e-01  -2.2302135e-01   4.4440202e-01  -4.4255610e-01   2.5514295e-01  -9.5335998e-02  -1.6724679e-01   1.4343319e-01  -7.1205011e-01   6.6976875e-01   7.4336008e-02   5.6413515e-01  -5.2342096e-01  -4.1034076e-01   6.6099012e-01  -5.1058392e-01   5.3953836e-01   7.0049653e-01  -9.3370873e-01   4.1306072e-01   9.5958464e-01   5.9982823e-01   4.0135238e-01   6.1502824e-01   7.3036794e-01   2.3381759e-01  -7.1573014e-01   5.1266819e-01   2.2550975e-01  -6.2563234e-01   5.2831621e-01   4.6449633e-01   9.9632403e-01  -6.5320848e-01  -6.4706719e-01  -3.2775886e-01   2.8281876e-01   6.7627736e-01   9.7862343e-02  -1.2390926e-01  -5.0032322e-01   3.4097544e-01   2.5748563e-03   3.5295340e-01  -6.7890432e-01  -5.1576639e-01   1.8802453e-01   5.2118643e-01  -5.5595358e-01   4.8012653e-01   9.2370510e-01  -8.2400185e-01   7.1864142e-01  -8.0447677e-01  -9.2767211e-01  -4.1555456e-01  -2.6965778e-01   5.6805077e-01   3.7319537e-01   8.0521938e-01   1.5947870e-01  -8.4545007e-01   7.7946447e-01   2.6009453e-01  -5.6852170e-01   7.0780459e-01  -2.0291581e-01   5.2681617e-01  -4.4570775e-01   1.6476936e-01  -1.7592638e-01  -7.1225739e-01  -5.6807566e-01   3.1164487e-02  -9.5496227e-01  -8.3060316e-01   6.3187982e-01   1.0912313e-01  -4.8693716e-01   3.7751385e-01  -9.4795913e-01  -1.2144419e-01  -1.5467576e-01  -3.1353722e-01   4.0272822e-01  -6.8359729e-01  -1.4957352e-01  -4.5640288e-01  -6.7313314e-01   6.3996597e-01  -9.0344695e-01  -7.0478662e-01  -9.3090459e-01   6.0089745e-01   9.2005816e-01  -1.5671211e-01  -2.6024667e-01   8.0041747e-01  -5.7309629e-01  -3.8519428e-01  -4.3906566e-01   2.4624264e-01   6.2829000e-01   4.2120370e-01  -6.9800920e-01   7.2687487e-01   1.8239512e-01  -2.1954468e-01  -9.3630338e-01   9.8133461e-01   5.4267726e-01  -8.5797328e-01   4.0961481e-01   9.5353186e-01  -9.9427039e-01  -1.0275745e-01   8.8323146e-01  -2.4020164e-01  -4.8485947e-01  -7.7854648e-01  -6.8650908e-01  -3.1888140e-01  -9.1855026e-01  -4.1217756e-01  -7.1720900e-01   9.3209410e-01   4.1698056e-01  -4.4314321e-01   3.0547942e-01   3.6865293e-01   8.3245753e-03   3.9223069e-01   6.0423024e-01  -3.1265540e-01   6.2236911e-01  -3.2126397e-01  -5.6993647e-01   2.2121419e-01  -5.3238134e-01   1.3278479e-01   8.6406005e-01   8.7625732e-01  -2.2603829e-01   4.6627566e-01  -7.1391096e-01   9.9896734e-01   7.5282958e-02  -9.2100473e-01  -5.0094401e-01  -8.6420082e-01   2.2355933e-01   9.7756341e-01   2.6361864e-01  -1.7466380e-01   8.1469805e-01  -5.1892796e-01  -4.1898283e-01  -4.6257522e-01   3.1305638e-01  -9.6916592e-01  -4.1849952e-01   9.5686345e-01  -1.2522174e-01   8.9753709e-01   6.6022478e-01  -2.8640862e-01  -5.0235164e-01   4.8602761e-01  -7.4018724e-01  -9.1933599e-01  -1.7513997e-01   7.7649539e-01   5.7973527e-01  -3.0284038e-01  -2.2982057e-01  -7.8827423e-01  -2.2821004e-01   7.9525453e-01   1.5263237e-01   4.5736416e-01  -2.9555769e-02   3.9199863e-01  -8.5689514e-01  -8.7008414e-01   4.9768212e-01   7.3793733e-02  -6.9330371e-01   5.4354965e-01  -6.8144774e-01  -3.2520157e-02   7.1575772e-01  -3.9424649e-01   1.4152621e-01  -2.3004814e-01  -8.4566003e-01  -8.1156315e-01  -4.6534998e-01   4.8265009e-01  -4.5575126e-01  -5.3842056e-01   1.6232530e-01   7.2435741e-01   7.3773648e-01  -1.9907023e-01  -7.9109788e-01   6.9226646e-01  -5.2680728e-01  -3.8520946e-01   1.5572908e-01  -2.4861941e-01  -2.0435123e-01  -2.0654971e-01  -5.4388606e-01  -1.4477609e-01  -4.7424818e-02   2.4796660e-01  -9.2497864e-01  -6.7464893e-01   4.0626193e-02   5.6882996e-01  -3.5907662e-01   3.7685916e-01   6.5741843e-01  -4.7632905e-01  -7.2436316e-01  -5.8974336e-01   4.2902036e-01  -6.2047556e-01   2.0352726e-01  -9.5799847e-01   1.8199532e-01   1.5521946e-01  -2.5891136e-01  -9.9611696e-01   5.5970484e-01   2.6818296e-01   1.4762084e-01   6.1192231e-01   9.9994322e-01  -5.8365842e-01   6.0991787e-02  -4.1956899e-02   7.0483895e-01   9.4465316e-01   1.8890568e-01   8.1886990e-01   2.7912637e-01  -6.9581830e-02   9.2315583e-01  -5.4782106e-01  -1.2018667e-01  -4.8302701e-02  -3.7635181e-01  -3.6032173e-01   3.6932049e-01   4.6401048e-01   6.4680105e-01  -5.3286222e-01   6.2137158e-01  -3.2694749e-01   6.6744026e-01  -7.4055073e-02  -1.5656143e-01  -5.7399852e-01   5.4469219e-01  -8.5574084e-01  -6.9779779e-01  -4.7740955e-01  -7.8504560e-01  -4.6733540e-01   3.0616259e-01   5.4306813e-01  -3.6005724e-01   3.8933920e-01  -1.3436288e-01  -1.6885288e-02   5.2743084e-01   8.8180568e-01  -9.6779999e-01   8.1668766e-01  -5.4288477e-01   8.9064235e-01
  -9.2821512e-01   7.6727179e-01   9.4578707e-02   5.6319844e-02   5.2907347e-01   2.2604248e-01   3.4007721e-01   8.8798049e-01  -8.9102392e-01   6.3142320e-02   5.6824517e-01   1.5071978e-01   8.9305853e-01   5.2560162e-01   2.0205346e-01  -7.8061306e-01   6.2011548e-01  -1.1432687e-01   6.7851685e-02  -4.5532333e-01  -8.3160790e-01  -8.2691171e-01   7.1572779e-01   1.9448815e-01  -7.1553204e-02  -4.7005268e-01  -2.8461790e-01   8.5872060e-01   2.2697017e-01  -2.3469037e-01  -3.0214175e-01   6.8017580e-01  -2.4145895e-01   1.1845608e-01   7.2906092e-01  -7.6204278e-01  -9.5094526e-01   9.6842590e-01   1.9436927e-01   3.9494932e-02   3.4065570e-01  -4.9312903e-02   8.2864677e-01  -7.8287155e-01   2.4877597e-01   8.6935590e-01  -9.9477082e-02   7.9002075e-01  -1.0631309e-01  -8.3312872e-01  -7.8835303e-01  -3.1270485e-02   3.6649599e-01   4.7959103e-01  -2.0426107e-01  -2.1935020e-01   6.1682467e-01   8.2117637e-01   6.4628295e-01   4.9238014e-01  -9.5663680e-01  -5.6841750e-01   4.5909830e-02  -5.0720464e-01   4.8516763e-01  -6.1763909e-01  -9.9386078e-01  -4.1353195e-01  -2.6966063e-01  -8.4681563e-01   8.3665991e-01   9.6202441e-01  -8.6873911e-01   7.8299417e-01  -1.4593633e-01   8.3183403e-01  -8.0853458e-01  -5.9947526e-01  -1.7015037e-02   5.5115426e-01   2.0241310e-01  -7.0365590e-01  -7.6895970e-01   7.2537803e-01   1.9344529e-02  -8.7598143e-01   5.8050122e-01   7.7160924e-01   6.2969293e-01   1.4941313e-01   5.6681235e-01   8.4993378e-01  -9.9817976e-01  -1.1244434e-01   5.8804680e-01   3.6413799e-01   6.2457618e-01   9.7970293e-01   3.4945723e-01   5.4804597e-01   7.2460909e-01   5.1716851e-01  -8.6000008e-01  -4.4480657e-02   2.2873568e-01  -9.5008533e-01  -7.1237242e-01   8.1197499e-01   8.3613740e-01   6.5331168e-02   5.3052052e-01  -3.5445386e-01  -4.4718890e-01   5.0412180e-01   5.6175781e-02   8.8262928e-01  -4.5085815e-01   2.3696176e-01  -4.8444693e-01  -1.2964849e-01  -4.4447615e-01   9.6097512e-01   4.4527944e-02  -7.0469672e-01  -3.6600290e-01  -9.8855449e-02   7.1964273e-01  -2.1975710e-01  -5.4424661e-01   3.2551039e-01  -4.9174504e-01  -6.2407232e-01   3.7788540e-01  -6.8953233e-01   5.0170520e-01   4.0920572e-01   2.8924962e-01  -1.0882014e-01  -8.2833694e-01  -3.3673116e-02   4.5847195e-01   6.8820320e-01   3.9485424e-02   3.3658508e-01  -2.7635935e-02  -3.7632982e-01   1.4789695e-01   5.6439473e-01   2.3130575e-02  -8.1316917e-01   9.6269333e-01  -2.7567968e-01   8.5100102e-01   1.1480337e-01  -3.1740404e-01   1.0274314e-01   2.2897082e-01   1.1161995e-01  -7.9890047e-01  -1.1162677e-01   5.8024568e-01  -1.5780086e-01   1.6508848e-02  -6.4518459e-01  -1.9184549e-01   1.7026629e-01  -9.4552412e-01   4.1478628e-01  -8.8692958e-01  -4.9205667e-01   7.3745179e-03   8.9204735e-01   1.8204902e-01  -5.8287767e-01   9.0980725e-02  -5.4985229e-01  -6.3927128e-01   7.1319972e-01   4.2165803e-01   5.7635584e-01  -8.4261835e-01   1.3437689e-01   5.8144627e-01   3.7895745e-03  -7.9631481e-01   8.5180289e-02   7.4710406e-01  -8.4750822e-01   8.6660116e-01   4.3778964e-01  -9.0876707e-01  -7.6036392e-01  -3.0094779e-01   9.1257875e-01   6.4252707e-01  -1.5122145e-01   4.0486659e-01   9.5870872e-01   8.4224041e-01  -6.4325198e-01  -6.3904674e-01   1.0112761e-03  -4.7002586e-01  -8.5882146e-01   6.7508400e-03  -5.5307615e-01  -3.6204648e-01  -3.9700372e-01  -6.4945055e-01  -9.6471024e-01   5.9729916e-01   9.4417027e-01  -3.7429310e-01   8.1302013e-01  -7.6588489e-01   2.6158210e-01  -6.3015335e-01  -2.4090645e-01  -7.6267218e-01   2.5292340e-02   5.3830547e-02  -3.4834007e-02  -6.4661707e-01  -8.1658952e-01  -6.9439660e-01   2.8202043e-02   4.4018638e-01   4.7528010e-02   9.3893650e-01  -2.7199946e-01  -3.6470401e-01  -8.7106142e-01  -3.2713848e-01   4.7874150e-01  -8.9199188e-01   5.7129919e-01  -4.0310685e-01   7.1005139e-01   7.7379790e-01  -8.7357645e-01   3.7978257e-01   8.4923501e-01  -7.8011474e-01   6.1105767e-01  -6.5918620e-01  -4.8038994e-01   1.2232345e-01  -7.6280016e-01   6.7417221e-01   4.3163922e-02  -6.5323651e-01  -1.9843527e-01   2.6846683e-01  -7.7872112e-01   8.9539356e-01  -3.0278840e-02  -6.3028909e-02  -1.8677024e-02   7.5159591e-01  -1.8796861e-01   4.9044074e-01   5.4897158e-01  -1.5684220e-01  -2.1222026e-01  -6.6049009e-02  -1.6130064e-01  -5.0632294e-01  -8.4862158e-01   3.9729989e-01   7.6821002e-01   4.8944800e-02   7.6009171e-01   3.9948414e-01   6.8235334e-01   9.2372817e-01  -2.4584412e-01  -1.0528526e-01  -5.3747296e-01   5.3652618e-01   2.4556637e-01   8.7964134e-01  -9.4497034e-01  -3.6439562e-02   9.6148036e-01  -8.8389481e-01  -3.2938200e-01   5.0359392e-01  -6.7924756e-01  -9.9496591e-01  -6.2724880e-01  -3.5936893e-01  -2.2502443e-01  -6.5852552e-01   2.2605043e-01   9.3238511e-01  -9.3470994e-02   7.7141666e-02  -6.0098688e-01   3.6516700e-01  -6.4004402e-01  -8.0862477e-01  -5.2337593e-02   1.3251677e-01   1.1114381e-01   3.5572283e-01  -1.8119713e-01  -3.2326785e-01  -2.2599476e-01  -9.0106384e-01  -6.7976923e-02  -5.7919844e-01  -2.1824867e-01   3.7130848e-02   9.9923576e-01   7.6324313e-01   9.6087314e-01  -4.3039144e-01   5.0300427e-01   2.4162404e-01   6.3358245e-01   6.1903118e-01  -7.4316676e-01   8.5724765e-01   7.9935332e-01  -9.7988027e-01  -1.2177969e-01   9.1103132e-01   2.0548545e-01   3.2961071e-01  -5.5552466e-01  -7.1463938e-01  -3.1297253e-01   5.0069382e-01   2.9052210e-01   8.8121213e-01  -1.1703547e-01   5.8598081e-01  -1.6357865e-01  -2.4674835e-01  -3.5456775e-01  -6.0897790e-01  -4.5893466e-02   3.2102843e-01   1.2921232e-02  -1.6218018e-01  -9.6770573e-01   7.3743399e-01   6.4860411e-02   7.7765506e-01  -5.9418621e-01   7.6367658e-01   7.7864923e-01  -5.1486934e-01  -2.6136304e-01  -1.1259387e-01  -6.2792473e-01   8.9398826e-01   2.1399538e-01   3.9651773e-01  -4.5060084e-01   1.3526741e-01  -1.6469844e-01   6.0561520e-02   2.2857310e-01   8.5614662e-01   1.2327547e-02   7.5681401e-01   4.0262096e-01  -5.8917446e-01  -8.2701228e-01   7.8979503e-03   6.9219885e-01   6.2010519e-01   1.7332154e-01  -1.9242806e-01   5.2904846e-01   4.3691254e-01  -9.5431285e-01  -4.0082886e-01  -3.6987935e-01   6.8406307e-01  -8.8984164e-01  -5.5221229e-01  -6.0350394e-01  -2.6371102e-02  -1.2727224e-01  -6.8857938e-01  -3.5110513e-01   9.6188205e-01  -8.8352989e-01   6.0002344e-01  -7.4673611e-01   9.5480322e-01   7.1098121e-01  -1.7712768e-01   3.1507034e-01   2.3726233e-01   3.4368957e-01  -7.8684020e-01   6.6425964e-01   3.8355972e-01   7.4403952e-01   2.7045986e-01  -4.4006607e-02   3.2931957e-01  -4.4538119e-01   2.3118382e-01   7.5547390e-01  -6.1991487e-01  -6.1661949e-01  -9.6957573e-01  -7.9177647e-01  -6.7458387e-01  -8.5625495e-01  -6.3932471e-01   3.8214797e-01  -7.3359368e-02   4.4302608e-01   9.4654052e-01   6.4203387e-03   6.3865365e-01   7.1126260e-01  -8.4933382e-01  -4.2114937e-01  -3.8523022e-01   7.1435469e-01   6.4044739e-01   8.8162839e-01   9.4441629e-01   8.0718032e-01   7.0402146e-01   5.6765197e-01  -8.4292906e-01  -8.5141509e-01  -6.8587205e-01  -5.5785287e-01   6.8172161e-01  -8.3749652e-01  -3.9105000e-01  -3.4299516e-01   5.3223942e-01   2.8748114e-01   9.0435524e-01  -9.7818023e-01   6.0891801e-01   8.9452575e-01   2.6256472e-01  -7.0791912e-01   3.2234924e-01  -7.6754014e-01   1.3515426e-01  -3.1360097e-01   7.4202633e-01   6.9072524e-01   9.6227808e-01  -2.3101477e-01  -7.8434184e-01  -9.4878757e-01   4.6106915e-02   3.5940003e-01  -4.9955761e-01  -4.0848545e-01  -2.0346169e-01   2.6140161e-01  -8.8959031e-01  -3.7774049e-01  -7.6315759e-01  -6.6739166e-01  -3.9751098e-01   9.5613854e-01  -4.4942072e-01  -6.4091517e-01  -9.3017470e-01  -3.2845796e-01   1.3402420e-01   6.0697319e-01   9.4942612e-01  -7.2950529e-01  -3.7176707e-02  -6.2289827e-01   4.5760226e-01  -9.7551325e-01  -1.2761965e-01   1.5126637e-01   3.3697164e-01   7.4579417e-02  -9.0911286e-01  -9.6271477e-01  -9.5308934e-02   2.0402708e-01   5.9646962e-01   1.8791998e-01  -3.2368336e-01   8.1662471e-01   7.3115316e-01   7.4965152e-01   4.3372236e-01  -8.0589646e-01   2.9760182e-01   7.1199615e-01   2.9901544e-01   8.3590122e-01  -9.0864480e-01   2.7370874e-01  -2.2657139e-01   5.6215162e-01   6.2650456e-01  -4.7949545e-01   6.4602871e-01  -8.1442436e-01   7.2307982e-01  -9.9282953e-01   8.9893579e-01  -7.4710439e-01  -1.5209658e-02  -8.5019206e-01  -5.2242083e-01  -3.1463600e-01  -5.5516687e-01  -5.6108073e-01  -7.9635961e-01  -2.3326328e-02   5.7009251e-01   5.2655145e-01   2.1065506e-01   3.8121409e-01   8.0813944e-01  -4.8940622e-01  -5.4635683e-01  -3.0188816e-01   7.6327549e-01  -2.5432806e-01   4.0837821e-01   2.2572921e-01   8.7094795e-01   4.6386431e-01   6.1765118e-02   8.3607524e-01   9.0264862e-01  -3.9837989e-01   7.5588058e-01  -3.2774358e-01   5.8940915e-01  -7.3089755e-01  -4.6146419e-01   9.4298869e-01  -9.5716222e-01  -5.5603946e-01  -4.9352804e-01  -3.5245474e-01  -2.0248196e-02   7.7024933e-01  -3.9834747e-01   1.5698980e-01   1.8414284e-01   3.9503882e-01   5.3085470e-01  -1.0813727e-01  -4.2748457e-01  -2.5221178e-02  -4.9768909e-02  -7.9469721e-01  -1.3213578e-01   8.5121766e-01  -5.7721264e-01   8.5241798e-01  -5.6430899e-02   5.3391364e-02   8.6492430e-01  -6.8599604e-01  -3.4816072e-01   8.1991297e-01  -8.0752101e-01   8.2575902e-01   6.0508207e-02   9.8225299e-01  -6.1274293e-01   3.4417870e-01   4.9149693e-01   8.0680045e-02   2.0354498e-01   3.7577252e-01  -8.1751561e-01  -3.3812639e-01   8.6116816e-01   1.5860628e-01  -4.0166951e-01  -9.9814711e-01   1.8542230e-02   8.9006629e-01  -9.0023308e-01  -3.3791384e-01  -2.2803634e-03   1.0604151e-01   4.1645645e-01   6.0398369e-01  -2.0431452e-01   7.7340719e-02   9.1521221e-01  -5.7695347e-02  -9.6068649e-01  -2.5385197e-01  -7.7741348e-01   7.7133227e-01  -6.2918296e-02  -3.1338654e-01  -5.1591492e-01  -4.9479383e-01   6.8689237e-02   3.0088131e-01  -5.3808348e-01   6.9899897e-01   4.1539382e-01  -2.6701319e-01   3.5577143e-01   7.4504856e-01  -7.7885831e-01   6.1707183e-01   2.3787809e-01  -5.8288882e-01   4.3325311e-01  -4.4058236e-01  -5.7930382e-01  -5.4601867e-01   4.9531210e-01   7.6483760e-01  -5.7235011e-01   7.8488065e-01   6.3435374e-01  -5.5142498e-01  -7.8395969e-01  -2.1643160e-01   9.6998546e-01  -1.4620542e-01   8.9275409e-01   2.8707959e-01  -8.2545690e-02   5.8462624e-02   5.7259012e-01  -6.2719005e-01  -4.4034974e-01   8.7255950e-01   5.9904539e-01  -7.7356419e-01  -3.7809147e-01  -6.7643863e-01  -4.5890428e-01   6.1052340e-01   1.5997986e-01   5.5837357e-01  -6.7015229e-02  -5.9717002e-01  -5.4866505e-01  -7.1698492e-02  -9.5847201e-01   7.1535584e-01  -2.8370070e-01  -2.2963541e-01   7.7338282e-01   7.8685042e-01  -5.2454097e-01  -5.5179959e-01  -1.5221552e-01  -4.6627707e-01   4.8902903e-01   6.0566317e-03  -6.3489154e-02   7.1975985e-01   5.9312437e-01   3.7790554e-01  -8.9109095e-01   4.1350682e-02   7.2793461e-01   1.0792285e-01  -9.0278373e-01   3.4315517e-01  -5.4217279e-01   1.0956691e-01   4.0125221e-01  -5.2620566e-01   7.3347289e-01  -5.9263794e-01  -6.0750954e-01  -9.6516305e-01   6.6126985e-01   3.3745762e-02   9.9271155e-01   9.1652589e-01  -4.2852439e-01   1.8776048e-02   1.7505779e-01   1.5383760e-02   1.9545245e-01  -3.7858649e-01   1.1666042e-01   3.9961159e-01  -2.1526468e-01  -9.6110772e-01   7.1462313e-01  -3.6318914e-03   2.9902628e-01  -9.5870781e-01  -2.5334994e-01  -4.8372695e-01   7.4770083e-02  -7.5061672e-01  -4.4004369e-01   6.3984920e-02  -9.2310339e-01   6.0522724e-01  -2.3740276e-01   1.1959769e-01  -4.4540032e-01   4.2135343e-01   4.5353283e-01  -6.9644414e-01   5.6469272e-01  -4.1215459e-01   6.1679246e-01   9.2192463e-01  -3.7873818e-01   3.4715878e-01   4.3851856e-01   8.2941683e-01  -7.8551661e-01  -2.6954669e-01  -9.7601363e-02  -3.8659583e-01  -6.4312151e-01  -6.7370185e-01  -2.5816123e-01  -9.7491054e-01   5.2425620e-01   2.7032952e-01   7.5317819e-01   8.7909177e-01  -3.3928356e-01   4.6066491e-02   6.0191470e-01   9.6383255e-01  -1.5195872e-01  -8.1358544e-01  -4.6393619e-01  -2.4950345e-01  -1.2674617e-01  -4.9752264e-02   3.6825408e-02   9.5402425e-01  -5.6544623e-01   4.8768701e-01   8.8068726e-02  -7.9618750e-01   7.8767357e-01   5.4701780e-01   2.4051945e-01   2.4736201e-01   1.6388319e-01   1.2053793e-01  -6.1324354e-02  -5.9768250e-01   4.0914005e-01   2.1138054e-01   1.2497198e-01   7.9454859e-02   9.3556999e-01   2.8480221e-02   7.7591779e-01  -9.0664902e-01   6.5615286e-01   2.6448442e-01   8.6364355e-01   8.9057232e-01   2.3414007e-01   6.8681524e-01   4.1101959e-01  -8.7317004e-01   8.2330971e-01   9.8161985e-01  -1.2630352e-01   6.5752532e-01   6.2638256e-01  -1.0568643e-01   3.2119871e-01   2.8102358e-01   4.8521757e-01  -6.3026212e-01   3.7193166e-01   5.0728085e-01   7.9491400e-01   1.9486417e-01   5.1881485e-02  -2.1499521e-01  -3.9289952e-01  -8.4281084e-01  -2.2538283e-01  -8.3649756e-01  -6.6619760e-01  -7.2553889e-01  -2.6042929e-01  -3.5617201e-01  -8.7956354e-01   6.1138023e-01   3.4004219e-01   3.7327584e-01   7.6843506e-01  -6.8674821e-01  -7.4114373e-01  -3.0123385e-01   2.3529076e-01  -1.8403397e-01   3.5733658e-01  -4.6075293e-02  -6.2307092e-01  -6.6514678e-01  -2.2075999e-02  -8.8618040e-02  -8.6532128e-01  -1.6642106e-01  -3.2993258e-01   6.0135071e-01  -8.4815121e-01  -2.5324239e-02  -9.9574651e-01   2.8568291e-01  -4.2047407e-01  -3.0499011e-01   7.6184388e-01   2.9256494e-01   4.5397484e-02  -8.5052070e-02   2.7234616e-01  -7.8237073e-01  -3.1123309e-01  -6.3845123e-02   3.3524178e-01  -1.3810436e-01  -3.0427802e-01  -8.3687786e-01   5.2551135e-01  -5.8355955e-01  -6.4851410e-02   1.5289509e-01   3.0037237e-01   1.0480419e-01   7.0806461e-01   4.9067850e-01  -3.9956401e-01   9.6329623e-01  -4.1574979e-01   7.2048144e-01  -8.2013796e-01  -3.8272919e-01  -4.5232771e-02  -7.9635565e-01   4.3531977e-01  -8.7307614e-01   4.2002290e-01   1.6737031e-01  -8.1342182e-02  -4.8840923e-01   8.3450654e-01  -6.3974832e-01  -9.7557378e-01   3.7029695e-01  -1.2351745e-01  -7.1320909e-01  -4.8882656e-01  -2.4482584e-01  -2.7901203e-01  -1.5210656e-01  -9.7544766e-01   1.5776819e-01  -1.3494155e-01  -7.5854522e-01   9.8847925e-01  -1.9615197e-01   2.3188027e-01   8.7329569e-01   7.6600915e-01  -6.9207798e-01   5.9616806e-01   7.3652395e-01   9.7690637e-01  -4.5924489e-01  -9.1529357e-01  -1.5628198e-01  -9.1285596e-01  -5.2160538e-01   6.5270070e-02  -8.9382503e-01  -6.6741423e-01  -5.5064626e-01  -4.6240812e-01  -3.6595577e-02  -6.5506726e-01  -2.8321330e-01   5.6954539e-01   8.9111587e-01  -7.4293912e-02  -4.8157368e-01  -3.5419812e-01   9.0496199e-01  -5.9429771e-01   9.5865695e-01  -7.1058193e-01   3.3078894e-01  -8.7930636e-01  -5.5969703e-01   6.0735643e-01  -7.3662705e-01   7.4448606e-01  -3.4102979e-01  -9.8028788e-01   4.8024473e-01  -1.6813314e-01   5.2835089e-02  -1.2932136e-01  -4.3486911e-02   4.7725073e-01  -1.8420641e-01   7.6191951e-01  -7.1926951e-01   3.4197574e-01   8.3804478e-01  -6.7708434e-01  -2.1703621e-01  -3.1548308e-02  -8.5202844e-01   5.9564355e-01   3.7570438e-02  -2.3762871e-01   2.8047688e-01  -7.5094725e-01   4.2399547e-01  -3.2781468e-01  -3.8911727e-01  -8.3168832e-01   7.6544272e-01   8.3934966e-01   6.0249343e-01  -4.7802181e-01  -1.6166093e-05   4.1065530e-01   9.3696262e-02  -7.9644809e-01  -9.8656413e-01   6.5633248e-01  -6.1704916e-01   5.9999183e-01  -1.5112043e-01  -8.7264156e-01  -1.7909327e-01  -7.1583163e-01  -7.2388186e-01  -7.2435395e-01  -8.6906175e-01  -9.4164183e-01  -9.7776803e-01   3.6840416e-01   8.3850770e-02   3.6370430e-01  -1.0505053e-01  -1.6750185e-01  -8.6223975e-01  -7.9089885e-01  -8.4922565e-01  -5.5715631e-01  -2.8719439e-01  -5.0162924e-01  -3.8556089e-01   4.9228317e-01   4.2715317e-01  -6.5487624e-01   5.1024534e-01   4.0927734e-01  -8.8159247e-01  -6.1244463e-01  -2.0851651e-01  -7.6673235e-01   5.8291377e-03  -4.7316392e-01  -6.2386575e-01   5.2789727e-02  -6.2350548e-01  -3.9137886e-01  -3.9790835e-01  -6.1548114e-01  -2.5578543e-01  -1.2571365e-01   7.4900527e-01  -7.4761538e-02  -2.6081433e-01  -3.1773910e-01  -3.3888696e-01   6.5443236e-01  -6.1675491e-01  -5.3314499e-01   2.9334305e-01  -6.0179512e-01   3.9407371e-01
