  -9.4465025e-01   1.6207990e-01  -4.2132687e-01  -2.8891881e-01  -1.8896849e-02   9.3891551e-01  -6.3542151e-01  -8.1865578e-01  -7.5761082e-01   8.4445194e-01   7.0061185e-01   8.3651819e-01   7.7236421e-01   8.2255979e-01  -6.2939993e-01  -1.0854071e-01   2.3949353e-02   3.3540560e-01  -4.5747522e-01   6.9771619e-01   7.6860922e-03  -3.5168893e-01  -2.7230132e-01  -3.5282787e-01  -1.0727962e-01  -7.3578288e-01  -9.1031721e-01   2.0370689e-01  -7.6069522e-01   5.3143216e-03  -9.7678675e-01  -1.8552604e-01   6.7855584e-01  -6.6253759e-01  -8.4036436e-01  -9.8110442e-01  -6.5079557e-02   2.8221297e-01   1.8859941e-01  -3.9441604e-01  -3.5569220e-02  -9.4858656e-01  -4.8451007e-01   5.3572183e-01  -5.5842927e-01  -4.5336482e-01   2.7331693e-01  -2.0545832e-01   5.3082979e-01   3.2240276e-01  -8.6400996e-01   8.5287217e-01  -7.8327108e-01  -3.3148735e-01  -6.5749836e-01   9.1762329e-01   2.7133438e-02   1.2325087e-01  -3.6373989e-01   4.2950914e-01  -6.1430722e-01  -3.4472342e-01  -7.1783327e-01   8.7802828e-01   9.8311647e-01  -2.6611218e-01  -1.5905748e-01  -7.8209225e-01   1.4510148e-01   5.5582522e-01  -9.6411379e-01   1.3756949e-01   9.1599467e-01  -8.1204341e-01   5.8696281e-01   4.9690884e-01   9.9401279e-01  -6.4334500e-01   8.2178893e-01   3.3404180e-01  -1.0933331e-01  -2.7217572e-01   9.7195900e-01  -8.4711236e-01  -9.9868152e-01  -8.7922991e-01  -2.1402878e-01   7.5608636e-01  -1.9892712e-01   1.5853452e-01   2.8084036e-01   2.2284474e-01   4.7279970e-02  -5.0264865e-01  -2.9556337e-02  -2.0807006e-01   9.9690396e-01   9.3918315e-01  -2.6413958e-01   3.8322946e-01   1.1638833e-01   8.3992783e-02  -4.6871685e-01  -2.4730340e-01   8.6207056e-01   9.4525597e-01   8.6555252e-01  -6.2126831e-01  -6.6500528e-01   2.4696729e-02   1.2873566e-01   9.8793434e-01   2.6533058e-01   6.0290821e-01   2.7221429e-01  -2.7168072e-01  -7.4896753e-01  -9.0250605e-01   8.2193394e-01   6.9729941e-01   1.5780698e-01   4.8581359e-01  -6.1449117e-01   7.1630543e-01   6.1221957e-01   5.9708138e-01   6.3569789e-01  -4.3330169e-01  -2.9087328e-01  -6.2456405e-01   7.5515234e-01  -7.2237045e-01  -3.0206837e-01   4.3300913e-02  -3.9220611e-01   3.6992500e-01  -6.6664851e-01  -6.8429153e-01  -5.5296069e-01   6.9918440e-01  -8.1498045e-01   1.4013330e-01  -5.7128119e-02   3.0310728e-01  -8.5930529e-01  -6.8999952e-01   4.1428233e-02  -5.7490187e-01   4.2834513e-01   6.9453114e-01   6.6975317e-01   4.7003342e-02  -2.9143323e-01   5.9215534e-01   1.3080380e-01   5.3948478e-02  -8.9373008e-02   2.2810396e-01   5.0335749e-01   1.0280061e-01   3.3031504e-01   2.9123772e-01   1.1620769e-01   1.7782051e-01  -8.8401142e-01  -6.5007296e-01  -6.4986532e-01  -8.6503389e-02   5.9534026e-02   4.7230031e-01   7.5134241e-01   3.2954651e-01  -6.1785247e-03   7.9534874e-01  -3.6080543e-01  -5.7484324e-01   8.6723693e-01  -2.8281264e-01   9.8944722e-01  -2.3943729e-01   7.9181359e-01  -8.2773745e-01   2.5742491e-02  -3.1514410e-01   8.8141601e-01   3.1296025e-01  -9.4696153e-01  -8.8474599e-01  -3.2114084e-01  -2.4234727e-01  -9.7725712e-01  -4.8807080e-01  -7.4238279e-02  -9.8608950e-01  -2.5370987e-01  -1.8617898e-01   8.9699413e-01  -8.0270006e-01   5.8056357e-01   1.3933120e-01   9.5980532e-01   2.4174029e-01   1.7208586e-02  -3.5367970e-01   5.2550524e-02  -9.8258552e-01  -7.6248949e-01   4.6449483e-01  -1.9778825e-01  -6.8912230e-01  -1.0695792e-01  -6.8610974e-01  -9.2775923e-01   7.9068420e-01  -7.7289016e-01   4.9849341e-01   8.8889222e-01   7.2175095e-01  -3.7279913e-01  -6.2012426e-01  -2.7110423e-01  -6.0421350e-01   5.2003459e-02  -7.4456479e-01  -5.2590146e-01   5.1900518e-01  -4.0677985e-01   4.6379274e-01  -6.8504073e-01   1.1054272e-02  -9.1018786e-01   8.5670450e-01  -7.4457962e-02   5.0389466e-01   5.6505736e-01   8.7459308e-01  -9.0957335e-01  -3.0652301e-01   7.1451925e-01   9.3200838e-01  -7.2385308e-01   5.0173061e-01  -4.9990862e-01  -3.9877199e-01   7.0324215e-01   5.3748653e-01  -2.8344208e-01   3.4334514e-01   2.8890113e-01   6.2985773e-01  -1.2925448e-01   5.4918662e-01   1.5980429e-01  -3.5706103e-01   6.1128616e-01  -2.8345073e-03   6.6771037e-01  -7.4872065e-01   1.8951540e-01  -5.2799168e-01  -5.7129741e-01  -7.1387781e-01   8.7002751e-01   4.1239087e-01  -8.1449839e-01  -4.4774996e-01   7.0429551e-01   4.5025367e-01  -6.8129981e-01   4.2684885e-01  -6.5629192e-01   7.7462268e-02  -1.0503715e-01   3.8995547e-01  -6.2158891e-01  -9.9474381e-01   3.9860730e-01   9.2747912e-01  -8.2944541e-01  -7.6226084e-01   2.5125437e-01  -2.6858659e-01  -1.6923887e-01  -3.3442979e-02  -7.7201644e-01   9.8166971e-02   4.6155917e-01  -3.9910209e-01  -1.4858764e-01  -7.8945028e-01  -7.8061322e-01  -7.0764031e-01  -9.7829128e-01   7.7958587e-01   2.5643364e-01  -2.8044364e-01  -7.5862272e-01   6.9411115e-01   8.8825193e-01   4.1690778e-01   4.4350869e-01  -3.4993907e-01  -7.3650639e-01  -6.9213574e-01  -2.5830475e-01  -7.2536170e-01  -6.7838629e-01  -1.4162743e-01  -8.8240275e-01   3.5921426e-01   5.5805077e-01   8.9109214e-01   7.7616966e-01   6.0875599e-01  -8.7473919e-02   7.3339198e-01  -2.4173077e-01  -1.2825259e-01   1.0550054e-01   1.0249146e-01   8.8476704e-01  -3.2346228e-01   8.9816592e-01   6.0862543e-01  -1.3952941e-01  -9.6162588e-01   1.1418816e-01  -3.6049264e-01   2.4128523e-01   8.7231081e-01  -5.1130739e-01  -7.8658075e-01  -5.7080137e-01  -5.1795903e-02  -1.5141219e-01  -7.3180653e-01   9.4246696e-01   5.4733753e-01   7.6067402e-01  -5.8871122e-01   8.4016773e-01   1.3531841e-02   3.5124748e-01   5.5164809e-02   2.7591645e-01  -4.0315003e-02  -8.7312648e-01  -4.0891045e-01   2.3146736e-01   8.7208127e-01   7.3330111e-01   5.6871903e-02  -5.0323599e-02   2.9639200e-01   7.0917461e-02  -5.3127472e-02   2.5883794e-01   9.6951161e-01  -3.4572568e-01   7.7460052e-01   6.1241086e-01  -8.8265994e-02   3.2966798e-01   3.8658905e-01   5.7438528e-01  -2.0134350e-01  -7.1300428e-01  -7.0622474e-01  -5.0932946e-01   5.6434398e-01   9.7263312e-01   4.3140359e-01  -2.1384786e-01   4.3276346e-01  -6.1485854e-01   9.6039741e-01   2.3983422e-01   4.4609155e-01  -9.2713239e-01  -5.4297332e-01  -7.7546980e-03   3.6032651e-01   9.9073079e-01   2.6866631e-01  -1.8857392e-01   4.6504072e-01  -1.0904881e-01  -5.0543873e-01   8.0030997e-01  -5.7828569e-01  -5.6425182e-01  -7.9147447e-01   8.0766136e-01   5.8791394e-01  -9.7808082e-01   6.6805090e-03  -1.8779783e-02  -1.5466818e-01   1.2486188e-01  -7.6680280e-01   7.3407712e-01  -4.9879847e-01  -5.3163877e-01   4.0637586e-01  -5.0201757e-01  -5.7470354e-02   8.7326869e-01   8.7756364e-01  -4.4698429e-01  -6.4320008e-01  -4.8929070e-01  -1.5713188e-01  -3.2594629e-01  -2.7576293e-01  -3.7088065e-01  -9.4897313e-01   4.4289278e-01  -6.0413671e-01  -2.3084588e-01   3.6817083e-01   7.4767890e-01   6.4308607e-01  -9.4159551e-01  -2.0642584e-01  -2.4565942e-01   9.3336765e-02   8.1223534e-02   2.8805635e-01  -7.0068390e-01  -4.0277586e-01   6.4808663e-02   7.5344905e-01  -3.4750822e-01  -2.4784868e-01  -4.0739288e-01   5.9332536e-01   9.1460912e-02   2.7569586e-01  -6.7527915e-01   1.0879802e-01   7.2662360e-01   2.5895277e-01  -1.9754528e-01   7.2669684e-01   2.6397320e-01   4.6885332e-01   8.0037636e-01  -5.9959298e-01  -2.1357429e-01  -4.6178675e-01   9.4739651e-01   4.8719382e-01  -4.0254963e-01   5.3871982e-01  -2.9425073e-01   8.2398006e-01   3.4810275e-01  -9.8421990e-02   6.0138268e-01   9.5006654e-01  -6.2945949e-01  -1.1136529e-01  -9.6215370e-01  -3.1236422e-01  -4.7587310e-01  -9.6906428e-01  -1.4753882e-01  -8.2218574e-01   7.6973324e-01   4.4555746e-01  -8.9259650e-01   6.3448650e-01   8.2246197e-01   5.1283908e-01   6.9694589e-01   4.1209557e-01   9.2116048e-01  -8.9867008e-01  -1.2305019e-02  -6.1872021e-01   6.0181199e-01  -2.8076763e-01   6.7411832e-01   6.4822092e-01  -4.6057091e-02  -3.6188324e-01   8.7361656e-01   6.8656988e-01   9.8425183e-01  -7.5491104e-01  -6.3060852e-01  -1.7714065e-02   7.5226304e-02  -9.7342589e-01   3.1025463e-01   1.2313673e-01  -3.9134882e-01  -9.5885246e-01  -9.4988103e-01   9.7382804e-01  -8.2079249e-01   8.6321776e-02  -7.7195896e-01   8.1001526e-01  -8.6727763e-01   8.1780371e-03  -3.8148531e-01   6.1275536e-01  -4.2217647e-01   2.2992406e-01  -6.0106909e-01   8.2021248e-01   1.0072800e-01  -7.0186281e-01  -7.3598752e-01  -5.5445258e-01  -6.9261325e-01  -2.9777515e-01  -5.9069698e-01  -7.6416295e-01  -8.5601689e-01  -8.0949127e-01  -9.3677977e-01  -3.5693620e-01   5.9665972e-01  -4.7916413e-01  -4.1527377e-01  -4.6289264e-01   7.2445839e-01  -4.1911486e-02   3.6191668e-01  -3.2554108e-02   1.8442105e-01  -7.2024941e-01   1.3215794e-01  -2.8468466e-01  -7.4227883e-01  -7.7146566e-01   2.7858217e-01   7.6058907e-01   7.7042684e-02   3.0557316e-01  -9.5925635e-01   9.4897853e-01   8.5755401e-01   2.6971444e-01  -1.8295331e-01  -7.4262621e-01  -5.2041021e-01  -2.8965557e-01  -7.5013114e-01   3.5817934e-01   2.9595690e-01  -1.0913508e-01  -3.2680136e-01   2.8422548e-01  -6.2514266e-01  -5.6068740e-01   5.1736062e-01  -6.8603732e-01  -9.2970125e-01  -1.3732711e-01  -9.3589656e-01   9.7710351e-01  -6.8000042e-01   6.6671497e-01  -8.1583183e-01  -6.8349471e-01  -3.9082845e-01   8.5084968e-01  -3.6017572e-01   5.2770422e-01   8.3054724e-01  -9.0301951e-01   8.7356920e-01   9.7679805e-01   9.8470129e-01   6.6415748e-01  -8.5010591e-01   7.1877513e-02   7.2016004e-01  -5.1961796e-01  -4.6724873e-01   1.3343296e-01   4.9224450e-01  -6.6059030e-02   7.6046874e-01  -9.4895544e-01  -1.7563543e-01  -6.3949087e-01   3.8542661e-01   4.8555937e-01  -2.6004783e-01  -2.1554252e-01   1.0328504e-01  -9.2401499e-01  -8.7094082e-01  -1.8386313e-01   6.7849634e-01   5.4229604e-01  -1.8508519e-01  -4.6899049e-03  -4.6296232e-01  -4.9310803e-01  -5.8228033e-02  -5.5608785e-01   5.9480357e-03  -2.3019566e-01  -7.3482364e-01  -8.6327959e-01  -4.7006872e-01   1.7915916e-01   4.9268382e-01   3.2437780e-02   4.2738590e-01  -3.7131130e-01  -3.7681701e-02   5.7296139e-01   8.8827328e-01  -7.5933893e-01  -1.3504101e-01  -2.7312045e-01  -6.8935474e-01  -6.8930065e-01   2.4589089e-02   9.3918825e-01   9.7132788e-01   8.9918760e-01  -2.1027960e-01  -3.2135879e-01   9.2780665e-01  -8.2395142e-01   3.6617986e-01   2.7702320e-01   9.1818396e-01  -1.1040163e-01  -4.2296071e-01   9.4331285e-01  -5.3062069e-01   8.4172488e-01   3.4500353e-01   2.6867255e-01  -3.7303967e-01  -1.2069161e-01   8.7087045e-01   1.7361503e-01   4.2545492e-01   8.0616899e-01  -4.2505863e-01   6.2154588e-01  -9.4257836e-01   7.5684921e-01  -7.2725331e-01   5.4162333e-03  -1.1601817e-01  -1.0828958e-01   2.3569602e-01  -8.5267792e-01  -3.0741497e-01   4.2434619e-01   8.4994437e-01  -8.4718245e-01  -4.0351100e-01  -1.2058848e-01   6.7304671e-01   7.4171320e-01  -3.6648557e-01   9.9503579e-04  -3.6522213e-02   3.6814059e-01  -4.6185481e-01   1.0021228e-01   7.1854266e-01  -7.8566442e-01  -9.2542533e-01   5.9372098e-01  -3.2909156e-01  -2.2626058e-01   4.0309797e-01  -3.2102865e-01   7.6947642e-01   9.4607308e-01   4.5532924e-01  -1.5553205e-01  -1.7581546e-01   1.4312934e-01   9.8057641e-01  -2.2940992e-01   1.9070208e-01   4.0557339e-01   5.5144755e-01  -7.2975208e-01   3.1871243e-01  -7.9647851e-02  -4.4811361e-01  -6.5313954e-01  -1.1845782e-01  -7.8983548e-02   7.3303198e-01  -7.4665448e-01  -1.0168690e-01  -6.1152816e-01   5.1681453e-01   1.9956275e-01   7.7547647e-01   6.8090580e-01   3.9155012e-02   6.0002843e-01   3.8052028e-02   8.0641662e-01   6.8372913e-01   5.3496743e-01   7.5909042e-01  -2.0026587e-01  -1.3950132e-02  -5.8667691e-01  -9.8454262e-01  -8.5501957e-01  -8.5863753e-01   4.8502913e-01  -6.1250287e-01   8.2170472e-01   4.1603225e-01   5.0679050e-01   4.8916609e-01   7.2028892e-01   2.9888856e-01  -2.4092695e-01   3.4552276e-01  -8.7152391e-02   3.1183500e-02  -2.9227875e-01   7.7170327e-01  -1.0745343e-01  -8.4170200e-01   9.6401117e-01   1.8737654e-01   9.1159635e-01  -6.1979141e-01   4.7648685e-01   5.5893113e-01  -2.6943979e-03  -9.2250140e-01  -7.7922196e-01   8.5510653e-01   1.0468759e-01   5.9017175e-01   6.2067889e-01   8.6153198e-01   4.4513978e-01   9.4023819e-01   7.1157557e-01   7.3573510e-01  -2.1494545e-01   2.8559152e-01   5.4813271e-01  -1.2853900e-01  -4.7417655e-01  -3.6914089e-01  -6.7600256e-01   8.2744295e-01   7.6716566e-01  -6.2019767e-01   4.4245286e-01  -5.4283386e-01   2.7328600e-01  -6.7784605e-01  -6.5226449e-02  -2.2540939e-02   2.7324995e-01   6.4908898e-01  -3.2113073e-01  -5.2940617e-01  -1.0058009e-01   1.5796428e-01  -2.9932741e-01   5.2893393e-01  -8.7302676e-01   1.1868175e-01  -4.1503138e-01   5.0684526e-01   7.6969619e-01   8.0971960e-01   4.6785274e-01  -5.2114105e-01   2.8980662e-01   1.3067582e-01   1.5959226e-01  -7.9231692e-01  -5.3990080e-01   9.9726009e-01  -5.8450147e-01   3.1396822e-03   3.5208913e-01   5.1308128e-01   6.1230524e-01  -2.4785743e-01  -9.0569784e-01   7.1705462e-01   8.8885314e-01  -5.5484122e-02   6.4038970e-01  -8.6483629e-02   2.4673403e-01   1.1314232e-01   7.0656996e-01  -9.0340776e-01  -8.6812373e-01   5.4296359e-01   5.2420053e-02  -9.0690610e-01  -8.8368967e-01  -3.1025935e-02  -5.0273435e-01  -5.4824781e-01   1.9331068e-01   5.4090607e-01  -5.0445290e-01  -9.6924926e-01   2.8597607e-01   6.0529709e-01  -6.6840503e-01   1.3986941e-01  -2.9278816e-01   5.3614848e-01   8.9118987e-01  -5.2470684e-01   8.6465225e-01   6.6564282e-01   6.0955530e-01  -6.7393972e-02   4.8499923e-01   9.0799280e-01  -4.9059966e-01   9.3855909e-01   8.4033119e-01   7.2598032e-01  -6.5132183e-01  -6.6786335e-01   5.1252087e-01   4.2619765e-01  -1.3937742e-01  -3.5930008e-01   9.7368994e-01  -2.8698159e-01   3.3622385e-01  -5.5672652e-01   1.8143754e-01  -9.2655810e-01  -5.1195946e-01   6.5911077e-01  -1.3235844e-01   1.7906230e-01   5.3322732e-01  -9.2512599e-01  -2.9345454e-01  -8.2819196e-01   8.2024980e-01  -8.9210636e-01  -6.3099291e-01  -8.8434101e-01   5.5784878e-01   4.1428344e-01  -8.1569543e-01  -8.8966700e-01   5.9254623e-01   1.0599298e-01   6.6669112e-01  -5.1670974e-01  -2.4858382e-01  -2.4751888e-01   2.6908279e-01   9.0207920e-01   2.0200950e-01  -9.8246649e-01  -8.4916034e-02  -1.6308690e-02   2.6088537e-02  -1.0587115e-01   5.9256048e-01   2.4760675e-01  -4.9583137e-01   2.2495595e-01  -3.1087229e-01  -6.2838921e-03   3.9371781e-01   5.5708703e-01   3.4481882e-01  -1.9687327e-01   4.5700050e-01  -6.9490999e-01  -6.4813135e-01   4.3232283e-01  -7.7163783e-01  -4.2974105e-01   6.8044287e-01  -7.2874327e-01   1.1267825e-01  -7.3222620e-01  -1.2970169e-01  -5.8004100e-01  -3.8367176e-01  -3.3841738e-01  -9.5020714e-01  -9.4230285e-01  -9.6075343e-01   9.1095399e-01  -5.7441958e-01  -6.4125152e-02   1.7482630e-01   7.2939847e-01  -3.7771917e-01   8.5157179e-01  -4.9833605e-01   9.6818701e-01  -3.6531594e-01   1.5066461e-03   6.2453923e-01   6.9760410e-01   7.1585949e-01   4.3586747e-01   4.3876748e-01  -5.5666478e-02  -1.2677553e-03  -1.3484091e-01   9.1393017e-01   1.3337820e-01  -6.9737176e-01   2.4673495e-01   1.5503928e-01  -7.2139982e-01   1.4860071e-01   7.5563985e-01  -8.4047822e-01   3.6775788e-01  -2.4314192e-01   5.2498133e-01  -6.3370053e-01  -8.3217290e-01   5.1744501e-01   5.2470750e-01   8.5997318e-01  -5.7784958e-01  -1.0233697e-01   4.9283292e-01  -7.4501996e-01  -7.1254685e-01   9.2125719e-01   1.3076376e-01   4.2101163e-01   9.7216372e-01  -1.5528060e-01   1.5689937e-01   6.0178061e-01   7.5796438e-01   1.1493796e-02   3.6901084e-01   9.2771114e-02   6.0271306e-01  -3.6868694e-02  -4.4273393e-01   6.8451104e-01   1.4372826e-01   6.9513097e-01   4.2683928e-01   3.8435889e-01  -3.9858210e-01  -7.5389289e-01   6.0245301e-01   6.6377563e-01   7.0058100e-01  -9.0061429e-01   3.0779831e-01   4.9522773e-01  -6.3582860e-01  -3.6380129e-02   4.6484559e-01   9.6083265e-01   7.7103113e-01  -7.3700456e-01  -8.8686216e-01   2.9826542e-01  -4.2628336e-01  -7.1522309e-01  -4.7727453e-02   9.0740639e-01   7.6748414e-01  -6.9089159e-01  -4.5570878e-01  -3.4467910e-01   7.8052874e-01   2.2419091e-01   5.6674309e-01  -1.3046071e-01   1.8793669e-01   1.2747066e-01   4.9500249e-01  -2.5817208e-01   9.4996737e-02  -1.5636416e-01
