  -6.6661818e-01  -7.5787533e-01   1.3853213e-01  -1.0533142e-01   3.3920897e-01   5.7044595e-01   1.6920972e-01  -5.5379012e-01   1.3569643e-01   1.5592460e-01  -7.6272465e-01   1.6818369e-01   3.9490134e-01  -3.4707877e-01   7.9445143e-01  -7.8828094e-01  -7.1866875e-01  -6.3760850e-01   3.6832016e-01   4.7269654e-02   5.8919546e-01   2.4258377e-01  -4.9770627e-03  -9.5240561e-02  -3.1059045e-01  -6.6915428e-01   7.0547561e-01   9.2840507e-02  -7.5105009e-01  -4.7354609e-01  -4.4648707e-01  -7.2916201e-01  -8.0427890e-02   7.9685557e-01  -8.8615993e-01   8.3821798e-01   3.4998293e-01   3.4738525e-01  -7.9403158e-01  -9.4872997e-01  -8.6071767e-01   1.6239124e-01  -7.5547725e-01  -7.7971458e-02  -8.2694542e-01  -6.6779393e-01  -4.1417169e-01  -7.2316035e-02  -5.3271811e-01  -8.8463705e-01  -3.9171774e-01   5.4465414e-01   7.8817713e-01   8.5743841e-01  -5.6790276e-01   9.9637828e-01  -9.3304362e-03  -6.3042480e-01  -4.3066245e-01  -7.1701879e-01  -6.3973991e-02   4.7792320e-01   4.9532729e-01   6.4635074e-01  -8.8111707e-01  -7.7217534e-01   8.2674082e-01   3.4920628e-01  -7.2392079e-01  -5.5313367e-01  -4.2728004e-01  -1.8043833e-01   6.6095149e-01  -1.3377680e-01   5.3521200e-01  -1.3978528e-01   4.7523737e-01   9.2294350e-01  -1.0762010e-01  -3.3424839e-01  -4.5907302e-02  -8.3770922e-01  -7.6290362e-02  -4.3227240e-01  -7.6031485e-01  -8.4453364e-02  -2.4772463e-01  -4.4025742e-01   9.0396955e-01   3.2602070e-01   7.0855365e-01  -1.6707154e-01   8.1570584e-01   1.4113789e-01   2.3783316e-01  -6.9528928e-01  -8.3837727e-01  -1.3637036e-02  -8.4997455e-01   8.1397923e-01   5.5189921e-01  -3.3225576e-01  -5.8493926e-01  -2.5265944e-01   6.4231470e-01  -5.6247074e-01   6.7020094e-01   2.2801911e-01  -4.7042249e-01   5.2995448e-01   1.9741434e-01   2.6435105e-01  -1.1215478e-01   3.7542641e-01  -5.8812791e-01  -5.0253277e-01   3.0036547e-01  -6.5932827e-01   8.4384869e-01  -9.3285076e-01   1.9177305e-01   4.6192919e-01  -4.3478079e-01  -4.1297663e-01  -4.0683516e-01  -6.7167924e-01  -9.0279313e-01   3.0666440e-01   8.4094098e-01   3.1130584e-01   9.4896716e-01   5.6761348e-01   4.5953662e-01  -4.6348184e-01   9.0927911e-01  -4.2353586e-02  -6.9235979e-02  -4.3952655e-01  -4.2055913e-01   6.7887867e-01   9.5386860e-03  -3.0413889e-01  -5.2932151e-01   8.6621421e-01  -4.7470983e-01  -4.4981752e-02  -6.4021464e-01  -6.1558138e-01   9.4616607e-01   2.2716414e-01   3.9353688e-01   3.4328892e-01   3.8442436e-01   5.2933146e-01   1.0030692e-01  -5.0601258e-01   7.4471066e-01  -4.5744456e-01   8.8427098e-01  -1.7548048e-01  -8.8571468e-01   6.9605446e-01  -7.1949157e-02   1.6243477e-01   9.1476732e-01   9.8548820e-01   9.9344395e-01  -9.8549245e-01  -8.1902312e-01  -2.6224458e-01  -1.3145927e-01  -5.1188736e-01   5.4416978e-01   6.6088157e-01  -8.6607371e-01   6.2724147e-01   5.9651359e-01   4.8134023e-01   3.8398605e-02   8.9414750e-01   4.3554964e-01   7.9546789e-01  -3.5737200e-01  -2.1986950e-01  -3.4986786e-01   5.9864650e-01   6.4431576e-01  -8.8945811e-01  -1.7877069e-01  -6.3154385e-01  -3.7006531e-01  -8.7642166e-01  -9.0834399e-01   9.8849419e-01  -2.4969409e-01   8.6031039e-01  -7.0677261e-01  -5.1679398e-01   5.3686893e-01  -1.6109327e-01  -5.9263178e-01  -1.1473610e-01   9.4720295e-01   8.9616233e-01  -1.5264424e-01   7.7171962e-01  -7.9281299e-01  -8.5104521e-01  -9.7053130e-01  -3.6523037e-01  -9.5846480e-01   8.1361520e-02  -3.8588000e-01  -7.1687877e-01  -2.3555465e-01   7.0686020e-01   6.0508524e-01  -5.0832368e-01   5.9172791e-01  -8.3401747e-02   5.2090686e-03   8.3713429e-01   6.9545940e-02   5.4561768e-01  -7.7952290e-01   4.0885468e-02   9.6065498e-03   4.6098074e-01  -9.0653732e-01   2.6535484e-02   1.0393871e-01  -3.8010963e-02  -2.5991832e-01   8.6988459e-01  -9.8474006e-01  -6.2638629e-01   2.3440158e-01  -4.0611887e-01   8.4620619e-01   9.9225616e-01  -1.8787895e-01   9.7680385e-01   4.1251118e-01   6.7395822e-01   4.8206345e-01  -2.3419073e-02   4.8799380e-01   5.3312994e-01  -2.7323559e-01  -1.5276853e-01  -6.8926617e-01   8.5448893e-01   5.5624974e-01  -4.3650853e-01   7.0480082e-01   5.1907371e-01  -2.6798491e-02   4.7223340e-01   6.5417287e-01   9.9309961e-01  -3.0053506e-01   9.9071902e-01  -6.7732105e-01   1.8760965e-01  -3.9191398e-01  -4.7089635e-01   3.6298075e-02   7.4867852e-01  -8.5379336e-01   8.6914079e-01   5.2171650e-01  -3.2380063e-01   5.2941455e-01   2.4752667e-01  -4.7299023e-01  -4.0407513e-01   9.0757262e-01   4.1074973e-01  -2.2367121e-01  -1.0091029e-01  -6.8359344e-01  -2.3432873e-01  -7.5746054e-01   9.7620837e-01  -5.2312519e-01   1.8684344e-03   8.5142226e-01   7.3992183e-01  -6.6159504e-01   4.0211635e-01   1.1161200e-01   9.3757390e-01   8.1608787e-01  -8.9789759e-01  -3.5851724e-02   6.8035610e-01   7.7870193e-02  -3.8772214e-01  -3.1453711e-01   6.6142462e-01   3.8828822e-01  -5.2262358e-02   7.6564123e-01  -4.8521711e-01   2.1853655e-01   4.0659573e-01  -7.8516289e-01  -8.4232672e-01  -2.1465430e-01   6.2252388e-01  -2.4903990e-01   1.6626836e-01   8.1212797e-01  -9.5037012e-01  -3.3122909e-02   6.2684852e-01  -2.2370676e-02  -8.7580499e-01   1.7873005e-01  -6.1571287e-01  -7.4201421e-01   9.3198297e-01  -3.6706323e-01   3.7670285e-01   1.5903923e-01   5.2463820e-01  -7.3179466e-01   7.5160499e-03   8.1776653e-02  -5.4627493e-01  -2.4881779e-01  -2.6291370e-01   9.7851775e-01   1.8261257e-03   4.9568748e-01  -3.9337292e-02  -8.4355694e-01  -2.8196506e-01  -7.3698908e-02  -8.8814262e-01   2.7910542e-01  -1.4564965e-01  -4.9556839e-01  -1.6586227e-01   6.1881470e-01   9.4966223e-01   5.0942982e-02  -2.7883356e-01   9.7717085e-01   8.5011955e-01   8.5748179e-01  -2.0145473e-01   5.6224726e-01  -9.1526450e-02   3.2786902e-01   7.8755429e-01   3.8763753e-01   5.6311561e-01  -5.3976969e-01   3.6728715e-01  -9.6930064e-02  -2.0998241e-01   9.6718774e-01   5.1385469e-01  -6.5168975e-01  -4.9003879e-01   8.7205274e-01   1.8676016e-01   6.4893410e-01  -8.8281881e-01  -3.7634180e-01   3.6017371e-02  -9.8896050e-01   6.0566234e-01   9.4915821e-01  -8.2756234e-02  -4.8461736e-01  -7.5598261e-01  -6.6731821e-01  -3.5558070e-01   4.0591876e-01   5.7246314e-01  -8.1032456e-01   5.8081104e-01  -8.8423657e-01   1.8886439e-01  -2.3136551e-01   6.3395609e-01   2.0290684e-01   7.9254190e-01  -5.3423866e-01   1.0303602e-02  -2.1665021e-01   5.2266407e-01  -8.3100303e-01   7.1369012e-01   3.8713586e-01  -1.5573030e-01  -2.2858990e-01  -4.6929222e-01   5.9366167e-01   4.9660606e-01   3.6477633e-01   3.6449160e-01  -1.0276278e-01  -6.7301126e-01  -4.7907137e-01  -5.3364572e-01   4.4986082e-01  -3.6118954e-01   7.0777061e-01  -2.5733889e-01   8.8151900e-01   4.5570402e-01   9.9320877e-01   9.6890399e-01  -4.9169935e-01   8.6853797e-01  -4.0380050e-01   1.2212231e-01  -6.0641492e-02  -5.0300756e-01  -1.7549890e-01   5.5913408e-01  -8.5632134e-01   1.6210056e-01  -9.7871481e-01   9.1979322e-02  -7.0814144e-01   5.3876800e-01  -8.2345645e-01  -1.7937239e-01  -6.6116049e-01  -9.4477978e-01  -2.3171130e-01   3.1056607e-01  -2.2329429e-01   4.2020344e-01  -8.5779568e-01   2.8670191e-01  -4.7271024e-01   3.7594125e-01   6.3267118e-01  -8.5247606e-01  -8.1446154e-01   9.7363909e-01  -8.9312100e-01   9.1777936e-01   1.3319031e-01  -1.3347290e-01  -9.4787913e-01  -9.8721861e-01  -5.1850860e-01  -5.0016259e-01   1.7274029e-01   6.3424501e-02  -7.1824151e-01   2.1724924e-02  -3.1841255e-01  -6.8888939e-02  -5.5939217e-01   1.0994261e-01   4.1580238e-01  -9.1245290e-01   4.9689637e-01  -3.7276522e-01  -4.6725616e-01   7.1287361e-01   4.3692128e-01   3.6029516e-01   1.7969143e-01   3.8629523e-01   9.1307271e-01  -1.5866783e-01  -1.5675558e-01   6.2126198e-01   5.8269567e-01   9.5992469e-01   3.4107364e-01   4.3411998e-02   8.5193105e-01   7.6904869e-01  -6.1727644e-01   8.7949169e-01  -7.3069497e-01   5.0256393e-01  -1.7151392e-01   8.9910080e-01  -9.9767145e-01   2.4031998e-02  -3.1696145e-01  -5.6907926e-01   7.8809959e-01  -9.7081401e-01  -9.4427226e-01   9.8674448e-01   8.1458640e-01  -4.4439095e-01   7.3320641e-01   3.1144952e-01   5.1113678e-01  -3.2936781e-01   3.3487904e-02  -7.1800776e-01  -9.8637944e-01  -5.4047938e-01  -8.5795296e-01   1.4082064e-01   7.0499053e-01   8.6457746e-01   3.6834782e-01  -2.1619354e-01  -4.9619731e-01   5.1263947e-01   9.1567228e-01  -9.9710672e-01  -8.0764034e-01   8.5392684e-01   6.0488323e-02  -9.2001408e-01  -6.8506548e-01  -9.8981836e-01   2.4561548e-01  -3.4093140e-01   8.2861038e-01  -3.3064051e-01  -8.6675851e-01  -6.2264162e-01   5.7283550e-01   8.6510870e-01  -1.9587194e-01  -5.4106332e-02   7.2420042e-01   7.6819078e-01   8.1703605e-02   1.3079501e-01  -9.1877678e-01  -5.5793598e-01   6.4096447e-01  -8.4965670e-01  -9.5492340e-01   6.2939504e-01   2.7482887e-01  -4.3054847e-01  -2.6667506e-01   7.6973370e-01  -3.3542859e-01  -1.6831087e-01   1.5319331e-01  -8.7199281e-01  -8.8879193e-01  -6.5219677e-02   2.9088930e-01  -3.1177344e-02   5.7197588e-01   4.6135038e-01  -8.9350985e-01   7.3649767e-01   9.2434950e-01  -8.8859009e-01  -8.9174542e-01  -4.9739520e-01   6.4656787e-01  -6.7636479e-02  -1.3831960e-03   3.6156328e-01  -2.4443749e-01   6.3929980e-02  -6.8684740e-01   4.7345328e-01  -7.3971196e-01  -3.5902848e-01   9.8623093e-01  -4.1761717e-01   9.0312199e-02   6.5869392e-01   4.0262413e-01   2.2631964e-01  -7.7799626e-01  -5.7217276e-01   1.5516970e-01  -1.6030525e-01   5.8723002e-01   2.1167084e-01   2.8571837e-01  -3.4036943e-01   8.3930620e-02  -2.0543418e-01  -6.5285693e-02  -9.7817048e-01  -2.9252854e-01  -4.0964535e-01  -4.5161710e-01  -9.2695992e-01  -6.4785941e-02  -5.8779235e-01   1.7509203e-01  -3.9868657e-02   7.3232007e-01  -9.9801604e-01   4.4893590e-01  -3.9958259e-01  -6.7494362e-01  -4.1686370e-01  -6.9077528e-01  -1.6419774e-01   2.4089044e-01  -3.3146014e-01   4.1942446e-01  -9.4492866e-01  -2.4890278e-02   5.6714819e-01  -7.1760817e-01  -6.3075460e-01   7.0000635e-01   8.9682653e-01  -9.2736386e-01   6.7320707e-01   7.0743667e-01  -7.0945127e-01   4.6991860e-01  -1.3377707e-01   2.6461085e-01  -2.1180896e-02   1.5759266e-01  -9.2441156e-01  -2.3065537e-01   3.3263835e-02   1.7904395e-02   1.5911236e-01   6.0779222e-01  -5.3189060e-01  -8.6374013e-01   2.2338715e-01   6.7245415e-01  -7.7032951e-01  -6.0256156e-01   4.4287169e-01  -7.7025481e-01  -1.3396281e-01   6.5785655e-02   5.1629784e-01  -2.9762078e-01   8.9766293e-01  -9.6743585e-01   3.5364352e-01  -3.6376704e-01  -1.2623945e-01  -4.8753619e-01   7.8718451e-01   7.3022090e-02  -4.5526332e-01  -6.6216375e-01   3.1259353e-01  -8.3696599e-01  -3.9940942e-01   2.1134112e-01   1.5311989e-01  -3.8566915e-01  -9.8362975e-01   7.0582499e-02  -8.1669575e-01  -4.4999904e-01   5.3226128e-01  -8.2263240e-01  -8.9126488e-01  -2.4824041e-01  -8.7252646e-01  -5.7908809e-02  -6.8143808e-01   5.1880757e-01   8.9837502e-01   9.0863826e-02   2.2729069e-01  -7.3103381e-01   5.6954834e-01  -2.5463067e-01   4.5651500e-01  -8.2860834e-01  -8.6726158e-01  -1.8821317e-01  -5.5964462e-01  -6.8601856e-01  -4.4835418e-01   7.1629768e-01  -2.2212657e-01   3.6833890e-01   1.6262341e-01  -8.7596712e-01  -7.9236182e-01   8.9766242e-01   8.0914619e-01  -1.4605470e-01   6.2320452e-01   9.9023280e-01  -1.1896495e-01   9.2708413e-01   8.3452150e-01  -1.8326349e-02  -6.7153656e-02  -5.0802304e-01  -7.1927174e-01   8.6376960e-01   9.4817602e-01  -5.3029785e-01  -7.9817571e-01   4.1846553e-01   8.7583537e-02  -4.3700033e-01   3.3075027e-01  -4.3736040e-01  -3.3101164e-01   1.6953877e-01  -4.5767758e-01   6.0139669e-01  -7.6424834e-01  -1.8941354e-01  -2.2609245e-02   9.7575729e-01  -1.3088975e-02   6.9930301e-01   6.6066765e-01   5.8183928e-01   9.9434714e-01   8.6575494e-01   4.0858905e-01   2.0726337e-01  -5.7793887e-03  -3.7865849e-01   5.5926606e-01  -5.4358187e-01   5.7242793e-01   6.1094203e-01   7.2221934e-01  -8.6552240e-01   4.4832847e-01  -9.9751190e-01  -3.7036603e-01   3.1802430e-01   3.2324040e-01   6.6207650e-01  -7.0859799e-01   1.7133019e-01   8.5178993e-01  -7.5816815e-01   9.3344132e-01  -3.3552799e-01   9.9498089e-01   4.2335749e-01   7.6880505e-01  -5.6122988e-01   1.0345559e-01  -3.8443097e-01  -4.9705902e-01  -7.8651798e-02   7.8286769e-01  -4.7734001e-01  -5.1109863e-01  -3.9301765e-01   5.8509015e-01   9.2628870e-01  -8.7493890e-01   1.5496856e-01  -3.1161593e-01   4.6401696e-01  -7.2327885e-01  -2.5755537e-01  -6.7682738e-01   1.1352582e-01  -8.6340528e-01  -6.8059106e-02  -2.6992092e-01  -7.5033255e-01  -8.4579716e-02  -5.7288597e-01  -6.2757933e-01  -1.7710035e-01   7.6259436e-01   9.4956831e-01   7.4235715e-01  -5.7585161e-01   3.7984297e-01  -2.1309447e-01  -4.8342059e-01   5.5026293e-01   6.8860257e-01  -9.8163083e-01  -7.7358759e-01  -3.0524726e-01   4.1904956e-01   4.3569612e-01   1.6735593e-01   2.5393892e-01  -2.3337609e-01  -8.0596531e-01   9.0302714e-01  -9.9327575e-01   4.7367366e-01  -4.3162902e-01  -3.8428172e-01  -2.2028406e-02  -6.7743266e-01   1.7926508e-01   7.2655350e-01   1.8110210e-01   7.8866417e-01  -1.9154760e-01   4.1601526e-01   5.5723831e-01  -9.6950002e-01   2.7846683e-01   3.8819875e-01   9.8515312e-01   5.4881930e-01  -2.9963565e-01   8.8606809e-01   3.8221723e-01  -4.4808218e-02   3.2035250e-01  -2.5252014e-01  -9.7354428e-01   1.2481915e-01  -5.3392962e-01   9.4537680e-01   8.2660520e-02   6.5846024e-01  -2.9829378e-01   7.5687855e-01   7.0399970e-02   3.9292651e-01   2.8928278e-01   9.5489508e-01  -8.5945160e-01  -6.4055308e-01   8.6789775e-01  -4.1111892e-01   3.3473693e-01  -7.5780241e-02   3.9441552e-01  -2.7120993e-02   5.6932792e-01   8.7513163e-01   1.1240515e-02   3.5170444e-02   3.3839628e-01  -4.4234657e-01   5.0734491e-01   6.6847077e-01  -1.6688071e-01   2.5315867e-01  -1.9865902e-01  -6.1918318e-01   6.5122117e-01  -4.9108924e-02   1.3140195e-01  -6.8052143e-01   3.3206775e-01   1.8833603e-01   4.6537190e-02  -2.1306541e-02   9.7868176e-01  -1.6406469e-01  -9.5027392e-01  -2.6784274e-01  -6.1217830e-01  -1.8014964e-01   1.4730512e-02   5.6489496e-02  -4.1292393e-01   2.3986525e-01   3.8207574e-01   7.3372493e-01  -3.3489521e-01  -8.6574801e-03  -9.1118940e-01   4.3123945e-01  -5.1222776e-01   6.1491083e-01  -1.7460221e-01   5.1998922e-01   7.5328442e-01   8.3373774e-01  -2.8786444e-01   9.5655700e-01   7.5738827e-01   6.8262405e-01   5.5475095e-01  -2.2078543e-01  -4.7414901e-01  -9.6331996e-02   6.6176221e-01   2.5083187e-01  -1.2926398e-01   9.8750795e-01  -7.7381340e-01   4.9173629e-01   5.7729730e-01   7.5271699e-01  -6.6034926e-01   6.5989952e-01  -9.3643866e-01   6.8567647e-01  -7.2703505e-01  -7.1628257e-02   2.3800655e-01  -6.2437519e-01  -8.0222187e-01  -6.0140750e-01   2.7292351e-01  -6.5565047e-01   5.3531184e-01   6.8957213e-01   3.7153111e-01   5.5244009e-01   7.5269890e-01   4.7870464e-01  -4.0502832e-01   4.9949795e-01   9.7211136e-01  -3.9398577e-01   7.0800395e-01  -8.3391517e-01  -5.5431549e-01   6.9446857e-01   1.1307531e-01  -8.6587909e-01   3.4807801e-01   9.4717239e-01   9.7931401e-01   4.4527869e-01   7.5815570e-01   6.3074061e-02   6.4483504e-01  -4.1603578e-01  -3.4744387e-02  -4.2310699e-01   8.3168975e-01   3.6268923e-01  -1.9540234e-01   7.7989297e-01  -1.4326930e-01  -1.1813791e-02  -4.6429919e-01   2.6432466e-02  -7.0429464e-01  -9.3359447e-01  -1.6846792e-01   9.7809674e-01  -1.6848204e-01   2.8831138e-01  -1.9680050e-01   4.1614547e-01   4.5431489e-01  -3.2253404e-01  -7.1821976e-01  -4.9104066e-01   2.8380406e-01   6.8200309e-01  -4.5469591e-01   6.6775141e-01  -2.0297920e-01  -4.1617099e-01  -9.7587484e-01  -1.9574464e-01  -6.3047101e-01  -6.2658890e-01  -2.0666084e-01   7.2466103e-01   7.2691080e-01  -3.3585718e-01   6.0718577e-02   4.9835138e-01  -7.5168294e-01   8.6451748e-01  -6.6030322e-01  -9.2712153e-01  -1.5568341e-01   6.8745522e-01   8.1973445e-01  -3.2090798e-01  -5.8829427e-01  -4.4559346e-01   4.6068168e-01   2.0043289e-01  -5.8616149e-01   5.5659031e-02  -9.1159337e-01  -9.6303485e-01  -5.2045935e-01  -7.2021636e-01  -5.2283796e-01  -6.5886410e-01   3.6220302e-01  -5.6034950e-01   9.6123877e-01   3.4971370e-01   4.2134657e-01   5.5830040e-01  -1.2935983e-01   7.8062435e-01
   9.4138689e-01   5.5092983e-02  -9.5378891e-01   2.6182697e-02   8.1238961e-01  -8.2690378e-01  -4.0158282e-01  -9.8473924e-01  -5.1496025e-01   9.6071998e-01   1.9001162e-01  -3.1206426e-01  -2.5803526e-01   7.9150697e-01   1.3530490e-01   8.5807089e-02  -7.0895419e-01   8.2844435e-01  -5.4462332e-01   4.1343175e-01  -5.9687630e-01   1.8485392e-01   4.5179486e-01   7.2978826e-01  -2.8452568e-01   8.0595515e-01  -1.5476259e-01   3.2746579e-01  -9.3123305e-01  -3.6902858e-01   2.6461159e-01  -7.8845449e-01  -8.8720425e-01  -8.0022051e-01  -9.3135885e-01   2.7599891e-01  -6.4462129e-03   5.5858408e-01  -2.3713330e-02   1.0863960e-01   6.8480015e-01  -1.5177990e-01   5.8734115e-01  -8.7458777e-01   7.2539410e-02   3.2232652e-01  -9.9763492e-01  -6.8558682e-01  -4.0412728e-01  -2.4225895e-01   1.9756280e-01   5.9443230e-01   1.7659772e-01   1.0671215e-03   9.8986133e-01  -1.0908199e-01  -3.9084524e-01  -3.2902529e-01  -2.9017438e-02  -9.0139306e-01  -3.4777597e-01  -7.7529646e-01  -1.3380536e-01   5.2249216e-01  -5.0831173e-03  -5.0278974e-01  -1.6156950e-01   5.8170879e-02   3.4152310e-01   4.4701897e-02  -6.1269260e-01  -4.6840611e-01  -5.7748950e-01  -6.5812072e-01   2.9167960e-01  -1.7186337e-01   7.9533547e-01  -6.5242377e-01  -5.9532755e-01   8.5755236e-01  -8.9187398e-01   8.6147565e-01  -3.6720642e-01   2.6250165e-01   2.5771600e-01   6.3454534e-01  -2.7205589e-01  -2.8547605e-02   3.1593888e-01   2.6205844e-02   7.2454966e-01  -1.1198733e-01  -7.4236692e-01  -6.9199432e-01   9.5991483e-01   2.6292758e-01   3.6123371e-01  -7.5239756e-01  -5.7322369e-02  -2.0610449e-01  -7.0833343e-01   6.3504405e-01  -8.5100525e-01  -3.0544417e-01   4.1662466e-01  -3.1049953e-01  -5.7584738e-01  -4.2303852e-01  -6.0386126e-01  -2.7750242e-01   6.2866579e-01  -6.0055882e-01  -4.9941205e-01  -5.9708852e-01  -8.2833309e-01  -3.8333213e-01  -9.2103116e-01   9.6899891e-02  -3.9219523e-01  -3.5392873e-01   5.0870025e-01   6.7703271e-01  -1.3864247e-01   2.0242724e-02   5.5358908e-01  -1.5093913e-01  -5.8500025e-01  -4.8738350e-01   3.5152900e-01   5.7761537e-02  -8.2893915e-01  -9.0235724e-02   3.9975148e-01  -3.0347372e-01   8.8925114e-01  -6.1155596e-01  -5.8377430e-01  -8.3477849e-01  -8.7508783e-01   8.3961180e-01  -3.9981854e-01  -2.0531733e-01   2.5036382e-01  -3.8651497e-01  -4.6863055e-01   1.0647634e-01   9.3699829e-01  -3.6137370e-01  -2.3907327e-01  -5.1871524e-01   5.0382423e-01  -5.8754321e-01  -2.1175828e-02   4.7913068e-01  -5.5340575e-01  -1.4657044e-01   6.5398757e-01   5.0678955e-01  -4.2385481e-01  -2.6180064e-01  -2.3355749e-01  -5.9318798e-01  -9.5205311e-01  -2.2962154e-01   3.5555394e-01  -8.3993597e-01  -1.7685064e-01   1.9408586e-02  -7.7372609e-01   5.7957716e-02   3.3360898e-01  -7.0761310e-01   6.5640441e-02  -2.7602448e-01   2.2510548e-02  -7.1063126e-01  -2.1338971e-01  -7.8801286e-01   8.5242623e-01  -7.7913358e-01  -3.7498004e-01  -6.6363087e-01  -2.2862448e-02  -7.5918221e-01  -6.8319195e-01   6.0545203e-01   6.1563092e-02   9.7089712e-01  -8.5997389e-01   5.4244755e-01   7.0122423e-01  -3.2587368e-02   3.2977713e-01  -7.9983230e-01  -8.3058376e-01   9.3155443e-01  -4.3629758e-01   1.9625855e-01   4.8723936e-01  -9.8203861e-01   4.2156457e-01  -9.6289800e-01   2.4045754e-01   1.8811060e-02   4.5441918e-01   2.0253212e-01  -9.9779517e-01   7.2307269e-01   5.7918708e-01   4.4798225e-01  -6.0963305e-01  -3.7625434e-02  -1.4903492e-01  -7.7715325e-01  -3.4654254e-01  -3.3226172e-01   1.9412708e-01  -2.4487667e-02  -7.2211117e-01  -9.9805538e-01   4.1323839e-01  -7.3469549e-01  -9.6315442e-01   8.9799997e-01   1.7490252e-01   1.8877416e-01  -5.5180708e-01  -1.6189726e-01  -5.1518333e-01  -7.9355837e-01   5.2793284e-01  -2.4689028e-01  -4.4889113e-01   9.7555371e-01  -5.7390273e-01   6.4777413e-01  -7.5035662e-01  -7.7800961e-02  -8.8195479e-01   5.6905024e-01  -4.3212433e-01   7.0749740e-01  -7.0445792e-01   8.4384056e-01   5.5916926e-01  -1.2820510e-01  -2.3541881e-01  -6.8820629e-01  -8.0391783e-01  -8.9008463e-01  -9.2651645e-01   5.8412925e-01   6.1186122e-01  -8.6137634e-01   8.2240205e-01  -2.2053689e-01   1.7072698e-01   4.2558104e-01   8.9011353e-01  -8.2873101e-01   3.7894677e-01   1.8252372e-01  -2.3759265e-01   2.2522206e-01  -3.3883699e-01   4.7973917e-01   7.9008095e-02  -6.1823494e-01   4.1355287e-01  -8.0476211e-01   9.2329303e-01  -5.6729971e-01  -9.3653508e-01  -9.8583094e-01   6.7705563e-01   8.0881795e-01  -5.4891029e-01   6.2545556e-01  -9.5962271e-02  -9.6603513e-01   2.8033243e-02   5.4308663e-01   2.8011002e-01  -9.8616908e-02   7.1655997e-01  -6.2739790e-01  -6.7369452e-01  -7.4977870e-01  -1.4946857e-01  -7.7979631e-01  -6.6191567e-01   4.2469139e-01  -2.0074981e-01  -4.5101652e-01  -3.3871029e-01   6.0880012e-01  -3.5891805e-01   3.8052352e-01  -1.8258264e-01  -8.9847345e-01   7.3322409e-01  -2.5874125e-01  -7.3598586e-01  -8.3584869e-01  -7.5017325e-01   9.9507496e-01  -7.8530485e-01   5.4106437e-02  -2.5447144e-01  -3.7189487e-01   7.4302766e-02  -5.6706612e-01   2.3016156e-01  -4.1725648e-01  -8.2794205e-01   2.4013078e-01   9.7870861e-01   7.7030475e-01  -6.8441224e-01  -1.7160293e-03  -4.3446851e-01   2.6514993e-01   6.3235441e-01   7.1470513e-01  -4.3966175e-01   6.7675810e-01  -2.9719849e-01   5.2194757e-01   7.0488448e-01  -9.9319138e-01   2.3504715e-01   7.6406529e-01  -1.6891118e-01   2.0289457e-01  -4.4386452e-01  -6.5499149e-01   3.2201113e-01   9.4336329e-01   8.8488283e-01  -7.9247971e-01  -6.2103079e-01   6.6428185e-01   5.8204570e-01  -6.1790998e-01  -9.3137730e-01  -3.4589620e-01   6.5360713e-01  -7.2421568e-01  -5.8826288e-01   3.6522240e-01   6.7428329e-01  -6.6841360e-01  -2.7100512e-02   7.1494644e-01   6.0202611e-01  -5.7348784e-01  -1.5171413e-01   3.1415340e-01   2.0049220e-01   1.1830141e-01  -5.6697921e-01  -1.6299196e-01   2.5726218e-01  -6.2814907e-01   7.2060664e-01   7.0959019e-01  -8.1210603e-01   2.5664960e-02  -3.7972023e-01   9.9826932e-01  -6.4399138e-01  -2.4825750e-02   6.4438403e-01  -3.8404908e-01   5.1757475e-01  -9.3872171e-01  -6.6398135e-01   6.7444192e-01   2.1682329e-01   4.2682284e-01   7.1044617e-01  -2.6324349e-01  -3.8158404e-01  -8.1844196e-01   3.3822890e-01   2.0114355e-01   8.9074995e-01  -2.6371095e-01  -9.1404406e-02  -9.0543157e-01   7.6674811e-01   1.2661589e-01   1.7536320e-01   5.0163718e-01   4.7638080e-01   7.4955904e-01  -7.4675596e-01  -6.8256536e-01   9.8085222e-01  -2.0264453e-01  -3.1297030e-01   1.0506209e-01  -5.3096394e-01  -6.4074904e-01   9.7454586e-01   4.1652976e-01   1.0055759e-03  -1.9418685e-01  -9.7138261e-02   3.0868126e-01  -2.8783981e-01   1.4944712e-01   6.4029722e-01   6.1505110e-01   9.5685647e-01   5.4889474e-01  -2.3921451e-01  -8.3329160e-01   9.4025141e-01  -1.5320586e-01   2.8178224e-01   6.5570904e-01  -1.4738356e-01  -4.3209181e-01   1.4305959e-02  -1.3930047e-01  -5.3538633e-01   4.6834720e-01   2.6824741e-01  -9.7912828e-01   7.8945064e-01  -2.1932463e-01   8.5188782e-01  -7.1023914e-01  -9.0804665e-01  -2.9506492e-01  -5.9865487e-01   8.6849328e-01  -9.4076580e-01   1.6561484e-01   8.8041686e-01  -1.4381678e-01  -5.1849128e-01  -7.8291514e-01  -4.4426194e-01  -9.8070687e-01   6.6405700e-01  -5.1217929e-01   7.1409945e-01  -9.2053282e-01  -5.7579257e-01  -6.4816002e-01   6.5541856e-01  -5.6217874e-02   7.9191058e-01  -5.0642313e-02  -4.7367134e-01   5.8778660e-01   8.0783544e-01   1.8962408e-01  -3.6572156e-01   3.2358517e-01   5.3188596e-01   1.5205666e-01  -3.0975473e-01   5.8894920e-01   7.7308511e-01   6.3045220e-01  -7.7326510e-03  -3.8683292e-01   6.6968341e-02   8.8913608e-01   1.4792534e-01   9.8005314e-01  -2.1866986e-01   4.3711436e-01   6.6168277e-01  -4.0307651e-01   8.2874187e-01  -4.1354173e-01  -6.2853344e-01  -5.6670481e-01   5.3284011e-01  -4.3339546e-01  -4.4510037e-01   9.5934689e-01   3.9095211e-01   2.7257830e-01  -7.3176317e-01   3.4296930e-01  -7.8648019e-01  -1.9360212e-01  -6.1868731e-01  -4.2163836e-01   5.7783529e-01  -2.4994875e-01   2.9412745e-01  -8.1367074e-01  -1.6029104e-02   6.1808681e-01   2.7437244e-01   6.6500438e-01   7.8585296e-02   8.0952505e-02   6.5330562e-01   2.8107823e-02  -1.1110677e-01   7.9395886e-01  -4.5634446e-01   7.1579430e-01   3.7025139e-01   1.2790608e-01   7.5609640e-01   5.0351095e-01  -3.3709738e-01  -6.2229616e-01   2.9276923e-02  -9.1939483e-01   1.1465104e-01  -1.5386148e-01   4.3570888e-01   7.0146204e-01   2.2123201e-01   4.3336751e-02  -3.0040041e-01   5.9755177e-01   2.6402202e-01   2.8293421e-01  -6.1264935e-01  -6.6231295e-01   5.7296072e-01   7.1140096e-01  -4.3387986e-01  -7.8734147e-01  -1.7982932e-01  -6.4709129e-01  -5.9802512e-01  -7.7466241e-01  -9.0318970e-01   3.6853802e-01  -2.8602494e-01  -4.9000456e-01  -1.1892591e-01   4.9102222e-01   2.9042213e-01   6.1209109e-01   7.4665576e-01  -4.9569925e-01  -4.7671781e-01   9.4900068e-01  -7.1180463e-01   9.2053888e-01   5.9693686e-01   1.6581249e-01  -5.2085855e-01  -1.6479825e-01   8.0055965e-01   7.4204558e-01   1.3885795e-01   3.1518492e-01  -7.8485595e-01  -4.3291838e-02   9.3768538e-01   3.3699552e-01  -5.5949488e-01   9.2495231e-01   4.5337489e-01   4.4871381e-01   3.4171432e-01  -8.9126739e-01   6.0099634e-01   2.2669218e-02   6.9624899e-01   1.9934928e-01  -7.4210625e-02   3.4670327e-01   8.7695979e-01  -9.1808120e-01   3.4510323e-01  -8.6772802e-01  -6.2574598e-02  -3.1539112e-01   1.6512058e-01  -2.8152179e-01   6.4782183e-01   8.1646513e-01  -6.5679800e-01   4.8776404e-01  -5.8805259e-01   2.0188451e-01  -4.0719834e-01   4.1752853e-01  -6.1422837e-01   2.6415389e-02  -5.8646265e-01   5.0758527e-01  -1.5340548e-01   6.7693871e-01   3.3441451e-01   5.4968326e-01  -3.4507949e-01  -6.2861987e-01   7.7502555e-01   7.0723312e-01   1.7589089e-01  -6.3947014e-01  -6.0948986e-01  -9.6664475e-01  -4.9360984e-02   4.4869857e-01  -2.8388488e-01  -2.4963702e-01  -7.6109143e-03  -2.0302797e-01   6.9914771e-01  -3.5686230e-02  -3.2779683e-01  -4.9601634e-01  -4.4778256e-01  -1.5137855e-01  -5.5888979e-01   2.6386282e-01  -6.3634894e-01  -5.1234937e-01   4.0333877e-02  -4.5878369e-01   5.5164253e-01   9.7471414e-01  -1.5445119e-01   6.1174781e-01   1.7891289e-01   8.6450912e-02  -5.9718724e-03   9.5305166e-01  -2.4766372e-01  -3.4045628e-01  -2.8396484e-01  -9.0994877e-01  -5.7856998e-01  -1.5403377e-01   6.4442727e-01   3.8271193e-01  -6.8407626e-01  -4.2617644e-02   6.0661247e-01   8.3730654e-01  -6.1258549e-01   8.9311857e-03  -3.1568199e-01   5.1704187e-01   6.8016928e-01  -8.6762467e-01   3.3007559e-01  -5.1553687e-01   8.9044154e-01   5.6727066e-01  -8.7681228e-01   5.4868833e-01   3.4807110e-01   4.5640682e-01  -8.6970027e-01   4.1954337e-01  -4.8166082e-01   3.8210340e-01   5.8294727e-01  -9.8056918e-01  -7.1846111e-01   3.0707061e-01   9.1137185e-01   1.1465410e-01   7.6650988e-01  -9.1634137e-01  -7.0376250e-01   8.7152419e-02  -8.1997281e-01   6.9067176e-01  -7.9854558e-01  -2.8703246e-01  -1.3015458e-01   7.6022206e-01   1.5991534e-01   3.8819747e-01  -7.3548958e-01  -2.0680827e-01  -8.9604009e-01   2.0317115e-01  -2.6073013e-01  -8.9323439e-02   5.7842273e-02  -3.8135281e-01   5.1745454e-01   7.6482749e-01  -2.0080353e-01   7.5276968e-01   6.4230788e-01   5.3479430e-01   4.7598140e-01  -9.1284248e-01  -6.4299840e-01   7.6946261e-01  -4.9289621e-02   4.0858541e-01  -6.7557775e-01  -5.8144885e-01   3.2482167e-01   8.8458715e-01   9.3850749e-01  -4.1207344e-01   7.7424492e-01  -5.4060352e-02  -1.1481631e-01  -5.2369789e-01   7.7650675e-01  -2.1816223e-01   2.3296404e-01   1.6155474e-02  -7.9255124e-01   2.6921514e-01   1.2840231e-01   8.0248578e-01  -4.3738289e-01  -6.0069836e-01   8.4732098e-01   6.9175026e-01   2.1182522e-01  -3.2680822e-01  -9.0899296e-01  -8.7927706e-01   1.3923141e-01   1.1186787e-01   2.9133266e-01   1.1770137e-01  -9.7912594e-01   1.8202358e-01  -5.3999999e-01  -2.9220534e-01   1.4497636e-01  -3.8210121e-01  -2.5261246e-01   3.2577241e-01  -6.0786014e-01  -3.6168479e-02   9.0334055e-01  -6.9971136e-02  -3.7887261e-01  -7.2288805e-01   9.8368206e-02   8.5522118e-01  -8.3931252e-01   5.5605482e-02   2.2560913e-01  -2.6839823e-01   3.6660428e-01   3.3250083e-01  -7.6227836e-01  -6.2726435e-04   7.6996733e-01   4.1293420e-01  -3.7940635e-02   7.6402237e-01   3.2486577e-02   2.5123378e-01   1.1386319e-01   4.3081594e-02  -4.6973005e-01  -5.4509035e-01  -2.8671668e-01  -9.3164322e-01   8.5118182e-01   3.2371812e-01  -5.7859409e-02   2.3902506e-01  -6.4780854e-01  -7.4411456e-01  -4.6145604e-01   3.9130075e-01  -4.3943198e-01   1.0210756e-01   1.4318724e-01  -2.4868585e-01  -5.0257055e-01  -4.7667927e-01   3.9242237e-01  -7.9176792e-01   3.6205990e-01   7.0020920e-01  -8.5446351e-01  -9.9482612e-01  -5.2860513e-01   9.1286473e-02  -2.9872997e-01  -7.1730109e-01  -4.1123395e-02  -6.6537086e-01  -8.1734355e-01   3.5900807e-02  -6.2098950e-01  -5.5533098e-01   9.4800846e-01  -6.4430078e-01   3.3902874e-01   3.6868127e-01   9.4629841e-01  -4.5979710e-01   7.5103878e-01   4.4150145e-01  -9.0576778e-01  -7.2287489e-01   5.3582545e-01   9.6734152e-01  -4.6153395e-01   7.7523172e-01  -6.5464993e-01  -1.5015904e-01  -3.8156298e-01   5.0082760e-01  -4.9460211e-01  -7.3943309e-01  -8.0086970e-01   9.2032120e-01   6.0373597e-01  -8.5404874e-01   2.8617040e-02  -9.9361576e-01  -6.1258978e-01   1.3656790e-01  -7.8952134e-01  -4.7865051e-01  -2.6781198e-01  -1.2205845e-01  -8.4449822e-01   7.2237397e-01  -9.1694564e-01   6.2855725e-01   5.8616104e-01  -7.6828190e-01  -3.0239300e-01  -8.4230175e-01  -5.7380556e-01   2.5891802e-01  -9.3496463e-01  -4.0316352e-01  -2.8717374e-01   1.8751061e-02  -3.3536548e-01   8.7479446e-01  -5.7170743e-01   4.8756368e-01   2.2047537e-01   6.6523283e-01  -9.2260303e-01   6.9184976e-01   7.8081671e-01   5.7536665e-01  -1.6987602e-01   9.2752833e-01   3.7984601e-01   7.7210409e-01  -3.7655780e-02   4.8096967e-02   1.0027199e-01   7.4132929e-01  -6.2533344e-01   7.3809300e-01   5.1748923e-01   7.6966608e-01  -1.7102738e-03   6.9108470e-01  -5.7367348e-01   7.9654029e-01  -1.3175839e-01  -1.8143352e-02   4.2106575e-01   7.4241099e-02  -4.0631106e-01  -4.2969307e-01  -2.5090389e-02   8.3825357e-01  -3.2493183e-01  -9.8889035e-01   4.0462112e-01   1.1595963e-01  -4.7699975e-02   7.2741619e-01   3.2720871e-01  -5.0085151e-01  -8.6338136e-01  -4.8175087e-01  -9.1821781e-02  -6.4413733e-01  -5.6949267e-01  -1.2608683e-01  -7.2910415e-01  -4.5253632e-01   5.9685637e-01   8.9498402e-01   9.6040065e-01  -6.2426010e-01   6.3247775e-01   9.2803695e-01   5.9448857e-01  -6.6388379e-01   5.0561540e-01  -6.8965626e-01  -3.2651609e-01   1.5728171e-01   9.8016509e-01   4.9382271e-01  -8.8224754e-01  -8.0782164e-01   4.4942301e-01   3.1608826e-01  -4.8330043e-03   3.0074702e-01   7.1060774e-01  -3.9356628e-01   2.6266846e-01  -2.2580542e-01  -1.1282918e-01   9.9721170e-01   1.5480212e-01   2.7591664e-01  -4.2929107e-01  -4.7050062e-01   8.8828395e-01  -3.9889916e-01  -3.8019307e-01   6.8739881e-01  -4.0111212e-01   8.1722159e-01  -7.8376832e-01   1.1894005e-01   4.8692855e-01  -2.7287684e-01  -3.1241618e-01  -2.9805945e-01  -6.3879983e-02   4.6527323e-01  -3.1188342e-01   3.1437485e-01  -8.6762044e-01   2.1460489e-01  -6.5825115e-01   8.9234340e-01   6.4111734e-01   9.2582020e-01   5.8862981e-01   6.2631580e-01   6.7561292e-01  -9.7772467e-01   8.9876606e-01   7.2578470e-01   7.0418449e-01   1.1594912e-01  -7.2761111e-01   6.5092676e-01   1.6129019e-01  -8.9217409e-01  -8.1439397e-01  -5.1282066e-01  -7.8713428e-02   1.9968189e-01   4.3567578e-01  -3.2214483e-01   2.0842310e-01   8.4698609e-01  -1.8863725e-01  -7.9681025e-01   8.0856263e-01   7.6819273e-01   1.8244412e-01  -4.8718173e-01  -7.3820144e-01  -4.9461031e-01   7.5318602e-01   7.0946152e-01  -1.5849998e-01  -6.5412272e-03  -2.0986694e-01  -1.7335664e-01  -7.0050931e-01  -3.4449018e-02  -9.3823114e-01  -5.9333834e-01  -1.8185512e-02   2.4211907e-02  -6.8914081e-01   8.0800986e-01   5.5203740e-01   9.0734588e-01  -8.5959847e-01   1.9106541e-01   9.1869584e-01   2.2729362e-01   1.2444483e-01  -5.3899908e-01  -7.9427120e-01   2.7482208e-01   5.6910969e-01  -6.1410014e-01
  -9.3308121e-01   1.9588380e-01  -2.8995589e-01  -5.8817773e-02   2.8612078e-01   3.3196346e-01  -8.5784286e-01  -8.7336787e-01   7.1445962e-02  -4.3251902e-02  -8.4727023e-01  -5.6901137e-02  -8.0100786e-01  -3.1406659e-02   2.9803951e-01   3.9915766e-01   9.7420625e-01   1.7072204e-01  -6.8470979e-01   3.9268089e-02   6.7646131e-01  -5.3365407e-01  -4.1112230e-01  -2.9951660e-01  -7.1644954e-01   9.1278016e-01  -4.1391418e-01   2.0647752e-01   2.5432305e-01   3.3416824e-01  -3.4545376e-01  -4.1926918e-01   4.1613095e-02   9.7280835e-01  -3.6406076e-01   4.2041720e-01  -7.2498929e-02   9.9957429e-01  -8.6405718e-02   5.2122359e-01   1.9989696e-01  -8.1792659e-01   2.2929560e-01  -2.8285852e-01   8.7390247e-01   2.8312071e-01  -2.5692136e-01  -9.4369076e-01  -4.9614584e-01   5.2829212e-01  -5.6499966e-02   7.5500768e-01   4.5859116e-01  -3.5080462e-01   7.2250302e-01   8.1125751e-01   9.8120361e-01  -2.4069226e-02   5.8292058e-01   8.9525933e-01  -5.0638632e-01   7.8151913e-01   4.4573791e-01   4.5765351e-01   8.1969742e-01  -1.7500190e-02  -1.3180613e-01  -6.7464971e-01   5.1458789e-01   2.6045999e-01  -9.4234785e-01   1.3288483e-02   4.5780257e-02  -9.9450981e-01   2.0197366e-01  -8.8955651e-01   2.2826703e-01   8.2540492e-01  -1.6472288e-01  -8.0541667e-01  -2.2891292e-01  -6.6474504e-02   9.4155283e-01   4.3989114e-01   6.2500518e-01   9.3298851e-01  -2.2713904e-01   7.6099375e-01  -8.8991926e-01  -7.6433516e-01   2.7822868e-01   4.2349430e-01  -1.0485020e-01  -5.6518934e-01  -5.8463167e-01  -9.9005078e-01   7.1580068e-01  -2.6223061e-01   4.0329475e-01  -1.1405710e-01  -9.6153128e-01   3.4432909e-02  -3.0912266e-01  -1.8196378e-01  -6.8536661e-01   6.4811519e-02  -2.4544699e-01   5.6387694e-01  -4.6261563e-01  -6.3982663e-01  -7.7401888e-01  -3.3099707e-01   4.3243282e-01   7.3343143e-02  -5.9556840e-01   3.3815925e-01   1.5308670e-01  -5.8037586e-01   3.4137811e-01   6.0621163e-01   5.6822944e-01  -5.3067486e-01   1.1575565e-01  -9.6471298e-01  -8.4324199e-02   9.3769926e-01   3.3204284e-01   1.4679361e-02  -5.1078707e-01  -6.4915595e-01  -6.1786822e-01  -7.8981495e-01   8.0907807e-01   9.8797125e-01   5.0148870e-01   4.3340895e-01  -7.0286994e-03   2.1788943e-01   7.8966464e-01  -6.4560079e-01  -3.9862187e-01  -1.6539202e-01  -7.4327876e-02  -1.2993315e-01  -3.6069503e-01  -3.4516557e-01  -4.7260149e-01   1.1968537e-02   6.5942873e-01  -4.3442010e-01   7.4188707e-02  -5.4990246e-01   5.8671708e-01   7.8007766e-02   5.2332761e-01  -9.0644445e-01   2.1517399e-01  -7.0508179e-01   1.9067827e-01  -9.6665991e-01   6.6972092e-01   4.6856738e-01   4.8065808e-01  -6.8632492e-01  -4.5151872e-01  -8.3373280e-01  -3.0776949e-01  -3.3883029e-02  -2.8444735e-01  -7.8393001e-01  -4.2413861e-01   7.6644644e-01   4.3762119e-01   1.2578893e-01  -4.5506832e-01  -9.0293376e-01   5.9835036e-01  -6.1490814e-02   8.6257840e-01   4.6118821e-01   1.4123500e-01  -9.0221291e-01   2.9164235e-01   9.7573261e-01   8.9944155e-01   3.7596180e-01   6.9451352e-01  -9.0442815e-01   1.8409476e-01   9.6234886e-01   5.3249017e-01  -3.1920940e-01  -2.2129028e-01  -3.7919338e-01  -5.6163709e-01  -5.2583440e-01   2.1899097e-01  -7.4814257e-02   4.4084587e-01  -6.6526940e-01   8.8453583e-01  -7.6486063e-01   8.8307792e-01  -6.4263912e-01  -6.7601740e-01  -8.7207175e-01   1.4977470e-01  -3.0543945e-01  -5.1218861e-01  -9.0876533e-01  -5.3810131e-01  -1.3217351e-01  -5.9286726e-01  -1.8472799e-02  -3.2863089e-02   4.9576461e-01  -5.6731245e-01   7.0868326e-01   3.1843273e-02   9.8159427e-01   9.8650517e-01   3.8828264e-01  -4.7174044e-01   9.7173070e-01   1.4700057e-01  -3.4182810e-01  -7.8960169e-01   8.7184524e-01  -8.7393858e-01  -2.6681075e-01   5.0252327e-01  -4.1909216e-01  -3.9357709e-02   8.3779206e-01  -7.4312055e-02  -8.2475077e-01  -7.8021518e-01  -9.8281394e-01  -8.5683979e-01   4.3700662e-01   4.2388677e-01   3.9214204e-01  -5.0825145e-01   7.1259969e-01  -6.2346242e-01   7.6821525e-01   3.3996302e-03   9.4891773e-01  -8.4313304e-01   2.9157615e-01  -1.9234270e-01  -6.9543645e-02   7.9014521e-01  -5.5651384e-01   3.1722709e-01   5.4342555e-02   1.7467748e-01  -7.1066553e-01  -1.6178605e-01  -7.7762182e-01  -8.8652406e-01  -3.4576303e-01   1.2774203e-01  -3.7889705e-01   4.2863100e-01  -2.1636365e-01  -1.6117401e-01   5.3557047e-01  -3.0037196e-01   8.1534796e-01   3.3657695e-01  -3.5296209e-01  -5.7020086e-01   2.1006165e-01  -7.3610042e-01  -5.5292066e-01  -5.9453933e-02  -7.1349933e-01  -7.3114771e-01  -5.1775818e-01  -4.8622109e-01   6.1130322e-01   6.4882225e-01  -2.5765358e-01   3.8323361e-01   2.5360342e-01  -8.3323792e-01   3.0091134e-01  -9.5809760e-02   7.8926681e-01   2.5124998e-01  -7.6343972e-01  -8.8404457e-01  -6.0520597e-01   2.7279622e-01   3.4376418e-01  -3.0147436e-01   6.3771002e-01   9.0739966e-01   1.1717359e-01   8.6397000e-02  -1.6978160e-01   4.8045312e-01  -5.5804832e-01  -6.2170829e-01   2.4428625e-01  -4.8863049e-01  -4.0389225e-01   1.5164400e-01   6.1435673e-01  -3.5303140e-01  -8.5158845e-01  -8.0501015e-01  -4.1769673e-01   2.1418801e-01   6.1185044e-01  -8.0090530e-01   3.1959946e-02   2.2732398e-01  -8.8535600e-02   6.6562134e-01   9.7673430e-02   3.1929179e-01  -2.3288592e-01  -1.6951086e-01   3.2449292e-02  -5.3577973e-01   2.5955869e-01   8.5362863e-01   1.0342036e-01  -7.1448010e-01   3.5260725e-01   2.7963289e-01   5.7021681e-01   7.3586814e-01  -6.4267956e-01  -2.2900697e-01   6.8847446e-01   8.2859711e-01   9.8647912e-01  -2.5714898e-02   5.2412391e-01  -2.6294864e-01   6.9572511e-02  -6.4273013e-01  -1.9117330e-01   9.9477240e-01   6.7818417e-01  -5.0305211e-01   3.4541972e-01   2.8498930e-01   2.8401493e-01  -4.1215806e-01   9.1241822e-01  -7.3156406e-01  -2.7073166e-01  -3.0484522e-01   1.3258956e-01   7.4456478e-01  -9.8002465e-01  -5.2675380e-03   3.3284449e-01  -1.9003286e-01  -3.3509910e-01   2.6400632e-01  -7.7920477e-01   4.7619680e-01   9.5167695e-01   7.0052559e-01   1.0254513e-02  -4.0570545e-01   8.8126028e-03   6.0404303e-01   4.8793376e-01  -1.5684976e-01  -2.9654293e-01   8.5651684e-01  -8.1901358e-01   3.1312012e-01   4.9625119e-01  -4.4388272e-01   8.1533250e-01  -5.0530511e-01   5.3284311e-01  -4.3685568e-01  -1.5814069e-01  -4.1220849e-02   8.7308652e-01  -8.4176997e-01   5.3047813e-01   9.9967712e-01  -8.5879252e-01  -5.3149975e-01  -2.5600990e-02   7.6539429e-01  -3.7203300e-02  -6.8600898e-01   7.0622923e-01  -9.3170482e-01   2.0357525e-01   6.9634103e-01   6.3662193e-01  -6.6274503e-01  -6.5747704e-01   2.7900881e-01  -4.3854868e-01   7.6146251e-02  -2.3495184e-01   6.5379076e-01   4.7894274e-01  -5.3053569e-01   2.4675432e-01   9.8446434e-01  -1.5748052e-01  -1.2778290e-01   9.3355912e-01  -8.4117538e-01   8.2699989e-01  -9.0952635e-01   9.3138236e-01   7.9905158e-01  -9.3562104e-01  -2.4031615e-01  -9.9458841e-01  -8.3044479e-01  -5.6354503e-01   5.7132651e-01  -6.2876735e-01  -8.1167336e-01  -4.4481226e-02  -7.4670028e-01  -8.1907626e-01  -9.9540528e-01   8.6730271e-01  -3.9449905e-01  -8.7313328e-01  -5.2831088e-01   6.0784707e-01  -4.1261917e-01  -9.5944592e-01  -7.7404369e-01  -5.3477613e-01   2.1548173e-02  -3.5413266e-01   6.8852056e-01   9.6190248e-01  -9.7379266e-01  -5.3236178e-01   6.5421711e-01   3.7427718e-01   3.4098748e-01   5.1582165e-01  -6.2498005e-01  -7.9340552e-01   4.9982334e-01   3.1978668e-01   7.2697923e-02   2.7938333e-01   2.4274785e-01   2.4752870e-01  -2.9456505e-01  -5.5605236e-01  -7.8396005e-01   9.2444760e-01  -7.7551105e-01  -2.1304643e-01  -4.3534917e-01  -7.7680798e-01   8.5012402e-01  -3.4847250e-01   8.4931171e-01  -2.1499554e-01  -2.7987228e-01   5.8869889e-02   2.2115026e-01  -7.5116400e-01  -3.9125375e-01   4.4078865e-01  -9.4874722e-01   3.5502076e-01   7.5932500e-01  -4.6019439e-01   9.2557134e-01  -7.9359612e-01   5.2561430e-02   2.4799867e-01  -7.7335413e-01   5.1862605e-01  -6.9207327e-01   5.7218431e-01  -9.2526859e-01   8.2974034e-01   4.1549987e-01   1.3644528e-01   3.2384812e-01   5.5552186e-01   9.9866650e-01   4.5783271e-02   2.6342609e-01   2.6037274e-02   5.7909980e-01   6.7786018e-01   1.4449209e-01   5.1243348e-01   2.5935832e-01  -6.3419816e-01   5.3937755e-01   1.0108151e-01   9.4064808e-01  -6.7317074e-01   6.2678442e-01  -7.0642538e-01   1.8628533e-02   7.8107918e-01   3.7929897e-01  -9.2158390e-01   3.8826486e-01   6.2117406e-01  -1.5636033e-01   8.4882322e-01  -3.6734894e-01   1.4090966e-01  -3.4138333e-01  -2.7198774e-01   1.3353764e-01  -7.4403251e-01   6.8679475e-01   8.1893865e-01   3.2439563e-01   3.2379340e-01  -7.2066566e-01   1.3218563e-01   1.3164837e-01  -8.7751339e-01  -3.2189533e-01   4.9198735e-01   7.9656343e-02   3.1710711e-01   9.5838603e-01  -7.8793514e-01  -8.3094582e-02   5.8157156e-01  -7.5488949e-02  -7.4979188e-01   5.6210824e-01   9.0062226e-01  -5.2931142e-01   2.6928311e-01  -7.6485293e-01   6.8829182e-01   2.4358252e-01  -9.0051979e-01  -1.6186292e-01  -1.2816178e-01  -7.9155077e-01  -8.3169591e-01  -1.2703624e-01  -4.4068865e-01  -2.5417128e-03   4.1797121e-02   1.2679066e-01  -1.5143738e-02  -7.6046972e-01  -7.4181627e-01  -3.7019070e-01   6.9073590e-02   9.6612429e-01   6.8366003e-01   8.4168953e-01   7.9022109e-01   1.7069545e-02   6.2960849e-02  -3.3068724e-02   7.6406703e-01   5.1259288e-01  -8.7126354e-01  -4.7149483e-01   9.6851358e-01   8.7245175e-01  -7.3884200e-01   4.8985508e-01   6.7147954e-01  -6.8018012e-01   4.2704924e-01  -2.3221519e-01  -9.3758013e-01  -2.8991835e-01  -6.0039400e-01  -3.9637305e-01  -5.1028455e-01   1.8441319e-02   2.5801315e-01  -6.1842082e-01  -8.1734504e-02  -9.4134164e-02  -8.0926414e-01   8.5509961e-01  -2.0679096e-01   4.7644880e-01  -1.0934594e-01   4.2333442e-01  -5.1462914e-01  -9.9401266e-02  -7.0238998e-01  -7.6127005e-02   6.6987326e-01  -7.2979543e-01  -7.2604801e-01  -7.8379850e-01   1.1186004e-01  -1.5484571e-01  -6.9565449e-01   5.7062417e-01   7.9132630e-01  -2.0379962e-01   9.9561700e-01   3.9078212e-01  -5.8580462e-01  -4.4138390e-01   1.0791411e-01  -3.6754677e-01   5.6504510e-01  -6.9784758e-01   2.6099310e-01   1.2740390e-01  -3.1753773e-01   6.5218240e-01   3.4942434e-01   6.9602984e-02  -1.0601940e-01  -4.6044503e-01   2.5069713e-01   5.3301728e-01  -3.8260030e-01  -4.7499420e-01   5.2523511e-01   9.9357554e-01  -6.9059271e-01  -8.1308849e-01   8.3370958e-01   6.8161343e-01  -1.5296822e-01  -4.1374600e-01   1.9189627e-02  -7.7297005e-01  -1.3610595e-01   7.0866360e-01   3.6505505e-01  -8.6458342e-01  -9.7267474e-01   6.8330495e-01   7.4903150e-01   9.8980085e-01  -1.3528798e-01  -2.5501559e-01   2.6925032e-01  -1.8523286e-01  -4.5541110e-01   8.8107753e-01  -3.9599618e-02  -7.2788372e-01  -7.9820862e-01   6.6477756e-01   1.7894619e-01   7.8055642e-01   2.6810778e-01   2.3572940e-01   4.8796851e-01   1.0542142e-01  -2.9757723e-01   6.4355990e-01  -4.2791967e-01   8.9375162e-01  -7.4232639e-01  -8.8736901e-01  -5.8805792e-01   3.6260509e-01  -3.7766658e-01   5.5730373e-01  -4.7018423e-01  -1.8533003e-01   4.6805039e-01   9.6102792e-02   9.8388809e-01  -7.3446345e-01  -7.4488918e-01  -8.7546095e-01  -8.7086131e-01  -8.2664632e-01   9.0711816e-01   3.7839008e-01   6.9564414e-02   2.0184263e-01   8.6920209e-01   3.7501805e-01   4.9428723e-01   9.2813813e-01  -4.9219624e-01   5.7553369e-01   2.6011812e-01   9.2211622e-01   2.1306636e-01   4.2146952e-02  -5.9501994e-01   5.0764904e-01  -5.3093972e-01  -9.5011040e-01  -3.6276380e-02  -5.6001500e-01   8.4247118e-01  -1.9774043e-01  -5.7221402e-01   2.8777386e-01   3.6478180e-01  -1.6526487e-02   3.5579848e-01  -5.4735804e-01  -3.3270373e-01   5.2025949e-01  -8.9275627e-01   9.5821596e-01   2.3177187e-01   4.2904619e-01   6.7548524e-01  -1.6389683e-01   5.3061426e-01  -4.4104418e-01  -7.9673344e-01  -5.6147988e-01   8.6487540e-01  -4.8564057e-01   3.7173518e-01  -3.8882742e-01  -2.1387348e-01  -9.0339869e-01   6.0366886e-01  -7.6906604e-01   5.9400124e-01  -7.9914263e-01   8.9619000e-01   3.7085276e-01  -7.2087822e-01   7.5788007e-01   3.2346150e-01   6.9075476e-01  -1.4246633e-01   3.6346566e-01  -5.7813371e-01   6.4109608e-02   2.2954209e-01   5.2175739e-01   1.1634767e-01  -6.9914345e-01   4.5009661e-01   3.6892676e-02   5.6801358e-01  -8.4930738e-01   8.9696145e-01   6.2012057e-01  -6.5257709e-01  -9.1245374e-02  -3.0460506e-01   8.1915543e-01  -9.1749106e-01   7.0792899e-01   6.1132741e-01  -5.1758801e-01   8.4476732e-01  -7.6839824e-01   8.5243650e-02   5.0044209e-01  -6.1892074e-01   3.8353159e-01   4.9616205e-01  -6.8285465e-01   2.1337319e-01   7.5585885e-01   8.7020803e-01   2.7966834e-01  -9.7012305e-01   9.6922940e-01  -5.2159382e-01  -8.7396425e-01  -3.8944269e-01  -2.8866691e-01  -7.8997333e-01   5.7307584e-01   8.7398455e-01   4.0276340e-01  -8.0738947e-01   5.1899682e-04   2.5398089e-01  -7.3886327e-01   6.6514036e-01   8.6907045e-01  -4.1400103e-01  -7.8395058e-01  -2.7722491e-01   5.6000007e-01  -2.4786905e-01  -1.4303323e-01   5.8609457e-01   1.1562437e-02  -8.8128023e-01  -6.4224283e-01  -5.4896370e-01   9.7572349e-01   9.4198034e-01  -1.4956057e-02  -5.2987884e-01  -1.3068204e-01  -4.9003825e-01  -9.8787122e-01   1.0769025e-01   3.9793227e-01   6.2030448e-01   2.4094992e-01   4.0425725e-01   1.9750134e-01   1.4811926e-02   5.6084769e-01  -4.4996850e-01  -6.6057220e-01  -1.3315264e-01  -9.2730627e-01  -6.4967642e-01  -7.1856560e-01  -2.5115172e-01  -6.5411649e-01   8.5504752e-01   4.9491150e-02  -6.2976009e-02  -5.0839276e-01  -1.9740272e-01  -5.6643561e-01  -6.6345586e-01  -6.2239242e-01  -7.8262497e-02  -9.2561321e-01   2.3961038e-01   8.3232008e-01  -9.8810701e-01   3.8649330e-02  -7.0589759e-01   5.9642834e-02   5.2059488e-01   2.8915200e-01   4.4736043e-01   9.1856000e-01   6.7807083e-01   9.5916299e-01   2.0463705e-01  -5.7536704e-02  -2.4634688e-01   3.7409313e-01   1.8173121e-02  -5.1667307e-01   7.8779330e-01  -6.7161774e-01  -5.0836983e-01  -8.7136499e-01  -4.2913826e-01   8.7629409e-01  -7.1173256e-01  -1.6104309e-01  -8.5109714e-01  -2.7252424e-01   6.2053840e-02  -2.9850061e-03   8.5624083e-01  -2.2839112e-01   7.2959445e-02  -8.5926850e-01   6.9307033e-01  -2.3467335e-01   3.4767729e-01   5.7788212e-01   1.6026311e-01   1.0038004e-01   5.2242875e-01   2.1059032e-01   4.5349204e-01   7.3502709e-01  -5.6475625e-01  -2.4997431e-01  -8.3880516e-01   9.9401727e-01   9.0244155e-01   2.3730530e-02  -4.1222311e-01  -8.0502321e-01   5.6154104e-01   5.6518009e-01   7.5347683e-01  -8.4368428e-01  -6.6959577e-01  -9.1319619e-01  -9.9022720e-01   4.8360485e-01  -3.0646650e-01  -4.3641307e-01  -2.7119327e-01  -5.3852812e-01  -4.2961256e-01   7.0361049e-01  -8.4755072e-01  -4.5539965e-01  -7.3821060e-01  -9.4258826e-01  -2.4875778e-01  -6.4424298e-01  -6.7742608e-01  -4.1669974e-01  -9.6489077e-01   3.7416871e-01   3.3263477e-01   3.3996004e-01  -6.3175086e-01   7.7358828e-02  -3.6202539e-01   4.9441375e-01  -6.0631296e-01  -2.4499428e-01   9.2039775e-01   4.4325788e-01   9.2673582e-01   9.0124314e-01   1.7827889e-02  -5.4440303e-01   6.5535866e-02   8.1620167e-01  -7.0565923e-01  -7.1536155e-01   6.2837921e-03   2.4444243e-01   5.8252481e-01   9.8109543e-01   2.4467776e-01  -9.8040683e-01   2.4283109e-01  -1.1657358e-01   4.7144504e-01  -7.2276675e-02  -4.9123411e-01  -6.4267209e-01   5.5334828e-01  -9.0004264e-02  -6.3340857e-01  -1.6642116e-01  -1.8880436e-01  -4.0002509e-01   9.1050306e-03  -7.1831634e-01  -8.2578782e-01   3.7404032e-01   6.6141913e-01  -9.2395711e-01  -9.0671741e-01   9.8440615e-01   2.1379489e-01  -9.8866534e-01   2.3029433e-01  -1.6086858e-01  -2.5300674e-01  -7.9768308e-01   7.0910104e-02   6.9747533e-01   8.0324163e-02  -6.1042841e-01  -2.9444453e-01   3.6099984e-01  -5.4591184e-01  -6.2392189e-02  -3.5374093e-01   2.5265179e-01  -7.8679771e-01   4.3490699e-01  -4.2534902e-01  -8.8924037e-01  -1.4026289e-01  -1.3863023e-01  -9.7322732e-01  -6.0223688e-01   2.8320146e-01  -4.6217783e-01  -9.6696563e-01  -6.7450065e-01   6.2782202e-01  -9.7777645e-01   1.8224656e-02   9.5131225e-01   3.4211980e-01  -6.2390778e-01  -2.0014348e-01  -2.6715985e-01   4.8129785e-01  -3.1978340e-02   8.1982257e-01   5.5030742e-01   3.1958022e-01
  -8.8621784e-01   7.0235412e-01   8.2748571e-01  -9.2275959e-01   4.4771823e-01  -9.1513035e-01  -1.7050093e-01  -1.4346138e-01   4.7880592e-01  -7.6435799e-01   5.5278076e-01  -5.7375732e-01  -1.4355096e-01  -3.3452834e-01   5.1652779e-01   2.7371429e-01  -9.1567469e-01   9.9261746e-01   9.3999243e-01  -2.3128369e-01  -1.1424023e-01  -7.3626836e-01  -9.9336424e-02   1.4998405e-01   8.1999655e-01  -2.7958357e-01   6.6922107e-01   5.0025470e-01  -4.1688321e-01   6.4171917e-01  -2.7369638e-02  -2.2456723e-02   4.1777310e-01  -2.0137190e-01  -4.1294805e-01  -4.9921087e-01   7.1447377e-01   8.7293459e-01  -9.3137720e-02  -5.7478789e-01  -7.2711896e-01   1.6842015e-01   2.0520005e-01   4.9129490e-01   7.3155786e-01   9.9586835e-01   8.1665781e-01  -1.2155936e-01  -5.4181484e-01   8.3355681e-01   6.3743638e-01  -9.2297919e-01  -5.7934156e-01  -7.9592761e-02   2.0606688e-01   4.9466259e-01  -1.7285118e-01   1.4784101e-01   2.5527944e-01   8.3318266e-01  -3.3831593e-01  -5.7773757e-02  -3.8895796e-01  -3.5654494e-01  -8.8468883e-01  -5.7623424e-01  -3.8867702e-01   8.9694305e-01   3.0920227e-02   1.1101220e-01   4.1030123e-01  -8.0802372e-01  -2.2882450e-01   9.8328555e-01   9.1698760e-01  -9.5797148e-01   6.4672776e-01  -6.8969093e-02   2.7285707e-01  -6.3981831e-01  -9.8671495e-01   4.7949120e-01  -8.5093532e-01   2.1603720e-01   1.0058845e-01   7.3762933e-01   9.3433775e-01   1.8320175e-01   2.9434614e-01   4.3915234e-01  -3.4097706e-01   6.0848232e-01  -5.2516687e-01  -6.9498731e-01  -4.7625461e-03   3.3805922e-01  -4.8501635e-02   7.0990249e-01  -5.8072453e-01   5.8405814e-01   8.4209675e-01   7.6663145e-01  -8.7721799e-01  -2.8513972e-01   8.4440806e-01   5.1629900e-02   2.8542213e-01  -4.2909075e-01   3.0438383e-01  -6.6942599e-01   6.8377696e-01  -4.7189800e-01  -3.8374539e-01  -2.2821372e-01  -2.5595629e-01  -1.0248007e-01  -7.4949166e-01   4.7551756e-02   1.8723422e-01  -7.1328780e-01  -5.6602869e-01   4.3593590e-01   8.3229161e-01  -8.7006547e-01  -7.1638846e-02   4.9281856e-01  -6.2764426e-01   3.2122363e-01  -5.2374956e-01   8.8603499e-01  -1.3495334e-02  -5.0748207e-01   8.2929120e-01  -7.5645589e-01  -2.1983984e-01  -1.2224132e-02  -2.1855369e-01  -6.6482087e-01   7.4409098e-01   9.3770258e-01   9.2322602e-01   5.4853084e-01  -7.4323124e-01  -6.4277107e-01  -3.9073260e-01   5.5864976e-01   4.0315061e-01   7.7829578e-01   1.9515389e-01   2.5862406e-01   1.6694976e-01   8.8151538e-01  -6.4471865e-01   1.1314240e-02   5.0422487e-01  -1.8179975e-02  -3.6212879e-01   9.0464671e-01  -6.6176243e-01   1.8363803e-01  -5.2362612e-01  -2.6547845e-01  -7.4543894e-01   5.9770780e-01  -4.1677196e-01  -5.2697803e-01   4.3398415e-01   9.0690263e-01  -2.7226056e-02   5.6514538e-01  -7.8500456e-01  -5.5307096e-02   7.8645580e-01   1.8725506e-01   6.8452486e-01  -6.5005240e-01  -7.9131087e-01   9.1478172e-01   8.5107917e-01  -8.5578769e-01   8.1864371e-01   6.3663206e-01  -5.9985804e-01  -2.0231127e-01  -8.6079890e-01   4.1712969e-01   3.0379317e-01  -2.8899684e-01  -3.4598243e-01   9.2513049e-01  -5.7972496e-01  -6.5987149e-01   4.9471798e-01  -5.0117176e-01  -9.6924372e-01   2.7619509e-01  -2.4417282e-01   6.7023271e-02  -1.6691364e-01  -1.4592905e-01   3.6894718e-01  -4.0957674e-01   1.7448275e-01  -7.4691640e-02   4.1544956e-01   4.2958886e-02  -2.5620839e-01  -5.4579577e-01   4.9513239e-01   4.8168421e-01  -8.8826740e-02  -5.4365091e-02  -3.9791315e-01  -9.0186741e-01   6.3972240e-01   2.0529486e-01   1.4364788e-01  -1.6822739e-02  -7.9736525e-01  -9.7532694e-02   4.1618950e-01   2.1351091e-01  -5.6927582e-01   7.7785421e-01   4.6195249e-01  -4.1429260e-01   4.9120758e-01  -7.2018747e-01  -8.0707862e-01   5.1965802e-01  -7.4446216e-03   4.1698536e-01   4.1054272e-01  -4.7525829e-01   6.0212705e-01  -3.2749425e-01  -1.0689368e-01   4.4654185e-01   9.0397188e-01   9.2061442e-01   2.7875958e-01   2.3229510e-01  -9.8190870e-02  -7.3136068e-01  -7.6861336e-01   5.9355140e-01  -3.3166815e-01  -3.6778617e-01   6.2532165e-02   5.6694883e-01   8.0240295e-01   6.0962165e-02   9.8648482e-01   3.9340495e-01   7.7846452e-01  -3.6901666e-01   6.0394772e-01  -8.1431647e-01   8.1253279e-01   9.3439241e-01  -9.1493867e-01   3.0709725e-01   5.8470244e-01   9.7088900e-01  -5.3891245e-01   7.7200962e-01  -1.5391564e-03  -5.5458855e-01  -5.3818603e-01  -6.9854628e-01   4.7603805e-01   5.2180332e-01  -6.0445950e-01  -5.1176855e-02  -7.5430370e-01   7.2060111e-01   3.3981972e-01  -8.1172469e-01  -3.1865460e-01  -6.5815347e-02  -1.0413233e-01  -8.0742366e-01   9.5821935e-01   5.3523388e-01   4.0582187e-02   6.7043595e-01  -9.9581766e-02   3.5983721e-01  -7.9216108e-01   1.6113678e-01   8.8947461e-01   4.6032226e-01  -5.3275028e-01   8.3830571e-01  -4.0648809e-01   5.3353426e-01  -9.9083665e-01  -2.6889000e-02   8.4231139e-01   6.2368727e-01  -4.0775604e-01  -6.5440129e-01  -7.4519317e-01   2.4831413e-01   8.3118579e-01  -6.7605806e-02  -7.1863384e-01   8.8443624e-01   1.3527179e-01  -6.4607391e-01  -8.6696495e-01   4.1272586e-01   7.8382603e-01   7.3876313e-01  -6.7225665e-01  -9.7948646e-01  -5.4251543e-01   1.1922537e-01   2.6064181e-01  -2.6508315e-01   8.1884793e-01  -7.2000359e-01   8.6320901e-01  -1.7794413e-01  -1.8325482e-01  -2.7312157e-01   5.6535046e-01   5.6961479e-02   8.9136707e-01  -7.0158465e-02  -2.2065638e-01   1.6301005e-01   8.3136618e-01  -5.3554350e-01   5.3979686e-01   3.6105879e-02  -6.7082799e-03   4.6319376e-01  -4.9998183e-01   4.9505493e-01   3.9050445e-01   7.9908750e-01  -5.7717665e-01  -2.9967916e-02  -9.3653572e-01   6.4565575e-01   3.9137614e-02   4.3029436e-01   3.0445381e-01   5.7400975e-02  -3.4358043e-01   7.5850529e-01  -3.0026702e-01   1.7651110e-01   2.2417936e-01  -9.4734717e-01   4.4827819e-01  -6.6641572e-01   4.0229095e-01   9.7400925e-01  -2.5638148e-01   7.5685269e-01   3.4778954e-01   9.9464585e-01   6.1404069e-01  -1.5683651e-02  -9.2186554e-01  -7.4787358e-01  -6.2432432e-01  -6.3967544e-01  -5.5225590e-01  -3.0411990e-01   3.9695528e-01  -9.8864763e-01   9.3931715e-01   5.3396715e-01  -4.2351820e-01  -5.5283676e-01   6.9892188e-01  -1.1570767e-01  -6.4975754e-01   5.9660235e-01  -1.5958594e-01   6.5795441e-01   2.7608909e-01   2.2362513e-01  -8.7542750e-02   6.0001672e-02   7.4057868e-01   1.3905796e-01   1.9652598e-01  -8.8853124e-01   4.7195371e-01  -2.7010792e-01   7.0963148e-01   6.2599735e-01  -6.7199271e-01  -1.8123333e-01   2.5135033e-01  -6.4757054e-01  -5.4930053e-01  -5.0878636e-01   8.1980087e-01  -6.2371481e-01  -1.7719954e-01   4.1040014e-01  -3.9080898e-01  -3.5398854e-01  -7.1512913e-01  -8.5719123e-01   8.4407044e-01   7.8214800e-01  -6.3841371e-01   4.8472748e-01   6.8441634e-01   7.8653856e-01  -7.7055032e-01   8.5581881e-01   6.7979290e-01  -8.3265976e-01  -8.0413457e-01   2.8833438e-02  -2.1055533e-01  -3.5945900e-01   2.3309629e-01   3.7133019e-01   8.5261565e-01  -2.9302202e-01  -7.3427437e-01   8.7800968e-02   6.8604268e-01  -3.5967969e-01  -7.7763720e-01   9.5258082e-01  -3.9854229e-01   9.3327363e-01  -7.4370271e-01   7.6856159e-01  -2.5528015e-01  -8.6298784e-01  -2.8823823e-01  -8.9243955e-01  -8.9452616e-01  -4.0272235e-01   2.6688090e-01   5.9530035e-01   9.6586332e-01  -1.0186786e-01  -6.6072067e-01   8.6967443e-01  -9.2868066e-01  -8.0654199e-01   5.2901965e-01   4.0912478e-01   3.5065669e-01   1.0030874e-01   8.6937879e-01  -9.1851309e-01   7.2215199e-01   1.7460229e-01  -5.0781767e-01  -7.0125476e-01  -5.7956750e-01   7.9392405e-01   7.2448041e-01   5.0323503e-01  -2.7956446e-01   2.5778439e-01  -9.1487685e-01   6.5920982e-01   3.6514842e-01   5.8732458e-01   3.6427735e-01  -9.8100965e-01   3.7140516e-02  -5.4546389e-01  -3.6832129e-01   4.9644567e-01  -1.0587130e-01   3.4521983e-02  -4.0192401e-01  -9.3989925e-02  -3.4238840e-01   4.2641618e-01   6.2739180e-01  -4.6049227e-01   9.0150276e-01   1.2693646e-01  -4.9130595e-01  -1.6201779e-01   7.0932581e-01   9.9494843e-02   5.0120512e-01   6.8916431e-01  -3.9964445e-01   2.6550055e-01  -2.5323343e-01   1.9770121e-01   1.4479752e-01  -1.9756532e-01   9.4254504e-01  -1.2523089e-01  -3.0054458e-01  -3.3634947e-01   8.8596316e-01   8.3847041e-01   7.3457421e-01   6.5007442e-01   1.1364618e-01  -3.4694475e-01  -8.9283562e-01   6.1770306e-01  -5.7542800e-01   2.4655746e-01   4.9859414e-02  -9.1320591e-01  -4.6997859e-01  -7.0877118e-01   8.3452001e-01  -2.2075259e-01  -5.7615653e-01  -7.9622881e-01  -4.0874357e-02  -4.9423375e-01   1.7983847e-01   9.0514744e-01   3.6119768e-01  -9.9397652e-01  -5.3453416e-01  -9.0650375e-02  -1.9804234e-01  -7.2958943e-03   4.9334221e-01   4.9710359e-01   6.5441756e-01  -9.9110129e-01  -8.6640464e-01  -5.5909998e-01   6.4417898e-01   1.2743851e-01  -6.9528570e-01  -2.3921518e-01  -8.6956892e-01  -1.5798773e-01   7.4277760e-01   5.3430448e-01   7.0643727e-01   8.9777552e-01   1.2743038e-01   7.2894179e-02  -2.1155683e-02   6.5625053e-01   9.3797880e-01   9.5519566e-01   4.0359382e-01  -7.7461172e-01  -3.3202283e-01   4.5353265e-02  -6.0007050e-01   9.8009603e-01  -7.1532652e-01  -4.5959322e-01   4.0460215e-01   6.6656708e-02  -2.5319094e-01  -2.0274744e-01  -1.9969708e-01   3.3618719e-01   4.1535576e-01   9.8546991e-01  -6.9723688e-01  -7.5041609e-01  -6.6041868e-01  -7.3016595e-01   8.4036235e-01   6.5750847e-01   5.2362245e-01  -4.3212924e-01  -3.8841617e-01   9.6747216e-01   1.5269435e-01   3.3452668e-01  -3.9022844e-01  -9.5758987e-01  -4.3370187e-01  -5.1421338e-01  -8.8441088e-01   2.4594985e-01  -6.8925442e-01   9.7364926e-01  -6.8993742e-01  -5.3392384e-02   2.4701148e-01  -3.7910773e-01  -5.8608967e-01  -4.5363543e-01  -8.2862890e-01  -8.8436791e-01  -5.3354342e-01   7.9765243e-01   1.2883167e-01   4.0463559e-01  -3.3698271e-01   6.1082137e-01  -6.4155007e-01   5.0142655e-02   4.4484799e-01  -5.7957794e-01  -7.0569987e-01  -8.3703062e-01  -3.2559163e-02   1.9121405e-01  -1.1900049e-01  -5.2954628e-01  -8.1832641e-01   9.2313149e-01   9.8561784e-01   1.9854035e-01  -9.7121816e-02   6.3886891e-01   8.4557212e-01  -7.1774968e-01  -4.4839741e-01   4.9100368e-01   6.6532538e-01  -9.3829580e-01   6.8101133e-01  -5.9949194e-01  -8.0074533e-01  -6.3884715e-01  -6.0595307e-01   9.3669849e-01  -1.6558353e-01  -8.4478491e-01  -5.4068859e-01  -8.5461099e-01  -7.2750158e-01   1.1586554e-01   1.0832980e-01  -4.9563235e-01  -9.3557213e-01   7.2628200e-01   4.8855923e-01   2.8915076e-01   4.9200059e-01   7.7100433e-02  -5.9225900e-01   4.2057095e-01   5.3315454e-02  -1.8363974e-01   1.5810764e-01   4.2920919e-01  -2.4652513e-01   6.9048599e-01  -1.7603970e-02   2.8466142e-01  -6.2668252e-01   2.3802059e-01   4.8129714e-01  -3.9527471e-02   4.3438899e-01  -2.2433920e-01  -9.6480503e-01  -2.6806918e-01   8.5725654e-01  -5.4515702e-01   4.1229393e-01   3.9784797e-01   2.2151196e-01  -9.5694432e-01  -9.5345819e-01   9.6828708e-01   8.6413656e-01   1.2688218e-01   5.3922447e-01  -7.3312624e-01  -3.2930711e-01   6.6361389e-01   1.0957749e-01  -5.2886395e-01  -9.0390828e-02  -5.5505224e-02  -4.3747488e-01   4.6923414e-01   7.2880862e-01  -6.6688725e-01  -3.4129460e-01   3.0319567e-01  -6.9962636e-01   9.3028178e-01  -7.2738610e-01   6.8600029e-01   7.4651988e-01   2.1482248e-01   5.0649725e-01   7.5065847e-01   4.0151457e-02  -7.8682887e-01  -4.8774687e-01   5.7212110e-01  -1.9970958e-02  -8.0583310e-01  -3.1651641e-02   8.2608882e-01   1.7394681e-01  -8.3380846e-01   5.5890479e-01   8.1543305e-01   2.5941737e-01   5.0425616e-02  -1.3212614e-01  -3.8432699e-01  -4.4016353e-01   2.8716600e-01   8.1621076e-01   8.6270617e-01   3.2170736e-01  -7.8129721e-01  -3.1817833e-01   7.3171359e-01   4.5528955e-01   6.6042193e-01  -2.8273082e-01  -2.0540570e-01  -5.8142930e-01  -6.3872317e-01  -3.6351525e-01  -8.5962148e-02   7.4858473e-01  -2.3956561e-01   3.1693422e-01  -6.9012913e-01  -6.9516013e-01  -8.0215821e-01  -9.2105781e-01  -8.7175553e-01   8.7672592e-01   5.6558494e-01  -1.8918104e-01   6.8169183e-01   1.6233770e-01  -8.0327706e-01   2.5978654e-01   6.7374150e-01  -6.2039772e-01  -1.3840049e-01  -8.8145240e-01   7.7748476e-01  -8.9035374e-01   4.8598381e-01   9.3380771e-01   1.8543412e-01  -9.6395000e-01  -7.8558869e-01   3.9732290e-01   1.2322454e-01  -6.7137396e-01  -6.5684504e-01  -7.3655290e-01  -4.6224218e-01  -5.8799287e-01  -1.1285543e-01  -1.2701518e-01  -9.2878784e-01   6.8857078e-01   8.9244415e-01  -2.7014887e-01  -7.0249612e-01  -4.2673910e-01  -7.2450265e-01   1.4008779e-01  -3.5204413e-01  -4.4932980e-02   7.4866354e-01  -1.5095620e-02  -6.9626226e-01  -6.8487560e-01  -4.5642290e-01  -7.5348398e-01   6.0476496e-01  -9.8654346e-01   4.7156437e-01   9.8376951e-01   9.7875963e-01  -7.7048729e-01   3.1156060e-01  -3.2267653e-01   2.9643807e-01  -7.6644282e-01  -7.4214808e-02   9.4547286e-01  -2.6160718e-01   4.0244991e-01  -7.4670056e-01  -2.2758089e-01  -2.3794542e-01  -5.1508215e-01  -8.6153970e-01   1.0540532e-01   8.7743637e-01   9.6753900e-01  -1.9318469e-01  -1.2316161e-01  -4.7042363e-01   3.4975706e-01  -4.6184921e-01   8.2468278e-01   3.3408082e-02  -9.5454116e-01   1.4392208e-01  -5.8044371e-01  -3.3188073e-01  -5.7992518e-01   8.3576188e-01   6.2647545e-01   9.1326088e-01   7.3664866e-01  -4.6281988e-01   6.1918276e-01  -2.5758157e-01   3.2250724e-01  -7.1858436e-01   2.6731589e-01   3.0177744e-01   4.0709473e-01  -2.9587450e-01  -6.5040048e-01  -4.9255797e-01   3.9028318e-01   5.7946188e-01   7.6145774e-01   6.5771530e-01   6.8657694e-02  -8.9508998e-01   1.9181723e-01  -7.9063025e-01  -2.9627842e-02   5.9379720e-01  -7.7688417e-02   5.5951715e-01   5.6087326e-01   6.1969658e-01   6.9249729e-01  -5.1296406e-01  -9.5982411e-01   8.2431951e-01   6.7669927e-01  -7.2038315e-01   5.5205783e-01   2.6821309e-02   9.1793439e-01   1.3035698e-01   6.9793747e-01   4.7937603e-01  -8.3103343e-01  -5.2098826e-01   1.5442026e-01   7.7765471e-02  -6.5381765e-01  -3.5480152e-01   7.4099818e-01  -9.7912878e-02   5.7786274e-01   3.4875759e-01   2.5121289e-01   9.0538761e-01  -9.4168845e-01   8.5893434e-01  -2.0107390e-01  -1.5752687e-01  -2.7641668e-01  -8.8364238e-01   3.1949504e-01   1.8107571e-01   3.0922877e-01  -2.5076105e-01   3.0933667e-01  -8.8253613e-01   8.3707949e-01  -5.5922810e-01   7.7832181e-01  -4.0239604e-01   2.9331690e-01  -4.5323712e-01  -2.7340355e-01  -9.2711677e-02   1.0831752e-01   2.9139137e-01   3.9683388e-01   9.2014937e-01   9.8351067e-02   6.7234517e-01   2.1144641e-02  -6.4474215e-01   7.8930320e-01   9.3194255e-01   4.9383957e-01   4.6047962e-01   1.0890268e-01   7.4456962e-01   3.5528075e-01   7.8208655e-01  -2.8295389e-02   2.0046301e-01   6.2268321e-01  -8.2198546e-01   1.1392190e-01  -9.1760369e-01  -7.3668064e-02  -6.6068522e-01  -5.5479984e-01  -6.8836463e-03   4.3971886e-01   5.9605802e-01   7.8835859e-02  -8.4535805e-01  -2.7218499e-01  -5.0398893e-01  -2.2686477e-01   5.7868708e-01   1.8884934e-03   5.7883176e-01  -6.6089942e-02   4.7526780e-01   2.1345154e-01  -4.8589634e-01  -2.4169765e-01   6.6462564e-01   6.5561313e-02  -4.2021751e-01  -8.9697906e-01  -8.0945507e-02  -8.2432936e-01  -4.8202728e-01   4.4457087e-02   3.1082138e-01   6.7853246e-01   5.5199631e-01   5.1967772e-01   6.9440858e-01   2.1823751e-01   8.9360112e-01   4.5040289e-01  -5.1617843e-01  -1.1060832e-01   7.4030240e-01  -4.5773773e-01  -9.8229279e-01   1.4086018e-01  -4.7009391e-02  -9.4425370e-01  -1.3955763e-01   7.7382345e-01   4.1144113e-02  -3.9538536e-01   9.3042475e-01  -3.3751099e-01  -3.0874393e-01   4.9804662e-01  -4.2969214e-01  -9.1958756e-01   8.1761383e-01  -7.3871205e-01   4.9599539e-01   3.8008804e-01   7.5903163e-01  -7.1174262e-01   9.6302940e-01   5.8955538e-01  -6.4132628e-01  -5.2132132e-01   3.1777087e-01   6.5338513e-01  -5.3624906e-01  -5.8685600e-01  -5.8962012e-01   4.3869961e-01   4.9983235e-01  -6.6911504e-02   9.9794186e-01  -9.2639797e-02  -1.8691015e-01   4.4321134e-01   5.1499826e-01  -8.6172656e-01   6.7959536e-01   2.8471070e-01   7.4024036e-01   7.2213382e-01   3.6098781e-01  -2.4713169e-01  -1.7725691e-01  -5.5121199e-01  -3.7461976e-01  -6.7367233e-01   4.2399321e-01   7.6225793e-02   3.5364654e-01  -3.9136771e-01  -6.8539921e-01
   7.3441280e-01  -9.8337864e-01   5.2127563e-02  -3.3321267e-02  -7.1761105e-01   8.9116822e-01  -7.2299233e-01   5.6103832e-01   2.1386057e-01  -1.8663254e-02   1.0788168e-01  -6.5528682e-01   5.0072576e-01   2.9450886e-01  -3.3445206e-01   4.6358810e-01  -7.4279749e-01   1.2954479e-01   8.6367391e-01   5.2275282e-01   9.5028390e-01   4.7401407e-01   3.1476440e-01   1.0019679e-02  -3.5158290e-01   3.4070503e-01   4.8563347e-01  -4.0430730e-01  -6.8443774e-02   9.7995508e-01  -9.6182537e-01   6.3578085e-01  -2.0737509e-01  -8.8983515e-01  -6.4604586e-02   8.6314402e-01   1.2928969e-01  -5.2023545e-02   9.3496820e-01   5.7592795e-01  -6.9816823e-01  -8.6048669e-01  -6.7335266e-01  -3.1758989e-01  -3.3324068e-02   2.9989144e-01   1.3794235e-02  -8.8339072e-01  -5.6289955e-01   1.1350565e-01  -1.1192141e-01  -6.4404479e-01   9.4869870e-01  -6.3169534e-01  -9.1818810e-02   3.8713534e-01  -8.2855614e-01   9.9984951e-01   6.1319659e-01   5.4578715e-01   9.1680368e-02   7.1328695e-01   2.1957455e-02   3.3454802e-01   5.1051637e-01  -4.4613473e-01   9.7080190e-01  -4.4650094e-02   2.6332623e-01   4.1107012e-01   3.3890974e-01   7.5508126e-01  -8.8517006e-01  -6.3730147e-01  -1.8103990e-01  -2.2265934e-01  -6.9758862e-01   1.5887415e-01   1.1208579e-01  -5.5616964e-02  -6.4572240e-01  -3.1265243e-01  -9.5885396e-01   6.8905731e-01  -6.4064071e-01  -6.8343830e-01  -5.2769732e-01   1.6738610e-01   8.7114114e-01  -8.7254023e-01   3.6248281e-01  -1.9943236e-01   6.1435028e-01  -1.7770850e-01   9.0666451e-01   5.7602880e-01  -4.9204353e-01  -5.3921573e-01  -6.6378909e-01   1.8829790e-01   7.9766704e-01  -9.3487185e-01   9.5648525e-01   8.0449488e-01  -5.2083649e-01   5.2265387e-01  -9.6484166e-01   1.6260980e-01   1.7528582e-01  -3.1789869e-01  -6.1949722e-01  -6.6953427e-01  -5.8011365e-01   3.3677171e-01  -8.2589394e-02   2.5747306e-01  -5.8968065e-01  -6.3102988e-01   1.9978622e-01   1.7481863e-01  -9.3324713e-01  -8.3915614e-01   2.1104838e-01  -1.5878175e-02   7.2303247e-02  -6.9570082e-01   4.8716844e-01  -8.8233477e-01  -7.6413136e-01  -1.5387924e-01  -8.8553672e-01   2.8094843e-01  -3.3560392e-01  -2.3771501e-01   4.0127741e-01  -9.7280162e-01  -6.2220220e-01   9.5854835e-01  -1.9560667e-01   6.5782757e-01  -2.6491288e-01   6.3399969e-01  -9.3873399e-01  -8.5974953e-01  -9.5774308e-01  -2.6224875e-02  -5.8693033e-01  -4.6517227e-01  -1.1663319e-01  -4.2478273e-01  -1.3714215e-01   6.9823783e-01  -6.3164067e-01   9.8896013e-01   5.9181327e-01   1.6467838e-01  -9.5405411e-02   8.1969229e-01   8.1818128e-01  -6.5362701e-01   3.1101396e-01  -1.1304440e-01   5.6418591e-01  -7.3398709e-01  -1.6600124e-01  -3.1531888e-01   5.6868411e-01  -1.7148338e-01  -7.1580904e-01   5.1411072e-01  -4.4529425e-01  -1.1539076e-01  -3.2650454e-01   5.0761992e-01   8.4324026e-01  -8.4987907e-01   4.3667436e-01   5.9564638e-01   2.2079191e-03  -2.7881185e-01  -4.7965966e-01   8.5659162e-01  -5.7791791e-01  -2.0868745e-01   2.2821557e-01  -7.8153882e-01  -3.7272273e-01  -9.4117976e-01  -6.2340478e-01  -1.5804549e-01   8.8527737e-01   2.9122081e-01  -9.4570814e-01  -3.7256322e-01  -4.8813255e-01  -3.2317150e-01   1.3662203e-01  -1.5826889e-01  -3.5273346e-01   4.5725643e-01  -7.7180160e-01   8.4631760e-01  -9.8750114e-01   2.8909934e-01  -4.1704739e-01   4.2722612e-01  -9.3998238e-01  -1.2083958e-01  -7.0800600e-01   4.1787973e-01  -9.0514006e-01  -1.1262080e-01   9.9201551e-03   7.4969947e-01  -9.1813946e-01   8.0234963e-01   8.4601386e-01   1.6066585e-01   3.3349900e-01   2.1068698e-01   6.9238236e-01   9.9744874e-01   2.6372205e-02   6.0312269e-01   2.2584693e-02   9.8212190e-01   5.2891596e-01   4.7110688e-01   1.2727949e-01   1.3558053e-01  -7.6510446e-01  -1.9503129e-01  -1.5014204e-01   1.0556147e-01   2.1402368e-01  -1.2057717e-01  -4.7589742e-01   7.2742589e-02   7.0013242e-01  -4.7166208e-01   2.3933695e-01   9.6542087e-01  -8.2555741e-01   2.5068013e-02  -4.3025148e-01  -4.5119084e-01  -2.5412937e-01  -1.8109719e-02   6.8296381e-01   1.1751755e-01   5.8520805e-01  -2.2746674e-01  -5.7541886e-02  -2.1025889e-02  -3.4370409e-01  -6.4618210e-01  -8.0722373e-01   3.4332709e-01   3.0886681e-01  -2.2728367e-01  -3.7746506e-01  -1.8178553e-01  -9.6798365e-01  -2.1708735e-01   3.6799265e-01  -6.7878023e-01   7.3501059e-01  -8.1787492e-01  -5.7537661e-01  -2.9683803e-01  -9.5363241e-01  -8.4775363e-01   3.1143639e-01  -3.2858752e-01   8.4202684e-01  -7.0809977e-01  -4.9393762e-02   5.5304144e-01  -5.7607875e-01   3.7882992e-01   2.0823729e-01   9.5587226e-01  -8.7537411e-01  -4.7294173e-01   7.7769412e-01   3.7681762e-01   2.0627196e-01   5.3765923e-01  -9.0044274e-01  -4.3173141e-01  -4.3620201e-01   1.5383907e-02   8.9009831e-02  -3.1531418e-01   6.4435613e-01   5.8833804e-01  -8.5313249e-02   9.1652863e-01  -5.0340235e-02  -2.3345263e-01  -6.1443902e-01  -2.0429772e-01  -7.0876182e-01   8.3404556e-01   2.7995537e-01  -8.6179050e-01  -4.1048261e-01   1.9217491e-01   1.1574661e-02  -3.2005202e-01   3.8486333e-01  -5.3935475e-01  -5.0081161e-01  -5.5660857e-02  -3.1689452e-01  -3.7322932e-01   7.7443460e-02   3.6106415e-01   3.7712845e-01   9.8431632e-02   5.1187261e-02   1.7568973e-01  -6.9065473e-01   5.7615891e-01   4.8823287e-01   8.6893176e-01  -2.6617822e-01   7.1901022e-01   3.5281912e-01   2.6201548e-01  -3.3308424e-01   4.2321868e-01  -2.9807309e-01  -2.6614238e-01   7.8893030e-01   8.9912686e-02   8.4450064e-01   1.3835357e-01  -1.4116666e-01  -2.5132796e-01  -4.4243758e-01   9.3112869e-02   8.8477450e-01   3.6809261e-01  -7.8213891e-02   6.1485544e-01   3.4753164e-02  -9.7398539e-01  -4.1223614e-01   2.9137276e-01   8.7352518e-01   2.0360565e-01  -9.1509752e-01   9.5560473e-01  -6.0055390e-01  -3.0612528e-01  -4.6231495e-02   2.7913105e-01  -5.1310834e-01  -3.7129729e-01  -5.5558634e-01  -8.7275773e-01   2.1414814e-01   8.5466129e-01   4.5023489e-01  -5.6238027e-01   3.4073315e-01   2.5854778e-01   6.8561689e-01   9.8589560e-01   4.2189976e-01   4.0211346e-01   1.0588305e-01  -9.4984154e-01  -7.9444449e-01  -3.2620717e-01   1.1428852e-01  -2.4025236e-01  -2.2678685e-01   4.0826011e-01  -3.3378031e-01  -3.9628018e-02  -7.2166278e-01  -3.4694623e-01  -8.0438610e-01  -3.5285981e-02  -2.0818741e-01  -8.3104951e-01   3.0707270e-01  -8.4491806e-01  -8.7985218e-01  -5.6147784e-01   1.5106366e-01  -7.6002079e-01  -8.3009096e-01  -1.9402698e-03   5.9755508e-01   8.3781845e-01  -1.2045178e-01  -4.2045127e-01  -4.3321702e-01  -7.1091476e-01   2.8918264e-02  -2.7306602e-01   3.8472106e-01  -2.9288657e-01  -2.4103653e-02   9.1421711e-01   5.9438583e-01   8.6277884e-01   2.7807069e-01  -7.6240638e-01  -8.3689199e-01   5.9437893e-01  -3.0175630e-01  -5.7704701e-01  -6.1553170e-03  -5.0289650e-01   6.9163038e-01   6.7651993e-01   7.2556812e-01   3.4196785e-01  -3.1877423e-01  -7.3579921e-01   7.0424233e-01   9.2676291e-01  -4.8055499e-01  -6.5465195e-01   4.8974414e-01  -1.7394421e-01   6.3495725e-01   5.8673177e-01   6.0155289e-01   7.5421454e-01  -2.6633286e-01  -1.2548282e-01   9.5147741e-01   3.0835217e-01   8.8901166e-01   8.1842438e-01  -9.6800127e-01  -4.9542263e-01  -6.6643857e-01  -8.7701002e-01   4.3302332e-02  -4.1942940e-01   1.5815875e-01  -8.4157511e-01  -4.7633751e-01   6.1179950e-01  -5.3970336e-01  -4.8134661e-01   9.4377430e-01   1.5280832e-01   4.2431449e-01  -2.9693167e-02  -7.6946188e-01   8.0007260e-01  -1.9026828e-01   6.3685443e-01   1.1752408e-01   9.2589412e-01  -3.0917081e-03   2.0437249e-01   6.4351461e-01   6.6351674e-01  -7.2578228e-03  -3.1619758e-01  -6.4791158e-01  -6.0487693e-01  -4.4607311e-01   7.1923112e-01   8.4658065e-01  -3.3291795e-01  -4.0352433e-02   6.6011431e-01   8.3566879e-01   3.6877277e-01   6.9890415e-01   1.9742251e-03  -9.8457463e-01   9.9001875e-02  -6.3641231e-01   5.3332710e-01   3.3346938e-01   2.4821337e-01  -8.2139034e-03   9.1949553e-01   6.9427499e-01   3.6650689e-01  -8.0005292e-01   7.9368976e-01   3.2418950e-01   3.1063714e-01   3.9750547e-01   5.5433539e-02  -5.1496675e-01  -4.2436315e-01   3.9480250e-01   5.1192741e-01   3.2121644e-01  -2.0459213e-01  -7.6714250e-01   5.7213358e-01   3.7242542e-02   1.8521744e-01  -8.7187040e-01   2.9489464e-01   3.3413975e-01  -9.4627500e-01  -4.2378608e-01   9.9893639e-01  -7.6917981e-01   3.7102917e-01  -8.1547490e-01  -7.0566467e-01   6.2030271e-01   5.6945540e-01  -9.3038803e-02  -8.6976451e-01  -5.5978986e-01  -5.6543620e-01   7.4126633e-02   2.8698074e-02  -7.5651673e-01   2.2232826e-01  -8.8867016e-01   8.3538933e-01   8.8851406e-01   8.2692395e-01  -4.4055547e-01  -8.6911528e-02   5.3170995e-01   1.5058028e-01  -5.9875643e-02  -9.5549796e-01   7.8659615e-02  -4.8009992e-01  -8.5938739e-01  -3.1808133e-02  -7.2559653e-01   8.3530644e-01  -2.3442677e-02   7.6187756e-01  -2.1825301e-01   1.8783725e-01  -5.3361986e-01   6.5405119e-01   2.7611578e-01  -3.8488956e-01   6.5173757e-01  -6.4182618e-01  -9.4317866e-01  -5.2600377e-01   2.8730072e-01   9.8496786e-01   5.6430365e-01  -4.7978613e-01   1.2238754e-01   3.1773198e-01   8.5793841e-01   8.6990662e-01   1.5191843e-01   4.7470070e-02  -1.7611090e-01  -5.4484955e-01  -1.1222208e-01  -3.5743842e-01   9.2949330e-01   6.4543620e-01   5.1835521e-02   3.2408101e-01  -4.5584578e-01   3.2612839e-01   3.1111929e-02  -3.9270316e-01   5.9304076e-01  -9.4235919e-02  -8.4706407e-01  -2.8763780e-01  -9.0449011e-01   5.2073228e-01  -1.4871034e-01  -5.7783417e-01   7.4574103e-01   6.8769766e-01  -9.9035471e-02   1.9359014e-01  -3.6650176e-01   2.4064034e-01   6.6473726e-01  -6.7352784e-01  -4.5434554e-01  -7.8873119e-03  -3.7130156e-01  -3.9765363e-01  -8.1655729e-02   4.6310620e-01   6.3825030e-01   3.9090729e-01  -6.1103727e-01  -3.9912372e-01  -9.3262714e-01  -6.3530215e-01  -6.6879485e-01  -2.7949929e-01  -7.8370974e-01  -8.7129709e-01  -3.7802945e-01   2.8979897e-01   7.7376510e-01  -7.0682574e-01   2.7890942e-01   5.1982892e-01  -1.0041424e-01   8.2252565e-03  -9.1486558e-01   2.5108381e-02   5.1151206e-02  -3.0082409e-01  -5.6461834e-01  -6.7649536e-01  -9.0905666e-01  -7.7027373e-01   7.2680930e-01  -7.7670280e-01  -1.0736757e-01   9.3763377e-01   7.2553430e-03  -5.3100047e-01   4.9181198e-01   9.8589800e-01   8.8035174e-01  -8.0864466e-01  -6.1495743e-01  -2.5710611e-01   6.2754500e-01   5.0157124e-01   3.7806135e-02  -5.3548926e-01   5.7548513e-01   7.6948797e-01  -2.0983910e-01   3.1683784e-01   7.2493226e-01  -5.0326812e-02   3.0479653e-01  -9.5141625e-01  -7.2626212e-01   5.9681288e-01  -6.1870242e-01   7.4194246e-01  -5.8804043e-01   2.5956233e-01  -1.5362009e-01  -3.4163701e-01  -6.9204995e-01  -1.4570582e-01  -9.6637488e-01  -2.8630140e-01   7.6038262e-01  -9.1579581e-01   4.6687796e-01  -5.9351048e-01   8.4229617e-01  -2.7482375e-01   4.2796979e-01  -4.0015210e-01  -7.4931230e-01   9.0879962e-01   5.2007277e-01   8.3589419e-01   6.4258754e-01   9.9517277e-01  -3.3726042e-01  -6.3705694e-01  -8.1990470e-01  -4.7812498e-02  -5.5944620e-01   9.7810172e-01   5.9820866e-02   3.3919058e-01  -3.0563602e-01   2.0780832e-01   9.2654539e-01   5.4047637e-01   9.0838220e-01   5.7909611e-01  -2.3218460e-01   7.0796379e-01  -3.3771423e-01  -1.6526818e-01   4.5410864e-01  -9.7758189e-02   8.4795363e-01   8.3085249e-01  -7.4530964e-01   8.2332807e-01   7.5860215e-01   1.5714195e-01  -1.7968988e-01  -4.3719851e-02   1.0278209e-01  -9.2184536e-01  -8.3286086e-01  -4.1624581e-01   1.5755062e-01   1.6063236e-01  -2.7546994e-01  -9.8828754e-01   6.7605607e-01   4.4192446e-01   5.6908991e-01   6.0045131e-01   6.6823170e-01  -4.9683477e-01  -5.2673353e-01   9.7992013e-02  -9.2367430e-01   1.8458766e-01   1.8042740e-02  -3.3141717e-01  -7.6979124e-01  -8.4527783e-01  -1.0644545e-01  -3.5961420e-01   6.6536121e-01  -1.7874473e-01   2.3386313e-01   5.5123732e-01  -4.9832834e-01   4.9591239e-01  -6.4379137e-01  -7.5849389e-01   7.9311936e-01  -1.7082075e-01   9.4858479e-01   5.1394754e-01  -5.1245404e-01  -3.2298231e-01  -5.8307230e-01   8.5176769e-01  -4.1501813e-01   5.2192361e-01  -8.7759061e-01  -2.8107004e-01  -3.5894235e-01  -6.0450034e-01   5.1538144e-01  -1.1790364e-01   1.1531627e-01  -2.7924565e-01   2.5944629e-01   9.6523724e-01  -1.6061097e-01  -3.8172791e-01   4.9847928e-01  -6.5725738e-01   5.7842605e-02  -6.5834377e-01   6.4192089e-02  -1.1913730e-01  -1.5837440e-01  -7.5314649e-01   2.9983297e-01   7.5623909e-01  -2.0473682e-01  -9.8095631e-01   8.6290136e-02  -2.6093236e-02  -6.8693946e-01   3.5922725e-01  -1.0091561e-01   7.0045717e-01  -3.8461715e-01  -8.9413008e-02   1.3472182e-01  -2.3152841e-02   6.4566086e-01   4.5925506e-01  -5.3401931e-01   3.0338457e-01   2.2889672e-01  -5.5398448e-01  -4.7568086e-01   3.1507821e-01   1.0763157e-01  -9.0190532e-01   9.6084877e-01   9.1440902e-01  -6.9405089e-01  -4.3585927e-01  -5.6990861e-01   9.7185467e-01  -5.7888825e-01   7.5301447e-01   7.4277105e-01  -9.1338586e-01  -9.6585550e-01  -7.3837473e-01   2.3270588e-01   2.6267406e-01   4.8605272e-01   7.8025349e-01  -2.2635234e-02   2.0445152e-01  -1.7872056e-02  -4.2200531e-01   1.7924586e-01   8.1928782e-01  -9.6575399e-01  -7.6325043e-01  -4.4613650e-01   4.5494263e-01  -1.5541552e-01  -1.9566649e-01  -7.0085641e-01  -9.2011163e-01  -3.1103703e-01  -2.1614969e-01   7.4442656e-01  -8.1686998e-01  -7.6481006e-01   2.1091423e-01  -5.7298186e-01   5.7907380e-01   7.2330686e-02   2.6651212e-01  -5.2609879e-01  -4.0847975e-01  -2.2523098e-01   5.8334483e-01  -7.7760383e-01  -5.1506939e-01  -3.5874377e-01   8.2771412e-01  -9.0645602e-01   7.1901295e-01  -3.9532220e-01  -8.6402039e-01  -9.4959849e-01   3.5508759e-01  -9.6581696e-01  -8.9702947e-01  -2.9948886e-01   1.8482672e-01  -1.9732666e-01   8.5340975e-01   7.1181929e-01  -6.1747086e-01   9.1959745e-02   5.2905656e-01   2.7358733e-01  -9.7648726e-01  -5.0417524e-01   2.2119118e-01  -5.8907356e-01  -4.9585700e-01  -1.9846139e-01   6.7282910e-01  -7.7412597e-01   3.3926664e-01   6.0955319e-01   3.8982434e-01  -9.8387803e-01   4.9207414e-02  -7.5505324e-01   2.5296584e-01   7.1874727e-01   3.9231498e-01  -6.4596212e-01   5.1399556e-02  -4.7380248e-01   9.8692896e-01  -3.6755330e-01  -1.9094799e-01   7.9568466e-01  -5.5731624e-01  -2.9678805e-01   9.6224081e-01   8.4060407e-02  -5.3243090e-01   7.8389759e-01  -3.9222394e-01   5.8312663e-01  -9.2870024e-01  -2.4713420e-01  -5.9637831e-01   6.4570021e-01   4.0098112e-01  -8.6214392e-01  -5.7678715e-01   2.8328675e-01  -1.2124126e-01   5.9196488e-01  -6.1805898e-01  -6.0865949e-02   7.9030876e-01   5.4629289e-01  -9.1553889e-01   4.6689964e-01  -3.2582509e-01   3.3858411e-01  -1.0340842e-01  -6.1709759e-01   1.1653412e-01   3.3944977e-01   8.5050802e-01  -1.3274309e-01   5.5648177e-01   4.9981145e-01   9.3414282e-01  -1.4838082e-01  -4.3641385e-01  -9.6347146e-01  -7.5934535e-01   3.2601056e-01   6.8890782e-01  -6.8971659e-02  -2.7222238e-01   6.0544862e-01  -8.7316637e-01  -6.8284868e-01   9.5208175e-01   4.3038416e-01  -7.3991186e-01  -1.3721477e-01  -5.1614095e-01   5.3753762e-01   8.4570266e-02  -6.9384129e-01  -6.7993849e-01  -9.4228749e-01   9.6461325e-01   1.4377067e-01  -1.8740090e-01  -4.3847428e-01   6.2303340e-01  -6.3981002e-01  -8.1423295e-01  -3.7587312e-01   8.3240758e-01  -2.5380884e-01  -4.1574239e-01  -9.4711641e-01  -7.1140723e-01  -1.7857104e-01   5.2075028e-01   6.7810082e-01  -9.1974493e-01  -4.3658712e-01  -2.1304333e-01  -8.6942535e-01   3.2903848e-01  -8.5209324e-01   6.7781001e-01   8.4915862e-01   5.6210117e-01  -9.4361599e-01   8.8794802e-01  -4.1762488e-01   9.6108338e-01   9.2176434e-01   9.9528137e-01  -8.3801384e-01   8.2028835e-02  -7.0664817e-01  -6.6988283e-01   4.5361293e-01   2.8679228e-01   3.5778737e-01  -7.4553331e-01  -2.0473366e-01   3.3813027e-01   9.4996949e-01  -2.2293401e-01   4.1909178e-01   7.3618092e-02   7.2376797e-01   1.3631271e-01  -1.3892444e-01  -1.0834825e-01  -4.7056520e-01   1.2015630e-01  -9.1235126e-01  -2.2803523e-01  -6.0495054e-01  -7.8937380e-02   8.7679052e-01   3.9570222e-01   9.2399994e-01   6.1096002e-01  -5.2409978e-01   8.0505055e-01   9.8632062e-01  -5.9399227e-01  -2.9245753e-01   6.4367958e-01  -8.5834415e-01  -4.0418600e-01
  -5.7921674e-01   8.5804606e-01   9.8455355e-01  -8.5385580e-01  -1.5354254e-02   8.3328379e-01  -9.1673375e-02   1.0010437e-01   5.3509461e-01  -7.1845364e-01   7.7049297e-01  -1.4723409e-01   3.6874501e-02   2.6885771e-02  -2.0254949e-01   5.2013413e-01  -5.1186515e-01  -6.8299633e-01   3.7749373e-01  -3.0011591e-01   1.3574440e-02   2.6566341e-01  -5.8844260e-01   4.7998595e-01   1.6158074e-01   7.1743959e-01   6.8097089e-01   5.9409012e-01   2.2059325e-01  -8.6963787e-01   3.9011999e-01  -4.8776828e-01  -7.2954133e-01  -6.1473927e-01   3.2706878e-01  -2.9666259e-01   9.5399269e-01  -7.2756619e-01   6.0237099e-01  -8.8380277e-01   1.1639764e-01  -3.4681425e-01  -3.7884236e-01   1.6283488e-01  -6.3183833e-01  -3.4170497e-01   4.7708452e-01   4.0075887e-02  -5.7537703e-01   7.0576939e-01  -9.7564608e-01   3.1105099e-01  -3.9058017e-01  -9.9214014e-01  -6.2106189e-01  -9.8064308e-01  -7.8219337e-01   9.6343093e-01  -2.4586937e-01   6.6919366e-01  -5.7770741e-01   9.3856198e-02   3.3424573e-01   5.6852501e-01   7.5515219e-01  -8.9344745e-01   6.0304005e-01   2.6031933e-01  -3.3509080e-01   2.4829231e-02   8.8891738e-02   3.5638340e-01  -9.4382213e-01   9.7285894e-02  -8.7755336e-02   1.0043990e-01  -6.5349651e-01  -2.3535675e-02  -7.9075346e-01  -5.9526529e-01   1.4771542e-01   3.8127168e-01   5.1324475e-01  -4.9672872e-01  -9.6699083e-01  -3.7303423e-01  -3.0852460e-01   3.1881005e-01   9.7542445e-01  -8.5073648e-01   8.4364817e-01   2.5083538e-01   4.2323665e-01  -9.0988950e-01  -4.1536575e-02   8.4611685e-01   7.5500229e-01  -5.5316729e-01   5.9160632e-01   2.7850642e-01  -2.9011763e-01   2.7547714e-01  -2.8001833e-01   1.9595695e-02   8.0329870e-01   8.7521536e-01  -8.1208992e-01  -2.0408623e-01   2.7526973e-01  -3.1657488e-01   2.6857969e-01   6.7654311e-01  -5.7943098e-01   6.1792797e-01   8.5271783e-01  -2.6007842e-01   6.2569572e-01   6.0428443e-01  -4.6176201e-01  -2.5458096e-02   6.0161670e-01   5.8104399e-01   1.3691827e-01  -1.8425307e-02  -8.6014410e-03  -1.8905060e-01   8.6917567e-01  -8.5923409e-01   3.3324227e-01   8.4095992e-01   3.4037244e-01  -8.9890864e-01   9.7905129e-01   5.3709896e-01  -2.6498236e-01   2.9136323e-01  -5.7445752e-01  -4.6247676e-01  -7.2600214e-01   4.4865090e-01  -9.2592821e-01   3.3626530e-01   8.0166389e-01  -9.1298284e-01  -3.1179279e-01  -8.0867949e-01   8.7273235e-01  -3.9256072e-01   2.7240186e-01   6.4248125e-01   9.2179556e-01  -7.8990218e-01  -8.9375729e-03  -6.5018829e-01  -1.8844079e-01   9.3473582e-01   5.0915584e-01   8.1365073e-01  -4.5804541e-01  -8.0585436e-01  -8.2432964e-01   2.1349959e-01  -7.1905289e-01   3.3836110e-01   9.2985941e-01   3.1383688e-01  -8.3809314e-01  -2.1661942e-01  -6.9855747e-01   1.0172011e-01  -8.8610413e-01   5.0014951e-01  -5.0378539e-02   2.4074598e-01  -1.7418777e-01  -6.7860024e-01  -3.6474483e-01   4.8309473e-01  -9.3415463e-01   7.1313963e-01  -7.6126026e-02  -2.2503455e-01   4.6657574e-02   4.8836654e-01   7.9443432e-01  -1.9973480e-01  -9.9408476e-01  -4.3841694e-03  -7.0340334e-02  -1.9247581e-01   4.8124906e-01   9.7436066e-01   3.4671365e-01  -3.5391924e-01  -8.4320638e-01   9.7503020e-01  -5.3334208e-01  -9.8927078e-01   3.7141226e-01  -5.6612554e-01  -7.2623110e-02   2.0788253e-01   6.1607944e-01   6.7687854e-01  -8.3605385e-02   7.5618871e-01   5.9276552e-01   3.3849375e-01  -6.4179737e-01  -5.4828425e-01  -9.2349375e-01   1.5468400e-01   6.1477267e-02  -1.8847201e-01   1.0381416e-01  -6.5861788e-01  -8.5907507e-01   9.8093120e-01  -5.9362944e-01  -6.6090807e-01  -2.5041663e-01   5.3871808e-01  -6.6530917e-01   1.8515400e-01  -7.5392290e-01  -8.4699461e-01  -3.6981563e-02   6.6093950e-01  -2.0143374e-01  -6.2470122e-02  -8.6886993e-01   9.4151841e-02  -8.1036020e-01   8.6880652e-01   7.7175973e-01   4.0927085e-01   5.0282620e-01  -5.9439693e-01   5.5112726e-01  -7.1084516e-01   1.5177180e-01  -3.4567093e-01   9.8879583e-01  -9.9179963e-01   8.8432820e-01  -8.2500049e-01  -2.1267619e-02  -4.0925553e-01   1.3308408e-01   8.8557527e-01  -7.6335311e-01  -3.9243238e-01   1.2465277e-01   1.6926435e-01   6.7372887e-01  -3.9001740e-01  -8.4860260e-01   4.9520382e-01  -5.6502714e-01  -6.3651375e-01  -2.2998493e-03  -5.4321621e-02   8.6565675e-02  -2.1880689e-01   4.2312225e-01   9.1903111e-01  -9.6390201e-01  -3.2743814e-01  -1.6673920e-01  -6.7667245e-01  -9.1077320e-01  -8.9605452e-01   4.9186695e-01  -4.1819303e-02   5.6004933e-01  -4.2019644e-02   5.4139872e-01   7.1260102e-01   7.3070162e-01  -2.7217429e-01  -2.4586779e-01   4.3894433e-01   3.3961855e-01  -5.8236778e-01  -1.3159091e-01  -1.2809210e-01  -9.6046301e-01  -4.3199829e-01  -5.0344677e-02   4.1037897e-01   8.4771847e-01  -3.1468637e-01  -7.1677135e-01   6.6592983e-01   6.8477842e-01   6.7024109e-01  -6.9833375e-01  -1.7429752e-01   4.5768583e-02   4.5232362e-01   6.2273358e-01   3.8474525e-01  -4.8557574e-02  -2.1332731e-01   7.9431672e-01  -6.8248220e-01  -9.9265032e-01   7.0448393e-01   7.9661458e-01  -2.4601430e-01   2.4996141e-01   1.7276686e-01   5.2743934e-01  -6.0564190e-01   8.0922872e-02   6.1259952e-01   8.4379433e-01   3.5083832e-01   5.3765786e-01   2.6995227e-01   5.0219471e-01  -6.1189045e-01   7.5022370e-01   1.6342913e-02   8.9156269e-01   9.4321858e-01  -7.3783861e-01   6.7817095e-01   3.6131773e-01  -9.2442284e-01  -1.8702312e-01  -2.7199270e-01  -1.8075296e-01   8.3044414e-01  -7.2236764e-01  -6.4679359e-01  -1.1157439e-02   6.2145977e-01   2.0634520e-01   8.6476752e-01   7.5705440e-01   2.7249226e-02  -6.8730743e-01  -8.5214250e-01  -2.1635593e-01  -2.6858138e-01   1.1861832e-01   6.9273652e-01  -5.2446304e-01  -5.4591983e-01   6.1860346e-01  -2.6788817e-01  -1.5667779e-01  -1.9935578e-02  -6.7754015e-01  -5.5811770e-01   9.7988148e-01   1.4811876e-01  -9.7071775e-01   8.2643739e-01  -1.6333548e-01  -1.5095424e-01   4.1665964e-01   2.1079538e-01  -3.6769122e-01  -9.1572008e-01  -6.4348827e-01   8.5942658e-01  -3.3848834e-01   5.6078777e-01  -4.0062915e-01   3.0489121e-01   6.9237150e-01  -1.7194636e-01  -7.1627770e-01  -2.6615405e-01   2.4372713e-01  -6.0410722e-01  -2.7831524e-01  -6.4395110e-02  -9.5877345e-02   8.9692759e-01  -5.7490670e-01  -7.3600726e-01  -5.6603908e-03  -3.0861403e-02  -6.3965891e-01   4.2917084e-01  -6.3618104e-01  -3.3084790e-01  -8.1175067e-01  -2.2505434e-01   1.4797316e-01  -2.6186482e-01   8.8363853e-02   9.1174944e-01  -3.0188069e-01   6.6990023e-01  -2.6715666e-01   6.8646524e-01   1.7746238e-01  -5.9318975e-01   9.3548093e-01  -5.8919883e-01   9.0605518e-01  -2.1212786e-01   8.5264388e-01   9.5502442e-01  -1.5307089e-01   2.4077108e-03  -7.5234424e-01   4.7113067e-01  -7.2033128e-01  -5.2758835e-01   1.7545102e-01  -9.5010422e-01   9.2411335e-02  -8.3896498e-01   5.2590417e-01  -5.9715582e-01  -6.7057255e-01  -2.0757616e-01  -8.4635506e-01  -4.2368732e-01  -7.5560721e-02   3.0539530e-01   1.9145133e-01  -2.5329749e-01  -4.5134925e-01   1.9319561e-01   9.0024646e-01   5.9663492e-01  -3.1884389e-01   9.6949301e-01  -3.2381840e-01   6.5500897e-01   8.8435674e-01  -7.4306988e-01   2.6588189e-01  -8.2285512e-01  -2.0363372e-01   6.0796698e-01   7.1549801e-01  -3.4686485e-01  -2.7855677e-01  -6.7124994e-01  -7.5780289e-01  -1.1026215e-01   2.1362104e-01   9.8677990e-01   5.8383980e-01   2.6739667e-01  -8.3267306e-01  -1.3053009e-01  -8.4450246e-01  -5.3487122e-01   2.5565802e-01   3.4066170e-01  -8.8906978e-01  -5.0711977e-01   5.3607365e-01  -8.6432907e-01   7.8092021e-01   2.4794883e-01   1.5966641e-01  -8.2813156e-01  -1.1814862e-01  -2.3046317e-01   7.0479223e-01  -8.7902415e-01  -3.3132628e-01  -4.8077515e-01   1.2265342e-01  -8.9254540e-01  -5.2706834e-01   9.0143264e-01  -2.9323038e-01   9.3631411e-01   1.6857678e-02   9.1371588e-01  -9.1023480e-01  -7.3790211e-01   7.2848774e-01   8.3520182e-01  -9.3335483e-01   4.0725179e-01  -8.5937353e-01   4.5564791e-01  -5.0033065e-01  -6.8393468e-01  -5.7589610e-01  -3.0139857e-01  -6.1136528e-01   8.3808397e-01  -3.6157005e-01   8.5314761e-01   9.6259101e-01  -1.4744404e-01  -4.8181569e-02   9.6508380e-02   8.0978287e-01   6.0472719e-01   8.8400653e-01   7.2484601e-01   4.1979176e-01  -5.7542044e-01   2.0086491e-01   4.4520987e-01  -7.6177063e-01  -8.3219852e-01  -3.0283266e-01  -5.0226352e-01   2.3124614e-01  -5.8154428e-01  -1.5403603e-01   1.7355324e-01   9.9323468e-02  -3.8429121e-01  -1.9408423e-01  -4.2899216e-01  -1.5247177e-01  -3.9101277e-01   9.3302963e-01   1.5661887e-01   2.3947685e-01   8.7025508e-01   5.7928216e-01  -4.0147164e-01  -5.9846841e-01   1.8742293e-01   2.1074516e-01  -9.7538911e-01  -1.5670956e-01   2.4768822e-01   6.2782163e-01  -1.2877429e-01   7.8319828e-01   2.0087974e-01  -3.6689251e-01  -8.1619402e-01  -7.7350026e-01  -6.5756043e-01  -7.4214988e-01   7.1865877e-01   9.6012073e-01  -2.5008023e-01   2.7490301e-01   3.2275355e-01  -1.9178257e-01   2.5602408e-01  -4.6590799e-01   4.8531458e-01  -9.7885837e-01  -4.4175078e-01  -6.1454600e-03   6.4289146e-01  -2.1179395e-02   8.9770396e-01   4.7366175e-01  -8.1688032e-01  -6.6698177e-01  -2.5883269e-03  -8.8128101e-01   5.0473987e-02  -6.6002758e-01  -2.8507043e-01  -9.0597524e-01   5.0682731e-02  -7.4626386e-01   8.1346639e-01  -4.5947912e-01  -8.6805583e-01  -1.1186894e-01   5.6619698e-01   5.7109814e-01  -6.0020080e-01   4.2530455e-01  -4.7099704e-01   3.0464512e-01   4.9887504e-01   3.1391160e-01  -9.6190335e-01  -3.7072394e-01  -9.4517589e-01  -6.3152406e-01   9.5572584e-01  -8.2311251e-01   9.2847931e-01  -9.0264023e-01   1.9187759e-01  -9.7766911e-01   1.2492471e-01   8.1925734e-01  -7.2478349e-01   6.1188196e-01  -9.8053460e-01  -1.7522169e-01   2.4808985e-01   3.5892405e-02   9.4054143e-01   9.2905212e-01   8.1408325e-01  -6.2920541e-01  -2.3991516e-01  -9.8705878e-01   5.2223206e-01   2.8138796e-01   6.5613802e-01  -3.9703264e-01   4.6656983e-01  -3.1324232e-01   1.0090493e-01   1.8752043e-01   4.0990474e-01  -6.6486920e-01  -5.3921781e-02  -3.9413224e-01   5.5635578e-01   1.7239615e-01   1.1051796e-01   5.1271414e-02  -9.5451634e-01  -3.6834433e-01   6.5321562e-01  -7.0839998e-01   2.5439406e-01   8.7427436e-01   3.4655004e-01  -1.8213908e-01   2.4535563e-01  -3.3541021e-01   6.7500029e-01  -9.8554497e-01   1.0868023e-01  -7.7023284e-01  -7.1575105e-01  -8.3874117e-01  -6.7375431e-01   2.4371799e-01  -1.4468786e-01  -9.9661802e-01  -6.2809463e-01   4.3336138e-01  -2.7631601e-01  -4.9408798e-01   4.8532582e-01   4.0328911e-01  -2.7399270e-01  -7.8528788e-01  -4.0530886e-01   3.9971776e-01   1.7247235e-01  -2.6133611e-01  -4.4779698e-01  -3.3982248e-02  -7.6736976e-01   1.8637861e-01  -3.2648513e-02  -5.0488174e-01  -5.0326740e-01  -3.9566244e-01   5.9639218e-02  -5.9206184e-01   5.0866196e-01   6.3223296e-01  -7.4401349e-02   6.1864196e-01  -5.5692591e-01   7.0572330e-01   6.6777365e-01  -3.7434279e-01  -3.1300319e-01  -9.6909435e-01  -4.6743595e-01   6.6224321e-01   5.3147934e-01   8.3404005e-02  -5.5489722e-01   3.0719342e-01  -3.8629252e-01   9.4502431e-01   8.9256090e-01   2.7926793e-01  -3.6533606e-01   1.1020380e-01   1.2959262e-01  -9.7360532e-01  -4.8656563e-01   6.2755280e-01  -6.2839639e-01   5.9410829e-01   5.4773461e-01  -2.7549064e-01  -2.5638403e-01  -6.5727527e-01   8.3014082e-01   9.9620886e-01  -4.2674384e-01  -1.9830540e-01  -8.1364708e-01   5.4468561e-01  -6.7384699e-01  -1.8643819e-01   9.6122005e-01   5.2153955e-01   4.1660086e-01  -6.2133019e-01   8.2430890e-01  -3.2612679e-01  -7.3086379e-01   4.0359270e-01   3.5098326e-01  -6.3875070e-01   1.2416278e-01  -2.8058437e-01   6.6943507e-01  -6.4220239e-01   8.3042083e-01   7.2751856e-01  -6.2098803e-01   1.5985047e-01  -1.7179480e-01   3.4868023e-01   8.0552762e-01  -9.7134569e-01   4.1582208e-01  -3.4916860e-01   4.8177773e-01  -2.1626529e-02   7.8996023e-01   2.0783714e-01   6.2623752e-02  -8.5504185e-01   3.6189561e-02  -5.5986557e-01   5.5209831e-01   8.5006315e-01   1.9071542e-01  -1.6403134e-01  -5.3360938e-01  -2.7946935e-01   8.9643410e-01   9.0626961e-01   6.1578420e-01   8.9033917e-01  -6.9393137e-01  -3.6215906e-01  -3.8227307e-01   7.3156364e-01   2.0355536e-01   5.1218157e-01  -6.4255095e-01  -2.4043571e-01   4.9640332e-01  -4.2012283e-01   7.6470745e-01  -6.2695731e-01   5.7767790e-01  -6.0207943e-01  -6.7596817e-01   1.9348322e-01   9.8013461e-01   5.6115749e-01   9.4274658e-01  -9.6090452e-01   7.5506149e-01   7.1453992e-01   8.9185589e-01  -1.8483245e-01  -4.9789504e-01   4.4224188e-01   7.8031152e-02   6.9975173e-01   9.7789446e-01  -3.5327295e-01  -1.1465691e-01   3.2997847e-01   7.7554945e-01  -1.1898538e-01   9.8141200e-01  -8.1248017e-01   1.7459873e-01  -2.7208823e-01  -6.4864560e-01  -4.5033313e-01   9.8127811e-01  -7.1645934e-01  -7.5272435e-01  -7.7248439e-01  -1.4744410e-01  -9.3253712e-02  -6.9396980e-01   9.1474702e-01   8.5445919e-01  -5.0934482e-01  -8.1645565e-01  -7.0789532e-01  -7.9025202e-01   7.4240993e-01  -9.4743030e-01  -5.5583732e-01  -5.8905702e-01  -5.4220771e-01  -1.9268400e-01   7.5814104e-01  -7.8161305e-01   4.6238586e-01   6.5780299e-01  -3.2971974e-02  -3.0742469e-01  -9.8410986e-01   8.0121217e-01   3.3948343e-01   9.0037139e-01   5.4251226e-01  -3.1795570e-01  -1.4338114e-02  -4.3797655e-01   7.7356144e-01   1.0076916e-01  -6.4162781e-01   6.1404606e-01   5.1734698e-01   4.0109438e-01   8.8555531e-01   5.5466452e-01  -9.9901559e-01   1.5939023e-01  -1.6334391e-01  -2.9456235e-01   2.1093834e-01  -5.7899167e-01   4.3171675e-01  -7.4835431e-01   6.4215962e-01  -2.0584119e-01  -8.5950373e-01   8.5255599e-01   6.9114363e-02  -5.1662867e-01   8.0601645e-01  -2.2781807e-01   9.4969550e-01  -7.9030797e-01   5.0338031e-01  -7.0221239e-01   4.0770296e-01   4.2366771e-01   2.2884460e-01   3.5111156e-01   7.2385624e-01   3.7978657e-01   5.3485135e-01  -7.6598552e-01   3.5645517e-01   6.5954719e-01  -4.0945506e-02  -4.2459178e-01   6.3154357e-01  -8.3397331e-01  -3.1509511e-01   7.4543216e-01   3.9458169e-01   8.4900219e-01  -7.4392285e-01   7.0069885e-02   7.4174390e-01   8.5543494e-01  -8.9857093e-01  -2.4340601e-01   8.9849565e-01  -6.6352623e-01   4.3800108e-01   9.0355073e-01   2.2264667e-01   1.0291191e-01  -8.0136973e-01  -7.0068622e-01  -4.7342615e-01   2.8298729e-01  -9.3876285e-01  -3.4926264e-01  -9.3597637e-01   7.6106476e-01   8.8768468e-01   7.7005619e-01  -8.6172160e-01  -4.7312564e-01   2.7911495e-01  -4.1279372e-01  -9.8495569e-01  -7.1857973e-01   9.3499287e-01   3.8077358e-02  -4.5560540e-01   4.4479513e-01  -2.5883861e-01  -8.6977624e-01  -4.4410502e-01  -8.5212569e-01  -3.0453348e-02   9.9651959e-01   6.0789664e-01  -2.7489848e-01   2.0059510e-01  -8.4574538e-01   6.0520183e-01   1.5932631e-01  -9.7021263e-01  -1.1593835e-02   7.8369987e-01   6.8797329e-02  -3.4527865e-01   7.0908983e-01  -8.9490744e-01  -1.9118320e-01   3.1379859e-01   8.7658584e-01   8.6988293e-02   8.2345314e-01   7.7497498e-01  -6.5234056e-01  -3.5640658e-01  -1.2068634e-01  -8.7549251e-01  -4.6150085e-01  -6.8084146e-01  -5.0942047e-01   2.0833998e-01  -4.3346093e-01  -7.9802017e-01   1.9886719e-01  -2.8470902e-01  -7.1393530e-01   8.1349873e-01   4.5998430e-01  -9.4756624e-02   4.1669869e-01   1.2208471e-01   1.4098409e-01   6.0958957e-01  -9.6052521e-01   2.7093484e-01   4.0490331e-01   2.0905937e-01   7.2455708e-01  -2.5476091e-02  -2.5046798e-01   7.1567327e-01  -9.4479760e-04  -1.3303563e-03   6.7426991e-02   6.3106703e-01   8.0411960e-01   9.2857697e-01   4.9408805e-01   8.5428264e-01  -9.7333567e-01   5.7459057e-01   8.5346415e-01  -6.2380490e-03   3.7663013e-01   4.4244676e-01  -7.0368308e-01  -1.6796987e-01   2.3230387e-01   4.9430531e-01   6.3202339e-01  -9.3136146e-01   1.6149379e-01   1.7003461e-01   9.3879859e-01  -9.6552096e-01   5.9360713e-01   8.7131129e-01   8.9904926e-01   5.4740539e-01  -8.7626787e-01  -4.9353480e-01   6.4797498e-01   6.6402335e-01  -7.4802502e-01   2.7754386e-01   7.8060139e-01   2.4871179e-01   7.6787121e-01   2.4014084e-01  -3.9379218e-02  -4.4298622e-01   2.6015009e-01   7.2959988e-01   7.8742911e-01  -8.0529193e-01  -8.4354482e-01  -3.0090861e-01  -1.1742753e-01   7.7521364e-01   5.5860113e-01  -9.6201350e-01  -8.0945326e-01
  -8.9370328e-01  -5.2104794e-01   1.3019474e-01  -5.6937845e-01  -4.7571040e-01  -5.6634656e-01   7.2181031e-02   6.4668306e-01  -4.4915525e-02   7.5513698e-01   3.2353087e-01  -1.9871741e-01   8.2977546e-01   9.9929907e-01   5.5870219e-01  -1.6870115e-01  -7.4750738e-02  -4.8079288e-01  -1.1595604e-02   6.4379478e-01   4.4089607e-01   3.2704304e-03  -3.8486114e-01  -6.6441363e-01   7.9311860e-02  -8.1038735e-01  -4.4074968e-01  -6.9418973e-01  -1.9261275e-02   4.0179166e-01  -7.1970786e-01  -6.0067125e-01   2.3661237e-01  -1.8342842e-01  -1.6454462e-01   1.4923014e-02   2.8929141e-01   8.1780305e-01   8.7995518e-02   5.6159272e-01  -5.3100158e-01   4.4130400e-01  -4.2389112e-01  -6.3904732e-01  -5.0232211e-01  -3.1389213e-01   5.1866856e-01   8.5180415e-01   9.5324389e-01  -9.5126264e-01  -8.5172865e-01  -1.5084464e-01   2.4034501e-02  -3.9546224e-01  -1.1554186e-01   9.9943262e-01  -7.2318799e-01   7.7823872e-01  -7.7071031e-01   2.1446578e-01  -1.3992951e-01   6.9951097e-01  -2.4986623e-01  -5.1010469e-01  -7.4936637e-01  -9.6513708e-01  -7.7656986e-01  -8.6006943e-01  -1.8576085e-01   3.9514234e-01  -2.4401754e-01   4.7877569e-01   5.9829342e-01  -9.4878271e-01  -9.9451270e-01   7.4339281e-01   5.4720762e-01   3.5201590e-01  -8.4992957e-01  -9.0222822e-01  -7.3091502e-01  -6.4898409e-01  -8.8748567e-01   2.1485510e-01  -1.8001146e-01   3.9136346e-02   5.7973653e-01   9.8519330e-01   5.0945125e-01  -2.4642407e-01  -7.3756398e-01  -9.6642248e-01  -7.6354714e-01  -9.5891132e-01  -5.8762515e-01  -9.5476297e-01   3.5085120e-02   1.6861050e-01   7.0523180e-02   9.7952911e-02  -1.5859919e-01  -9.1878630e-01   1.4578854e-01  -3.1802311e-01   5.8966604e-01   6.7832352e-01   7.8017720e-01  -9.6053771e-01  -8.8873954e-01  -3.7266868e-01   8.7600794e-01  -5.0334448e-01  -2.9344514e-01  -7.0858413e-01  -2.5460858e-01  -4.1270292e-01  -5.9883654e-01  -3.4127586e-01   6.2761195e-01   1.0721857e-01   9.2682574e-01  -9.5054580e-01  -3.8903794e-01  -2.8658827e-01   3.5916681e-01  -9.6029507e-01   6.3638786e-01  -6.4881079e-01  -5.3035235e-01  -8.5281727e-01   4.1345509e-01  -2.9213854e-01  -9.1282360e-01   2.4993004e-01  -4.5240762e-01  -5.5734737e-01   3.3024268e-01  -9.6968105e-02   6.6050369e-01   7.2690805e-01  -6.7090437e-01   4.0496312e-01   4.5334417e-01  -8.8744332e-01   7.6989366e-01   2.4503713e-01   2.3123422e-01  -9.2481410e-01   7.2840338e-01  -3.9518878e-01  -2.1967711e-01   9.8998390e-01  -7.3500155e-01   4.8301457e-01  -3.1278932e-02   2.0853580e-01   4.5535090e-01   8.3220825e-01  -6.4627005e-01   6.1822398e-01  -7.7441255e-01   9.7973747e-01  -8.8932011e-01  -3.4102570e-01  -1.9155610e-01  -9.2041922e-01  -1.6687287e-01  -2.3779839e-01   8.1631870e-01  -6.4693763e-01   9.5473069e-01  -2.7820380e-01  -8.9113084e-01  -2.8791868e-01  -7.2076163e-01   9.0756820e-01   8.6797158e-01   5.9996537e-01  -8.5034035e-01  -2.7891213e-01  -3.0092517e-01  -2.5537680e-01   5.6466221e-01   3.2541570e-01  -1.9368939e-01   3.0349570e-01  -9.1674129e-02   5.8469108e-01  -2.7628736e-01  -2.0490781e-01   3.3222630e-01   8.5326037e-01   3.5427346e-01  -9.5973211e-01  -7.7287944e-01  -2.0493265e-01   4.3931993e-01  -7.0843491e-01   8.0455952e-01   4.4957090e-01   6.2356040e-01  -6.3429786e-01  -4.5423698e-01  -3.7939716e-01   3.5747299e-01  -7.8636606e-02  -7.7681839e-01  -5.5344199e-01  -1.8388603e-01   2.1028456e-01   3.0556838e-01   9.3509024e-01   2.9354016e-01   1.0962478e-01   7.3374268e-01  -4.2685237e-01   1.7038665e-01   7.0485399e-01   8.3269538e-01  -3.2539376e-01  -7.9578934e-01   6.9459954e-01   9.6752516e-01   7.4318951e-01  -8.1977179e-02  -5.3016642e-01   3.1529809e-01   1.3324293e-01  -8.1238646e-01  -3.1317339e-01   2.1184124e-01  -2.0592047e-01  -7.8485412e-01   7.0961449e-01  -9.3799395e-01  -3.6561430e-01   2.2725087e-01   3.8849506e-01  -6.2117314e-01   9.1933320e-01   3.0882912e-01  -6.5586264e-01  -8.2687385e-01   7.7605063e-01  -4.4173889e-02  -1.1810198e-01   7.0242438e-01  -3.3212565e-01  -7.8468788e-01   6.5908813e-01  -1.4325089e-01   7.7520428e-01  -1.7505109e-01   5.4101640e-01   5.6068988e-01   8.0647326e-01  -8.8453832e-01  -8.5912691e-01  -9.9077967e-01  -9.3935433e-01  -9.4091372e-01  -8.3360034e-01   8.6531214e-01   9.7248250e-01   9.0629205e-01   9.1151352e-02   9.8637324e-01  -1.8112285e-01   1.9830391e-03   5.2936851e-01  -1.4866698e-01   3.6114340e-01  -4.7983638e-01   6.3287276e-01   9.9460203e-01   3.0092448e-01  -2.7123966e-01   2.9942058e-01   2.8657710e-01   5.7752961e-01  -6.2295765e-01   8.5487248e-01  -9.7038011e-01   3.1533226e-01   2.2051467e-01   5.0290825e-01   2.0438005e-02  -8.0751525e-01   9.7275104e-01  -1.3972728e-01   8.6464844e-01   7.8675904e-01   8.0233833e-01   3.7807284e-01  -4.8607746e-01  -4.0885634e-01  -6.6576643e-01   6.8280515e-01  -9.1979325e-02   2.3771419e-01   8.7097708e-01  -9.3330414e-01  -1.3528782e-01  -9.1524757e-01   5.4300804e-01   2.0271788e-01   6.9015233e-01  -2.5088071e-01   8.2827158e-01   5.0067276e-01  -9.3096672e-01   5.5912094e-01  -4.2980701e-01   9.2712780e-01  -8.7937959e-01  -9.3744596e-01   7.2043626e-01  -1.3701013e-01   6.1224392e-01  -2.0892074e-01   8.3728397e-02  -2.3393098e-01  -6.3989710e-01  -5.6788941e-01   2.3397740e-01  -7.9236635e-01   8.9182965e-01   4.3591799e-01   2.5102593e-02  -6.3271262e-03  -8.4580574e-01  -7.6378193e-01  -3.3013055e-01  -2.3294106e-01   3.8919832e-01  -8.4541392e-02  -8.8038860e-01  -2.5189843e-01   7.1960912e-01   4.7608954e-01   8.3675062e-01  -6.8890091e-02  -4.7213889e-01   3.3691696e-02   6.6371139e-01  -6.6969952e-02  -1.0319315e-01  -6.9015501e-01  -3.1082103e-01   2.5977821e-01  -8.1974780e-01  -8.3833203e-01  -4.4026982e-01   3.1476331e-01   9.1309686e-01   9.8944285e-01  -4.1205916e-01  -4.6921413e-01  -1.9862923e-01   2.1009452e-01   5.6169885e-01   9.6175899e-01  -3.8117853e-01   1.6287418e-02   4.2912432e-01   9.9969108e-01  -2.5272371e-02   4.1202367e-01  -6.8718691e-01  -6.6307331e-01  -6.1701999e-01  -2.7796423e-01  -9.7738120e-01   6.9330763e-01   5.2017948e-01  -5.0304274e-01   2.7444723e-01   6.5918272e-01   8.6531405e-01   4.7232808e-01  -3.6803878e-01   9.8158640e-01  -9.6048574e-01  -6.7787465e-01  -7.6837801e-01  -8.6312662e-01  -3.4342546e-01  -9.0314671e-01   6.7202448e-01   9.6674497e-01   5.8348199e-01  -5.4142217e-02  -6.0681365e-01  -1.3941162e-01  -1.4462239e-01   3.4258120e-01   8.9983711e-01   5.0655625e-01  -3.0861155e-01   9.4288909e-01  -8.1884601e-01   4.7473709e-01   6.6633891e-01   7.2023951e-01  -1.7779169e-01  -9.8564821e-01   2.9476840e-01  -6.5087177e-01  -2.7395797e-01   6.5053845e-01   7.2649086e-01  -4.1584501e-01  -1.6141607e-01  -3.8435895e-01   2.9081915e-02   8.1839898e-01   7.7938137e-01  -1.2210056e-01  -1.0379368e-01  -2.5967599e-01   1.1777066e-01  -2.2869882e-01  -1.8805528e-01  -2.5941216e-01  -9.0745005e-01   8.3743555e-02  -2.4335804e-01   3.8035826e-02   7.7357929e-01  -9.6802335e-01   8.7535314e-01   5.2976100e-01  -7.4811536e-01   9.9715011e-01   6.4316979e-01   3.1139164e-02   6.8013820e-01  -3.1424805e-01   3.9894507e-01  -9.2598769e-01  -4.1135165e-01  -1.0143996e-01   2.0103254e-01   9.9726874e-01  -2.1507091e-01  -6.8623744e-01  -9.2364514e-01  -2.3101348e-01  -1.1572597e-03   4.2081960e-01   5.9451525e-01   6.1417000e-01  -7.5005063e-01  -8.5739997e-02   9.6305761e-01  -3.0490544e-01  -2.6742709e-01   9.0098533e-01  -1.2598755e-01  -7.4603362e-01  -2.9076399e-01   2.8530154e-01  -2.3234356e-01   4.2046094e-02  -1.6241790e-01  -1.4978144e-01  -3.4609504e-01   9.8862837e-01   1.3757779e-01  -3.4507150e-01   8.4989843e-01  -8.1302623e-01   8.7386009e-02   7.6282017e-01   1.6980056e-02  -2.1825364e-01  -7.0256751e-02  -1.8587514e-01  -3.9631511e-01  -7.6340386e-01  -1.4030944e-01  -8.9259032e-01  -8.3739306e-01  -9.7034654e-01   6.2028032e-01  -7.2851171e-01   8.1377974e-01   9.7729315e-01   5.2519230e-01   2.5538466e-01   4.7369129e-01  -4.7884506e-01   1.1107825e-01  -8.5202570e-01   8.0531914e-01   2.0986220e-01   3.0167457e-01   9.3158066e-01   7.1857367e-01  -1.4645988e-01  -6.2732218e-01   5.7071558e-01  -6.0448752e-01  -5.5890989e-02  -4.3987389e-01  -5.1597782e-01  -5.4955626e-01  -5.9679680e-01   9.4237554e-01   3.3728268e-01   4.6852471e-01  -4.2872524e-01   1.0914306e-01   9.2845077e-02   3.3398665e-01  -8.0773254e-01   6.7045483e-01  -9.8824044e-01   8.5244480e-01   9.4017253e-01   2.9950739e-01  -5.0798611e-01  -5.4232143e-01   1.3547509e-01  -5.3695122e-01  -2.6413684e-01   9.4854528e-01  -6.2916407e-01   7.1401059e-01  -8.1743738e-01   5.6569709e-01   7.1802205e-01   6.1301980e-02  -9.0347239e-01  -4.5474733e-01  -9.5524087e-01   2.6083717e-01  -7.4213840e-01  -8.5654587e-02   4.8328016e-01  -6.6932011e-01  -6.2911431e-01   7.8721802e-01  -4.8127981e-01   2.6054964e-01   3.1797448e-01  -9.8445260e-01  -4.7533594e-02  -3.5968091e-01   7.1697614e-01   7.1199071e-01  -4.2007557e-02  -4.0124225e-01   1.7018219e-02   3.5774533e-01   6.4078023e-01   3.6194103e-01  -3.8560729e-01   3.5658298e-01   4.7419066e-01   6.8424286e-01  -2.3339503e-01   3.8259889e-01   9.5091192e-01   9.5155764e-01   7.7438422e-01  -6.3383510e-01  -9.5811844e-01  -3.8410463e-01   3.3424973e-01   1.1765399e-01  -5.5151361e-01   4.6023954e-01   2.5595695e-01   5.3969601e-01   5.9465530e-02   3.4125035e-01  -5.4894502e-01   5.6976358e-01  -7.4974381e-02   4.0747112e-01   3.6202235e-01   8.8893347e-01   8.1918191e-01  -2.7676661e-01  -5.4528585e-01   2.1180363e-01   4.9242396e-01  -9.8473499e-01   7.0519131e-01  -3.0702568e-01   6.0657514e-01  -7.9128043e-01   5.3573879e-01  -7.9846938e-02  -9.8985611e-01  -5.7540452e-01  -1.1809493e-01   2.0901888e-01  -8.1670469e-01  -9.6755170e-02  -4.5720144e-01   6.8574113e-01   4.9016166e-01   2.3241998e-01   2.7778524e-01  -6.8553858e-01   7.1303636e-01  -9.3260001e-01  -3.8392565e-01  -8.4349077e-01  -7.1132627e-01   5.6638838e-01  -5.5615054e-01   8.2839851e-01  -7.2284608e-01  -6.0322915e-01   7.9124211e-01  -7.8247876e-01  -4.8306632e-01  -3.1623689e-01  -5.2931415e-01   6.5374876e-01   2.7201782e-01  -2.2213573e-02  -8.6574784e-01  -2.5930594e-01  -3.6438649e-03   3.9638807e-01  -8.4384668e-01   2.5228563e-01  -3.3455369e-01   8.7024595e-01  -2.8579416e-01   4.8923734e-01  -3.0269998e-01   3.0333526e-03  -7.0200822e-01   7.0800733e-01  -8.1734017e-01   5.8362898e-01   6.7155817e-01   5.4147674e-01   4.4830429e-01  -2.3134012e-01  -6.3674011e-01   7.2553748e-01  -7.9659233e-02  -9.4254108e-01   9.6923815e-01   8.9716431e-01   3.0402837e-02  -3.0818546e-01  -4.8265957e-01   5.6044612e-01   6.2657506e-01  -1.5738359e-01   8.1155568e-01   3.3791515e-01   4.8997165e-01  -1.1202177e-01   5.3241982e-02  -7.5530410e-02  -1.5348428e-02  -6.4008852e-01  -6.5776869e-01   9.1269063e-01  -5.9358617e-01  -7.5620843e-01  -6.5591735e-01  -4.4238392e-03   8.5086682e-01   2.7879359e-01  -1.9628729e-01   1.9448570e-01   6.5781351e-01   2.0183294e-01   4.8827123e-01  -6.9380213e-01  -6.1947788e-01  -4.1011181e-01  -6.0645037e-01   7.5724634e-02   6.9259115e-01   6.2765859e-01  -9.4103727e-01   9.1386762e-01   8.1827110e-01   4.0113372e-01   5.9402471e-01  -5.8393922e-01  -5.5345665e-01   2.1230552e-01  -2.6576159e-01  -9.7701902e-01  -2.1971963e-01   5.6029820e-01  -9.0799829e-01  -6.7008874e-02  -8.3147431e-01   8.8614230e-01  -7.1468702e-02  -4.6141691e-01   3.3668713e-01   5.1445350e-02   1.3018910e-01  -4.8107734e-01   5.7664753e-02  -3.0200776e-01   4.4975741e-01   4.9331647e-01  -6.7010054e-01  -8.7147424e-01   3.4524568e-01   5.6720566e-01  -3.6641757e-01  -4.4290405e-01   7.8607942e-02   7.4122320e-01   7.0427867e-01   5.8390423e-02  -3.0753354e-01  -1.8712514e-01  -2.7125776e-02   5.5850075e-01   5.4969187e-01   6.9647370e-01  -8.4143883e-02   9.9593922e-02   3.9193151e-01   3.4799982e-01  -5.1961535e-01  -2.3147296e-01  -9.8730838e-01   8.7937146e-01   9.0938498e-01   6.4302638e-01  -6.4320825e-01   5.8061399e-01   9.8809045e-01  -9.7482832e-01   5.7554332e-01  -7.4540970e-01  -8.0395205e-01  -1.9831078e-01   5.8878507e-01  -4.8618598e-01   5.9772511e-01   6.5505854e-01   8.1401002e-02  -8.9492612e-01   6.3558427e-01  -2.2748870e-01  -8.6034500e-01   5.8612754e-01  -9.7769683e-01  -6.4997458e-01  -9.4170685e-01   2.1163500e-01  -8.7448949e-01  -2.5755347e-01  -7.6827120e-01  -1.0417635e-01   4.5566301e-01   9.8985328e-01  -4.3920244e-02  -1.1799733e-01  -1.4785424e-01  -9.4053036e-01  -5.2122699e-01  -8.2446404e-01   5.1727818e-01   8.0038423e-01   7.3914906e-01   4.3619683e-02   3.3322673e-01   4.2251198e-01  -6.5754111e-01   6.3803071e-01  -3.1501882e-01   7.4214953e-01  -5.2963688e-01  -8.4384655e-01  -2.1723962e-01  -9.1178018e-01   3.5655760e-01  -4.7951357e-01  -3.6725139e-01   8.6533937e-01  -5.8340821e-01  -5.4370347e-01  -1.8136596e-01  -3.4873209e-01   6.1688735e-01  -7.2191669e-01  -9.0604989e-01  -6.4851220e-01  -6.4089091e-01  -6.5014464e-01   9.3005325e-01  -5.8332381e-02  -2.5990580e-01  -6.0934849e-01  -3.8900434e-02   6.3366139e-01  -7.2358375e-01   4.7263173e-01   5.7163670e-01  -1.7088695e-01   9.3542676e-01  -4.2394223e-01   2.3111224e-02   1.0538040e-01   9.5121392e-02   6.4061860e-01   8.9419501e-01   7.0180744e-01   2.2975327e-01   5.2108611e-01  -8.7973105e-02  -3.5145236e-01   4.2340639e-01  -4.1993649e-01   1.6533243e-02   3.7515379e-03   9.7342271e-01  -5.5600586e-01   1.4827503e-01  -9.1238203e-01  -3.2043001e-01  -5.4072906e-02  -2.3581244e-01   5.8006394e-01   5.8407204e-01  -8.7846288e-02   1.6602083e-01   6.6261375e-01  -9.2258547e-01   7.4861650e-01  -8.4897969e-02  -3.6854476e-01   4.4547183e-01  -7.5815151e-02  -5.5383744e-01  -2.3730919e-01  -2.0336124e-01  -1.3037942e-01  -9.2591191e-01  -3.8719449e-01   6.9033154e-01   4.9997657e-01   9.9815813e-01   9.9632085e-01   8.2454674e-01  -3.8312301e-01   8.1984097e-02  -5.3920359e-01  -8.5618159e-01  -4.9004647e-01  -1.7330874e-01   8.1041650e-01  -6.2563673e-01   9.3721861e-01  -2.5470561e-01  -2.3289194e-01  -6.5357679e-01  -3.2350334e-01   6.1714456e-01   2.4895559e-01  -6.6814532e-01  -5.8435063e-01   3.1928763e-01   9.4372917e-01   6.8278928e-01  -7.1137843e-01   8.2116724e-01   5.2199941e-01   5.4871694e-01  -3.3169307e-01  -4.1702698e-01  -3.1548448e-01  -7.3791007e-01  -4.4022142e-01  -3.8726613e-01  -2.9596584e-02   6.8733453e-01  -7.7019279e-01  -8.1245124e-01  -9.6661560e-01   2.0202960e-01   7.5927484e-01   2.6921436e-01   8.2531451e-03   8.2070602e-01   3.9140947e-01  -3.7183211e-01  -8.4024921e-01  -2.2212969e-01   1.4726199e-01  -1.3649928e-01  -2.0342659e-01  -6.4296085e-01   9.9575063e-01   5.5748522e-01  -9.8064543e-01  -3.4733405e-01   7.2219499e-01  -7.3841948e-01   1.2792348e-01   2.1491934e-01   5.6041862e-01   9.1826653e-01   7.9713494e-01  -7.2374817e-01  -3.2892290e-01   3.6078286e-01   4.7841494e-01   3.5516726e-01   8.1641194e-01   9.4222209e-01  -6.0492346e-01   9.9572053e-01   5.3629266e-01   3.5925509e-02   6.3185998e-01  -6.0663183e-01  -4.9856414e-01   9.1887916e-01   9.4894080e-01  -4.7230228e-01  -6.9428329e-01  -3.7064781e-01   6.2272996e-01  -4.9007923e-01  -7.1364432e-01  -5.2821963e-01  -4.3362124e-02  -3.6206861e-01  -8.3682611e-01   1.0771014e-01  -4.7313213e-01  -2.6893312e-01   8.3705357e-01  -7.9957604e-01   6.5554163e-01   7.8197473e-01  -1.5037770e-01  -9.3808330e-01   6.7672388e-01  -5.9179416e-01   3.5941589e-01   7.3982520e-01   9.6466353e-01  -3.5414300e-01  -9.4970554e-01  -4.5797187e-01   5.7611640e-01  -9.3875667e-01   9.0349856e-01  -9.5988075e-01   1.8303164e-01   5.6569405e-03  -8.4043406e-01   3.4752612e-01  -1.1686583e-01   8.2636358e-01  -8.1050946e-01  -9.2789936e-01  -8.2866699e-01   5.7705678e-01   1.8307991e-01  -9.0198389e-01  -2.8989164e-01   9.9001013e-03   3.3662300e-01  -5.6361440e-01  -4.0614039e-01   5.2744552e-01   2.9535107e-01  -3.0567517e-01  -2.9181453e-01   3.7242441e-01   6.6337488e-01   4.4563682e-01  -6.6702877e-02   9.2648868e-01  -1.0744801e-01   4.7237130e-01   6.2909238e-01   6.5029302e-01  -1.9158284e-01  -7.3175658e-01   4.8582366e-01   8.5765135e-02  -6.0639456e-01   8.8179064e-02  -1.1157698e-01  -7.9298380e-01   9.7099383e-01   8.8990487e-01
