   8.3281481e-01  -2.1033498e-01  -3.4344313e-01  -6.2513560e-01  -8.7960491e-01   4.0182253e-01  -9.4925737e-01   6.3220961e-01  -6.1313681e-02   4.8898421e-01  -9.8537894e-01  -2.4958480e-01  -7.4539955e-01   7.9659602e-01   6.7716215e-01  -4.5855251e-01  -7.4390037e-02  -7.8706375e-01  -8.9133529e-01  -1.7813993e-01   6.3182325e-01  -8.6857589e-01  -2.5322271e-01   4.8961488e-01  -5.7766054e-01   5.8121979e-01  -9.5986058e-01  -9.9090552e-01   2.5169223e-01   7.5462622e-01   3.2389071e-01  -4.3257598e-01  -4.6427338e-01  -8.2922621e-01   8.2867314e-01   7.8637722e-01   8.6975361e-01  -3.5023740e-01   4.6431319e-01   2.1570859e-01   6.2637621e-01   2.8863317e-01   4.8950511e-01   7.8755976e-01  -1.7398370e-01   1.7542796e-01  -5.5164299e-01   4.4832596e-01   3.2730033e-01   4.5815028e-01   7.3710167e-01   4.1390785e-01   6.3760439e-01   6.0907652e-01   7.6657157e-01   1.2507999e-01  -1.9373844e-01  -3.9202319e-02  -5.9900605e-01   9.2735267e-02   5.2782260e-01  -4.8013057e-01   6.8602833e-01   8.6478142e-01  -2.6321234e-01  -3.0082935e-03   1.1633990e-01  -7.2355620e-01  -4.1981232e-01  -7.2365085e-01   1.8402821e-01   4.2840977e-01  -3.9056769e-02  -2.4050453e-01   7.4464702e-01  -4.5686874e-01  -8.1129747e-01   3.8094734e-03  -6.0066048e-01   6.5005142e-01   7.2661746e-01   2.3371057e-01   4.9456697e-01  -7.1453829e-01  -6.0045141e-01   6.8862921e-01   6.0216288e-02   1.1102587e-01   3.0308931e-01   3.8773037e-01  -9.6027439e-01   2.8324474e-01  -7.6637354e-01  -1.9565047e-01   6.0368795e-01  -4.1948305e-01  -7.7692912e-01  -8.3293317e-01  -2.3026462e-01  -4.5428241e-01   1.9025748e-01   5.9435385e-02   9.9377526e-01   4.8833697e-02  -2.4893425e-01   8.7507139e-02   4.3816410e-01   6.0002088e-01  -4.2390386e-01  -2.8637982e-01   2.6124727e-01  -3.0914851e-01  -2.9399538e-03  -2.1719941e-01   6.9682693e-01   8.3513574e-01   3.5552495e-01  -9.8851210e-02  -6.2269672e-01   1.7374494e-01  -6.6663600e-01  -2.7296483e-01   1.3892751e-01   3.3460108e-01  -9.2759686e-01   4.5146775e-01  -6.2690590e-01   2.6559832e-02   5.4394988e-01   6.3826479e-01   6.6083799e-01  -4.7826782e-02  -1.1214907e-01   5.8091785e-01   2.4966412e-01   7.6112038e-01  -5.9039592e-01  -1.1593885e-02   5.2876839e-01   1.8428490e-01   7.7466402e-01  -8.8522553e-01   1.0322833e-01  -4.8608795e-01  -8.5754506e-01  -4.0610463e-01  -9.9452654e-01   4.6764620e-01  -9.0438907e-01  -1.2301301e-01  -1.4409062e-02   9.6993293e-01  -2.2462169e-01  -9.6604967e-01  -1.4470637e-01   7.7950523e-01  -6.8798564e-01   5.2959677e-01   9.8375756e-01   5.1795794e-01  -3.3287924e-01   6.6976332e-01  -3.1273817e-01   1.5115102e-01  -5.7787059e-01  -5.7229126e-01   2.1147721e-01  -3.8311095e-02  -8.1647373e-02  -7.5368411e-01  -6.2372022e-01   5.5947788e-01  -6.8656882e-01   5.1677065e-01   8.3261317e-01  -1.8401570e-01   4.8313407e-01  -8.5266206e-01   1.1572273e-01  -2.1296290e-01   6.0641529e-01  -8.9822501e-01  -3.8534283e-01  -6.7612442e-01   1.7999752e-01  -6.2838710e-01  -9.1828448e-01  -8.1647132e-01   4.3545137e-01   5.1906008e-01   2.4047499e-01  -8.7013857e-01   3.4159268e-01   6.2006414e-01   3.5861299e-02  -4.4169079e-01   5.8088115e-02   5.0495840e-01  -4.9391057e-01   3.8746868e-01  -6.0317438e-01  -8.2145388e-01   2.7084942e-01   7.0638895e-01   1.1791818e-01   6.8376689e-01   4.9479248e-02   3.3150964e-01  -7.1245708e-01  -6.7336988e-02   1.3111066e-01   8.2364970e-01  -8.2390844e-01  -8.0905394e-01   2.7200013e-01   2.5003012e-01  -7.5479886e-01  -9.0026671e-02  -1.1446029e-01  -7.8829273e-01   2.8976640e-01   7.6630824e-01  -1.9717401e-01   7.4911783e-01   3.5700587e-01   5.8950755e-01   1.3392290e-01   7.8703694e-01  -3.0787755e-01  -6.9357645e-01  -6.2025891e-01  -9.3015757e-01  -8.7815855e-01   8.9424563e-02  -9.3487489e-01   4.9489182e-02   1.7892541e-01   7.5464284e-01  -3.9222254e-01   6.0951161e-01   4.2360151e-01   9.3437387e-01   6.3936156e-01  -9.3576943e-01   7.6189320e-01   6.1304928e-01  -7.6851542e-01   6.7029733e-01  -3.0922612e-01  -5.4383096e-01  -4.2409137e-01   7.9185342e-01  -7.6014783e-01  -2.6069596e-01  -6.8316884e-01  -4.6968604e-01  -6.9644167e-01  -3.3067271e-01   6.1692535e-01   3.9028704e-01   9.7810402e-02   4.3348199e-02  -8.2384836e-02  -3.1974903e-01   9.5909469e-01  -3.7134185e-01  -8.0063835e-01   4.4154950e-01  -1.6775242e-01   2.3398420e-01  -6.2439594e-01  -3.9255280e-01   2.6193305e-02   1.9040796e-01   6.0246563e-02   5.6094289e-01  -7.7821265e-02   6.8935296e-01   9.0949545e-01   1.0697931e-01  -1.2603277e-01  -9.5289775e-01   1.1536450e-01   7.1054151e-01   4.8758867e-01   1.0085273e-01  -7.5134647e-01   5.8018120e-02  -4.2607019e-01   8.0482374e-01   8.8440569e-02   4.7041971e-01   3.3231880e-01  -6.4204032e-01  -9.7208295e-01  -5.6233954e-01  -5.4768173e-01   4.4512467e-01  -5.0952677e-02   6.0962298e-01   7.6419849e-01   3.1752055e-01   8.0542386e-01  -2.8872714e-01  -8.8643799e-01   7.4463836e-01  -9.5325168e-01  -9.3296103e-01  -5.1744646e-01  -3.5728900e-01  -2.8844619e-01  -9.2489390e-01  -2.4334841e-01   3.2357471e-01  -4.1242427e-01   4.7999540e-01  -4.9013443e-01   4.9435961e-01   9.6214823e-01  -8.1512116e-01  -4.9970766e-01   3.7763096e-01   8.2165371e-01  -4.7737920e-01  -6.9639487e-02   7.4105328e-01   1.2477517e-01  -9.8326106e-01  -6.8146282e-01  -8.9938774e-01  -5.9876732e-01  -2.1997950e-02  -4.2767237e-01   9.2725946e-01   4.3056084e-01   6.1374872e-01   7.7222506e-01  -9.2016202e-01  -8.2413420e-01   8.4851928e-01  -8.8263771e-01   7.6256884e-01  -6.4868758e-01  -9.9719376e-01  -4.3143039e-01   5.9262984e-01  -6.4448497e-01   4.5794263e-01   7.5909295e-01   8.1257487e-03  -3.7649638e-01   9.4886656e-01  -3.1418220e-01  -9.6345649e-01  -6.7347226e-01  -6.1715816e-01  -5.7648553e-02  -1.1150285e-01  -4.7193791e-01   1.9926668e-01  -9.1957895e-01   4.2953327e-01   2.4659458e-01   3.1295420e-01   2.8281026e-01   6.9443001e-01  -5.5635922e-01   1.6148803e-01   2.5079227e-01  -6.6469506e-01  -6.4586345e-01   4.1068261e-01  -5.3023128e-01   8.5577838e-01  -4.0314745e-01  -7.6702565e-01   1.3334169e-01  -3.3262712e-01   3.8374688e-01  -3.6342472e-02  -9.6369203e-01  -8.0777427e-01   1.3814624e-02  -8.6337789e-01  -9.7368937e-01   2.3944322e-01   1.6780511e-01  -4.3447740e-01   2.0704675e-01   3.8885858e-01  -2.3784344e-01   3.7139652e-02   2.0263145e-01   8.3968600e-01  -1.3616139e-03   3.8124347e-01  -5.2166845e-01   4.0943310e-01  -8.0847969e-01  -8.5371727e-01  -9.7158109e-02  -3.2869982e-01   2.1621498e-01  -1.7591053e-01  -7.5802427e-01  -3.1594686e-02   9.9959370e-01  -2.9343376e-01   3.4373302e-01   5.4854779e-01  -1.5294624e-01   4.3703668e-01   7.4993615e-01  -6.3351763e-01  -6.8832400e-01  -8.5380892e-01   9.8148580e-01   2.8952242e-01  -4.7804898e-01   5.6514909e-02   2.7757841e-01  -3.8517760e-01   6.1014989e-02   6.6038812e-01  -4.9633043e-01  -4.4248168e-01  -6.7224142e-02  -8.0039259e-01   1.9937865e-01  -7.5767467e-01  -2.0840184e-01   9.9261680e-01  -4.0069297e-01   8.2357296e-01   2.1114745e-02  -1.9257984e-01  -9.2946647e-01  -7.0261704e-01  -1.6078576e-01  -1.6251861e-01  -4.5615840e-01   5.6307922e-01   3.8945269e-01  -2.4582933e-01  -3.2468119e-01   7.8613035e-01  -6.0843945e-01   8.8521302e-02   3.6588962e-01  -5.5038226e-01   4.6876131e-01  -9.8569642e-02  -7.6388540e-01   8.8812874e-01   7.5546570e-01  -5.4187379e-01   5.2364981e-01  -2.1764860e-01  -7.7152168e-01  -6.6415999e-01   8.8731706e-01   6.3906293e-01   3.3527674e-01   9.7353829e-01   8.8826712e-01  -6.0454641e-01  -6.1652703e-01   2.5388472e-01   7.7839539e-01  -8.4092468e-01  -5.8595540e-01   8.2922279e-01   1.6712037e-01  -3.6979265e-01  -8.9178531e-01  -3.8428938e-01  -5.7040809e-01   5.1196905e-01  -5.1974433e-01   3.8083802e-01   7.1896471e-01  -6.7449720e-02  -2.8001217e-01   4.7576838e-02   1.0613018e-02  -3.5500663e-02  -3.8161739e-02   2.9135444e-01   3.0461821e-01  -7.3088944e-01  -8.2823851e-01   8.1494492e-01   4.6781482e-01   3.9474054e-01   4.3193737e-03   8.8219280e-01   9.4985162e-01   8.0206288e-01  -9.0060877e-01  -7.7687385e-01  -3.8473025e-01   3.9992330e-01   8.2731623e-01  -1.4876721e-01  -6.9697021e-01   9.7019828e-01   8.3604426e-01  -9.1054437e-01  -6.8559669e-01  -9.5569586e-01  -6.8410297e-01   6.2475794e-01   4.0421317e-01   7.5217030e-01   4.2453472e-01   5.1673217e-01  -4.6722338e-02  -9.1794399e-01  -3.6529301e-01  -4.8452797e-01   1.7339816e-01   1.3048840e-01  -1.3131764e-01  -6.8665034e-01  -7.0328085e-01  -6.6564573e-01  -8.4541375e-01  -5.1721495e-01  -4.4594042e-01  -6.3386727e-01   4.0764672e-01   8.4979969e-01  -2.3737716e-02  -4.2041122e-01  -9.9299544e-01  -3.4216187e-01  -2.4286260e-01  -3.1960803e-01  -3.1561938e-01   2.7436907e-02  -6.7159455e-01  -4.7671995e-01  -8.8845870e-01   2.6756423e-01   9.6061433e-01  -8.1256069e-01   1.8265910e-02   1.1688272e-02  -4.8474743e-01   7.7871598e-01   5.1372923e-01  -7.2789216e-01  -9.4399906e-01   5.8282822e-01   8.2173303e-01  -4.1925462e-01  -1.6556288e-02  -1.4265096e-01   1.7467079e-01  -3.4343471e-01  -9.5072085e-01   6.6662223e-01   1.2297801e-03  -5.3194365e-02  -5.3274808e-01  -8.1449591e-01   5.4514990e-01  -3.0865520e-01   1.9321020e-01   6.3791912e-01   1.0895928e-01  -5.9989703e-01  -2.5407567e-01   4.9372820e-03  -9.5509620e-01   7.0865407e-01  -1.0313050e-01   5.2132982e-01   2.8961288e-01  -5.2813247e-01  -9.7742644e-01   3.7229146e-01  -5.0811482e-01  -9.1716163e-01  -5.2711532e-01  -8.0258907e-01   1.4345713e-01  -3.8697325e-01   2.3992955e-01   4.0689354e-01  -1.7507214e-02  -2.7688093e-01   2.5950819e-01   7.3058473e-01  -3.1182333e-01   8.6276880e-01   3.1442588e-01   4.9057949e-01  -7.4259249e-01  -7.2236605e-01  -3.9663106e-01   9.6937882e-01  -7.5703562e-01   5.2859186e-01   7.8039208e-01  -1.3493700e-01  -1.9224799e-01   1.1171215e-01  -8.2837080e-01  -7.0948967e-01  -3.8307096e-01  -3.4776152e-01   3.0630205e-01  -2.5810097e-02   2.2427406e-01   9.1860045e-01  -7.9058494e-01  -9.4784368e-01   5.8881272e-01   4.9790092e-01  -9.8692005e-01   2.7060906e-01   5.7639737e-01   5.5975495e-03  -9.0126849e-01   3.4166057e-01   9.8000944e-01   5.2652468e-01   3.5585706e-02   4.5107749e-01  -2.0559863e-01  -1.9655337e-02   6.3777069e-01   4.6784774e-01  -2.6740640e-01  -9.4558679e-01  -5.9947489e-01   4.2749025e-01   3.8092956e-01  -7.6962125e-01  -4.2761148e-01  -7.0684186e-01   9.0530453e-01   4.7771407e-01  -5.6590095e-01   4.4069916e-01   2.6519684e-01  -3.8149528e-01   2.2553817e-01  -4.8300445e-01  -8.2432634e-01   3.2520706e-02  -7.7825095e-01   8.3397184e-01   2.3640673e-01  -7.0602159e-01  -9.7177308e-01   2.7640582e-01   4.7191267e-01  -6.8209536e-01   7.4847286e-01  -9.9343899e-01  -5.0250466e-01   2.8584987e-01  -8.2921004e-01  -3.8536571e-01   1.3116339e-01   9.3921569e-03   5.7117412e-01  -2.7576764e-01  -1.5277132e-01   4.4718332e-01  -3.7181275e-01  -2.5019106e-01  -6.5932636e-01   3.4139663e-01  -7.5137945e-01   7.9851637e-01  -7.6644428e-01   5.2535633e-01  -4.6492713e-01   5.3176852e-01  -1.1039607e-01   1.5966756e-01   7.0110202e-01   9.0089816e-01  -8.4300722e-01  -2.5448343e-01  -5.4189827e-01  -3.7828628e-01   4.2638593e-01  -2.3391910e-01  -1.7756649e-01  -5.0731175e-01   4.0757141e-01   5.4438295e-02  -1.6675195e-01  -5.0286852e-01   3.4621755e-01  -9.1321696e-01  -7.1251832e-01   3.8751487e-01  -2.5476798e-01   7.3885863e-01   4.3664901e-01   2.2747417e-01  -5.0006655e-01   9.3572680e-01  -8.7915935e-01  -1.8049769e-01   2.4588602e-02  -1.2770506e-01  -7.5893397e-01   9.7940411e-01   9.2611327e-01   7.4764194e-01  -4.3223452e-01   7.7923597e-01  -4.7614559e-01   7.0842085e-01  -5.5720240e-01   2.0490804e-01   8.6902804e-01  -4.6264627e-01  -9.4286179e-02  -6.8960650e-01   4.1621282e-02   2.9978357e-01   5.0903692e-01  -3.6285929e-01   6.4470862e-01   5.1313196e-01  -8.8290224e-01   4.7491568e-01  -4.1205909e-01  -4.5799657e-02   9.4489823e-01   5.9441797e-01   9.4353549e-01  -2.7653943e-01  -7.6526848e-02  -8.5074457e-01  -3.9152402e-01   7.9839603e-02  -6.9628303e-01  -2.9235101e-01  -4.8185925e-01   4.0207781e-01  -5.7746820e-01   1.0272268e-01  -7.1673919e-01  -9.1745734e-01  -9.4457876e-01  -5.2077514e-01  -5.6423546e-01   9.6080809e-01  -4.5325534e-01   8.5037177e-01   6.9924421e-02  -9.5639300e-01  -6.4508572e-01  -3.8989551e-01  -2.8098184e-01   5.4629311e-02   6.8791617e-02   3.6149096e-01   6.3329881e-01   3.0247194e-01   7.0439861e-01  -2.8996303e-01  -9.7566068e-01  -1.1152615e-01  -4.5116913e-01  -5.9339268e-01  -3.4562778e-01  -1.2056692e-01   2.6816829e-01  -3.7363213e-02   4.8920674e-01  -9.9247345e-01   1.5057429e-01   8.0768519e-01   9.1481790e-01  -9.3821272e-01  -6.9866166e-01  -6.3123489e-01  -6.9750355e-01  -7.9214225e-01  -8.9247151e-03  -6.4565395e-01   7.6232360e-01  -7.5548907e-01   5.3486303e-01   7.1524139e-01   8.0113777e-01  -5.8101399e-01   9.1742718e-01   6.9119173e-01   1.3464660e-01   6.6614544e-01   5.1644639e-01  -1.1425582e-01   4.9189623e-01  -8.8614652e-01  -9.1080096e-01  -7.2918601e-01   9.4217273e-01  -9.8495793e-01  -1.7472790e-01   5.6394536e-01  -9.3394036e-01   8.7387244e-01  -4.8635642e-01   2.7093089e-01   7.9361198e-01  -5.6545525e-01  -4.0057672e-01  -8.5967288e-01  -5.6933372e-01   6.5024251e-01  -6.8481985e-01  -2.1153143e-01  -8.8557937e-02   9.2129832e-01  -6.6541781e-01   9.4444065e-01  -1.8522033e-01   2.1399390e-03   6.6213020e-01  -4.0302761e-01   9.8575031e-01  -7.5434240e-02   4.9824050e-02   8.8474844e-01   3.5203242e-01  -6.2305428e-01  -9.5309904e-04  -2.1703110e-01  -8.4148873e-01   9.6250176e-01   5.9156196e-01  -3.8422421e-01   4.5389281e-01   5.0270325e-01   7.7990081e-02  -6.8265194e-01  -8.7515035e-01  -3.2667150e-01  -5.3480211e-01   6.6500811e-01  -6.5322602e-01   3.4823393e-01   7.1144514e-01  -6.2597264e-01   6.7857783e-01   4.9513142e-03  -9.1501417e-02  -9.2368664e-01  -5.5366997e-01  -8.6312147e-01  -7.7950861e-01   3.1512369e-01  -9.5657991e-01  -9.1802973e-01  -2.2702009e-01  -2.9261507e-01   8.7216536e-01  -8.0654143e-01  -3.4581896e-01   4.6135494e-01   8.7462036e-01  -4.2647076e-01   5.4608684e-01   6.6505456e-01  -9.0378350e-01   6.9860074e-01  -5.3960071e-01   1.0847608e-02   5.5725934e-01  -6.3104673e-01  -4.2177029e-01  -8.4760107e-01  -5.1616419e-01  -1.7089194e-01   4.6131640e-01   9.8595025e-01   4.9533286e-01  -7.6169972e-01  -6.1643567e-01  -3.7868879e-01   2.9088462e-01  -7.4729449e-01  -7.0054821e-01  -3.0219942e-01   9.1213395e-01  -1.8248472e-01  -1.5952861e-01   1.4418671e-01  -8.4140487e-01   9.6526572e-01   4.5417515e-01   2.5351616e-01  -8.5756707e-01   7.2013284e-01  -6.5519171e-02   3.8811467e-01  -8.3566279e-02   5.3704599e-01  -3.1964127e-01   2.8239705e-01   1.3461509e-01  -9.9826296e-01   4.5295753e-01   7.4387966e-01  -9.7380355e-01   3.2063555e-01  -4.8247116e-01   4.0552028e-01  -8.5969050e-02  -1.2309095e-01  -4.0133808e-01   4.3390954e-01  -8.4786058e-01  -1.2618629e-01   8.0876422e-01  -9.1207312e-01  -3.1334952e-01   1.1504586e-01   3.8168985e-01   8.1350910e-01   7.2168620e-02   7.2678983e-01  -1.7508850e-02  -3.2697614e-01  -4.0953490e-02   8.0186844e-01  -5.3884992e-02  -9.3275983e-01  -9.5823548e-01   6.4062673e-01   5.0240529e-01  -8.5012235e-01  -6.6820700e-01   2.7847697e-01   2.4683290e-01  -4.4315844e-01  -4.5042716e-01   2.4125286e-01  -7.9330371e-01  -1.0037123e-01  -1.6816932e-02  -7.7380475e-01   9.5364503e-02  -7.4108404e-01   9.3927492e-01   4.1913597e-02  -7.2660006e-01   3.5554663e-01  -6.1716857e-01   7.9747470e-01  -3.0023725e-01   1.7750915e-01  -3.6833529e-02  -8.9858987e-01  -8.3617982e-01   2.4891048e-01   8.2216513e-01  -7.9539484e-01  -1.7632972e-01   6.1403894e-01  -6.2508725e-01   7.9179904e-01   2.3084274e-01   8.3726376e-01  -4.7801152e-01   2.0467757e-01  -7.3018088e-01  -4.7453259e-01   3.9908681e-01  -2.0316328e-01  -2.7151913e-01   2.6757571e-01  -8.2167584e-01   8.3248916e-01   1.2007593e-01  -5.0935758e-01  -4.9400824e-01  -4.6589395e-01  -8.2762221e-01   3.1619289e-01   2.1067751e-01   1.2462679e-01  -7.4326162e-01  -3.4144375e-01  -6.8726847e-01  -9.9132663e-01   2.4015275e-02  -3.5559046e-01  -5.8276137e-01   4.7772213e-01
  -6.6601471e-01   2.6979539e-01  -2.7181422e-01   7.2990497e-01   6.8767254e-01   3.2800143e-01   7.3805918e-01  -2.6980675e-01   3.3605437e-01  -6.0942093e-01  -5.8681833e-01  -1.8761870e-02   7.2138639e-01   4.9681342e-02  -1.6214256e-01   3.7144349e-01   3.9693133e-01   6.7667388e-01  -1.8487817e-01  -9.2214309e-01  -3.6254323e-01   6.1170998e-01   2.9516250e-01  -5.6458808e-01  -1.3427371e-01   1.7636413e-01   9.3163222e-01  -5.1091794e-01   7.6174826e-01  -7.3654525e-01   8.9841822e-01   9.0250989e-01   9.2234172e-01   9.1126995e-01   9.7371530e-01  -1.1076684e-02   9.5362578e-01   8.1031787e-02   1.7327232e-01   2.3324419e-01  -9.8883427e-01  -7.5172927e-01  -1.5507062e-01  -4.1104476e-02   4.3306381e-01  -4.6476549e-01  -6.4273906e-01  -2.7933187e-01   6.6779426e-01  -5.1542817e-01   3.8936727e-01  -3.4017338e-01   8.5790546e-01   2.1153755e-02   8.9951682e-01   6.0222151e-01   5.1253483e-01  -3.6464871e-01  -3.9226893e-02  -2.8249131e-01  -3.0556495e-01   5.1300829e-02  -3.9119179e-01   2.5311728e-01  -6.0398941e-01   8.7874633e-01  -4.2651379e-01  -6.0023177e-01   1.4511146e-01   9.8025406e-02   5.8213623e-01  -1.3252138e-01  -1.1242611e-02   3.5642277e-01  -4.8374922e-01  -3.5735014e-01   5.3480227e-02   4.8816015e-01  -2.2269386e-01  -3.3916003e-01   7.0001866e-01  -4.0796011e-01  -7.1103754e-01   9.5595494e-01  -2.2585460e-01   1.2727416e-01   1.6675461e-01  -3.4628631e-01   6.1984420e-01  -4.8496762e-01  -6.0664896e-01   1.6171252e-02   9.5494151e-02  -3.5596563e-01  -5.0610385e-01  -6.9314109e-01   4.2196671e-01   3.0094822e-01   2.0331353e-01   6.5010432e-01   9.3101526e-01   8.6160725e-01  -9.8977531e-01  -2.8472165e-02  -9.0252960e-01   4.6610136e-01  -2.1000842e-01  -9.2258861e-02  -2.3373497e-01  -4.4999819e-01  -6.7479312e-01   5.1673579e-01  -4.6435357e-02  -5.5795187e-01   2.5156491e-01  -8.0870322e-01  -4.3611011e-01  -1.3587910e-01   6.9420703e-01   6.0012934e-01  -5.4174991e-01  -2.8835213e-01   8.7483236e-02   9.5982663e-01   1.3920284e-01  -2.1362803e-01   5.2018830e-01  -2.3248769e-01  -9.0758156e-02  -1.0722467e-01  -4.0800061e-01   6.9535651e-01   9.5216272e-01   2.0920320e-01  -6.2775225e-01   5.5599127e-01   5.4731877e-02   7.0411586e-01   1.3099501e-01   6.6536676e-01   7.4485178e-01   8.0256571e-01   2.3616560e-01   1.7986541e-01   8.6260712e-01   9.1550813e-01  -9.1155028e-01   2.6707214e-01   1.3964343e-01  -8.5827837e-01   7.2667420e-01  -5.7995006e-01  -2.6350303e-01   5.7956813e-01  -6.6060958e-01  -6.3603518e-02   5.4270356e-02  -9.8267345e-01   5.8331993e-01   8.1525375e-01  -4.1129339e-02  -5.9753579e-01   8.6826667e-01   6.1721844e-01  -9.5708052e-01   7.5239487e-01   3.8907909e-01   8.5898528e-01   8.4256568e-02   8.2668219e-01  -3.4422777e-01   5.9817663e-01  -1.1782412e-01  -3.1983533e-01   9.3616402e-03  -9.6041141e-01  -8.1967573e-01   6.5744135e-01  -6.8812964e-01  -2.3188699e-01   2.4901196e-01   4.8076222e-01   2.0768414e-01   6.1504704e-01   7.1517350e-01   7.3990140e-01  -8.2240347e-01  -7.1697962e-01  -5.3984119e-01   9.1454656e-01   4.5553540e-01   3.6770435e-01  -8.0664574e-01  -2.7830823e-01   7.9481467e-01  -2.7431959e-01   4.6741459e-01  -3.7237018e-02  -4.0562908e-01  -4.2772798e-01  -5.0580372e-01  -7.8277806e-01  -6.5520446e-01  -4.1694290e-02   1.3212326e-01   6.3229944e-01   2.3047618e-01   4.6262696e-01  -6.6310233e-01   1.9076486e-01   9.5141364e-01  -2.5970928e-01  -2.4256810e-01   3.4118603e-01  -7.3268275e-01   5.7670211e-01   6.3229072e-01  -7.3731649e-01   2.1168536e-01  -4.7819397e-01   2.2694509e-01   3.6613383e-01  -5.9572551e-01  -1.5198258e-02  -3.6625616e-01  -3.0395009e-01   3.1809840e-02   1.1631606e-01  -2.3686501e-01   3.0446726e-01   1.4297046e-01   8.9250802e-01   2.1596065e-01  -1.3574368e-01   5.3117194e-01  -1.6590218e-01  -1.8448820e-01   3.2928164e-01  -6.6671080e-01   9.6583992e-01   2.0764141e-01  -5.0821863e-01  -7.4075229e-01  -7.3889112e-01  -1.6535874e-01  -8.8011672e-01  -8.3558143e-01   1.6742768e-01   5.3148089e-01  -3.9720843e-01   5.5069234e-02  -8.2319940e-01   4.0883634e-01   2.3708293e-01   8.5582018e-01  -6.0466070e-01   6.3120516e-01  -8.1848664e-01  -7.4016699e-01   7.2988764e-01   5.2968302e-01   2.7311389e-01  -4.4589076e-01   4.9638102e-01  -7.2492925e-01  -3.2481345e-01  -6.0297994e-01  -5.9100813e-01   6.0787770e-01  -1.0770010e-01  -8.1840766e-01   7.2455503e-01  -3.5371217e-01  -2.2281974e-01   3.5114871e-01  -5.4039569e-01  -8.1959087e-01   3.7440444e-01   8.2663430e-02  -7.5405422e-01  -7.4066112e-01  -2.2046420e-01  -8.2010945e-01  -2.6754036e-01   2.6112258e-01   3.5198636e-01  -8.0484144e-01   9.8268287e-01   9.4294815e-01  -7.3434382e-01  -1.1826864e-01  -6.4011199e-03  -7.1317531e-01  -9.9294609e-02  -1.9923831e-01  -1.9452107e-01   8.4665946e-01   6.0227464e-01   5.4544534e-01   7.8704048e-01   8.4814083e-01   4.8335161e-01   9.2663587e-02   8.5573193e-01   9.6544614e-01   9.8896336e-01   5.8748052e-03  -7.4522421e-01  -2.1099515e-01  -8.6939489e-02  -3.8034837e-01  -1.2507922e-01   5.8140231e-01  -6.1394826e-01   2.8609868e-02  -2.1282516e-01   8.4489561e-01  -4.1201728e-01   6.4404484e-01   1.6885179e-01   9.1747789e-01   5.6895141e-01   2.2015590e-01  -5.4964166e-02   5.3252892e-01   6.6397784e-01  -3.1354981e-01  -1.7518520e-01  -6.2502326e-01  -9.3620716e-02  -2.0496128e-01  -4.5456848e-01   9.5752178e-01   4.2449074e-01   1.0294154e-01   9.4262360e-01  -1.9643611e-01   8.5848035e-01  -6.3508861e-01  -9.4986140e-01   5.3945378e-01   9.8699354e-01   5.5746710e-01   4.9229101e-01   8.9420914e-01   3.7145234e-01  -7.7030583e-01  -4.3386955e-01   2.6036625e-01  -7.9112557e-01   8.3469349e-01   5.8870134e-01   5.4380695e-02  -8.9411780e-01  -1.0589631e-01  -6.9392947e-01  -5.6430196e-01  -7.3066955e-01  -2.3767267e-01   3.7909519e-01  -7.9414781e-01  -5.1061519e-02   2.8394022e-01  -9.7225299e-01  -6.8338733e-01  -9.4974830e-01  -8.1959140e-01   2.4112940e-01   7.9092560e-01   2.0274796e-01   4.4982707e-01   6.8874196e-01   7.1636823e-01  -2.4806474e-01  -1.7893895e-01  -2.8378094e-01  -4.3991479e-01   5.7557159e-01   8.0158074e-01  -5.3526220e-01   9.4611220e-01  -1.5703033e-01   1.2759978e-01  -6.6463887e-01  -8.2535739e-01   9.4708822e-02  -9.5023899e-01   2.4321646e-01  -3.0527227e-01  -9.1185076e-01  -3.7387798e-01  -6.7973867e-02   3.9640572e-01  -7.7007961e-01   3.5092501e-02   9.1529186e-01   2.6014038e-02  -5.9042986e-01  -5.8361951e-01   1.1890734e-01   8.0394409e-01  -3.4476081e-01  -7.5153757e-01   7.6553044e-01   7.3661222e-01  -2.9358782e-01  -7.4973308e-01  -9.1908845e-01   3.1820448e-02   2.5462518e-01   4.4057393e-01  -4.3286568e-01   2.1587805e-01  -4.3824368e-01  -9.8026430e-01   1.0548215e-01   2.8511937e-01  -3.1413048e-01  -7.4238250e-01   3.6393158e-01  -6.8707873e-01  -5.7113466e-01   6.0720038e-01   9.0020869e-01   9.1118582e-01   1.7771802e-01  -4.1786811e-01  -5.8429349e-01  -8.1786490e-01  -1.0010315e-01   1.3128723e-01  -2.9358973e-01  -4.1656630e-01  -7.7525811e-01  -2.5134574e-01   1.8214398e-01   6.4634095e-01   4.7150400e-01   2.3363875e-01  -1.7607943e-01  -8.5232187e-01   8.2405649e-01   5.2841711e-02  -4.1092244e-01   4.7681744e-01  -2.3267524e-01   8.4411957e-01   5.7337171e-01   7.6686574e-01   4.5646645e-01  -3.7408258e-01  -7.9282253e-01  -8.2126507e-01  -9.5342907e-01  -4.8890911e-03  -6.4965705e-01   3.4631263e-01  -9.0352862e-01   9.7218460e-01  -4.6793069e-01   1.1637900e-01   4.6068255e-01   6.1748504e-01  -3.0346844e-01   9.6977955e-01  -7.7815354e-01  -6.1852882e-01   1.2353374e-01  -8.7587987e-01  -5.9327476e-01  -5.1358154e-01   8.3710290e-01  -4.7830000e-01   4.7390836e-01  -6.5272155e-01   9.6433763e-01   4.1723049e-01  -5.6865419e-01  -5.3594152e-01   3.9555379e-02   2.7989873e-01   6.8504896e-01  -3.8199832e-01   7.3164883e-01  -3.4501148e-01  -4.4620730e-01  -8.0772979e-01   3.0661148e-01  -9.4674222e-01   4.7267884e-01   7.3101620e-01   8.2412926e-01  -2.2079684e-01   1.8998540e-01  -6.5209607e-01   7.9896329e-01   7.7055022e-01  -7.2025140e-01   2.2511077e-01   9.5698876e-01  -6.5533329e-01   7.2091620e-01   9.8538764e-01  -8.1903538e-01   7.8280676e-01   5.9860510e-01   5.8085742e-01  -1.9080774e-01  -8.1186078e-01  -4.0150517e-01   4.4702345e-01   3.1702699e-01   5.4323224e-02   8.9927284e-01   5.7638825e-02   4.6488169e-01   7.9793542e-01   7.3162959e-01   8.1712306e-01   6.0129182e-01   6.7539884e-01  -6.1485307e-01  -5.8081810e-01  -5.2056210e-01  -3.5942940e-01   1.9838555e-01   1.0729041e-01  -2.2693327e-01   2.8876272e-01  -7.6816950e-01   8.0749971e-01   5.2302382e-01   9.8822093e-01   5.8485727e-01   9.5828309e-01  -5.7389825e-01  -1.9680392e-01   5.1337715e-01   8.2012352e-01   4.5218316e-02   4.6180933e-01   1.9572589e-01   5.5533985e-01   3.3630274e-02   4.6719251e-01   5.2384326e-01   3.0536789e-01  -6.4686614e-01   3.4273166e-01   3.7830520e-01   4.8723378e-01  -4.2179247e-01  -7.7103933e-01   6.8923075e-01   2.0393877e-01  -6.2070375e-01  -1.1630444e-01  -7.8371014e-01  -9.0406294e-01   9.0503308e-01   4.2803395e-01  -9.7868146e-01  -1.5563461e-01  -5.4244686e-01  -2.0376033e-01  -8.2360660e-01   8.7313159e-01  -8.6436417e-01   6.7799987e-01  -3.0338840e-01   5.7933459e-01   7.1781918e-01  -1.3108900e-01  -1.0028251e-01  -3.7782371e-02   5.0668668e-01   5.7174083e-01   3.1131494e-01   5.7389320e-02  -7.3060101e-03   3.9187789e-01   7.3673941e-01  -6.8498266e-01   1.4135117e-01   7.6656210e-01   4.8068033e-01  -2.7212422e-01  -6.6763967e-01   4.1505160e-01   3.9583587e-01   6.0332025e-01   1.7050196e-01   3.6102150e-01  -1.3011385e-01   7.0315023e-01   1.7919588e-02   7.7636310e-02  -5.8785385e-01   9.5442745e-01   6.4418062e-02   7.5034026e-01   5.3103426e-01  -2.6080355e-02  -4.9301799e-01  -9.7319071e-02   4.0929235e-01  -9.2680905e-01   3.3429112e-01  -4.7558108e-01   1.2482357e-01   9.2615696e-01  -5.6748613e-01  -2.6896448e-01  -8.3626536e-02   8.6408036e-01  -1.0770431e-01   1.9837650e-01   1.8425558e-01  -2.2664006e-01  -8.1024112e-01  -2.0180641e-01  -2.3674653e-01   3.6593167e-01   2.9047185e-01   7.6325922e-01   4.4249022e-01   3.8986869e-01   2.4118949e-01   2.0796699e-01   8.4705792e-01  -6.1066436e-01   6.0724208e-01   5.8942871e-01   8.8871399e-01  -6.1173666e-01  -4.5601911e-01   1.0989925e-01   6.6803489e-01  -3.7742869e-01   4.9996385e-01   5.7482004e-01  -5.0881652e-01  -2.9775820e-01   4.7107060e-01   4.0352966e-01  -7.4097611e-02  -1.1808994e-01  -4.1015081e-01  -5.1968343e-01  -4.1087539e-01  -2.1435809e-01   7.5280041e-01   3.8445373e-01   3.5824310e-01   6.0930683e-01  -5.2810513e-01  -6.8059949e-01  -4.4506389e-03  -5.7817512e-01   6.0925676e-01   5.2146229e-01   7.7894908e-01   4.2000525e-01  -2.6907123e-01   7.6366777e-01   7.9953172e-01  -3.7383178e-01  -4.5304318e-01  -3.5029352e-01  -1.3989989e-01   5.7755566e-01  -7.6470062e-01  -4.0892477e-02   3.5515917e-01   6.7031573e-02   4.7755850e-01  -1.4257819e-01   6.3516007e-01   3.2461653e-01   8.2738689e-01  -9.6599078e-01   6.1223260e-01  -8.5936735e-01  -2.8877823e-01   7.3241645e-01   7.7703689e-01   5.5569492e-01   8.1820292e-01  -5.6555925e-01  -1.3264891e-01  -5.7712076e-01   9.8295662e-01   8.8015905e-01  -6.2556795e-03  -8.2305586e-02   2.9650185e-02   8.1333756e-01   5.3108235e-01   7.2707805e-02  -5.7033375e-01  -3.6278959e-01   2.5768606e-02   9.6115296e-01   6.8128048e-01  -4.0973157e-01  -5.4847998e-01   1.2473959e-01  -1.3309478e-01   5.9676884e-01  -1.2331481e-01   1.5762606e-01   1.0472689e-01   3.0878936e-01   1.7319932e-01   5.2334783e-01  -4.4264597e-01  -2.7089563e-01   9.4535325e-02  -2.1477559e-01   2.3250371e-01  -3.2012654e-01  -1.5782861e-01   3.3427858e-02  -8.8269874e-01   8.4987628e-01  -1.2746093e-01   9.9379096e-02   6.6894625e-02   4.4435667e-01  -2.7334471e-01   4.8990242e-01  -4.6004714e-01  -9.5378980e-01  -6.8594267e-01   7.2372014e-01  -7.4588355e-02  -9.3590397e-01  -6.2490069e-01   1.1551381e-01   4.2775959e-02   6.5914187e-01  -3.5495380e-01  -4.2297005e-01   7.9451346e-01  -3.9117604e-01  -1.5870521e-01   2.7323702e-01   6.2921270e-01   3.6194806e-01   6.3849807e-01  -2.7827126e-01  -5.6582983e-01  -9.1244987e-01  -7.7422581e-01  -8.6784789e-01   1.0094564e-01   8.3611475e-01   7.8617225e-01  -3.3463120e-01   5.0340494e-01   5.5908947e-01   6.5621667e-01   1.1625067e-01   3.6664659e-01   3.0175799e-01  -9.5936777e-01   3.8265787e-01  -4.4374720e-01  -3.8342023e-01  -5.2487708e-01  -8.6830525e-02   7.8128050e-01   1.1071780e-01  -1.4271660e-01  -1.4817341e-01   7.0198795e-01  -9.6795346e-01  -1.0925835e-01   6.1667627e-01   5.9455379e-01  -4.4749943e-02  -8.5555283e-01   8.8049130e-02   1.0303597e-01  -2.7036330e-01  -2.2221109e-01   4.8001441e-02  -5.9986218e-01   8.4526178e-01  -5.5371524e-01   4.7262687e-01   1.0385213e-01  -7.3901894e-01   9.5941706e-02   9.9668152e-01  -4.8448577e-01   9.4887611e-02   7.9613480e-01   6.5559679e-01  -7.6551360e-02   5.2466966e-01  -3.7387836e-02   8.6908600e-01  -4.1343670e-01   3.2071641e-01  -4.0127795e-01  -6.0006651e-01   2.8705693e-01  -4.6180006e-01  -6.4391558e-02  -4.0439207e-01  -9.6578641e-01   3.0318084e-01   8.5348175e-01  -1.2705471e-02   9.4613319e-01   2.9836746e-01  -4.1163507e-01  -7.0404367e-02   1.3407288e-01   1.7006196e-01  -2.4647500e-01   8.0988174e-01   5.2361325e-01  -1.0395886e-01  -8.6816053e-01   4.5401637e-01   7.1274418e-01   5.5455915e-02   9.0955575e-01   3.9858003e-01  -9.3277065e-01   1.5076333e-01   4.7010820e-01   7.5649374e-01  -5.2665621e-01   1.9324986e-01   1.2298555e-01   3.0842443e-02  -3.8112564e-01   8.8393499e-01   9.4798355e-01  -8.7849861e-01  -4.4539183e-03   2.9142247e-01  -8.1874768e-01  -8.7917739e-01   9.2702933e-01   2.3300433e-01  -7.7139743e-01  -5.6319306e-01   7.4171124e-01   5.9017323e-03  -2.4269782e-01   2.1475489e-01  -5.5233691e-02  -6.2567633e-01  -8.1720524e-01   3.2330913e-01  -6.4255977e-01  -6.3187795e-01  -5.5776374e-01   5.4130707e-01  -7.1436704e-01   1.9397097e-01  -7.9233104e-01   4.7219179e-01  -4.9700507e-01  -6.7231993e-03  -5.4603936e-01  -1.8452668e-01   4.6708230e-01  -8.6473422e-01  -6.8792822e-02   8.1667524e-01   7.4908817e-01   7.1374290e-01   9.3491978e-01   3.2397468e-01  -9.5611851e-01  -6.1662858e-01  -4.8800831e-01   2.9217031e-01   8.4305741e-01  -6.8053998e-01   7.3815020e-01  -7.0421631e-01   3.4500014e-01   7.5720107e-01   5.6886493e-01  -3.7132934e-01   1.0646139e-01  -3.2636439e-01  -4.5465713e-01   6.5603025e-01   5.5830379e-01   6.0843469e-01  -7.2518033e-01   8.1872385e-01   2.4417645e-01  -5.7832625e-01   4.4494153e-01   3.7556583e-01   9.2051515e-01   3.8359770e-01   9.2468161e-01   8.2027839e-01  -1.6449653e-01  -1.7413726e-01   6.0198221e-01   8.3896993e-02  -1.1329368e-01  -9.0262136e-01  -8.6093159e-02   2.7704550e-03   2.8539196e-01   1.8593933e-01  -9.8630616e-01   5.6296985e-01  -1.8605207e-01  -5.7721613e-01  -1.1068688e-01   7.1602706e-01   1.9212577e-01  -1.0148828e-01   8.1581395e-01  -6.0163511e-01   2.8785610e-02  -9.4642729e-02   3.6631585e-01  -9.6664867e-01  -5.1895578e-01  -6.1204067e-01   1.9380664e-01   4.8939197e-01   6.1515540e-01  -4.6959335e-01   1.5127137e-01   8.6589952e-01   2.6119411e-01   6.8786231e-01   7.2595225e-01  -1.7876882e-01  -5.8079375e-01  -6.0623770e-01   9.3649303e-01   2.1954723e-01   1.2402953e-01  -1.3410431e-01  -5.2475181e-01  -6.0619125e-01  -5.8661445e-01   4.0771938e-01   5.0613186e-01   9.3708351e-01  -1.3992774e-01   7.6754111e-01  -5.6189376e-01  -6.6174339e-01   3.8100361e-01  -6.7544258e-01   8.3354304e-01  -6.8746552e-01   5.4701251e-01   3.2718056e-01  -9.0476008e-01   2.6707935e-01   6.1051430e-01  -8.1488395e-01   4.0117665e-01   3.9514482e-02   3.0487452e-02  -1.1143102e-01   1.8838201e-01   8.2244012e-01   3.6179040e-01   8.2728311e-01   4.5554258e-01  -9.0045385e-01  -6.3186813e-01   8.1033584e-01  -9.9534316e-01  -6.9778161e-01   2.5523506e-01  -7.7253292e-01   2.0273528e-01   6.3685025e-01   2.1007745e-01   7.0376466e-01  -4.0964045e-01  -3.6027782e-01   5.8415918e-01  -6.5292359e-01   2.3923117e-01  -6.1039330e-01   6.0973310e-01   2.7236898e-01  -2.6006322e-01  -1.4521964e-01  -7.6871131e-01
   5.7205121e-01  -1.1638093e-01   9.3766090e-01  -6.2805017e-01   8.9506386e-01   8.7404315e-01   2.1965240e-01   9.4544978e-02  -5.9803892e-01  -1.7123734e-01   8.2902259e-01  -6.4849460e-01  -2.5439421e-01   2.4661124e-01  -4.3248872e-01  -4.4812901e-01  -3.6838333e-02   5.1793809e-01   5.7283133e-02  -3.2486676e-01   6.0102719e-01  -6.2242941e-01   6.3098182e-01  -9.0574407e-01   3.0697699e-01  -5.3683898e-01  -4.8688104e-01  -5.5243147e-01  -6.0806193e-01   8.2752460e-01  -2.8939125e-01   5.4912551e-01  -2.5006445e-01  -9.2528529e-01  -9.2592577e-01  -5.3344995e-01  -5.8069367e-01   9.4110190e-01  -6.8426779e-01   2.1148789e-01  -2.3111280e-01   9.4126960e-01   2.8943261e-01  -7.7144324e-01  -4.8445749e-01   5.5381404e-01   7.8229378e-01  -5.7026234e-01  -5.3965697e-01   1.4521719e-02  -7.1801266e-01   6.0723283e-01   8.6415369e-01  -9.7861078e-01  -9.9225968e-02   6.2355850e-01  -3.1411359e-01  -2.5401773e-01  -2.5902281e-01   4.6870319e-01  -1.0736366e-01   7.5963521e-01   4.5437147e-01  -9.1828068e-01  -1.1206437e-01   3.5609907e-01  -5.9352069e-01   6.8367510e-01  -8.0425076e-01   1.0404307e-01   1.7366316e-01   6.2856509e-01   3.5450662e-01  -4.2845071e-01   4.5003261e-01  -2.6500188e-01   1.9179083e-01  -7.3381337e-01  -6.2490890e-01   8.7887679e-01  -3.3401798e-01   8.7464728e-01  -4.3921270e-01   1.9645190e-01  -8.9379457e-01   9.0701802e-01  -3.5283311e-01  -2.2843354e-01   6.5350887e-01   5.6466898e-02  -5.9937625e-01   8.9614298e-01  -4.7435715e-02  -1.9261621e-01  -3.0814301e-01  -7.8834391e-01   5.5715420e-01  -8.5986169e-01  -1.4070834e-02  -3.0251758e-01  -7.5054974e-01   5.3376879e-01  -7.8751969e-01  -6.1569288e-01   4.2408028e-01   1.3204258e-01   7.1164253e-01  -8.1118227e-01  -9.1739445e-01  -3.3710371e-01  -6.8744788e-01   1.5308320e-02  -3.5139040e-02  -5.7069120e-02   5.7154983e-01   9.3892561e-01   9.0318326e-01  -5.4984788e-01  -1.5947572e-01   5.5196258e-01   5.8469408e-01   6.0017997e-01   5.5596594e-01   4.7504214e-01   1.8744060e-02  -4.1280276e-01  -5.6750799e-01   9.3109149e-01  -5.1710765e-01   2.0326643e-01  -9.2998485e-01  -3.0105068e-01  -2.2442104e-01  -7.7646203e-01   5.4808351e-01   8.0269496e-01  -9.0073983e-01   4.3013506e-01   9.2236357e-01   1.6326164e-01  -1.4282917e-02  -7.8223163e-01  -4.0829008e-01   2.0645766e-01  -1.9754686e-01  -6.2363293e-01   3.8071865e-01  -8.0514651e-01   7.9569747e-01   2.3412358e-01   2.2977958e-01  -1.1010396e-01  -4.6403028e-01   3.6964135e-01  -7.1745192e-01  -2.0545657e-01   6.6077564e-01  -9.9515697e-01   9.1941180e-01   9.3769521e-01  -6.7345938e-01  -4.6826580e-01  -3.8575494e-01  -9.1283915e-01  -2.3914382e-01   8.2008121e-01   4.9907463e-01  -1.1691784e-01  -4.6833649e-01  -3.5616508e-01   2.7937878e-02   1.3406417e-01  -4.2173362e-01  -5.7030528e-01   1.0431351e-01   9.2960215e-01  -1.2617189e-01   5.1803030e-01  -4.0433881e-01  -6.8302281e-01   3.0822833e-01   6.6009953e-01   6.8503498e-01  -3.2796420e-02   3.6115572e-01   7.0003518e-01  -4.6441971e-01  -8.8619908e-01   6.6082057e-01  -2.2398725e-01  -6.7611033e-01   2.1245167e-01   7.8991716e-01  -9.2877708e-01   6.1219299e-01  -7.6993456e-01  -2.7044853e-01   8.9707434e-01   5.6746414e-01  -9.5976135e-03   3.2854066e-01   9.2074596e-01  -5.9096819e-01   7.1240530e-01  -8.9568618e-01  -6.4064052e-01  -5.9738008e-01   8.6703941e-01  -1.4808594e-01  -1.3142733e-01   7.1244860e-01  -2.8209273e-01  -4.9556670e-01   8.1114304e-01   2.6938195e-01   2.3128933e-01   3.1564285e-02  -8.7949863e-01   2.2556042e-01   7.4876845e-01  -2.4009932e-01   4.7004957e-01  -7.6542739e-01   7.6576110e-01  -1.7388213e-01  -8.4506913e-01  -8.1703609e-01  -3.9570481e-01   2.6035762e-01  -3.1162670e-01   9.1403936e-01  -3.6434587e-01   3.2796705e-01  -6.9981637e-01   1.8177080e-01   7.6157641e-01  -5.1971436e-01   5.1181160e-01   5.0503227e-01   4.2017926e-01   5.8787696e-01   8.6449193e-01   4.7539889e-01   2.3402837e-01   4.9430543e-01  -9.3787941e-01   6.0291734e-01   4.3474518e-01  -7.4145521e-01   3.4841745e-01  -7.5633393e-01  -9.5228303e-01  -8.4743573e-01  -7.7501400e-01  -7.1192860e-01  -3.3006830e-01   2.1376558e-01  -8.2540566e-01  -3.9626793e-01  -1.7726988e-01  -8.7292395e-02  -7.1214019e-01  -2.3566553e-01   1.4252536e-01  -6.4339677e-01  -2.8461956e-02  -2.9714123e-01  -7.8117898e-01  -5.1090597e-01  -1.8384365e-01  -8.6776581e-01   5.8011619e-01   7.5145505e-01  -9.9260732e-01   8.7533108e-01   8.5993880e-01  -7.5385559e-01   5.9305590e-01  -9.9119650e-01   5.8217329e-02  -2.3213288e-01   9.6310370e-02   5.1277718e-01   2.0105259e-01   6.2010290e-03   1.8598696e-01  -1.5910647e-01   1.8721311e-01   5.7310052e-02  -6.8803606e-01   6.2631489e-01  -4.0516336e-01  -4.3002622e-01  -6.3729698e-01  -6.2623841e-01  -1.3322906e-01  -3.2284570e-01  -8.5808380e-01   9.8625861e-01   8.6785906e-02  -2.6617192e-02  -3.9059018e-01   5.3416401e-01   6.4422798e-01   3.8734809e-01  -2.6936038e-01   6.5146478e-01  -2.7471736e-01   3.0010371e-01   9.8771318e-03   6.1710049e-01   5.6901201e-01  -9.5428367e-01  -9.9908540e-01   5.6204707e-02  -3.4589963e-01   6.8599029e-02  -7.8139453e-01  -9.6524887e-01   7.6731836e-02  -6.6082608e-01   1.6994041e-01   5.2270904e-01   9.8267369e-01   8.6409206e-02   8.9601254e-01   9.5147366e-01  -1.1656903e-01  -2.4881035e-03  -6.4252145e-02  -3.8647064e-01  -2.4730668e-01  -5.5239595e-01  -9.5634651e-01  -8.7872777e-01  -5.5906480e-01   3.0557733e-01  -2.5526472e-01   5.5679144e-01   4.8666187e-01   3.9006955e-01   6.9626814e-01  -8.5751100e-01   1.0401743e-02  -5.5349816e-01  -7.5029918e-01   8.5981129e-01   8.7489546e-01  -7.3007986e-03   9.7062049e-01   9.7338994e-01   4.6655172e-01  -7.4665871e-01  -7.0871040e-01   7.4260788e-01   4.1371886e-01   3.7061753e-01  -9.7198684e-01   5.3431501e-01  -1.3236567e-01  -1.0094675e-01   9.5303092e-01  -4.2480969e-01  -1.6378142e-01   8.7927578e-01  -4.7826139e-01   4.7660419e-01  -9.5875077e-01   6.5082012e-01  -8.7596496e-01  -7.3894996e-01  -7.3511195e-01   1.0407937e-01   3.7733267e-02   2.7059622e-01  -5.4658625e-01   2.4839954e-01   4.7433911e-01   9.8074610e-01  -7.1795384e-01   1.8269975e-01   2.7668008e-01   2.3268737e-02  -2.5649484e-01   1.8706577e-01  -8.9545285e-02  -4.6027325e-01   1.9353084e-01  -8.7140836e-01   3.2645152e-01   4.7738335e-02  -8.3004870e-02  -1.7357463e-01  -8.8469454e-01  -5.6040109e-03  -2.7643529e-02   2.2346720e-01  -4.7739649e-02   5.9540327e-01  -5.9856475e-01   5.1659453e-02  -7.6635507e-01  -8.7315683e-01  -6.3963200e-01   3.4982170e-01   4.1157469e-01   9.5593417e-02  -9.0524614e-01  -9.2631727e-02  -7.8438038e-01   9.1870317e-01   6.0933689e-01   6.5791479e-01   6.2615123e-01  -2.2380916e-01   7.3915588e-01  -1.1352840e-01   3.9029175e-01   5.6696636e-01  -9.2978880e-01  -5.8982443e-01   9.2333443e-01   3.8758743e-01   3.2968377e-01   9.1375623e-01  -5.7675392e-01   2.0863123e-01   4.0321497e-01   4.0415345e-01  -9.6912691e-01  -8.9189966e-01  -4.0834457e-01  -1.4218966e-01  -3.8463405e-01  -7.1841076e-01  -6.1580120e-01   2.9054686e-01   7.5263446e-02   2.6215819e-01  -5.7579858e-01   5.1506487e-01  -4.4572497e-01   2.2177483e-01   4.4492716e-01   7.2483097e-01  -4.7936656e-02   1.0009069e-01  -4.2593717e-01   1.3292149e-01  -9.5340538e-01  -4.9554883e-01   4.4535396e-01   4.9758298e-02   7.2731126e-01  -6.6032946e-01  -8.1359520e-01  -2.4020676e-01  -5.5017145e-01  -7.0523565e-01   8.0713049e-01  -2.2647321e-01  -2.6329147e-01  -1.3587714e-01   3.4927072e-01   5.0827887e-01   6.6525893e-01  -5.5003854e-03   5.8814614e-01   4.7046536e-01   5.9929522e-01  -6.8327240e-01   9.9327266e-01   9.0516075e-01   5.5256059e-01   2.0556511e-01   5.6470623e-02  -4.3614381e-01  -6.5994953e-01   2.6130926e-01  -6.1768798e-01  -8.1800381e-01   8.1659790e-01   8.3602095e-01   6.0968222e-01  -3.7679769e-01   4.5904256e-01  -6.3094749e-01   6.9754703e-01   8.1608562e-01  -8.8475802e-01  -4.3567137e-01   2.0581814e-01   8.8002112e-01  -4.2776887e-01   3.8409124e-01   3.8712295e-01  -4.9096531e-02  -2.5520509e-01  -7.5804793e-01   4.8727050e-01   1.7655946e-01   4.2319153e-01   5.9824239e-01   1.0539092e-01   6.6931674e-01  -1.7665348e-01   5.1879982e-02  -2.0981569e-01  -2.0556453e-01  -2.4574807e-01  -9.9972643e-01   8.0126519e-01  -5.3399238e-01  -9.7262596e-01   4.3310943e-01   8.0556840e-01  -5.4440386e-01   2.0945311e-01   7.2339913e-01   4.4949268e-01  -3.5998304e-01   4.6713350e-01   9.3920609e-02   6.4261194e-01  -8.7337404e-01  -9.3296006e-01  -1.1030601e-01   5.8547336e-01  -2.9642149e-01  -6.9470320e-01   6.8745777e-01   1.8691913e-01   1.9277749e-01  -6.5303087e-01   1.6911493e-01  -4.6895094e-02  -5.4850857e-01  -7.5688830e-01  -3.3362428e-01   7.7749562e-01  -3.7028154e-01  -4.6158105e-01   4.6912274e-03  -8.2486099e-01  -7.8937558e-01  -3.3853307e-01  -7.3728659e-01   2.8944203e-01  -2.6187633e-01   6.1858539e-01   8.6249329e-01  -6.2352267e-01  -5.9334094e-02   6.0599106e-01   7.2774450e-01  -7.6234495e-01   7.5311546e-01  -5.7195093e-01   8.4332468e-01   5.0866579e-01  -8.2822556e-01  -4.9923987e-01   2.3112398e-01   5.1193092e-01  -9.4620856e-01  -7.6189920e-01  -1.7680837e-01  -6.5519578e-01   3.4665483e-01   7.2275044e-01  -1.0182876e-01   7.8074923e-02   7.6042523e-01  -3.7926238e-01   8.1210000e-01   6.4273260e-02   2.7169195e-01   9.9722822e-01   8.7180251e-01  -8.1439761e-01   5.1416902e-01  -7.9815207e-01   8.6897752e-01  -7.1986727e-01  -6.5084336e-02   6.8856044e-01  -2.4008000e-02   8.2332433e-01   4.4404275e-01   2.1153586e-01   7.3671366e-01  -9.1671385e-01   9.6881624e-01   4.2729464e-02  -6.9114522e-01  -8.8762230e-01  -7.0940216e-01  -6.7004245e-01  -5.1111812e-01  -4.5520423e-01   4.8441025e-01   6.3739846e-01  -6.9163235e-01   7.8384055e-01  -8.6516382e-02   7.8237381e-01   5.8920640e-03   5.1503486e-01  -4.1254807e-01  -9.2970857e-01  -7.1969864e-01  -1.2025566e-01  -5.0138225e-01   9.1950665e-01   8.0666468e-01  -1.4628540e-01   2.6715900e-01   6.4979184e-01  -9.9247334e-01  -4.0190511e-01   6.1353397e-01   5.0162452e-01  -6.6371124e-01  -3.6576587e-02   1.4127494e-01  -6.1377834e-01  -8.5032271e-01  -5.2678034e-02   5.0641701e-01   9.7145290e-01   7.1843534e-01   8.7371429e-01   7.3869938e-01   8.5344730e-01  -1.4405054e-01  -5.3101363e-01  -7.4079983e-01   3.4878634e-01  -4.7775104e-01   1.6445468e-02  -6.1428043e-01   5.1490720e-01   2.4085110e-01  -5.0964609e-01  -5.2941435e-01  -7.3808979e-02  -9.4776478e-01   9.8856975e-01   1.3071335e-01   1.1395801e-02   6.2784141e-01   9.5041255e-01  -5.5498973e-01   4.9557794e-01  -1.1807335e-01  -4.5986688e-01   6.3286386e-01   2.3488207e-01   2.9523309e-01  -8.9329146e-01  -8.9973421e-01  -1.6867995e-01   7.7866316e-01   6.1826433e-02  -5.1186489e-01  -9.8523469e-01  -7.0999153e-01  -2.3382957e-01   1.4578643e-01  -8.4546246e-01  -7.4469772e-01   4.1629837e-01   9.5383709e-01  -3.0120153e-01   8.8505598e-01  -5.7847689e-01  -3.3898006e-01  -8.8933487e-01  -2.7811535e-02  -9.1896398e-01  -6.7710269e-01  -9.4876637e-02   6.4822647e-01  -8.2945125e-01  -4.9742270e-02   2.8283881e-01   7.5761458e-01   5.4175833e-01  -9.8686671e-01   8.2571527e-01   4.2782738e-01  -5.5169744e-01  -1.7033879e-01   9.8532626e-01  -6.1964796e-01  -9.4058271e-01   4.2428275e-01  -1.9902101e-01   9.0329291e-01  -6.2477329e-01   2.2579642e-02  -4.1703926e-02   1.9727305e-01  -7.1585100e-02  -3.0116091e-02  -7.4718969e-01   5.8579105e-01  -3.6971275e-01  -7.7737798e-01  -4.6336967e-01  -1.5665204e-01   8.4816682e-01  -8.7474198e-01   8.8119380e-01  -1.4762226e-02   6.1816385e-01  -5.0854324e-01  -1.7261994e-01  -9.8574836e-03  -5.7293475e-02   2.7114407e-01   3.1352575e-01   5.3353719e-01   6.0014408e-01  -7.8537235e-01   5.6525230e-01   5.1828360e-01  -6.6118317e-01  -8.8961834e-02   4.9960461e-01   8.4476559e-01  -1.2982209e-01   1.2833350e-01   7.6082471e-01  -4.1180640e-01  -1.3043402e-01   3.2167410e-01  -2.1600095e-01   8.3938996e-01  -3.7355077e-01  -2.5671091e-02  -9.2909685e-01   3.7483746e-01  -8.9630043e-01   3.6549503e-01   4.9049403e-01   9.8305616e-01   6.1405679e-01   7.1558698e-01   9.0269485e-01  -2.7609944e-01  -1.9604406e-01   1.8736318e-01   3.8379633e-01   2.2487428e-01   2.1019855e-02  -4.2459123e-02  -9.9405657e-01  -5.4789396e-01   4.5277827e-01  -5.6494478e-01   8.2076420e-01   5.0622341e-01  -9.0870051e-01   8.2015991e-01  -3.3934394e-01   4.0141388e-01   2.2330831e-02  -2.4831184e-01  -9.0144016e-01   3.7717969e-01  -1.7028573e-01  -2.0331509e-01  -9.6026385e-01  -5.5793103e-01   2.6865945e-02  -2.0366122e-02   8.0464013e-01  -9.4584102e-01  -9.0441890e-01   2.1638549e-01  -5.3215167e-01   4.6310819e-01   5.5737169e-01  -7.5774555e-01   2.6664750e-01  -6.3793500e-01   8.4799354e-01  -3.6289863e-01  -4.6920366e-01   2.8425211e-01  -4.6301203e-01  -2.1355768e-01   6.1698237e-01  -5.3265593e-01   3.0389654e-01  -2.4499975e-01  -4.8500847e-01  -4.8529291e-01   2.9859118e-02  -4.8380518e-01  -7.1368054e-01   3.2349274e-03  -6.4681052e-01   1.6044837e-02  -9.7021649e-01  -2.6484117e-01   8.5730173e-01   8.7841870e-01   2.7877114e-01   5.5278013e-01  -2.7584043e-01  -1.9177977e-01   6.7585691e-01  -9.9059861e-02  -5.1337271e-01   2.4307960e-01  -1.8001169e-01   9.4440883e-01  -1.3687999e-01  -8.0709880e-02   2.1345603e-01  -1.2251297e-01  -8.6329543e-01  -8.4865797e-01   8.2857140e-01  -7.5007857e-01   1.4023828e-01  -3.8121813e-02  -9.2162091e-01   6.2782532e-01  -5.4732552e-01   9.6070171e-01  -8.7415893e-01   7.0167602e-01  -5.5364787e-01   6.9599358e-02  -8.9909256e-01  -4.0522021e-01   7.0376762e-01   1.3358745e-01  -4.6921242e-01  -3.4508841e-01  -4.5461579e-01   3.2463192e-01  -9.6650212e-01  -4.8446299e-02  -4.9697174e-01   7.1124040e-01  -5.2764067e-01   1.8165389e-01  -4.7446444e-01  -3.1354630e-01  -2.7099124e-01  -2.2419400e-01   5.7062422e-01  -7.4655597e-01  -9.3560306e-01   1.6095313e-01  -5.8358817e-01  -3.7273282e-01   6.0299301e-01   4.8357362e-01   1.9691341e-01   9.5846732e-01   4.8105750e-01  -7.6308205e-01  -5.7102408e-01   5.6667116e-01  -5.6957734e-01  -9.2371948e-01  -1.1223841e-01  -5.4018430e-01   3.1571842e-01  -8.2216976e-01  -7.5315135e-01  -4.6169038e-01  -3.9494686e-01   7.7467479e-01  -3.0603852e-01  -4.7381216e-01  -9.3137242e-01   2.5010223e-01   7.0552332e-01   8.3092678e-02  -9.1642939e-01  -1.9813198e-01  -3.3776290e-01   8.3513242e-01   1.4291237e-01  -1.5622901e-01  -7.1077427e-01   4.7765244e-01   9.0410902e-01  -5.5210065e-01  -4.1480618e-01  -5.3727580e-01   7.2892883e-01   7.4635624e-01   5.9101424e-01   7.6309864e-01   9.1961813e-01  -6.5230902e-01   7.5151719e-01   6.2147099e-02   2.1214587e-01   4.9825399e-02   5.7270220e-01  -9.9779460e-01   2.4358553e-01  -5.5717679e-01  -6.8552177e-01  -2.8818967e-01   6.2587050e-01   1.5364457e-01  -4.8493597e-02   6.7900318e-01   8.5814747e-02  -7.4150351e-01   5.4341680e-01   5.3479923e-01  -6.5209636e-02  -7.5979208e-01   8.3482918e-01   8.1845866e-01   1.9347162e-01  -3.5793114e-01   8.6826716e-01  -7.9924129e-01   4.1084177e-01   2.2357502e-01  -1.3259348e-03  -9.4404689e-01  -7.1045107e-01   3.8921121e-01   2.0413868e-01   7.3062888e-01   1.8557848e-02  -9.7937938e-01   9.6398028e-01  -6.6900211e-01   2.0033507e-02  -6.5123943e-01  -8.6545172e-01   3.2757346e-01   6.0858845e-01   6.6644827e-01   2.0009741e-01  -6.9827003e-01  -3.1403554e-01  -1.1028140e-01   1.7256994e-01  -7.9613594e-01   7.5828132e-01   9.5238736e-01   5.4246123e-01   8.4322523e-02  -4.0614126e-03  -1.8765522e-01   8.8578843e-01   3.1036216e-01   8.9898516e-01   3.7462261e-01  -5.1496210e-01   1.3083699e-03  -1.0123831e-01  -5.6596485e-01   2.8856615e-01  -8.1407665e-01   2.2879587e-02  -2.9163146e-01   4.5933823e-01   9.5503924e-01  -2.0311152e-01  -3.3484307e-01   2.5174558e-01  -3.0051630e-01   6.4024481e-01  -9.0893292e-01  -8.9452361e-01   7.1262868e-01   5.2865101e-02   2.9656773e-01  -2.5062505e-01  -3.7730682e-01  -7.4668474e-01  -5.3023985e-02   9.1407376e-01   2.9325563e-01  -6.2099537e-01   3.5674794e-01   2.3821940e-01   1.0113611e-01   2.0792959e-01   8.5254894e-01  -1.6695459e-01   4.3435920e-01  -1.0955102e-01  -6.4694301e-01  -3.9658926e-01
   2.8659204e-01   5.5199307e-01  -8.5062702e-01   2.9294868e-01   6.7039861e-02   1.5092642e-01   9.2584725e-01   7.1330541e-01  -9.0241659e-01  -7.7210999e-01   2.6906959e-01  -5.8751297e-02   4.4775976e-01  -3.9935119e-01   8.1288025e-02   3.4291526e-01  -5.3110289e-01  -3.3533293e-01  -5.2059966e-01  -4.0747883e-01   5.4128083e-01   8.5445799e-01  -5.6974059e-01  -4.6095309e-01  -5.8095434e-01   7.2636923e-01   6.6447902e-01  -3.8286065e-02  -2.8686364e-01   8.6860903e-01  -1.1663165e-01   9.6760099e-01   4.5059851e-01  -4.4289126e-01   4.8053701e-01   6.9592329e-01   2.5608135e-01  -2.3017612e-01   7.8625556e-01  -6.5074454e-01  -7.5242382e-01   8.9285582e-01   9.7391382e-01   6.4189446e-01  -7.7242539e-01  -1.6891373e-01   6.4408965e-02  -2.5302331e-01   3.0168046e-01   1.0966159e-01   6.7044007e-01   4.1414736e-01  -9.5227974e-02  -6.0746290e-01   9.3416756e-01  -6.3028047e-01  -8.2758383e-01  -2.2722815e-01  -1.5115827e-01   8.1087643e-01   2.7037075e-02  -5.8843623e-01   8.9908131e-02  -4.6548024e-01  -6.7861930e-01   1.5922317e-01   5.0239218e-01   5.6116189e-01  -5.6381757e-01   9.0305757e-01  -3.7274504e-01   7.7184055e-01  -1.8650358e-01  -1.6873987e-01  -1.5851572e-01   2.5182838e-01  -6.3703961e-01  -4.4573741e-01  -7.8027038e-01   6.5863563e-01  -5.7024572e-01  -9.6696847e-01  -3.0029929e-01  -6.8513299e-01   7.1688479e-01   6.4214253e-01   7.1893350e-01  -6.2639325e-02   5.5417353e-01   9.9324198e-01  -2.3218600e-02   7.4967655e-01  -8.6098104e-01   7.9833743e-01  -3.3085848e-01   9.6693281e-01   9.9623428e-01   6.1143088e-01  -6.4122021e-01   6.5927916e-03   5.2213851e-01   6.2594924e-01   7.8022324e-01   3.5489651e-01   9.8103408e-01  -6.5846959e-01   6.2948284e-01   8.9765289e-01   2.4190125e-01   4.8073280e-01   8.7591832e-01  -4.4735958e-01  -5.1691076e-01  -5.3239451e-02  -1.8969912e-01  -1.1261357e-01   3.4054178e-01  -4.9701200e-01   5.5935038e-01   1.5630333e-02   1.5449380e-01  -2.2192035e-01   1.9092032e-01  -1.5970556e-01  -4.4743388e-01   1.4053015e-01  -8.0601767e-01   7.0537195e-01  -6.0999054e-01  -2.7611302e-01   6.5918275e-02   5.9073571e-03   7.7151265e-01   9.4216248e-02   8.4635787e-01  -5.5559292e-01  -4.9611730e-01   3.0256010e-01   5.1221987e-01   5.6713040e-01  -8.8670995e-01   8.1459578e-01   3.2457268e-01   4.2134095e-01   5.8739093e-01   4.4433898e-01  -2.0858122e-01   9.4747375e-01  -9.0806600e-01  -5.5819543e-02   6.3770404e-01   2.1915562e-01  -9.6638579e-01   6.5975686e-01  -8.0632447e-01   7.6171510e-01   2.6830686e-01  -3.6520766e-01  -1.4306843e-01  -3.6588775e-01  -7.9701129e-01   5.2704036e-01   3.7769489e-01   2.1575462e-01  -6.1751184e-01  -4.0167850e-02  -6.3727664e-01  -8.5452182e-01   4.6934722e-01  -8.4010018e-01   5.3255118e-01  -2.7473339e-02  -4.7199229e-01  -5.6428603e-02   5.7155398e-01  -8.0796929e-01   7.9505686e-01   8.0560690e-01  -4.1469186e-01   8.8373562e-01  -8.5933236e-01   7.5391658e-01   3.7324264e-01  -3.9777225e-01   7.6016845e-01  -4.7893795e-01   6.0156262e-01   2.3800234e-01  -4.4063476e-02  -3.1077947e-01  -6.1591524e-01   2.8348523e-01  -8.5965898e-01  -6.9857965e-01  -3.3065145e-01   5.2621942e-01   9.3060201e-01  -3.8412057e-01   1.0797194e-01   5.4273582e-01  -4.6309410e-01   5.9408969e-01  -4.0890914e-02   6.3149601e-01  -9.8213602e-01  -5.5628211e-01  -3.0273892e-01   5.2973069e-01  -6.6847523e-01   1.3726419e-01   8.3240541e-01  -6.0007933e-01  -1.3079342e-01  -3.2518080e-01   6.4881188e-01   3.1812753e-01  -2.6415730e-01   1.7761862e-01  -7.6220516e-01  -6.5278486e-01   1.6646425e-01   9.3128475e-01   3.7037892e-01  -5.5632761e-01  -1.9675748e-01  -1.9620401e-01  -6.1074477e-01   5.2723893e-01   1.3934515e-01   8.7235710e-01   2.8223451e-01  -5.3716191e-01   1.3851291e-01   3.9856145e-01   8.3921869e-01   4.5454661e-01   7.7801785e-01  -7.2626634e-01   4.7576728e-01  -8.0610750e-01  -7.8686666e-01   3.8965477e-01   3.0606130e-01   7.8919418e-01  -3.2581789e-02  -2.6915559e-01  -9.9224691e-01  -5.6494324e-01  -6.5120260e-01  -9.0126006e-01  -7.2095741e-02  -5.2486197e-01  -9.8639804e-01   5.9829071e-01  -2.6736878e-01   1.8022621e-01  -3.8477011e-01  -3.0276707e-01   1.0939815e-02  -9.1753600e-01  -2.8332036e-01   4.9905452e-01  -4.3949767e-01   6.0591909e-01  -4.1820727e-01  -2.3494787e-01  -3.6173582e-01   4.0400360e-01   3.6630463e-01   5.1428839e-01  -6.8957413e-01  -6.2064420e-01   5.7360996e-01   5.8510518e-01   7.0987849e-01   2.3571867e-01  -3.6472371e-01  -5.7878965e-01  -4.2696722e-01   1.2600779e-01  -7.3132407e-01  -9.3754327e-01   2.7216070e-01  -2.9561776e-01  -6.4270308e-01   4.2448734e-01  -8.2290059e-01   6.2508654e-02   8.0032690e-02  -5.0284962e-02   6.6598157e-01   4.1913569e-01  -5.5767865e-01  -9.2238391e-01   9.1532816e-01  -1.2594535e-01   6.4222311e-01  -9.0283915e-01   1.1343946e-01  -5.7984014e-01  -5.3576342e-01   1.0485786e-01  -2.5680531e-01   9.1870408e-01   2.6631374e-01   1.9554046e-01  -2.9753316e-01  -5.3117517e-01  -5.1130296e-01   7.6672645e-01  -2.0060574e-01  -1.0547427e-01  -9.6698555e-01   1.8843108e-01   1.5080055e-01  -1.9369344e-01  -4.6762272e-01   5.1723757e-01  -2.8639167e-01   6.6547330e-01  -1.1639757e-01  -8.0724814e-01  -4.6466333e-01  -8.5288411e-02  -1.7125282e-01  -3.3762133e-01  -8.2254333e-01   7.2952478e-01  -6.2629479e-02  -9.3350236e-01   4.0083301e-01  -4.4901909e-02  -4.5032315e-01  -2.7922432e-01   9.5576965e-01  -6.7030350e-01   5.8298667e-01  -8.8659335e-01   8.8530845e-01   9.9676321e-01  -7.9212024e-01  -1.3732257e-01  -4.3768343e-01  -5.1848529e-02  -1.0965339e-01  -2.5663449e-01  -9.1077261e-01  -1.9509274e-01   6.8774315e-01   1.0204999e-01   5.1102597e-01   6.3283720e-01   6.8468638e-01   6.1478539e-01   8.5505148e-01   3.1175802e-01   7.3758412e-01  -5.6186679e-01  -5.0589773e-01   8.2920932e-01  -4.0109552e-01  -2.5519157e-01   9.5251912e-01  -3.2692441e-01   5.4053908e-01  -8.5593759e-01   1.8124601e-01  -6.2462776e-01   1.5791210e-01  -9.4203704e-01   7.5137360e-01  -5.5969197e-01   3.5621379e-01  -5.5539809e-01   6.0950740e-01  -6.3804160e-01  -4.2192309e-01  -9.7607803e-01  -3.9971748e-01  -8.3808380e-01  -7.3331620e-01   9.2322883e-01  -1.3618113e-01  -2.4824443e-01  -8.3668408e-02  -4.1384713e-01   4.4343318e-01  -3.6326622e-01   2.9457059e-01   1.4983849e-02   5.4911580e-01  -1.1617573e-01  -8.1675545e-01   8.7695926e-01  -1.0852926e-01   9.8036496e-01  -4.8087294e-01  -2.9948916e-01  -6.1388777e-01   9.0372372e-02   7.2731206e-01   3.0660490e-01   7.6755607e-01   4.1291384e-01  -2.8096949e-03   9.2089256e-01  -3.9888408e-01  -1.6947191e-02   6.4345144e-01   3.2734487e-01   2.0267320e-01   3.6608634e-02   7.8037743e-01  -4.2426265e-01  -2.6643283e-01   7.2293811e-02   2.1058966e-01   3.3625170e-01  -6.6787657e-01   7.3471771e-01  -4.6278844e-02  -6.7936510e-01   8.1899460e-01   2.5150492e-01   2.2147839e-01   2.5626711e-01   7.7941626e-01  -5.2995663e-01   8.5524363e-02   2.2895855e-01  -7.6531369e-01   8.0110462e-01   8.0446146e-01  -4.7557946e-01   7.7613246e-01   4.4829374e-01  -1.9420345e-01  -5.9616830e-01   8.6313474e-01   9.8539800e-01   3.4550773e-01   1.0867649e-01   6.2382393e-02  -7.3776590e-01   4.6264963e-01   3.9384902e-01  -6.0444590e-01  -6.4971935e-01  -9.9895709e-02   8.6700295e-01  -1.2678980e-01  -7.8008220e-02   4.0316393e-01   5.2270550e-01  -9.1814185e-01   2.0235038e-01  -3.3167392e-01   8.7544522e-01  -1.0907058e-02   8.8276448e-01  -1.1347902e-01  -8.3274183e-01  -6.0391976e-01  -5.4804142e-01  -8.3208967e-02  -5.3925889e-01   4.5039379e-01  -9.1585474e-01   4.2665390e-01  -2.3275223e-01  -5.0296082e-01  -6.0700271e-01   4.0322476e-01   9.6018431e-01   9.5087597e-01  -1.7828301e-01   2.5261922e-01   4.7471914e-01   4.0534387e-01   2.9399038e-01   4.1068209e-01   3.0877003e-01  -1.2761635e-01   3.5287584e-01   9.4435941e-01   2.4733150e-01  -9.9312498e-01   8.9880119e-01  -8.4912512e-01   1.6909922e-01  -4.1707265e-01   5.9932234e-01  -2.9133113e-01  -8.4560835e-01   6.6720012e-01  -8.4305523e-01   5.0524217e-01  -8.3257380e-01   7.1697918e-01   6.4003143e-01   2.3237926e-01  -9.1771452e-01   4.9449469e-01  -1.4173408e-01  -3.8536122e-01   5.9812780e-02   9.2198822e-01   6.2410520e-01  -2.2664171e-01   3.5345037e-01   9.1392097e-01   5.2737794e-01   7.9485709e-01  -6.1384821e-01   8.0255256e-01   7.5191265e-01  -6.0502677e-01  -8.0883839e-01  -4.4974675e-01  -5.5368255e-01  -8.6002801e-01  -7.9913609e-01  -6.4591834e-01   9.4753500e-01  -7.0228519e-01  -9.0011671e-01  -2.7048350e-01   5.1902496e-01  -1.2409828e-01  -7.5097279e-01  -9.1809515e-01  -7.7639950e-01  -1.7309656e-01  -6.9660107e-01  -7.3292532e-01   5.0367364e-01  -5.6382390e-01  -3.1207700e-01  -3.1343157e-01   2.8347359e-01  -7.5805796e-01   4.8205935e-02  -3.2899815e-01   2.8393955e-01   4.3751686e-01  -7.9919999e-01   4.1322695e-01   8.9400622e-01   1.3801721e-01   1.9101411e-01  -1.1183591e-01   7.0935387e-01   9.2123214e-01   8.7394819e-01  -6.2988288e-01   1.1825635e-01   3.4641681e-01   5.4339667e-01  -8.3845044e-03   4.4805196e-01  -5.5961783e-01   1.1166968e-01  -8.5287740e-01   5.6672824e-01   5.2481730e-01   6.2892448e-01   5.0933756e-01  -8.6552023e-01  -9.7433334e-01   9.4407640e-01  -3.9671080e-01  -3.9905735e-01  -5.2141893e-01   8.5039853e-01   2.6163755e-01  -6.8507408e-01   7.7161049e-01   3.3255227e-01  -9.6995934e-01   1.2609944e-01   7.2668446e-01  -4.8426061e-02  -5.2079933e-01  -2.5229701e-01   1.3135020e-01  -2.1478649e-01   9.1127345e-01  -3.9715527e-02   6.3980461e-01  -7.9290318e-01   8.9210464e-01  -4.6639471e-02  -9.0726464e-01   6.6861077e-03   7.3613487e-01   1.1794058e-01   7.3509356e-01  -9.3290523e-01  -2.3883506e-01  -3.2226638e-01  -2.9729045e-02   1.1039002e-01   5.7838439e-01  -7.8805223e-02  -9.9326891e-01  -7.4950357e-01   5.6405888e-02   8.7374333e-01  -9.9546424e-01   6.7204999e-01  -7.0170126e-03  -1.6101312e-01  -5.0620486e-01   4.6133821e-02  -3.9263329e-01   6.9999213e-02  -6.6381902e-01  -8.0176839e-01  -6.9856759e-01  -7.3838530e-01   6.4366737e-01   3.7253699e-01   8.1914647e-01  -3.0183375e-03  -1.9046229e-01   7.4644715e-01   2.0201111e-01   4.3223894e-01   8.9533931e-01   9.0286341e-01   7.0950081e-01   8.9072726e-01   4.6655753e-02  -7.8390939e-01   8.0923196e-01   1.3452860e-01   9.3523954e-01   5.0334209e-01   7.9463785e-01  -4.8635892e-01  -5.5817748e-01   5.1966438e-01   9.4636945e-01  -5.8721766e-01   6.9262323e-01  -6.5260315e-01  -8.6082886e-01  -3.7943353e-01   5.1687027e-02   1.4952929e-01   5.6789340e-01   2.2375570e-01  -4.1337742e-02   9.6686958e-01   3.7971799e-01   5.8339353e-01  -3.6763342e-01  -2.2533876e-01   4.2333501e-01  -5.8534583e-01   5.4700701e-01   1.0062703e-01   5.8571875e-01   7.2900036e-01   7.3640239e-01   3.2377168e-01  -7.2781957e-02   3.9306966e-01  -5.7406360e-01   7.6401534e-01  -8.1897165e-02   4.0629864e-01  -7.9882393e-01  -5.7790202e-01  -9.5660121e-01  -1.6463462e-01   3.4236608e-01  -7.3710858e-02  -6.4848062e-01   4.1234891e-01   9.3399509e-01   3.7466643e-01   7.4438777e-01   6.5938790e-01  -5.4155611e-01  -9.5142680e-01   8.9031538e-01   8.8813808e-01  -6.8495736e-01  -7.7899401e-01   1.0792921e-01   8.2860229e-01   9.5369190e-01   1.8627195e-01  -6.2533990e-01  -5.5942337e-01  -9.7028550e-01   6.2359320e-01  -3.6840210e-01  -9.9296764e-02  -8.2287933e-01  -7.0973125e-02  -9.4714059e-01   3.0186757e-01  -4.0278025e-01   6.0839064e-01  -8.4259536e-01   4.7159454e-01  -6.9830677e-01   9.8126025e-01   2.5273538e-01   5.5266279e-01   3.2832471e-01  -8.3102955e-01   1.4358583e-01   1.5027508e-01  -2.4328649e-01   6.6413503e-01   8.2166354e-01  -3.7608927e-01   5.6629448e-01   7.2876687e-01   7.2294155e-01  -5.5028896e-01   4.5080432e-01  -6.7698121e-01   1.6166124e-01  -5.5962279e-01  -1.1598137e-01  -5.2751686e-01   4.3625423e-01  -6.8427217e-01   8.5825763e-01   9.4251406e-02   4.7090559e-01   6.2091747e-02   5.5856370e-01  -5.4696837e-01  -9.0071208e-01  -8.0102980e-01  -2.6171611e-01  -2.2669856e-01  -3.7240006e-01  -7.9260916e-01   6.4127658e-01   3.3581419e-01   2.6960972e-01  -6.8168789e-01   6.7413988e-01   7.7339587e-01   4.0664970e-03  -2.1527476e-01  -6.1921576e-01  -5.2351619e-02   3.1677458e-01   5.3092507e-01  -5.8428585e-01   2.0091019e-01   8.5202621e-01  -7.3772861e-01  -2.3179486e-01   5.1454799e-01   1.2271473e-01   8.4061138e-01   6.6516567e-01   3.2711804e-01   3.9470830e-02  -8.7425609e-01  -1.3516421e-02  -8.1609147e-01  -3.3812312e-01   2.1822612e-01   6.0095579e-02  -3.3976144e-01  -4.2414607e-01  -3.6754060e-01  -2.7937224e-01  -6.2021297e-01   7.1323858e-01   6.1785374e-01  -4.8040240e-01  -7.1256048e-01   6.1800241e-01   3.6269913e-01   3.1544246e-01   6.5754167e-01   6.3196260e-01   1.3832117e-01   9.2446983e-01   2.0674687e-01   8.3169975e-01   4.3182072e-01   5.0660949e-01   8.0483011e-01  -1.7482203e-01  -6.0249423e-01   6.1692869e-01  -1.9686545e-01  -4.8559452e-01   3.5668760e-01  -1.3887346e-01  -2.4736975e-01   9.7840283e-01   5.4845034e-01  -4.0194922e-01  -7.8561555e-01  -2.1640116e-02  -1.2428429e-01   1.4532738e-01   3.2699852e-01   4.1656341e-01   4.9662885e-01  -1.8174291e-01   6.0650386e-01  -7.9514609e-02  -6.2148493e-01   2.0467469e-01   8.7232321e-01  -2.8599577e-01   6.6539925e-01   8.7447550e-01  -8.9909219e-02   5.7588582e-01  -2.8191819e-01  -7.9501865e-01  -1.6087428e-02  -6.4218211e-01  -8.0881940e-01  -9.8301969e-01  -6.8544132e-01   7.4399113e-01  -3.3901778e-01  -3.8488281e-01   7.3797245e-02   6.6508742e-01   4.4122044e-01   8.2099778e-02  -7.2213454e-01   6.7100826e-01   8.0678592e-01  -5.4326144e-01   9.2193803e-01   6.3468986e-01   2.3781606e-01  -8.8241527e-01  -8.2297066e-01   5.2194833e-01  -1.2947921e-01   9.1627213e-02   8.3840879e-01  -3.3399892e-01   5.2789961e-01  -3.8429741e-01  -8.5370189e-01   2.0202566e-01   3.1478923e-01  -8.7073063e-01   8.7117911e-01   5.5123488e-01   1.4657588e-01  -8.6149490e-03  -4.7048480e-01  -1.7925830e-01   4.3010444e-02  -3.8669900e-01   2.3846224e-01  -5.2192389e-01  -6.1884616e-01  -5.5145034e-01  -1.5443847e-01   6.4860433e-02  -3.9600288e-02  -9.6191882e-01  -5.1860491e-02   4.4728730e-01  -8.9711955e-01  -5.6063674e-01  -3.3653477e-04  -3.9052781e-01  -5.6483346e-01  -4.2525643e-01   1.8293669e-01   7.3648740e-01  -3.0639687e-01  -5.4093428e-01   9.6099257e-02   2.9644897e-01   7.4674450e-01   2.7828628e-01   7.0955326e-01  -4.0341286e-01  -9.9863151e-01  -4.2857704e-01   4.8632375e-01   2.2633208e-01   5.3566908e-01   1.9369521e-01   9.1991958e-01   4.6229638e-01  -7.0374684e-01   6.5414218e-01  -4.3600875e-01   1.1075414e-01   3.7914001e-01  -5.0246571e-01   8.6606632e-01  -1.3946244e-01   5.6491766e-01  -3.5795528e-01  -6.5995541e-01  -9.3908825e-01   6.7364766e-01  -1.5876023e-01  -9.6787649e-02   5.0606199e-01  -8.4831500e-01  -8.3038832e-01  -5.6814432e-02   6.0777836e-02  -8.9127539e-01   6.2450239e-01  -4.3494073e-01   3.0611543e-01   8.6488188e-01  -7.1880623e-01  -4.6764551e-01   5.7476465e-01  -3.6176949e-01  -6.9165445e-01   5.7562822e-02   1.8346756e-01  -1.4173354e-01  -6.8470975e-01   8.2103151e-01  -5.2049518e-01  -8.4119891e-01   7.9566425e-01  -1.7050311e-01   7.8963321e-01   8.4274501e-01   3.3220696e-01  -2.8517803e-01   6.1082364e-01   3.5620600e-01  -5.9573786e-01   1.1078406e-01   8.4267604e-01  -8.7019690e-01   5.6888854e-01  -1.9642610e-01  -8.7163264e-01   6.4869071e-01   7.3660152e-01  -2.0168495e-01  -6.8766894e-01   3.0342091e-01  -7.2200093e-01  -1.7421033e-01  -9.0463291e-01   1.6408871e-01  -1.0146922e-01   6.2244870e-01  -9.1904525e-02  -8.9594885e-01   7.3744993e-01  -4.6562571e-01  -9.9188484e-01   7.4805516e-01  -1.2839153e-01  -9.4120510e-01  -1.8865516e-01   9.1099234e-01  -2.4887527e-01  -1.7158942e-01  -9.9400219e-01   4.9032138e-01   2.1324214e-01  -8.9388576e-01   6.7930478e-01   1.3218927e-01  -7.8749495e-01   3.9944085e-01   3.1372927e-01  -1.2870687e-01  -5.4793308e-01   7.1671630e-01  -2.0210659e-02  -3.2103114e-01   8.2506360e-01  -7.4618983e-01   5.1340210e-01  -8.7792483e-02   6.5850471e-01  -1.3610969e-01  -4.7734002e-02  -8.3586250e-01   3.9985726e-01  -2.5848381e-01   5.1273298e-01   6.2590283e-01
   1.7370133e-02  -2.8349577e-01  -4.8223979e-01  -7.1478062e-01   9.6587486e-01  -7.7776511e-01   9.7676583e-01  -3.3076546e-01  -4.7094229e-01  -6.0686099e-01  -3.0251405e-01   3.5411279e-01  -3.8654321e-01  -6.9871506e-01  -2.9607532e-01  -1.9484122e-01  -4.2945748e-01  -1.6651143e-01  -5.1377969e-01   1.8246987e-01  -3.5294588e-01  -6.5715790e-02   6.3571150e-01   1.1946369e-01   5.9693553e-01  -4.3988788e-01   6.7462198e-01  -8.9364816e-01  -5.4713046e-02   6.9232636e-01   1.6473892e-01   9.3132049e-01  -7.4166596e-02   7.9915252e-01   6.5342732e-01   7.1706474e-01   6.5851279e-01  -9.6981960e-01   9.6130255e-01   3.8707942e-01  -9.6319536e-01   7.9214448e-01  -1.0908569e-01   6.2729476e-02  -7.1006721e-01   5.1560991e-01   8.1865750e-01   2.9136125e-01  -8.3702223e-01  -2.7717563e-01  -2.3176564e-01   8.7050616e-01   5.8832252e-01  -9.3989577e-01  -6.7878493e-02   6.1123574e-01  -9.1405582e-03  -1.7721474e-01  -8.4765058e-01   1.4483887e-02   7.5527504e-01   5.4061839e-01   3.2376904e-02  -8.1265859e-01   8.2139976e-01   7.7738777e-01   1.7768563e-01   2.9386171e-01  -7.0561274e-02  -9.4519893e-01  -1.1125212e-01  -1.6556471e-01   9.5322107e-01  -9.6310006e-01   8.2755414e-01  -6.8364686e-01   3.6729364e-01   8.9334213e-01   9.4532127e-01   7.8577706e-02   1.5351730e-01  -5.8577162e-01  -2.0002930e-02  -1.6293077e-01  -1.8265105e-01   8.3093888e-01  -6.3855815e-01   5.9589220e-01  -4.5753377e-01  -8.2304021e-01   8.5120814e-01  -1.2801373e-01   5.6142902e-01  -5.4098388e-01   5.6491404e-01  -2.5462684e-01   2.4942104e-01  -3.9672769e-01  -9.6859113e-01   4.1033101e-01   6.2793052e-02   3.8302019e-01  -8.9961086e-01   7.0702127e-02   4.5534263e-01   6.7450837e-01  -7.8710966e-01  -7.0111767e-01  -4.6342170e-01  -9.7250384e-01   9.2284253e-01  -9.6034334e-01   2.3001609e-01   1.6970584e-01   5.7669673e-01  -6.4505462e-01  -5.1249088e-01  -4.0003747e-01  -4.0442363e-01   7.6805685e-01  -5.1178299e-01  -1.5417420e-01   9.0194474e-01  -4.5144680e-01  -3.1217455e-01  -5.2862299e-01  -9.4381188e-01  -3.1923700e-04   6.0938018e-01  -7.4214565e-01   2.7768639e-01  -3.7238440e-02   9.7716691e-01   4.6425803e-01  -4.1504997e-01  -9.9119228e-01  -1.3113072e-01  -2.2123415e-01   9.5199564e-01  -1.5570992e-01   1.2508928e-01   5.8964239e-02  -4.9968334e-01  -3.0477572e-01   4.2866839e-01  -1.5155872e-01   8.4276346e-01   3.6782252e-01   5.3969349e-01  -3.5269384e-01   3.8640064e-01  -1.3288456e-01  -9.9694237e-01   6.2504213e-01   2.6453507e-01  -8.3588877e-01   7.4028693e-01   4.9992470e-01  -1.6121471e-01   2.8019345e-01   7.5066414e-01  -1.3242173e-01   2.1611466e-01  -3.8461315e-01   3.7935214e-01   5.2457700e-01  -3.6801876e-01   8.1914261e-02  -1.2565944e-01   1.8157097e-01  -6.3003026e-01   8.9840043e-01   7.0254995e-01   1.6730122e-01   6.4012865e-01   8.4575089e-01  -5.3138100e-01   1.0823629e-03   8.9144884e-01   1.4984910e-01   1.3298546e-01   3.1677591e-01  -5.8466449e-01   6.7346644e-01   6.3257452e-01   6.1588222e-01   6.7506852e-01  -8.1373943e-01  -2.5431445e-01  -3.2624343e-01   7.5391570e-01  -6.2741823e-01   9.7951011e-01  -6.9651372e-01  -2.0210499e-02   5.7058980e-01   4.0981963e-01  -1.3902834e-01  -3.1429682e-01  -7.8428981e-01  -7.5069101e-01   5.3701488e-01   7.9933431e-01   8.0644695e-01  -8.0118106e-01   1.8725469e-02  -6.4005541e-01   5.0023612e-01  -4.9622040e-01  -3.5484332e-01   4.1941253e-01   3.5022414e-01   5.3285169e-01  -2.3605672e-01   6.3845983e-01   4.6412525e-01  -3.7969055e-01   5.3562245e-01   3.4570397e-01  -1.0937288e-01   3.5958420e-01  -6.2292263e-01   6.6470592e-01  -4.5911042e-01  -8.4098325e-01   2.6256883e-01  -8.6355443e-02  -2.2505742e-01   2.9757748e-02   4.4895606e-01   2.2938886e-01  -3.7031610e-01  -8.8099207e-01  -9.8186512e-01   1.5840509e-01  -4.4602395e-01  -7.4364951e-01  -4.4576060e-01   8.8775281e-01   3.1956812e-02  -4.2411285e-01   7.4571598e-01   9.4007153e-03   2.9538371e-01  -1.7696441e-01  -8.9126894e-01  -6.1380721e-01   4.8439652e-01  -6.3340202e-01   2.4452123e-01  -4.4971450e-02  -2.8717969e-01  -9.0156346e-01   1.3217372e-01   1.6976621e-01  -9.5512545e-01   5.4547393e-01  -5.1996882e-01   4.5046114e-02   9.1297116e-01   1.9945410e-01  -6.0703475e-01  -4.7457129e-01   7.8297844e-01   5.6118965e-01   6.0724637e-01   1.9507077e-02   7.2503516e-02   7.9380137e-01  -7.1887781e-01   7.4844875e-01   1.7918842e-01   3.9267919e-01   9.9759990e-01  -7.6023857e-01   6.7635022e-01  -5.9853762e-01  -6.2726726e-01   4.0292363e-01  -4.1662246e-01   8.4516259e-01  -9.4718398e-01   7.8308472e-01  -4.8464510e-02  -1.3671189e-01  -7.8127204e-01  -4.7237737e-01  -4.2059477e-01  -3.7610279e-01   4.3531845e-02   9.0813273e-01   8.7042788e-01   6.8995696e-01   7.8287312e-01  -6.4001816e-01   6.0665292e-01  -6.8328485e-01   1.5966571e-01  -7.0913267e-01   3.9485374e-01  -2.7341391e-01   4.3840658e-01   8.9618973e-01  -9.8987399e-02   6.0528043e-01  -2.9410852e-01   6.4808309e-01  -7.5097301e-01   4.0960988e-01  -6.0728526e-01  -2.5407499e-02  -2.7190374e-01   6.0340298e-01   4.3846352e-01   8.9199108e-01   3.0893828e-01  -1.4526581e-01   4.6655774e-01  -8.7189417e-01   9.9393198e-01   3.4725628e-01   2.0205304e-01  -3.0456424e-01  -6.6990185e-02  -6.1908627e-01  -5.1340379e-01  -8.9100151e-01  -7.5700642e-01  -5.0851630e-01  -5.5671632e-01  -5.4391002e-01   4.5188443e-01  -2.0083919e-01  -3.3993474e-01  -8.9892411e-03   5.0579438e-01  -6.3986610e-01   1.3348003e-01  -9.8923613e-01  -8.9868692e-01  -1.2871783e-01   9.2459594e-01   6.1426965e-01   8.7624479e-01   9.9782500e-01  -1.4669251e-02   4.5382416e-02   8.0323650e-01  -6.7682934e-01  -3.9626910e-01   5.3954080e-01   1.0778022e-01   7.7982025e-01   7.0204317e-01  -3.7631533e-02  -3.1629692e-01  -7.6187912e-01   1.9832713e-01   9.4079803e-01   5.4140242e-01   1.9135385e-02  -7.3104488e-01   1.7997693e-01   5.9064672e-01   7.3493312e-01  -7.0996139e-01  -6.9980070e-01  -1.0627146e-01   2.5154924e-01  -6.6542209e-01  -7.3712643e-01  -7.6409890e-01   6.6030075e-01  -5.4527584e-01   5.1498269e-01  -8.9283970e-01   3.6626275e-01  -3.1097766e-01   6.7584942e-01  -6.6824104e-01  -5.6795163e-01  -4.0262601e-01   6.2515152e-01   2.7784937e-02   3.6752683e-01  -7.4753034e-01   7.0727497e-01  -4.0052772e-01   2.7510511e-01   5.6060066e-01   2.7195913e-01  -8.0488418e-01   2.4237903e-01   4.7947081e-01  -2.2289925e-01  -2.4200605e-01  -6.0691793e-01   8.1710746e-01  -8.8368385e-01   6.1380277e-01   8.3833014e-01   2.4477535e-01  -4.6119271e-01   1.3820906e-01  -1.6539161e-01  -4.7967728e-01  -7.4223992e-01   1.3068050e-01  -4.6130817e-01  -2.1082021e-01   1.4351857e-01   7.1361263e-01   6.8801572e-02  -8.7649491e-01  -1.3813553e-01  -6.2891404e-01  -7.5051992e-01   9.4793989e-01   5.1501350e-01  -1.8796092e-01  -1.7607617e-01  -3.1661912e-01  -4.8289000e-01  -1.1790243e-02  -8.9636102e-01   2.1654772e-01   8.5766931e-02  -6.4225318e-01  -3.0002843e-01  -8.4824965e-02   1.3139135e-01  -4.4778318e-01  -7.2427243e-01   1.0388409e-01  -5.9222681e-01   7.7136894e-01   3.1442088e-01   4.7249967e-01   4.7012200e-01   4.6731110e-01   2.5378394e-01  -2.6276349e-01   1.1214372e-01  -4.6602548e-01   7.4615241e-01  -5.2399010e-01  -3.5431763e-01  -8.5251502e-01   8.9507668e-01  -9.9582662e-01   3.3742068e-01  -5.6717049e-01  -6.2586045e-01  -2.8801733e-01   4.0015404e-01  -1.0021654e-01   9.1221627e-01  -7.5888535e-01  -1.2205101e-01   6.6076334e-01   4.6373067e-01  -9.8381933e-01   6.6907674e-01  -5.8139992e-01  -5.8080115e-01  -3.3688944e-01   3.1252580e-01  -2.1987504e-01   5.7796618e-01   7.0057820e-01  -9.2486125e-01   7.2890276e-01   4.4299776e-01  -4.6432346e-01   1.5037909e-01  -4.5237554e-01   4.1280374e-01   7.4522612e-01   6.2173998e-01   9.5621917e-01  -4.2117626e-01   1.0060949e-01   5.0165171e-01  -7.9115382e-01   7.2904437e-01   4.6703753e-01  -7.3481821e-02   7.9845095e-01   5.1055919e-01   7.5302235e-01  -9.0660306e-01  -8.3835495e-01  -8.5132316e-01  -6.7481526e-01  -8.7052075e-01  -4.1805289e-01   3.6174653e-01  -8.3445874e-01  -1.3957725e-01  -7.0612616e-01  -2.9751979e-01   8.9701925e-01   3.0920933e-01   1.2174793e-02  -7.7815210e-01  -6.2647597e-01  -7.0443924e-01   1.9836352e-01  -7.9962567e-01  -2.6909971e-01  -7.0939984e-01   9.7490988e-01   5.9060600e-01  -1.8325914e-01  -5.6522855e-01   8.6700754e-01  -6.0345170e-01   3.9421609e-01  -6.4944688e-01  -6.6946368e-01  -1.0403754e-01  -7.7514383e-01  -5.6806168e-01  -9.3267303e-01  -9.6919547e-01  -4.2474537e-01   5.8937035e-01   6.4161815e-01   9.8480531e-01  -6.3556569e-01   1.6900121e-01   1.0702800e-01  -4.4603611e-01   1.9368055e-01  -1.1928229e-01  -1.3729487e-01  -3.4551657e-01  -7.2877405e-01   5.0438791e-01   9.2801007e-01  -9.8650980e-01   9.5872434e-01   6.7998095e-01   8.6280223e-01  -5.5431644e-02  -3.3593738e-01  -2.9605818e-01  -4.9926443e-01  -6.9040513e-01  -9.6004608e-01   7.6674229e-02   7.1712439e-02  -1.5825789e-01  -1.7124256e-01   9.3419102e-02  -7.5718713e-01  -8.6668878e-01  -7.6577915e-01  -6.0199711e-01   2.9036911e-01   1.9760913e-01  -4.6695663e-01  -2.5896591e-01   5.6026819e-01  -8.8978811e-02  -7.1936723e-02  -7.1800178e-01  -2.2566224e-01   5.5044800e-01   8.5699549e-01  -7.4985406e-01   1.7412502e-01  -4.2869607e-01  -8.3897566e-01  -4.3033974e-01  -9.3273783e-02  -9.4952191e-01   8.6217542e-01   5.5983971e-01   1.6258472e-01   1.0254719e-01  -4.2553612e-01   4.7724384e-01  -7.8453243e-01  -3.0061322e-01   9.8977196e-01   2.3820748e-01   3.5869782e-01   7.9030997e-01   5.5793540e-01  -1.5678923e-01  -9.6188338e-01  -4.2330877e-01   2.6603099e-01   6.2810951e-01  -6.2981284e-01   4.1193301e-01  -2.7381055e-01  -4.6185729e-01   3.3149722e-01  -6.7422377e-01   3.9109704e-01  -5.2828696e-01  -8.5337061e-03  -1.2632969e-01   1.6858935e-01   1.7915375e-01  -1.2265196e-01   6.9848317e-01   6.7727720e-01  -3.6287795e-01  -6.0151083e-01   6.6584173e-01  -9.0480266e-01  -1.4421441e-01   5.4281370e-01   1.2471210e-01  -4.8754691e-01   3.8730886e-01  -6.9551214e-01   4.9700892e-01   6.8750842e-01   2.5289992e-01  -2.8306715e-01  -2.7238412e-01   1.4545489e-01  -4.2337895e-01   6.3371265e-01   7.3900644e-02   3.7746464e-01  -1.4563476e-02   3.5789292e-01  -4.0105560e-01  -4.3956670e-01   2.1585830e-01   7.6507704e-02  -1.2812569e-01  -1.3677395e-02  -5.9169647e-01  -9.9494989e-01   1.4705237e-02  -1.9694374e-01   3.5535281e-01   6.5017854e-01   7.1875060e-01  -5.0680916e-01   5.0197699e-01   4.8291903e-01   6.3652111e-01   9.1926226e-01  -8.4574267e-01  -9.8790259e-02  -8.0308974e-01  -1.2478752e-01  -1.2509322e-01   3.8914977e-01   6.7032616e-01   6.7397414e-01   3.4314285e-01   1.8272153e-01  -3.2565231e-01  -8.1948476e-01  -2.5256050e-01   8.1511052e-01   2.1208403e-01  -7.4925802e-01   8.7680633e-01  -6.8501706e-01   4.0505911e-02  -1.2836634e-01  -2.5676930e-01   3.8510383e-01   6.0571598e-04   7.6087929e-01  -4.1403213e-02   2.7752033e-03  -6.2916192e-01   2.5646517e-01  -9.5493141e-02   5.2236625e-02   6.6453041e-01   4.7026700e-01  -6.7413000e-01  -3.9640656e-02  -2.0852461e-01  -7.3217113e-02   7.7033435e-01   6.1472308e-01   1.3060241e-01   9.1155035e-01   1.6974432e-03   2.3618920e-01  -3.4342956e-01   9.3473580e-02   7.8859714e-02  -7.1302261e-01   6.1730843e-01   3.2781928e-01   7.4372977e-01   5.4165000e-01   2.6149824e-01  -5.5402326e-01   8.1509371e-01   1.9692812e-01  -3.0268757e-01   7.2336432e-01   1.3584551e-01  -2.9855505e-01   9.8574000e-01   9.1809306e-01   6.1400374e-01  -1.7786080e-03   8.9462831e-01  -1.8305207e-01   8.7137230e-01   3.0129168e-01  -2.6915601e-01  -1.4260974e-01  -8.2157573e-01   8.5271868e-01   4.3403277e-01  -4.4518389e-01   6.3981864e-01  -4.8206641e-01   3.9348166e-01  -7.5262952e-01  -2.3629520e-01   6.1414702e-01  -1.5880951e-01  -8.9428677e-01  -7.4659500e-01  -3.4765746e-01  -6.4947762e-01   2.2996726e-01  -3.0466060e-01  -2.3628618e-01  -8.3647612e-01   8.7101004e-01  -4.6970817e-01  -6.7702840e-01  -1.3614384e-01  -4.7076827e-01  -8.6189970e-01  -6.5577557e-01   4.7492120e-01  -1.5044491e-01   1.7176433e-01  -5.5058826e-01   3.0048369e-01   1.8796568e-03  -2.8841980e-01   3.8075810e-01   3.7475318e-01   8.0897071e-01   9.4716022e-02   2.5073427e-01  -8.0600865e-01  -2.2955012e-01  -9.5078204e-01   2.8175208e-01  -8.9949250e-01   6.8196167e-01   4.3399955e-01  -1.5630540e-01   2.9538407e-01   6.4410925e-01  -2.6620508e-02  -2.5224895e-01  -1.2911134e-01   3.2891733e-01   3.2914691e-01  -7.0468475e-01   7.0570089e-01  -3.8941556e-01  -5.0730485e-01   9.1033181e-01  -4.5349694e-01   5.4560872e-01   3.9002720e-01   3.7944786e-01  -2.9709685e-01   7.0000071e-01  -7.6343175e-01  -8.9124608e-01   5.7671028e-02  -4.4276749e-01   9.8382452e-01   8.7822324e-02   2.3726762e-01   2.4020184e-01   4.8016735e-01  -5.4288556e-01   5.5879264e-01   5.1934832e-01  -6.9208978e-01   9.4129722e-01   3.9876063e-01  -4.3272864e-01  -9.8622321e-01   9.3246368e-01   3.4957586e-01   3.2548917e-01   8.9302023e-01  -7.3456842e-01   5.2124175e-02   7.0000568e-03   5.0992572e-01   5.2736786e-01   5.4935072e-01   8.1342997e-01   1.0941235e-01  -2.6180895e-01   9.4830208e-01  -7.3217921e-01  -6.7738006e-01  -1.5089273e-01  -9.9466614e-01   2.9162774e-02  -6.5524125e-01   7.6977840e-01  -5.7707798e-01   6.8433598e-01   4.0978027e-01   1.8382232e-01  -6.7331488e-01  -2.6730824e-01  -6.6882479e-02  -1.3020973e-01  -9.5651866e-01  -3.2806088e-01  -3.0219171e-01   5.5940421e-01   8.6596503e-01  -1.0687263e-01  -2.1726936e-02  -1.3852296e-01  -7.9164758e-01   5.5003603e-01   7.5303528e-02   5.2127103e-01   6.7004841e-01   4.8179789e-02   3.4676332e-01  -5.0734000e-01  -8.0948080e-01  -5.1351532e-01  -2.3011179e-01  -4.1981093e-01  -8.8844510e-01  -9.4435558e-01  -3.3345197e-01  -5.0463263e-01   9.2174616e-01   4.1039511e-01  -8.5150418e-01   7.3093554e-01  -6.2978068e-01   9.0287665e-01   7.3878508e-01   8.6039093e-01   3.8036767e-01  -9.0358044e-01   5.3223252e-01   6.6980936e-01  -8.5408419e-01  -4.6337201e-02   8.1141630e-01   5.7689132e-01   7.1727524e-01  -1.3702051e-01  -4.6721172e-01  -3.5285259e-01   6.6010614e-01   2.8894935e-01  -8.6069638e-01  -4.6414895e-01  -5.4795111e-01  -6.8845898e-01  -4.6248819e-01   9.5314817e-01  -9.5276923e-01   9.0747612e-01  -1.2290964e-01   4.6433397e-02   8.6831227e-01   5.2245138e-01   1.1976116e-01   8.3138080e-01  -8.8028936e-01  -8.7815460e-02  -7.0160045e-01  -3.0081314e-01   4.7217054e-01   3.4649760e-01   6.1256436e-01  -8.4348010e-01  -4.1160122e-01  -4.0734208e-02   9.7547323e-01  -6.5857227e-01  -3.8233863e-01   4.9062393e-02  -2.6454374e-01   4.7666899e-01  -7.8749777e-01   8.7713259e-01   8.5783712e-01  -9.5835678e-01  -5.3728260e-01  -2.9006289e-01   6.6095601e-02  -1.0125179e-01   5.0236976e-01  -7.6600976e-01  -2.4623404e-01  -1.6510856e-01  -4.4692952e-01  -9.6128071e-01   8.1434780e-02  -1.1544200e-01   3.3683872e-01   2.6078606e-01   5.4111289e-01   5.0626853e-01  -9.3325857e-01  -8.5126357e-02   7.4606946e-01  -9.6360323e-02  -7.1513828e-01  -5.6765690e-01  -9.1378811e-01  -4.6062120e-02   4.4596023e-01  -7.9465206e-01  -6.4714608e-01   5.7054245e-01  -3.2607407e-01  -9.6212611e-01   5.0008459e-01   7.6551370e-01   2.5885650e-01  -8.0042031e-02   6.5915584e-01  -5.9709862e-01  -4.1914077e-01   2.1680779e-01   7.4524035e-01   1.8456021e-01   1.8486814e-01   9.2027066e-01  -7.8699094e-01   6.5063321e-01   7.6673044e-01   3.7441142e-01   5.0354275e-01  -1.9076826e-02  -1.7331099e-01   3.6075281e-01  -2.9678364e-01  -6.4382296e-01  -5.0824788e-01  -9.4422050e-01  -2.8411329e-01   6.6928178e-01  -9.8662707e-01  -8.7922707e-01  -1.9473433e-01  -1.8694798e-01   8.1310583e-01  -2.0155096e-01   9.5381623e-01   4.3609519e-01   6.1402101e-02   3.8405707e-01   2.6671361e-01  -3.3807329e-01   2.7545725e-01   1.0016328e-01  -7.0945842e-01  -7.1947684e-01   5.1344344e-01  -6.5202699e-01   2.4111077e-01  -8.8933014e-01   8.7535712e-01   1.3749022e-01  -9.4534224e-01   5.4702807e-02   4.3951421e-02   2.0492851e-01  -4.4745072e-01   7.8232127e-01   1.6490178e-01  -1.2704237e-01   2.4979638e-01   5.1363666e-01   7.2710602e-01   4.4819025e-01   2.6453412e-01   7.9513001e-02
   8.2721941e-01   9.5284085e-01   6.7602516e-01  -7.2514601e-01   4.1014040e-01   1.6319824e-01   4.4251406e-01  -6.2561225e-01  -9.7577781e-01   4.6224968e-01  -7.7947099e-01   8.5025852e-01  -8.0605278e-01  -2.3783240e-01   9.2610360e-01   2.7231546e-01   7.3584851e-01  -8.5432118e-02   5.4894242e-01  -4.8349062e-01  -7.5384841e-01  -3.9097190e-01   1.8421641e-01   2.7564851e-01  -6.8225818e-01  -1.1353769e-01   3.4387965e-01   9.6716006e-01  -7.2901978e-01  -3.7140149e-02   6.3421725e-01  -1.2493245e-01   5.7567706e-01   6.5344453e-01   5.3137188e-01   1.2688627e-02  -7.9412714e-01  -5.8680257e-01   4.6829204e-01   5.8406305e-01  -8.5728667e-01  -4.0683175e-02   1.7803262e-02  -5.1436188e-01  -4.6792671e-01  -8.9295314e-01  -3.4397279e-01  -1.4529087e-01   8.9445639e-01   2.9499696e-01  -5.5994182e-02   3.2581109e-01  -2.5907516e-01  -3.3966282e-01   8.9923295e-01  -8.0332440e-01  -6.1198784e-01  -9.8163051e-01   6.0215147e-01  -1.6465615e-01   4.0652001e-02   5.3478807e-01  -1.0475542e-01   7.2388789e-01   2.4963815e-01  -9.3542511e-01   7.4889001e-01   4.9374955e-01   6.8114458e-01  -2.3916119e-02   7.9393860e-01   9.3099795e-01   6.1198099e-01  -7.8756351e-01  -1.9249523e-01  -4.8454135e-02  -6.8636195e-01  -5.3051085e-01   3.9521160e-01  -4.7504016e-01  -5.5333253e-01   4.7660868e-01  -3.3103749e-02  -4.0116730e-01  -5.6722579e-01   2.8197992e-01   3.2134371e-01  -3.8533695e-01   4.9630030e-01   1.1694504e-01  -7.1064155e-01  -6.8953208e-01  -5.9903928e-02  -4.1767039e-01   3.9731138e-02   7.9083464e-01   5.8467407e-02   7.6764291e-01  -7.5452290e-01  -6.8479254e-01   2.1023799e-01   5.2207536e-01  -9.7596356e-02  -9.6045000e-01  -3.7655780e-01  -2.0713726e-01   4.5911944e-01   8.0585008e-01  -2.8615385e-01   7.7720886e-01  -9.3428932e-01   8.8564740e-02   2.6493844e-01   2.1142939e-02   5.0626608e-01  -7.3387606e-02   4.5485238e-01  -5.6696266e-01   8.5970720e-01   8.6324994e-01  -8.6126598e-01  -6.2570636e-01  -3.6044940e-01  -3.8040328e-01  -3.1063961e-01   5.3331031e-01   7.9233442e-01  -9.8033409e-01  -6.4224690e-01   3.1835693e-01  -6.4242840e-01   7.7750779e-01  -1.4520659e-01   2.7588133e-02   1.7858925e-01  -7.5738769e-01   3.2351082e-01   1.8600142e-01   5.9354186e-01  -2.6906431e-01  -9.9673771e-01  -4.4433751e-01  -8.7352958e-01   4.2520320e-01  -7.2373563e-01  -7.5637057e-01  -4.2416292e-01  -7.0249017e-01  -1.7095344e-01  -3.4516399e-01   8.6568857e-01  -6.8459030e-01   7.5092947e-01   9.3502129e-01  -4.3237088e-01  -8.4105931e-01   3.1687062e-01   1.6711864e-02  -7.7046192e-01  -4.5131239e-01   8.1136768e-01   9.8336217e-01  -3.5157233e-01  -5.7649883e-01  -1.0988933e-02   7.6732242e-01   2.3781540e-01   7.4316988e-01   6.5728620e-01   7.8604755e-01  -8.3222614e-01  -8.0249228e-02   5.1581887e-01  -9.0698434e-01  -3.8246234e-01  -4.2134524e-01   5.6365054e-01  -7.2473901e-01  -5.3061399e-01  -8.9267407e-01  -3.0417214e-01   9.6570440e-01   2.1973301e-01  -4.0455313e-01  -5.4108455e-01   2.4370217e-02   1.2135591e-01   7.7048040e-01  -1.5594539e-01  -6.8543796e-01  -7.9299899e-01   9.4954134e-01   4.1707275e-01   6.0231436e-01  -2.6358525e-01   8.3116914e-02   1.7743043e-01  -1.3776602e-01  -3.1204819e-01   9.4837273e-01   8.2877659e-01  -7.8914484e-01   6.2744327e-01   9.3685166e-01  -3.1827274e-01   3.9793414e-01   7.2310749e-01  -9.0477512e-01   3.0726253e-01   5.4632351e-01  -4.9610498e-01  -2.2831590e-01  -9.4558318e-01  -3.1990202e-01  -3.0192403e-01  -1.9091506e-01   7.6665636e-01   5.1217586e-02   2.6657605e-01  -3.6848672e-01  -6.4330315e-01   4.1336300e-01  -6.9793644e-01  -7.3526834e-01  -3.6357526e-01  -2.8064275e-02  -1.8895345e-01  -4.8282518e-01   6.7505814e-01   7.7122169e-01   7.8261960e-01  -9.7848738e-01  -1.8725171e-02  -3.3086298e-01  -9.2736237e-01   8.5640753e-01  -5.4601431e-01   3.9658267e-01  -9.5092122e-01  -3.7319630e-01  -3.8575129e-01   3.7799851e-01  -6.7593494e-01  -9.5317668e-01  -5.5169649e-02   2.7434417e-01  -5.3024966e-01   1.7244673e-01  -1.5746574e-01   8.6122288e-01  -3.5861578e-01  -4.3423039e-01   8.8961132e-01   2.6916801e-01  -4.9445140e-01   3.8559340e-01   2.7411431e-02   3.0032106e-01   7.1000587e-02   4.0600608e-01   5.1375357e-01   3.4431607e-01   6.1091775e-02  -2.7585315e-01   5.2130891e-01  -8.7834813e-02   2.2454942e-01   9.6795673e-01  -2.4943662e-01   6.4496823e-01   4.8777866e-02   7.8704526e-01  -7.3703992e-01  -1.0310481e-01   7.0184131e-01  -8.3789318e-01   9.2485132e-01   5.5515328e-01   7.7418904e-01   3.1462974e-01  -3.8570596e-01   2.3888672e-02   3.7766640e-01   6.7944520e-01   7.2023131e-01  -8.3581067e-01   1.5753450e-01  -2.1330438e-01  -6.8361086e-01   6.5435199e-01   9.6100544e-01  -5.5051829e-01  -9.6176531e-01  -7.1326626e-01   1.2287189e-01  -2.0829686e-03  -3.6400370e-01   9.0354806e-02   6.1458488e-02  -8.7681134e-01  -7.3600626e-01  -6.5826477e-01  -3.9923643e-01  -2.1500924e-01   9.0731270e-02  -9.4238609e-01  -8.7836886e-01  -1.6835976e-01   3.8761042e-01   5.3860318e-01  -7.1557194e-01   1.6903919e-01  -4.1390602e-02   4.5148173e-01   9.0250164e-01   6.5399361e-02   4.0910429e-01   8.3993470e-01  -3.2669044e-01   6.4583870e-01   2.0345047e-01  -3.2965047e-01  -4.8812611e-01  -6.3504068e-01  -4.3236155e-01   8.6301684e-01   7.2903181e-01  -2.0840163e-01  -1.8653110e-01   4.8801571e-01   8.2275296e-01   9.4529981e-01   1.8216553e-01   6.2966208e-01  -7.8253270e-01   7.3286833e-01  -8.4842226e-01  -3.3682365e-01   8.4258913e-01  -7.6260000e-01  -3.2784905e-01   8.1860801e-01   2.8516120e-01  -2.3315303e-01  -2.8092030e-01  -8.3018367e-01  -2.3962583e-01   3.7945281e-01   9.4797477e-01   2.4027008e-01  -1.2096028e-01  -8.3010402e-01   1.8949665e-01   2.9675642e-01   7.6170561e-01  -5.7596446e-01  -1.2313526e-02  -2.5821860e-01  -6.4502674e-01  -5.0077878e-01   8.2043121e-01   2.8867650e-01  -3.7569959e-01  -8.5996810e-01   2.4495892e-01   2.0704240e-01  -9.1677527e-01   3.2679379e-01   5.1764664e-01   5.5481216e-01  -3.6178737e-01  -3.2494298e-01   3.8488266e-01  -4.2033140e-01  -6.1459891e-02  -6.3213601e-01   2.3849522e-01   5.2011266e-02   6.7152978e-01   1.6474477e-01  -6.0876575e-01   8.8507544e-01  -2.2490622e-01   9.6743819e-01   7.3337476e-01   7.4300975e-01  -6.2949594e-01  -9.6880173e-02   8.8555866e-01   5.1251042e-01   7.5504251e-01  -5.8169665e-01  -7.8074900e-01   5.4728415e-01  -5.5014857e-01   8.3521769e-02  -7.5483210e-01  -5.7713762e-02   9.8583539e-02  -8.5780699e-02   5.5831419e-01   9.4079551e-01   2.5722154e-01  -1.7858948e-01   7.3178039e-01   3.4701247e-01  -3.2210860e-01   7.9240793e-01  -1.6121374e-01   7.2191632e-01   3.5809205e-01   6.4541981e-01   5.4501033e-01  -6.0623405e-01   7.9607605e-01   7.0245877e-01   5.5161893e-01   8.8992528e-01  -8.9058950e-02   9.2903996e-02   2.7797313e-01   5.6518944e-01   8.9333929e-01   4.4327289e-01  -9.3953202e-01   6.2765882e-01  -1.3788780e-02   5.3228284e-03   5.4882706e-01   4.8989826e-01   1.8292822e-01   6.0607791e-01   5.4833530e-01  -8.3733438e-03   3.2296230e-01   4.8405042e-01   8.7111310e-01  -2.7635353e-02  -4.7776950e-01  -3.0542139e-01   3.2987391e-01  -5.8566423e-01   8.9924230e-01  -8.9457854e-01  -4.1437975e-01   9.6402506e-01  -7.4794314e-01   4.4044394e-01  -7.6110903e-02  -4.5447307e-01   4.5498964e-01   5.1945611e-01   8.3264834e-01   1.4314959e-01  -3.8802613e-01   5.5230203e-01   7.9303982e-01  -4.4505466e-01  -4.6073079e-01   2.6667420e-01  -5.8984458e-01  -4.7677820e-01   3.4263881e-02   9.8231956e-01   5.7808621e-01  -5.7362125e-01  -9.3560622e-01   2.3100074e-01  -9.6058201e-01  -8.4665945e-01  -8.8510844e-01   2.8372025e-01   8.9203141e-01  -1.4132590e-01   2.7309235e-01   2.9896205e-01   2.8361815e-01  -2.4702489e-01  -1.7481774e-01   2.8144011e-01  -1.5910056e-01  -6.1738294e-01   9.1013554e-01  -1.7929829e-02   8.2529885e-01  -5.8666944e-01  -2.6665028e-01   8.4271469e-01   2.0900515e-01   3.2171432e-01   4.9102983e-01  -1.9741804e-01   1.9433985e-01  -3.1830938e-01   8.3138484e-01   3.5290142e-01  -2.1767491e-01  -7.2112299e-01  -7.7084402e-01   5.6327974e-01  -9.3050629e-02  -3.2045145e-01  -5.7121282e-01  -2.2348977e-01   9.0866897e-01   3.2172148e-01  -4.1618695e-01  -8.2501629e-01  -7.6797850e-01   5.4021741e-01   8.3768362e-01  -1.0617315e-01   7.9286084e-01   4.5475505e-03   2.0023284e-01  -6.9530571e-01   3.6689322e-02   3.2843359e-01   3.5036664e-01   8.8493469e-01   6.3454956e-01  -7.4778115e-01  -5.5628298e-01  -1.6928953e-01  -3.6256736e-01   9.4238073e-01  -4.4928660e-01  -5.1478068e-01   3.6124607e-01   3.9626793e-01  -1.7299683e-01   7.7454192e-01  -8.4164977e-01  -2.5892736e-02  -5.5696192e-01   4.8046825e-01  -4.3549300e-01  -3.2184397e-02   5.7413118e-02  -8.9199377e-02  -8.3721321e-02  -7.7888939e-01   9.3320411e-02   8.8987043e-01  -4.9545109e-01  -6.8284031e-01   1.2351169e-01  -8.3812749e-01  -8.7655513e-01   3.1856012e-01  -1.7932458e-01  -7.2660458e-01   4.1811521e-01  -7.1868818e-01   4.1903913e-01   6.4751785e-01  -7.3476690e-01  -1.4081659e-01  -3.9154710e-01  -7.5233347e-01  -6.3140133e-01  -2.9173233e-01  -8.1474920e-01   4.8609639e-02   9.1465296e-01   4.5911823e-01   9.8173116e-01   1.5969223e-01   6.1880865e-01  -4.1427834e-01  -3.5381037e-01  -5.1115327e-01  -3.5961831e-01   8.3465277e-01  -2.7645856e-01  -3.9078478e-01  -9.8796652e-01  -4.6511077e-01   2.0480020e-01  -4.9505738e-01  -8.3769544e-01   7.6158469e-01   4.8552585e-01   4.1695550e-01  -2.6000802e-01   7.3089546e-01   9.2473118e-01  -2.3264213e-01  -4.8364891e-01   2.2065316e-01   6.9990219e-01  -4.6748833e-02  -9.9625251e-02  -9.3070260e-01   8.9476953e-01   2.3820047e-01  -9.2804615e-01   2.6757048e-01   1.4913406e-01   7.4497332e-01   6.7582936e-01  -6.1009161e-01  -5.9614469e-01   5.2027635e-01   3.0167745e-01  -8.3722178e-01   3.6559402e-01  -1.5036649e-01  -9.5916402e-02  -8.1694622e-01  -4.8332141e-01  -2.9392627e-01  -8.5541281e-02   5.9038759e-01   1.7527457e-01   4.1771057e-02   6.6146476e-01  -8.2632951e-01   2.8281211e-01   1.8136230e-01   9.4357460e-01  -2.9216953e-01  -1.3317920e-01  -2.7392700e-02  -9.9551297e-01  -5.0099065e-01   1.2101518e-01  -9.4572796e-01   1.3589942e-01   1.3019498e-01   5.4580537e-01  -7.8127809e-01  -4.2886963e-02  -9.7636896e-01  -1.4299245e-01   9.0901314e-01  -9.3704113e-01  -6.5512905e-01   8.9928854e-01  -3.5796702e-01  -3.7647295e-01  -5.9567185e-01  -5.5879772e-01   2.2045877e-01  -5.9197463e-01   8.5284777e-01  -5.5698529e-01   1.0290216e-01   4.8211186e-01  -1.0601974e-01  -8.9749244e-03   3.6446764e-01   9.9896296e-01  -4.6916468e-01  -5.9101415e-01   4.3474601e-01  -4.5924688e-01  -6.1573212e-01   8.6144182e-01  -1.7404234e-02   7.2343339e-01   9.5179529e-01  -1.6042916e-01  -7.7741235e-01   6.7773003e-01  -5.4836798e-01  -1.2044193e-02  -3.2600411e-01   5.5108801e-01  -6.5296480e-01  -2.1700694e-01   4.8899605e-01   4.2140776e-01  -5.1159292e-01  -6.6945105e-01  -1.1586117e-01  -6.6337336e-01   9.8096114e-01   2.9821114e-01  -2.3018455e-01   9.9301940e-01  -9.1315324e-01  -6.9393189e-01  -7.6813051e-01   2.0042658e-01   6.7211482e-01  -4.1904063e-01  -1.4650452e-01  -1.7740291e-01   1.8425294e-01  -8.7045394e-01  -4.6384843e-01   7.7920872e-01  -8.1381420e-01   9.3812128e-01   4.0367762e-01  -5.1513879e-01   5.7394003e-01  -5.0533029e-01   7.5718665e-01   2.9545739e-01  -9.1241737e-01   3.8503040e-01   8.2907600e-01   6.1270597e-02  -5.1617871e-01   6.4024706e-01  -5.5744562e-01   9.5137615e-01   3.9865224e-01   9.8303532e-01   5.0908807e-01   2.1972807e-01  -9.4277242e-01   3.0131556e-01   1.9894739e-01  -3.3990730e-01  -7.3376442e-01  -9.9799996e-01  -2.3018387e-01  -4.9364590e-01  -1.4206982e-01   7.3405741e-01  -8.4683893e-01   4.9452760e-01   4.1168538e-01  -9.6659576e-01  -1.5228864e-01  -6.4835484e-01  -3.8395019e-01   1.9987034e-01  -4.8882885e-01  -9.1999653e-01  -8.5394622e-01  -4.6620169e-01   8.9971693e-01   5.1019365e-01   4.5000424e-01   7.3810849e-01   2.9435715e-02  -3.6829686e-01   6.1522437e-01  -8.9445151e-01  -9.8662959e-02  -8.4353359e-01   3.4995385e-01  -3.1803985e-01   3.4584492e-01  -6.0952499e-02  -1.7719239e-02  -9.2917364e-01  -2.1357714e-02   2.6565999e-01   5.5236523e-01   4.7071902e-01  -7.2989519e-01  -8.9841903e-01   1.2619414e-01   4.7170409e-01   2.5381200e-01   3.7671877e-01   5.0571569e-02  -3.0216098e-01   5.8292436e-01   5.3884364e-01   2.1091181e-01  -2.5389612e-01   2.1349913e-01   9.7588513e-02   2.4924639e-01  -4.2530881e-01   3.4239784e-01  -5.2946868e-01   5.6441453e-01   2.8255688e-01   3.2357797e-01  -3.2130101e-01   3.5694143e-01   8.3877125e-01   6.9409425e-01  -5.6130519e-01   6.6568536e-01   2.6639180e-01  -3.1427488e-01  -9.0539351e-01   7.2393179e-01  -3.3526359e-01   9.0717215e-03   1.2877260e-01  -7.4714318e-01  -3.3344467e-01   7.8447339e-01  -6.4172643e-01   4.0581342e-01   2.7105038e-01  -7.2850547e-02  -4.2700373e-02  -2.8899933e-01  -7.3544144e-02  -1.5853757e-01   4.2839221e-01   7.9326744e-01   2.2417125e-01  -4.6772271e-01  -2.2821362e-01  -1.7622886e-01  -2.9036070e-03   3.0534805e-01   3.6315135e-01   1.0651700e-01  -6.3503223e-01  -7.0697988e-01  -2.3362318e-01   8.7443750e-01  -2.5500825e-02  -9.0665035e-01  -9.2284974e-01  -3.3136978e-01   7.9400477e-01  -6.0092329e-01  -1.2717605e-01   9.8600506e-01   6.3072593e-01   5.4756311e-03  -9.3438439e-01  -1.9992152e-01   4.8987993e-01  -8.7556134e-01  -1.5775519e-01   8.8813698e-01   3.9511621e-01   1.8397509e-01   7.9628333e-01   4.9566465e-02  -1.8682453e-01  -3.6850792e-01   6.2221462e-01   3.3432967e-01   1.9684340e-01  -3.2936360e-01   4.8921642e-02  -5.0879843e-01  -2.9475022e-01   9.4587824e-01   3.8996224e-01   9.2366793e-01  -7.2911467e-01  -6.8811581e-01  -9.9915786e-01   4.3416961e-01  -8.0945166e-01  -9.5309056e-01  -2.5621493e-01  -4.3914455e-01  -3.3863743e-01  -9.3364587e-01  -4.6081237e-01  -4.1585534e-01   5.5492630e-01   9.7073433e-01  -6.8175591e-02   3.0194075e-01  -7.2095724e-01  -4.4551432e-02  -7.1265424e-01  -5.3881713e-01  -8.4977402e-01   4.8507511e-01   2.7817385e-01  -1.7279725e-01  -8.6134111e-01  -5.3698425e-01   7.3175151e-01  -6.9990624e-01  -6.0628775e-01   7.5704152e-01  -6.1146512e-01  -1.7687646e-01   8.6027447e-01  -5.0167081e-02   8.9944672e-01  -1.0263711e-01  -7.6813556e-01   8.8472032e-01  -4.8941758e-01   3.7649991e-01   1.8548244e-01  -8.1722250e-01  -4.7891718e-01  -6.4255286e-01  -6.8900579e-01  -1.8363957e-01   4.2053696e-01  -1.4267041e-01   4.5126445e-01  -9.1739034e-01  -4.9917059e-01   7.1700957e-01   7.6525172e-01   3.6579167e-01  -4.0423758e-01   4.2989970e-01   1.3688666e-01  -6.0311959e-01  -1.7606831e-01  -7.1433807e-01   8.1813523e-01  -4.6791791e-01  -1.4833834e-01   9.4590822e-01  -1.9618353e-01  -5.6736648e-01   8.9716420e-01   4.1422529e-01   7.1977299e-01  -3.8505335e-01   1.7153005e-01  -5.1878627e-01   7.3959564e-01  -6.1281978e-01  -1.4385588e-02  -1.5579191e-01  -1.4311546e-01   3.2394441e-01   6.3455274e-01  -6.6942563e-01  -6.3164092e-01   5.6054511e-01   4.1822098e-01   1.5848023e-01  -2.6424320e-02   3.7076991e-01  -7.9929127e-01   6.9575646e-01   9.3949250e-01   4.6711094e-01   1.4082476e-01   2.2010479e-01  -9.4728286e-01  -4.5034186e-01  -4.9564753e-01   9.9457413e-01  -2.3265385e-01  -4.1427952e-01  -5.9449448e-01   7.0828904e-01   3.5301321e-01   3.7104811e-01  -4.8074105e-01  -2.6819454e-01   7.2382409e-01   4.2094217e-01   6.0571838e-01   7.9334371e-02  -6.6063670e-01   2.9128726e-01   1.9897239e-01   6.7205112e-01   7.5398547e-01   1.1981135e-01  -4.8763614e-01  -4.8477512e-01   5.8993062e-01   7.3624710e-02   8.9031389e-01  -7.9625051e-01   9.0619878e-01   7.7288465e-01   3.8327575e-01  -7.4113877e-01   2.6478799e-01   8.7628864e-01  -5.0858077e-01  -6.8125195e-01  -9.5217305e-01   5.2454723e-01   7.3191883e-01  -8.9619980e-02   4.5093221e-01   7.5036139e-01   1.0323229e-01  -3.4502340e-01  -1.8704612e-01   5.3641870e-01   1.5162669e-01   3.5011333e-01   7.1905745e-01  -1.5766419e-01  -6.0421379e-01  -8.3388825e-01   2.6115236e-01  -2.8225289e-01   4.9315191e-01   4.1863337e-01   5.9640853e-01  -2.6579801e-01   2.1826981e-01   8.4970953e-01  -4.5492149e-01  -7.7718999e-01
   3.2381604e-02   4.0790544e-02  -3.5896409e-01   2.3744409e-01   3.8059592e-01   7.8610225e-01   6.7367905e-01   6.7649126e-02   9.8991530e-01  -9.1669562e-01  -9.6341094e-01   7.4525867e-01   7.3215154e-01   9.7263801e-01  -8.7273023e-01   7.6752594e-01  -2.7037768e-02  -5.1872296e-01  -1.4133848e-01   5.2984046e-01   5.4788838e-01   7.8822901e-01   3.0494477e-01  -1.3030398e-01   7.6742585e-01   7.7444704e-01   3.7863295e-04   3.9023177e-01  -7.6007387e-01   2.3772774e-01   8.5673860e-01  -9.2094030e-01   9.7298058e-01   3.3440952e-01  -7.0541434e-01  -2.5498611e-01   1.1407813e-01  -3.3769784e-01   2.5939028e-01  -7.8560038e-02  -8.8805774e-01  -2.1296852e-01   8.7195721e-01   6.4103518e-01   2.2651693e-01  -7.2542660e-01   5.4151977e-01   7.0805922e-01  -6.9067319e-01  -4.4408450e-01   5.7788616e-01   5.1112041e-01   4.7308315e-02   1.9842816e-01   9.3575965e-02  -4.5245358e-01   1.3877677e-01  -7.5248092e-01   1.7686458e-01   1.6552577e-01   5.4226042e-01  -9.3858406e-01   9.7339470e-01   9.4617728e-01   8.1786112e-01  -4.3485248e-01   9.5334304e-01  -3.0984570e-01  -9.9535687e-02  -5.9251465e-01   7.8987749e-01   3.3756252e-01  -1.0856731e-01  -3.2577443e-01  -9.3054077e-01  -6.5010507e-01   9.7837378e-01   4.6454195e-01   7.4199679e-01  -2.6155516e-01  -8.8655605e-01   7.5987497e-01   3.5611820e-01   3.4284875e-01  -5.8262976e-01   5.0203760e-01   1.1567003e-01   7.6081879e-01   7.5848207e-01  -8.8383730e-01   4.9654824e-02   5.2247423e-01   3.2618736e-01   2.4709111e-01   8.9288323e-01  -1.5973720e-01  -8.9327970e-02   5.2014456e-01  -7.0601490e-01  -6.9556082e-01   7.4080491e-01   8.4800667e-01   3.2794303e-01   2.4418409e-01  -1.3616633e-01  -7.5225814e-01   7.6648704e-03   1.5016020e-01   5.8989240e-02   7.3599349e-01   2.1460999e-01  -4.2149843e-01   5.6080297e-01  -9.7339248e-01   9.8247368e-02  -3.0267113e-01   3.4810753e-01  -8.6024834e-01  -5.6210300e-01  -5.0121630e-01  -3.1508448e-01   4.3290734e-01   2.9454831e-01  -9.8332721e-01   1.0918457e-02   7.5681348e-01   6.0491209e-01   1.6042791e-01   1.8180442e-01   3.8108379e-01   4.3954450e-01   6.8008937e-01   3.4740743e-01  -2.0631874e-01  -6.0162388e-01   8.6435635e-01  -4.9885233e-01  -2.9797974e-01   8.4143958e-01   2.8859951e-01  -5.3717710e-01  -8.0760126e-01  -7.0718883e-01   4.0230132e-01   7.9393473e-02   5.9203567e-01   7.3951416e-01  -2.1397974e-01   8.2261231e-01   7.0483306e-01   2.7793111e-01   7.5731192e-01   5.3824231e-02  -3.8495031e-01   8.1869349e-01   9.1358234e-01  -5.2083129e-01   2.9031612e-01   3.8073593e-01  -7.9340876e-01  -2.6380124e-01   2.7327687e-01  -8.1073518e-01  -1.2692263e-01  -4.9029363e-01  -7.4472483e-01  -7.2932590e-01  -4.4575054e-01  -9.6973667e-01   5.2708561e-01  -8.2931277e-01   1.3674520e-01   7.6560292e-01  -7.2899302e-01  -4.2318491e-01  -8.5272695e-01  -6.4601737e-02   2.3906987e-01   1.7823025e-01   5.2869324e-01   1.7238341e-02  -4.4903924e-01  -3.1199620e-01  -2.5198768e-02  -9.7779473e-01   4.6023308e-01   7.0887163e-01   9.3582623e-01   3.4577486e-01   1.3167429e-01   6.2229333e-01   8.9619896e-01  -9.4379411e-01  -6.3172681e-01   1.5468689e-01  -5.2940665e-01   7.0157623e-01  -2.4010476e-01  -8.7569838e-01   4.8388545e-01   5.7601726e-01  -7.4106657e-01   3.8873135e-01   4.8172633e-01   7.0299947e-01  -1.4331404e-01  -6.7854112e-01   4.2498155e-01  -7.3285218e-01   4.9683766e-01   6.4076840e-01  -9.6635409e-01   6.5695883e-01  -4.1518284e-01  -1.6374743e-01   1.3838905e-01   5.8130503e-01   5.8927269e-01  -5.7803691e-01  -4.9098115e-01   2.1740136e-01  -8.3307195e-02   5.9409350e-01   6.3981902e-01  -5.3733828e-01  -9.1987455e-01   9.4141759e-01  -8.0738493e-01   6.3645009e-01   9.2264786e-03  -1.7783664e-01  -6.1082444e-01  -9.2441318e-01   7.8240817e-01   5.6025939e-01   5.6160141e-01  -6.7336021e-01   4.3285679e-01  -6.8449764e-01  -3.8229797e-01   7.7171390e-01  -8.8259425e-01  -4.7948090e-02  -1.4848253e-01  -6.5680703e-01  -8.5764916e-01   5.5921341e-01  -3.0330291e-01   9.6841885e-01  -5.3715539e-01  -2.3930153e-01   3.0531993e-01   3.8411625e-01   1.7812266e-01   6.7527114e-01   8.2867666e-01   4.4817486e-01  -8.4975104e-01   1.3171793e-01   6.9991962e-01  -3.4589490e-01   5.9911523e-01  -1.3555477e-02  -1.2085722e-01   9.6801795e-01  -3.8416471e-01   6.9385772e-01  -3.1404012e-02   5.4122800e-01  -9.8826057e-01   9.3355538e-01  -1.8691047e-02   5.1432404e-02   6.5801153e-01  -3.9694756e-02   8.9523167e-02  -8.6505284e-01   8.8506817e-02   9.1556732e-02  -1.0818464e-01  -3.6129104e-01  -3.5077200e-01  -1.0670382e-01   7.4411083e-01  -7.0573572e-01  -5.7532880e-01   4.4176709e-01   3.7160401e-01   3.5673884e-01  -6.9372672e-01   7.5574732e-01  -7.9579521e-01  -4.5110328e-01   1.7667908e-01  -9.7921808e-02   8.7511387e-01   2.4346813e-01  -4.1351683e-01   8.0800319e-01  -6.5884326e-01   9.6716144e-01   3.4222766e-01  -7.5142809e-01  -8.0525108e-01  -5.2376053e-01  -3.3804587e-01  -8.9219992e-01   5.9466428e-02  -1.8815314e-01   7.1736874e-01   1.8573425e-01   5.6691146e-01  -8.9946588e-01  -4.3601308e-02   8.5299683e-01   4.3572055e-01  -7.7136071e-01   6.2989046e-01  -1.3763164e-01   8.4681068e-02  -2.9037743e-01   4.8095454e-01  -4.4454655e-01  -6.6907163e-01  -3.0936678e-01   9.4014916e-01   3.7252863e-01  -5.4854144e-01   4.3481474e-01   7.7169688e-01  -6.5457351e-01   1.7235654e-01   5.1394359e-01  -9.7256165e-01  -6.7524069e-01  -5.4705276e-01   5.7821835e-01  -4.8713257e-01   7.9975322e-01  -4.4855831e-01   6.1147183e-01  -1.3530172e-01  -6.5720254e-01  -1.6088278e-01   1.9990101e-01  -7.2340385e-01  -3.6871506e-01   7.1943265e-01  -6.6589352e-01   3.8694640e-01  -7.3545215e-01  -1.4503872e-01   4.0641079e-01   4.1393135e-01  -2.5107028e-01   4.3442382e-01   7.7806265e-01   2.9406044e-01  -7.8063791e-01   2.5100325e-02   1.0851088e-01   6.5771610e-01  -4.0033523e-01  -8.5597651e-01  -6.6546416e-01  -9.5840056e-01   9.1928104e-01   2.3308231e-01  -3.5509051e-01  -9.1033829e-01   2.7361479e-01  -7.7574663e-02  -6.7196169e-01   4.1598347e-01  -6.5017185e-01   8.4579509e-02   7.4279383e-01  -6.1822593e-02   8.4189050e-02   2.2543695e-02  -8.4682203e-01   3.0446773e-01   5.4118702e-01   3.1853498e-01   6.1805263e-01   9.2919932e-01   8.8940903e-01   1.7442562e-01  -5.6856752e-01  -2.2956123e-01  -7.0263368e-01   5.0532711e-01   8.6734403e-01  -1.8650037e-01  -4.9323032e-01   5.3662445e-01   6.9494363e-01  -5.5555464e-01  -8.0991676e-01  -7.5607868e-01  -8.5448475e-01   2.2381058e-01   5.1639022e-01  -9.8503006e-01  -4.3720029e-01  -3.8395403e-01  -6.5339948e-03   7.8998821e-01   7.8701202e-02  -8.3226326e-01  -1.5701059e-01  -2.7584313e-01  -1.6698204e-01   2.0406329e-02   4.3673990e-01   5.8894995e-01   7.2004914e-01   7.2620271e-01  -3.7747769e-01  -9.5377046e-01  -8.9575236e-01   6.7741264e-01  -6.1517226e-01  -4.6405564e-01   9.2504213e-01   9.1627679e-01  -5.8164990e-01   2.7182510e-01   4.1040455e-01   4.1235435e-01   8.5409468e-01   8.3337268e-01   9.4862207e-02   6.8993953e-01  -7.5099128e-01  -7.2671609e-01   8.7819247e-02  -9.4028607e-01  -6.4478832e-01  -8.8388727e-01  -6.3516168e-01  -7.8228553e-01  -7.7353768e-02   9.8685049e-01  -7.9777079e-01   3.4559358e-01   9.4572370e-01   6.1606201e-01   6.2775993e-01   5.4595620e-01   9.2916409e-01  -8.3441842e-01  -8.6589409e-01  -1.2419739e-01  -4.6860694e-01   8.2617058e-01  -5.7046987e-01   1.5896184e-01   7.8050393e-02   1.0648536e-01  -7.3452942e-01   1.5399131e-01  -5.1674216e-01  -9.1280456e-01   5.5905206e-01  -1.3966848e-02  -1.0039415e-01  -7.3810308e-01   3.3900224e-01   5.0019634e-01  -5.0697948e-01   1.0788466e-01  -6.2958595e-01  -3.2389813e-01   1.9011802e-01   4.8752713e-01  -1.9675498e-02   2.9237106e-01   6.9016947e-01  -3.0106900e-01   7.6459473e-01  -7.3619055e-01   5.8258645e-01  -7.0653024e-01   6.9061226e-01   2.4803845e-01   7.9163775e-01  -6.5895262e-01   2.3062109e-01   6.0085617e-01   4.0321116e-01   3.1466868e-01  -2.2693875e-01   1.7601421e-01  -8.0834177e-01  -5.2543579e-01   7.2688809e-01  -2.8674737e-01  -8.1275679e-01  -1.7487079e-01   9.9946242e-01  -9.3772226e-01  -2.8373177e-01   4.2898466e-01   5.5619345e-01  -8.3077254e-01   4.7465953e-01   2.3026913e-01   6.7599869e-01  -6.9366661e-01   7.7286311e-01  -8.3358852e-03   8.0726913e-01  -4.3968014e-01   6.4033977e-01   3.1844141e-02   4.6778625e-01   8.8479946e-01  -5.5286387e-01   9.3182072e-01  -7.5253189e-01  -6.1245746e-01   7.3875154e-01   6.9803975e-01  -3.0664788e-02   6.9336667e-01  -3.0441903e-01  -8.7023007e-01  -1.5358990e-01   2.5285300e-01   2.9362694e-01  -7.7814711e-02  -2.9325924e-02  -9.5815018e-01  -3.2835394e-02   5.0060446e-01   3.6216878e-01  -7.4922000e-01  -6.7454330e-01  -9.1517835e-01  -8.6239706e-01  -5.2408720e-01   1.8870133e-01   5.3278454e-02   7.1540836e-01   6.9671425e-01   1.8522087e-01   7.8318006e-01  -9.7789934e-01   3.9932841e-01  -2.7602744e-01   7.2177376e-01   2.2155027e-01  -4.6520367e-01  -8.0349082e-01  -6.3165427e-01   5.8979908e-01  -9.9817302e-01   5.0810467e-01   8.8486429e-02  -1.4123501e-01  -6.5702305e-02   7.5123835e-01  -1.1512072e-01   5.8954429e-01  -2.2056536e-01   6.7708222e-01  -2.8832481e-01   5.7586419e-01   4.0384267e-01  -6.9558813e-01   8.9296558e-01   9.9094645e-01   2.0965429e-01   8.6907858e-01  -1.0071154e-01  -9.7540943e-01  -1.9504922e-01   8.3254828e-01  -2.9990435e-01  -7.4179099e-01   8.9711197e-01  -2.7929867e-01   5.7030489e-01   3.8318878e-01  -3.4017495e-01   9.4684961e-01   9.0666677e-01   5.8688050e-01   3.3168968e-01  -1.8340300e-01  -5.4797764e-01  -9.1934486e-01   8.5561218e-01   6.8478493e-01  -7.4615498e-01   2.7300465e-02  -5.7683780e-01  -5.4322823e-01   1.5120897e-01  -7.1521349e-01   5.6275938e-02  -1.7841035e-01  -7.6266485e-02  -7.9964470e-01   3.5011792e-01  -4.4794713e-01  -6.4244849e-01   9.4847179e-01   9.9861478e-01   4.9796985e-01   2.7026448e-01  -5.2492576e-01  -6.9909715e-01  -9.5683542e-02  -3.5974751e-01   6.5007114e-02   6.8620572e-01   9.0328247e-01  -5.0200930e-02   7.7740022e-01  -1.6829070e-01   3.3632332e-01  -8.5213933e-01   6.0162917e-02   8.8795832e-01  -8.5052690e-01  -7.3125343e-02  -7.8491934e-01  -1.4380780e-01  -2.0698306e-01  -3.2721858e-01   3.9644909e-01   6.3798161e-01   1.4919142e-01   9.9940218e-01   5.5519980e-01   3.9792461e-01  -9.6447826e-01  -1.9786174e-01  -4.5458425e-01  -3.6341755e-01   8.1582771e-01  -7.6730949e-01   4.8206937e-01  -9.5564905e-02   9.3388217e-01   9.4530742e-01  -6.8475083e-01   7.1299561e-01   1.2282098e-01   9.2276973e-01  -6.6665652e-01   8.0349527e-01   3.9684712e-01   1.2544369e-01  -1.5815639e-02   2.1193234e-01  -9.8269639e-01   7.3606470e-01   6.5376228e-01  -2.4920072e-01   2.5273858e-02  -7.9105094e-01  -1.4037841e-01  -5.7437934e-01  -3.5830894e-01   4.3323411e-01   8.1929629e-01   5.3861185e-01   5.1978092e-02   9.5066847e-01  -1.5187648e-01   8.0618517e-01  -7.8857182e-01   9.9578994e-01   6.8906028e-01  -2.6435433e-01  -3.2928857e-01   4.6238665e-01  -3.3299661e-01   9.6770550e-01  -8.9269116e-02  -2.4133190e-01   5.6222699e-01   1.1813300e-01  -5.9658755e-01   4.6199236e-01   8.5246816e-01   7.7185560e-01  -6.1936386e-01  -7.6254521e-01   6.1275363e-01  -3.5977283e-01  -8.5084047e-02  -8.8651912e-01  -7.0446661e-01  -8.3094992e-01   6.2933536e-02  -7.2820393e-01   1.3285060e-02   2.3098071e-01   3.9076233e-01  -8.7324531e-01  -1.4184713e-01  -6.5310664e-01  -4.7214430e-01   2.8912279e-01   1.2539263e-01   4.9763742e-01   7.8935951e-01   4.1058366e-01   2.3441435e-01  -7.5989160e-01   9.7697583e-01  -6.0200150e-01   4.9349466e-01  -4.6105187e-01   4.3221391e-01   4.1149019e-01   4.4485370e-02   4.6335738e-01  -5.1544769e-01   6.7349911e-01  -9.2452469e-01   1.6952124e-01  -7.3895970e-02  -8.3836180e-01   4.4616315e-01  -4.3815174e-01   1.8618647e-01  -5.4639720e-01   8.2224102e-01   8.1774125e-01  -6.3272939e-01  -8.8660768e-02  -4.4824552e-01   4.3108398e-02  -1.5148447e-02  -3.7930900e-01  -1.7507840e-01   4.9301359e-01  -1.3584216e-02   3.0369863e-01   8.6005824e-01   2.7943980e-01  -3.1607759e-02   5.2705616e-02   6.4492863e-01   1.2059268e-01  -1.8140438e-01   1.5108523e-01   4.4869200e-01   9.9653296e-01  -6.5377761e-01   8.3730162e-01  -5.3894437e-01  -1.9462035e-01   7.9404961e-01  -2.0609365e-01  -3.1920608e-01  -7.1080862e-02   1.3120317e-01   9.8656306e-01   7.2582952e-01  -3.9860391e-01   6.6939998e-01  -3.7564046e-02  -1.0052709e-01   7.4852754e-01  -5.3779657e-01  -5.5604875e-01   8.3335703e-01  -7.6042761e-01  -2.8804317e-01  -2.2865096e-01  -8.1304330e-01   9.6675232e-01   6.6255536e-01  -6.9293766e-01  -1.7255182e-01   7.0055667e-01   8.6522449e-01  -6.3085804e-01  -1.6911085e-01   3.6513588e-01  -2.7601358e-01   9.0397118e-01   8.4776174e-01   5.8328141e-01  -9.9067587e-01  -5.6114361e-01  -8.0926072e-01  -6.3938155e-01   8.3929772e-01   5.9106473e-01   4.1344745e-01  -5.3918343e-01  -5.2688966e-02  -1.2956256e-01   4.3859990e-01  -8.7526973e-01   9.6640637e-01  -7.6227296e-01  -1.7999040e-01  -3.2060610e-01  -7.0463552e-01  -3.8817968e-01   4.1098150e-01  -6.6281152e-01   5.7328809e-01  -4.6058663e-01  -6.8591177e-01   9.6925049e-01   3.9980338e-01   5.4208950e-01   9.7542140e-01   5.4038314e-01  -1.6822255e-02   3.2795785e-01  -9.7326679e-01   8.8664930e-01  -4.3196098e-01   2.0515355e-02   3.6674642e-01  -4.8163297e-01   2.7512590e-03  -8.9702923e-01   7.0170166e-01  -6.3259267e-01   3.4081366e-01   5.3717391e-01   4.2483593e-01  -3.5468170e-01   4.2100057e-01  -5.3598811e-01   1.2726968e-01   1.2014152e-02  -1.4088933e-01   2.9876416e-01  -8.7177441e-01  -6.5633191e-01   1.1147925e-01   7.6299024e-01   8.6813810e-01  -9.8784023e-01  -2.4351916e-01   9.4553501e-01   3.3957164e-01  -1.0755369e-01  -5.4538476e-01  -4.1791208e-01  -8.1474519e-02   3.8413301e-01   8.5720065e-01  -8.8656209e-01   4.4718003e-02  -3.0612277e-01  -3.3313549e-01  -6.1827694e-01   5.5515985e-01   6.8183700e-01   4.8710002e-01   4.1115194e-01   5.2387518e-01  -2.4279611e-01   6.7411367e-01   2.1320122e-01   4.7591141e-01   2.2455169e-01   2.8584908e-01  -8.8764448e-01  -6.3071310e-01  -7.5217378e-01  -6.2015210e-01  -6.7384955e-01   4.9766738e-01   3.9399352e-01   2.3007132e-01  -7.8971443e-01   2.9909680e-01   4.7166841e-01  -1.0754694e-01  -5.1332291e-03  -7.8701606e-01  -8.7388477e-01  -4.6723770e-01   2.3922413e-01   7.8692294e-02   2.9056582e-02  -6.4336969e-03  -7.4043673e-01   8.0882442e-01  -6.6768365e-01   3.9240258e-01  -6.8465849e-01  -7.1762187e-01  -4.9069682e-01   4.2331722e-01   4.7124089e-02   3.9245528e-01  -1.7371430e-01  -8.5470311e-01  -5.0363370e-01   9.6408584e-01   3.5875330e-01   9.3355205e-01   4.4958611e-01  -6.4891305e-01  -8.4242104e-01  -1.5501605e-01   4.9535931e-01   5.3608377e-01  -4.6340741e-02  -3.3695128e-01   8.5748068e-01   5.3805075e-01   8.3008845e-01  -9.8460381e-01   1.9178605e-01   9.5142803e-01   4.4540212e-01   7.9812059e-02  -4.3044074e-01  -7.1401962e-01   5.9463522e-01   4.4859253e-01  -2.8665886e-01  -8.7130724e-02   4.0160976e-01   4.4864526e-02  -6.4147209e-01  -7.2718864e-01   4.5656189e-01  -8.2891908e-01   6.9421855e-01  -2.5686354e-01  -6.4200994e-01   4.9629111e-01   6.7535792e-01  -5.4659691e-01  -2.9468526e-01   9.7282528e-01  -1.5788097e-01   4.2414026e-01   2.3523350e-01   9.4829128e-01   2.0356954e-01  -9.1689911e-02  -6.9396234e-01   7.5897161e-01  -7.6347802e-01   5.5587770e-01  -9.3797039e-01  -3.0615553e-01  -3.5874706e-01   4.8989701e-01   9.9443589e-01  -1.0440036e-01   7.5545400e-01   2.3486200e-03   4.1906763e-01   5.0394172e-01  -8.6461702e-01  -2.1607356e-02  -6.8148056e-01  -7.5587264e-01   2.7481862e-01  -1.6298672e-02  -3.9185354e-01   3.8407738e-01   3.1136693e-01  -3.6649547e-01  -8.9468123e-01  -2.8887942e-01  -9.4341255e-01  -7.1914571e-01   5.3082757e-01  -3.4707983e-01   4.9134904e-01  -6.2541580e-01  -5.8724730e-01  -8.4515535e-02  -5.5569229e-01  -4.4647494e-01  -1.6048270e-01   6.8763941e-01  -1.9461255e-01   2.4946363e-01   6.6345540e-01   6.5511151e-01  -5.1400880e-01  -6.1266621e-01  -2.8662778e-01  -2.1366520e-01   4.9270932e-01   1.3433293e-01   9.0648370e-01   7.1485559e-01  -1.6660997e-01
