  -5.8566472e-01  -3.6115400e-02  -5.8193152e-01  -1.6884977e-01  -4.3998705e-01  -7.8064133e-01  -5.8113814e-02   8.8116336e-01  -5.5566319e-01   9.5358351e-01  -1.3757617e-01  -8.7956740e-01  -8.3000554e-01  -3.5588097e-02   4.2180024e-01  -3.4502033e-01  -5.4623344e-02  -2.7161360e-01   4.8557507e-01  -4.4324335e-01  -4.3258750e-01  -2.4471356e-01  -4.5803324e-01  -8.3191863e-01  -2.4252697e-01   2.3177517e-01   9.5200782e-02  -4.2076386e-01   6.9226855e-02  -8.5201890e-01  -9.1216660e-01  -1.7264262e-01   8.5421054e-01  -8.4005451e-01   8.5640967e-01   1.7436966e-01   7.6363866e-02  -5.3058342e-01  -8.1977700e-01  -3.0790518e-01  -2.8532034e-01  -3.3658398e-01   6.8745854e-01   5.9174066e-01   3.5986047e-01   6.3759837e-01   8.1485235e-01  -6.4117208e-01   4.3451918e-01  -6.5613395e-01   2.1231520e-01  -1.6613953e-01  -7.1492195e-02  -6.8023115e-01   3.7303783e-01  -4.6766339e-01   2.3227395e-02   7.6061972e-01   5.3089606e-01  -4.8221748e-01   7.3397905e-01   3.7537406e-01   5.0067214e-01   6.9964297e-01  -5.3183244e-01  -3.8041886e-01  -8.9951498e-01   5.0188475e-01  -3.2031356e-01   4.1038577e-01  -9.0242118e-01   2.8241847e-01   6.1474906e-01   6.7052270e-01  -5.9370011e-01   9.7847266e-02   2.3228800e-01  -2.0077163e-01  -5.8761637e-01  -5.0391212e-02   1.1819913e-01   3.0835661e-02   3.4840427e-02  -2.3813228e-01  -1.3882352e-01   3.0031742e-01   2.7957922e-01  -3.7127729e-01   4.4780185e-01  -5.4992112e-01   8.1739015e-02   5.7728396e-01   2.9672982e-01  -6.5394868e-01  -5.6547022e-01  -9.2884791e-01   1.9836269e-01   1.6777924e-02  -5.5469417e-01  -5.5310845e-01   5.5657475e-01   8.1338328e-01   1.0846958e-01   1.1746126e-01   3.8117112e-01  -5.5389773e-01  -2.5694712e-01  -3.3215311e-01   7.6850418e-01  -4.5380590e-01  -7.9683592e-01   7.5465243e-01   6.3371625e-01   3.2250699e-01  -4.6088877e-01   4.4009611e-01   9.9814615e-02  -5.3201899e-01   3.3942074e-01   1.2929596e-01   2.1580004e-01   5.5703676e-01  -7.1876431e-01   9.4700277e-02   8.3398476e-01   9.5448684e-01  -9.8346892e-01   6.7113789e-01  -8.2289873e-01  -3.2730111e-01   9.4395169e-01   7.6593395e-01  -3.4802118e-01  -5.3787052e-01  -1.2987192e-01  -5.4408520e-01  -1.7294099e-01  -6.7261554e-02   7.2779455e-01  -2.7470316e-01  -4.0149083e-01  -3.5841739e-02   3.1381787e-01  -4.4130037e-02   6.1658873e-01  -4.0889369e-01  -8.6914118e-01  -1.4477409e-02  -1.4034136e-01   5.6826102e-01   9.2603992e-01  -5.8633056e-01   1.2239865e-01  -6.3607008e-01   9.4987177e-01   2.5662882e-01   3.1371544e-01   7.4373754e-01  -8.6920913e-01   9.8155623e-02  -7.7094228e-01  -9.2056849e-01  -2.3513024e-01   7.4733218e-01   3.3102062e-01   9.8230317e-01  -9.3762235e-01  -1.9523996e-01   5.4103693e-01  -7.3394430e-04   5.1448084e-01   2.4414721e-01  -3.5078414e-01   2.4949697e-01  -6.9133645e-01  -2.4119328e-01  -2.4790608e-03  -5.2700281e-01   7.6091803e-01  -2.4309998e-01   6.5593876e-01   7.9138646e-02   6.2746379e-01   2.3261276e-01   6.1237323e-01  -7.7019456e-01  -3.3143632e-01  -6.0248793e-01   3.5702565e-02  -3.9926237e-01  -9.7841169e-01  -7.3640897e-01   9.8855461e-01   3.2305676e-01  -3.8859295e-01   9.0559297e-01   7.9505384e-01   3.9903973e-01  -2.7117472e-01  -9.4920327e-01   7.1430500e-01   2.5062886e-01  -3.0825623e-01  -3.7020690e-01   5.2006770e-02   2.5254550e-02   7.9114837e-01  -2.4329630e-01   1.6529892e-02   3.4180977e-01   6.9329133e-01   9.4290683e-01   8.3094663e-01  -3.6508958e-01   6.2905551e-01  -1.2075135e-03   7.3386337e-01  -2.9101991e-02  -9.4286698e-01  -9.1463218e-01   3.0892029e-01   7.4789188e-01  -5.0566352e-01   4.3940242e-01   9.8408066e-01   8.3826925e-01  -7.5620991e-01   3.8739090e-01   7.7299641e-01  -4.9996376e-01   9.8137531e-01  -2.5183735e-02   2.8232541e-01  -3.6887056e-01  -9.4209168e-01  -3.9713820e-01   8.6412074e-01   1.2877989e-02  -6.0819173e-01  -9.8504927e-01   9.5440999e-01  -6.0325221e-01  -7.7042973e-01   2.4949577e-02   7.9039630e-01   6.7031953e-01  -3.3689183e-01   8.4130893e-01  -1.8435537e-01  -2.4841696e-02   1.7517091e-01   2.4145794e-01  -4.0571811e-02  -9.6159780e-01  -2.6009183e-01   8.4696456e-01  -1.7322390e-02  -7.4163178e-01   1.2724949e-02   3.5311579e-01   2.0439518e-01   4.7416653e-01   9.1965698e-01  -1.7274306e-01  -7.5084114e-01  -4.3023171e-01  -3.0860588e-02  -8.3923021e-01  -4.8953525e-01  -3.7159991e-01  -7.7951598e-01  -2.4943968e-01   3.7755918e-01   5.0374765e-01  -1.0594004e-02   1.0902542e-01   6.0547965e-03   5.2020213e-01   4.6216109e-01  -4.2001726e-01  -9.3094502e-01   4.2892321e-02   7.5001115e-01  -1.5995018e-01  -5.0476930e-01   1.1749131e-02   7.6285395e-01  -3.0109140e-01  -2.1364499e-01  -2.2966126e-01  -6.6783415e-01  -6.7690395e-01   6.5288118e-01   3.8675518e-01   8.2797799e-03  -7.5468664e-01   1.3726235e-01   7.9837312e-01   8.0352138e-01  -3.9042639e-01   2.3413519e-01  -6.8644639e-01  -5.7408062e-01  -9.8348865e-01   4.6254957e-01   7.4098402e-01  -4.7472241e-02   5.8802856e-01  -7.1338754e-01  -2.6716095e-01   9.0062478e-01   6.7156426e-01  -2.5542793e-01  -2.9031710e-01  -7.7683597e-01   8.9885683e-01  -1.6971122e-01  -8.2046844e-01  -9.2631707e-01   6.3393758e-01  -5.4760845e-01   6.6669411e-01   9.8580856e-01  -9.1130871e-01  -9.4818592e-01   6.0994407e-01   7.7955304e-01  -6.4295426e-01   8.8828419e-01  -5.8201006e-01   7.2165343e-01  -6.5607513e-01  -3.9601869e-01  -4.2317345e-01   8.0745752e-01   1.4385656e-01  -7.9866753e-01   2.5330604e-01  -1.5751142e-01  -9.2029828e-01   6.4119736e-01  -4.3640714e-01   9.0566744e-01   9.6493842e-01   7.9139850e-01   9.0527989e-01  -1.4622429e-01   9.0612124e-01  -7.4793533e-01   7.8171367e-01   2.3853688e-01  -2.0845702e-01   9.0152214e-01  -6.3640993e-01   2.7061150e-02  -6.2453234e-01  -2.1591849e-01   8.5620511e-01   3.0326214e-01   4.9999729e-01   9.8389823e-01  -9.6019462e-01   3.6970698e-01  -9.5613685e-01   3.6035435e-01   8.6491287e-03  -9.4832118e-01  -6.6251767e-01  -2.8793507e-01  -3.5034455e-01   2.8070356e-01  -7.8251213e-01  -2.5653185e-01  -8.4338177e-01   4.9072687e-01  -1.7092490e-01   9.1624862e-01   9.4125964e-01  -6.2655400e-01   9.9318854e-02  -9.4423690e-01  -7.1563115e-01  -9.3554609e-01   7.6331977e-01   4.7007728e-01  -7.8146842e-01   2.6830282e-01   5.4398306e-01  -3.4526387e-01  -9.5307019e-01   4.1258632e-01  -7.9183483e-01   8.2660233e-01   4.5820094e-02   2.2858120e-01  -3.3091508e-01   3.5371956e-01  -8.6866472e-01   8.4932966e-02  -1.5825892e-01  -1.3384448e-01   5.6847424e-01  -5.3612044e-01  -6.4957521e-01   1.2949904e-01   8.1102663e-01  -8.3889130e-01  -8.1815091e-01   7.0937068e-01   3.2806328e-01   9.7442701e-01   7.4036325e-01  -5.7192275e-01  -1.2681595e-01  -3.4179264e-01   6.5780790e-01   7.5319915e-01  -9.6722060e-01  -3.2490633e-02  -3.6431036e-01   8.1803493e-01   7.6982121e-01   4.9226396e-01  -4.7318986e-01  -9.2473901e-02  -7.0768016e-01  -7.8027600e-01  -4.1740696e-01   3.0307817e-01  -7.2220967e-01  -4.5391540e-01   3.8977690e-01   6.6421418e-02   2.5534591e-01   9.9726107e-01   2.1165570e-01   8.9070716e-01  -4.5850646e-01  -7.7055507e-01   7.7365124e-02   9.6780602e-01   7.6122249e-01  -6.1269126e-01   8.0331730e-01  -5.3246809e-01  -7.9290732e-01   5.9850981e-01   8.2515419e-01   8.4588840e-01   6.9270953e-01  -4.1743372e-01   8.1213252e-02   8.9368872e-01  -3.0163502e-01  -7.3863624e-01   8.3298569e-01  -5.9288992e-01  -4.4507326e-01   5.7454465e-01   9.2435778e-01  -7.2034939e-01  -5.8869692e-01   8.5036722e-01  -8.8393669e-01   1.5427817e-01  -1.5027323e-01  -3.5137247e-01   8.8437397e-01   7.8932306e-01  -5.7698259e-01   9.6983605e-01   7.5828723e-01   6.9010164e-01   6.8153006e-01   2.6669269e-01   7.5563468e-01   9.6719900e-01  -5.8043821e-01   4.6837057e-02   5.5786337e-01   4.0352132e-01   3.9095105e-01  -2.6498867e-01  -7.1058717e-01   9.0189945e-01  -4.4751338e-02  -8.8651997e-01   4.2941867e-01   6.6837279e-01   6.4865164e-01   4.1430104e-01   8.5670372e-01   3.1233262e-01   7.8738373e-01  -1.7210111e-01  -4.9708584e-01  -8.4700816e-01  -4.7394085e-01  -4.5505079e-01   2.4206772e-01   9.9711610e-01  -8.7573674e-01   1.8545900e-01   9.6231474e-01  -8.1313583e-01  -4.2142231e-01   9.1832535e-01  -2.2712197e-02  -9.5612761e-01   5.4862136e-01  -6.8472227e-02  -4.4751210e-01   8.4245446e-01  -4.7064329e-01  -8.2518752e-01  -1.1433196e-01  -1.9486571e-01  -7.2466833e-01  -5.1439699e-01  -5.7027111e-01  -8.4979364e-02   1.1547504e-02   3.0398693e-01   2.1133047e-01   7.2375648e-01  -3.6583332e-01  -9.1169340e-01  -8.2167338e-01  -7.6728886e-01  -6.7143675e-01   6.8277636e-01  -6.2893753e-01  -6.9661577e-01   2.5984604e-01  -3.8365016e-02   2.8880814e-01   7.1649275e-01  -8.0554135e-01   3.7474369e-01   8.5726281e-01   7.4670131e-01   7.6584033e-01   4.0201139e-01  -3.4826847e-02   3.9031743e-01   8.0886337e-01  -8.3543060e-01   4.9990693e-01  -7.6220203e-01  -6.1488891e-01  -2.4623866e-01   8.7709432e-01  -2.9914222e-01   5.7478821e-01   5.9433482e-01   7.5970653e-01  -4.7867209e-01  -3.2760120e-01  -3.2345093e-02   7.6955450e-01  -1.4450647e-01  -5.3665337e-01   8.1870506e-01  -9.0868732e-01  -4.1629819e-01  -4.1665710e-01   1.3207069e-01   1.9522953e-01  -1.2002005e-02   3.8056229e-01  -3.0962163e-01  -4.7060005e-01   9.6076423e-01   2.6583698e-01   3.3959753e-01   2.0469844e-01  -9.8606726e-01  -5.9381818e-01  -2.8915744e-01  -2.2362782e-01  -1.5790522e-01  -5.8226684e-01  -8.2109960e-01  -5.0917615e-01   4.2849124e-01  -8.8227409e-01  -6.1018027e-01   6.2105539e-01  -6.0021823e-01  -3.1040914e-01  -2.8006202e-01  -4.9600179e-01  -6.8983652e-01   4.2906502e-01  -1.4549552e-01  -4.2263637e-01   2.2324331e-01  -5.3881496e-01   2.4135245e-01  -1.9561230e-01  -5.8533871e-01   1.2164334e-01  -7.7721278e-01  -1.3828948e-01   2.9159129e-02  -8.2706986e-01  -4.7609406e-01  -2.3754069e-02   9.2751597e-01   3.2489807e-01  -4.4154033e-01  -9.4578459e-01   7.1990350e-01   5.1104139e-01   4.0173944e-01  -7.6776069e-01   1.1937685e-01   6.7189626e-02   8.3750838e-01  -2.1098401e-01  -1.1261514e-01  -2.0188456e-01  -2.5487212e-01  -4.1029691e-01   5.3305089e-01   6.5598328e-01  -9.7049850e-01  -7.4419203e-02   6.8995811e-01   3.5265541e-01   3.3266937e-01   6.3985322e-01  -7.5642287e-01  -5.3842084e-01   2.0085157e-01   6.0229442e-01  -9.8552760e-01   4.5892284e-01   9.2417403e-01   1.8722206e-01  -5.8558922e-01  -3.0440038e-01  -9.7089494e-01   1.7456647e-02   8.1035179e-01  -4.4634851e-01   5.4743474e-01   5.3727299e-01  -1.3817776e-01  -1.2561014e-01  -6.3820191e-01   3.4122314e-01  -2.7212703e-01   3.2769032e-01   8.5381142e-01  -3.5797317e-01  -3.3918418e-01   9.2336910e-01   9.4518410e-01  -4.1345435e-01  -6.2251498e-01  -7.4473373e-01  -6.7609410e-01   6.8187817e-01   5.8786145e-01  -9.6569505e-01  -5.4034050e-01  -9.3851582e-01   1.9402094e-01  -5.8533422e-01   8.9485930e-01   4.6971728e-01   7.0826244e-01  -2.4769034e-02  -8.9400051e-01  -6.9660004e-02  -3.0994875e-01   1.6382148e-01  -5.4027112e-01   5.0302189e-01   1.1680876e-01   1.3238655e-01   6.5965844e-01  -9.7658864e-01   4.6359212e-01  -8.7062459e-01   1.7221671e-01  -1.0814605e-01  -5.0534668e-01  -2.5836736e-01   2.8510107e-01   8.5499886e-01   2.7004278e-01   7.3415072e-01   7.5665670e-01   2.3184485e-01   2.7190057e-01   1.8856885e-01  -7.0208533e-01   7.3061445e-01   7.6052237e-01   5.6107283e-01  -6.4534507e-01   3.1699052e-01  -3.5039071e-01  -8.4079809e-01   2.4853852e-01   6.4437128e-01  -1.5923020e-01   2.6117729e-03   8.0828401e-01  -3.5597308e-01  -5.5977733e-01  -2.1152028e-01  -9.9381930e-01  -6.0984734e-01   9.4685134e-01   5.0227263e-01  -3.4031192e-01   8.6764308e-01  -1.1333625e-01   8.8211177e-01  -6.3290505e-01   4.9389257e-01  -9.2332394e-01   3.3011513e-01   5.7523761e-01   7.7974978e-01  -1.7176579e-01   1.6981843e-01  -5.0343546e-01   8.8514723e-01  -6.1913008e-02  -1.9835029e-01   6.2409750e-01  -8.7550467e-02  -7.4900497e-01  -8.0972019e-02  -4.2817175e-03   5.2850878e-01  -1.2710438e-01   4.2475104e-01   9.2930203e-02   1.8566583e-01  -4.7938628e-01  -9.5112364e-01   6.6962006e-02  -2.2309469e-01   6.3180574e-01   6.8767734e-01   4.1079208e-02  -7.6197881e-01   1.5877265e-01   5.3344721e-01  -1.1106583e-01   7.3023636e-01  -7.9194598e-01   5.5711196e-01  -7.8838210e-01   6.9541818e-01  -9.8946252e-01  -3.1306194e-01   9.6327564e-01  -6.1513956e-01  -6.2630154e-01  -1.3942984e-01  -6.4456622e-01  -9.8371161e-01   8.1947135e-01   5.7068123e-01  -5.5397740e-01  -6.0879992e-01   7.0579266e-01   3.6317149e-01  -5.9812662e-01   3.0606666e-01   5.0877758e-01  -6.6062860e-01  -4.9177608e-01   1.4902426e-01  -1.9995598e-01   8.4013309e-01  -2.4537312e-02   4.9052006e-01   7.2212916e-01  -8.4693332e-01   1.9585531e-01  -3.3411605e-01  -7.3373858e-01  -3.8524151e-01   9.1415254e-01   3.2916638e-01  -8.8252647e-01  -3.2396380e-01   5.5886874e-01  -3.0064343e-01  -9.4259804e-01  -9.3415314e-01  -8.5437703e-01  -4.2068803e-01  -4.6023196e-01  -9.2435134e-01  -1.0404390e-01  -5.0226135e-01  -7.3702521e-01   1.5138350e-01  -4.7906519e-01   5.5388780e-01  -4.3764146e-01   6.7908403e-01   8.0696293e-01  -4.4126657e-01  -1.9986008e-01  -1.4575577e-02  -8.9893688e-01  -7.3542794e-01   4.4013267e-01   6.2182719e-01   9.0453613e-01   4.4390656e-01   3.0487895e-01   5.9851021e-01  -4.1374559e-01  -6.7330293e-01  -5.9743122e-01   9.3724139e-01   9.7596340e-01   3.9836927e-01  -1.7196625e-01  -6.3059205e-01   7.5328312e-01   6.6011496e-01  -9.8721004e-01   8.5541132e-01  -7.2489603e-02  -7.1452308e-01  -8.5336433e-01  -3.9524770e-01  -3.5058171e-01   3.1109035e-01   1.7794851e-01  -4.2697803e-01  -5.6241661e-01   6.1059792e-01   3.4650981e-01   4.5426305e-01   1.8566096e-01   7.3764637e-02  -3.2359686e-01  -5.3321620e-01   3.1740675e-01   5.7174202e-01   7.3625024e-01   9.1826223e-01   5.5945171e-01   1.5267944e-01  -7.0620692e-01   9.8892804e-01  -7.0673759e-01   4.1117803e-01   5.1539211e-01   1.4474304e-01   3.2676256e-02  -1.3838543e-01   9.8758724e-01   6.0342601e-01   2.8726993e-01   8.0952367e-01   9.6150358e-02   6.7696815e-01   5.2151284e-01  -7.0971167e-01   5.6308377e-01  -2.6558217e-01  -9.5890535e-01   3.2800503e-01   6.7827824e-01  -1.0486266e-01   1.7132436e-01  -5.4213796e-01   8.5028896e-01  -2.9926511e-01   5.3043119e-01   7.1876586e-01  -1.7379201e-01   8.5708591e-01  -2.7473886e-01   8.7388208e-01  -8.2519415e-02  -4.9962452e-01   5.4174947e-01  -6.8591842e-01  -8.6596692e-01  -7.0066207e-01   9.4102676e-01   2.2906029e-01  -7.1661669e-01   1.1123976e-01   6.0678480e-01   7.4759636e-01  -5.3137913e-01  -7.1130407e-01   5.0100532e-01  -4.7871156e-01  -9.3208337e-01  -9.3492150e-01   5.8755266e-01  -6.5686397e-01   4.5522565e-01  -4.7430637e-01   3.5925449e-01   2.6147038e-01   3.6169451e-01   7.5461183e-01  -3.1435391e-01   9.8451451e-01  -6.6387259e-01  -9.0435815e-01   8.3171885e-01  -1.9650523e-01   5.5861612e-01  -2.4820341e-01   5.5600366e-01  -5.2280787e-01   5.2576836e-01  -9.9725303e-01  -3.6892992e-01  -1.3756935e-01   4.6895052e-01   9.8862082e-01  -9.3788257e-02   8.7091830e-01   5.1410498e-01  -3.0965665e-01   1.1932324e-01  -6.2296970e-01  -8.3937514e-01   8.4040878e-02  -1.4826953e-01   5.7911555e-01  -3.9429866e-01  -8.4066140e-01  -6.8441002e-01   7.5028382e-01   9.8657344e-01   5.0891375e-01   7.9222043e-01  -5.3310050e-01   2.6389833e-01   7.7726413e-02  -6.2245078e-01  -3.0965949e-01   6.9225712e-01  -6.1549621e-01  -6.0108753e-01  -4.0950185e-01  -1.6173602e-02  -8.0179550e-01  -3.3893497e-01   4.6848435e-01   7.8596084e-01   9.9865528e-02  -2.3573312e-02   7.4729441e-01  -5.8084958e-01   6.9664992e-01   2.4509652e-01   7.2747679e-02   1.6302495e-01  -6.3578869e-01   7.1964970e-01   7.5935190e-01  -4.5808275e-01  -7.1005773e-01   4.2749954e-01   7.3796459e-01   7.9942762e-01   6.1597949e-01   9.8328851e-01   6.7171434e-01  -3.1200116e-01  -6.8104180e-01  -7.3099959e-01   5.6095667e-01   8.2740587e-01   1.4043146e-01  -8.9967539e-01  -1.8513611e-01  -3.3230330e-01  -5.8466865e-01   2.3986167e-01   1.5501291e-01   3.3828009e-01   4.4966915e-01  -4.2763889e-01   4.9431368e-01   9.1852465e-01   2.9636487e-01  -5.1007998e-01  -9.1324205e-01
  -3.6314117e-01   5.4328911e-01   4.6147343e-01   7.2318680e-01  -9.1200175e-01   2.6352689e-01  -4.4522166e-01  -6.0705843e-01   6.3792960e-01  -2.5149860e-01   6.3298619e-01   3.4812556e-01  -2.8635996e-01  -2.2573569e-01   2.1140001e-01  -2.1754693e-01   1.6166843e-01  -7.5716490e-01  -3.3106480e-01  -5.4101001e-02   6.9755836e-01  -3.4757366e-01   6.3256473e-01  -1.0817796e-01  -6.7858007e-01  -3.1766678e-01   9.0340265e-01  -2.1019549e-01   7.9681883e-01  -4.6704066e-01   1.9301867e-01  -6.2294792e-01   6.0683620e-01   2.7982427e-01   2.6471561e-01  -5.1519923e-01  -5.1397823e-01   1.2482467e-01   8.1154603e-01   9.5018991e-01   7.1839068e-01   8.9832622e-01  -8.2008696e-01   9.7354164e-01   2.2922648e-01   4.5391017e-01  -6.0709767e-01   7.5086682e-01  -5.7914287e-01   7.8092008e-01   1.2060204e-01   1.5817958e-01   6.6654336e-01   9.2188523e-01   7.3507569e-01  -3.7176927e-01   6.4206419e-01   6.0029646e-01  -6.3999813e-01   5.3588587e-01  -1.3605605e-01  -5.5201971e-01   9.2802787e-01  -5.1322139e-01  -3.5912136e-01  -4.8975483e-01   6.8175540e-01   7.9979781e-01   1.1333863e-01   3.5423362e-01  -3.1991215e-01   4.0706653e-01  -8.7230631e-01   9.8153224e-01   5.4351398e-02   7.8072846e-01  -2.1505781e-01  -2.9900297e-01   4.6054212e-01  -7.0640954e-01  -9.7497478e-01   5.4594017e-01  -3.9134133e-01  -3.1081031e-01   1.7622095e-01   6.4213838e-01  -3.4421817e-02   9.4336580e-01  -2.1723397e-01   5.8228955e-01  -3.6908058e-01   5.6520907e-01  -9.7633096e-01  -4.1888086e-01   9.2958095e-01   6.8087314e-01   4.2826377e-01   5.7442139e-01  -6.6563137e-01   8.7067151e-01   3.0773524e-02   2.0167209e-01  -7.1104192e-03  -1.3744047e-01   2.1118289e-02  -4.1245108e-01   1.1230949e-01  -1.3964352e-01   8.1120231e-01  -6.6216803e-01  -4.1188598e-01  -1.9886947e-01  -3.6373504e-01  -6.0438509e-01  -9.6437683e-02   5.3059117e-01  -1.0258146e-02   6.6627195e-02   2.5392328e-01   2.2165085e-01   1.5431677e-01  -8.0080951e-01  -2.1824326e-01  -8.2042821e-02   6.5044821e-02  -2.8474313e-01   7.4065903e-01  -3.3281899e-01  -9.6128507e-01   9.3297461e-01   1.4951222e-01   6.5384384e-01  -1.0457444e-01  -5.7992217e-01  -6.7845187e-02   4.8194387e-01   8.2578833e-01  -3.1339486e-01   3.6294151e-01  -5.9145077e-01  -4.7969130e-01  -5.2083228e-01  -1.1466295e-01   9.4648743e-01  -5.7045935e-01  -6.0927751e-01  -1.8011628e-01  -3.5341208e-01   8.5790153e-01  -1.2114013e-01   6.2723464e-01   8.5532211e-02   4.5244549e-01  -5.7663511e-01  -9.1654072e-01   6.2021654e-01   4.0368338e-01  -9.3478374e-01  -8.1527382e-01   5.7950424e-01   2.4479949e-01   4.3865444e-01   7.0372051e-01   8.7341668e-01   3.9720008e-01   8.9484415e-01  -9.5139120e-02   3.1683631e-01  -6.2088735e-01  -4.6495105e-02  -7.4030582e-01   4.5236895e-01   5.3606551e-01   9.0261546e-01  -1.1580355e-01  -3.1237129e-01   5.6850199e-01  -8.9381938e-01   6.6066339e-01   8.0036755e-01   9.3102281e-01   6.7669975e-02  -9.5600207e-01  -1.1055997e-01   3.2442407e-01   7.8529998e-01   3.5608953e-02   2.2448240e-01   3.1026572e-01  -2.1333696e-01  -1.6928675e-01  -8.3898778e-01   4.4014319e-01  -3.2399480e-01   2.3004607e-01   5.9287521e-03  -3.4188845e-02  -4.3996690e-01  -8.9566600e-01  -7.5980106e-01   5.5367393e-01   3.6941238e-01   9.7982869e-01   6.1831705e-01   2.2071413e-01   7.6387679e-01  -3.6086281e-01   5.7725721e-02   2.4529853e-01   4.6630518e-01   1.5853401e-01   2.6649780e-03  -3.4998434e-01  -2.9897486e-01   4.9317378e-01  -5.2275325e-01   5.0759708e-01  -3.2561190e-01   9.8949388e-01   2.0829669e-01   9.3028553e-01   6.2505399e-01   7.3894170e-01   8.6309479e-01   7.2792129e-01  -1.0893573e-01  -6.3774964e-01  -8.6263135e-01   4.5544018e-01   5.0592983e-01   8.0589934e-01  -6.5260006e-01   7.9354455e-01   3.0847715e-01  -1.9156933e-02  -6.1772906e-01  -4.2585307e-01   5.8769629e-01  -8.5988596e-01   2.7899265e-02  -1.9818314e-01  -8.5259391e-01  -4.1245615e-01  -1.1571121e-01  -8.3954050e-01   7.1573838e-02  -7.1849832e-01   6.3835925e-01   7.6175536e-01  -2.5036827e-01   1.4265207e-02  -9.9601643e-02   5.6670565e-01  -3.9324308e-01  -2.1270957e-01   3.8086758e-01  -3.0694594e-01   9.5522048e-01   9.3906349e-01  -6.3294316e-01  -2.8928093e-02   6.7722607e-01   4.9835436e-02   3.0243914e-01   4.7759405e-01  -2.3433425e-01   1.2115818e-01  -8.1603593e-01  -6.2671898e-01   9.1396577e-01   7.8769390e-02  -2.6972269e-01  -6.9851073e-01   7.2306317e-01   1.5456434e-01  -2.6130496e-01  -3.7925047e-01  -1.8874845e-01   5.6588217e-02   5.8765149e-01   1.8379982e-01   5.7767398e-01   3.4472687e-01  -2.3592146e-01  -9.0123920e-01  -1.0244602e-01   1.9454958e-01   2.9634527e-01  -4.4088958e-01  -3.7484493e-01   9.5225452e-01   7.8796172e-02   2.4346942e-01  -6.9031601e-01   6.0948293e-01  -7.8085514e-01  -1.4798220e-01   3.2367379e-01  -7.1242354e-01   3.7611014e-02   3.5985991e-01   8.9044463e-01   6.9064307e-01   7.5499350e-01  -4.4973014e-01  -9.1772349e-01   4.4709545e-01  -4.1635120e-01  -5.4406232e-01  -6.7759170e-01  -3.0069821e-01   6.8779317e-01   8.3074715e-02  -1.6871608e-01   8.3895655e-02  -4.4225162e-01   3.3529390e-01   4.5229981e-01   7.4611758e-01   6.7884979e-01   8.5881909e-01  -8.5838906e-01  -7.8433386e-01  -6.3044470e-01  -2.5661598e-01  -2.0462159e-01  -6.7420054e-01  -3.1648024e-01  -8.7514453e-01  -2.2446791e-01   9.0211601e-01   1.7597230e-01  -1.3665239e-01  -9.2417763e-01   1.2483293e-01   8.1513307e-01  -9.7469837e-01  -8.0237497e-01   9.5427432e-02  -6.6461607e-01   5.1596113e-01  -6.6493799e-01   5.9182331e-01   8.2266231e-02   2.9195535e-01   5.7462657e-01   7.0717297e-01   5.1996486e-01   4.0160546e-01   3.2758194e-01  -4.0639174e-01   9.8118861e-01  -7.6647235e-01   5.6079569e-01  -2.0595555e-01   8.0704067e-01   2.7992109e-01   2.9702863e-01   7.7269695e-01  -8.4526107e-01   2.1689744e-02  -3.0338189e-01  -5.3283474e-01   4.9250268e-01   7.1828767e-01   7.2009959e-01   5.0353412e-01   5.0712252e-01  -6.7062708e-01  -6.9305781e-01  -3.3608700e-01   1.4112435e-01   2.7539313e-01   3.0744871e-01  -3.7500840e-01  -3.6012746e-01  -1.6833635e-01   3.7612109e-01  -4.3035560e-01  -7.2653147e-01  -3.7479219e-01   9.5379054e-01  -7.0604294e-01   4.9367783e-01   8.6128025e-01   4.6363985e-01  -5.7353827e-01  -5.4678090e-02   4.4671464e-01  -9.2093670e-01  -5.9301038e-01   9.2324518e-01   9.6050580e-01  -5.2539406e-01   2.4381141e-02   7.3211840e-01   7.0848973e-01   2.2015454e-01  -2.7050896e-01  -6.0682417e-01  -4.2188144e-01   8.4132181e-01  -1.5784691e-01   4.3499143e-01  -3.4572640e-02   8.3167589e-01  -1.6729085e-01  -2.1305241e-01   7.7478231e-01   5.4326340e-01  -7.2206271e-01   8.5773236e-01   3.5663358e-01  -9.7585940e-01   9.4171871e-01   1.4258062e-01  -3.2139814e-01  -3.6629092e-02  -7.3103424e-01   9.8612966e-01   9.7275663e-01   7.0165464e-01   9.5313495e-01   4.5873776e-01   4.4925882e-01  -6.8092136e-01   5.3824337e-01   7.0748363e-01  -5.7599414e-04  -6.9538953e-01   1.0647517e-01  -8.0577720e-02   2.1794663e-01   2.3086311e-01   6.6585796e-01  -1.6946781e-01   9.0419686e-01   5.6262597e-02   3.9795598e-01  -8.5338840e-01  -6.8572996e-01  -9.9062161e-01  -6.8460553e-02  -9.6903997e-01  -6.0366965e-01  -3.1202432e-01   2.4955134e-02  -5.2926850e-01  -2.4459704e-02  -9.7864147e-01  -9.0825453e-01  -2.3830111e-01  -2.1689415e-01  -6.1338091e-01  -5.7424756e-01   7.5691579e-01  -8.1579996e-01   8.1208634e-01  -1.0862519e-01  -3.4923528e-01  -7.7854508e-01  -5.4417296e-02  -4.6469186e-02  -8.4395427e-01   7.1181566e-01  -8.7606625e-01  -3.9819446e-01  -9.3440736e-01   6.0285294e-01   2.5681941e-01   2.9950091e-01  -8.3076757e-01  -2.7400657e-01  -7.1020444e-01   2.2784436e-01   3.3929516e-01   6.5930893e-04  -6.6937849e-01   4.0244910e-01   3.5976730e-01   5.2876001e-01  -3.6612866e-01  -5.6779003e-01   9.2209187e-01  -5.2230529e-01   3.8766424e-01  -6.7620662e-01  -7.4207634e-01  -6.5044014e-01   2.5364036e-01   5.0288289e-01   7.5971942e-02  -3.5141682e-01   2.9257719e-01   8.1743002e-01   1.4803713e-01   5.3608549e-01   8.2477186e-02   4.8717563e-01   1.6715524e-01  -8.1249706e-02  -7.6763808e-01   3.8805775e-01  -7.6835358e-01  -9.8168580e-01   2.9135378e-01   5.5338080e-01   3.4612201e-01   9.8552674e-01  -1.7307577e-01   5.9233865e-01   3.1540932e-01  -3.3567459e-01  -4.0092823e-02   9.9896299e-01  -1.3177921e-01   2.2386984e-01   3.3303360e-01   4.9293596e-01  -2.5822477e-01   7.6411459e-01  -9.9882619e-01   2.3921351e-01   8.3501013e-01   1.1056866e-01  -5.8096501e-01   7.1586262e-01   7.0367541e-01   6.1154495e-02   5.0876913e-01  -3.8793010e-01  -7.2271669e-01   4.2437892e-01   5.8883201e-01  -5.5695958e-02  -3.6410825e-01   8.9098738e-01  -7.5052011e-01   5.3295957e-01  -6.7620220e-01  -7.6445708e-01   3.5045681e-01   5.4996471e-02  -5.4216102e-01  -7.6396764e-01  -6.2210352e-01   6.6646078e-01   9.4143116e-01   7.1384553e-01  -9.0761574e-01  -8.4920243e-01   5.3566353e-01  -1.9400557e-03   1.3361623e-01   8.2490156e-01  -4.4071300e-02  -6.8000505e-01   1.9150721e-01   2.0627029e-01  -4.4231202e-01   6.0254660e-02  -4.2498344e-01   9.9133559e-01   1.6370179e-01  -5.0154953e-01  -9.7280487e-01   3.1602719e-01   2.5465276e-01  -4.5132609e-01   4.3610173e-01   5.0143808e-01  -8.4461551e-01  -3.2857562e-01   7.9912414e-01   7.4960042e-01   3.3930400e-01   6.1126039e-01  -6.9318807e-01   2.5600495e-01   8.1136922e-01  -5.3423932e-01   7.8470260e-01   5.4774497e-01   3.1107105e-03  -7.8376387e-01  -2.7210935e-01   7.1894638e-02   8.8964120e-02  -1.7875441e-01  -3.3001468e-01   3.3734665e-01  -5.1499703e-01   2.0518720e-01  -1.6372402e-01  -1.5825438e-02  -3.2847334e-01   1.0187561e-01  -7.1330840e-01  -1.8946778e-01   3.5844968e-01   1.1750567e-01   7.6015105e-02   2.9539646e-01   1.9053389e-01  -2.5196904e-02   5.3808068e-01   8.0125985e-01   3.5955780e-02  -9.4548617e-01   9.4480457e-01  -7.5180814e-01  -4.1803140e-01   4.6802549e-01   1.2644029e-01   4.1159237e-01  -5.1707525e-01  -2.9638757e-01   3.3035618e-01   4.3550137e-01   6.7868011e-02  -3.2663307e-01   8.7934419e-01  -8.9366539e-01   6.4280667e-01  -1.9412082e-02  -2.0272343e-01   5.0045798e-01   8.3062638e-01  -6.4934115e-01  -4.0873682e-01   5.6649345e-01  -4.0277254e-02   6.2310476e-01   6.2239167e-01  -2.4551613e-01  -6.2382328e-01   3.9680948e-01   5.1889335e-01  -6.7758140e-01   1.0558045e-01  -3.6592252e-01   5.2625939e-01  -7.7382929e-01  -6.5043993e-01   4.3391053e-01  -4.0138762e-01   6.2533415e-01   7.2458020e-01   1.1751965e-01   5.4227192e-01  -5.3260426e-01   6.2229754e-01  -9.4649602e-01   9.4697302e-01   1.3163857e-01  -5.3105109e-01   8.0550818e-01   2.9788931e-01  -8.3556079e-01  -4.2420087e-01  -2.8119590e-01  -2.6248108e-01   1.0812164e-01  -6.7074214e-01   9.5085655e-02   9.7289962e-01   3.2191179e-01   6.6093421e-02  -3.2131078e-01  -2.4920406e-02  -2.1915365e-02   2.2493671e-01  -7.2211619e-01   2.3810420e-01   9.9010675e-01   1.9710133e-01  -3.9601210e-01   6.4228117e-01  -4.6858997e-01  -8.8838422e-01   1.4581955e-01   4.8909751e-01  -6.9721794e-01  -9.2747089e-01  -1.4810239e-01   2.5210462e-02   9.9366957e-01   3.9881951e-01  -6.7691447e-02   6.5210850e-01  -3.9731279e-01   8.5667725e-01  -7.9661813e-01   6.2975582e-01  -7.3283737e-01   8.0806958e-01  -2.5725368e-01   1.3139712e-01  -5.1129896e-01   4.1296593e-01  -9.5025921e-01   4.0672321e-01  -4.1518963e-02   4.7629442e-01  -5.7117538e-01  -9.3141510e-01  -6.0887415e-02   1.5662566e-01  -3.2607533e-01   3.3661676e-01   7.0801336e-01  -7.2904945e-01  -9.7174038e-01   4.0677258e-02  -4.2793581e-01   8.6948239e-01  -6.1058049e-01  -8.2941485e-01  -6.5500843e-01   5.6754118e-01   7.2488810e-01  -2.7365921e-01   5.6322530e-01   1.2053496e-01  -1.2569570e-01   6.6902073e-01   4.3948270e-01  -7.6569277e-01  -5.9656953e-01   9.8531988e-01   5.1469549e-01   1.6968005e-01  -7.5996469e-01  -3.7586575e-01  -2.2429930e-01   8.4693131e-01   5.3330724e-02   3.6293885e-01  -9.3781655e-01   1.8000169e-01  -7.6416985e-01  -8.4646923e-01  -2.7568955e-01  -4.0721983e-01   9.1231760e-01  -2.5994886e-01   1.6682738e-02  -8.3096894e-01   5.3388395e-01   4.2156198e-01   8.8614798e-01   4.6074831e-01   3.0997518e-01   3.2036039e-01   9.6754386e-02  -5.8977326e-01  -9.2331923e-02  -2.1378684e-01  -2.0788303e-01   7.0221552e-01   9.1362126e-01  -6.2627872e-01  -4.6257118e-01   4.9797935e-01  -2.2596332e-01  -3.4417595e-01   9.7034089e-01   7.4584721e-01   6.6053739e-01   5.9717062e-01  -7.3402077e-01  -3.8835417e-01  -1.2253270e-01  -2.6299851e-01  -6.8178120e-01  -6.4850241e-01  -2.0991056e-01   2.7200372e-01  -1.0052059e-01   7.9136062e-04  -8.6625582e-01  -3.5015147e-01  -7.8185021e-01   9.9784847e-02  -7.3090541e-01  -8.3156449e-02   6.4257395e-01   3.0641908e-01   7.4285238e-01  -2.3453403e-01  -1.5080662e-01   9.2926665e-01  -3.5930432e-01   8.3838174e-01   3.8966029e-01  -7.5119831e-01  -7.8746987e-01   2.4045328e-01  -2.1736050e-01  -1.8336645e-01  -3.7733557e-01  -2.7373498e-01   8.0839129e-01   5.3461567e-01  -2.0117510e-01   6.3766325e-01   5.1786412e-01  -9.0230497e-01   9.7654970e-01  -6.8968159e-01   9.8628301e-01  -2.5714035e-01   1.7861556e-01   4.6372470e-01  -4.7134872e-01  -4.8233932e-01   7.7172449e-01   7.4876789e-01  -2.4311207e-01  -9.3540327e-01  -1.3679032e-01  -4.6130925e-01  -4.8713433e-01  -7.3678622e-01   1.7707080e-01   2.9613740e-01  -4.4482727e-01   6.1134062e-01  -1.2214300e-01  -9.4249607e-01   5.9091488e-01  -2.1398295e-01   2.3651409e-01   4.1201071e-01  -5.6471241e-01  -2.1050556e-01  -7.6125988e-01   2.7478169e-01  -8.3966188e-01  -2.3300801e-01  -7.1140851e-01   7.4754605e-01  -5.5707470e-01  -8.7045174e-01   8.9637370e-02  -3.3753329e-01   6.0821565e-02  -9.7813254e-01  -6.7584947e-01  -9.4464188e-01   8.9188092e-01  -3.9064482e-01  -7.1802874e-01  -2.8859360e-01   2.4661611e-01   5.4775048e-01  -3.9273928e-01   4.7640669e-01   2.1973949e-01  -1.9860538e-01  -3.6596104e-01   8.9196429e-01   7.1321181e-02  -4.8700640e-01   7.7982717e-01  -4.9830231e-02   9.6751884e-01  -1.4380310e-01  -6.4686850e-01  -1.8597577e-01  -2.0276677e-01  -3.8166065e-01   2.5882859e-01   7.9469282e-02  -8.9897579e-01   7.7211685e-01  -9.8548112e-01  -7.7728374e-02   4.2671084e-01   5.6430552e-01  -1.8485532e-01  -2.7965937e-01   2.9493227e-01  -9.7140951e-02  -2.0013980e-01  -9.6994489e-02  -7.4351809e-01   7.8061903e-01   4.1364519e-02  -4.7137744e-01  -2.9877365e-01   6.4950969e-01  -9.1533312e-01   9.3519043e-01   2.4132852e-01   4.3667599e-02  -7.9772318e-01  -7.5087098e-01  -8.5155249e-02  -9.0232011e-02  -1.2154565e-05  -1.3368288e-01  -9.0021842e-01   2.0106312e-01  -1.3298837e-01  -4.5551761e-01   7.9487320e-01  -4.8270571e-01  -2.4646976e-01  -9.0138910e-01  -8.2871323e-01  -6.3014308e-01  -5.9540801e-02   2.9426345e-01   1.2396970e-01  -3.4362899e-02  -4.5299586e-01   8.5316912e-01   3.1723652e-01   3.0029367e-01  -7.3544252e-01  -7.7461788e-01  -2.4947587e-01   2.4141033e-01   5.7512152e-01   6.2062404e-03  -5.3560323e-01   3.3954616e-01  -7.1512801e-01   9.7931333e-01  -3.6150542e-02  -9.9553835e-01  -1.7875102e-01   4.4374844e-01   8.2296596e-01   2.3945154e-01  -8.0015181e-01  -2.2147914e-01  -2.0142821e-01  -8.3428829e-01   9.8538205e-02  -6.7900472e-01  -1.1844151e-01   5.0156976e-01   4.3666287e-01  -7.3180014e-01   1.0432633e-01  -1.4512823e-01  -8.1621655e-01  -6.4662238e-02  -8.8108314e-01  -7.5036947e-01  -4.8773594e-01  -5.3024578e-01   8.7594551e-01  -2.2544837e-01   1.0485766e-01  -2.7657092e-01   5.8038864e-01   6.3514553e-02  -6.0057685e-01  -8.6022422e-01   3.7981558e-01  -1.5665606e-01   4.6062053e-02  -2.6743265e-02  -5.7681755e-01   7.4669298e-01  -3.9243622e-01  -4.3375823e-01  -1.1392547e-01  -6.6866379e-01  -7.8194076e-01  -7.6626869e-01   1.0554969e-01   2.8449932e-01  -7.6072370e-01   6.1088246e-01   2.5395418e-01   9.3156210e-01  -9.5201868e-01   8.3384842e-01  -4.2098457e-01   6.0968309e-01   2.5379698e-01  -5.2696005e-01   2.6382542e-01   9.3627540e-01  -2.9947393e-01   2.4306830e-01  -5.3647856e-01   8.0029873e-01   3.0365282e-01  -4.8040348e-01   8.4801037e-01   4.5928299e-01   6.3930835e-01  -2.2287764e-01  -1.0877924e-01   9.9335337e-01
  -1.6400684e-01   6.5580971e-01   7.4204826e-01  -5.0706115e-01   6.8563666e-01   6.1914653e-01  -7.8837645e-01   4.3715533e-02  -1.0109697e-01   7.9162288e-01  -2.6006226e-01  -9.1136709e-01   8.0398625e-01   5.7473328e-01   3.8183305e-01  -7.7073189e-02  -4.3330291e-01  -3.6095669e-01   5.7834130e-01   8.1002287e-01   1.5339810e-01  -9.2016484e-01  -5.0913962e-01   4.7628904e-01  -7.1461868e-01   1.5611119e-01  -6.5538128e-01  -8.4015615e-01   8.6534022e-01  -2.0268080e-01   6.3417927e-01   8.6808881e-02   9.4871983e-01   5.2292556e-01   5.2894210e-01  -3.0303846e-01   1.9918135e-01  -2.1820308e-01   2.2039078e-01  -4.3462525e-03   5.4841765e-01   5.0030614e-01   5.0653050e-01  -1.4073065e-01   5.8257202e-01   3.0639216e-01   8.1938336e-02   3.8234004e-02   7.6353922e-01  -6.0802706e-01  -8.7802228e-01   3.6416764e-01   6.6375831e-02   7.8157487e-01   7.2342819e-02  -6.3414239e-02   4.8040639e-01  -6.4599940e-01  -5.0733551e-03   2.2873531e-01   3.2881581e-01   3.6257181e-01   9.7021959e-01   8.2306690e-01   5.9297285e-01  -3.6925844e-01   8.2410106e-01  -3.2521920e-01   5.8059496e-01  -4.7969017e-01  -4.5054092e-02   9.5189315e-02   3.7896339e-01   4.2538421e-01  -8.3370362e-01  -4.3538414e-01   8.8068894e-01  -1.2616354e-01  -6.5943448e-01   8.8955874e-02   7.5096875e-01   5.0904875e-01  -3.6819532e-02  -4.2932783e-01   3.5335338e-01  -3.6679321e-01  -5.7907289e-01  -9.4114136e-01  -5.8867121e-01  -5.8885695e-01   4.0685459e-01   8.7351213e-01  -6.4790034e-01  -4.6219297e-01  -4.5039191e-01  -6.0583055e-01   3.1340211e-01   6.8290945e-02  -9.5772871e-01  -5.1768235e-01   7.4137420e-01  -8.1688997e-01   1.7363868e-01  -2.6235068e-01   3.6119453e-01  -6.8431644e-01  -4.3841805e-01   6.0935335e-02   8.0148714e-01  -8.9561692e-02  -5.1096937e-01  -4.6615654e-02  -1.6335652e-01   6.9524901e-01  -8.6268984e-01  -5.4505989e-02  -2.3567180e-01  -8.9710258e-01   7.3038179e-01  -4.5092736e-01  -9.1138053e-01   2.9200469e-01   1.7315157e-01   3.3714243e-01  -1.0020807e-01   8.2709330e-01  -2.2555799e-01   2.0354501e-01  -3.1417463e-01   6.5085555e-01  -2.4997556e-01  -2.7959506e-01   1.7315980e-01  -3.0987218e-01   3.8226844e-01   5.5384168e-01   5.2510503e-01   4.2541697e-01   4.8710673e-01   2.9310546e-01  -1.3404007e-01   2.8729841e-01  -9.1933019e-01   2.5744490e-02   5.6741990e-01  -6.4047546e-01   9.5665547e-03   5.5804988e-01  -4.0204447e-01  -3.0729884e-01  -4.0530837e-01  -2.1541215e-01   3.5417435e-01   7.7397879e-01   9.5431830e-01   3.9640057e-01   1.2936695e-01   5.0201000e-01  -9.9996198e-01  -9.7079501e-01   4.4101939e-01  -9.3730189e-01   5.5372909e-01   5.3491648e-01  -3.8822857e-01   5.7238106e-01  -3.5774583e-01  -5.9092362e-02  -3.0567542e-01  -7.9980986e-01  -9.8455499e-01   8.0583209e-01  -2.8359011e-01  -3.7951318e-02   3.9395381e-01  -3.0251882e-01   3.1377860e-01  -8.8978328e-01  -4.8001108e-01  -7.0143073e-02   3.0305064e-01   1.4178631e-01   9.8211905e-01  -4.8413070e-01   3.8642931e-01  -7.2927713e-01   6.9169798e-01   4.9740859e-01  -9.3659706e-01   3.0029101e-01   8.7824451e-01   6.4016637e-01   3.7802070e-01  -2.7432165e-01   2.9117853e-01  -7.7213380e-01  -7.4315061e-01   2.7497820e-01   3.7655496e-02   8.6506967e-01   7.1965275e-01   9.5561729e-02  -9.5511522e-02  -7.8423038e-01   9.3207975e-01  -3.7821238e-01   4.6979999e-02  -9.6093383e-01  -7.4363058e-01  -5.0540975e-01  -9.2340090e-01  -8.8040368e-01  -6.5253140e-01   1.8721975e-01   5.2148473e-01   9.6081465e-02   3.3617016e-02  -7.3980765e-01  -5.1705155e-01  -1.3545122e-01   2.0500573e-01   9.0741932e-01  -5.8071040e-01  -2.5891120e-01  -3.6000367e-01  -2.1917905e-01   3.1202608e-01   9.3789703e-01  -2.8958872e-02   2.5249170e-01   5.1503667e-02  -7.9940279e-01  -1.8089175e-02  -6.5633150e-01   6.7760674e-02   2.0581819e-01  -3.9199999e-02  -3.5056462e-01  -9.7389099e-01   5.2977077e-01  -2.2995319e-01   7.3217036e-01   6.3123092e-01   4.7446903e-01  -9.3357713e-01   4.8516861e-01  -7.5794375e-01   3.1883653e-01   4.2978152e-01  -4.8765534e-01   4.0208463e-01   3.6261921e-01  -2.7588247e-01  -7.4922393e-01   4.3928923e-01   6.7956951e-01  -5.5438442e-01  -4.1431809e-01  -7.4923930e-01   9.7165669e-01   7.6388738e-01  -4.1691782e-01  -8.5993397e-02   9.7349205e-01   4.7521745e-01  -9.3275744e-01  -4.3215349e-01   4.1709624e-02  -9.3090826e-01  -6.3604725e-01  -7.9258146e-01  -7.6949246e-01   4.6231974e-01   7.0606214e-01   1.4717502e-01   9.6218662e-01  -5.3466143e-01   3.1396027e-01   2.4554680e-01   1.5610953e-01  -9.6280797e-01   7.6028138e-01  -7.1651631e-01  -5.0574088e-01  -6.4158266e-01  -8.8007336e-01  -9.0810156e-01  -1.8041252e-01   9.3026945e-01  -2.3517038e-01  -9.5981572e-01   6.8706912e-02  -1.5975388e-01  -1.9665212e-03  -7.4389802e-01  -9.2295462e-01   7.7113185e-01  -4.0075568e-01   1.2109005e-01   4.2228087e-01   7.3673561e-01   7.9919715e-01   6.3995581e-01  -8.5879085e-01   7.5476279e-01   2.8761720e-01  -5.1506317e-01  -7.7480985e-01   2.2512423e-01   7.3632043e-01   2.4412075e-01  -7.3042137e-03  -2.3497940e-01   9.7320287e-01  -6.9080602e-01   4.0285999e-01   8.6759543e-02  -1.7369597e-01  -1.3295067e-01   6.2488917e-01   3.7261985e-01   1.3128875e-01   6.7500180e-01   8.3605728e-01   9.5245980e-01  -5.6748168e-01   3.6277327e-01   8.7795267e-01  -3.4091480e-01   8.7511645e-01   8.2309202e-01   3.9557495e-02   5.0658525e-01   1.1407469e-01   6.1550089e-01   3.6735493e-01   8.7379022e-02   5.1336668e-01   7.4969649e-01  -8.6374929e-01   1.5204876e-01   3.5133032e-01   3.5985246e-01   7.1815582e-02   4.5829247e-01  -6.0155218e-01   2.4302157e-01   3.9233093e-02   4.7576293e-02  -3.6364256e-01  -1.9467539e-01   8.4860046e-01   5.2677073e-01  -5.5480806e-01   6.8747064e-01   8.8970281e-01  -2.8794131e-01  -8.2603722e-01  -9.2140865e-01   4.4204607e-01  -6.5957837e-01   5.5096805e-01   5.9219685e-02  -6.0759164e-01   9.0479447e-01  -7.9970463e-01   3.2621083e-01  -3.7637875e-01   9.8789355e-01   8.2849428e-01   5.8091509e-01  -2.8987649e-01  -5.7463131e-02   7.6880988e-01  -4.1761579e-01   7.6217254e-01   5.9672767e-01   9.0184037e-01  -7.6064103e-01  -4.9794542e-02  -1.7338194e-01  -4.3701336e-01   2.9915225e-01  -7.8001323e-01  -2.3510169e-02  -7.1379967e-01   7.0882057e-01  -6.1852785e-01   8.8792904e-01  -2.4923119e-01   8.9642401e-01  -8.0319700e-01  -3.1292649e-01   8.1855505e-01   4.6992587e-01  -8.9339603e-01   6.9022126e-01   2.8767738e-01  -7.4343167e-01  -8.0735723e-01  -4.5431530e-01   2.8101486e-01  -5.9261841e-01  -8.6950312e-02  -4.0586112e-01   3.0651995e-01   8.9525091e-01   8.6197461e-01  -7.0506571e-01   8.6212308e-01  -2.8962946e-01  -8.3366483e-01   1.1401693e-01   6.7797474e-01  -3.8544940e-01  -6.3998735e-01   3.5034469e-01   3.4819926e-01  -1.2558816e-01  -1.8300018e-02  -9.8201383e-01   9.3316678e-01  -8.0481061e-01  -6.7403222e-01   6.9903007e-01   4.7626337e-01   4.8734409e-01  -1.7828756e-01  -9.6896763e-01   4.4063379e-01  -7.4732728e-01  -2.4442100e-01  -1.2009573e-01   4.6664503e-01   8.6603400e-01   1.6059533e-01   4.5001661e-01  -9.0621595e-02   2.4359996e-01   6.9802360e-01  -1.7607802e-01   8.8447532e-02   9.5490451e-01  -2.1050924e-01   8.2461698e-01   1.3038931e-01   6.7027392e-01   2.8911681e-01   6.7128471e-01   8.9421029e-01   1.0048102e-01   5.6125098e-01   9.0960287e-01   2.6177356e-01  -6.1884300e-01   4.2740426e-01  -8.2039206e-01  -3.2594150e-01   7.8175735e-01  -2.6274181e-01  -4.3687503e-01  -5.2631763e-01  -4.6355012e-01   9.8516836e-01  -5.0812077e-01  -5.9551037e-01  -5.8696636e-01   4.8266931e-01   3.2501168e-01   9.7819890e-01  -1.3532344e-01   5.5616682e-01  -6.4871789e-01  -9.8159025e-01   5.8510275e-01  -9.2109072e-01  -4.3345755e-01  -1.2311705e-01  -9.4140819e-01  -5.7802539e-01  -9.0032092e-01   9.5761296e-02   8.7684270e-01   4.9056473e-01   4.2792686e-01   7.9398816e-01  -9.6553067e-01  -6.3316894e-01  -6.4265409e-02   8.7040068e-01   2.6799488e-01   6.8080947e-02   7.0557813e-01   5.9216407e-01   5.9842391e-03   7.1898546e-01   5.7089718e-01   4.4663587e-01  -3.4366756e-01   2.4450841e-01  -6.1917735e-01  -4.5952001e-01   3.4872059e-01   2.7586507e-01   6.6531642e-01  -7.1842782e-01  -9.9410100e-01  -3.2851496e-01   3.1552035e-01  -2.5897528e-01   3.5127776e-01   7.2435091e-01  -5.0010891e-01   4.1726205e-01  -9.8040896e-01   6.8422466e-01   2.5472761e-01  -7.3224840e-01   3.4776440e-01   6.6058586e-01   9.9616285e-01  -5.9314013e-01  -4.5955455e-01   2.7543501e-01   5.6431678e-01  -4.5554960e-01  -6.4956644e-01  -4.3060600e-01   7.3326577e-01   7.5018397e-01   9.9967684e-01  -6.1738244e-01  -7.6861453e-01   3.5356308e-01  -8.6631999e-01  -1.1626739e-01  -9.0015778e-01  -5.4936554e-02  -8.4618702e-01  -7.9079722e-01  -6.3337231e-01  -3.6470647e-01  -8.0901569e-01  -7.9118868e-01  -6.9673766e-01  -7.3675905e-01   1.9604650e-01   8.5568424e-01   6.2405187e-02   9.9260009e-01   4.2786218e-01  -5.3728789e-01  -6.5564642e-01  -6.2819613e-01  -9.8368329e-01   5.7072285e-01  -5.1555400e-01  -8.2514214e-01   9.0354672e-01   3.5534759e-01  -7.5587754e-01   7.1351449e-01  -9.0632235e-02  -9.1084828e-01   3.1033936e-01   1.0915177e-01   1.2116072e-01  -6.3287870e-01  -8.1860525e-01   6.5168280e-01  -8.5131503e-01  -9.1387675e-01  -1.9655153e-01  -2.6918442e-01  -1.3643578e-01  -8.3186330e-01  -7.0452884e-01  -7.6552265e-01  -3.5622212e-01  -7.2712346e-01  -8.9595817e-01  -4.3890057e-01  -7.2742796e-01  -4.9038103e-01  -6.4254975e-01  -5.3146630e-02  -5.2936795e-01   1.4999895e-01   8.2755859e-01   5.8994582e-01  -1.3149119e-01  -3.6627698e-03  -1.0363709e-02  -7.0887622e-01  -4.2029099e-01   4.5873815e-01   3.2941263e-01  -7.1358919e-01   8.6830077e-02   9.4247576e-02   6.0490275e-01   9.5220761e-01  -6.8578152e-01   8.2351543e-01  -6.1855133e-01  -1.5526733e-01   4.2721285e-01   4.7084619e-01  -8.9264026e-01   1.7738880e-01  -4.0634013e-01  -8.2191917e-01  -4.2771099e-01   8.6962277e-01  -6.9847413e-01   4.8204356e-01  -3.7544691e-01   7.5410492e-01   1.6567255e-01  -9.1922986e-01   6.3803493e-01   2.2509271e-01   3.7959155e-01   6.9921388e-01  -3.5270273e-01  -8.7417959e-01   9.3188978e-01   3.3608847e-01  -5.5823234e-01  -5.4534014e-01   2.3903052e-01  -6.9333297e-01  -5.9752287e-01  -3.7290468e-01  -1.9209361e-01  -5.2478581e-01  -9.2965844e-01   7.2252110e-01  -3.2724232e-01  -7.5346832e-01   3.4410588e-02  -7.2560427e-01  -7.1524218e-02   7.3525245e-01  -3.1739065e-02   3.6299217e-01  -4.7864600e-01  -4.3717034e-02   1.1873573e-01  -2.7125812e-01   4.4650609e-01  -2.5031246e-01   7.9760191e-01   7.5620622e-01  -9.4356940e-01   8.4588078e-01   9.9287214e-01  -3.4377041e-03  -1.2885812e-01  -8.2143776e-02  -9.0459444e-01   6.2198000e-01  -9.9421585e-02   2.3361984e-01   2.3026127e-01   8.1613178e-01   4.2958148e-01  -9.5603880e-02  -1.0075326e-01  -2.6904106e-01   2.0535481e-01  -9.8055352e-01  -1.8649027e-01   5.0442411e-01   6.2313009e-01  -3.7345340e-01  -5.1548741e-01   4.5022814e-01   8.8942648e-01  -1.4372686e-01   2.4663686e-01  -9.0148862e-01  -2.6269255e-01  -7.8042174e-02   3.2701956e-01  -2.1720901e-01   3.1712168e-01  -6.0968973e-01   8.5610768e-01  -4.9224382e-01   9.0597927e-01   8.5651706e-01   9.7273119e-01  -9.0045216e-01  -3.1069584e-01  -3.4202429e-01   3.3556410e-01   8.8849901e-02  -9.5121998e-01   6.3328020e-01   4.2394363e-01   7.7628473e-01  -1.7732892e-01   8.0807445e-01  -4.6395195e-01   1.6017575e-01  -2.9500510e-01   5.8061122e-01   2.0758125e-01   2.5156403e-01  -6.0878799e-01   6.8690629e-01   8.3090366e-01   2.0931919e-01  -9.7787432e-01  -4.0652229e-02  -5.4398865e-01  -1.2313473e-02   9.9600464e-01  -2.8823935e-01  -7.5398668e-01  -6.1301443e-01  -2.5540169e-01   7.8401675e-01  -6.7329377e-01  -9.5455707e-01   8.2479590e-01  -4.1870041e-01  -5.2958127e-01   3.9250323e-01  -1.0566537e-01  -8.8150284e-01  -1.9945882e-01   2.2088244e-01   3.7856590e-01   7.9567065e-01   5.1026563e-01  -1.5821143e-01   4.3388813e-01  -1.9497674e-01  -9.6102183e-02  -8.0543782e-01  -7.9532236e-01  -6.0254670e-01  -4.7375265e-01   6.3721528e-01   4.4895119e-02  -2.6661482e-01  -2.3775287e-01  -4.2042577e-01   9.6577859e-01  -7.0925190e-01  -8.0852949e-02  -4.7369582e-01   8.8763068e-01   1.0223040e-01  -9.2301707e-01   3.3162716e-01  -1.0349897e-01   2.2205798e-01  -9.1156878e-01  -1.5036453e-01   8.9294757e-01   3.1584029e-01   6.2983475e-01  -7.3458821e-01  -9.2077775e-01   5.7796779e-01   4.4949103e-01   5.1278174e-01   1.7810784e-01  -4.3772905e-01  -9.9848428e-01  -9.2068842e-01  -4.6506649e-01   9.1489030e-02  -7.5692324e-01   2.6330803e-01  -2.2508994e-01   3.2504234e-01  -9.6355277e-01   8.2267667e-01  -5.6708807e-01   4.7968960e-01   6.2536578e-01  -4.2348377e-01   8.5451481e-01  -9.7504852e-01   4.0214587e-01  -5.1539595e-01   9.9682062e-01  -1.9759264e-01   9.9322021e-01   4.1434943e-01  -1.6609739e-01  -4.4804916e-01  -9.1709101e-01  -6.9526532e-01  -3.8782845e-01  -5.1538933e-01  -2.3296802e-01   3.4128323e-01  -7.6453040e-02  -2.3295349e-02   4.0728579e-01  -4.7100256e-02   1.6410688e-01  -7.3700852e-01   5.2091052e-01  -5.2494615e-01  -8.3323869e-01  -1.9517635e-01   9.3828338e-01   1.4350985e-02   1.2421225e-02   3.1605923e-01   6.2119213e-01  -8.6592693e-01   6.0529942e-01   6.7139725e-01   1.4769159e-01  -2.8976556e-02   5.3952690e-01  -6.9294798e-01   6.0957890e-01  -7.1749318e-01   8.2466993e-02  -8.6567830e-01   1.3513231e-02   9.2588169e-01  -3.7516259e-01   3.1589119e-01  -9.2049232e-01  -2.6523448e-01   9.7833840e-01  -9.1412207e-01   9.6736013e-01   1.6158146e-01  -2.5510604e-01   3.9303676e-02   5.8994874e-01   9.4245510e-01   7.0565047e-01   5.6765222e-01  -8.7822852e-01  -7.5948170e-02   8.0244086e-01  -9.3277264e-01   6.7157570e-01   1.1492989e-01   5.7326827e-01  -6.8008748e-01   2.3570999e-01  -2.7468866e-01   8.0326724e-02   7.6278769e-01   5.8919491e-01  -5.7775423e-01  -7.5074402e-01  -6.4928702e-01  -6.8708788e-01  -5.9604138e-01   9.9594303e-01  -2.4334033e-01   7.3697931e-01  -7.6579015e-01   6.2759730e-01   1.0936152e-01  -9.0571562e-01   5.4519976e-01   5.8492501e-01   7.7031218e-01   4.9080958e-01  -2.8117683e-01   5.4567782e-01   8.6387254e-01  -5.1500686e-03   5.0175148e-01  -8.1320832e-01   8.0048794e-01   9.0503307e-01   6.0996507e-02  -5.9827840e-01   9.0516704e-01   9.5427782e-01   2.7001999e-01  -2.1100533e-01  -1.9242784e-01   8.5705308e-01  -7.2648856e-01   1.7755398e-01  -4.0575080e-01   7.6144438e-01  -3.6394668e-01   4.3865052e-01   5.3086035e-01  -9.4248079e-01  -2.4203730e-02   5.3250791e-01  -4.2817646e-01   6.2579383e-01  -7.9144071e-01   6.0868402e-01   6.7819103e-01  -9.9388632e-01   7.3115628e-01   9.3389748e-01   1.5962953e-01   4.9197574e-02   9.5865910e-01  -4.8987621e-01  -1.8778712e-01  -1.9337322e-01   5.9214318e-01  -8.8924688e-01  -8.9039947e-01  -5.2003148e-01   2.5226764e-01  -8.2735316e-01  -1.4131874e-02   2.5548252e-01   8.0870818e-01   2.1660481e-02  -7.1878511e-01   4.3012472e-01   3.6015871e-01  -2.3245713e-01   9.0318401e-01  -6.7283619e-01   3.5476523e-01   8.4498311e-01   4.2976798e-01   2.0627381e-01   7.2627071e-01   6.2233789e-01   4.5289358e-01   5.3222757e-01  -4.2777417e-01  -7.5057115e-01  -3.6992707e-01  -7.3412971e-01   5.8900986e-02   8.1096577e-01  -8.3193883e-01   1.4964543e-01   8.7552334e-03  -2.6072762e-01   1.1794396e-01  -9.7378126e-01   1.3884938e-01  -7.0572593e-01  -6.5975669e-01  -3.8404366e-01   2.0714137e-01   2.1052217e-01   3.5099612e-01   2.6720139e-01   7.1370025e-01   1.2716609e-01  -8.1476621e-01   2.2220367e-01  -3.3731447e-01  -1.7315572e-01   4.5744212e-02   9.9582766e-01  -8.0592821e-01   9.0964320e-01  -7.6246558e-01   9.9914011e-01  -9.4702626e-01  -8.8620821e-02   1.1384585e-02   7.1062988e-01   5.1816108e-01   7.7204800e-01  -3.1932358e-01  -3.6946923e-01  -4.0772924e-01   8.4205068e-01   1.3440181e-01  -8.6712257e-01   2.8443932e-01   4.3368973e-01   3.0231522e-01  -9.4901469e-01   6.6760827e-01   7.5260738e-01  -6.1892570e-01   9.7288838e-01  -6.6557354e-01  -7.0405350e-01  -8.5408667e-02  -7.5315338e-01   5.9666437e-01   9.6871841e-01   9.1339978e-01  -8.8567954e-01   7.0973451e-01  -6.9082655e-01   9.7518472e-01
  -1.3010344e-01  -8.7469684e-01  -9.5062147e-01  -4.8415201e-01  -8.5771531e-01   7.5656471e-01   2.4000658e-02   8.8596859e-01  -8.5511048e-01  -3.2224644e-01  -1.3943197e-02   2.5182500e-01   8.5325767e-01  -8.6556377e-01   8.9002617e-01  -7.3743087e-01  -6.8642809e-02   4.6310771e-01   2.1113598e-01  -3.5031061e-01   2.4996748e-01  -1.6009762e-01  -8.3913681e-01  -9.6775499e-01  -9.4826422e-01   5.5509548e-01   8.3633510e-01   2.9941042e-01  -3.1304537e-02  -1.4219473e-01  -6.4191753e-02   5.7609365e-01  -3.3045312e-01  -6.9051525e-01   1.4916797e-01  -7.7789430e-01  -5.8105827e-01   4.7922968e-01  -7.0827368e-02  -9.4081821e-01  -5.4277834e-02   1.3679123e-01   4.9869208e-01   1.7403920e-01   4.1609644e-01  -5.8943588e-01  -2.3659770e-01   3.8700294e-01  -2.1551131e-02  -5.7611525e-01   3.3593822e-01  -4.2308850e-01   5.5635166e-01   4.8179794e-01  -3.2902494e-01   5.7144032e-01  -2.2695407e-01  -4.4352498e-01  -6.0145549e-01   6.0848101e-01  -5.7002791e-01  -6.6571992e-01   7.4249274e-02  -1.5523714e-01  -1.0313242e-02  -1.2403952e-01  -2.0439481e-01  -5.5679670e-01  -4.0880482e-01   8.3353558e-01   3.3590778e-01   4.6388854e-01  -2.8024325e-01   7.9625087e-01  -2.7313409e-01  -4.9990317e-01   8.1939797e-01   4.3694671e-01   5.1633608e-01  -8.9827553e-01  -9.7084905e-01   4.3583931e-01  -6.1506478e-01  -7.5578451e-01  -4.5372166e-01   1.5215228e-01  -9.0162981e-01  -6.7153353e-01  -7.1632542e-01   8.2405649e-01  -5.7127565e-01   5.5368328e-01  -7.8470327e-01   5.5342165e-01  -3.0529972e-01  -6.1236021e-01  -8.5005128e-01   8.7435299e-01  -2.7280564e-01   6.4221401e-01  -2.1408914e-01   9.1147787e-01  -3.4540477e-01  -7.5122193e-01   6.5688600e-01  -8.2811497e-01  -7.8423445e-01   8.0509634e-01  -6.4022053e-01  -1.5007182e-01   5.3279083e-01   8.8917101e-01  -6.4536584e-03   7.0564742e-01   8.6058092e-01   6.0078595e-01   3.8526410e-01  -3.0263644e-01  -3.7943549e-01   2.9091642e-01   2.5079965e-01   4.4064088e-01   5.5009792e-01  -6.8439806e-01  -7.3076211e-01  -7.8146043e-01   1.5444216e-01   9.0772206e-01  -6.5342071e-01  -7.5124322e-01   4.0938591e-01   5.1636126e-01   4.5120040e-01  -7.8049224e-02   2.1258054e-01  -9.7626846e-01  -8.9278793e-01   6.2816256e-01  -6.2479632e-01   1.0129839e-01   9.3316599e-01  -7.4261515e-01  -2.6616710e-01  -3.4335821e-02   9.3814019e-01   8.8892564e-01   4.9743537e-01  -6.7651648e-01   2.6530493e-01   7.7626401e-01   3.3740341e-01  -8.2466933e-01   4.8143132e-01  -2.6123761e-01   8.0376421e-01   6.0830135e-02   2.2681171e-01  -3.8844828e-01  -9.9285544e-01   5.0818434e-02  -6.4045856e-02  -2.9318439e-01  -5.1345341e-01   9.3780754e-01   3.1303350e-01   4.0143980e-01  -2.0117262e-02  -2.3464431e-01   3.8497344e-01   2.8400363e-01   9.9672864e-01  -3.0493707e-01  -1.3939448e-01   2.5398955e-01  -8.6639857e-03   1.2452577e-01   6.5200110e-01   5.1845751e-01   1.9868932e-01   9.5659209e-01   2.9854525e-01  -8.3318851e-01  -7.9062264e-01   5.6741153e-01  -5.6782776e-01   4.3222799e-01  -5.0219849e-01   4.2395007e-01  -9.3524680e-01  -9.8130505e-01   3.1597763e-02   2.8062647e-01  -7.5522366e-01   6.2873662e-01  -8.7544782e-01   3.7064006e-01   8.3838797e-01   3.1236224e-01  -1.6373076e-01  -3.7492504e-01  -4.5061622e-01  -1.3402441e-01   4.8023445e-01   3.0084237e-01  -9.3977378e-01   6.1719952e-02   4.8280425e-01   7.7240904e-01   5.8257853e-01  -4.4434028e-01  -8.5416661e-01  -9.9238004e-01  -7.0514511e-01   2.1417913e-01  -6.9187971e-01   6.7895157e-01   9.1948117e-01  -6.1444870e-01  -4.1001474e-01   1.8976017e-01   1.5534756e-01   6.6009813e-01  -6.0978268e-01  -3.1794447e-01  -4.8344155e-01   2.2122287e-02   8.7907420e-01  -7.9642554e-01   5.4495589e-02  -7.1946924e-01  -4.6122550e-01   8.0898874e-01   9.1642965e-01  -5.1432187e-01  -7.7512471e-01   8.9905555e-01  -1.0011223e-01  -3.8761131e-01   5.8130476e-01  -8.8399273e-01   4.3194342e-02   8.4845747e-01  -7.8904072e-01   8.9398840e-01   3.4452612e-01   9.0514744e-01  -4.9260698e-01   8.6835769e-01  -4.0474106e-01  -2.9266395e-01   9.4635865e-01   6.5662570e-01  -7.9617417e-01  -2.2692743e-01   4.7222379e-01  -8.1938652e-01   6.2418971e-01   7.9098617e-01  -3.4535400e-01   8.4575858e-01   5.2357822e-01  -6.8823513e-01  -2.5856043e-01  -8.3676015e-01  -8.5963106e-01  -7.7946517e-01  -6.8749296e-01   6.9013648e-01   2.6736901e-02   9.3287952e-01   6.2689255e-01  -1.0781523e-01   1.1119523e-01  -1.6772866e-01   2.7619223e-01  -9.6934913e-01   1.7694544e-01  -7.3056693e-01  -8.7661752e-01  -3.0791759e-01   4.1404835e-01  -6.4142057e-01  -4.8324499e-01   9.1228930e-01  -6.3013907e-01  -8.3006898e-01  -1.7916417e-02  -7.2231357e-01  -7.9480931e-01  -7.7158440e-01  -5.7026576e-01  -1.8715600e-01  -2.2098375e-01   1.0737923e-01   6.0346512e-01   3.8414721e-01  -6.6013016e-01   5.9596782e-01  -1.3662614e-01  -8.3384520e-01  -7.0216545e-01   6.8653981e-01  -3.3460627e-01   7.0253359e-01  -7.2444436e-02  -1.8550491e-01  -6.5214502e-01  -6.1853433e-01   2.4947990e-01   5.9265450e-01   5.1627534e-01   7.0959608e-01  -7.3521439e-01   1.4158299e-01  -9.5183947e-02   7.6046197e-01   3.0785896e-01  -1.4757594e-02  -8.2534456e-01   6.3806915e-01   6.7442871e-01   9.3552764e-01   7.7999955e-02   7.9396234e-01   1.9360627e-01   5.3605847e-01  -2.8160087e-01  -1.7144842e-01  -5.4721447e-01   7.9103846e-01   5.6009230e-01   4.4428598e-01   6.2518249e-01   8.0347663e-01  -3.9423737e-02  -6.1119728e-01   6.0622948e-02   3.9039301e-01   1.1569456e-01  -7.8626506e-01  -5.9241232e-03   6.1348350e-01   6.5325631e-01  -9.6117963e-01  -8.7141280e-01   7.3338654e-01  -6.8285814e-01  -6.1310074e-01  -2.3823680e-01  -2.1815970e-01   4.3790732e-01   8.4503989e-01   6.3895172e-01   5.2281315e-01   1.5372618e-01  -7.9171655e-01   3.1001961e-01   4.0440007e-01   7.2900582e-01   5.8489863e-01   8.5634107e-01   6.0660772e-01   2.1949368e-01   8.5803483e-01   6.2039424e-01   6.9897273e-01   4.4022008e-01  -7.0171491e-01   1.5336410e-01   9.0668690e-01  -1.6472991e-01   1.1465550e-01  -1.2314924e-01   6.3778134e-01   5.3431209e-01  -6.0306546e-01   3.9385451e-01  -7.1618479e-01   4.4507751e-01  -8.9319470e-01  -8.1578699e-01   6.5881846e-01  -4.9548786e-02  -6.0906229e-01  -5.4617330e-02   7.5788898e-01   9.4916800e-01   5.6673392e-01  -9.5930847e-01  -4.7261218e-01   1.5501144e-01  -1.0911282e-01   7.3009593e-01  -3.6438962e-01   3.9483248e-01   9.9049757e-01   2.1232215e-01  -3.8966077e-01   8.9934476e-01   7.3815344e-01  -4.0531385e-01  -2.2761722e-01   5.5444475e-01   7.9654728e-01  -9.3035677e-01  -8.3539149e-01  -8.8277165e-01   2.2937474e-01  -3.4937088e-01   1.6854997e-01  -5.7449869e-01   9.2614443e-01   7.3702204e-01   9.3342947e-01   7.6454964e-01  -1.6475180e-01   4.1257519e-01  -1.6419599e-01   6.1595363e-01   4.9777216e-01   1.1846847e-01  -8.6179450e-01   8.4799682e-01  -1.8896769e-01   3.1313126e-01  -2.9623050e-01  -8.4128057e-01   5.4838979e-01  -4.1024843e-01  -4.7005923e-01   4.0841607e-01   6.1792189e-01   7.6363174e-01   3.8192261e-01  -9.8347003e-01  -4.1721948e-01  -3.4330466e-01  -3.6803730e-02  -7.9635716e-01  -2.8020024e-01   1.2050903e-03  -5.1610073e-01   5.5346633e-02  -6.6275105e-01  -2.6402362e-01  -7.2873742e-01   1.5596273e-01  -1.8029659e-01  -4.2192677e-01  -1.8716041e-02  -9.0528210e-01  -1.6913693e-01   4.0148083e-01   5.3931088e-01   2.6828823e-01   7.4141538e-01   8.4263782e-01  -8.9837911e-02   3.7068397e-02  -2.0290685e-01  -6.0013450e-01   8.8655369e-01  -2.1952790e-01  -1.8177423e-01   6.8019579e-01  -1.4571904e-01   1.5172679e-01  -7.4966342e-01  -7.2756268e-01   1.7931210e-01  -7.5408295e-01  -3.1701424e-02   8.7173028e-01   1.0779398e-01  -3.2426268e-01  -5.1361230e-01  -3.6118263e-01  -2.2066371e-01  -6.0159904e-01  -9.1708101e-01   1.4408293e-01   2.3826655e-01   8.5646010e-01  -4.8469273e-01   9.4316290e-01  -3.5279195e-01   4.9499695e-01  -5.0121303e-01  -6.9372401e-01   9.3523400e-01   3.5533596e-01  -4.8982332e-01  -8.0468962e-02  -6.7461188e-02  -9.4408150e-01  -7.4422174e-01   5.0085539e-01   7.6615114e-01  -2.2164106e-01   1.7730751e-01  -9.8140656e-01  -3.4396460e-02   6.0584617e-01  -6.1713673e-01   9.8473215e-01   4.1513899e-01   1.2803697e-01  -2.8557398e-01  -5.2729448e-01  -1.5056566e-01  -4.2106249e-01   1.5921419e-01   2.3053970e-01  -8.2310964e-01   3.7361826e-01   3.2572421e-02  -8.0555029e-01  -8.3710806e-01   8.8379549e-01  -8.6961721e-01   3.4889513e-02   3.3792790e-01  -1.7119214e-01  -8.5594321e-01  -2.0632322e-01  -6.1640324e-01   2.1275674e-01   4.1074665e-01   1.0996995e-01  -6.0006700e-01   1.1732588e-01   3.5686442e-01   9.2946140e-02   1.9804259e-01  -6.9301165e-01   4.9930507e-01  -5.2938192e-01  -5.0026775e-01   1.9318434e-01  -1.7478822e-01   2.3571672e-01  -8.8768785e-01   8.1745758e-01  -2.3697706e-01  -4.1469841e-01  -4.0199140e-03   1.6940285e-01  -9.5141136e-01  -2.2693242e-01   3.8000800e-01  -6.3453024e-01  -5.9602833e-01  -1.1892403e-01   9.6233441e-01  -4.4845022e-01  -4.9311118e-01   2.6321953e-01   4.7430616e-01  -4.5294132e-02   7.5903331e-01  -7.6695676e-01  -9.5750706e-01  -8.8012454e-01   7.2586791e-01   3.1708811e-01  -9.7319825e-01  -4.8543131e-01   2.8643038e-01   8.0798919e-01   9.8566926e-02  -1.0117044e-01   7.4401420e-01  -1.6231176e-01   4.3152599e-01  -3.9117444e-01  -7.7233630e-01   7.5805926e-01  -6.7065805e-01   8.8347032e-01   7.2743254e-01   6.0973095e-01   3.5713995e-01  -7.3380837e-01   1.5998735e-02   6.8318254e-01   1.0466816e-01   9.2834833e-01   9.5638325e-02   5.0689276e-01  -7.7291463e-01  -2.6676153e-02   6.3311382e-01   9.4948032e-01   2.8003801e-03  -6.9439148e-01  -1.9930533e-01  -1.4417267e-01  -9.1686679e-01   9.9544671e-01   7.8961152e-01  -4.3592715e-02   3.7934017e-01  -4.4304043e-01   4.5684356e-01   2.4804712e-01  -5.9492326e-01  -7.8615287e-01  -4.2921828e-01   4.4610396e-01  -7.0254852e-01  -9.7348371e-01   1.2827428e-01   3.4640168e-01  -5.9943542e-01  -3.7581870e-01  -8.9010213e-01   1.6450823e-01   3.6577015e-01  -7.0581842e-01   1.9543380e-01   4.7864283e-01   8.7732566e-02   1.8439648e-01  -8.3237818e-01  -2.2468611e-01  -4.1249593e-01   2.9186094e-01   2.9337637e-01   4.7286125e-02   2.8616232e-01  -7.2949337e-01  -2.8787090e-01  -4.0932447e-01  -5.4248461e-01   4.1887568e-01   9.7289437e-01  -3.0261913e-02   5.3673469e-01  -5.8254844e-01   5.5380103e-01   1.2139230e-01  -2.8020400e-01  -7.1329361e-01   5.8988576e-01   9.6786998e-01  -5.2913665e-01  -5.3833231e-01  -5.3135461e-01  -7.5210919e-01   3.1486634e-01   6.6149586e-01  -5.2540476e-01   1.4705996e-01   7.3768876e-03   6.9548708e-01  -6.9017073e-01   1.4433800e-01   1.5261396e-01   3.1391724e-02   3.3923600e-01  -3.5483086e-01   1.0542386e-01  -4.0043654e-01  -3.1000077e-01   3.9965357e-01  -4.4705644e-01  -1.4630649e-01  -3.6020421e-01   1.7616445e-01  -3.3413741e-03  -5.5969908e-01  -8.8369841e-01   9.7225902e-01  -1.6573217e-01  -2.6104705e-02   7.5729742e-01   9.8857347e-01  -5.5123197e-01  -4.9891340e-01  -7.3448939e-01   2.9423375e-01  -8.3352786e-01   1.1374600e-01   2.9068934e-01   4.0706878e-01   1.3395366e-01   3.8376231e-01  -5.2211158e-01   7.6347648e-01  -2.0769534e-01  -2.9916588e-01   7.6546587e-01   1.8631330e-01   7.0674221e-01   3.4273536e-01   6.8502836e-01  -7.8417681e-01   8.3609327e-01  -3.4366873e-01  -1.3393652e-02   8.4587232e-01   4.3214756e-01  -9.0824795e-01  -6.5784403e-01  -7.6166562e-01  -1.7999895e-01   1.6912282e-01   2.0738777e-01   9.4602694e-01  -3.2824285e-01  -6.5377996e-01  -5.5019725e-01  -8.5541114e-01  -9.6969444e-01   3.1192283e-01  -6.9868189e-01   5.7238971e-01  -2.9450706e-02  -4.3984621e-01   6.1796602e-01  -3.6389739e-01   8.5771165e-02   4.1109723e-01  -3.6719902e-02   6.1691821e-01   5.3656812e-01  -3.4894419e-01  -7.1807238e-01  -2.4895537e-01  -3.9052226e-01  -1.0912020e-01   6.7413176e-01  -8.0959416e-01   4.3452510e-02  -2.3627338e-01   9.6541268e-01  -6.0404813e-01   6.6044760e-01  -6.8294916e-01  -8.2288714e-01   2.4912946e-01   8.4279673e-01  -2.8686015e-01  -9.7843561e-01  -7.0009543e-01  -7.6227816e-01   2.8022808e-01  -2.8664401e-01   2.8259431e-02  -4.0529879e-01   7.7358589e-01   9.3152088e-01  -4.9350904e-01   7.7278413e-01   7.4080578e-02  -2.3182249e-01   3.2959543e-01  -8.5520248e-01  -5.0676841e-01  -5.0926281e-01   6.2676542e-01  -9.1406301e-01   3.3077269e-01   3.6367961e-01   8.7420478e-01   2.2242044e-01   2.7810380e-01   5.3192337e-01  -9.2393185e-02   9.3890151e-01  -8.7951347e-01   2.0019212e-01  -6.4065861e-01  -6.1599499e-02  -6.9147489e-01   5.4277019e-01  -9.5916633e-01  -2.6836691e-01   8.7791666e-01  -3.8554970e-01  -5.8289313e-01  -4.7649136e-02  -1.8324553e-01  -4.1295798e-01   7.9287540e-01  -5.2774866e-01  -9.5092358e-01   6.5137849e-01   5.2662005e-01   5.7409846e-01   5.5478147e-01   1.1496269e-01   3.6874450e-02   3.0192288e-01  -9.3646220e-01  -2.7663546e-01   2.8885270e-02  -7.7946382e-01  -8.9537106e-01  -5.6962408e-02  -7.7362329e-01   5.2369923e-01   3.9204364e-01   3.8973655e-01   7.7897819e-02  -6.5862374e-01  -6.1684015e-01   7.8696880e-01   3.5315604e-01  -1.0879915e-01  -3.8023906e-01  -2.4420490e-01  -2.1722039e-01   5.0038882e-01  -5.9920317e-01   7.2476866e-02   6.2593307e-01   4.2949488e-02   3.8240511e-01  -2.6437018e-01  -2.0400211e-01   1.4565343e-01  -2.3522785e-01  -5.2992798e-01  -8.4126454e-02   1.8875426e-01  -3.6726573e-01  -5.7668532e-01  -4.9060788e-02   1.0914532e-02   7.8622104e-01  -1.1689698e-01   6.2716123e-01   8.5473677e-01  -7.1090580e-01  -9.1810385e-01  -3.0101758e-01   4.1331292e-01   2.1609761e-01  -9.3617207e-01   3.1541733e-02  -9.0400230e-01   9.7290329e-01   6.3320636e-01   9.4085056e-01  -4.8367666e-01   2.9712127e-01  -6.2078863e-01   4.3580947e-01   2.3142846e-02  -4.8801266e-01   5.2413150e-02   6.0459681e-01  -5.9200367e-01  -3.1764755e-01   9.2750439e-01  -1.0977303e-01  -9.7775042e-01  -6.3500034e-01  -9.3672737e-01   4.2546754e-02  -6.7140575e-01   5.9477891e-01   2.7946149e-01  -7.5561004e-01   3.8105853e-01  -8.5262021e-01   2.8464458e-01  -8.7603274e-01  -5.5558404e-01  -5.7097252e-01  -6.4988422e-01   3.5361348e-01   1.1803415e-01  -7.0487139e-01   6.7424742e-01   3.2380361e-01   9.3225502e-01   9.3498203e-01   7.4570787e-01   4.5618206e-01   8.8340643e-01   5.3855276e-01  -2.7159509e-01  -3.3413461e-01   4.4695272e-01   7.0159918e-01   6.8974142e-01   4.0673231e-02  -2.6309447e-01  -9.2344235e-01   7.9866517e-01   4.3785967e-01   4.1269256e-02   2.5136196e-01   5.4462907e-01   7.7672162e-01   9.3824954e-01  -9.0078534e-01  -2.9596161e-01   8.1958788e-01  -6.8731190e-01  -2.5745415e-01   4.0683112e-01  -7.7044411e-01  -4.0685674e-01  -5.2149661e-01   6.3984486e-01   5.3038114e-01  -5.2303058e-01   6.6832604e-01   6.5377514e-01   2.2100995e-01   5.4366275e-01  -7.4861071e-01  -9.9019528e-01   4.2196025e-02  -4.0306876e-01   9.9344129e-01  -3.6301032e-01  -1.6751521e-01  -5.6837186e-01  -5.0556183e-01   3.1662674e-01  -3.0174055e-01  -4.8035979e-01  -6.0178610e-01  -8.0982844e-01   2.1200863e-01   4.2001386e-01  -1.8259918e-01   8.9732738e-01   7.8321066e-01  -6.8782959e-01  -7.1670617e-01  -8.9720012e-02  -7.6841019e-02   7.4320003e-01   7.6779962e-01   2.4224142e-01   7.3605194e-01   1.9889678e-01   8.4196450e-02  -8.9299760e-01   4.0483184e-01  -8.2820628e-01  -7.2787244e-02  -5.8595318e-01   2.6802294e-01   8.3375327e-01   9.2854556e-01  -1.7077412e-02   5.9393645e-01  -2.7147432e-01   7.6180857e-01  -3.6342961e-01  -5.9821146e-01   9.4041869e-01   6.6612818e-01   2.0888394e-01  -1.0342600e-01   3.9977526e-02   9.5221166e-01  -5.3969263e-01  -7.9232986e-01   7.9083306e-02   2.7876761e-01  -5.6220881e-01   1.0622144e-01   1.5360886e-01   3.4420898e-01  -9.6493283e-01   5.9956746e-02  -2.6658189e-02  -3.4471731e-01   1.5587337e-01   6.3916255e-01   3.0331500e-01  -7.8269786e-01  -5.3419124e-01  -2.5785832e-01  -1.7309761e-01   2.0758397e-01   6.8550545e-01  -5.0720538e-02  -6.1787707e-01  -9.1498587e-02   4.1685826e-02   6.7617759e-01   3.4558601e-01   1.4614301e-01   3.0169368e-01  -2.0472998e-04  -2.4875277e-01  -6.0346233e-01   6.9974986e-01   5.0000449e-02   7.3587682e-02   8.8521975e-01  -8.4567940e-01
   3.5186956e-03  -9.6107816e-01  -3.5609955e-01   3.6636209e-01  -2.3128551e-01   8.5961083e-01  -1.3512210e-02  -9.1982010e-01  -2.0318359e-01   8.0239989e-01  -3.7667541e-01   3.6110085e-02  -7.1086842e-01   1.0742933e-01  -4.4159718e-01   5.2599910e-01  -6.3152036e-01  -4.1276603e-01   4.2027483e-01   4.4399298e-01   8.5065572e-01  -8.5200853e-01  -9.9961889e-01  -9.1952814e-01  -2.7646579e-01  -5.1972941e-01  -3.2755276e-01  -4.1942531e-01  -4.9735932e-01   9.0808553e-01  -5.7643550e-02  -6.4392400e-01  -2.9574825e-01   6.9641486e-01   5.7532757e-01  -6.6363128e-01   9.6060901e-01  -7.4055461e-01   1.0721422e-01   5.5565725e-01   3.0413441e-01   1.3121936e-01  -1.7681983e-01   3.3642608e-01   9.8825623e-01   6.2676074e-01  -1.4065564e-02   5.8579534e-01   4.3954258e-01  -9.4782992e-01  -2.3153907e-01   1.4099025e-01   6.2373194e-01   5.6129382e-01  -6.2995641e-01   1.7515964e-01  -9.2708508e-02   6.3870862e-01  -9.2600832e-01  -1.4470531e-01  -2.4335395e-02  -4.2104300e-01  -9.2550321e-01  -8.1992272e-03  -3.2202167e-01   3.6530173e-01   6.9326637e-01  -8.8345057e-01   2.3525649e-01  -6.8697618e-01  -7.7245035e-01   8.0563166e-01  -7.2619186e-01   4.1621164e-01  -1.4686619e-01  -3.1209452e-01   1.4288652e-01   4.3575675e-01   6.4267465e-01   9.0799264e-01  -2.7773356e-01   8.6368283e-01  -1.6887997e-01  -1.8115486e-01  -6.9698611e-01  -7.7354060e-01   8.9403071e-01  -5.7407873e-01   9.8000637e-01  -8.0652238e-02   1.2321699e-02  -2.8646354e-01   5.8565572e-01   1.9683006e-01  -9.5695119e-01   4.5831500e-01   9.7055059e-01  -2.5682991e-01   9.6626719e-01  -8.9941934e-01   7.2261602e-01  -2.8278472e-01   9.5036228e-01  -4.9702967e-01   4.3349638e-02  -9.9955858e-01   8.9409688e-01  -1.8171177e-01  -8.4372114e-01   5.5674611e-01  -6.9253690e-01   7.2059083e-01  -8.9802619e-01  -6.6161494e-02   7.2490928e-01  -7.3565354e-01   6.3714047e-01   8.0343556e-01  -7.7682769e-01  -7.2825456e-01  -9.3504545e-01   3.0914693e-01  -8.4270370e-01  -5.7524200e-01  -4.2260089e-01  -8.1577888e-01  -5.2362091e-01  -5.3034539e-01   8.6168820e-01   7.6618720e-01  -8.3440027e-01   8.5536269e-01  -5.1649900e-01  -5.2315086e-01  -8.2028814e-01  -4.6933218e-01   8.9209003e-01  -2.0345308e-01   5.6442338e-01   7.0743687e-01   7.4753683e-02  -4.4994288e-01   7.3332141e-01  -6.2620821e-01   7.9856994e-01  -2.4934628e-01   3.0484031e-01   2.2576349e-01   8.1635325e-01  -9.9915872e-01  -2.4990088e-01   8.6606584e-02  -2.0024753e-01   2.0516341e-02   6.4680821e-01  -3.1952638e-02  -2.8777622e-01  -8.6874187e-01  -7.9025167e-01   7.3291817e-01   5.6554379e-02  -2.9041474e-01   3.5011283e-01   1.9341010e-01  -4.8249139e-02  -6.9252429e-01  -8.3334670e-01  -1.3897092e-01  -9.3902608e-01  -8.4603123e-01   6.0227685e-01   6.8636222e-01  -2.9705219e-01  -6.5906785e-02  -8.9237163e-01   2.2467975e-01  -2.7383494e-01   2.7354018e-01   9.2598659e-01   3.6726913e-01  -7.0979561e-01  -9.0772046e-01   6.8047792e-02  -9.4129889e-01   3.2379982e-01   3.5170645e-01  -7.9691850e-01  -2.4451646e-01   4.8981792e-01   7.2285435e-01  -8.4918549e-01  -8.1543067e-02   1.3758357e-01   2.2764745e-01   9.9499394e-01   8.9278053e-01   3.6283860e-01   9.0616256e-01  -4.6540320e-01  -6.1143774e-01   8.0225529e-01  -3.3651369e-01  -6.0053368e-01  -5.1600931e-02   8.3737073e-01   4.9880342e-01  -7.3866551e-01  -2.4116941e-01   7.2383912e-01   3.2040747e-01   2.0697023e-01  -3.5549298e-01  -2.0041986e-02   3.1944760e-02   4.1492888e-01   1.3175811e-01   9.6443953e-01   6.2434036e-01   1.1963506e-01   8.4400318e-01   2.6151144e-01  -5.3439311e-02  -2.3075291e-02   3.6607410e-01   2.0991423e-01   6.6748698e-01  -9.5733815e-01  -8.2062263e-01  -1.5801733e-01  -4.0324252e-01   6.2025781e-01   6.9745040e-02  -9.8559003e-01  -7.1477581e-01   3.1939434e-01  -7.3165502e-01  -1.4305245e-01   1.7025416e-01  -8.7576935e-01  -1.0745196e-01   4.2682096e-01   7.8260997e-01  -9.3315581e-02   6.3464992e-01   2.2987434e-01  -1.0600070e-01  -3.7831088e-02   1.1648600e-01   1.6920050e-01   2.2522733e-01  -7.3158002e-01  -9.0534949e-01  -1.1854257e-01  -9.1620954e-01   4.1644654e-01   9.0576925e-01  -9.3076013e-01  -2.8741047e-01   5.9680921e-01   2.5121965e-01  -9.8224198e-01  -6.8018694e-01  -2.0452830e-02   2.1975126e-01  -3.8498335e-01   6.9080817e-01  -4.7090391e-01  -5.0953176e-01  -9.1353688e-01   4.5962794e-01   6.7814251e-01   1.8505202e-01   1.2629845e-01   2.9443094e-01  -2.1893519e-01  -1.9666549e-01  -2.0686062e-01  -3.7172025e-01   2.4486136e-01  -4.1551822e-01  -4.3236110e-01  -2.9438982e-02   7.7550179e-01  -1.8842305e-01  -9.7079073e-01   6.4286235e-01   4.0697654e-01  -3.4698455e-01  -6.5107978e-01   3.6480395e-01  -5.5484913e-01  -9.0181814e-01  -9.5552824e-02   9.6601631e-01  -1.6324514e-01  -9.5478653e-01  -2.4515158e-01  -4.8842234e-01  -2.2908787e-01   3.5744566e-01  -2.6912260e-01  -4.2949671e-01   9.5249006e-01  -5.2242907e-01   6.1244816e-02   7.1815165e-01  -8.3432086e-01  -7.8746611e-01   1.6876044e-01  -7.2129162e-01   6.1927748e-01  -1.7961931e-01   1.1369241e-01   7.5327175e-01   7.9940712e-01  -5.9910289e-01   9.3150054e-01   9.1338709e-01  -7.9259275e-01  -6.4576238e-01   5.6248930e-01   6.6817624e-01   2.0908237e-01  -3.9490793e-01  -7.4721278e-01  -9.1781173e-01   9.6797717e-01  -9.9566627e-01  -1.0395883e-01  -1.2580219e-01   4.4840259e-01   8.0021011e-02  -3.1611105e-01  -5.4468193e-02  -4.1357472e-01  -5.5532055e-01   5.4307894e-01   4.3441355e-01   4.4667450e-01   6.2700194e-01   1.5995424e-01  -6.5207966e-01   8.7473135e-01   4.3398858e-01  -6.0383287e-01   9.1294282e-01  -5.2832663e-01   8.1673204e-01  -7.4586437e-01   5.2326682e-01   5.3028915e-01  -1.0899306e-01   7.8899547e-01  -5.6432678e-01   3.5627080e-01   6.0344825e-01  -4.1342187e-01  -8.5161632e-01   5.9038547e-01   8.6691007e-01   9.6323140e-01   9.3761408e-01  -6.0846551e-01  -8.5889470e-01  -9.0955638e-01  -9.1828427e-01   9.2057453e-02  -1.5480549e-01   1.2497879e-01  -3.1828654e-01  -7.2521555e-01   2.7987477e-01   7.8808998e-01  -1.2360002e-01   8.4828353e-01   3.4004638e-01   5.5798802e-01  -8.5577785e-01   1.3153619e-01   7.4417393e-01  -5.6022399e-01   8.2008844e-01  -9.4454712e-01   1.9702016e-01   8.9181708e-01   5.3147763e-01  -4.5205000e-01  -6.0607919e-01   5.5436227e-01  -9.0980861e-01  -2.1835813e-01   8.2264112e-01   3.3484100e-01  -9.8134676e-02  -6.4874160e-01   7.0129098e-01  -6.0056113e-01   4.1640331e-01  -4.9363042e-01   2.8383392e-01   6.6471108e-01  -8.1361113e-02  -2.2934053e-01   4.8804715e-01  -8.5061557e-01  -4.4430661e-01  -5.8688953e-01   7.0180235e-01  -4.8533239e-01   9.5687256e-01  -1.4685627e-01   8.0291883e-01  -9.5791969e-01  -8.9902047e-01   7.2733607e-01   2.0245060e-01  -2.3206415e-01  -2.8439411e-03  -5.5747250e-01  -8.1637828e-01   6.5491794e-01   7.4396345e-02   3.9010004e-01  -5.8739753e-01  -5.3608114e-01  -3.2545736e-01  -2.2600409e-01  -6.7059465e-01   2.4342689e-01  -9.8805550e-01  -5.5216308e-01   6.9786077e-01   2.4067494e-01   8.6551406e-01   8.4931623e-01  -9.5956968e-01  -2.0073981e-01  -6.0002344e-02   8.2967488e-01  -8.6096261e-01   2.1162120e-01  -9.3223188e-01   7.6571667e-01   5.5912410e-01  -9.1025673e-01   6.5013881e-01  -1.2379090e-01  -6.3786306e-01  -9.8750756e-01   3.8343210e-01  -7.6680899e-01   1.7225717e-02  -1.6950627e-01   7.4994366e-01   7.3373676e-01   4.8164980e-01   4.2648992e-01  -9.0063003e-01  -9.2359898e-01  -4.7667258e-01  -2.4614342e-01   7.4748883e-01  -8.4854661e-01   1.4223481e-01   9.4479052e-01   3.7701466e-01   4.2966267e-01  -3.1222265e-01   6.6877182e-01  -1.1185095e-02  -2.6880866e-01  -3.2122320e-01  -8.3892511e-01  -5.7322246e-01   5.1051662e-01   8.0247697e-01   2.2742320e-01  -9.3289690e-01   6.4531321e-02  -4.3880288e-01  -6.0543347e-01  -8.1343214e-01  -2.3658220e-02   7.9413894e-01   5.2207793e-01   2.2392470e-02  -9.7671435e-01  -2.8852737e-01  -9.3659562e-01   4.9045625e-01  -9.8421079e-01  -1.6906130e-01   2.8533523e-01  -2.4596971e-01   2.8233043e-01   6.5128662e-01   6.7741279e-02  -4.7808730e-01   4.9947761e-01   8.3098735e-01   2.2974983e-01   6.4684527e-01  -5.8235954e-01   8.2215726e-01   5.1244040e-01   6.2785117e-01  -8.9802571e-01   4.9812171e-01   8.3466326e-01  -4.4548760e-03   9.9818514e-01   7.4929799e-01   4.1472596e-02  -8.0533698e-01   6.1269038e-01  -8.1426500e-01  -2.5652347e-01  -8.5496670e-01   1.8261933e-01  -3.9129455e-01   2.1377967e-01   3.6840733e-01  -9.0564990e-01  -1.3086339e-01  -7.2732263e-01  -5.3391366e-01  -1.7112514e-01  -9.1736431e-01  -3.2028705e-01  -8.8265778e-01   5.7481424e-01   1.1500249e-01  -8.8119249e-01  -7.9333936e-01  -8.2262883e-01  -3.7919063e-01   1.8721379e-01  -3.1795605e-01  -2.4138687e-01   4.0831935e-01   6.1574962e-01  -1.3647839e-01   1.7519961e-01   2.1187802e-01   4.1963062e-01   8.4223129e-01   5.3503241e-01   5.2809324e-01   5.9403755e-02  -2.7740938e-01  -5.5477997e-01  -1.1515972e-01   3.4633886e-01   7.9852406e-01   2.8931835e-01   3.9729118e-01   6.9281094e-01  -9.3468987e-01  -8.8354905e-01  -9.8845780e-01   7.2091845e-01  -2.5828418e-01  -7.3550361e-01   8.7062920e-01   3.0895195e-01  -1.7066413e-01  -9.7648291e-01  -5.6365674e-01  -5.3914879e-01  -1.4988092e-01   7.8123422e-01   8.7202362e-01  -1.2249434e-01   5.9836255e-01   8.4121092e-01  -2.1122072e-01   5.7100177e-01  -3.1260444e-01   9.5844477e-01  -6.6971512e-01   8.3941263e-01  -9.9209229e-01  -4.4517556e-01  -7.7069820e-01   1.5272564e-01   5.7956263e-01  -4.0488627e-01  -4.8779931e-02   9.4261024e-01  -9.1416006e-01   1.6933742e-01   9.5176710e-01   2.4510656e-01  -2.5726713e-01  -1.7643613e-02   6.7481018e-01  -6.7839381e-01  -8.3192493e-01  -2.0876580e-01  -9.1676161e-01   7.3357916e-01  -5.5834128e-01   4.0727020e-01   3.1245980e-03   6.5423237e-01   8.8653189e-01   4.7140205e-01   9.2855832e-01  -7.8246034e-01  -8.1717750e-01   7.3645999e-01   4.5012321e-01   3.1814322e-01  -7.6173829e-02   3.1305702e-01  -1.2560580e-01  -4.9894008e-01   6.8421804e-01   3.1022615e-01   2.9978830e-02  -8.2561090e-01   3.0556558e-01  -9.8008581e-02   2.2605838e-01  -7.7769662e-01  -1.8521409e-01  -7.0344141e-01  -5.1904163e-01  -1.9346980e-01  -4.6276765e-01   4.5462492e-01  -4.1833051e-01   7.2982609e-01  -8.3815050e-01   2.5950354e-01  -9.3769969e-02  -7.3905690e-01  -6.8910728e-01  -1.7780177e-01  -4.9238834e-02  -3.1892746e-01  -8.7723493e-01  -3.0405339e-01   1.9534555e-01  -8.2720324e-01  -7.7405117e-01   1.4829050e-01   9.6016269e-01  -6.4133022e-01  -1.7857401e-02   5.8245333e-01  -9.5465368e-01  -4.0682289e-01  -2.8414149e-01  -9.8173938e-02  -2.7231133e-01  -8.0167533e-01  -8.5994596e-01  -1.2833537e-01  -6.5132665e-02  -8.9423445e-02  -7.1798119e-01   7.8142581e-01   7.3470986e-02  -9.7589640e-01   1.0079585e-01   9.6015658e-02  -1.9024675e-01  -7.5748177e-01  -1.1002951e-01  -6.3040926e-01   5.0855061e-01   9.5264958e-01  -1.8164190e-01   6.5439039e-01   4.7480171e-01  -2.8381355e-01   7.1939187e-01   7.7137663e-01   7.3954274e-01  -7.7638240e-01  -4.0230050e-01  -3.8634196e-01   3.2570751e-01   2.9986312e-01   9.7406399e-01   7.0660611e-01   7.3145190e-01  -8.0352901e-01   1.3965533e-02   5.6179736e-01  -2.0285578e-02   9.8553318e-01   3.4411622e-01   7.7771249e-01   2.2727280e-01  -2.6320590e-01  -2.5105237e-01  -6.1245465e-01  -2.6941437e-01   3.3419356e-01  -6.7850172e-01   8.0436752e-01  -9.7023201e-01   2.5424778e-01   1.7786351e-01   8.6556326e-01   2.5696590e-01   1.1791852e-01   7.5816429e-01   4.8731486e-01   7.9798465e-01  -7.8722344e-01  -6.8956788e-01  -9.7027102e-01   1.0984024e-01  -6.1207635e-01  -3.0430240e-01  -1.6220802e-01  -3.9439222e-01   2.9577108e-01  -2.3572029e-01  -6.7815027e-01   3.1874510e-01  -4.3557681e-01  -7.6510835e-01   5.8358374e-01   9.1505444e-01   1.1958636e-01  -1.3023909e-01  -7.3682583e-01   5.6393299e-01  -9.3471799e-01  -7.9867348e-01   9.1815651e-01   3.7155127e-01  -9.7305475e-01   3.4492244e-01  -7.9688536e-01   7.0664199e-01   4.5775108e-01  -8.8400985e-01   6.7089223e-01   5.9696777e-01   6.5760444e-03   6.8242052e-02  -5.8011201e-01   1.2666533e-01   3.4864532e-01  -6.1641525e-01  -3.9623856e-01   9.0797523e-01   1.5037347e-01  -2.4288931e-01   9.4107294e-01   4.2003573e-01   2.5700654e-01   6.6159433e-01  -9.8185700e-01   7.5003301e-01   8.9628994e-01  -5.4725743e-01   9.9136362e-01  -7.9968517e-01   9.4491620e-01  -5.3652135e-01  -3.4613709e-01  -3.1534080e-01   1.4111811e-01   5.7557543e-01   3.9175190e-01  -3.2444766e-01   8.3274507e-01  -8.8867592e-02   2.0446585e-01   9.0934699e-02   5.1574889e-01  -3.4245808e-01   7.2472786e-01  -9.2948902e-01   3.4635196e-01  -6.4685553e-02   4.1311805e-01  -7.9796367e-02  -9.3138694e-01   6.4397291e-01   7.4562708e-01  -9.9819078e-01   2.8172158e-01  -5.7592874e-01  -8.6304237e-01   8.3739258e-01  -6.8823045e-01  -6.6022938e-01  -3.3999607e-01   1.0023797e-01  -2.4615620e-01   9.8836971e-01   3.9684210e-01   1.6878515e-02  -4.3201692e-01   5.4680575e-01   4.4688723e-01   1.9280323e-01  -4.5862849e-01  -7.0761992e-01  -1.4215489e-02  -9.5175909e-01   7.0833242e-01  -4.2015242e-01   5.2956872e-01  -9.8524665e-01   9.0634855e-01  -1.2759855e-02   4.7659523e-01  -1.7505047e-01  -1.2723349e-01  -2.5439348e-01  -6.2145816e-02   6.4794790e-02  -1.7933004e-01   2.0811671e-01   5.3316057e-01   9.6880376e-01  -5.4302314e-01   6.5478162e-01   6.3006547e-01   1.3624913e-01   7.6965364e-01  -2.5156387e-01   6.5746742e-01   5.1634107e-02  -6.0697276e-01   3.5391020e-01  -3.4286601e-01   1.3124892e-01  -6.8571418e-01  -4.9735792e-01  -7.7965513e-01  -8.1801873e-01  -8.5187643e-01   3.3007078e-01   1.8469970e-01   8.3192861e-01   4.7035490e-02   8.3015056e-01  -1.5642588e-01   1.9538961e-01   8.3362919e-01   1.7803006e-01   7.0391639e-01   2.2022723e-01  -8.7789504e-01  -9.7060461e-02   9.0292600e-01   7.6313121e-01   1.9631586e-01  -9.9253408e-01   5.7290732e-01  -4.6381559e-01  -2.8123069e-01  -3.0682874e-02  -6.8675800e-01  -5.6681714e-01   9.1863571e-01   9.7997940e-01  -8.0797589e-02   4.9488527e-01   7.4574364e-01   5.8138640e-01  -1.3833316e-01   2.4800730e-01   6.0655743e-01  -4.3821284e-01  -9.5596923e-01   6.7650315e-01   4.2134063e-01  -2.5506322e-01  -3.1551049e-01   9.0990014e-01  -8.5990611e-01   5.0454826e-01  -3.3688153e-01   4.7120247e-01  -7.0139880e-01   4.6361284e-01  -4.7555884e-01  -6.2309721e-01  -7.7023347e-01  -2.7319014e-02   3.1827732e-01   5.8607650e-01  -8.6665894e-01  -6.8123030e-01  -4.2499383e-01   3.0256062e-01   1.2020981e-01  -1.1247760e-01  -6.6371097e-02   7.9827545e-01  -7.9364173e-01  -8.4535573e-01  -4.2186907e-01   4.2297999e-01   1.1203233e-01  -8.5701763e-01  -8.6069818e-01   2.0817239e-01  -8.4435253e-01  -7.4758543e-01  -8.3836233e-01  -7.0159244e-01   1.2106320e-02  -9.3862779e-01   3.1324663e-02   6.8601155e-01   7.1517754e-01  -4.7360352e-02  -1.7483510e-01   2.6154233e-01  -6.5851005e-01   5.7572629e-01   7.9350031e-01   8.4057857e-01  -5.6477741e-01  -6.8653261e-01   7.9272253e-01  -8.7974822e-01   3.4840368e-01  -2.7604622e-01   9.2338625e-01  -2.3282678e-01  -9.0738931e-01  -9.4541155e-01   5.1275652e-01  -4.5473350e-01  -5.4829502e-01  -5.0912356e-01  -5.2985950e-01   5.8292776e-01   3.2564348e-01  -9.1765781e-01  -2.4323234e-01   2.2816345e-01   1.9701943e-01  -5.6772321e-01   8.7702822e-01   2.9456640e-01  -7.3129801e-01   7.9816823e-01   3.5379624e-01   7.7038332e-01   9.6196631e-01   3.6218828e-01  -7.4680387e-01   9.6668654e-01  -4.3000963e-01  -3.0566743e-01  -6.6656828e-02  -3.7270048e-01   8.8671549e-01  -7.5771109e-01  -8.1571391e-01   2.8371020e-01  -8.6584389e-01  -5.1689734e-01   5.8017049e-01   1.5235740e-02  -6.1365898e-01  -6.8063020e-01   3.4787821e-01  -1.2062856e-02   3.6760767e-01   9.9736126e-01  -8.9277829e-01   4.6910129e-02   7.1829591e-01  -4.8427741e-01  -7.7807715e-01   4.0368077e-01  -3.9641706e-01   3.6715521e-01  -7.8177853e-01   4.3396255e-01   9.0357544e-01  -8.2018741e-02  -5.7486816e-01   5.1189252e-01   1.1962615e-01   9.8711732e-01  -4.5846454e-01   6.5561464e-01   8.4818484e-01   4.8557648e-01  -5.5009334e-01  -1.6843068e-01  -6.7196884e-01   4.7840465e-01  -8.8462801e-02   8.2162186e-01
  -1.9992755e-01  -2.5898366e-01   1.7674910e-01   4.0715522e-01   1.4618581e-01   1.4374934e-01  -2.2003871e-01   2.4868633e-01  -3.4028720e-01   9.0083935e-02  -6.0821107e-01  -6.5083883e-01  -3.8379338e-02  -2.1112944e-01   3.3622585e-01   8.8409914e-01  -2.2770645e-01   3.4567524e-01   2.0089975e-01  -2.8388300e-01   8.5803221e-01   8.4411457e-01   4.4035401e-01   9.7787845e-01  -8.5178505e-01  -1.8335047e-01   4.0630170e-01  -9.6157108e-01  -6.5918854e-01  -6.9477779e-01   9.0867424e-01   8.3872453e-01  -4.8531358e-02  -2.7996403e-01   4.3809214e-01   1.1073032e-01   3.8370195e-01  -6.9446678e-02  -7.7610018e-01  -4.9882895e-01   7.0702576e-02   3.6407670e-01   8.1979129e-01  -1.8664299e-01  -6.2547729e-01  -8.7574633e-01   3.9357686e-01   3.3266812e-01  -6.8321906e-01   4.1947735e-01  -5.8181504e-01   4.6011606e-01  -7.8165976e-01   1.4277610e-01   5.5823483e-01   6.9648579e-01   7.7127099e-01   2.0979099e-01   5.0431227e-01   8.6570026e-01  -1.7048684e-01  -1.9532406e-01   9.4872737e-01   8.5406155e-01  -3.8407221e-01  -5.1542624e-01   9.6992907e-01  -5.6456912e-01   1.1613248e-01  -4.0679235e-01  -8.0477617e-01  -7.3887634e-01  -3.9883320e-01  -6.3243233e-04   4.3339447e-01   6.4620795e-01   2.2509364e-01  -1.0605696e-01  -9.5973249e-01   7.1034094e-01   9.7249371e-02  -4.5169418e-01   9.4524970e-01   5.1176352e-01   2.1824468e-02   9.4855437e-01   4.7190248e-02  -2.0883863e-01   5.6892342e-01  -2.8866012e-01  -6.2486559e-01   6.4912663e-01  -9.2145458e-01  -8.7653428e-01  -7.1624967e-01   6.8105588e-01  -6.0679077e-01  -9.7495650e-01   8.4159067e-01  -8.7738940e-01   3.5335004e-01   6.1978486e-01  -6.1695873e-01   1.7042958e-01  -2.4080637e-01  -1.5069343e-01   5.4504496e-01  -5.6102899e-01  -2.8649486e-01   7.9759398e-01  -8.6919742e-01   4.9402442e-01  -1.8230961e-01   2.8290713e-01  -3.1154394e-01  -3.9406720e-01   4.5780471e-02   5.0970027e-01   9.0300963e-01   1.1945348e-01  -8.4674987e-01  -3.5075396e-01   5.6448992e-01  -9.8058571e-01   2.8718976e-01   6.4106120e-01  -3.5233122e-01  -5.3420636e-01   8.4623285e-01  -2.6798000e-01  -9.9933778e-01  -2.7207129e-01   1.0530353e-01   2.0094185e-01   8.3773600e-01   7.9072885e-01   3.2690441e-01  -5.5199238e-01   3.1786057e-01   5.5579754e-01  -2.0421701e-01  -6.3039310e-01  -9.3739073e-01   7.3278975e-01   3.8738498e-01   5.6421414e-01  -4.8612458e-01  -2.9062312e-01   9.8855296e-01  -6.4942336e-01  -9.4546394e-01  -2.7636845e-01   6.5669360e-01  -6.8761115e-01   5.8186844e-01  -2.1971911e-01   8.3158384e-01   1.4790463e-01   3.6770185e-02   7.2300908e-01  -8.3282173e-01  -4.7197028e-01   4.5504589e-01   4.8543038e-01  -3.7593175e-01  -6.4660247e-01  -9.1328380e-01  -7.1149962e-01   6.7407419e-01  -9.8788000e-01  -2.7272831e-01   9.8682190e-02  -3.8026287e-01  -3.0609333e-01   2.9802867e-01   5.7055997e-01  -8.6606160e-01   6.9441402e-01   1.7261801e-01   9.1652675e-01  -7.4666078e-01   4.1618791e-03   9.8808300e-01  -1.5835817e-01  -7.9026638e-01   6.8125304e-01   3.4534433e-01  -2.2272246e-01   2.3630705e-01   4.2749151e-01  -5.5183212e-01  -5.5678076e-01   9.2492357e-01   4.5396614e-01  -1.0794292e-01   9.5539756e-01  -3.5527863e-01  -9.2714360e-01  -9.0600593e-01  -8.7748435e-01  -6.5457908e-01   6.9644143e-01   2.8825007e-01   2.2118820e-01  -9.2323110e-01  -8.6571421e-02   2.3091735e-01  -5.6947617e-01   8.6695722e-01   9.6917058e-01   4.5815102e-01   9.0202926e-01  -4.8871339e-01  -2.3020718e-01  -4.9762491e-01  -5.1242091e-01   8.7842130e-01   4.9421583e-01   2.6887232e-01  -3.1572300e-01   6.6781150e-01  -4.5481729e-01   6.3452700e-01  -5.2547424e-01  -6.9071839e-01  -8.6940536e-02  -1.0549424e-01  -9.9307428e-01  -5.1214322e-01  -3.9865563e-01  -2.0555931e-01  -1.3376213e-01  -5.4365163e-01   4.6795112e-01  -2.0064596e-01  -1.7505522e-01   8.0491040e-01   8.8436364e-01  -8.8352425e-01   5.1700185e-01  -8.8527121e-02   4.0003677e-01  -5.9235105e-01  -5.5123335e-01   2.9561610e-01  -5.4456580e-01  -6.9276637e-01  -1.1266129e-01   8.7426928e-01  -8.3126291e-01  -8.2696857e-01  -9.7840850e-01   2.3808810e-01   2.2488322e-01   3.5217226e-01  -4.2486350e-01  -6.7288179e-01   3.4299270e-01   4.4163503e-01  -3.7037806e-01   4.6777104e-02   2.2875093e-01   2.6827360e-01   1.2830877e-03  -5.9730767e-01   1.4394063e-01  -6.9105545e-01   9.6256359e-01  -3.1036238e-03   1.8266713e-01   8.0175928e-01  -9.3569034e-01   7.0487848e-01   8.7130261e-02   6.6205366e-01   5.1156172e-01   2.7472627e-01   6.3471879e-01   7.3475103e-01  -6.5168965e-01   1.1481838e-01  -8.8115391e-01   4.5456023e-02   1.8221296e-01   1.5127077e-01  -8.1864370e-01  -9.9079145e-01   8.4894701e-01   1.2563095e-01   8.0655126e-01   5.9693596e-01  -4.3082872e-01   7.6854987e-01   4.1362309e-01   3.3181463e-01  -5.0833490e-01   3.7233399e-01  -5.7857835e-01  -9.6185639e-01   9.3285943e-01   5.0180603e-01  -9.5402879e-01   2.3902281e-01   7.1620674e-01  -9.0323732e-01  -9.9601740e-01  -8.9775636e-01  -9.4746752e-01   9.8970255e-02  -8.2626548e-02  -7.7234559e-01  -2.2467192e-01   1.7841365e-02  -8.2965329e-01  -6.1033706e-02  -6.5850395e-01  -4.1203891e-01  -2.5220685e-01   7.8276944e-01   8.8162340e-01  -1.2156070e-02  -2.3457739e-01  -7.9077626e-01  -8.8482413e-01   3.9532301e-01  -8.7024858e-01   9.4153185e-01  -2.9561227e-01   6.9008104e-02   2.5892682e-01   4.7844277e-01   1.6114051e-01  -9.1777211e-01  -9.6344156e-01   3.4215573e-01  -1.8016551e-01   5.5451017e-01   7.1876898e-01   2.3152814e-01  -3.5323254e-01   7.7400141e-01  -2.1265447e-01   2.4194218e-01   2.2635859e-01   6.0164771e-01  -1.5352454e-01  -8.1270834e-01  -2.3023750e-01  -2.9577622e-01   3.1550837e-01   6.0273742e-01   1.4710149e-01  -7.5851912e-01   3.2156133e-02   2.2800183e-01   2.5725605e-02   9.5460785e-02   1.8488567e-01   1.2120428e-01  -2.9765521e-01  -5.9181167e-01   1.4912753e-01  -3.1575746e-01  -5.4594228e-01  -4.3201121e-02   7.4010915e-01  -6.7239840e-01   5.1271060e-01  -5.5072097e-02   3.9301566e-01  -4.3597958e-01  -8.9853403e-01   9.1678020e-01  -1.9406839e-01  -6.5970267e-01  -2.9295088e-01   1.0666060e-01  -5.6822200e-02   5.2287283e-01   7.9829857e-01   6.7352040e-01  -8.6280409e-01   1.8947577e-01  -8.8100184e-01  -1.0800289e-02   8.9626586e-01  -3.1257128e-01   8.4290888e-01   2.9028536e-01   6.2492559e-01   4.6445443e-02  -6.2891189e-01   4.0867336e-01   9.2819315e-02   5.3322628e-01  -8.7784323e-01  -2.3458539e-01  -9.7513990e-01  -6.5173496e-01  -5.5102561e-01   9.9203178e-01  -5.9485918e-01   1.2984781e-01   7.5855770e-01   6.5741240e-01   1.8740500e-01  -2.0010768e-01  -8.4706027e-01   5.5305925e-01   7.7552479e-01   1.7059509e-01   5.5431957e-01   3.7289287e-01   1.1213254e-01   3.3714747e-01   5.8967610e-01   7.0273804e-01   3.0348957e-01  -7.9086666e-01  -6.2915287e-01  -1.2582223e-01  -6.1191738e-01  -3.2663892e-01  -3.9826725e-01   3.6082212e-01   1.6650420e-02  -3.3190443e-01   2.4585904e-01  -8.2538773e-01  -8.8345591e-01  -5.8223440e-01   1.0646092e-01   8.6620489e-01   4.7916037e-01  -1.4630073e-01  -5.7718115e-01   7.2196474e-01  -7.6766911e-01  -1.6291759e-01   7.6058743e-01   2.2634555e-01   8.7307873e-01  -7.4690755e-02  -8.8071815e-01   8.9334373e-01   3.4227415e-01  -4.6000873e-01   2.9461328e-01   3.6399997e-01   7.8833336e-01   8.0803292e-01  -1.2869398e-01   4.6397197e-01   5.3177599e-01   7.0502016e-01   9.8550842e-01  -9.6156808e-01   4.7099242e-01  -1.0962287e-01  -7.1175555e-01  -3.5992916e-02  -5.0715321e-01   6.3221756e-01   4.8612618e-01   2.1828455e-01   1.7166474e-01   1.8191264e-01   8.9200701e-01   4.4820978e-01   6.3654266e-01  -8.5158332e-01   6.9408411e-01  -2.0337551e-01  -9.3030282e-02   6.4424929e-01   1.3222431e-01  -2.9599645e-01  -4.1670917e-01   5.1700266e-01   4.3121777e-01   5.4034412e-01  -5.4490202e-01   9.5095440e-02   3.6316183e-01  -4.7961068e-01   7.1594797e-01  -7.0079521e-01  -8.8369781e-01   9.0362035e-01  -6.8561232e-01  -7.9350866e-02   5.1974043e-01  -9.5266483e-01  -8.0377567e-02   8.9751422e-01  -7.4852539e-01  -7.2831499e-01   7.4695057e-01   8.9426340e-01   1.9811180e-01  -8.6372417e-01  -4.9087549e-01  -2.0370194e-01  -9.9645680e-01   3.6133371e-01  -6.7871769e-01  -5.4665723e-02   1.1760715e-01   7.1273411e-01   9.8505869e-01   1.9882942e-01   5.2507961e-03   5.7113074e-01  -2.3202574e-01  -9.8503384e-01   2.0298248e-01  -9.5396567e-01  -6.9065741e-01   4.3596679e-01   6.7548060e-01   5.5783649e-01  -4.6904399e-01   1.0166248e-01  -5.2842319e-01   1.2234652e-02   3.7349739e-01   9.1995351e-01   7.6296271e-02  -8.8615028e-02   3.7903797e-01  -9.2222169e-01   1.0984665e-02  -1.1889274e-01   1.9541944e-01  -5.9078964e-01  -4.7641609e-01   4.5155461e-01   8.0335400e-01  -3.6462893e-01  -5.5064985e-01  -7.5575148e-01  -1.8954467e-01  -4.2976141e-01  -5.2332088e-01   6.0205024e-02  -8.1655397e-01   3.6208384e-01  -8.0383555e-01   1.2649310e-01   3.3705014e-01   5.2425096e-01  -4.2780285e-01  -9.1106639e-01  -8.5336393e-01   2.3700757e-01  -4.5553114e-01  -1.6281251e-01   7.5895521e-01  -3.9346565e-01   9.0749620e-01   9.8340229e-01  -7.0910637e-01  -1.4350767e-02  -1.5410863e-01  -3.3200062e-01   8.0616781e-01  -4.4734968e-01   1.3816090e-01   1.2223983e-01  -6.9967869e-01  -3.4820783e-01   6.9653882e-01   9.9320675e-01   4.7961315e-01   7.3729944e-01   3.6523088e-02  -5.6748340e-01   5.5941273e-01  -5.9039346e-01   6.1859394e-01   8.9217605e-01  -9.6234140e-01  -2.2355127e-01  -1.5935301e-01   3.7260503e-02  -1.6698915e-01  -7.0797678e-01   5.3632305e-01   9.4156753e-01  -3.7533648e-01   8.9541510e-01   1.7001959e-01   1.2682946e-01  -5.6637895e-01   7.4104736e-01  -3.5913147e-01  -8.4711906e-01  -5.6339274e-01   3.5136937e-01  -1.9371071e-01  -2.4923735e-01   2.2905338e-01  -4.5494517e-01  -4.5824863e-02  -6.2095144e-01  -5.6240302e-01   8.5015185e-01   9.5885941e-01   3.6592047e-01  -2.3186124e-01  -5.3786830e-01   7.7513989e-01  -6.8588319e-01  -5.1320997e-01  -1.9540071e-01  -6.3379917e-01  -1.5349730e-01   4.8432327e-01   4.8486075e-01  -6.3711639e-01   6.1792370e-01   6.3447892e-01  -3.4185629e-01  -2.2328296e-01  -5.6680573e-01   2.9874792e-01   2.7640103e-01  -3.0292887e-01  -6.1014891e-01  -8.7413348e-01  -3.6528758e-01   7.2893475e-01  -1.3456743e-02   9.1376853e-01  -5.6662241e-01  -4.8764897e-01   1.7637540e-01   5.4613492e-01  -4.0872050e-01   3.7687809e-01  -2.7966423e-01  -9.7912146e-01   8.3603954e-01  -8.1362266e-01  -7.7599489e-01   8.6715407e-01  -8.7008662e-01   7.1727061e-01   1.1472497e-01  -5.0689661e-02  -6.4761467e-01   2.2417893e-01  -1.9694143e-01  -1.7148953e-01  -3.8640521e-01   4.6981069e-01  -8.6965332e-01  -2.3411966e-01  -6.0125676e-01   2.1681974e-01  -4.7378675e-01  -9.4444496e-01   5.4900240e-01   2.5531626e-01  -7.6846534e-01   6.4128347e-02  -4.4025500e-01   6.3345552e-01   1.6863907e-03  -8.1225310e-01   7.8977008e-01   5.5164288e-02  -9.6074841e-01  -9.4285850e-01  -6.8069931e-01   9.8852152e-01  -2.5960943e-01   5.2771023e-01  -2.4638900e-01  -9.5282564e-01   8.1036541e-01  -2.4640848e-01   7.0461588e-01  -4.2587081e-01  -5.7639600e-01  -5.3932711e-01   4.8938459e-01   4.0740386e-01  -8.4398265e-01   1.5906054e-01  -1.8530883e-01  -2.9278426e-01  -5.8057055e-01   5.2325767e-02  -7.7522662e-01   4.8226523e-01  -7.9305127e-01  -8.2191500e-01  -8.7894634e-01   3.1314249e-01   4.0360027e-01   7.9291849e-01   3.0013461e-02   7.4436496e-01   9.7408224e-01  -2.8057205e-01   7.9833074e-01   3.0466871e-01  -6.2489919e-01  -8.6470990e-01   6.6205117e-01   6.9887349e-01   1.9180441e-01   4.2897124e-01  -7.5979202e-01   9.0763944e-01   4.2110727e-02  -7.3362312e-01   8.7502382e-02   7.0263650e-02   3.6092065e-01   7.5885941e-01  -8.3784446e-01   1.1995054e-01  -1.4201935e-01  -3.8225100e-01  -9.5514954e-01   7.3013283e-01  -9.0182953e-01  -7.4650161e-01   5.5324432e-01   5.9509318e-01   5.9515358e-01   2.1521125e-01  -4.0279878e-01  -4.9111152e-01   4.5097034e-01   1.9823743e-02   6.8725655e-01  -3.2772934e-01  -4.8890475e-01  -2.5840826e-01   3.3567658e-02  -2.0466747e-01   5.4733607e-01   9.4984368e-01  -7.3575088e-01  -5.3208610e-01   3.7415110e-01  -9.4804293e-01  -9.2202260e-01  -4.0448115e-01  -4.5219306e-01   7.8189054e-01   4.7074611e-01  -9.9665660e-01  -8.1221592e-01   4.5205932e-01   5.0193434e-01  -3.6063507e-01  -6.9635998e-01  -7.8246466e-02  -8.7876233e-01  -1.8882481e-01  -3.0644529e-01   6.1440389e-01   8.6172338e-01  -6.2504340e-01  -8.7239871e-01   3.0389741e-01   1.1307039e-01  -2.3312546e-01   6.4176113e-02   9.9286666e-01   1.0715070e-01   4.3574752e-01   4.7023301e-01  -2.4641605e-01   9.0076969e-01  -2.5579734e-02   5.6724422e-01  -3.1495040e-01   7.8463129e-01  -5.3739549e-01  -4.0393892e-01   3.9910581e-01   5.5043588e-01   4.7784496e-01  -8.7481107e-01   4.9609336e-01   1.0111660e-01   4.3729606e-01   5.8045012e-01   7.0472065e-01   2.3494113e-01   5.3099983e-01   4.1718705e-01   6.6748238e-01  -2.4644838e-01   6.9716790e-01   2.8296566e-02   9.1761002e-01   8.2465346e-01  -5.1253385e-01  -6.0106269e-01  -1.5171852e-01   2.9660057e-01  -5.6402058e-02   6.2388049e-01  -2.2716706e-01  -4.8923841e-01  -6.4614215e-01  -4.1233483e-01   7.1924392e-01  -4.3926791e-01   1.7682759e-01  -1.4068659e-01   5.8630661e-01   5.2363191e-01   8.3829886e-01   2.8845452e-02   3.5040203e-01  -3.2679704e-01  -3.9393221e-01  -6.6640239e-01  -4.9513430e-01  -1.8214743e-01   3.1439913e-01   7.7382995e-01   9.7519283e-01  -3.8721313e-01  -9.2736213e-01   1.8503401e-01  -4.8300783e-01  -2.0640026e-02   5.3011752e-01   3.6092213e-01  -1.6704181e-01   3.8506182e-01   9.6992915e-01   7.5357862e-01   7.1926266e-01  -9.2961498e-01  -2.7793844e-01  -4.9614388e-01   4.3053296e-01   8.8456456e-01   9.9847372e-01   8.3020867e-01  -4.1018379e-01   9.5885710e-02   5.4544747e-01  -4.7246368e-02   2.3071187e-01   7.8735140e-01   2.7228392e-01   3.4738941e-01   9.9603791e-01  -6.2213831e-01  -1.5105051e-01  -4.9460042e-02   1.7661119e-01  -3.3804546e-01  -1.8343576e-01   3.7601348e-01  -6.6920577e-01  -3.7896078e-01  -8.6507760e-01   5.3467728e-01   3.1417324e-01  -7.5366720e-01  -4.0869664e-01  -1.1761088e-01   9.9604201e-01  -7.4311234e-01   2.1196957e-01   7.1550806e-01   1.0372330e-01  -6.4783199e-01   3.9912698e-01   4.1852764e-02   2.4973302e-01   5.4461540e-01  -7.8205636e-01  -9.5231328e-01   6.8661307e-01  -3.5514828e-01  -6.9207333e-01  -9.6583209e-01   3.0526242e-01   8.4138758e-01   7.8149921e-01  -8.5866294e-01   9.1890922e-01  -4.1811725e-01   4.8391515e-01  -6.7840415e-01  -7.2192542e-02   2.8903127e-01  -4.3082491e-01  -5.9471629e-01   4.8598068e-01   7.2083798e-01   7.6065328e-01   7.9334699e-01  -6.0379781e-02   3.2735004e-01  -3.8279891e-01   8.5609238e-01  -9.9973677e-01  -5.3883003e-01   7.4465606e-01  -8.4271378e-01   5.5993880e-01   4.5524778e-01  -2.1688052e-01  -1.7694586e-01  -8.7309397e-01  -6.4568781e-01   7.8290797e-01   9.4826851e-01  -9.6630065e-02   9.1913199e-01  -1.6556555e-01   8.7506569e-01   5.1281894e-01   8.7029014e-01  -9.7845059e-01   4.5411395e-01   7.8545910e-01   3.5542230e-01   4.4777530e-01   3.4520945e-01  -5.9088311e-01   3.1641831e-01  -9.1161484e-01   5.2233921e-01   2.5659050e-01   6.8285391e-01   6.0600897e-02  -5.2949179e-01   5.9681746e-01  -5.8155430e-01   9.3532041e-01   1.4210801e-01  -5.6979356e-01   2.5510342e-01   8.7490652e-02   9.4368546e-01   9.9811078e-03  -2.4905412e-01  -6.0050703e-02   2.0076457e-01  -4.4233788e-01   4.6258691e-01  -9.8750156e-01   5.1713368e-02  -8.1283273e-01   8.2078873e-01  -2.7972970e-01  -9.2087169e-01   9.4268329e-01  -3.8545948e-01   5.0862376e-01   9.4491413e-01  -1.3238084e-01  -3.8350816e-02  -8.5398929e-01   1.3330601e-01   3.2278612e-01  -3.8408052e-01   1.2824073e-01  -6.0714240e-01  -9.3988910e-01  -4.3667491e-01   7.8449373e-01  -5.4077740e-01   5.4033211e-01   2.8838524e-01  -2.5464983e-02   1.0942631e-01   6.6574845e-01  -5.2704007e-01  -9.4490103e-02  -6.3328496e-01  -6.4615081e-01  -1.7821396e-01  -3.8539198e-01  -9.6347507e-01   9.9559745e-01  -1.4537969e-01   4.7188968e-01   7.0220116e-01  -1.7225153e-03   3.2033084e-01   2.9810168e-01   2.2248101e-01  -4.7481015e-02   8.7779838e-02   3.6681229e-01
  -9.0582838e-01  -8.9756341e-01  -7.5526585e-01   7.0462819e-01  -8.0805884e-01  -9.8989833e-01  -4.3606616e-01  -7.8214999e-01  -6.4390052e-01  -7.6333375e-01   6.9140037e-01   2.0535107e-01   4.4419511e-01   7.4359786e-01   7.4948252e-01  -7.5719600e-01   8.0910956e-01   8.2279340e-01   1.5692116e-01   8.5868454e-01   5.9132931e-01  -9.6536407e-02   1.0791218e-01  -3.1519659e-01  -5.7410474e-01  -4.6579923e-01   3.9268829e-01  -8.8220889e-01  -3.6000682e-01  -3.1204309e-01   7.2959004e-01  -5.6419723e-01  -7.3485086e-01   8.1299444e-01  -3.8072952e-01  -2.4032975e-01   5.2495383e-01   7.7041857e-01   5.1384174e-02  -1.9831129e-01   1.4469721e-01  -1.4789812e-01   9.6638497e-01  -3.2407527e-01   1.5551122e-03   3.8770440e-01   9.8680088e-01   5.6590332e-01   2.9878355e-01  -7.0339056e-01   1.4662045e-01  -9.5252879e-01   2.2772054e-01  -5.2714263e-01  -7.9338519e-01  -6.3771929e-01  -5.2013056e-01   6.9552959e-01   9.7494900e-01  -2.1407830e-01  -5.9965339e-01   4.6265165e-01  -7.2282754e-01  -6.6507208e-03   4.1689790e-01  -8.1060702e-01  -4.8911638e-01   3.1875260e-01   2.8680945e-02   3.5419787e-01   2.4961977e-01   4.6720759e-01  -9.3642392e-01   4.1905307e-01  -5.6618828e-01   3.2221656e-03   5.5539359e-01  -1.3899699e-01  -1.5410147e-02   1.8814827e-01  -3.5439380e-01   2.0057132e-01   3.2848313e-02  -8.1036171e-01  -3.3241802e-01   7.8473431e-01  -9.0575501e-01   2.4078545e-01   3.5594282e-01   2.0065351e-01  -4.6657101e-01  -6.4889102e-01  -1.1817190e-01   4.7773511e-01   8.4793344e-01   2.0571483e-01   2.2025549e-01   2.0059311e-02   2.1981296e-01  -7.9590586e-01  -5.8113143e-01  -8.6047352e-01   1.9902327e-01  -9.6649422e-01   7.2076523e-01  -3.5646144e-01  -3.0402458e-01  -9.2878759e-01  -3.4572403e-01   7.3332698e-01   6.2679562e-01   9.6953102e-01  -7.1173644e-01   5.0629353e-01   7.4350797e-01  -5.1827835e-01  -7.7194595e-01   5.0742795e-01  -4.0969088e-01   3.8724708e-01   9.7791296e-01  -5.4209241e-01   2.1267701e-01  -5.9934479e-01   3.3457761e-02   6.8724053e-01  -6.7149031e-01   6.7988809e-01   5.9630870e-01   3.2131322e-01   2.3098078e-01   1.3632699e-01  -3.3454896e-02   8.3340156e-01   1.5265891e-01  -7.5222115e-01   4.7746804e-01  -6.4893267e-01   2.2740861e-01  -5.2054473e-01   5.2089921e-01   5.0120425e-01   9.0215726e-01   8.3565719e-01  -7.8182370e-01  -2.8868677e-01   8.6406797e-01  -7.5892225e-01   1.3634238e-01  -5.1790205e-01   2.3296139e-01  -7.4203362e-01   9.9549049e-01  -7.5408315e-01  -5.6987283e-01   3.6606266e-01  -3.3156727e-01  -8.9298015e-02  -4.4632566e-01   9.2601179e-01  -1.0578493e-01  -8.3423635e-01  -5.5668071e-01  -9.6104957e-01  -8.0772870e-01   8.2543884e-01  -2.0649118e-01   4.8940722e-02  -2.8269188e-01  -7.0788349e-01   3.9643091e-01  -9.6210818e-01  -7.6739754e-01   4.6820368e-01  -9.3885439e-01  -4.8034748e-03   6.6082110e-01  -1.4723203e-01   7.4290489e-01  -9.5721196e-01   3.3834457e-01   2.6431630e-01  -9.8200333e-01  -4.8059847e-01  -1.7802104e-01   5.4243670e-01  -8.8308927e-01   2.9962342e-01   6.9452050e-01   7.4263466e-01   2.6858808e-01   2.4374764e-01   3.4667558e-01   7.4580682e-01   9.9300995e-01  -5.4174034e-01  -5.7016098e-01   5.2050284e-01   9.6269349e-02  -2.9520399e-01   2.1433458e-01  -2.0823178e-01  -2.6394820e-01   8.4203703e-01   7.3248258e-02  -8.0534320e-01  -8.2696349e-01   1.2325276e-01  -5.6367175e-01  -6.8214983e-01   4.4205821e-01   2.1446392e-01  -4.7613663e-01   7.0774025e-01   4.8002419e-01   4.2229453e-01  -7.5086170e-01  -1.8517453e-01   5.9157976e-01   1.2405893e-01   2.5351542e-02   2.9301776e-02  -9.1169672e-01  -5.8164997e-01  -7.6613786e-01   6.6882645e-01  -2.7203861e-01  -1.6206134e-01  -8.2302929e-01   9.8913841e-01   5.0004672e-01   2.8809539e-01   7.1886090e-01  -1.5529471e-01   6.4703968e-01   9.9963869e-01   9.0954530e-01  -3.1493478e-01  -1.3888084e-01   3.3562625e-02   7.0280949e-02  -7.9524145e-01  -4.3352593e-02   8.8356088e-01   5.1202394e-01   5.1944762e-01  -1.4882679e-01  -2.2226207e-01   9.0703721e-01   9.7251701e-01  -7.1335862e-01  -3.2176223e-01   7.8772686e-01  -7.0193537e-01  -7.5512185e-01   6.0198043e-01  -7.4602436e-01   1.0058925e-01   4.8822483e-01  -8.0000806e-01  -1.5513910e-01   4.7320769e-01   7.3796279e-01   3.2646546e-01  -7.1927708e-01  -3.2597441e-01   3.6917734e-01   8.1975094e-01   9.0343577e-01  -7.6546086e-01  -2.4228991e-01   2.3842079e-01  -4.3597725e-01   1.6291546e-01  -7.7633794e-03  -4.6543598e-01   5.1937494e-01  -6.9063711e-02  -8.3276120e-01   8.7697969e-02  -4.1789547e-01  -6.1336498e-01   4.5065359e-01   6.3166854e-01  -1.4948801e-01   8.3384489e-01   5.4751170e-01  -2.1512487e-01   2.9846624e-01   2.8323922e-01  -2.6013510e-01  -1.6898493e-01  -3.2191151e-01   1.0199031e-01   9.3888142e-01   7.6476125e-01  -3.2770220e-01   6.7417550e-02   5.5313331e-01   3.9852946e-03   4.9459736e-01  -5.5256260e-01  -4.6578429e-02   9.4904830e-02  -1.2538056e-01   2.9595188e-02   6.7614522e-01   3.5268602e-01   3.7347128e-01  -3.2696268e-01   7.3354488e-01   1.6342407e-01   8.9485407e-01   5.2988208e-01  -6.5317742e-01  -2.2860571e-01   1.3946257e-01  -4.3784212e-01  -3.0230253e-01   7.5702829e-01   9.4730777e-01  -2.9879711e-01   9.9733264e-01  -4.9414205e-01  -6.2956197e-01  -2.3008932e-01  -4.8855394e-01   9.6739453e-01  -9.6081238e-01   8.0979483e-01  -1.2173657e-01  -2.1113711e-01  -4.1000888e-01   5.9265048e-01   6.6588345e-01   6.8410450e-01   4.8364978e-01  -5.8478455e-01   3.5001818e-01   2.7849410e-01  -6.1709879e-01  -1.0804027e-01   4.4685309e-01  -6.4912608e-01   8.7203863e-01  -4.3559361e-01  -1.1050257e-01  -8.4231792e-01  -5.5700433e-01   9.3570186e-01   6.9615093e-01  -8.6956623e-01   1.8269334e-01  -6.0517997e-01  -9.0842605e-01  -4.8810711e-02  -2.7873051e-01  -7.9394326e-01   4.9696336e-01   6.0724076e-01  -6.6791123e-01  -7.4290963e-01   3.7418012e-01  -3.5919004e-01   8.4596255e-01  -9.8617569e-01  -8.6384520e-01   3.2104105e-01   3.2544991e-01  -5.7380552e-01  -9.6755951e-01   6.3946798e-01  -5.8455754e-01  -8.1621073e-01   4.9144617e-02  -2.3142087e-01   6.7742876e-01  -4.1342848e-01   8.1168941e-01   4.6513655e-01  -2.4561965e-03   9.5242106e-01   3.4402400e-01   5.9496874e-01  -1.7863495e-01   3.3295652e-01  -7.0436953e-01   8.9677503e-01   7.7677383e-01  -2.7140525e-01   4.9590703e-01  -7.5398102e-02  -1.9369093e-01  -9.9796901e-01   4.0315385e-01  -6.4181758e-02   4.1344647e-01   9.1374876e-01  -2.8855822e-01   4.8361518e-01   8.7275783e-01  -4.6733101e-01  -7.4702443e-01  -7.2085902e-01   5.3506968e-01   2.6636989e-01  -5.7796818e-01   6.7647217e-01   5.8581032e-01   6.6154825e-01  -4.4704166e-01  -3.9769083e-01  -8.4614528e-02   2.3889403e-02  -3.1489465e-01  -1.6797221e-01  -1.7684109e-01  -7.1003295e-01   1.5015007e-01  -6.1878302e-01  -9.4435803e-01   8.7238080e-01  -6.4158313e-01   4.8215974e-01  -3.4078990e-01   2.7530695e-01   5.5906492e-01   1.3097608e-01   3.9250184e-01   2.7809078e-01  -3.9417861e-01  -6.4365217e-01  -7.8417326e-01  -5.7351583e-01  -1.8664206e-01   8.2703739e-01   8.7644435e-01  -2.6262391e-01   4.3801705e-01   9.4629140e-01   4.4786624e-01  -4.7459861e-02  -6.4512511e-01   3.6148769e-01   9.1504547e-01  -4.1255735e-01  -3.7282569e-01  -3.4514344e-01   7.0698890e-01  -4.5166564e-01  -9.7586087e-01  -9.0028289e-01   2.5299699e-01   8.6201321e-01   9.7407878e-01   6.8337663e-01  -2.3496762e-01  -8.9371617e-02   5.8498869e-01  -2.8344668e-01   5.9004209e-02   1.1649134e-01   7.2504729e-01  -2.9891940e-01   8.6411311e-01  -3.9721705e-01   2.9688484e-01   2.0187805e-01  -2.3354593e-01  -2.8974725e-01   5.0653149e-01   7.9428759e-01   1.6153228e-01  -5.8105580e-01  -5.3736527e-01  -6.8740879e-01  -1.5635887e-01  -6.5601731e-03  -9.7197989e-02   1.9101468e-01   5.7986574e-01   5.3019456e-01  -2.6368153e-01   1.0872703e-01   8.3056555e-01   4.1511577e-01   9.9008911e-01  -1.5171973e-01  -2.8347294e-02   4.4306630e-01  -2.6446205e-01  -3.4567379e-01   7.6833459e-01   8.3221178e-01  -2.9780463e-01  -2.8084544e-01   1.1651170e-01   6.2715929e-01  -9.1661488e-01   6.0890431e-02   6.8587170e-01  -1.8873780e-01  -8.7502800e-01  -9.8751457e-01   5.4451425e-01  -4.5326000e-01  -3.0367550e-02   9.5196388e-02   2.5290438e-01   8.0296920e-01   8.6858773e-01   1.4343431e-01   5.8340558e-01   4.3937218e-01  -2.1117362e-01   8.2057963e-01  -7.7689237e-01   8.7792872e-01   4.6498696e-02  -1.7470647e-02  -7.6770319e-01  -6.0620481e-01   4.8211708e-01  -7.3935544e-01   1.7669230e-01   5.6036045e-01  -9.4345288e-01   8.5364771e-01   9.0174188e-01   5.4178906e-01   1.5862787e-01  -6.3765478e-01  -8.1995460e-01  -4.4905103e-01   7.8185486e-01   2.1879601e-01  -8.1049758e-01   3.3078710e-02   8.1334819e-01   2.1396003e-01   9.3514223e-01   1.5345766e-01   1.1219254e-01  -7.1902122e-01  -3.6801815e-01   2.7517242e-01  -6.8493565e-01   6.6951741e-01  -1.8267490e-02  -2.1498084e-01   8.6987358e-01   5.4711662e-01  -5.0114479e-01   2.1937393e-02  -6.6226764e-01  -1.4759366e-01  -4.9055939e-01   7.0084173e-01  -9.2592402e-01   1.1661181e-01   8.3194296e-01  -8.1288452e-01   2.7423209e-01   6.9041477e-01   6.7823481e-01  -3.8660517e-01  -8.4999055e-01  -3.2601316e-01  -8.5495297e-01   9.5359393e-01   7.9399954e-01   1.0329002e-01  -5.0226374e-01   4.4785163e-01   8.7453336e-01   7.4198634e-01  -6.5996341e-01   9.1806061e-01  -1.4051932e-01  -6.8552692e-01   7.0421292e-01   9.2559612e-01   1.9670139e-01   4.1295949e-01  -7.9716152e-01  -5.5447064e-01  -1.4003235e-02   3.9216362e-01  -7.1961452e-01   9.2807576e-01  -7.5611649e-01   3.7791644e-01  -8.4726864e-01   8.4144238e-01   7.2113506e-01  -2.1363721e-01   2.8927042e-01  -1.8226185e-01  -8.6454169e-01  -5.0727021e-01  -2.7532309e-01   8.8654535e-01  -2.4611404e-01   6.2419641e-01   3.8283576e-01  -2.0905428e-01   3.9002913e-01  -4.9361649e-01  -3.9569986e-01  -9.8233183e-01   6.1445659e-01  -4.0194266e-01   4.4050015e-01   9.9403518e-01   9.5115891e-01   8.8228855e-01  -6.5088980e-01   5.9887966e-01  -4.3136608e-01  -4.7596704e-01  -4.8766327e-01   7.6248283e-01  -4.0488449e-01   5.2424294e-01  -4.1281114e-01   9.9090092e-02   8.6145623e-02  -2.2890931e-01   1.3979383e-01   4.9705436e-01  -4.8398623e-01  -5.7629432e-01  -6.6265590e-01  -4.3478194e-01   2.2757731e-01   6.5083810e-01  -7.7846993e-02   1.0729234e-02   5.8897456e-01   9.2355572e-01   3.5503434e-01  -9.3116672e-01  -2.7712086e-01  -9.1956098e-02   5.7589496e-01  -2.7632814e-01  -5.2814781e-01  -2.1548641e-01  -6.1142684e-01   6.6750086e-01   1.8448404e-01   5.7399963e-01   7.5488385e-01  -2.5094831e-01   3.3915589e-01   6.7886007e-01   3.4510921e-02   5.5316459e-01   1.6303590e-01   6.0317861e-01   9.7372635e-02   1.1036941e-01   2.1604362e-01   3.3027996e-01  -6.5142766e-01   8.1537124e-01  -8.2163930e-01  -9.9776774e-01  -2.3479655e-01  -7.7103213e-01  -9.3587891e-01  -4.0017290e-01   8.4228813e-01  -4.5060693e-03   2.2942446e-01   2.7215914e-01  -1.6997417e-01  -9.0296560e-01   3.6680570e-01   8.2242617e-01  -2.6894858e-01   9.7858796e-01   8.0237364e-01   2.8218934e-01  -3.9314952e-01  -7.8941313e-01   8.1154288e-02   4.4566612e-01   7.5230594e-01  -4.1527417e-01   3.2993732e-01   3.9935273e-01  -9.3417453e-01   4.1024647e-01  -8.3276931e-01   1.0611678e-01   1.0313279e-01   4.4714548e-01  -8.4136667e-01   4.9769993e-01  -1.8708360e-01   6.0227061e-01  -8.0172448e-02   6.4077131e-01  -4.6422324e-02  -5.9718447e-02  -2.2914683e-01   7.0563203e-01   9.2156524e-01  -5.8549907e-01  -4.9323257e-01  -9.4585723e-01   6.4519156e-01   6.3224538e-01  -8.1702994e-01   3.6396005e-01  -7.4881914e-01   7.7780688e-01  -3.7217765e-01   1.0691430e-01  -4.3738375e-01  -7.4612859e-01  -3.3447224e-01  -6.8519829e-01   7.0022847e-01   3.1626875e-01   4.7115435e-01   5.4220633e-01  -7.5158148e-01   6.2921419e-01   3.6574804e-01  -5.4468426e-01  -7.6813894e-01  -3.3044799e-01   1.1365898e-01  -2.2534845e-01  -5.3761667e-01  -5.1293575e-01  -5.6417972e-01  -3.9527249e-01  -3.5145715e-01  -9.7705491e-01  -2.9889314e-01   2.3495113e-01   3.4832269e-01   8.2013889e-01  -9.5582153e-01   3.9082752e-01   3.1691808e-01  -8.8111256e-01   8.2400597e-01   5.3234206e-01   6.3972329e-01   1.3440022e-01   4.7635780e-01  -3.0624422e-01  -4.6159043e-01   4.4244156e-01  -1.0921303e-01   9.2602384e-01   2.7198953e-01   9.6074457e-01  -7.6777112e-01  -1.4645859e-01  -9.6570691e-01  -9.1408973e-01   1.7995596e-02   1.7327748e-02   4.1518306e-01   7.2861148e-01  -8.6828002e-01   1.2593159e-01   2.0588503e-01   5.8469972e-01   2.7378791e-01   6.3306262e-01   7.7683133e-01  -5.4969728e-01  -7.6884066e-01   5.5005101e-01  -7.0534335e-01  -4.1549291e-01  -5.7332251e-01  -9.9851732e-01   9.1323130e-01   3.9656439e-01   5.4277513e-01  -4.4970100e-01  -5.5387260e-01  -8.7623888e-01   1.3652751e-01   5.0905746e-01   7.2130375e-01   8.7380980e-01   5.8994359e-01  -5.0489325e-02  -2.2923357e-01  -1.4461922e-01  -8.5538403e-02   8.8513344e-01  -7.2781878e-01   8.3852225e-01  -3.1784951e-01  -6.0231153e-01   5.6880158e-01   4.2475216e-01  -7.9294162e-01   6.2438984e-01   8.6265134e-01  -8.5505876e-01  -1.3678369e-01   1.4688805e-01   8.9978327e-01   5.9416833e-01   3.6885746e-01   9.8801685e-01   8.3422529e-01  -1.9847714e-01  -4.2831830e-01   6.3974860e-01   2.8367098e-01   9.2178780e-01  -6.5631386e-01   9.7154304e-01   7.7701911e-01  -4.8716187e-01  -1.3059018e-01  -6.7311842e-01   1.5030749e-01  -3.1465576e-01   9.6408030e-01   5.8621503e-01  -9.2314112e-01  -8.8756182e-01   4.5948748e-01   1.6420559e-01   3.0878900e-01  -4.6519466e-01  -3.4431156e-01  -2.1985468e-01  -6.9301493e-01  -5.5282112e-01   9.7632236e-01  -9.3212343e-01  -7.3165204e-02   5.6493642e-01   3.6677628e-01  -7.1517549e-01  -6.2251087e-01  -8.4130969e-01  -7.0377505e-01   8.2232546e-01   4.0194984e-01  -2.3870877e-01   3.5016646e-01   4.3945405e-02  -7.6283096e-01   4.0362974e-01  -2.2242588e-01   6.3116803e-01  -1.1952634e-01   8.7378608e-01  -4.4592109e-01   3.1237284e-02  -1.3151204e-01  -6.1496564e-01   5.2425309e-01   8.6169984e-01   6.1105083e-01   3.4005200e-01  -4.5025127e-01   7.4019648e-01  -1.3891152e-01   7.8032403e-01  -8.9125972e-01  -2.2501379e-01   7.2158347e-01   8.1223526e-01  -3.8034668e-01   4.6805699e-03  -2.8928623e-02  -1.8284943e-01  -9.2604078e-01  -9.2536209e-01  -1.6196455e-01   2.9240543e-01   4.8959996e-01   9.4641953e-01  -4.9986096e-01  -7.0325717e-01  -6.1476866e-01  -9.2418726e-01  -6.9637623e-01  -1.7696351e-01   9.0819396e-02   4.6981857e-01   3.0971550e-01  -2.5881966e-01   6.4626143e-01   3.7481959e-01   2.2878276e-01  -3.2279736e-02   7.6039665e-01  -6.4167269e-01   7.1713947e-01  -7.7827152e-01  -9.7540529e-01   8.2711752e-02   1.9603683e-01   6.5545016e-01  -5.6579624e-01  -7.2266612e-01  -8.8669940e-02  -1.9378795e-01   8.5890897e-01   6.8064259e-01   8.8330331e-01  -9.3163526e-01   3.1843268e-02  -3.8316107e-01  -4.4189478e-04  -4.7056204e-02   7.3964279e-01   3.0137973e-01   2.6135158e-01   5.3263711e-01   5.8687343e-01  -2.2071079e-01   9.3553422e-01   1.0324555e-01  -4.2456143e-02  -8.1251333e-01  -9.2656419e-01   1.9136667e-01  -6.9277892e-01   2.8871785e-01  -9.1333273e-01  -6.2347097e-01  -8.8748843e-01  -2.8306761e-01  -1.0452281e-01   3.0813722e-01   5.1007744e-01   7.3450261e-01   2.0969504e-01  -7.8042640e-02  -2.2145152e-01   1.3242200e-01   5.3839721e-02  -2.2427826e-01  -4.4820750e-01   1.1518671e-02   8.7893357e-01  -5.9958723e-01  -5.8095335e-01  -7.2235565e-01   8.6099913e-01  -9.7760224e-01  -9.2209764e-01  -6.7020777e-01  -6.0389884e-01  -2.1262722e-01  -1.8385750e-01   8.1876417e-01   3.8669006e-01  -1.7538437e-01  -8.6375844e-01  -3.1396004e-01  -8.9866844e-01   2.1044759e-01  -5.2911075e-01  -7.5631604e-01   7.9085571e-01   7.8492831e-01  -7.8057112e-01   5.8453716e-01  -3.2030294e-01   4.1136780e-01   8.7619021e-01   9.2381580e-01  -4.1352426e-01   9.3693169e-01  -9.0863113e-01  -6.7063217e-01  -9.3638752e-01  -3.6179074e-01  -1.4245195e-01  -7.1394773e-01  -4.0691168e-01  -7.4694437e-01   3.1845776e-01  -5.6345501e-01  -9.1399634e-02  -7.4004127e-01   2.2449268e-01  -3.5796191e-02   5.5576824e-01  -6.3041392e-03  -2.6715204e-01  -8.6327133e-01
