  -5.9014747e-01   2.9824074e-01   2.5948671e-01   2.1903007e-01  -5.1656433e-01  -6.3852078e-01  -3.7911727e-01   1.1314142e-01  -8.4519037e-01   4.1700874e-01   9.6762668e-01   5.3655676e-01   2.2073466e-01   7.3841079e-01  -4.0743631e-01  -9.8436623e-01   4.9527261e-02   5.6035746e-01   4.9428673e-01  -3.3554941e-01  -4.7837240e-01  -5.1962670e-01  -3.4472605e-01   8.8853194e-01   4.2767076e-01   4.3458104e-01   8.3002373e-01   8.8827565e-01  -9.5507251e-01  -9.9330506e-01   3.7120924e-01  -8.8423107e-01  -8.2129566e-01   2.3569518e-01   7.1880655e-01  -2.4719636e-01  -1.0311592e-01  -4.5616040e-01  -3.1079352e-01  -5.1877897e-01   6.0801602e-01  -3.7141678e-02  -3.3218113e-01  -4.3873061e-01  -3.2794331e-01   9.8212377e-01  -5.7206011e-01   9.6263222e-01   8.6426105e-01  -6.7391030e-01   4.3750405e-01   6.2605278e-01  -2.9888751e-01   2.7203716e-01   7.9148825e-01  -3.9179919e-01  -7.1876239e-01  -5.7440220e-01   6.2824405e-01  -3.2945987e-01   8.1843365e-01  -2.1807490e-01   2.2972155e-01  -8.1069170e-02   9.1100557e-01  -5.6124397e-02  -4.1540966e-01  -7.0580991e-01   2.3972110e-01  -8.0288457e-01  -5.0234233e-01   7.5527092e-01  -2.8921104e-01  -5.8090588e-01   8.4276400e-01   3.5550705e-01   4.1710646e-01  -7.4835088e-01  -2.0364203e-01  -2.7287628e-01   2.7037061e-01   5.4776036e-01  -9.4739678e-01  -5.4085642e-01   4.6383881e-02  -3.5526213e-01  -4.1213230e-01  -5.1162233e-01   8.5079556e-01  -9.8164572e-01   1.8179518e-01  -4.6535850e-01   5.0116644e-01   3.9002237e-01  -7.4025729e-01   1.5126550e-01  -2.6148336e-01   2.7688262e-01   4.0130182e-01   8.6010333e-01   7.0864981e-02   2.8269854e-01  -6.0695716e-01  -8.8065690e-01  -1.4360289e-01   9.0309646e-01   3.1133501e-01  -6.5367798e-01   4.9579566e-01   7.2636270e-01  -5.1064270e-01   1.2395271e-01  -5.4791051e-01   2.5434732e-01   7.1461161e-02   4.9601015e-01   5.4549759e-01   2.4799960e-01  -3.2853927e-01  -1.1996459e-02   2.7081939e-01   2.8317495e-01   5.7315119e-01  -8.4534003e-01   7.7408466e-01   9.0505381e-01  -8.1732446e-01   2.3003263e-01  -5.4790535e-01  -4.6448783e-01  -5.0904871e-01  -4.8738730e-01  -8.2555638e-01  -9.2220813e-01  -3.3571392e-01   8.6599454e-01   9.6096879e-01  -6.8421849e-01  -2.8676288e-01  -5.1649929e-01   5.2012501e-01   5.6362720e-01  -9.6485124e-01  -7.9720134e-01   6.0478138e-01   8.5042067e-01  -1.3437108e-01  -3.0280195e-01  -1.6223687e-01   7.0929691e-01   9.6249551e-01   2.5168763e-01  -9.3551602e-01  -9.5710576e-01  -9.5339877e-01  -2.6746260e-01   2.2333238e-01   8.1775367e-01   4.1934017e-03  -9.5771895e-01   3.7066630e-01  -8.0863994e-01  -1.3560661e-01  -2.7853810e-02   9.7658664e-01   9.2944920e-01  -9.0178620e-01   6.9827069e-01   8.1659303e-01  -5.0289360e-01  -4.8863544e-02  -5.8964257e-01  -3.3215970e-01   9.7831607e-01  -2.4238320e-01   5.8915424e-01  -4.5549556e-01  -2.3636857e-01  -6.7637281e-01   1.6198022e-01   4.7188625e-01  -7.8307200e-02  -4.0486464e-01   8.7500476e-01   3.5131262e-01  -8.8372520e-01   4.6964140e-01   5.1159370e-01  -2.4039440e-01   7.3389207e-01   5.3412125e-01  -1.3739980e-02  -1.6075536e-01  -7.8913317e-01  -3.4149596e-01   8.8104017e-01  -7.3789314e-01   9.8667766e-01  -3.1718576e-01   3.5736434e-02   6.4618494e-02   6.4192937e-02   7.9967611e-01  -2.0186997e-01  -6.8793986e-01  -7.6952132e-01  -1.3592127e-01  -2.5002954e-01  -6.4554815e-01  -1.8477534e-01  -4.3911505e-01   1.0486233e-01   6.1496859e-02   8.6694724e-01   7.3657630e-01   2.9219044e-01   7.4328407e-01   6.6550819e-01  -3.7146637e-01   8.1986330e-01   9.1547045e-01   3.5464622e-01   8.5600812e-01  -6.9269246e-01   7.5933032e-01   7.5212984e-01   6.2460385e-01   8.2723992e-01  -5.4910087e-01   3.1547776e-01   5.1984048e-02  -2.3583826e-01   5.3301812e-01  -9.2277888e-01  -9.9223587e-01  -5.4908402e-01   5.7269845e-01  -6.2803527e-01   8.9270609e-01   3.6192514e-01   1.4686110e-02   9.2457357e-01   6.3438598e-01  -7.8766915e-02  -8.7989628e-02  -6.8123039e-01  -7.9001947e-01  -3.3859880e-01  -5.6881984e-01  -6.4350489e-01   4.4505556e-01  -9.5823816e-01   7.5851288e-02   6.6372251e-01  -7.4198119e-01  -5.9941577e-01   7.1474607e-01  -4.8357004e-01   4.7194725e-01   1.0085844e-01   3.2904464e-02   3.8551235e-01   4.5494398e-01   4.7334768e-02   6.9679133e-01   3.6054002e-01   6.6557269e-01   2.7786204e-01  -7.1617092e-01   2.7702133e-01  -9.4862607e-01  -5.8624744e-01   4.2685045e-02   5.0302657e-01  -5.6044078e-01  -6.6377840e-01   2.4819293e-01   3.5749607e-01   8.1158534e-02   6.4315918e-01  -8.5000391e-01   2.9050023e-01  -8.7722947e-01   3.8845155e-01  -5.6152873e-01   1.6614537e-01  -5.8965369e-01   6.6683698e-01  -2.2609742e-01  -8.3813976e-01   9.8399950e-01  -9.4694965e-03  -4.7047991e-01   1.1497885e-02  -5.5544518e-02  -3.0364269e-01   5.7419986e-01   7.3482998e-01   4.4005717e-03   6.3340457e-01   3.0677946e-01   6.9310220e-01   9.7338521e-02   5.8234913e-01  -4.6617985e-01  -6.9048890e-03   7.2229655e-02  -5.2369717e-01   9.0489823e-01  -7.9155738e-01  -4.1103485e-01  -1.7589241e-02   5.5940954e-01  -5.7717559e-01   6.0439284e-01   8.5341426e-01  -4.8552843e-01   7.6633914e-02  -5.9415733e-01   6.3444535e-01   9.4506246e-03   5.3427128e-01  -4.4796378e-01   9.2581899e-01  -3.0376740e-02  -1.2302772e-01   5.7166478e-01  -1.7317731e-01   5.4317780e-01   6.1168657e-01  -2.9285699e-01  -4.3437145e-01   2.5224710e-01  -5.3591752e-01   8.7158742e-01   2.4100704e-01  -7.8395244e-01  -1.3756998e-01   5.6595584e-01   4.3751141e-02   9.6620687e-01  -8.3911009e-01   8.9655931e-01  -9.7403560e-01   4.2894517e-01  -9.0897602e-01   8.6617303e-02   2.7631095e-01  -2.1942087e-01  -2.4369698e-01   1.6510357e-01  -5.0106760e-01  -6.7842344e-01  -8.2909884e-01  -6.1512960e-01  -4.3069987e-01  -7.7681167e-01   7.4127272e-01  -3.7453920e-01   7.7056338e-02   4.3257892e-01   1.9094493e-01   4.8701760e-01   8.1881060e-01   4.1346579e-01  -7.9337074e-01   6.9101315e-01   7.1327999e-01  -7.7170062e-01   7.7255569e-03  -8.6632213e-01  -3.9081634e-01   7.4617628e-02  -1.5309945e-01  -7.0036373e-01  -8.7647550e-01   1.8967168e-01  -5.6715491e-01  -2.4722561e-01   9.1207102e-01   7.4136959e-01  -8.4280549e-01  -9.1411149e-01  -3.5256238e-01   3.3893265e-01  -2.7935547e-01   9.6016391e-01  -9.3484763e-01   1.3913986e-01   6.9690723e-01   8.1949531e-01  -1.7608563e-02   7.7306998e-02  -5.8104394e-01  -4.6278369e-01  -1.0961843e-01   2.1769837e-01  -7.2239128e-01  -8.8592421e-01  -6.3571667e-01  -4.6679333e-01   1.6754984e-01   1.9927686e-01   7.7017910e-01   4.6360977e-02  -7.8565076e-01   6.9217566e-01  -2.8182344e-01   4.4907974e-02  -5.7671979e-01   3.8586511e-01  -1.1404564e-01   6.8354194e-01  -4.7686107e-01   4.6507387e-01  -6.1030367e-01  -6.8197756e-01   3.2627942e-01   7.3608326e-01   4.8244927e-01  -6.1439901e-01  -4.9073972e-01   6.5149103e-01  -7.0922061e-01  -9.7799507e-01  -6.7593241e-01   2.1551135e-01   1.0758867e-01  -6.6076199e-01  -5.3905539e-01  -5.6520246e-01  -3.3691709e-01  -1.4802921e-01   2.5731264e-01   8.9424691e-01  -9.7152138e-01  -3.8188497e-01  -7.6800289e-01  -6.7606569e-02  -4.7214121e-01   9.8724010e-01  -6.3716752e-01   1.9280847e-01  -4.4157235e-01   3.9197925e-01   3.4025704e-01   4.4021087e-01   4.0716167e-02   2.4406016e-01  -4.3529626e-01   1.2462573e-01  -3.8386863e-01   8.1773994e-01  -2.8887181e-01   8.9894803e-01   9.6932613e-02   8.0043554e-01   7.6409011e-02   6.7131316e-01   4.6160470e-01   8.3599107e-01   7.4710352e-01  -5.4746188e-01   9.8650648e-01   6.0906479e-02  -8.4726908e-01   8.6700059e-01   3.4569269e-02  -1.3103884e-01  -9.5765218e-01  -4.3176710e-01  -9.9352417e-01   4.2686691e-02  -5.6244473e-01   9.0316954e-01  -2.6816873e-01  -4.2182772e-01  -9.0470151e-01   4.6319830e-01   2.5067884e-01   3.5864429e-01  -9.0978472e-01  -3.6965070e-01  -3.1877073e-02  -5.5990066e-01   6.3752285e-02  -7.7482566e-01  -3.9880610e-01  -5.3082682e-01   6.5880271e-02   4.0384001e-01  -4.2530229e-01   2.0919037e-01   9.5704105e-01  -1.3045742e-01   2.5110095e-01  -6.5251518e-01  -1.3167237e-01  -6.3362154e-01  -5.2880480e-01  -8.5070406e-01  -5.9841010e-01  -5.5589977e-02  -8.8147874e-01  -1.8405078e-01   2.8926472e-01  -6.2781617e-01   1.9135455e-02   8.5700820e-01   1.9320921e-01   7.3714504e-01  -6.6557690e-01   5.7589808e-01  -5.9596578e-01  -4.2908526e-01   5.0470594e-01   5.5480083e-01   2.4194845e-01  -3.8680498e-01  -5.1620382e-01   8.3965440e-01  -8.5737814e-02   8.8815832e-01  -6.8819351e-01  -1.4745727e-01   5.5282819e-01   6.1143326e-02   7.8231717e-01   2.0766518e-01  -6.4514625e-01  -2.2213855e-02  -3.4599660e-01  -2.0943115e-01   2.2191829e-01  -2.5468550e-01  -5.8675306e-02   7.5171590e-01  -3.6664157e-01   5.1474158e-01  -4.2593763e-01   5.7156741e-01   2.4871413e-01   5.3646867e-01  -5.2307908e-01   4.8288136e-01  -3.0455007e-01  -9.7385959e-01   5.1054881e-01   2.1607772e-01  -8.6839376e-01  -1.3126419e-01  -2.7525906e-01  -6.7145691e-01  -8.6057317e-01  -6.3310415e-01  -6.5738291e-01  -7.7729326e-01  -1.1716258e-01   7.6304564e-01   1.8207076e-01  -7.9694276e-01  -2.5821517e-01   1.7018558e-01  -1.6780878e-01  -5.4563563e-01  -4.2577464e-01   5.0059216e-01  -6.2322499e-01   3.4056875e-01  -4.6877001e-01   1.9579662e-01   3.6672702e-01  -4.8844076e-01  -6.1760130e-01  -8.6820860e-01   2.2584341e-01  -3.5109564e-01  -4.9692144e-02   3.1043640e-01   5.0751486e-01  -5.8084456e-01   5.8958429e-01  -1.4509676e-01   7.8003410e-01   3.4862409e-01  -1.2402516e-01  -5.2572954e-01   7.2497306e-01  -3.3880618e-01  -7.2154578e-01  -9.1706797e-01   2.0869894e-01  -9.9756176e-01   8.3265454e-01   7.6219898e-02   4.7392440e-01  -7.5989623e-01   7.0612562e-01   8.6663016e-01   1.7062357e-01  -3.4428361e-02   8.3162336e-01  -5.0433102e-01   2.2736622e-01   8.8859340e-01   9.2963434e-02  -5.8886806e-01   7.5697529e-02  -2.1620424e-01   1.7605935e-01   2.4463298e-01   9.4603141e-01  -8.1570674e-01  -8.7817233e-01  -8.7564030e-01  -9.0050044e-01   4.4274783e-01   5.2401664e-01   7.3770056e-01   3.3687128e-01  -3.3365983e-01  -5.4652836e-01  -2.9926200e-01  -9.0030787e-01  -1.2334203e-01  -4.0974581e-01   3.2052472e-01   9.4855253e-01   3.7294666e-01   7.5870934e-01  -7.2773715e-01  -6.0118315e-01   6.7997972e-01  -2.7892449e-02   4.6584739e-01  -4.2534682e-01   8.2851249e-03  -3.6580819e-01   4.9573883e-01   2.2395945e-01  -5.5452551e-01  -8.4837839e-01  -7.2621304e-01   8.9848001e-01   2.0179702e-01   4.9956493e-01   9.0552450e-01  -8.1080802e-01   1.3362788e-02  -7.5956763e-01   3.3788109e-01   5.0848308e-01   7.7653417e-01  -7.0346975e-01   9.4471104e-01  -8.3998836e-01   2.4066543e-01  -7.4658803e-01  -5.3653454e-01   1.4365585e-01   1.0919166e-01   2.6243810e-01   6.7860140e-01   9.0254254e-01   1.0093136e-01  -8.6137516e-02  -4.0415703e-01  -5.5474421e-01  -7.2958251e-01   9.6358629e-01   4.7145971e-01  -3.7566820e-01  -9.6087967e-01   4.2047435e-01   2.9162468e-01   1.9139248e-01  -9.6953750e-01   7.3275638e-01  -2.3136022e-01   2.3011360e-01  -7.1767074e-01  -4.6115515e-01  -9.4948356e-02  -3.8380906e-01   9.3309042e-01  -5.5027842e-02   7.0144564e-01   6.8559965e-01   1.6626505e-01  -1.9142383e-01  -9.8330997e-01  -3.9170423e-01   4.3279307e-01   5.3687117e-01   4.8768582e-01  -1.4366059e-01  -5.7357514e-02   1.8894359e-01   9.9568352e-01  -6.6006761e-02   8.3868801e-01   3.8800955e-01  -9.9344752e-01   7.9721087e-01   4.2112867e-01   9.8153521e-01  -8.8679191e-01   1.1852195e-01   9.4665265e-01  -7.9953932e-02  -4.1059186e-01   7.6451762e-01   7.7887945e-01  -6.0621523e-01   2.0648459e-02   2.1392746e-01  -4.1116354e-01   7.5979689e-01  -4.2080487e-01  -6.9459406e-01   2.0107974e-01  -8.9066799e-01   4.0089361e-01   2.8574713e-04  -2.7670834e-01  -5.1666601e-01  -8.9888217e-01  -6.7891739e-01   5.0971388e-01  -8.2508728e-01  -2.7481090e-01   5.1128105e-01   4.9599367e-01  -7.8843878e-01  -2.6125125e-01   9.0130582e-01   9.4863436e-01  -6.6644035e-01  -1.4887314e-02   5.9648610e-01   8.4293716e-01   7.9035964e-01  -4.9090710e-02   6.3265176e-01   1.9058983e-01  -4.9209730e-01  -5.1163011e-01  -3.7659576e-01   6.9458914e-02  -7.3718283e-01   5.7306840e-01   8.7490060e-01   9.8528886e-01  -1.7625762e-01   5.8395815e-01  -2.7164002e-01  -1.4925118e-01  -4.8830820e-01   5.9729451e-01   4.8989096e-01  -4.4294046e-02   2.1823413e-01  -2.2266379e-01   4.4046501e-01   6.2649952e-01  -7.5521733e-01   6.5724461e-01   7.6445973e-01   7.9973416e-01  -6.4325594e-01   5.7520062e-01   6.3713069e-01  -4.4462531e-01   6.6034684e-01   2.2441684e-01  -3.1033813e-02  -6.6384737e-01   9.1255233e-01  -9.8184436e-01  -9.0127017e-01   8.8322724e-01  -5.7203716e-01  -6.9021645e-01  -3.3449252e-01   3.8513941e-01  -9.8348706e-01  -9.5626980e-01  -7.2477166e-01  -4.1582877e-01   7.5594914e-01   1.1426246e-01  -3.1177363e-01   4.4291188e-01  -4.1703850e-01  -3.7926135e-01  -3.7299991e-01  -8.5018869e-01   3.7530930e-01   4.9680215e-01   3.2658787e-01  -4.4296989e-01  -5.3357228e-01  -4.6886520e-01  -6.9361140e-01  -1.7502918e-01   3.2851159e-01  -4.9180284e-01   2.7012488e-01  -6.7120084e-01  -3.2777738e-01  -7.2377099e-01  -4.8951849e-01  -1.2444097e-02   1.1698190e-01   9.8891495e-01   4.1069342e-01  -3.5715205e-01  -3.4744640e-01   4.4832779e-01  -8.3891122e-01   7.8287962e-01   5.0736013e-02   3.1250247e-01  -5.1100352e-01   9.1202105e-01   7.9013392e-01  -1.5435770e-01  -1.4193169e-02  -8.1162909e-01   3.4879916e-01  -5.7808022e-01   1.0737909e-01  -2.4080332e-01  -4.0698429e-02  -4.6118507e-02  -6.8240453e-01   3.0524712e-01   9.9566473e-01   9.8153697e-01  -5.3314187e-01  -4.6748905e-01   2.8203138e-01  -9.1748282e-01  -9.3800922e-01  -3.7496673e-01  -1.3834149e-02   7.4064312e-01   4.8749490e-01  -4.8694815e-01   2.8166138e-01  -4.0952056e-01   5.9650868e-01  -6.8574912e-01  -2.2794333e-01   9.2702184e-02  -4.4300226e-01  -6.9865308e-01   2.4017116e-02   6.5799397e-01   7.8744073e-01   1.8177261e-01  -8.1519847e-01  -4.0152146e-02   9.4601127e-01   3.8374522e-01   3.1985362e-01   8.4824569e-01   9.0934360e-01   1.6288500e-01  -7.1647634e-01  -2.7280531e-01   6.3919834e-01   7.1892797e-01   5.0370970e-01  -7.2729657e-03  -5.3013939e-01   1.4921290e-01  -7.8280906e-01   3.2797045e-01   8.9625999e-02  -1.5331505e-01   5.4023595e-01   8.5678905e-01  -5.3904726e-01  -7.8310125e-01   5.2130215e-01  -5.2844311e-01   5.7779385e-01  -7.4895004e-01  -1.7057481e-01   1.4241417e-01  -5.2097198e-01   9.1542315e-01   9.5922470e-01   6.1825419e-01  -8.2753985e-01  -3.6797510e-01  -9.3762548e-01   9.8142239e-01   7.2066469e-01   8.2201609e-01  -6.4236234e-01  -6.3118113e-01  -1.7912517e-01   9.0379325e-01  -7.2556331e-01  -6.1730647e-01  -7.6357543e-01   5.1846144e-01   2.5893552e-01   9.1213545e-01  -1.7860480e-01  -5.8093416e-01   7.2337386e-01  -5.3112181e-01  -5.8938336e-01   8.9250931e-01   2.7103119e-01   9.0173714e-01   6.4561629e-01  -4.0288025e-01  -7.4155087e-01  -6.4558987e-01   2.3121111e-01   7.9472265e-01   4.2455092e-02   3.6188423e-01   7.7093979e-01  -7.2395057e-01   8.3243238e-01  -4.6387838e-01   8.0938400e-01   3.5845151e-01  -7.9116787e-01  -1.1518900e-01  -5.5844314e-01   4.3876402e-01  -9.5683689e-01   2.5198392e-01   4.0493336e-01  -1.1116485e-01   7.0045147e-01  -8.2141195e-01   9.5502459e-01  -4.2429416e-01   9.7111324e-01  -4.9378603e-01   5.9122771e-01  -4.5509597e-01   4.5135480e-01  -6.6870289e-01   5.3269352e-01   5.3032367e-01  -7.2126541e-01  -8.0768553e-01   3.4345166e-01  -3.0148275e-01  -8.1107597e-01  -5.2589271e-02   5.3326815e-01   7.4257163e-01  -7.4927991e-01  -6.1834188e-01  -2.1932177e-01   1.4670459e-01   5.0445129e-01  -1.6436160e-01  -2.4187351e-01   9.0746692e-01  -6.9111928e-01   7.1571775e-01   6.2730926e-01   8.5005100e-01   9.6801010e-01  -9.4416343e-01   7.9504527e-01  -7.1549288e-01   4.8968079e-01  -1.6337685e-01   3.3373692e-01   9.6069473e-01  -4.1529480e-01   4.9269548e-01   8.5910891e-01   7.6627488e-01  -8.0921966e-01  -4.7378705e-01   2.9357623e-01   6.4741476e-01  -9.9518525e-01   5.0672230e-01  -4.3425020e-01   4.3560684e-01   3.0315747e-01   7.0901394e-01  -6.3533750e-01   1.9312988e-01   9.4104482e-01   3.6425232e-01   7.2107358e-01
