   1.1725541e-01  -3.8598209e-01  -5.2589707e-01  -3.2509010e-01  -4.1482922e-02   6.8630698e-01   8.8938258e-01  -4.3732045e-01  -2.1521656e-01  -2.5915499e-01   1.5682605e-01  -5.4038050e-01  -7.3691944e-02   7.2639562e-02  -4.2221836e-01   8.5583913e-01  -7.3141581e-01  -1.1164583e-01  -9.2459032e-01   3.7635137e-01  -3.2176828e-01   6.1948599e-01  -9.7962896e-01   4.8059293e-01  -6.2197282e-01   1.0362787e-01  -6.7034808e-01   1.2812225e-01   6.7390567e-01  -9.5006726e-01  -5.0021008e-01   6.4079351e-01  -8.9118058e-02   7.9603210e-01   9.8110610e-01  -1.1802811e-01  -1.4570869e-01  -4.6759047e-01   2.3955430e-01  -4.2781345e-01  -6.1815869e-01   4.6518324e-01   5.3052723e-01  -3.8804614e-01  -8.4439480e-01   4.2212726e-01   6.1217927e-01  -8.4529778e-01   6.5398185e-02  -1.1861849e-01   6.6256997e-01  -4.8661152e-01  -8.5907610e-01  -3.9948364e-01   4.9588800e-01  -6.9584923e-01  -2.2476402e-02  -6.1255698e-01   5.8038448e-01  -9.7127428e-01  -3.2007583e-01  -4.4764753e-01   8.4045481e-01   8.2888143e-01  -8.6104623e-01   3.8190663e-02  -4.8082048e-01   1.2336397e-01  -7.4507551e-01  -6.9953481e-01  -4.0264363e-01  -6.8564726e-01   1.0095063e-01  -6.1957398e-01   2.8680755e-01  -7.7267649e-01   1.5158905e-01   2.1270142e-01   5.2866366e-01   9.0464787e-01  -9.4901407e-01  -3.5921390e-01   5.5601934e-02  -3.9108278e-02   3.6309332e-01   8.9888764e-01  -5.8547568e-01   6.7199657e-01  -4.1911010e-01  -7.0238294e-01  -2.3662823e-01  -7.4612067e-01  -4.0700337e-01  -2.4744384e-01   8.6937563e-01   1.4186912e-01  -1.6272468e-01   2.6062395e-02   2.6532359e-02  -9.4220325e-01   6.1839895e-01  -3.3895926e-01  -2.0080121e-01  -4.0041031e-03   2.9377173e-01  -2.6713011e-01   7.3782280e-02   2.8907073e-02   7.1245068e-01   5.9356640e-01   9.0798542e-02  -4.9536348e-01   3.3453034e-01   2.1591578e-01   5.2859081e-01  -8.2377728e-01   1.7074528e-01  -8.5663681e-01  -9.1472218e-01   3.8013599e-01   9.9807016e-01   2.0774887e-02   3.0642290e-01  -7.9348278e-01   1.3187602e-01  -8.5912753e-01   3.1750012e-01   4.3884311e-01   8.7828709e-02  -9.3761321e-01   5.1480518e-01   5.8654263e-01   8.0529122e-01  -1.3400758e-01   8.8902021e-01  -9.3896488e-01  -8.0331827e-01  -2.2711939e-01  -3.9468464e-01   2.7640370e-01   2.2610171e-01   2.4753829e-01   5.1116953e-01  -9.7484938e-01   8.1771929e-02   8.1511544e-01  -4.2296887e-01   8.8671887e-01  -8.2867440e-01  -9.1322895e-01  -1.0339364e-01   9.1327489e-01  -1.8642126e-01  -2.1339970e-01   3.3897664e-01  -7.9697492e-01   9.6148298e-01  -4.5735088e-01  -1.4436175e-01   8.9260248e-01   9.4486870e-02   9.3502601e-01   1.0601587e-01   6.9718281e-01   4.0455617e-01  -7.3191370e-01   4.7060601e-02  -9.2078980e-01   8.0530349e-01   6.1261562e-01   5.8869384e-01  -1.9097932e-01   3.6533284e-01   6.5790368e-01  -4.1293768e-01   1.0126009e-01  -9.2453194e-01  -1.6616155e-01   3.6840545e-01  -7.4313467e-01   3.0976510e-01  -2.6050046e-01   8.0089507e-01  -2.3330789e-01   7.0443222e-01   2.7402360e-02  -9.7663454e-01  -6.4283938e-01  -4.2725536e-01   8.7344776e-01   3.4947805e-01   3.8100951e-01  -6.3127549e-02   7.1093583e-01  -5.4602041e-01  -7.2176962e-01   8.3128759e-01  -1.6841410e-01  -7.3735533e-01  -8.9722110e-01   3.0976546e-01   8.6201469e-01   8.2692133e-01  -5.3867649e-01  -8.4348154e-02  -7.5462434e-01   9.2314950e-01   4.8443693e-01  -3.8016766e-02   3.0933361e-01  -3.6419212e-01  -4.9956770e-01   1.0078437e-01  -4.6324847e-01  -4.2314983e-01   6.4926348e-01  -7.9392655e-01  -7.0782110e-02  -2.8382353e-01  -8.5469832e-01   7.7543013e-01  -6.4366487e-01  -6.7209765e-01   7.9272004e-01   7.6973259e-02  -6.6949926e-01  -1.2600688e-01  -6.6114545e-01  -7.6552714e-01   2.0032751e-01  -6.8517792e-01   6.4997932e-01  -6.2094322e-01   9.7466487e-01  -1.3304439e-01  -4.4160602e-01  -8.3170199e-01   8.2924734e-02  -3.9970395e-01  -5.9096921e-02  -8.3737524e-01   4.8178220e-01   3.8354107e-02   8.2372909e-01  -4.6177035e-01   9.5386884e-01   8.7645351e-02  -4.5561796e-01  -2.0410195e-01  -5.6314196e-01   3.0365582e-01  -5.5296221e-01   3.8620104e-01  -7.8206041e-01   7.7791644e-01   2.8457643e-01  -4.5764359e-01   5.0606149e-01  -7.2360890e-01  -7.1994813e-02  -8.4298101e-01   6.5945218e-01  -7.3504761e-01  -1.1529370e-01   9.9451602e-01   6.2931894e-01  -2.2867408e-01   6.1436419e-02  -4.1187029e-01  -7.2563402e-02  -3.6613551e-01  -4.1513105e-01  -5.1894241e-02  -7.2257021e-01   9.7498994e-01  -8.0156029e-01  -7.6685349e-01  -5.5059558e-01  -3.4070656e-01   6.0553141e-01  -4.4243165e-01   3.0774637e-01   2.5060223e-01  -2.9355675e-01   4.5623848e-01   5.4700228e-01   5.0043635e-01   6.5458177e-01  -8.9714817e-01   5.5567915e-01   6.2618669e-01   9.4786249e-01  -9.4551423e-01   8.4377870e-01   5.9989837e-01   5.4567264e-01  -5.5129293e-01   8.8288087e-01   2.8676151e-01  -1.3415554e-05   2.8376371e-01  -8.6098659e-01  -3.2843740e-01  -7.0222288e-01  -5.9576596e-01  -7.9310326e-01   7.4091137e-01  -5.8823184e-01   4.0069236e-01  -7.6423210e-01  -2.6957536e-01  -3.2978699e-01  -7.4959214e-02  -9.6662312e-02   1.6523364e-01  -8.4874872e-01   5.7394736e-01  -6.1782511e-01   6.7996233e-02  -3.3161054e-01   1.1788370e-01  -5.0831472e-01   7.6611432e-01  -1.0805944e-03   3.3582247e-01  -8.7493144e-01   4.9180186e-01  -1.2062300e-01   3.2129915e-01   7.0558032e-01  -1.2733065e-01  -4.3007848e-01   9.0878191e-01   3.1277121e-02   8.1376711e-01  -3.5102542e-01   2.2144938e-01   5.9649808e-01   9.1284628e-02  -5.7901716e-01   5.6937540e-01   3.9790914e-01   2.0586162e-01   9.0361399e-01  -9.4135280e-01   9.8327384e-01   8.7344459e-01   2.7677621e-01   8.1611085e-01  -6.2882849e-01   7.7443869e-01  -8.8969070e-01  -7.5482604e-02  -5.4930548e-02  -9.8183692e-01   2.3664166e-01   5.7721208e-01   1.6686346e-01  -3.6830847e-01  -6.5241442e-01  -8.1295236e-01  -1.6106919e-01   5.6641945e-01   5.6539901e-02   9.7364847e-01  -1.6125546e-01   2.0873643e-01   4.9248085e-01   7.9278280e-01  -7.4630257e-01  -8.0651818e-01   4.2240531e-01  -5.5856771e-01  -6.4169135e-01   2.8571936e-01   8.4346065e-01  -1.7860525e-01  -3.1050631e-01   2.1602980e-01  -1.3926213e-01   3.6150366e-01  -1.4016093e-01   3.3235014e-01   7.1388883e-02  -9.6244452e-01   3.4588671e-01   7.1266292e-01   7.4679617e-01  -6.1660166e-01  -2.1493636e-01  -2.9887934e-01  -2.9999683e-02   2.7233472e-01  -8.9387303e-01  -3.7875544e-01   9.4753625e-01   3.9939955e-01  -7.0918586e-01   2.5216922e-01   3.9489887e-02  -4.6526587e-01   9.6482772e-01  -2.7099845e-01   9.3774923e-01   3.6734556e-01   5.6330053e-01  -7.1780678e-01   3.8856080e-01   5.7717283e-01  -5.9688882e-01   1.8762066e-01  -9.3356440e-01  -2.5387871e-01  -2.9632189e-01  -6.3132063e-01   3.7276791e-01  -8.1988061e-01  -7.5962726e-01  -3.6857535e-01   2.0068464e-01   6.9118329e-01  -2.1863026e-01   5.4695995e-01   2.0557981e-01  -3.3441196e-01  -4.0477799e-01   5.2458643e-01   5.3744874e-02   4.3204348e-01   7.5401370e-01  -1.5983562e-01   1.3301369e-01   3.8098719e-02   8.0891754e-01  -6.0510709e-01   6.9556199e-01   9.2412726e-01   7.0264401e-01  -4.4460986e-01  -5.5034023e-01   3.3765248e-01  -3.1173779e-01  -1.6471487e-01  -1.1371489e-01   9.5754229e-01  -4.4213401e-01  -7.3345407e-01   6.5726404e-01   2.9016980e-02   3.6734101e-01  -9.5529625e-01   2.8855449e-01  -1.4370453e-01  -5.3875339e-01  -5.6210254e-01   7.2788127e-01  -9.4553579e-01  -7.3038541e-01   4.8748606e-01  -6.1470425e-01  -1.7393263e-01  -3.2369496e-01  -6.5523721e-01  -5.1147412e-01  -4.5509874e-01  -8.9223929e-02   7.3209963e-01   8.8419961e-02  -7.3275782e-01  -6.2550082e-01   9.8641114e-01  -8.0579587e-01  -6.1149235e-01  -9.5646631e-01   2.4209876e-01  -1.2060287e-01  -8.8223628e-01  -6.8559150e-01  -8.3204425e-01   2.7342869e-01   7.4237414e-03   4.9974274e-01   5.1503162e-01   9.5450267e-01   5.6339861e-01  -4.4292175e-01  -7.7457721e-01   8.9321732e-01  -1.3725761e-01  -1.5367922e-01   5.1889961e-01   2.2954289e-01   3.3998332e-01  -6.7238822e-01   5.7458083e-01   2.4590232e-01  -1.1394532e-01   1.4679704e-01   1.2406157e-01  -1.6187169e-01  -8.1290325e-01   5.3929185e-01   7.0992485e-01   2.8396357e-01  -5.4156493e-02   7.5161137e-01  -7.1753581e-01  -5.6286449e-01   8.4388882e-01  -4.7899205e-01  -3.9502975e-01  -9.5469008e-01   2.9382051e-01  -7.4088608e-01   7.5648737e-01   1.6820583e-01  -6.7074548e-01  -2.9262089e-01   9.4748115e-01  -8.0605744e-01  -1.3482234e-01   2.1615018e-01  -6.0666698e-01   6.9834569e-01  -2.2451608e-01  -8.7914501e-01   8.6492217e-01  -5.5686185e-01   3.6657893e-01  -4.8135288e-01   5.5315455e-01  -3.5197398e-01  -5.5600159e-01  -3.1414766e-01  -2.7508187e-01  -4.1927873e-01   4.4990796e-01  -7.6776203e-01   5.7232825e-01   3.3099197e-01  -2.3983982e-01  -2.8628317e-01  -6.3913823e-02  -5.0207701e-03  -3.1592017e-02  -8.7022864e-01   8.4673742e-02   2.0419974e-01  -3.7869627e-01   3.7246304e-01  -7.1266304e-01   9.1775158e-01   1.8209426e-01  -7.9222116e-01   1.1739030e-03  -9.2580040e-01   5.2194090e-01   4.3820466e-01   4.7523263e-01   9.3048972e-01  -8.2106450e-02  -6.2600852e-01   3.7515123e-01  -5.8089183e-01   3.0536512e-01   5.6116620e-01  -9.9789274e-01   2.7311106e-01   9.4628683e-01   5.9298014e-03  -3.1283675e-01   2.8280561e-01   2.4212146e-01   5.7366124e-01  -6.4339142e-01   8.7840615e-01  -3.2722610e-01   1.0887871e-01   2.2954103e-01   3.8270614e-01  -9.3039857e-01  -6.7227528e-01  -4.0902090e-01   9.8100378e-01  -8.2923665e-01  -1.1254860e-01   5.7073585e-01  -3.0042137e-01  -8.0196373e-01  -5.5013875e-01  -7.8698504e-01  -1.7727393e-02  -5.1229676e-02   4.7684911e-01  -6.3392786e-01  -2.3118151e-01  -8.2308412e-01   8.4737101e-01   7.1472358e-01  -8.4755402e-01  -7.0525088e-01  -6.5792179e-01  -2.7495030e-01  -7.3755903e-01   9.5982515e-01   8.7500386e-01   3.7538294e-01  -7.7234789e-01   5.3577503e-01  -5.3047768e-01   9.3541290e-01  -7.8632473e-01   6.5350162e-01   4.4578296e-01   7.7153752e-01  -6.7658141e-01  -7.5428562e-01   1.9797180e-01  -7.1844396e-01   8.6673958e-01   4.6213083e-01  -1.8234085e-02   8.1838486e-02   7.1489406e-01   8.5111121e-01   5.0466631e-01  -2.2055484e-01   8.6275792e-01   2.0955226e-01  -7.6871188e-01  -9.5934204e-01  -6.1768415e-01   2.7268915e-01  -3.2223389e-01  -3.1847894e-01   5.3961099e-01  -3.3168652e-01  -2.6929998e-01  -5.1359278e-01  -1.7094720e-01   3.8151824e-01   1.4112630e-01  -9.6960396e-01   2.2083743e-01   4.5332772e-01   9.5441412e-01  -4.7456751e-01   4.4339475e-01  -4.8153794e-01   6.7066573e-01   6.0410138e-01   2.1472932e-01  -7.5579143e-01   2.4239724e-01  -3.6647273e-01  -4.0774245e-01  -2.6288024e-01   4.7333544e-01  -6.1101988e-01   9.2010004e-01  -1.2895761e-01   7.8828176e-01  -5.2790443e-01   3.9739034e-01   1.7105118e-01  -7.0393678e-01   6.8990019e-01  -3.5982779e-01  -8.0996384e-01   4.8220445e-01   1.9661990e-01  -1.0260723e-01   5.8006736e-01  -2.1542415e-01  -9.7345141e-01   2.0402475e-01   1.7471218e-01   2.7289419e-01   4.0918700e-01   6.6353574e-01  -3.8324501e-02   4.1730429e-01   1.2720361e-01   2.2428101e-01   7.9822515e-01  -9.0450646e-01   1.1389189e-01   4.4291110e-01   4.4817095e-01  -3.3464943e-01   5.6374245e-01   2.0801964e-01  -9.9715036e-02  -1.7621834e-01   9.6440669e-01   3.3973643e-01  -1.2627857e-01   8.4703632e-01   9.3460038e-01  -2.2115328e-01   9.0193203e-01  -6.6157959e-01   6.9834054e-01  -8.6342865e-01  -5.6935091e-01   6.7966493e-01  -5.0490590e-01  -4.1669868e-01   1.8701910e-01   2.4564317e-01  -6.2553842e-01  -7.1814750e-01  -2.4370859e-01   7.9386481e-01   6.8756947e-01   6.3914492e-01  -2.2900550e-01   5.4896010e-01   3.8415299e-01  -5.0581243e-01  -4.0905435e-03  -6.2243761e-01  -6.8519143e-01  -9.0365581e-01  -1.0985012e-01   4.9153508e-02   6.7272622e-01   4.6947057e-01   9.6860805e-01  -9.8501242e-01  -8.8220421e-01   7.6554702e-01  -3.6869171e-01  -5.3500186e-01  -5.8797871e-01   9.1136440e-01   7.6956315e-01  -9.7881203e-01   7.1757552e-01   5.6268487e-01  -1.0091455e-01  -9.5482846e-01   7.8169511e-01   7.4498287e-01  -6.2999387e-01  -8.1891131e-01  -7.5075479e-02  -6.6286559e-01  -1.6306922e-01   2.4647966e-01   8.0415188e-01  -6.0388651e-01  -3.0697505e-01  -1.1140929e-01   3.2191051e-01   4.7919194e-01  -7.8281822e-01  -9.4570809e-01   9.6941894e-01  -6.0669032e-01  -8.2515026e-01   8.0158154e-01   9.5723212e-01  -4.5336891e-01  -3.8540760e-01   4.5711736e-01  -8.8416036e-01   1.1636168e-01  -7.4879885e-01  -5.1471887e-01  -5.9187842e-01   6.8402909e-01   4.5850515e-01  -6.6017186e-01  -9.1423698e-01   6.4851067e-02  -5.4451362e-01  -6.6045112e-01  -3.8984797e-01   2.4942596e-01  -5.1519533e-01  -9.6597892e-01  -9.8445797e-01   5.8663901e-01  -5.0615713e-01   3.3740749e-01   2.2298788e-01   8.6708271e-01  -8.7268611e-01   5.3419666e-01  -1.2679730e-01   3.9543622e-01   7.6322268e-01  -5.6760731e-01   3.2757505e-02  -3.1154212e-01   1.9218354e-01  -8.3233652e-01   9.6235339e-01   6.7443404e-01  -8.8567953e-01   2.8515926e-01  -3.4897047e-01   9.9775145e-01   3.2695812e-01  -1.2922855e-02  -8.9899521e-02   1.6316498e-01   4.8205846e-01   9.8116305e-01  -3.6970211e-01  -3.7649280e-01   1.0130719e-01  -1.6021937e-01  -2.6567924e-03  -1.1428469e-01   9.8998103e-01   6.1140269e-01   3.0087566e-01   5.6400106e-01   4.5874953e-03  -9.8652491e-01  -1.0506909e-01  -2.0665160e-01  -1.6034723e-01   4.5855893e-01   2.2156740e-02  -9.5883586e-02  -2.3892721e-01   4.6034466e-01  -7.3833087e-01  -8.0101989e-01  -5.2362901e-01  -4.1983660e-01  -3.8845963e-01   8.6118144e-02  -5.7942319e-01  -4.9977242e-01  -6.6218478e-01  -1.3011352e-01   7.8637837e-01   7.8211103e-01  -7.8855853e-01  -6.2631017e-01  -2.9668411e-01  -9.7514735e-01   6.2667773e-01   3.2804197e-01   6.4253800e-01   1.1435454e-01  -9.8522045e-01  -2.1545758e-01   6.0573859e-01  -7.5524905e-01  -4.7917736e-01  -4.8161623e-01  -2.9840271e-01  -5.7040853e-01  -6.3854706e-01   6.4723808e-03  -8.8441959e-01  -2.4119615e-01  -4.8757224e-01  -7.7746299e-01   1.5073315e-01  -6.1063456e-01  -7.1750578e-01   3.1657549e-01  -5.0565579e-01  -7.8760062e-01  -6.4758918e-01   5.0373568e-01  -2.3149305e-01   9.0962422e-01   4.0682504e-01  -1.3395195e-01  -5.4027213e-01   8.3875187e-01  -7.0461605e-02  -7.0963321e-01   3.4134356e-01   6.1481250e-01   2.6626839e-01  -8.3832127e-01  -4.6700335e-01  -5.8937566e-01  -6.4777405e-01  -4.3090390e-01   6.4090185e-01   5.3673261e-01   2.1611848e-01   9.8159123e-01   7.2625419e-01  -7.3068774e-01   1.2995883e-01   8.4585271e-01  -9.7143347e-01   9.5685288e-01  -4.3301169e-01   7.2065602e-01  -7.6856862e-01  -9.6335406e-01  -1.8742736e-01   9.8552339e-01   7.0848244e-01  -7.9305488e-01  -8.8360533e-01  -5.1780277e-01   5.4670966e-01   9.3727344e-01  -4.4724788e-01   8.2918825e-01   6.4283881e-01   5.4435857e-01  -7.1503777e-01  -1.6454763e-01  -2.6788089e-01  -1.6415094e-01  -2.6640841e-01  -1.8998845e-02  -4.9427960e-01  -8.3690339e-01  -7.2637481e-01  -5.8416291e-01  -4.9304633e-02   3.2324076e-01  -3.7031842e-01   4.6949867e-01   2.2896505e-01   4.0884743e-01   4.4528490e-01   7.3351593e-01   9.4785618e-01  -9.1908061e-01   4.8565583e-01  -6.0570931e-01   5.4979268e-01  -1.2106073e-01   2.8261301e-02  -2.0601454e-01   8.7198188e-01   1.5307595e-01  -4.6725664e-02  -3.9766298e-01   2.3423430e-01  -4.2786895e-01  -6.2468092e-01  -8.3426217e-01  -1.5165202e-01   1.6917004e-01   3.8978477e-01  -2.8315701e-01  -1.3318717e-01   9.5844350e-01   5.5560115e-01   8.9966943e-01   4.1974599e-01   4.3081515e-01   6.4665140e-01  -7.6436799e-01   1.1665393e-01   8.1943287e-01  -4.4672542e-01   3.5000522e-01   6.0653427e-02   3.6396210e-01   9.4556526e-01   9.5873783e-01  -2.1685235e-01  -5.5660424e-01   7.4625762e-01  -4.7462889e-01   2.5889772e-01  -4.9860897e-01  -9.3707220e-01   5.9396386e-01  -1.6641517e-01  -5.7374789e-01   9.3345898e-01   3.4359375e-01   1.6755020e-01   4.1377328e-01  -6.0717783e-01  -9.6494455e-01   1.9950979e-01   4.5228796e-01   2.3182242e-02  -8.1141340e-01  -7.7376013e-01  -2.6354728e-01   5.2333502e-02   2.7968678e-01   7.2310644e-01   3.1756811e-01  -8.0227717e-01  -8.6868491e-01  -8.4446033e-01  -7.4227556e-01  -3.8356074e-01   2.5522907e-01
   3.2626272e-01   6.1904170e-01  -7.4366037e-01   7.9624234e-01  -4.3889630e-01   1.1666987e-01   4.2693941e-01   9.0684473e-01   6.5759547e-01  -1.6287742e-01   2.3869912e-01  -5.4593991e-01   3.3787846e-02  -4.2065808e-01  -5.4993257e-01   3.7435672e-01  -5.9179328e-01  -5.1452380e-01   4.4168911e-01  -3.6926014e-01   4.4090606e-01  -8.5651171e-01   2.3087651e-01   5.8738585e-01  -9.2134802e-02   8.7012535e-01  -5.0949627e-01  -7.0243948e-01  -8.4708703e-01   8.2774264e-01  -1.3679623e-01   5.7914681e-01  -3.7353067e-01   9.4278459e-01  -4.4642739e-01  -8.8153693e-01   8.7187889e-01  -1.5768012e-01  -1.0594669e-01   6.2920137e-01   4.4844495e-02  -5.1949035e-01  -7.4687929e-01   4.4670175e-01  -2.8450956e-01   1.8544769e-01   4.6151094e-01   3.2951071e-01  -4.1848354e-01   4.7659753e-01  -4.4262358e-01   6.7080596e-02  -1.5199833e-01   2.8261792e-01   1.0569657e-01   5.3818851e-01   7.3332401e-01  -5.0605518e-01  -4.7163019e-02   5.8548883e-01   9.3352866e-01   2.2280984e-01  -2.6272079e-01  -4.5634800e-01   8.0124340e-01  -8.7721348e-01   7.9741888e-01   6.5352934e-01  -3.2726649e-01  -2.0510677e-01   2.9709991e-01  -1.0404984e-01   8.8924409e-02  -6.0466215e-02   7.4609496e-01   9.9020389e-01   3.4056006e-01   4.0416744e-01  -7.8107431e-01  -3.0989378e-01  -4.6443657e-01   8.2523565e-01   5.3303537e-01   1.4845352e-02  -2.0342511e-01  -7.0235568e-01  -3.5992519e-01  -7.6761805e-01  -4.5282680e-01   4.5948180e-01   6.5137761e-01   6.5893078e-01  -8.4740633e-01  -4.0011980e-01  -4.2247994e-01  -3.8397129e-01  -2.1685632e-01  -3.3896792e-01   6.8687593e-01   3.4908606e-02  -8.6043336e-01   7.1059619e-01  -7.0425737e-01  -9.4208202e-01   6.3217491e-01  -7.5320858e-01   4.0582489e-01   7.2628133e-01  -2.5677625e-01  -5.6278610e-01   5.6993577e-01  -3.0899185e-01   3.3092339e-01  -7.2556462e-01   6.9030421e-01   9.7709429e-02  -6.5542451e-01   4.0848092e-01  -1.5755500e-01  -8.3435685e-01   1.5510049e-01  -1.3099848e-01   6.0285048e-01  -7.3746921e-01  -3.6245461e-01   7.0304630e-01  -7.4684942e-01   9.5871060e-01  -7.3865278e-01  -7.1399410e-01  -5.0682225e-01  -5.3745895e-01   5.1916825e-01   1.8161797e-01   5.8996553e-02   4.8224441e-01  -8.3386611e-01   9.3214982e-02  -6.9661828e-01  -3.1311269e-01   3.6944413e-01   4.7255595e-01  -4.3712748e-01   6.6081532e-01   5.2712556e-02  -3.6506203e-01  -7.7890522e-01  -1.0641407e-01  -1.5341738e-01   2.5125245e-01   3.1389541e-01  -8.9638557e-01   2.2961291e-01   2.3821150e-01  -6.7652016e-01  -4.1034373e-01  -3.2132682e-01   3.3900472e-01  -7.3154695e-01  -4.3799428e-02  -5.9783041e-01  -3.1890309e-01   3.3012374e-01  -5.0728055e-01   4.4863384e-01   4.5839401e-02  -5.3034949e-01  -4.4508936e-01   7.1763979e-02  -6.9610163e-01  -7.0053130e-01  -5.2205078e-01  -5.6296598e-01   5.6882918e-01  -2.1258896e-01   8.6724797e-01   1.7110513e-01  -8.8428127e-01   5.6246996e-01  -5.9440578e-01  -7.0355422e-01   6.7302006e-02  -3.3902041e-02  -3.9238112e-01  -3.8072436e-01  -5.3712247e-01   9.6636909e-01  -4.5542386e-01   7.3566383e-01  -9.3004414e-01  -1.7496398e-02   7.8674356e-01  -1.4122421e-01   4.7611504e-01   4.0757772e-01  -9.5359156e-01  -6.4222398e-01  -2.0879395e-01   7.0123269e-02  -7.4383423e-01  -2.9715979e-01  -5.4243788e-01   1.3519609e-01   3.1511576e-02   9.6689554e-01   1.3205389e-01   7.9749528e-01   8.1614754e-01   5.9397459e-01   2.1250221e-01  -4.6476176e-01   2.5311167e-01  -8.7931241e-01  -4.2597210e-01   7.9663364e-01  -3.7249044e-01   8.5130241e-01   9.0611556e-01  -5.7758298e-01   4.1402876e-01  -3.0594945e-01   1.5729577e-01   4.9399360e-01  -4.4179951e-01   4.2671772e-01   7.5925141e-01   7.3726461e-01   8.6840154e-01  -3.1117295e-01  -8.2250361e-01  -1.5537905e-01   6.3202084e-01   5.2369059e-01  -7.2732580e-02  -1.3358625e-01   8.8402696e-01  -6.8059030e-01   4.7921597e-01  -3.0173707e-01   2.7851069e-01  -8.3561338e-01   8.8661060e-01   8.7015515e-02  -5.2598624e-01  -1.0334109e-01  -7.8800821e-01   3.9976492e-01   6.0967846e-01   7.4764991e-01  -7.3615544e-01  -2.2904031e-01   3.3428224e-02  -3.7721429e-01  -4.3919958e-01   3.5829896e-02   9.2695838e-01   6.5329546e-01   4.5580038e-01  -8.5452428e-01  -2.2665877e-01  -3.1031460e-02   5.9797336e-01   7.0888081e-01  -9.2433883e-01  -6.9972368e-01   7.7311335e-01  -9.8152229e-01   8.4233393e-01  -6.9715215e-01   7.3883055e-01   9.7626676e-01   5.2699484e-01  -7.4055886e-02  -3.6035564e-01   4.7828489e-02   9.2742193e-01  -9.5874259e-01   2.9592034e-01  -9.6507190e-01  -6.6549562e-01   6.3617864e-02   2.1275676e-01   5.0487420e-01   6.2387995e-01   6.4287209e-02  -3.4647243e-01   6.7584263e-01  -7.6953900e-01   9.9382246e-01   9.1759259e-01   7.0740509e-01  -3.2817157e-01   6.5767416e-01   1.3882832e-01   4.4044793e-01  -9.3633159e-01  -6.6684487e-01   4.8456332e-01  -2.5065632e-01   1.2286806e-01   1.8805645e-01   3.6534783e-01   4.0671722e-01   6.1774533e-01  -9.9088489e-01  -3.0766771e-01  -3.6333804e-01   4.0181809e-01  -7.1705252e-01   3.7309413e-01   4.8274837e-02   6.4328018e-01  -1.8010980e-01   2.9047200e-01   8.7986118e-01   1.9122469e-01  -7.5185554e-01  -7.8878820e-01   1.7251907e-01  -4.9110350e-01  -3.6621362e-01   4.7233315e-02   9.8338273e-01   4.7567120e-01   2.7056885e-01  -8.5870843e-01  -7.4199004e-01  -7.0517876e-01  -9.0132780e-01  -9.6587785e-01  -4.8744821e-01  -9.1309918e-01   4.8803103e-01   7.1369360e-01   4.5947009e-01   2.9210263e-01  -9.2818998e-01   6.9974780e-01   3.8382000e-01   8.3040616e-01   1.3800932e-01   7.8617107e-01  -7.5192754e-01  -2.1234956e-01   8.4395374e-01  -8.0931795e-01  -4.2121038e-01  -9.6124756e-01   3.0928687e-01  -2.0310864e-01   7.1184398e-01  -5.9673060e-01   8.7733500e-01   5.5586808e-01   7.6536573e-01  -8.9949241e-01   9.6900006e-01  -8.2472414e-02   3.5593714e-01  -6.2068097e-01   3.1282241e-02  -6.6053302e-01  -3.0334582e-01  -5.9306327e-01   1.8041928e-01   6.7364674e-02  -4.7664703e-01   6.7858616e-01  -6.9676384e-01  -6.3758327e-01  -8.9806437e-01  -1.5888131e-01   3.9196766e-01  -7.0550717e-01   1.1985927e-01   1.8735245e-01   6.5140217e-01   6.5584424e-01  -6.8690553e-01  -9.9473115e-01   9.5926794e-01   5.3943378e-01  -5.1487116e-01  -9.3391541e-01  -1.4498219e-01   7.7688505e-01  -4.4555326e-01   9.9240401e-01   3.0487978e-01   5.9791283e-01  -4.6964081e-01   1.5492453e-01   7.6023275e-01  -1.1194545e-01   4.0032088e-01   6.8240081e-01  -3.2561443e-01  -9.1368373e-01  -8.6593769e-01  -7.5300272e-01  -9.2476463e-01   2.9076757e-01  -6.2913015e-01   9.8841519e-01  -7.6071627e-01  -5.8648166e-01  -1.1339069e-01  -7.9349781e-01   8.2870550e-02  -1.2402358e-01   6.3827401e-01   7.8923146e-01   7.9801025e-02  -3.9094550e-02   4.8951425e-02  -1.5411844e-01  -3.1519762e-01  -8.2004283e-01   2.9716120e-01  -1.7867772e-01  -3.8075578e-02  -4.3981516e-01   6.0664247e-01  -8.9757065e-01   8.6278096e-01   4.4603113e-01   7.0209568e-01   2.8050128e-02  -8.5501555e-01   3.4851638e-01  -9.3323402e-01   6.2342145e-01   1.1687710e-02   8.3675480e-01   9.4163199e-02  -6.2574566e-02   8.2292674e-01   1.5939589e-01   2.1982504e-01   2.2384441e-02  -7.5619415e-01   1.9356584e-01   8.4704323e-01  -8.6897562e-01  -1.4520414e-01  -8.6411680e-01  -7.2590807e-02  -1.6918991e-03  -4.2946839e-01   1.2658853e-01  -8.8320621e-01   5.5403087e-01  -8.2949711e-01  -3.2310696e-01  -8.8746119e-01   5.2189975e-02  -1.0395223e-01  -2.8320564e-01   1.8236708e-01   5.7814222e-01  -6.0858492e-01   8.7056883e-01  -2.8346462e-01   6.3373668e-01   9.2322016e-02  -7.4958712e-01  -9.9412784e-01  -1.3449845e-01   6.7879950e-01  -4.0441283e-01  -6.1894089e-01  -1.6650261e-01  -1.6035765e-01  -4.6222155e-01  -7.3978901e-01   6.0119527e-01  -2.8678823e-01   6.5743607e-02   8.6176650e-01   2.2803091e-01   3.3644891e-01  -5.9968851e-01   7.8485598e-01  -5.8472042e-01   7.6730042e-01  -6.2469820e-01   1.3174034e-01   9.0651042e-01   5.8767324e-01  -7.3588536e-01   8.0180031e-01   8.9167834e-01   7.6210652e-01   9.9643692e-01  -8.0820337e-01   2.5518155e-01  -5.8189276e-01  -9.0032449e-01  -7.4406612e-01  -1.3722824e-01   4.9779284e-01   9.9697327e-01  -7.2745817e-02  -2.8204055e-01   2.0943036e-02  -6.5226079e-01   5.1820485e-01  -3.6749142e-01  -3.7499608e-01   1.5026526e-01  -8.0708754e-01   2.0113643e-01  -6.0634169e-01  -8.1413785e-01   5.1979897e-01   7.1840555e-01  -8.9397711e-01   6.8164878e-01  -4.2780352e-01  -3.6026613e-02  -9.3293002e-02  -2.5082958e-01   3.5104308e-01   2.8392171e-01  -7.7609100e-01   6.7908380e-01  -3.9637985e-01   4.8686143e-01  -5.2493144e-01   1.7425327e-01  -9.1162454e-01  -8.4346320e-01   5.4784764e-01   8.8475202e-01  -6.0788749e-01   8.2088995e-01  -6.1321384e-01   9.2736972e-01   8.7749325e-02   8.2347194e-01   9.6341265e-01  -3.0698558e-01  -9.2302278e-01  -9.3503552e-01   3.4749642e-01  -2.3721645e-01   4.5363823e-01  -8.3914431e-01   6.8138100e-01  -6.0589023e-01  -8.5069447e-01   1.1684146e-01   9.9342790e-01  -5.0904148e-01   3.8724163e-01   5.9051506e-01   5.8559862e-03   8.5117510e-01   4.1872868e-01  -2.6140365e-01   5.9722468e-01   2.9784252e-02  -3.1636217e-01  -1.7136504e-01   3.5113838e-01  -8.3255103e-01   7.4836346e-01   3.8645808e-01   5.5622473e-01  -8.0652693e-02  -1.2434257e-01  -2.2931944e-01   4.7316562e-01   3.7854250e-01  -4.1288983e-01   8.2568765e-02   2.4709829e-01   2.3942716e-01   5.3390687e-01  -5.3567248e-01   8.1890326e-01  -2.2574837e-01   6.5770444e-01  -1.6099252e-01  -7.0336681e-02   5.1747967e-01  -6.3093976e-01  -2.0498157e-01  -3.5670380e-01  -3.6468965e-01  -6.1115607e-02   4.5220419e-01  -1.7592767e-01  -1.0433801e-01   1.8350077e-01   7.3451574e-01   9.4641769e-02  -2.9233519e-01   2.3510237e-01   4.7503444e-01   4.2212845e-01  -1.9310963e-01   7.6995804e-01  -5.1525970e-01   9.7363496e-01  -9.6685222e-01   8.6423195e-01  -7.0386498e-01  -2.7888835e-01   1.0153167e-01  -4.8627060e-02  -5.8049063e-01  -3.8126896e-01  -4.4574461e-01   1.9301656e-03   4.9736765e-01  -8.4470528e-01  -9.7483061e-01   9.9262245e-01  -9.6698232e-01  -8.4611227e-01   5.9155104e-01  -6.2266148e-01   1.6152492e-01   3.3549504e-01  -9.2366636e-01   3.0924336e-01   7.8782072e-01  -9.6023503e-01  -3.2889299e-02   9.2606000e-01  -4.2596545e-01  -1.9943407e-01   4.1057926e-01  -8.3732493e-02   3.5800731e-01  -1.8060140e-01   4.6911844e-01  -7.2301484e-02   9.7660958e-01   8.3714464e-01  -2.5374953e-02  -6.0733360e-01   9.1241976e-01   9.6598932e-01  -2.5815644e-02   6.5103278e-01  -7.1918976e-01  -8.2155680e-01   5.7376869e-01   5.6429054e-01   9.1229041e-01   4.9131204e-01  -5.5284044e-01   3.0842832e-01   1.7573108e-01  -1.3694891e-01  -1.2259758e-01  -5.5255040e-01   9.9623177e-01  -7.6411569e-01  -7.3279988e-01  -3.1142364e-01  -1.1271961e-03  -8.8054331e-01  -1.0038036e-01   5.8689021e-01   1.4165239e-01   5.4532269e-01   7.1188824e-01   1.3047268e-01  -9.3071072e-01   8.8450332e-01   9.6734872e-01  -9.7536393e-02  -8.8332441e-01   5.6166176e-01   9.4528340e-01   2.7701511e-01  -4.5409338e-01   5.2214528e-01   4.2466668e-01  -8.1849109e-01  -5.5978670e-01   5.9247765e-01   8.2581731e-01   1.7367115e-01   4.8466316e-01  -4.3927425e-01   7.9823440e-01  -7.1201725e-01  -1.6858191e-01   1.4040073e-01  -7.9604560e-02  -6.7274438e-01  -4.2053131e-01  -5.4075040e-01   6.4048708e-01  -5.9048908e-01  -6.7125882e-01  -7.7446595e-01  -6.9477805e-01   6.0803828e-01   7.3891683e-02   3.2370470e-02  -3.8608735e-01   5.8802888e-01   4.6628805e-01  -4.0351122e-01  -9.2570466e-01  -1.2738383e-01   8.2530867e-01   5.1265467e-01   3.4991877e-01   2.0998845e-01  -3.5344949e-01  -6.2675195e-01  -5.7189582e-01  -1.1055403e-01  -8.2044742e-01   1.7781626e-01  -7.0317210e-02   4.7037030e-01  -1.1187556e-01  -7.3987691e-01   2.2690156e-01  -6.0965136e-01   1.5894139e-01   5.3941523e-01  -1.4652653e-01  -6.9996849e-02   5.7837146e-01  -1.0869099e-02  -5.4116355e-01  -4.1377145e-01  -8.3339449e-01   6.1079870e-01   3.9134501e-01   7.3482604e-01  -2.9552131e-01   9.5555276e-01   6.4586308e-01  -4.0421080e-01  -3.6995892e-01   3.4543248e-01  -3.0661375e-01  -6.3408734e-01   2.7406662e-01  -1.7212831e-01  -3.2036234e-01   9.5407151e-01   5.0413958e-01   6.2921037e-01  -4.1029847e-02  -6.0964663e-01   8.5259980e-01  -1.2250881e-01   3.4917014e-01  -1.9908592e-01   9.9762392e-02  -5.3484524e-01  -4.2135026e-02   2.9878485e-01  -4.1661907e-01  -8.8870032e-01  -1.4350159e-01   1.4096390e-02   3.0548640e-01  -8.3119321e-01  -7.2551873e-01  -9.8739735e-01   3.7406889e-01   9.9761244e-01  -1.2148352e-01  -3.1751714e-01   3.3122456e-01  -4.1455796e-01  -2.1288574e-01   8.3050875e-01  -8.5725647e-01   4.6198838e-01   9.5075806e-01   9.6132815e-02   6.0990179e-01   5.0680657e-01   3.4084896e-01   2.5837969e-01  -7.5452223e-01   2.4075791e-01  -8.1206524e-01  -4.6887514e-01   5.0419128e-01  -5.3709198e-01  -1.2277951e-02   6.7570827e-01  -6.2875923e-01   2.6480023e-01   4.5343637e-01  -1.8340028e-01   3.0572163e-01   8.9226072e-01   2.9657820e-01  -4.2443369e-01  -2.8092900e-01  -6.9379540e-01   6.2139254e-01   9.7643963e-01   2.4065181e-01  -5.9817589e-01   7.6212556e-01  -6.8842233e-01   7.8667860e-01  -6.5748311e-01   6.1774240e-01  -1.7836752e-01   4.6885790e-01   1.3671933e-01  -7.7383960e-01  -5.8169683e-01   1.6619770e-01   4.5599470e-01   3.6924948e-01   8.8812995e-01  -3.5848653e-01   3.2468297e-01  -7.1606112e-02   1.8573042e-01   9.0557213e-01   3.8519654e-01   3.6312546e-01   8.8424617e-01   3.2163421e-01  -8.5529000e-01   2.8770088e-01   5.7610599e-01   3.8623594e-01  -6.1301764e-02   5.2843063e-01   2.6671082e-01   2.7035842e-01   3.7856275e-02   6.9850077e-01  -1.3463234e-02   9.0336830e-01   7.6045504e-01   9.9207539e-01   3.6486527e-01  -7.4381707e-01  -1.1531342e-01  -4.7038726e-01   2.2461357e-01   2.9405698e-01   9.9849339e-02   5.5977247e-01  -5.2375341e-01  -5.2276832e-01  -3.8006257e-01   6.9053503e-01   4.4124393e-01  -7.4116000e-01  -5.0838156e-02  -8.0437117e-01   7.6616458e-01   4.9179359e-02   5.9298716e-01  -1.3599550e-01   8.7655643e-01   3.0761745e-01   3.1631369e-01  -7.2747854e-01  -6.9230102e-02   4.4759669e-01   3.9448340e-02   7.4404087e-01  -3.2928292e-01   4.6714820e-01   7.7117945e-01  -1.8213660e-01   6.5782260e-01  -6.5735922e-01  -8.4321559e-01   7.3237442e-01   1.4524356e-01   1.5592573e-01   6.8910004e-01   5.6586813e-01   8.4567931e-01   6.7378543e-02  -2.5979957e-01   3.2775063e-01  -6.7705136e-01   2.5604254e-01  -1.4622673e-01  -7.6534165e-01  -9.6489394e-01   7.1657880e-02   3.4250713e-01  -2.8838318e-01  -8.6058125e-01   7.1418728e-01   1.5313833e-01  -6.4881026e-01  -2.2156824e-01   6.5358111e-01   8.5221765e-01   5.6040986e-01  -7.2030032e-01  -8.9170608e-01   6.4658975e-01   3.1331985e-01  -8.7711202e-01  -5.4963068e-01  -2.6544199e-01   1.3699209e-01  -9.5529689e-01   9.7635240e-01  -7.3196193e-01   4.3304827e-01  -6.0332883e-01   1.8087723e-01   2.3476658e-01   7.1495738e-01   3.4548018e-01  -1.8892981e-01   1.0231078e-01   2.0342321e-01  -1.9352489e-01   7.9195629e-01   9.9585369e-01   6.7458552e-01   2.4985179e-01  -3.3114346e-01   3.7784666e-01  -7.2430208e-02  -8.0075738e-01   7.9432840e-01  -3.2378797e-01  -2.1735126e-01  -1.5043688e-01   7.6415701e-01  -4.9807814e-01   4.2328205e-01  -6.0156142e-01   3.4157030e-01   9.9925093e-01  -7.0309003e-01   3.1029944e-01   2.3879347e-01   4.6080004e-01   8.0747954e-01  -9.7149186e-01   9.3577696e-01   2.4010554e-01   7.7631901e-01   8.8372028e-01  -7.0431037e-01  -1.4649180e-01  -3.8116208e-01  -8.6793756e-01  -1.2917694e-01   1.0432902e-01   9.8265022e-01   7.1149856e-01   9.6994782e-01  -5.7867703e-01  -8.0136056e-01   7.1078483e-01   9.1271976e-01  -1.6762480e-01   6.5967224e-01  -4.2194640e-02   5.5505479e-01  -9.8416413e-01  -8.9848663e-01   1.6464121e-01   9.5983250e-01   4.5727400e-01   4.6652643e-01   2.9633969e-02  -9.2730057e-01  -1.2856356e-01   4.0621540e-01   6.8022878e-01   2.8643524e-01  -9.7483146e-01  -5.0944686e-01  -6.1166299e-01  -3.4736553e-01   5.4269945e-01  -7.1643637e-01   5.0058460e-01  -6.1104000e-02  -3.5869838e-01   8.4562793e-01  -2.0080407e-01  -2.7042933e-01   6.7760848e-01  -5.9316364e-01  -7.0811149e-01   1.9317376e-01
  -6.8658094e-01  -2.9991031e-02  -7.2574339e-01  -1.1095845e-01   3.2863906e-01  -9.3389552e-01   9.5204301e-01   5.6661069e-01   6.2531847e-01   5.5317646e-01   9.3654554e-01   1.7526181e-01   4.2568483e-01  -2.6929774e-01  -1.4174833e-01  -2.9930801e-01  -1.5284958e-01  -2.2340435e-01   5.1131573e-01  -1.9598345e-01   3.8484128e-01   3.3972811e-01   6.3448590e-01   4.2004160e-01  -9.3379847e-01   4.6654051e-02   8.6615760e-01   5.5148056e-01  -6.7702416e-02   2.2679393e-01   4.0059285e-01   9.0109682e-01  -3.5813376e-01   8.2898270e-01  -4.8895735e-01   2.3003009e-01  -4.9980102e-01  -5.8495618e-01  -3.9952982e-01   4.9946912e-01  -6.8137695e-01   3.7555668e-01   5.4855139e-01  -6.0878026e-01   6.9234913e-02   3.8959739e-01   1.3994545e-01   2.6707882e-01  -1.1527921e-01   6.2899426e-01  -1.5128955e-01   4.4202679e-01   8.0498352e-01   6.4605927e-01   6.3426475e-01   4.7859621e-01   5.1874092e-01   1.8727779e-01   6.0674532e-01  -3.6152058e-01   7.7445357e-01   8.1773580e-01   2.7268507e-01  -5.4024773e-01  -1.6947505e-01   2.6813116e-01   2.3084536e-01  -6.3798319e-01   1.4611617e-01  -9.4789261e-01   5.0427782e-01  -5.9293258e-01   6.2503993e-01   5.0097855e-01   4.5970247e-01  -3.4799877e-01   7.2018241e-01   7.8734145e-02   9.0942912e-01   8.4638915e-01  -9.2276403e-02  -2.2265959e-01   4.7006255e-01  -6.1921444e-01  -4.8116692e-01   3.2210827e-01  -4.0496663e-01  -7.6836646e-01  -4.1555473e-01   5.5257825e-01  -6.9880531e-01  -9.1895252e-01  -9.9088271e-01  -5.6260526e-01  -3.8879698e-01   7.7445515e-01   2.5350457e-01   5.0791046e-01  -6.0746588e-01   4.2594462e-01  -8.2710448e-01  -5.5272847e-01   8.2365682e-01  -9.2796305e-01   4.2920227e-01   6.5749863e-01  -3.9862159e-01   9.4918552e-01  -5.0442652e-02  -3.1599205e-01   5.6072947e-01   7.7420936e-01   9.7469609e-01  -5.1211857e-01  -9.2782328e-01  -1.1061852e-01   5.1550675e-01  -6.3697278e-01   6.3584217e-02  -9.2272007e-01   9.3872761e-02  -2.9362086e-01  -1.3046176e-01  -2.5492002e-02   9.6654015e-01  -1.9640848e-01   9.7923544e-01   6.1953699e-01   3.2179760e-01  -2.3711084e-01   8.2174229e-01   3.5979120e-01  -4.1637085e-01   6.5109710e-01  -8.9301565e-01  -9.7197030e-01  -5.2802347e-01   5.0296503e-01   8.5223617e-02   8.8291161e-02   6.0110239e-01   8.5927823e-01  -8.9530784e-01   3.7371632e-01  -6.5458674e-01   2.7655351e-01   1.0005746e-02   2.4987161e-02  -7.3180388e-01  -5.3922018e-01  -2.7071706e-01  -9.6700980e-01  -2.0395666e-01  -1.0841700e-02  -7.1999542e-01   8.8688009e-01  -2.2589511e-01   6.3234516e-01   1.0369623e-01  -2.9479783e-01  -4.5326869e-01  -2.9152147e-01  -4.8866697e-01   2.5123252e-01  -8.4638384e-01   2.1438276e-01  -3.6144513e-01   7.8312490e-01  -4.9722219e-01   7.0692504e-01   4.5233427e-02  -3.8296566e-02  -4.0733298e-01  -8.0959803e-01  -9.9473123e-01   5.0795324e-02   6.7176171e-02  -3.8277237e-02  -5.8827865e-01  -8.2333846e-01  -7.3026349e-02   5.9593061e-01   5.5369451e-01  -8.7401618e-01  -2.9922398e-01  -3.9814842e-01  -4.9842158e-01  -7.1137156e-01   9.5717207e-01  -8.6043316e-02   8.6603986e-01  -5.9396062e-01   7.2265906e-01  -2.3851187e-01  -2.2957609e-01   3.0496759e-01   9.8869861e-01   8.8395265e-01  -4.9286800e-01   5.8441028e-01  -9.7678170e-01   5.4359946e-01   7.1366354e-02   1.5855516e-01   6.3635967e-01  -3.6513392e-01  -6.5628703e-01   2.2144815e-01  -6.4054301e-01   9.4288421e-01  -5.7286395e-01   9.7663806e-01   5.2285598e-01   1.2720605e-01  -6.4703545e-02  -6.1926031e-02  -3.6893804e-01   2.1148897e-01  -6.8798278e-01  -7.4285903e-01   5.3709666e-01   4.4397039e-02   9.0032107e-01  -1.9460608e-01  -6.2890574e-01  -7.8403460e-01  -7.7001971e-01   4.3094851e-01  -4.3308220e-01  -6.1016525e-01  -6.8728044e-01   8.1899103e-01  -3.6370075e-01   7.5486419e-01  -5.1833084e-01  -9.7784446e-01   7.0168994e-01   7.5640191e-02   6.1322720e-01  -9.0721606e-01  -8.5493632e-01   2.3987826e-01  -7.0940946e-01   6.7975188e-01  -9.2152374e-01   7.2595262e-01  -9.4228860e-01  -4.7831682e-01   4.9269951e-01  -1.8292276e-01  -8.4958204e-02  -5.9862452e-01  -3.0205121e-01  -9.2591009e-01  -8.7581114e-01  -5.0763779e-01  -8.3245515e-01   3.6437959e-01  -3.9037247e-01  -6.1485958e-01   8.9892903e-01   3.4988379e-01   9.7992819e-01   8.3632574e-01   3.2279020e-01  -4.1338842e-01  -9.2769891e-01   4.4890267e-01   3.9534161e-01  -2.8487165e-01  -9.7243952e-01  -1.3491600e-01   1.8157792e-01  -7.1820998e-01  -7.7269373e-01   1.6093119e-02  -7.4985806e-01   7.7399830e-01   7.8371831e-01   7.4507898e-01   7.4547677e-01  -6.3204424e-01   5.4476026e-01   8.8497782e-02   1.3182138e-03  -2.7358391e-02  -3.1548969e-01   9.6255792e-01  -5.0542727e-01   3.0262085e-02  -1.0185202e-01  -1.6855603e-01  -8.5462515e-01   2.7134444e-01  -4.4416043e-01   9.2150818e-01   4.1343280e-01   4.0501322e-01  -5.2328502e-01  -5.3383243e-01   4.4576583e-01   9.4978277e-02  -5.5054237e-01   8.3416225e-01  -2.9153504e-01   8.1742285e-01  -8.6553651e-01   8.1720772e-01  -1.7662644e-02  -6.2672362e-01  -9.0996181e-01  -1.7784291e-01  -9.6641306e-01   6.7383702e-01  -7.6521936e-01   7.8402819e-01   4.7157672e-01   7.3886031e-01   9.8154367e-01   7.0743482e-01  -9.9786884e-01  -1.3143540e-01   5.3208219e-01  -2.0202867e-01   7.6136254e-01   6.8779355e-01  -7.6281414e-01  -8.0333761e-01   8.0057409e-02   4.5812074e-01  -6.5095171e-02  -5.2777030e-01   2.0508773e-02  -4.1482282e-01   5.5805975e-01  -4.2642631e-01  -6.8397660e-01  -3.0083398e-01   1.8158810e-01  -4.9289076e-02   5.1590679e-01  -6.2438686e-01  -9.1188670e-01   3.7854324e-01   2.5511766e-01   4.7295307e-01   5.8607108e-01   3.2245491e-01  -9.7727232e-01   3.5955316e-01   6.5813190e-01  -5.3386468e-01  -5.9805392e-01   7.1475294e-01   1.0112451e-01   6.4043529e-01   2.2024768e-01  -6.7961660e-01   2.8575286e-01  -7.2168619e-01  -5.4153204e-01  -5.9704505e-01  -5.5271461e-01   5.0919687e-01   3.2358387e-01   8.2780452e-01   6.6330310e-01  -5.0311490e-01   9.0216967e-01   7.6922670e-01  -9.1124033e-01   2.0150855e-01   2.0983737e-01   5.0045518e-01  -6.0341537e-01   3.7794333e-01   1.8268416e-01   2.6908053e-01   9.3613797e-01  -1.9028261e-01   2.5355231e-01  -7.2287787e-01   2.2780632e-01  -5.0770659e-01   7.4737667e-01   8.2695405e-01  -4.1233558e-03  -8.5279316e-01  -4.7347590e-01   9.6352144e-01  -7.2920399e-01   6.8944404e-01   4.4843483e-02   7.5933103e-01   1.1465868e-01   8.1433007e-01   1.1601624e-01   8.1198699e-01   5.0851615e-01   8.1801553e-02   5.8408095e-01   6.3592377e-01   1.2816681e-01   5.7498554e-01   3.3394875e-01  -7.6503292e-01  -9.7279438e-02  -4.9874220e-01   4.4041763e-01  -7.1966929e-01   8.7238143e-01  -5.0969761e-01   6.3958846e-01   4.7473480e-01   7.7934082e-01   1.3371673e-01   2.9745497e-02   1.5943755e-01   8.0326311e-01  -5.5552105e-01  -6.3610155e-02  -2.2446532e-01   3.4243120e-01  -7.6856586e-01   1.2640619e-01   1.2004156e-01  -4.5093878e-01  -7.5394886e-01  -8.9054923e-01  -6.5578628e-01  -8.5917598e-01   1.8424623e-01  -5.1233866e-01   2.7614709e-01   5.3941547e-02  -4.5021007e-01  -2.8711729e-02   9.6187782e-01  -5.0944468e-01  -3.9163334e-01   7.8407403e-01  -3.1109273e-01  -7.5073460e-01  -7.3775471e-01  -1.9787711e-01   4.6810125e-01  -8.4147946e-01  -3.8497623e-01  -8.6243863e-01   1.7857223e-01   6.6032654e-01  -5.1875396e-01  -5.2700370e-01   4.8135462e-01   4.8782807e-01   7.6324677e-01   8.1856673e-01   6.3819811e-01  -7.1067216e-01   6.1461893e-01  -4.1978689e-01   3.6024712e-01  -2.9748630e-01  -4.8118868e-01  -1.2625190e-01   2.1528634e-01  -4.2551091e-01  -8.6334386e-01   1.9508605e-01  -3.3105848e-01  -8.9820940e-01  -4.2788294e-01  -9.1283006e-01   7.6755764e-02   7.4247486e-01   4.1714155e-01   9.4007795e-01   2.2335103e-01  -8.9287299e-01   8.5539654e-02  -8.8642056e-02   3.5182149e-01  -7.5696639e-01  -5.6657147e-01   4.0476901e-01   5.0160216e-01  -8.7250215e-01   6.3730788e-01  -2.6924753e-01  -7.9614889e-01  -4.1234494e-01   9.8232533e-01  -2.6509856e-01   5.5012079e-01  -6.1319996e-01   5.4661854e-01   9.7332910e-01  -6.9941897e-01   5.9800509e-02  -2.8886255e-01  -3.9156049e-01   9.3504194e-01   9.9166647e-01  -9.7710355e-01   3.7650879e-01   6.9701704e-01  -9.5807844e-01   7.9353794e-01  -2.2213868e-01   8.6936669e-01  -2.7763093e-02   6.3766552e-01   2.9257708e-01   2.4082780e-01   3.3878587e-01  -7.3936063e-01   3.2427416e-01  -5.0080499e-01   3.1331295e-01   1.7065537e-02   4.3962162e-01  -3.6522860e-01  -2.1226396e-01  -9.5689642e-01   1.8873901e-01   9.3804844e-01  -6.5423018e-01  -1.0617915e-01  -8.6172935e-02  -6.5666053e-01  -6.4799477e-01   1.4646879e-01  -4.7792700e-01  -7.0023555e-01  -2.4862736e-02   8.9359359e-01  -9.8824692e-02  -6.9389895e-01   5.4609831e-01  -5.0915306e-01   5.0027857e-02   3.8470793e-01  -2.5657713e-01   9.5410004e-01  -1.1839605e-01  -9.3732176e-01  -4.1017794e-01   4.5279954e-01  -6.3092621e-01  -7.0695754e-01  -8.0673862e-01  -2.9718323e-01   6.6054843e-01  -1.4429780e-01   2.9146929e-01   4.0223768e-01   8.5725550e-01  -6.1249445e-01   1.4501144e-01  -1.4460926e-01   1.2156907e-01  -3.0266059e-02  -2.1542764e-01   4.2389061e-01   9.7258692e-01   9.9402768e-01  -8.4347355e-01  -9.2455177e-01  -1.9496831e-01  -5.0284864e-01   3.5343405e-01   3.2153178e-01  -5.9273011e-01  -2.8473510e-01   3.8327550e-01  -4.0868409e-01   8.5574297e-02  -6.3964926e-01   2.9489629e-01   4.1589164e-01  -8.5773150e-01  -2.9966581e-01  -7.2866693e-01   9.5232849e-01   9.6490783e-01   6.1772504e-01  -6.0379038e-01   7.9428839e-01   4.5648379e-01   1.8447410e-01  -2.0287170e-01   9.9914168e-01  -3.3671235e-01  -8.0194148e-01   1.0248739e-01   4.4038639e-01   8.7652177e-01   3.3096708e-01   1.5318860e-01   4.9809174e-01   9.8481344e-01  -8.8619685e-01   9.2516591e-01  -5.4361884e-01   2.3790423e-01   7.5259425e-02  -1.2906155e-01  -3.1982698e-01   3.4452949e-01  -9.0726870e-01   1.7208883e-01  -6.7278530e-01   4.9662934e-01   6.9283718e-01   4.3176453e-01  -6.1374501e-01  -3.0723783e-02   1.3255445e-01   6.4482978e-01  -5.0879720e-01   1.5372081e-02  -9.0832819e-01   6.9088677e-01  -2.5151298e-01  -8.0410023e-01  -6.3815934e-01   7.0376172e-01  -7.3822692e-01   9.7939936e-01   8.4317528e-01  -5.1284320e-01  -6.0461046e-01  -1.7537012e-01   6.4142183e-01   7.9641242e-01  -5.2437751e-01   8.2414583e-01  -3.4976650e-01   1.1122155e-01   5.0640439e-01   1.6289732e-01   3.7224111e-01  -9.6516174e-01  -8.7413235e-01   9.9571878e-01   2.4643173e-01  -7.4610477e-01  -3.5400009e-01  -8.9506000e-01   1.2509011e-01   5.8994953e-01   7.3601968e-01   2.4405678e-01  -4.5761006e-01  -7.6283013e-01   7.6605165e-01  -4.7360352e-01  -2.9263790e-01   8.2919945e-01   1.8019788e-01  -4.1305338e-01  -7.3826668e-01   6.5022939e-01   9.9621220e-01  -3.2369062e-01  -9.1411833e-01  -3.0549744e-01   3.5652504e-01  -5.7940512e-01   9.9164930e-03  -1.7486994e-01   9.3380212e-01   9.5457510e-01   1.8775221e-03   1.8479024e-01  -4.6181006e-01  -3.2849709e-01  -1.5955615e-01   7.3457041e-01   5.3844087e-01   9.2332650e-01  -6.7535364e-01  -7.4026814e-01   7.5948840e-02   9.9621559e-01  -9.4489866e-01   7.6392456e-01   5.8310913e-01   1.2762577e-01   3.6929115e-01  -8.4438868e-01  -5.8408845e-01   3.4978799e-01   6.7504629e-01   5.1579241e-01   4.9123629e-01   8.9938817e-01   5.9036207e-02   4.4935396e-01   7.2079792e-01   7.0343522e-01   8.7142473e-01   1.7838714e-01  -1.6188854e-01   2.8803879e-01  -7.3663712e-02  -3.1953746e-02  -3.9661913e-02  -4.0013686e-01  -5.3299679e-01   5.9462922e-01   2.5658610e-01  -1.9418101e-02  -4.0271200e-01  -7.8842771e-01   5.5655132e-01  -8.1954659e-01  -9.1342911e-01   9.1211771e-01   6.2178969e-01  -5.3740695e-01   5.1510031e-01   3.1866037e-01  -3.3185272e-01  -5.4922341e-01  -5.9479788e-01  -8.7417245e-01  -7.7967242e-01  -8.8408988e-01   7.4302939e-01   1.4065391e-01   5.4777045e-01  -1.2626484e-01  -3.8786091e-01   5.4471238e-01   8.8040660e-01   7.8975356e-01  -3.6269708e-01   8.2677839e-01   1.2213356e-01  -2.6125674e-01   1.2259102e-01  -3.2726624e-01  -4.3356687e-01  -4.2665658e-01   6.0568836e-01   7.0603842e-01   7.5029975e-01   6.8960292e-01  -9.2835184e-01   5.9354610e-01  -9.9212770e-02   7.4774180e-01   5.8056627e-01  -2.5249741e-01  -7.8269889e-01  -4.8335135e-01  -8.3965146e-02  -7.9978773e-01   2.7645877e-01   9.5353489e-02   1.7893463e-01   8.8652501e-01  -4.1144971e-01  -4.0401758e-01  -8.7319223e-01  -7.3173283e-01   9.5820677e-01  -5.7784464e-01  -4.4388776e-01  -5.2160274e-03  -1.9016990e-01  -6.2243718e-01   1.7333322e-01  -1.2652534e-01  -1.4482866e-01  -3.6427796e-02   6.4875282e-01  -2.2792757e-01  -8.3454056e-01  -5.3434226e-01  -5.4543662e-02   9.0336301e-01   2.8286174e-01  -8.7626794e-01   4.9731369e-01  -4.9930174e-01   4.8653642e-01  -4.2472674e-01   4.7664571e-01   4.3074296e-01  -3.9055168e-01  -4.3124031e-01  -7.0021132e-01   9.7610970e-01  -4.4104930e-02  -3.2378716e-01   8.0858126e-01   5.3591291e-01   1.2387813e-01  -2.0895767e-02   1.7116522e-01  -9.4869321e-01  -5.6721467e-01   7.1031653e-02  -4.0341294e-01   6.2069787e-01   4.3996886e-01   9.4753082e-01  -6.0228099e-01   8.7118559e-01   9.2049105e-01  -7.4566045e-01  -8.5490238e-01  -4.4339624e-01   5.9395454e-01   5.8506285e-01  -1.3496010e-01  -8.4492246e-02   5.9736926e-01  -3.4654775e-01  -3.7839486e-01  -9.8723972e-01   3.7450831e-02   2.7379674e-01   5.2874539e-01  -7.3592807e-01   7.8861157e-01   6.1686753e-01  -8.9367607e-01  -2.2841286e-01   1.4008810e-01  -8.2703091e-01   8.9159157e-01  -2.6833864e-01  -9.0210294e-01  -4.3952970e-01  -4.8673166e-01  -7.0541004e-01   9.0068575e-01   4.4823242e-01  -9.1988120e-01   7.4317700e-01   1.0460188e-01  -9.7461651e-01  -2.7915195e-01   3.0439931e-01   3.6037828e-01   8.9825882e-02  -1.7583528e-01   7.1391684e-01  -7.5966351e-01  -8.6497221e-01  -9.6679096e-01  -3.5699669e-01   5.0750927e-01   7.4389767e-02  -1.7882434e-01  -6.2587727e-01   8.6816801e-01   9.6513562e-01  -9.7539713e-01   3.7841631e-01  -1.3335666e-01   5.5892753e-01  -8.9581256e-01   7.7608185e-01   7.5467248e-01  -9.6496382e-01  -4.7774020e-01   6.0910493e-01  -5.1946329e-01   6.2329090e-01  -3.0958043e-01  -7.1018787e-01   7.9443420e-01  -3.9828494e-01   5.3777799e-02   6.9820865e-01   2.7274944e-01   5.7336635e-01   5.6666185e-01   9.6737538e-01  -8.8915884e-01  -9.4408710e-01   4.6080439e-01   1.5673551e-01  -1.1629372e-01  -6.6080755e-01   9.9365430e-01   1.9242896e-01   7.3235377e-01   6.7222731e-01   6.6575735e-01  -7.9832170e-01   7.0665522e-01  -1.5021855e-01  -5.9709097e-01  -6.9779149e-01   1.8478922e-02   6.4215695e-01  -3.0581160e-01  -2.6941131e-01  -6.9931252e-01  -1.6587447e-01  -3.9950081e-01  -3.4909922e-01  -6.9891278e-01   6.1263256e-01   6.2841938e-01   6.9366959e-01  -6.6237961e-01  -4.1028820e-01   5.0150692e-01  -1.9780765e-03   9.7133789e-01   2.4774101e-02  -6.9861532e-01  -1.2556180e-01  -9.9039681e-01  -5.1787885e-01   6.4963079e-01   2.9296854e-01   2.0202765e-01   9.8821217e-01  -2.2739087e-01   2.5281194e-01   9.0665086e-01  -9.5889048e-01  -8.0512309e-01  -9.2896934e-01  -7.5530244e-02  -2.3360393e-01  -1.0904802e-01   8.1185128e-01   6.0996292e-01  -6.6470310e-02   3.6934677e-01   7.0231788e-01   7.5749839e-01   7.8793014e-01   3.9978208e-01  -7.0569461e-02   5.6122332e-01   2.6260379e-01  -7.7466940e-01  -6.4129914e-01   4.0118516e-01   3.8659285e-01  -4.6750006e-01  -4.2879140e-01   5.0240530e-01   7.2923523e-01  -4.5105026e-02   3.3511176e-01  -7.9958300e-01  -1.2156300e-01  -2.2984942e-02  -3.7875503e-01   1.9622946e-01  -7.4882116e-02  -7.3356131e-01   8.5502487e-01   9.1320139e-01   8.8257470e-01   5.6932826e-01  -4.5952404e-01  -2.9673416e-01  -6.6313491e-01  -2.4192928e-01   6.9792572e-02  -2.9049795e-01  -9.4446051e-01  -2.5843653e-01  -1.2170554e-01   6.9958771e-01  -7.7595083e-01  -3.4405053e-01   3.3084630e-01  -6.2106469e-01   6.2052779e-01   7.5407235e-02   2.9763136e-01  -3.6761735e-01   1.7673226e-01  -5.5016479e-01   1.3258425e-01  -4.5708735e-01   2.2133702e-01   3.5518218e-01  -2.2416344e-01   3.9834421e-01  -2.6910603e-01  -5.8373305e-01   7.3093974e-01   8.5606968e-01   5.5920398e-01   5.2701239e-01   8.8785039e-01  -8.7401921e-01
  -9.7162897e-02  -3.0712046e-01  -4.6305228e-01  -8.2627994e-01   2.2732328e-01  -6.1109857e-01   6.7556060e-01   7.0040960e-01   1.9391529e-01  -6.3173165e-01  -8.8020556e-01   1.9647796e-01  -3.9784602e-02   4.7045489e-01  -6.8479361e-01  -2.5780963e-01  -3.8920716e-01   4.8156562e-01   1.8965229e-01   8.2344829e-01   3.9768970e-01  -7.7809288e-01   8.4993015e-01  -5.2900217e-01   6.0133544e-01  -8.5152805e-01   6.5966388e-01  -9.2571588e-01  -9.6636386e-01   1.3953527e-01   3.8600741e-01  -8.3711475e-01   5.6051923e-01   1.1974319e-01  -5.3908785e-01  -5.6732411e-02  -2.8931609e-01   1.4564857e-01  -9.4200280e-01  -1.4034811e-01  -9.7372399e-02   2.6454592e-01  -9.8427874e-01   4.2721090e-01  -9.6822068e-01  -7.2814566e-02   5.8469743e-03   4.0975283e-01   6.8924781e-01  -5.7185219e-02   1.7322500e-01   3.6488860e-01   5.7868131e-03   3.9767107e-02   6.1444579e-01  -4.8365342e-01   9.3009393e-01   7.9902282e-01   7.8308466e-01  -8.8772000e-01   2.8832091e-01   2.2585853e-01  -2.7721458e-01   2.4424548e-01  -5.5192216e-01   7.4465709e-01   1.8315249e-01  -6.1484605e-01  -4.3215653e-01   5.7375408e-01   2.5099986e-02  -5.4896663e-01  -6.0319039e-01  -9.9587003e-01   7.5999668e-01   1.2136840e-02  -3.3448365e-01   8.5555698e-01   9.2301767e-01   7.7094728e-01   3.2258130e-01   4.9151031e-01   9.7714539e-01  -5.8983259e-01   6.0027818e-01   4.3329498e-01   3.9175827e-01  -6.3127597e-01  -6.6634552e-01  -7.7114863e-01  -9.5762504e-02   2.9669495e-01  -4.5758200e-01  -6.7147516e-01   2.3557023e-01  -4.6304353e-01  -1.3760188e-01   2.1759449e-01   1.5008295e-01  -5.2375355e-01   7.4293845e-01   6.5505384e-01  -2.9327182e-01   7.4288272e-01  -3.9684182e-01   8.5530078e-01   8.9874192e-01  -6.2161872e-02   9.4210703e-01   8.5415595e-01  -6.9452272e-01   9.8862600e-01   3.4548030e-01   3.0197171e-01   5.0618192e-01  -5.3772113e-01   9.6510462e-01  -2.3924234e-01  -1.6285854e-02   8.5502930e-01  -3.0927180e-01   3.9913342e-01   5.5089535e-01   6.5848418e-01  -5.9292952e-01   4.2718298e-01  -2.2211877e-01   1.4834552e-01  -8.6741723e-01  -8.8273543e-01  -3.2543552e-03   5.1412638e-01  -9.7308777e-01   3.5952148e-01  -9.9287082e-01   9.5416742e-01  -8.9297936e-01   9.5056382e-01  -5.9913251e-01  -5.3291448e-01   4.2300123e-01  -4.7536251e-01  -5.4887619e-01   5.9142566e-02  -6.3368618e-02  -9.8122124e-01  -1.1788019e-01   3.7626434e-01   5.1254144e-01   9.0697838e-01  -4.7396439e-01  -6.7317553e-01   8.9386866e-01  -5.9112260e-01  -2.9760399e-01  -1.0216645e-01   9.6378964e-01  -3.5050586e-01  -1.2448840e-01   2.3907898e-01   1.9282229e-01   7.4836500e-01   6.4116941e-01   6.0483359e-02   8.7202605e-01  -8.5247158e-01   1.4592376e-01  -2.5697158e-01   6.2905997e-01  -3.6632732e-01   8.9060034e-01   3.1440944e-01  -3.8363857e-01   4.5397536e-01  -8.7682884e-01  -5.9654995e-01   9.9252232e-02  -4.0547840e-01   7.8511935e-02  -1.6568150e-01  -2.1156953e-01  -5.4514555e-01   1.1433788e-01   1.8393247e-01  -3.6317629e-04   8.2557041e-01  -6.4567206e-01   8.9237549e-01   2.9354678e-01  -6.6404506e-01  -9.0730306e-01  -6.8333793e-01   2.2996491e-01  -4.2306895e-01   9.2231454e-01   9.8515897e-01  -2.6984760e-01  -7.7692461e-01   4.5441303e-01  -8.2984960e-01  -4.2203711e-01   8.5086336e-01  -8.2279066e-01  -2.8667062e-01  -5.3584213e-02   3.5985143e-01  -4.6937916e-02   6.7660303e-01   2.2196914e-02   2.9341930e-01  -9.8553325e-01  -6.2220764e-01  -4.7318454e-01  -7.5685802e-02   2.3547483e-01   3.4826503e-01  -3.0959076e-01   8.4609350e-01   7.0761836e-01  -1.9105310e-01   2.1233706e-01   6.7764913e-01  -5.4223291e-01  -6.1411715e-01  -8.5648409e-01  -9.2801028e-01   2.4340379e-02  -9.4107826e-01  -4.4626011e-02  -1.6304103e-01  -8.7558409e-01  -2.2633480e-02  -9.2169312e-01   9.5151059e-01  -3.6435743e-01  -5.3718345e-01   1.7137407e-01   1.1419387e-01  -4.6192268e-01  -7.0825412e-01  -8.9831735e-01   2.5337680e-01   3.1596640e-01  -5.5519347e-01   8.6965976e-01   5.6379611e-01  -4.9287089e-01   2.2770054e-01   2.9233578e-01  -5.0293249e-01  -2.9623393e-02  -4.9350028e-01   8.2953569e-01   6.3513885e-01   4.0216281e-01  -4.2354508e-01   8.6174752e-01   6.3136236e-01  -8.5583426e-01  -6.3928195e-01   5.2541825e-01  -4.1007572e-01  -2.6635061e-01  -5.5041251e-01   4.9999658e-01   1.7957826e-01  -9.0795570e-01  -5.5110504e-01  -3.8812994e-01   1.0211461e-01  -9.9288097e-01  -2.8269138e-01   2.2896437e-01  -2.5274731e-01  -4.1489207e-01   8.1196030e-01   5.0303244e-01   8.0064662e-01   6.7924887e-01   1.5897176e-01  -8.4180222e-01   3.3456072e-01  -8.2707185e-01   9.8343926e-01   5.6353843e-01  -6.2068540e-01  -1.4283049e-02   6.2889626e-01   9.2213705e-01  -6.7822977e-01  -1.0861504e-01   8.3530238e-01   8.4825470e-01   6.3119082e-01  -2.8518043e-01  -2.4401435e-01   7.6083808e-01  -6.9205797e-01  -8.3045178e-01   4.0096527e-01  -8.1249763e-01   5.9459276e-02  -2.1010364e-01   2.5483492e-01  -5.3546558e-01   4.7133167e-01   2.3434975e-01   7.6439996e-01   9.1087358e-01   6.8955237e-01   4.5093112e-01   7.2705017e-01  -3.9415939e-02  -4.7288115e-01  -7.6282384e-01  -2.4575204e-01   2.6091480e-01   4.0711222e-01  -8.7838717e-01   6.9816418e-01  -6.8069501e-01   8.4771808e-01   1.3724811e-01  -3.1845399e-02  -7.2815615e-01   3.8946764e-02   2.1847124e-01  -5.9902497e-01   8.2949003e-01   5.5652242e-01  -6.8514036e-01   6.6628145e-01  -4.5121406e-01  -1.9873541e-01   5.6462442e-01   3.7113673e-01   4.4310048e-01   7.8978110e-01   8.2543728e-01   4.0469669e-04  -9.2479269e-01   5.8842313e-01   9.0853816e-02   1.1380990e-01   6.8042689e-01   7.8868261e-01   6.1518850e-01  -3.7713838e-01   1.3549792e-01  -8.7365281e-01  -4.3026973e-01  -9.7038532e-01   2.3161147e-01   1.6881830e-01   3.5174924e-01  -5.3059608e-01   9.7539474e-01   4.8619835e-01  -9.9265371e-01   5.7499976e-01   1.2488033e-01   2.6253368e-01  -2.8293954e-01  -7.9559936e-01  -3.6573767e-02  -7.9631948e-01   2.8127661e-01   6.1721172e-01  -9.0664981e-02   2.0349163e-01  -7.7621788e-01  -8.4617719e-01  -5.3645071e-01  -9.5613498e-01   1.4094546e-01   7.6034459e-01  -3.3629738e-02  -4.6719479e-01  -8.6496243e-01   5.6515544e-01   6.3910937e-01  -3.1561399e-02  -8.1681122e-01   4.1074045e-01  -1.3869935e-01   9.7376855e-01   9.6579565e-01   4.3260733e-01   3.1391009e-01  -9.7945430e-01  -3.8606467e-01  -4.6332113e-01  -8.0435081e-01  -5.3868963e-02  -6.5629042e-01  -6.9472260e-01  -3.7631415e-01  -4.5921216e-01  -8.7522034e-01   2.0038401e-02  -4.7170781e-01  -5.7826087e-01  -1.0043875e-01  -3.8934397e-01   9.1151795e-01  -8.0756911e-02  -3.8657377e-01  -1.5048198e-01  -5.0134031e-01   2.0946182e-01   2.6999100e-01   8.5645491e-01   7.6018149e-01  -1.8519190e-01   1.4560249e-01  -1.8672788e-01  -4.6146932e-01  -3.8941656e-01   6.2097897e-02   1.8125557e-01  -5.6264528e-01  -1.6098685e-01  -6.0727327e-01   6.5368298e-01  -9.7611890e-01   9.1354520e-01   8.9391882e-01   1.5915597e-01  -5.6461906e-01   8.1528666e-01  -1.6560320e-01   1.5447767e-01  -4.4872688e-01   5.4360634e-01  -3.9984396e-01  -7.0947667e-02  -5.1637786e-01   6.2542579e-01   2.0051194e-01  -7.5278424e-01  -4.3550029e-01  -1.6017901e-01   2.5770430e-01  -8.0278576e-01   1.0079749e-01   8.0831418e-01   6.8803186e-02  -1.1231332e-01  -4.1339578e-01   7.5573820e-01  -5.1323544e-01  -6.6551635e-01  -3.1349218e-01   7.4195462e-02  -7.2966614e-02  -2.0905186e-01   2.7505881e-01   8.9696498e-02   8.7642678e-01  -2.2956965e-01   3.3656855e-01  -6.4524905e-01   4.9150633e-01   1.6216753e-01   5.6078594e-01  -5.9475770e-02  -4.9826312e-01  -5.6673657e-01   6.8896800e-01   4.6749353e-01  -3.9491018e-01  -7.6321609e-01   7.3814786e-01   7.5261307e-01  -8.1502245e-02  -5.2183702e-02  -4.8066619e-01  -5.1888837e-01   5.1250375e-01   1.0767636e-01  -1.1077051e-02  -8.1442440e-01   2.1171437e-03  -7.3924877e-01  -1.7945324e-01  -3.2451592e-01  -4.1422687e-01   3.2711528e-01   5.4868808e-01   4.8496242e-01  -1.4560062e-02   6.7976818e-01   6.5018481e-01   6.6691982e-01   9.1649683e-01  -4.9846112e-01   1.0403211e-01  -9.9601948e-01  -5.6539420e-01  -3.1336178e-01   6.7460350e-02   5.1496087e-01   2.6820122e-01   3.4178167e-01  -7.3589069e-01  -5.8161090e-01  -8.6313889e-01   1.6633920e-01  -3.9038854e-01  -9.6364649e-01  -8.7257604e-01   4.2774451e-01  -4.0988105e-01  -6.1823422e-01  -1.5716838e-01   3.5562545e-01  -8.3997180e-01  -3.9155519e-02  -6.3893604e-01   4.7337128e-01   3.6401551e-01   9.0075556e-01   8.1572205e-01  -9.0549380e-01  -4.9324627e-02   1.9301997e-01  -4.9772968e-01  -3.2552354e-01   2.8009948e-01   7.5541361e-01   5.9117988e-01   9.2393366e-01  -1.1725164e-01   8.9496848e-01   8.7361690e-01  -2.6272363e-01  -2.5523971e-01   2.9436204e-01   1.4751746e-01   7.1069496e-01   1.7078752e-01   4.4247612e-01   7.6054489e-01   2.5596082e-01   6.1525802e-01   8.7868202e-01  -6.3387333e-01   8.7498982e-01   7.6008661e-01  -3.9646355e-01   9.6781541e-01  -2.7611921e-01   6.8065014e-01  -6.9247576e-01   1.9563090e-02   1.7581274e-01  -4.1104519e-01  -9.8615642e-02   3.5187452e-01   7.7420144e-01  -6.6873213e-01   4.0033295e-01  -2.0757559e-01  -5.5693302e-01   8.6866530e-01   5.8729226e-01  -9.4580998e-03   1.2340140e-01  -5.6434736e-01  -7.6815737e-01   6.3767110e-01   4.9050249e-01  -1.8299929e-01   7.2789280e-02   4.3466043e-01   3.2246400e-01  -6.3852168e-01   2.2370312e-01  -5.3431210e-01   2.8947601e-02  -2.3290790e-01   1.1556921e-01  -8.2982977e-01   6.2261531e-02   2.7486732e-01  -5.9116296e-01  -6.2100839e-01   2.7269148e-01  -7.1598528e-01  -8.3353500e-01  -6.6656994e-01   9.4556557e-01   3.2338769e-01  -6.8610756e-01  -3.7745640e-01  -5.2285268e-01   3.7469841e-01   3.3689884e-01   6.9656206e-01  -3.4577223e-01  -2.8262844e-02   2.9362227e-01   5.5384293e-01  -9.3195542e-02  -9.0583675e-01   4.2825785e-01  -8.7943844e-01  -1.8997214e-01  -9.9568448e-01   5.9628342e-01   7.2650656e-01   2.2529110e-01   9.6839181e-01   7.2534450e-01   4.3703768e-01  -7.3973578e-01   4.6676550e-01   2.8574943e-01   2.4063290e-01  -9.5284759e-01   1.4156100e-01  -5.1376600e-01   5.6806773e-01  -8.9828225e-01  -6.7302836e-01   8.0485335e-02   3.8416134e-03  -6.5221229e-01   1.6260940e-01   2.4462491e-01   6.1975245e-01  -2.1587990e-01  -7.2316371e-01  -7.5218872e-01  -5.6932302e-01   9.0902698e-01  -5.3643079e-01  -5.6065618e-01   9.2977774e-01   6.5062877e-01   3.9823709e-01  -7.2306292e-01  -3.0058790e-01  -8.6355172e-01   1.5527677e-01   4.2563825e-01   4.1518094e-01   5.6683563e-01   8.0830237e-01  -5.0873174e-01  -1.2679432e-01  -3.2963587e-01   6.0090400e-01   2.5280846e-01  -4.0494420e-01  -3.9919929e-01  -2.0776031e-01   8.8789112e-01   9.6758803e-01  -1.0906317e-01  -3.4417983e-01  -1.3464278e-01  -2.2128593e-01  -3.4849101e-01  -9.4151106e-01   7.7503189e-01   6.8847337e-01  -1.5416487e-01   1.4656248e-01   9.9615400e-01   2.9500515e-01  -6.6146626e-01  -8.5855717e-01  -2.9515650e-02  -5.5311713e-01   8.6518507e-01  -7.9338873e-01   8.5442877e-01   2.1433565e-01  -3.7849715e-01  -6.0349132e-01  -5.7113291e-01  -1.6346353e-01  -8.0649835e-01  -4.5390658e-01   6.7401633e-01   2.4624041e-01  -6.7462883e-01   8.6017932e-01  -8.3824748e-01  -3.2667944e-01  -8.6509272e-01  -7.5695401e-01   9.2443139e-01   4.4271765e-01  -3.3433010e-01  -9.1984929e-01   4.8978179e-01   5.3768108e-02   1.2642873e-01   7.0662429e-01   4.0185487e-01   6.2195816e-01  -5.6753999e-01  -9.7742351e-01  -8.7979860e-01   6.7284711e-01   5.5271702e-01   1.3624816e-01  -5.9101732e-01   8.5996817e-01   1.9390827e-01  -1.5682420e-01   7.8082625e-01  -9.4106418e-01   7.1247040e-01  -8.0518107e-01  -3.0076099e-01  -6.4666516e-01  -9.2368731e-01   7.1364238e-01   1.7977862e-01  -4.9331625e-01   3.1098390e-01  -8.9401306e-01   7.2898357e-02   4.8595123e-01   9.1476282e-03  -3.4308674e-01   6.0898844e-01   4.4767915e-01   3.0731541e-01  -2.3522468e-01   8.2565203e-01  -1.8197647e-01  -2.6811453e-01  -6.9108920e-01   4.1951643e-01   5.6803842e-01  -2.0568998e-01  -8.6717556e-01  -3.7059211e-01   3.9727218e-01  -3.1233031e-01   8.0504677e-01  -4.2457889e-01   5.4817929e-01  -4.0591061e-01   1.6620551e-01  -7.0500174e-02   5.4116787e-01  -7.4950410e-01  -4.1425726e-01   8.8568976e-01   4.0606212e-03   8.8500564e-02   5.3489699e-02  -6.4933655e-01   4.5085214e-01  -2.6708074e-01  -8.7463726e-01   3.2806421e-01   5.9534747e-01   9.7925924e-01  -9.0461316e-01  -2.6546150e-01   4.9869415e-01   9.6025192e-01   7.7073405e-01   7.8404649e-02  -7.0642843e-01   7.2137730e-01  -2.2769112e-01  -6.6397071e-01   8.4010498e-01  -4.9453286e-01   9.3587826e-02   6.5230562e-01   5.0494919e-01   7.7334518e-01  -4.4862746e-01   7.7148850e-01  -4.2276238e-01  -1.7736176e-01   4.9933458e-01  -6.1851916e-01   7.1490588e-01  -2.9405142e-01   9.1932411e-01   3.3281766e-01  -1.2041957e-01  -5.8954900e-01  -9.9720347e-01   4.8610317e-03  -9.4370604e-01   9.3091564e-01   8.2326926e-01  -8.2612614e-01  -9.4138410e-01  -6.5338516e-01  -5.5221448e-01   9.8318903e-01   2.4353081e-01  -6.7518395e-01   8.3011629e-01  -5.1958271e-01  -6.4345468e-01   7.1847127e-01   6.0228594e-01  -2.0996898e-01   8.6629641e-02  -1.3309742e-02   2.6896597e-01  -7.3840316e-01   9.3527875e-01   8.3429122e-01   3.4080223e-01   9.1850286e-01   3.0357959e-02  -3.6014270e-02   3.0600594e-01  -9.8794617e-01   1.9917617e-01   9.3416619e-01   1.5788826e-01   9.5553996e-01   2.0433919e-03  -2.1190345e-01  -6.2563365e-01   1.9506021e-01   2.5008938e-01   2.9081372e-01  -1.2233296e-01  -3.5528309e-01   8.5466132e-01   7.1210326e-01   5.5213206e-01   4.3894227e-01  -6.5716649e-01  -5.4161802e-01   3.7555196e-01  -6.1261068e-01  -2.7263572e-01  -6.8923066e-01  -2.7635493e-01   3.6504590e-01  -2.3101850e-01  -7.8830655e-01   9.2887040e-01   6.4703573e-01   2.1963592e-01   7.2622195e-01   7.0381086e-01  -8.1688712e-01   3.2302721e-03   2.0549332e-01   5.1372664e-01  -8.9245192e-01  -7.5268214e-01  -2.9794536e-01   7.8110338e-01   9.4954823e-01  -2.3483576e-01   1.6245496e-01   5.1262866e-01  -8.3896505e-01   2.7469994e-02  -3.8914779e-01  -1.5603332e-01  -7.7021941e-01   8.1937878e-01  -6.0925063e-01   3.9738479e-01  -1.9750676e-01  -9.9915324e-01   8.0474122e-01   4.7560779e-01   6.4197220e-01  -5.5866604e-01  -7.3070736e-01  -5.9737795e-01   1.4850212e-01  -9.6139216e-01   8.0529796e-01   3.7701519e-01   1.8157115e-01  -2.4580498e-01   9.2932123e-01  -1.7189873e-01   2.0864292e-01  -4.3288453e-01   4.1411192e-02  -2.9753383e-01   6.6856267e-01  -9.7637850e-01   4.8368637e-01   8.3802531e-01  -1.0673367e-01   4.5767141e-01   7.3126994e-01  -7.9258216e-01  -5.5947992e-01  -6.3219498e-01   9.9845007e-01   4.2362282e-02   5.2833949e-01   2.1137978e-01   6.7822387e-01   6.1992431e-01   9.3719070e-01  -2.2437850e-01   2.7105065e-01   9.3238437e-01   2.2086668e-01  -4.1353720e-01  -4.9758570e-01  -3.2048502e-01   2.8480034e-03   2.5608076e-01   2.7741601e-01   1.0027817e-01   6.1555079e-01   3.6650479e-01   5.1891189e-01   1.3190377e-01  -2.8434146e-01  -8.1705453e-01   1.9466111e-01   3.3743430e-01  -3.6211582e-01   7.2699417e-02  -4.0677092e-01  -7.9220245e-01   2.2691160e-01  -7.7866292e-01   3.6251995e-01  -9.1850501e-01  -3.4403195e-01   5.4522223e-02   9.5952506e-01   8.3675086e-01  -5.9280591e-01   6.2541871e-01   6.9086797e-01   9.6748943e-01   9.1194127e-01   6.8547753e-01  -6.7355542e-01   9.8453274e-01  -5.9130743e-01  -8.6469875e-01  -9.7553381e-01   2.6394253e-01  -4.7621185e-01  -1.7520762e-01  -3.6659978e-01  -6.8066264e-01  -5.5255362e-01  -4.9798942e-01   2.8510977e-01   7.6100144e-01   9.2600149e-01  -9.7932768e-01  -4.6872744e-01   1.4699716e-03  -7.7123362e-01   6.0859486e-01   5.0144685e-01  -4.6201845e-01  -2.3509354e-01  -6.6976205e-01  -5.0970577e-02  -9.7864894e-01  -9.5362653e-01  -9.4980679e-01   1.0823419e-01   2.3517699e-01   3.9337107e-01  -1.8948952e-01  -7.0188236e-01  -4.2176176e-02   8.6664698e-01  -1.7226472e-01  -7.5891359e-01  -5.1101764e-01  -2.7476811e-01  -9.9258363e-02   1.8126978e-01  -6.6124570e-01   1.4131914e-01   7.3400102e-01   5.7729529e-01  -7.7498898e-01  -7.0773095e-01   1.2839190e-01   4.6143359e-01  -3.7281069e-01  -2.1397799e-01   5.5815295e-01   6.1291666e-01
  -7.8205578e-01  -2.9823257e-01  -7.1315003e-01  -4.4946537e-01  -1.4024450e-01  -2.4629152e-01  -7.5864169e-01   8.8406374e-01  -1.3799579e-01  -7.1754414e-01  -4.3244583e-01  -4.7300859e-01  -1.3193874e-01   4.0746526e-01   3.8381067e-01   2.6716802e-01  -1.6185641e-01  -9.4147406e-01  -8.0555985e-01  -5.8161698e-01   5.3066403e-02  -3.3601339e-01  -3.3865219e-02   1.7016952e-01   8.3772501e-01   4.2743881e-01   9.1487627e-01   6.3525910e-01  -2.6413213e-01   2.3004542e-01   9.1097597e-01  -6.0082991e-01  -3.6201779e-01  -4.3617800e-01  -4.4614501e-01   8.5457218e-01   4.5562221e-01  -2.5013933e-01  -6.8901824e-02   5.2410118e-01  -2.8413075e-01  -7.3203059e-01   6.0625222e-02  -9.6602782e-01  -6.5438107e-01   3.2260021e-01  -7.5651154e-01  -1.4315766e-01   2.2573820e-01  -5.7774031e-01   6.3937052e-01   1.4417173e-03   1.0908540e-02  -4.0818822e-01   6.0828921e-01  -1.5141588e-01  -4.6911365e-01  -4.4963039e-01   5.8908094e-01   6.6966405e-01  -1.8839131e-01  -3.1046890e-01  -3.4341846e-01  -5.3134972e-01   3.2852607e-01   1.5051297e-01  -1.7501317e-01   4.8103357e-01  -2.5987296e-01  -1.5012736e-01   2.1615625e-02   8.3840647e-01   3.3634336e-01  -2.4051424e-01   3.7882173e-01  -3.1596949e-01   5.9915134e-01   6.5960155e-01  -2.5379361e-01   8.0206101e-01  -3.8931151e-01  -5.7582597e-02  -5.9360811e-01  -5.1681617e-01   1.2352162e-01   5.8208909e-01  -2.4434235e-01   6.8333861e-01   2.9860241e-01  -5.3353606e-01   4.6912760e-01   8.0000401e-01   5.9169816e-01  -1.3781409e-01  -7.3188414e-01  -1.5278500e-01  -8.3279441e-01   9.1217623e-02  -6.1060734e-01  -6.6213716e-01  -6.6119898e-01  -1.0152042e-01  -4.1898082e-02  -6.9778806e-01   3.3494297e-01   4.9232554e-01  -1.2094672e-01   6.3323351e-01   5.0126913e-01   7.4572200e-01  -5.1864900e-01  -6.6057083e-01  -5.0484206e-01  -8.4768181e-01  -2.4768499e-01   1.7470959e-01  -4.7006075e-01  -2.0149271e-01   7.0700109e-01  -2.8565877e-01   1.5055791e-01   6.1724257e-01   4.6277777e-01   5.4564724e-01  -9.8061484e-01  -8.5215778e-01  -8.4162069e-01  -3.3846945e-01  -9.2985724e-01   3.9227842e-01   9.0762831e-01   8.2090957e-01  -5.6733186e-02   7.3265139e-01   3.2200545e-01   5.9210359e-01  -9.5718932e-01  -7.4786100e-01   2.3364790e-01  -1.5577028e-02  -9.9051738e-01  -9.6987121e-01   8.4440833e-01  -8.4081296e-01  -7.8553672e-01   2.0180383e-02  -8.1482601e-01   8.2911911e-01  -4.6256275e-01   1.2548509e-02  -8.1110853e-01   4.3651835e-01   1.5586457e-01   6.6380079e-01  -5.3565833e-01  -3.1624881e-01   5.1786299e-01  -7.1365132e-01  -2.5013886e-01  -6.6469781e-01   1.1249907e-01   6.9052724e-01   7.4657624e-01  -2.3304103e-01   6.7733601e-02   8.9844149e-01  -4.8284428e-01  -3.3526094e-01  -9.0240923e-01  -5.2296088e-01   2.6898606e-01  -3.6551444e-02   1.4024343e-01  -8.2402168e-01  -9.2184455e-01   9.0304344e-01  -5.9473745e-01  -8.2383200e-01   8.2175052e-01   4.5146407e-01   8.9226848e-01  -1.0772595e-01   6.1022811e-01   6.1823046e-01   8.1965281e-01  -4.3628346e-01  -2.6804871e-01  -4.2028686e-01  -7.9219426e-01  -8.6791567e-01  -8.0546634e-01  -7.7582167e-01  -3.2636687e-01  -7.3323060e-01  -7.3429755e-01  -6.4841046e-01  -1.9707269e-01  -4.5110689e-01  -4.5866648e-01  -3.8411089e-01   8.4619971e-01  -6.7359945e-01   8.9570684e-01  -2.9190437e-01  -4.5490929e-01  -4.2177405e-01  -1.9277305e-01   2.0984216e-01  -6.8076310e-01   5.5873346e-01   6.5393714e-01  -9.7613344e-01  -8.6918436e-02  -2.6954880e-01   4.7735667e-01   1.0020345e-01  -3.2032307e-01   9.4472714e-01  -4.3146201e-01  -2.4676996e-01   2.1787150e-01   3.7827336e-01  -3.9906855e-01   7.8685362e-02   4.2817544e-01   6.2436295e-01  -1.3507672e-01  -6.8829065e-01  -8.7376628e-01   5.1668268e-02  -6.3146472e-01  -9.3292454e-01  -5.5879699e-01   8.5782624e-01  -3.5091896e-01   3.9125240e-01  -2.8130718e-01  -3.2564507e-01  -4.3716766e-02  -1.0843136e-01  -1.4068756e-01  -5.0498885e-02   2.1178742e-01   8.3033861e-01   3.5164317e-02  -9.2975605e-01   1.6118983e-01  -3.0203620e-01  -8.0510870e-01  -9.2038773e-01  -2.8512108e-02  -7.6838890e-01  -7.0788020e-01   4.1807010e-01  -9.8710821e-01   5.1498957e-01  -4.4852436e-01   2.3396392e-01  -6.9104307e-01   1.8896755e-01  -3.4154306e-01   9.7968804e-02   4.3504323e-01   8.7012639e-01  -5.8133779e-01  -6.0922132e-02   8.3241800e-01  -1.8875890e-01  -6.8846433e-02  -1.1127267e-01   7.5109123e-02   7.6524665e-01   8.4638131e-01  -8.0581525e-01   2.9863494e-01   6.5259963e-02  -3.6131684e-01  -9.0778156e-01  -8.9978421e-01   1.3925700e-02   1.1073916e-01   6.2524529e-01   5.1278710e-01   4.3993738e-01  -8.2490681e-01   5.8934968e-01   4.0755407e-01   7.0754595e-01  -6.6702454e-01  -9.7389248e-02   4.5821930e-01  -6.7604547e-01   6.0882657e-01   2.5203576e-01   5.0685586e-01  -4.5020689e-01  -8.2513211e-01  -4.1869969e-03   3.5714623e-01  -9.0126159e-01   5.3421587e-01   5.1492352e-01  -6.9383942e-01   3.7418167e-02  -3.9640874e-01   7.2303684e-01   6.1005497e-01  -2.3993766e-02   7.9643694e-01   9.3887164e-01  -8.8340817e-02   2.8657355e-01   3.5460210e-01   7.5139517e-01   2.1435737e-01   8.9564259e-01  -3.7548112e-01  -6.6940345e-01  -5.9906560e-01  -8.8109540e-01  -9.9429873e-01   7.5453976e-01   5.5114097e-01   7.5677769e-01  -2.2509908e-01   3.9549478e-01  -6.5952617e-01  -1.8113161e-01   1.9212293e-01  -2.8343614e-01  -5.1174965e-02  -4.6537783e-01   5.4278999e-02  -4.4415507e-01  -4.4934984e-01  -2.1535205e-01  -4.4733715e-01   3.8474752e-01   3.8760202e-01  -9.7773967e-01  -2.6381574e-01   7.4997565e-01   3.6426634e-01   8.8343997e-01  -7.8411680e-01  -7.9641935e-01  -4.2077075e-01   6.7645936e-01  -7.4237976e-01  -1.1301758e-01   3.5582354e-01  -1.1038211e-01   5.4001053e-01  -1.2818932e-01  -6.2496589e-01   9.2429306e-01   3.5562892e-01   4.1402681e-01   1.8559008e-01   3.4723114e-01  -1.7891509e-02  -8.2812925e-02  -5.7310834e-01  -8.8842487e-01   3.9331195e-01  -1.6027233e-01  -4.9323884e-01   1.3169584e-01   4.4913007e-01   4.7256244e-01  -6.0682267e-01  -9.1274937e-01   1.4244204e-01   8.5149352e-02   7.9742694e-01  -8.3745922e-01  -1.4464438e-01   1.2004883e-01   9.9052285e-01  -8.1188632e-01  -5.7673655e-01  -7.0476067e-01  -3.5385176e-01   1.3595951e-01  -6.1175006e-01   2.5496814e-01  -1.0167618e-01   8.3284587e-01  -1.0623706e-01   2.6288608e-01   3.0307045e-01   4.5625018e-01   3.4354499e-01  -7.8896150e-01  -6.0268152e-01   4.0608813e-01   8.4580444e-01  -2.0834907e-01   8.4127359e-01  -7.9913212e-01  -9.2585150e-01  -4.6573785e-01  -3.8771995e-01  -3.5443503e-01  -3.0962511e-01   1.5885525e-02   4.2334667e-01   3.4935424e-01   2.4897576e-01  -2.4212756e-01  -8.4228225e-01   9.5950337e-01   4.3506468e-01  -6.7366409e-01  -4.9339027e-01   3.4371847e-01  -7.1749463e-01  -5.6822329e-01  -5.5023246e-01   3.9886478e-01  -1.5120028e-01  -1.2087974e-01  -2.9007891e-01   1.6052501e-01   2.0332059e-01   5.5570738e-01  -4.5151046e-01   6.9991017e-01   8.2840790e-01  -4.6071794e-01  -6.1889910e-01   5.7695666e-02  -5.1924507e-01   6.0045045e-01  -8.1401234e-01   7.1012050e-01   6.9996907e-01  -7.1483896e-02   3.1372339e-01   6.0759138e-01   1.2958218e-01  -9.2821124e-01   9.9292334e-01  -6.8135864e-01  -1.5511077e-01   6.0377932e-01   2.9523374e-01   2.3073834e-01  -6.4979620e-02   9.9864836e-01   6.4517571e-01  -9.6978781e-02  -6.3887092e-01   6.2193850e-01   5.6584889e-01  -2.4748448e-01  -7.7782208e-01  -6.9214035e-01  -8.3705307e-01  -4.5995542e-01  -8.4789591e-01   8.3677690e-01   8.7223373e-01  -6.8655225e-01   5.2824457e-01  -5.1059203e-01   2.7475163e-01  -3.2252027e-01  -6.4493794e-01  -9.9182171e-01  -5.8249224e-01  -7.0331319e-01   2.4829074e-01  -9.0506924e-01  -8.6671110e-01  -1.5907476e-02   6.2603886e-01  -7.3222594e-01   7.5080334e-01  -7.9793255e-01  -9.3375799e-01   2.5865386e-01   8.8348147e-01  -8.2436132e-01  -8.4938981e-01   5.3531683e-01   4.5207874e-01   3.3912246e-01  -1.0949452e-01   4.0732613e-01  -2.7677470e-01   5.7061747e-01   2.4869614e-01  -8.0165677e-01   4.5921531e-01  -3.1043151e-01   8.1041478e-01   9.0339519e-01   6.3614151e-01  -4.7119422e-01  -9.5072552e-01   6.0292817e-01  -5.8428738e-01  -7.5048291e-01   7.1116673e-02  -5.3707912e-01   9.1330675e-01  -2.0610049e-01  -2.0327815e-01  -9.3135883e-01  -2.2112074e-03   9.0309104e-01  -7.2893319e-01  -2.9309959e-01   4.5027719e-01   6.3598460e-01   5.2368000e-01  -3.2696229e-01   6.6770775e-01   1.7103254e-01  -7.7156746e-01   4.7048661e-01   3.7853046e-01  -3.1567447e-01   6.9339892e-01   1.9529054e-01   2.0408459e-01   9.7398143e-01  -6.7742886e-01  -8.6862469e-01  -6.6130895e-01   9.7675466e-01  -8.9830050e-01  -2.5812518e-01  -7.0036711e-01  -9.9048884e-02  -1.5786569e-01   8.0052761e-01   8.7279281e-01   9.0843720e-01   8.9317848e-01  -7.4367156e-01  -2.3636983e-01   5.2561990e-01  -8.7024667e-02   5.1796803e-01  -6.7095112e-01   3.3323215e-01  -7.1778678e-01  -6.6221798e-01  -1.6334145e-01   8.8750538e-01   8.9345053e-01  -6.1901708e-01  -3.2673606e-01   1.8700969e-01   1.2036298e-01  -6.9715793e-01   3.7465356e-01   4.2706875e-01   7.1341178e-02  -2.3994190e-01  -7.6735884e-01  -6.2927835e-01  -4.7170951e-01  -8.0332177e-01   2.8560428e-01   2.9476545e-01  -2.4338038e-01   4.4549470e-01  -2.2799819e-01  -4.7071839e-01  -1.7938521e-01   3.5777985e-01  -8.3690125e-01  -4.7776448e-02   8.1550846e-01  -4.1304075e-01   3.0649195e-01   9.1946480e-01  -6.2739516e-02   1.7772471e-01  -7.9414528e-01  -8.6269872e-01   7.8732582e-01  -7.0179850e-01   1.1637601e-01   1.2729633e-01   7.8695719e-02  -4.4001585e-02  -8.5828694e-01  -6.8288963e-01  -5.2957748e-01   4.8014445e-02  -3.2057534e-01  -7.4055218e-01  -6.9752386e-01   9.2315275e-02  -6.2075394e-01  -7.1584253e-01  -4.9445624e-02   9.4513731e-01   2.7895098e-01  -6.7452262e-01  -1.3808350e-02  -9.2852978e-01  -8.5352747e-02   6.1947100e-01   4.4783433e-01  -7.6371580e-01   1.6244565e-01  -1.1103790e-01  -8.3192946e-01   1.8688945e-01  -8.8163654e-01  -1.4685745e-01   5.8605292e-01   3.1313373e-01  -1.6865313e-01   9.7672929e-01   4.9042226e-01   1.1992664e-01   3.3090032e-01   1.4560809e-01   8.4737069e-01  -2.4977791e-01  -7.3189915e-01   6.3023924e-01   5.8813352e-01   6.0279066e-01  -4.7127881e-01   9.3909799e-01   9.1723678e-01   1.7826541e-01  -3.7380251e-01  -8.2720926e-01   9.0941253e-01  -8.1570221e-01  -1.7253858e-01   8.3920337e-01   8.1284658e-01   4.1379355e-01   3.8632280e-01  -4.6945600e-01   6.9341538e-01   1.2955166e-01   6.2193382e-01   1.1875951e-01  -9.9607373e-01   8.0421386e-01  -9.5983664e-01  -7.9469645e-01  -2.0363625e-01  -5.3052952e-01  -8.6584053e-01  -6.3618662e-01   2.6958930e-01   2.9764684e-01  -5.7674928e-01  -9.9337932e-02  -2.9347185e-01  -6.6645675e-02  -8.0638640e-01  -3.8665118e-01   6.5084704e-01  -2.4808744e-01   6.7512708e-01  -2.0263536e-01  -9.2782101e-01  -2.9196009e-01   4.8182204e-01   2.1203894e-01  -4.9776552e-03   9.4706053e-02  -7.2830957e-02  -3.9172061e-01   6.6194892e-01   4.0869111e-02   8.4617494e-01  -7.1488802e-01  -1.6782124e-01  -9.0734734e-01  -5.1026749e-01   7.0783024e-01  -3.7327216e-01   3.0993044e-01   6.4084020e-01  -4.9152366e-01   7.1685919e-01  -7.3974915e-01  -8.4345912e-01   8.2390753e-01  -3.0875254e-01   1.3876563e-01  -7.4876162e-01   9.7222969e-02  -1.2010355e-01   8.4657222e-01   5.9013876e-01  -8.1720392e-01   8.8071639e-01  -2.7886975e-01  -6.7708122e-02  -8.5870500e-01   6.2941440e-01   9.6275539e-02   5.4663267e-01  -7.5781743e-01  -7.5388876e-01   5.4524738e-01   6.8884613e-01  -4.7226126e-01   9.9416762e-01   5.0605568e-01  -7.6405031e-01  -4.3175187e-01  -5.1274619e-02   5.9888235e-01   3.1448384e-01   7.8474563e-01  -9.4012221e-01  -3.1529800e-01   9.6671301e-01  -4.7758379e-01   2.5767738e-01  -3.7987817e-01   8.8063891e-01   9.4968268e-01   3.4611018e-01  -9.2630411e-01   4.8559889e-01   1.6033513e-01   2.8587233e-01   7.2989969e-01   7.3764603e-01   8.8867252e-01  -9.0980672e-01   5.6010742e-01  -3.8027211e-01   9.8086481e-01  -5.1909319e-01  -3.8680654e-01  -2.6454812e-01  -9.6445607e-02   4.7438772e-01  -6.3382884e-01   6.4407654e-02  -4.1890452e-02   5.3416873e-01   9.4287142e-01  -2.9967335e-01   3.9844831e-01  -7.4408162e-01   6.2461228e-01   8.8645445e-02  -2.9090222e-01  -5.1307694e-01  -2.0857391e-01   2.5663015e-02   2.2547929e-01  -4.7204927e-01  -7.9652067e-01  -4.7646583e-01  -3.5789130e-01   1.8604708e-01  -1.9681356e-01  -3.5802620e-01   3.5436064e-02   8.7302671e-02   2.0271868e-01   5.4646443e-01   1.5772328e-02   8.9944156e-01   7.1630168e-02   1.3854487e-01  -1.2295405e-01   4.2852674e-01  -3.1955775e-01  -7.9126977e-01   3.8080866e-01   2.4376052e-01   1.3800251e-01  -3.9463408e-01   2.0231691e-01   3.7990851e-01  -8.2003645e-01  -3.3187907e-01   6.7295866e-01  -7.3347516e-01   1.5370550e-01  -2.3010613e-01  -1.4600364e-01   3.9989352e-02   3.2678967e-01  -7.6327087e-01  -3.4792399e-01  -8.9581399e-01  -7.0583518e-01  -1.0000175e-02   4.6742923e-01   4.6871842e-01   8.9988978e-01  -9.4668040e-01   5.5960409e-01  -9.2392623e-01  -9.4841462e-01   4.2593318e-01  -6.8220386e-01  -5.5234195e-01  -4.5172582e-01  -6.5340523e-01   3.0230090e-01  -3.2999812e-01   4.2506644e-01   5.7725623e-01  -6.7774657e-01   2.3163716e-01  -7.0462825e-01   9.8586670e-01  -4.5733525e-01  -1.6011850e-01   8.9281600e-02   3.7109072e-01  -6.7106196e-01   3.5855950e-01   1.5566763e-02  -6.0371154e-01   4.2206681e-01   5.8220796e-01  -3.4680906e-02   9.7269839e-01   1.6699089e-01   7.6359205e-01   4.4029599e-01  -2.5094081e-01   7.4255934e-01  -9.6901360e-01   2.7492107e-01   6.6854538e-01   1.6309102e-01  -5.7779577e-01   8.6322622e-01   9.5011810e-02  -5.9429931e-01  -5.9856411e-01   3.4278907e-01   5.8898789e-01   2.9961652e-02   6.0587821e-02  -7.3994994e-01  -8.1068291e-01   1.9583343e-01  -1.6315357e-01  -4.1868420e-01   2.0666880e-01   3.4553345e-01   8.5809140e-01  -9.3071579e-02  -2.8882584e-01  -6.7774349e-01   3.7347875e-01   9.3541391e-01   2.7114523e-02  -5.8715202e-01  -3.7368564e-01  -2.4309013e-02  -7.3496027e-01   1.6018291e-01   2.5992214e-01  -6.1305263e-01  -7.3789748e-01   9.0140503e-03   7.3162548e-01   1.0636330e-01  -8.2804720e-01   6.1665569e-02  -1.9936799e-01  -5.6681061e-01   9.5058209e-01  -5.2973687e-01   7.0582629e-01  -6.0294830e-01   7.6581623e-01   1.1253175e-01   3.4518792e-01   7.9071474e-01  -7.2756904e-01   7.9102858e-01  -3.5997267e-01   6.7220521e-01  -7.6786679e-01  -2.0407599e-01  -1.9377107e-01  -8.2297787e-01  -9.6929157e-01  -2.5122432e-01   7.6271999e-01  -5.0531998e-01  -4.6295064e-01   7.5564334e-01   6.2457071e-01  -2.5620041e-01  -8.3969395e-01   2.7244207e-02   1.5746290e-01  -1.1686558e-02   6.3613580e-01   2.4385970e-01   5.4349488e-01   3.0524297e-01  -8.0005138e-02   9.0542823e-01  -2.2695249e-01   3.3786116e-01   3.2526832e-01  -2.3663729e-02  -4.2228821e-01   6.2318780e-01  -6.4848442e-01   7.7440607e-01  -7.2440448e-01   6.8440960e-01   9.3217112e-01  -7.2296383e-01   4.2556972e-01   9.0329607e-01   7.9418167e-01   3.1155006e-01   8.1577847e-01   9.0702578e-01  -4.0581009e-01  -9.6317064e-01  -4.3435488e-01  -1.2609516e-01   8.8887063e-02   1.9630369e-01  -8.9787206e-01   4.6954684e-01  -7.5040803e-01   6.9217597e-01   2.1720168e-01   6.7236725e-01   2.0643256e-01  -1.0243965e-01  -8.1026457e-01  -8.6041260e-01  -2.9791800e-01  -3.8299855e-01   5.7924443e-02   4.8802731e-01  -9.5417417e-01   2.0107914e-01   2.6255432e-01   4.4403501e-01  -2.7264431e-01   4.6812023e-01   7.5466120e-01   9.2179119e-01   1.9659595e-01  -3.5378169e-01  -7.8154203e-01  -6.0351519e-01  -7.5581630e-01   2.4810061e-01  -6.5036058e-01  -7.5876476e-01   1.9742617e-01   9.4037740e-01   1.3328536e-02   7.7443190e-01  -5.1245285e-01  -6.1664569e-01  -5.6068280e-01   7.8174966e-01  -9.8587059e-01   2.0472960e-01  -4.6726567e-01  -8.6601126e-01   5.1442434e-01   4.0853055e-01  -6.5467733e-01   6.4614159e-03   1.5892031e-01   1.3114292e-01   4.2054554e-01   6.7508039e-01   2.7120741e-01   3.9708908e-01   9.2805692e-01  -4.2247550e-01   8.7321226e-01  -8.3688175e-01   1.4717812e-01   9.4325043e-01  -7.4264965e-01   1.7445762e-01  -8.3161699e-01   2.5523262e-01  -7.1627032e-01   7.1967554e-01
   8.5326547e-01   9.2479400e-01  -4.7701935e-02  -7.3759021e-01   2.9956665e-01  -5.8218192e-01   1.4488330e-01   8.6017454e-01  -3.6523484e-02   2.1233314e-02   1.3099497e-01  -2.0027181e-01   9.7876170e-01  -7.7563147e-01   6.7299746e-01  -1.9380157e-01  -1.5633746e-01   3.5929489e-01  -9.6026521e-01  -4.9212911e-01  -3.1420770e-01   5.7939886e-01  -5.9197987e-01   5.1114688e-02   8.8223934e-02   4.0247175e-01   7.3246181e-01  -7.5455579e-01  -4.2330338e-01   5.2621703e-03   2.4839121e-01  -4.3906657e-01  -2.5382400e-01  -3.4329982e-02   4.9029545e-02   3.4493588e-01  -8.4520551e-01   4.1850539e-03  -4.4929645e-01   2.0371584e-01  -2.0688449e-03   3.7827634e-01   2.6474388e-01  -7.0831509e-01  -1.6580658e-02   1.0569560e-01   5.3784091e-01   3.9858006e-01  -3.3260664e-01  -6.4079842e-01  -9.2849076e-01  -1.8778353e-01  -2.4766275e-01  -1.0314067e-01   1.5620628e-01  -9.8622794e-01   9.1215029e-01   3.3703303e-01  -5.1232273e-01   6.2991558e-01   4.8780103e-01   9.0095466e-01  -2.5038500e-01   4.0413821e-01   1.2397762e-01  -7.2246061e-02  -4.3266812e-01  -7.8665878e-01  -5.4611511e-01   2.2753190e-01   7.5919652e-01   4.5019971e-02  -2.9026465e-02  -8.2530193e-01  -7.8412273e-01  -9.7911059e-01  -1.2594756e-01   5.5522947e-01  -8.1688083e-01  -4.0018787e-01   8.5093055e-01  -9.8773201e-01   1.1470554e-01  -8.3977964e-01   1.1365582e-01   6.8226535e-01   4.2504316e-01   5.0563835e-02   7.3443187e-02   9.5785505e-01  -5.3673101e-01  -7.3472349e-01   1.1431418e-01   9.5594638e-02   5.6651546e-01   5.7800898e-02  -9.0664144e-01   8.3431620e-01   6.3184135e-01   8.0932406e-01  -4.0344997e-01   7.2870310e-01   6.4135626e-01  -8.0851620e-01   3.3707753e-01   7.1535582e-01  -9.8965814e-01   4.5669843e-01  -8.4902064e-01  -1.0180534e-02  -7.4324768e-01   8.3372332e-01  -4.2904002e-01  -3.4331478e-01  -5.7761809e-01  -7.4054647e-01   5.9404648e-01  -5.5497421e-01  -8.1681797e-01   5.5271572e-01   3.1689970e-01  -6.4332407e-01  -7.8223529e-01   7.8207803e-01   9.1080357e-01   6.3724722e-01   2.6312098e-01  -7.9138273e-02   3.6848590e-01   8.1221496e-01   8.9077350e-01  -8.7797123e-01  -7.1744495e-01   9.7916023e-01  -8.9179130e-01  -4.8775212e-01  -5.9321505e-01  -5.1352281e-01   6.8729781e-01  -2.4169753e-01  -8.6789761e-01   6.3235324e-01  -4.5112593e-01  -9.2328514e-01  -8.3917050e-01   6.1879463e-01   4.1762522e-01   9.3916780e-01   8.6137463e-01   4.5175325e-01   4.1505698e-01  -9.2519591e-01  -5.2909855e-01  -5.8856756e-01   8.0942357e-03   6.3782363e-01  -4.4525084e-01   8.0226064e-01  -3.9730478e-01  -1.9107187e-02  -9.1033704e-01  -3.4142131e-01  -3.2759499e-01   4.0444508e-01   6.2562611e-01   1.5278252e-01   6.4406824e-01   5.9228210e-01   8.9628298e-01   9.8043078e-01  -2.3139626e-01  -4.5186757e-01   4.6578008e-01  -2.4301896e-01  -4.9578216e-01  -2.2645376e-01   1.6939830e-02  -3.5068310e-01  -2.4383606e-01   8.8597796e-01  -8.3901025e-01  -8.2211926e-01  -4.1036280e-01  -3.6012770e-01   7.9329644e-01   5.3927067e-01  -6.9842895e-01   9.4238061e-01   3.3761705e-01   7.7141051e-01   1.4852982e-01   1.8263153e-01   1.6700245e-01   5.4472347e-01   1.9077028e-01   2.6050359e-01   9.6264123e-01  -3.2999177e-01  -4.9819065e-01  -6.4390838e-01   1.9020316e-01  -5.0860284e-01   7.9911746e-01   2.2571830e-01  -7.4465746e-01  -3.8136599e-01   2.2741100e-01   6.3030812e-02  -7.4396286e-01   6.5086546e-02   1.5622616e-01  -4.8545261e-01   2.6795986e-01   4.8161168e-01  -9.2068683e-01   7.8038782e-01   7.3350345e-01   3.2209349e-01  -9.3243948e-01   6.4987001e-01  -3.5142402e-01   1.3348857e-01   2.1654380e-01  -5.2832519e-01   7.5855990e-01   7.6225478e-01  -2.4697767e-02  -6.9272157e-01   4.0126193e-01  -6.6335047e-01  -4.5016717e-01  -9.6119638e-01  -3.8653195e-01  -7.2117032e-01   4.9677273e-01  -4.9364136e-01  -1.9624181e-01  -9.1260191e-01   6.5416223e-01   4.8265773e-01  -9.6081994e-01   4.6373226e-01  -7.1070175e-01   7.5400452e-01   7.3363752e-03   7.5220865e-01  -6.4472165e-01   4.3465754e-01   2.2900717e-01  -2.6426319e-01  -9.8061036e-02   4.3830529e-01   6.1880974e-01  -1.8319106e-01  -6.8889238e-01  -4.1151701e-01  -3.1582800e-01   5.7798042e-01  -7.3121368e-01  -9.7032368e-01   5.2221164e-01  -3.7279125e-01   1.3232302e-01   3.1690157e-01  -4.8230855e-01   5.7992975e-01   8.4947577e-01  -3.9163464e-01  -3.8669362e-01  -8.1258055e-01  -9.1909344e-01   8.6241814e-01  -9.5830871e-01   8.3367816e-01  -2.9287044e-01  -3.2583944e-01   8.1618555e-01   5.0635349e-01  -2.1403824e-01  -5.6244179e-02   8.3790898e-01  -3.8572146e-02   5.6172760e-01   6.7746777e-02  -8.0134699e-01   5.3717143e-01  -5.7716368e-01   6.3751534e-01   3.0195366e-01   1.0776450e-01  -2.3430946e-01  -6.3372316e-02   7.1421753e-01   1.7750944e-01   1.2207249e-01   5.7913046e-02   8.7057336e-01   5.1234367e-01  -1.3030601e-01   4.0638568e-01   7.8038158e-02   3.0519699e-01   8.0111831e-01  -4.3472929e-01   9.8172066e-01   8.5277862e-01  -7.0763370e-01  -1.9767286e-01  -9.2213490e-01  -4.8783904e-01  -4.3713368e-01   1.0596715e-01   7.4152545e-01   1.0021368e-01  -6.0995634e-01  -8.4831605e-01  -1.6204755e-01  -3.7120085e-01  -4.4455980e-01   6.5259274e-01   8.6535704e-01   9.7254213e-01   1.5149006e-01   8.2092345e-01  -6.2459710e-01   5.1159760e-01  -9.4990175e-01  -4.1064499e-01   3.5775691e-01   8.7632886e-01  -1.7871063e-01   2.8866284e-02  -9.4969861e-01  -3.2692884e-01  -4.4478130e-01   8.7478030e-01  -6.2734568e-01   8.4170019e-01   6.4654914e-01  -9.4978596e-01  -8.5253355e-03   1.0274958e-01  -8.8495897e-01  -6.4340167e-02  -7.0298780e-01   9.9095154e-01   1.0336881e-01  -8.7640261e-01   9.2076215e-01   2.9078019e-01  -1.1781594e-01  -8.2846181e-01   9.4782133e-02  -7.8361595e-01   1.2962439e-01  -5.2503576e-01  -2.2241355e-01  -6.9854589e-01  -6.8435034e-01  -1.7795002e-01  -1.5519977e-01   7.2551410e-01  -4.1284959e-01  -2.7226160e-01   8.0538581e-02   6.1850163e-01   8.4444621e-01  -2.8616197e-01   7.0046075e-01   8.0404609e-01  -4.7882640e-01  -9.8038945e-01  -6.1730049e-01   4.4330837e-01  -9.9602271e-01   8.3033662e-01   1.2741881e-01   3.4648578e-01  -4.2654945e-01  -7.2749886e-01  -1.9415409e-01  -8.5823657e-01   7.2940855e-01   1.8571808e-01  -8.6209136e-01  -3.2907347e-01  -3.4370956e-01  -8.5162485e-01   9.4840038e-01   8.3307118e-01   6.6925955e-01  -1.8410498e-01   6.6315874e-01   2.0224976e-01   2.1910289e-01   1.3665179e-01   2.3444949e-01   6.6262210e-01  -1.3422325e-01  -7.4153419e-01   4.5152673e-01  -6.3677185e-02  -4.2834153e-01   9.8657648e-01   9.4495120e-01  -2.7215254e-01   8.5918484e-01  -4.5211983e-02  -8.0079369e-01   9.1694390e-02   8.3716557e-01   5.9515781e-01  -6.8514947e-01  -8.4467128e-01  -9.2618751e-01   4.6449985e-01  -2.9760337e-01  -8.2883770e-01   9.0368307e-01   6.2481318e-01   9.3721162e-01  -2.3375542e-01  -5.0330790e-01  -1.5012898e-01  -5.5905093e-01  -2.3540290e-01  -9.0326242e-01   7.7385611e-01  -6.3060726e-01   7.1633251e-01  -1.9365187e-01   9.5560806e-01  -6.4251801e-01   2.8089442e-01  -3.0443262e-01   8.5988842e-01  -8.8865901e-01   7.9962878e-01   1.5003670e-01  -8.7034611e-01   5.7131223e-01  -6.9837464e-01  -2.4671210e-01   7.1153237e-01   8.9535481e-01   6.7346280e-02   6.1287174e-01  -5.1329276e-01   1.1941696e-01   9.0648731e-01   5.7062815e-01  -8.5467940e-01   1.3860471e-01  -3.4169607e-01  -1.6557108e-01   6.9923996e-01  -1.5093289e-02   3.7868977e-01   2.0756649e-01  -4.3510600e-01   6.4468921e-01  -4.4037163e-02   2.6403241e-01  -9.6898688e-01  -1.5649286e-02   5.3841096e-01   4.2057992e-01   4.2953691e-01   1.2969338e-02  -4.9713412e-01  -1.5421748e-01  -4.3184271e-01  -3.9913817e-01   4.8818451e-01   1.2127124e-01  -3.0775230e-01   1.9599082e-01   8.3711814e-01   6.0168338e-02   5.1065826e-01  -3.1696389e-01   9.7438371e-01   4.7996184e-01  -3.6552292e-01   8.7548506e-01  -6.2291452e-01   7.4900590e-01  -6.9126204e-01   4.2945168e-01  -6.3173197e-01  -6.4236067e-01  -7.3778213e-01   8.1397180e-01   7.2670732e-01  -4.8110934e-01  -2.9062353e-01  -5.0401130e-01  -2.4393952e-01   3.0006865e-01  -1.8845725e-01   3.2053106e-01   8.5430124e-01   8.6243716e-02  -2.4045173e-01   5.5547757e-01  -2.4306113e-01  -8.7725145e-01   1.0110058e-01   1.4931946e-01   2.3106053e-01   9.4144156e-01  -7.2650762e-01  -5.8631322e-01   6.2519847e-01   8.0173821e-01  -3.0746180e-01  -5.3156642e-01  -1.3295288e-01  -8.3234906e-01  -9.5547886e-01   1.9394649e-01  -9.3151357e-01   9.6909509e-01  -2.5719410e-01  -7.7657578e-01   3.8075105e-01  -7.5194459e-01   6.1232726e-01  -6.5661724e-01   7.0484007e-01   3.2893890e-01   3.2241212e-01   7.1162701e-01   1.6869769e-01   4.2717637e-01   9.2743954e-02   8.7409604e-01  -7.8953388e-01  -3.8106506e-01   1.7456822e-02  -2.8790625e-02   3.4521710e-01   9.0891405e-01   2.2669012e-01  -5.0434296e-01   6.1641696e-01  -8.8802751e-01   6.6216939e-01  -7.5524049e-01  -7.6204500e-01  -7.4197269e-01  -3.8977453e-01  -1.5321712e-01  -5.6263927e-01   3.3530211e-01   1.5729632e-01   5.4787580e-01   6.8516567e-01  -3.8679020e-01  -8.0311884e-01  -4.3893329e-01   8.6989319e-01   4.2268927e-01  -2.7430478e-02  -9.2595102e-01  -6.7755855e-01   4.6976207e-01  -3.8601342e-01   3.3743092e-03  -5.9892373e-01   5.6952805e-01  -9.8397179e-01   3.5288488e-01  -4.0906874e-01  -2.3871491e-01  -2.4499115e-01   8.0093495e-01   3.9424807e-01   6.8443964e-02   9.7714738e-02  -8.6630670e-02   6.9126844e-01   3.8068662e-02   9.4471822e-01   1.4474081e-01   1.0841069e-01   6.6510374e-01  -1.8199617e-01  -3.8002525e-01  -1.0026900e-01   6.9158124e-01  -9.2528798e-01  -7.0064958e-01   6.4735295e-01   8.5466413e-01   5.4160153e-01   8.2205654e-01  -8.0671253e-01  -1.3302049e-02  -9.3896146e-01   7.2534443e-01  -9.7174661e-01   1.2066300e-02  -6.7377930e-01  -7.0505776e-01   7.5655020e-01   2.4979053e-01  -2.4848434e-01  -9.7757983e-01  -1.1508985e-01   9.4743264e-01   1.6923130e-02   1.6764257e-01   8.0938087e-01  -9.1979413e-01  -9.8939532e-01  -4.1780628e-01   1.2128690e-01  -7.0116257e-01   6.5924918e-01   7.8448610e-01   9.4758058e-01  -9.5671004e-01   4.5693992e-01  -4.7792268e-01   6.2288646e-01  -1.2311488e-02  -4.6360367e-01  -4.1151637e-01  -1.1542680e-01   5.9757060e-01   3.6194473e-02   2.6740793e-01  -1.3890819e-01   5.7339330e-01  -8.2006132e-01  -3.2792255e-01   8.5780220e-01  -5.6763063e-01   7.2734152e-01  -7.1262425e-02   7.6503657e-01  -6.9286795e-01  -7.6551896e-01  -2.2773199e-02   8.8021180e-01  -4.0151548e-01   5.0851474e-01  -9.1020489e-01  -8.8446590e-02  -6.8509635e-01  -5.4349441e-01   5.4773639e-01   7.8371010e-01  -7.1475815e-01  -2.7350303e-01  -7.6281497e-01   1.3198698e-01   5.2852774e-01   8.4056013e-01   7.4649946e-01  -1.0182466e-02  -1.3912161e-01  -8.2296590e-01   1.2572058e-01  -6.1715263e-01  -2.1339115e-01   7.2407260e-01   4.4974184e-01  -3.5168550e-01   8.1582064e-01  -9.7403041e-01  -7.8398212e-01   9.7870354e-01  -6.8057606e-01   8.5914971e-01  -6.2155508e-01   2.7180100e-01  -1.3302879e-01  -3.7525137e-01   4.1680619e-03   3.3001710e-01   8.4765361e-01  -8.2924391e-01   4.2763802e-01  -5.8394769e-01  -3.2323957e-01   6.1341724e-01  -1.2686336e-01   3.4477435e-01  -3.3286944e-01  -2.8235916e-01   4.6263402e-01  -2.5510067e-01   1.6715303e-02   7.6328377e-01  -6.9109732e-01  -1.4267166e-01  -5.6332120e-01   5.9316485e-01  -9.0685622e-01   4.2951345e-01   3.0785914e-01   9.1694077e-01  -8.5118682e-01  -7.5559718e-01   2.9763388e-01  -3.0106966e-02   3.9950847e-01  -3.1207112e-01   6.4804553e-01   6.6500744e-01  -2.4766422e-01   7.1988066e-01  -4.9812086e-01  -2.3458835e-01   5.2234401e-01  -9.9240719e-01   8.7267287e-01  -3.4258088e-01   5.1966974e-01  -8.8570099e-01  -3.1895500e-02   7.0460947e-01   1.5493987e-02  -6.9741372e-01  -7.8516767e-01   4.4613891e-01  -9.5867493e-03   1.8205652e-01   4.2150148e-01   2.3016998e-01  -3.2782639e-01   7.1196279e-01   8.9816618e-01   7.8210190e-01   1.3232747e-01  -7.1390717e-01   3.4114495e-01   6.5529434e-01   9.3246693e-01  -7.8425100e-02   4.4762375e-02  -7.1214441e-01   4.1206595e-03   2.5072246e-01  -7.9197927e-01   5.6639785e-01   9.1670132e-01  -6.3825866e-01   3.5917814e-01   3.5854213e-01   1.7861830e-01  -8.5017187e-01  -7.5353838e-01  -5.2990125e-01   7.5233129e-01   4.4647292e-01  -1.8513981e-01  -9.0586121e-01   1.4809695e-01  -8.6389259e-01  -5.5092610e-01  -6.5641001e-01   6.9341976e-01   3.7366544e-01  -4.5287412e-01   5.9075070e-01  -6.9485890e-01  -6.5960363e-01  -1.2380076e-02   8.7847991e-01  -3.8783928e-01   7.3620261e-01  -9.3114350e-01   3.6122888e-01  -7.0888354e-01  -3.7209195e-01   3.5353950e-01   7.7015470e-01   9.1571444e-01  -2.4737545e-01   6.2737655e-01   5.7107641e-01   2.8689302e-02   6.0514037e-01  -5.1003311e-01   4.2900457e-01  -2.2445608e-01   1.6101669e-01  -1.1550001e-01  -9.6289575e-01  -4.1817341e-01   5.1444167e-01   2.7450814e-01   1.5809941e-02  -6.3452052e-01  -9.4698557e-01   8.1129959e-01  -7.5291498e-01  -8.6238470e-01   2.7828525e-01  -4.1867597e-02  -6.1750029e-01  -2.2887127e-01  -4.3048778e-01  -3.6815735e-01  -9.0972713e-01   2.1520267e-01   2.4012349e-01   4.4671902e-01   2.1131546e-01  -3.0292539e-01   8.4705910e-01  -6.5435160e-01   8.3064902e-01  -5.2670043e-01   4.2199802e-01   9.0462442e-01  -1.8964929e-01   6.4891430e-01  -7.9507065e-01   7.2960064e-01   9.4659362e-01   5.5083217e-01   7.6414242e-01   5.3798235e-01  -1.9534823e-01  -9.9934900e-01  -5.0412214e-01   9.3262814e-01  -6.1846233e-01  -4.0704265e-01  -1.1302329e-01  -3.8147967e-02   8.4246894e-01  -1.3765848e-01   3.0627227e-01  -7.9266955e-01   1.2929125e-01   3.6346963e-01  -4.0321165e-01   7.4679557e-02   6.9166878e-01  -9.0322872e-01  -6.3408603e-01   5.1777101e-01  -2.2989037e-01   4.2060577e-01   8.3488188e-01   7.4637267e-01   6.9937648e-01  -1.5636567e-01   5.5670092e-01   8.6401796e-01  -9.1096843e-01  -3.9489383e-01   1.6136192e-01   7.8568126e-01  -6.9628465e-02   1.1118451e-01  -3.4922867e-01   6.4609250e-01  -3.3676079e-01  -4.8381274e-01   5.0611074e-01  -4.0758957e-02   1.3603237e-01   4.6480463e-01  -6.2060608e-01  -5.4730625e-01  -9.0252050e-01  -7.6643037e-01   2.8915863e-02   8.4341704e-01   3.7212678e-01   6.2173620e-01   8.6544045e-01   6.7491828e-01   3.3822597e-01   5.0245547e-01  -7.7589869e-01  -7.9117504e-01   2.4951996e-01  -5.2279234e-01  -9.0328704e-01   7.5851062e-01   3.1009881e-01   8.0252582e-01   9.6131066e-01   8.9801713e-01  -6.0215419e-01  -9.7934102e-01   8.5771520e-01  -9.6381033e-01  -2.8454333e-01  -8.8359291e-01  -9.4901515e-01   1.7012315e-01   6.4048519e-01   7.3638973e-01  -2.7277132e-02  -2.6312910e-01   6.5922848e-01   1.9802728e-01   5.4583075e-01  -9.4977870e-01   6.9725541e-01  -6.4633033e-01  -4.5560431e-02   3.3992052e-01  -3.7874428e-01   8.1634984e-01  -8.9010468e-01  -5.7418867e-01   8.2472067e-01  -5.1374284e-01   8.3295523e-01  -1.8049919e-02   2.0703370e-01  -6.9307772e-01  -7.0581817e-01  -3.1836924e-01  -9.9804698e-01   8.8925172e-01   9.7511011e-01   1.3915442e-01   3.1236714e-01   9.6132773e-01   9.9981000e-01   6.2407951e-01  -4.5994377e-01   1.2948659e-01   4.9189181e-01  -6.2150799e-01  -2.4853990e-01   4.6445810e-01  -4.8639986e-01  -9.0844422e-01   2.8106438e-01  -7.3513300e-01   1.4619159e-01   9.7607336e-01  -8.2047665e-01  -2.6383032e-01  -8.0208431e-01  -5.2758920e-01   2.3437966e-01   2.1564952e-02   8.5339838e-01   3.2729982e-01  -1.4929948e-01  -9.3034587e-01  -6.8682201e-01  -3.6206923e-01  -4.5392660e-04   5.6283955e-01   3.9490091e-01  -4.0648536e-01   4.3084549e-01   9.9470996e-01  -9.7152756e-01  -2.9068886e-02  -8.7255978e-01   1.6583458e-01  -8.3613750e-02  -1.1816463e-02   5.8078195e-01  -2.8335931e-01   2.8519214e-01  -3.7729069e-01   2.2179966e-01  -6.8997530e-01   1.0547417e-01  -2.7966790e-01  -8.3081842e-01   8.0628622e-01  -9.6686612e-01   8.7368189e-01   9.3233715e-01   5.7686810e-01  -3.3562470e-01  -3.1676235e-01  -8.8631408e-01   4.7933785e-01   5.5378324e-01   5.6682684e-01   2.8002524e-01  -8.8533838e-01   6.0446242e-01   4.2271524e-01   5.1154345e-01  -8.9355241e-01  -4.2436820e-02  -9.8211254e-01  -2.1870091e-01  -5.6869524e-01   2.4029027e-01  -7.0012026e-01   1.6517895e-03
  -9.5454945e-02  -7.4685067e-01   4.2547684e-01   2.6020564e-01  -8.6320701e-01   3.6386737e-01  -7.9174182e-01   7.1913699e-01   5.3365970e-01   2.5192383e-02  -9.8247671e-01  -7.0023848e-01  -8.0653456e-01  -8.6028957e-01   1.7734627e-01  -2.8936951e-01   3.8936723e-01   7.1393797e-01   7.4346504e-01   8.5798329e-01   3.8055050e-02   1.3954087e-01  -8.0581564e-01   7.9739578e-02   5.9266742e-01   6.9459746e-01   7.6414536e-01  -7.1084180e-01  -5.0860383e-01  -8.2813870e-01  -2.7764891e-01  -1.0719231e-01  -8.2162432e-01   7.4275878e-01  -4.8292712e-01  -6.7443223e-01   7.7296146e-02  -4.1274937e-01   8.6294688e-01  -6.4482460e-01   8.5515024e-01   7.4570566e-01   7.7506875e-01   8.2377713e-01  -2.7927834e-02  -7.5562722e-01  -6.8307570e-01  -8.4917611e-01  -2.7342353e-01  -5.0486754e-01   1.0845557e-02  -1.6561198e-01   8.9260495e-01  -3.2415689e-01   2.6299712e-01  -6.5017880e-01  -8.5002857e-01   2.6584429e-01   6.9909939e-01   1.4914021e-01  -6.0394439e-01  -3.4308160e-01  -6.7683511e-01  -7.9633104e-01  -7.9296542e-01   6.8133913e-01  -9.1946024e-01   3.5141302e-01   6.4310237e-01  -7.0416557e-01   8.2259335e-01  -1.1788429e-01  -7.8785232e-01   6.4065247e-01   9.5900994e-01  -9.8797092e-01   1.6591094e-02   2.5026466e-01  -5.7401520e-02   3.0985970e-01   5.6551462e-01  -9.0215832e-01  -6.2568408e-01  -5.4319028e-01   3.3303861e-01  -5.3653027e-01   8.2923519e-01   3.7128716e-01   3.5801295e-01   6.0775690e-01  -5.3326063e-01   8.9925510e-01   8.4198493e-01  -6.2031981e-01   8.7043158e-01  -2.2309957e-01   7.5537564e-01  -7.8633602e-01  -8.3828610e-01   2.3754087e-01  -9.1365045e-01  -9.2981968e-01   3.2453315e-02  -7.9840430e-02  -8.8509467e-01   8.2543421e-01   6.8360094e-01   3.8603830e-01   2.3257524e-01  -4.3034579e-01  -3.1256596e-01   6.9497595e-01   4.0366328e-01   5.8349544e-01   8.8072013e-02   5.4056943e-01  -4.7061730e-01  -7.8391581e-01   1.0903338e-01   2.9981815e-01  -4.7267282e-01   4.8686752e-01   9.8281057e-01   2.5930658e-01  -9.3854927e-01   8.8544798e-01  -7.3760892e-01  -5.1025519e-01   4.3865429e-01   3.2124720e-01   7.5035089e-02  -5.9246922e-01  -4.6914051e-01  -4.5389679e-01   6.2009877e-01  -6.9632957e-01  -9.3576395e-01   5.9581438e-01   1.2838506e-01   6.5287854e-01   9.2041508e-01  -3.5987802e-01  -4.5485449e-01  -3.0365606e-01   3.9278431e-01  -9.3586768e-02   7.0802965e-01  -8.6640879e-01  -4.1901608e-01   6.7589127e-01   7.2332959e-01   1.9114233e-01   3.0685268e-01  -9.3917950e-01   1.2419080e-02   9.2895296e-01   7.7397073e-01   9.5771561e-01  -1.2492295e-01  -2.1564116e-01  -1.9671676e-01  -2.7261883e-01   2.4376382e-01   7.3876593e-01   9.5993263e-01   2.9373784e-01   6.6540022e-01  -4.0059012e-02  -7.8129995e-01   2.2762286e-01   4.9023264e-01   3.1972516e-01   6.2269502e-01  -9.8031728e-01  -4.6090523e-01   9.0317027e-01  -7.1134419e-02   2.4117772e-01   1.4883104e-01  -3.4302274e-01   2.9799650e-01  -2.3173625e-01  -7.3969492e-01   8.7661721e-01   7.8951193e-02   1.8164604e-01  -3.6955855e-01  -8.7289757e-01  -2.7033561e-01   2.0118977e-01  -3.5831932e-01   8.6116514e-01   5.9155606e-01  -7.1301227e-01   9.3038890e-01   3.0784125e-01   3.2334995e-01  -8.8586548e-01   9.5427919e-01  -5.8460332e-01  -5.0644679e-01   7.7077830e-01  -6.1395119e-01   2.9840464e-01  -8.0451027e-01   2.6029093e-01  -7.2761916e-01  -7.9052051e-01   1.8241557e-01  -2.4675151e-01  -3.8604259e-01   8.5573084e-01  -3.1916771e-01  -1.0526397e-01   4.4245722e-01  -9.9621403e-01   6.2334675e-01   9.4749693e-01   7.8059234e-01   2.6318679e-01  -4.8075717e-01   3.1393921e-01  -8.7961964e-01  -9.4448689e-01  -8.8391051e-01   3.5854370e-01  -6.7990876e-01   7.2965600e-01  -3.3358232e-01   1.1130292e-01   9.5060978e-02   7.3498042e-01  -5.2003207e-01  -9.6369617e-01  -8.7618683e-02   5.2533374e-01  -3.3386793e-01   7.0053594e-01  -8.9274972e-02  -4.4182705e-01   9.6120807e-01  -3.2317203e-01   3.1729005e-01  -1.8508515e-02   5.4255648e-01  -7.9080556e-01  -7.5418297e-01   1.3568733e-01   3.6445923e-01  -8.6793016e-01  -7.2125749e-01  -3.3594360e-01  -9.6151151e-01  -8.2593570e-01   1.6382363e-02   1.4163061e-01  -9.6418176e-01   3.6615588e-01   8.3478187e-01   5.2487861e-01  -1.8172104e-01  -9.0429399e-01   6.2773240e-01   2.1517830e-01  -3.4799657e-01  -8.7849829e-02  -6.1564065e-01   5.3594509e-01  -6.4567672e-01   4.6056402e-01   5.5908118e-01  -4.1840761e-01  -1.6491220e-01  -4.6130756e-01   2.1056897e-01   4.8826728e-01  -7.4467348e-01  -7.2705717e-02  -8.2284279e-02  -4.7558142e-01  -6.5455233e-01   8.8431987e-01   5.1810089e-01  -5.1959320e-01   4.2007146e-01  -1.0675468e-01   8.7355754e-01  -7.4985398e-01  -2.8979243e-01  -7.7290559e-01   5.2076667e-01  -5.0670961e-01  -9.3209350e-01   1.7351726e-01   1.3804793e-01  -3.2779368e-02   1.3801796e-01   1.2464823e-01  -7.6419564e-01  -1.2657024e-01   2.5057373e-01  -9.1496405e-01   1.1484553e-01  -3.8419901e-01  -2.2727079e-01   1.1681388e-01  -7.3439899e-01  -3.2896440e-01  -7.4785607e-01   9.6889232e-01  -6.9452346e-01   3.9885493e-01   3.9936688e-01  -3.6301371e-01   2.0032263e-01   9.1009198e-01   6.2656715e-01   9.6157219e-01  -1.5724562e-01   5.5154685e-01   4.3382053e-01  -7.1420732e-01  -9.4104924e-01   8.6175164e-01  -2.7896428e-01   5.7187368e-01  -4.1954947e-01   3.5428311e-01  -8.9733680e-01   4.7766974e-01   1.0756037e-01  -6.9271059e-01  -6.3337360e-02   8.3692650e-01   3.7002168e-01  -1.8167942e-01   2.4994811e-01  -6.6852918e-01  -9.3270831e-01   1.5392445e-01  -5.3548932e-01  -4.8984073e-01  -1.5363186e-01  -8.4731400e-01   1.5741541e-01  -1.0289498e-01  -5.0959376e-01   1.1272283e-01  -7.9980789e-01  -4.9119165e-01  -9.0771466e-02   4.6559857e-01   3.7047037e-01   1.0093772e-01   5.1835757e-02  -4.6650892e-02   7.7336244e-01  -9.7845324e-01  -8.9685518e-01  -2.9947495e-01  -2.0319307e-01   5.9265617e-01   3.4728941e-01  -4.3016196e-01   2.8848554e-01   4.4589629e-01   1.5844362e-01  -3.7543459e-02   7.3755901e-01  -6.6208179e-01  -1.9633927e-01  -2.2453119e-01   4.2129198e-02  -5.3602979e-01   6.3768063e-01   4.4634046e-01   4.8463782e-01   4.9759106e-01   3.3788810e-01  -6.1295324e-01   7.4308992e-01  -8.1163871e-01   2.2294896e-01  -4.5960494e-01  -5.5386363e-01   8.5315170e-01  -9.1376879e-02  -1.9035077e-01  -1.1382861e-01   5.3011107e-02  -1.1762274e-01  -3.6959603e-01   6.6169989e-01   3.5852685e-01  -4.4478518e-01  -1.3057347e-01  -4.3747291e-01   6.2505926e-01  -1.4418662e-01  -3.5852442e-01   4.9768472e-01  -9.3371734e-01   9.9069782e-01  -8.7943259e-01   9.0939567e-01   6.1235549e-01  -2.6611755e-01  -9.8474196e-01  -1.0940868e-02   3.9638470e-01  -1.8849126e-01  -6.0066840e-01   9.8215550e-01  -7.0489221e-01  -3.6942041e-01  -6.4554732e-01  -2.1233717e-01  -8.6707534e-01  -4.3189931e-01   6.5365310e-01  -5.3320023e-03  -6.5015452e-01  -9.8794497e-02   2.9801516e-01   6.1614415e-01   2.0086430e-01  -7.4654248e-01   9.0515530e-01  -5.0411442e-01   9.6559428e-01   9.0393937e-02   5.3866985e-01  -4.7097151e-02  -4.9047277e-01   9.4062104e-01   5.9787716e-01   9.2184173e-01   9.7430369e-01  -5.3318292e-01   3.3978602e-01   3.4381305e-01  -4.4345711e-02   9.5856976e-01   4.7079437e-01   8.3920475e-01   4.9583319e-02   5.3978308e-01  -5.2044018e-01   5.2059994e-01  -4.8338677e-01   6.7695544e-01  -3.3797810e-01  -8.8691393e-01  -1.9807118e-01  -7.7024971e-01  -8.9288418e-02   6.9014718e-01   9.5859104e-01  -6.6309968e-01  -9.0583965e-01  -5.7478302e-01   1.2696899e-01  -4.8965757e-01   2.1407727e-01   5.4736986e-01  -6.7108247e-03  -6.9855448e-02   3.3427479e-01   2.1634854e-01  -5.1787489e-01   7.4251724e-01   9.7910289e-02  -3.5401160e-01  -9.8937400e-01   4.6460365e-01  -4.9070584e-01   5.8197456e-01   2.7777119e-01   8.9795464e-01  -9.7173969e-01  -8.5574852e-01   8.1222085e-01   4.5897902e-01   8.6685724e-01  -6.5385707e-01   1.4935835e-01  -7.4461499e-01   6.0882647e-01  -6.4355413e-01   1.5343849e-01   3.0647227e-01   3.3226958e-01  -5.2503696e-01   7.7120982e-01   4.7565435e-01   6.5587819e-01  -3.6546676e-01  -6.6531391e-01   9.0725036e-01   4.1888772e-01  -7.7465663e-01   1.9394776e-01  -6.0498684e-01  -5.1873840e-01  -2.0509228e-01   8.3492213e-01   1.7718043e-01  -1.5197828e-01   3.6148013e-01  -2.3160340e-01  -6.0516909e-01   1.2104592e-01  -1.8710056e-01   9.2070394e-01   9.0846398e-01   9.9044781e-01   4.3483607e-01  -6.7804866e-01   9.8200316e-01  -4.3809242e-01   3.7353774e-01  -9.7079900e-01   3.5718328e-02  -3.4451540e-01  -6.4072595e-01   9.0937979e-01  -6.0019314e-01  -2.5018849e-02   6.3463140e-01   3.4341386e-01  -7.6560804e-01  -3.1248767e-01   4.7419821e-01   8.9971481e-01  -4.4880347e-01  -1.9211224e-01   3.1064030e-01  -7.6168962e-01  -6.1089641e-01   2.7329349e-01  -4.8400663e-01  -8.8028901e-01   8.2224476e-01   5.2205269e-01   3.9938309e-02   8.8527904e-01   6.3593010e-01  -9.4593845e-01   3.8869259e-01  -5.6703074e-01   5.5273641e-01  -8.7225561e-01   8.6222876e-01   2.2732545e-01  -2.1550633e-01   5.7999671e-01  -4.8688480e-01   8.9904178e-01  -8.9855569e-01   4.8114794e-03  -8.7390101e-01  -6.7970141e-02  -3.7614582e-01   1.9063584e-01  -2.5307566e-01  -8.9312825e-01  -7.0190960e-01   9.2252542e-01  -7.8874963e-01  -1.5854269e-01  -9.5777069e-01   7.1760646e-01  -4.9855200e-01  -1.5974103e-02  -4.9821283e-01   1.1258708e-01  -7.8558913e-01   5.6354858e-01   1.5224520e-01   3.8737408e-01   1.6608270e-02  -1.8359854e-01   5.6094476e-01   1.1616361e-01   7.1086738e-01  -8.8654042e-02   5.4392707e-01  -4.1120107e-01  -4.3559763e-01   1.7575080e-01  -7.9016381e-01   4.7406735e-01  -9.8634676e-01  -9.3976817e-01   1.2993295e-01  -8.8712286e-02  -2.2547968e-01  -3.5686813e-01   5.7535246e-01  -5.7223605e-01   1.4097615e-01  -5.5376245e-01   8.9792596e-01   4.5517552e-01   3.0138892e-01   6.2378816e-01   3.2646004e-01   6.4847125e-01  -2.3393814e-01  -3.5181890e-01  -1.9880937e-01  -8.0451595e-01  -4.7635677e-01   5.4848685e-01  -9.6516185e-01   5.0656583e-01   2.5104719e-02   8.5042244e-01   9.3638541e-01  -7.0526820e-01   2.1298192e-01  -7.8697576e-01   1.2335153e-02  -7.4919194e-01  -2.1110838e-01  -7.1252206e-01   7.1165175e-01  -7.4874708e-01  -1.2809576e-01  -5.8861646e-01  -9.1774573e-01   5.5994160e-01   6.6026472e-01  -7.1098821e-01  -1.0793633e-01   9.1792465e-01  -5.4787999e-01   9.7091814e-01  -2.2196458e-01   3.2399328e-01  -3.6716591e-02  -7.4547230e-01  -7.4036627e-02  -3.9900967e-02  -6.1259648e-01  -7.1944958e-01   5.7552021e-01   7.6736319e-01  -4.6106099e-01  -3.3394833e-01   8.8239748e-01   1.2469291e-01  -8.7892829e-01  -8.6803833e-02  -8.0552471e-01  -6.6109288e-01  -5.1825070e-01   9.2516768e-03  -8.3549789e-01   4.4164162e-01  -9.2508987e-01  -7.8768132e-01  -9.9684492e-02   9.1302474e-01   8.8248114e-01   5.9779992e-01  -2.1921743e-01  -4.0178003e-01  -1.5943052e-01   3.5696567e-02  -2.6795968e-01  -2.0708701e-01  -4.4009857e-01  -8.0126889e-01   7.6874398e-02   8.6666233e-01   3.2055885e-01  -2.7521914e-01  -3.9759269e-01   7.6219157e-01   3.8887310e-01  -5.9672665e-01  -9.5498261e-01   7.1121031e-02  -9.6142684e-01  -5.6323836e-01   2.8699778e-01  -9.3631953e-01  -9.0329708e-01  -2.6207608e-01   7.0343932e-01  -9.4068371e-01  -8.3993571e-01  -7.1447165e-01   7.5708109e-01   8.2524068e-01  -2.3939854e-01   4.3351117e-01   7.6531127e-01   8.5873244e-01   1.4914426e-01   5.0764999e-02   7.7475958e-01  -2.2555174e-01  -8.0672051e-01   6.1715231e-01  -4.7327304e-01   6.2910799e-01  -4.7780665e-01  -1.5778379e-02  -9.9748413e-02   4.6650150e-01   6.1896972e-01  -5.9682208e-01  -6.4853067e-01  -3.3379500e-01  -7.1791855e-02   6.4480088e-01  -2.4180402e-01   1.8089029e-01   3.4816098e-02   4.8801185e-01  -1.6063895e-02   4.2354589e-01  -4.8776843e-01   5.3375598e-01  -9.1390353e-01   3.0319480e-01  -5.5329436e-01  -7.9206983e-01   1.7972921e-01   1.7347099e-01  -9.0612866e-02  -6.9236358e-01  -7.3131461e-01  -3.8532445e-02   1.1950908e-01  -5.9051889e-01   7.3165984e-01   6.0344325e-02   1.8659716e-01   4.1541088e-01   5.4401207e-01   4.5282575e-02   2.3382308e-01   1.1678033e-01   1.1642405e-01   9.4735513e-01   1.7706615e-01  -8.7897522e-01   3.5747070e-01  -3.2915221e-01  -5.4884865e-02   5.9865229e-02   2.2079230e-01   5.9798684e-01   5.3454997e-01   3.0746203e-01  -4.4223729e-02  -8.2107570e-01   8.5417243e-01   1.2147109e-01  -4.1110661e-01  -5.7079138e-01  -8.6113242e-01  -5.5612791e-01   2.8400414e-01  -7.3711539e-01   3.2364946e-01   6.9440890e-01  -3.8278698e-02  -1.4310075e-01  -7.5875172e-01  -4.5535432e-01  -5.2718345e-02  -6.9299059e-01   8.5521457e-01  -5.8661072e-01  -7.5080511e-01   7.6780525e-02   6.7173570e-01  -5.5602181e-01  -5.7858915e-01  -9.2640935e-01  -2.5912698e-02   7.4641424e-01  -8.9288952e-01   7.2833572e-01   6.6784101e-01   5.3669910e-01  -5.0385949e-01   5.9394600e-01  -2.4049730e-01  -1.5720473e-01   7.2046118e-04   4.9545476e-01   4.5049298e-01   7.8423980e-01   9.4084022e-01   9.9204964e-01   4.1597116e-01  -8.4367311e-01  -4.1136935e-01   8.7094215e-01   2.2660158e-01   2.7517938e-01   4.2132767e-01   4.7236095e-01  -9.8079227e-01   5.3213248e-01   8.8706404e-01   2.0323281e-01  -2.4706210e-01  -9.4900384e-01   2.7318722e-01  -5.7119549e-01   7.4935044e-01  -1.3817777e-01  -6.2020194e-01   7.7183358e-01  -8.4764297e-02  -5.1159801e-01   3.5151825e-01   3.0314382e-01   9.3361704e-01  -1.7292202e-01   9.3716854e-01  -2.7372235e-01   2.2037190e-01   7.4307374e-01   1.6689396e-01   4.5726843e-02   1.0895555e-01  -7.2919622e-02   1.0373248e-01  -4.3917531e-01   1.0015024e-01  -2.3320377e-01   1.6169526e-01  -3.7600008e-02   6.6005826e-01   1.6982682e-02   8.8292309e-01  -8.5873370e-01   5.8591149e-01   6.6253750e-01   5.7821982e-01   7.8466189e-01   3.1665351e-01   8.2272694e-01  -7.7410765e-01  -6.9544326e-01  -7.7446166e-01   2.6231148e-01  -2.9515284e-01   5.0303431e-01   4.9009059e-01  -6.3302972e-01   6.5155886e-02   3.9275464e-01   1.3719894e-02  -8.5795394e-01  -5.0880711e-01   7.3024981e-01   3.7589006e-01  -6.6818548e-01  -2.4974917e-01  -7.1595385e-02   2.5456944e-01  -3.6599927e-01   1.3320913e-01   3.9687565e-01  -8.3814410e-01   2.4862522e-01   1.3416027e-01  -9.6107070e-01   2.7200817e-01   7.1009436e-01  -9.6007858e-01   8.1780064e-01   1.0627808e-01  -8.4790233e-03   1.6046670e-01  -6.6316891e-01  -1.0518777e-01   6.2709199e-01   3.0279751e-01  -2.4217042e-01   9.0693068e-01   7.6246279e-01  -5.6064039e-01  -4.9001205e-01  -8.0159637e-01  -9.2837337e-02   1.0884596e-01   7.0722017e-01  -9.7703379e-02  -4.6424361e-01   5.7168910e-02   6.5246383e-01   9.8933601e-01  -2.8947921e-01  -9.7198787e-01   6.7021949e-01   4.6211772e-01   8.4739104e-01   4.4284056e-01  -8.1227138e-01   3.5101962e-01   1.8624371e-01   6.5470302e-01  -4.4640627e-01  -6.3226185e-01  -6.7126672e-01   4.0227934e-01  -1.6096578e-01  -1.1018093e-01   5.6315555e-01  -7.5883064e-01  -4.7659804e-01  -5.4452664e-01  -2.0780918e-02  -5.0308176e-01   8.5303482e-01   5.6951569e-01  -1.9893485e-01   9.6170010e-01  -2.0237537e-01  -2.9572954e-01  -7.8648742e-01   3.7009744e-02  -8.6707979e-01   1.5410515e-01  -1.2330446e-01  -4.1658031e-01  -8.9751235e-01  -9.9537784e-01   1.1592759e-01   7.1650025e-01  -3.8441127e-01  -1.4445830e-01  -3.4989216e-01  -1.7568995e-01   6.4145615e-01   4.9341365e-01   5.0128963e-01   6.2752904e-01  -3.6072291e-01  -3.4277021e-01   1.0378235e-01  -9.2251309e-01  -6.6254454e-01  -4.5532334e-01   9.1893088e-01   3.3738709e-01   4.3345158e-02   4.1239573e-01  -4.6163736e-01   2.7393188e-01   6.7837629e-01  -4.4083644e-01   7.4469787e-01  -4.9934520e-01  -3.2647024e-01   3.5490414e-01  -2.0725941e-01  -5.6584854e-01   3.8337360e-01   7.5470008e-01   2.9881730e-01   8.8506052e-01  -4.0061307e-01  -7.6403053e-01   8.8156705e-02   8.4990277e-01   8.6760400e-01   3.3435584e-01   6.9168585e-01   7.8901151e-01   8.7893863e-01   7.5139436e-01  -9.5007541e-01   6.8553109e-01   9.2902708e-01  -3.5469645e-01  -8.9812770e-01   1.2862552e-01   1.7754355e-01  -6.4224947e-01   4.5204788e-01   7.5105935e-01  -9.7356791e-01  -4.8178813e-01  -2.2381445e-01   1.3971298e-01   4.3154233e-01  -2.3902315e-01   1.8608743e-01  -2.9951388e-01  -2.9679585e-01
