   4.1334477e-01  -3.6436704e-01   6.6443037e-01  -7.8246723e-01  -3.7576634e-01   2.1665809e-01  -9.6183977e-01  -6.0334316e-01  -1.0236748e-01   3.3352633e-01   8.1035322e-01   9.7147672e-01  -7.3095103e-01   5.4644952e-01   9.0692185e-01   5.2562385e-01  -2.3493535e-01  -3.7339517e-01   6.8525506e-02   4.7398696e-01   6.3979534e-01   4.2575024e-01   1.3564262e-01   2.9681440e-01   9.1733432e-02   6.7801996e-01   4.3055263e-01   4.0407299e-01   1.1139412e-01  -2.8319051e-01   7.2549346e-02   5.0390057e-01  -1.3060528e-01  -3.7958409e-01  -2.4388644e-01   6.9573081e-01   8.7466985e-01   8.4294058e-01   1.7731113e-01  -3.3050591e-01   5.4798991e-01  -7.5016238e-01  -9.3707120e-02   5.1964418e-01  -5.1969388e-01   2.7944613e-01   3.5689928e-01   2.2465063e-01  -7.9349821e-01  -8.9692469e-01   1.4464773e-01  -1.6329247e-01   9.0713856e-01  -1.9865376e-01   3.6523421e-01  -5.8558992e-01  -4.7349476e-01   8.9653479e-01   5.8534565e-01   5.8180798e-01   3.6855521e-02   8.0856928e-02  -6.8950799e-01  -5.6278318e-01   7.2484175e-01  -3.5505005e-01   8.6612043e-02  -2.2216388e-02   6.9918817e-01  -1.7625188e-01   2.5674075e-01  -1.9929716e-01   3.0823310e-02   1.7883109e-01   1.2157929e-01  -2.3560097e-01   5.1347315e-01  -7.3921725e-01   7.2250691e-01  -9.5815416e-01   5.7651743e-01   3.0338656e-01  -3.5937268e-01  -9.0240907e-01  -3.6584390e-01   1.2115372e-01   4.3128336e-01  -8.0428326e-01   5.6734705e-01   6.6846198e-01   9.7175542e-01  -8.5572360e-01   3.7861314e-01   7.6688441e-01  -7.3072641e-01   9.4990065e-01   5.0050799e-01  -8.9056190e-01   4.6138364e-01  -1.0602535e-01   3.7231959e-01   6.5869552e-01  -9.5362008e-01  -8.4939907e-01   1.2169950e-01  -3.6639902e-01   2.0807069e-01  -6.3957557e-01  -4.8802906e-01   7.3525473e-01  -3.0135045e-01   2.0350386e-02   5.6128559e-01  -4.1037954e-01   3.5479232e-01   4.7511623e-01   7.8620801e-01   3.8275625e-01   7.6512043e-01  -4.6220656e-01  -4.9202598e-01  -3.0177351e-01  -6.0537025e-01  -9.2515519e-02  -3.1541833e-01  -3.0977444e-01   3.8897176e-01   4.3016807e-01   2.8263180e-01  -6.9814992e-01  -2.2151631e-01  -4.7934132e-01  -3.8168964e-01   3.6911280e-01  -7.9274454e-01   8.6102900e-02  -8.9909495e-01   2.8827384e-01  -5.1981394e-01   7.9908347e-01   3.8712935e-02  -7.4999358e-01  -8.3067303e-01  -8.2169724e-01   2.4115330e-01   1.7566567e-01  -5.9447994e-01   4.2825488e-01   4.5258191e-01  -8.1616358e-01  -8.1496886e-01  -4.4367600e-01  -2.2931273e-02  -5.6177289e-01   4.7007481e-01   6.7606669e-01  -9.5434014e-01   3.7736213e-02  -3.0331232e-01   1.8479369e-01   9.0208231e-01  -6.7453293e-01   5.0107044e-01   2.7503563e-01   7.9139369e-01  -6.0887038e-01  -3.5187681e-02  -4.6106237e-01  -1.0033194e-01  -1.8699646e-02   7.5275276e-01   2.7945851e-01  -7.3997721e-01  -7.7993528e-01   5.4405870e-01  -5.0101559e-01   5.3362547e-01  -3.8902316e-01  -1.2681524e-02  -4.2881467e-01   5.2207491e-01  -7.1911449e-01  -1.5846387e-01  -1.9055142e-01   4.9428375e-01  -5.9030120e-01  -5.6362517e-02   4.3953641e-02   8.4498465e-01  -7.0613810e-01   3.9556704e-01   5.3476127e-01   4.5553404e-02  -9.0188834e-01   8.3242178e-01  -1.4543838e-01  -1.5570508e-01   5.8942490e-01  -2.8996468e-01  -7.7428723e-01  -9.2822628e-01  -3.9989878e-01  -2.2896654e-01   5.2459967e-01  -9.9092670e-01   9.8908791e-01   4.2457331e-01   6.7765476e-01  -9.7950896e-01   3.9311822e-01   3.1403468e-01  -5.8523614e-01  -9.5507386e-01  -8.3665381e-01   6.7245032e-01  -8.0298904e-01  -7.8852612e-01   8.7172431e-01   8.0896065e-02  -3.5397071e-01  -1.0780150e-01   6.1306087e-01  -8.0698754e-02   4.0682013e-01  -4.7438002e-01   3.3347745e-01   1.8438903e-01   3.4180424e-01  -8.3242865e-01  -4.4069707e-01   7.2845275e-01  -6.9221270e-01   4.7833171e-01  -1.9225518e-01   4.1825809e-01  -6.0369740e-01   3.1713002e-02   9.8752412e-01  -4.2904248e-01   7.8304796e-01   6.0071412e-01  -9.0652027e-01  -4.2592375e-01   6.9416460e-01   9.7486478e-01  -7.8388543e-01   7.3261428e-01  -7.6878955e-01  -7.2150908e-01   2.4330332e-01   9.9236386e-01  -7.5275304e-02   6.0437131e-01   6.8789682e-01   2.0749259e-01   7.0682503e-01   8.8453864e-01  -6.3788833e-01   9.9021044e-01  -7.9013418e-01  -7.5791064e-01   9.8763213e-01   4.3140336e-01   3.7394095e-01   5.5532299e-01   3.9129005e-02   9.6254351e-01  -6.4887530e-01  -8.5850123e-01   3.3214699e-01  -9.0916716e-01  -9.5470796e-01  -9.1845176e-01  -3.0663307e-01   3.6112731e-01  -8.2722391e-02  -3.3668203e-01  -6.2769356e-01  -5.5220920e-01   4.4692411e-02  -7.9878778e-01   7.7871138e-01   8.1771741e-01  -6.3505725e-01  -9.6433695e-01   1.7010095e-01  -3.3045869e-01   9.0693426e-01  -8.3462291e-01   6.7630177e-01   1.8625702e-02   2.6471269e-01  -8.9746146e-02   8.7562608e-01  -1.3259370e-01   4.7563455e-01  -6.7069922e-01  -6.2513210e-01   9.3348736e-01   9.0403587e-01  -8.8271402e-01   1.4223580e-01  -3.0572625e-01  -3.7610845e-01  -7.8402130e-01  -6.9003753e-01   3.1876315e-01  -6.6560897e-01  -8.2089640e-01   4.4759815e-01   6.5032941e-01  -4.4548522e-01  -3.8465460e-02   9.1537415e-01  -5.4858483e-01  -4.3983023e-01  -2.6597533e-01  -9.6375208e-01  -3.0203549e-01  -2.8400243e-01   2.0257643e-01  -9.5473088e-02   9.0282488e-01  -1.3590972e-01   3.1271118e-01  -8.9233540e-01  -6.6567232e-01   9.9720618e-01   2.9118469e-01  -9.0233836e-02  -7.9020062e-01  -5.9570030e-01  -9.2111365e-01   8.3827331e-01   1.1948905e-02   2.9519879e-01  -8.9675047e-01   2.5970067e-01   3.7824644e-01   1.3284336e-01  -1.7484768e-01   1.7772812e-01  -1.3923425e-01   6.5687777e-01   7.0561059e-02   2.2657458e-01  -6.0319101e-01   2.7063543e-01   4.2287942e-01  -2.0406524e-01  -7.9208091e-01  -5.4087996e-01   8.5847844e-01   1.7501284e-01   8.8199906e-01  -4.3558895e-01   3.7412161e-01   4.7100721e-01   1.1902404e-01  -8.4215524e-01   8.0031410e-01   9.1287837e-01  -2.2720445e-01   4.5271939e-01  -9.2395392e-01   6.3205071e-01   2.7165301e-01   2.8846955e-01   8.8611608e-01  -9.2350943e-01  -6.7628701e-01  -2.2189977e-01   7.4257759e-01   9.9368783e-01   8.0380850e-01   4.8755619e-01   3.3906901e-01  -7.2845039e-01  -2.1623705e-01  -6.5588601e-01  -4.1259141e-01  -7.3944078e-01  -8.3898418e-01  -6.0953157e-01  -2.2191819e-01  -9.1023540e-01   1.4198809e-01   9.5880455e-01   7.8840160e-01   3.9457900e-01  -8.6664175e-01   7.7834514e-01   8.3704858e-01   5.0152543e-01  -9.1679230e-01  -4.7178042e-01  -5.6389385e-01  -3.0305229e-01   3.5020479e-01   1.1137610e-01   1.0145635e-01   5.6262915e-01   3.6021248e-01  -9.2131560e-03  -1.3524424e-01  -2.9653043e-01  -1.9601163e-01   4.9695267e-01   2.5690840e-01  -9.1434009e-01  -6.5080300e-01   8.3166367e-01  -7.7592273e-02  -9.9555050e-01   3.7149057e-01  -2.4615265e-01  -7.1185760e-01   2.3770246e-01   1.2308560e-02   7.4265741e-01   7.5407719e-01   6.8054972e-01  -8.5362674e-01  -2.5947432e-01   8.5359273e-01   3.9635736e-01   8.2870440e-01   8.5753621e-01   5.8764235e-01   1.7463761e-01  -5.7950992e-01  -7.1424608e-01   2.3777732e-01   6.5801269e-01  -3.3363481e-01   8.7082849e-01   4.6241357e-01   6.5464922e-01  -8.7050571e-01  -6.7085228e-01   2.1168678e-01   2.1965762e-01   8.8274074e-01   4.3280671e-01   5.2617690e-01   6.8013437e-01  -5.2494578e-02  -6.2451479e-01   3.9716392e-01   1.4245008e-01   9.6969009e-01  -2.9248723e-01   7.7535556e-01  -8.0762193e-01  -9.2025997e-01   7.1910011e-01  -4.4931077e-01   8.4757185e-01   7.4284679e-01   1.4187598e-01   3.1236271e-01   9.2687008e-01  -3.9742894e-01   5.2203844e-01   2.0445742e-01   1.8450197e-01  -3.6998397e-01  -3.2043412e-01   4.0737428e-01   4.3837184e-01  -7.9984021e-02   5.3117769e-01   8.3883656e-01  -4.2264198e-01  -1.4722361e-02  -5.1996813e-01   1.7597420e-01  -5.9021089e-01   6.1618141e-01   4.7969780e-01  -6.8875053e-02   7.0645923e-01  -2.6727986e-02   8.6009899e-01  -9.9528867e-01   8.3346860e-01  -3.3700226e-01  -5.6550505e-02  -5.6288550e-01   1.1817201e-01  -8.1169108e-02  -4.6029764e-01  -1.6517978e-01   5.5344669e-01   1.8041882e-01   2.9526459e-01   5.3149815e-01  -4.6526275e-01  -7.3545070e-01  -5.4829323e-01   5.3565946e-01  -9.7536230e-01   7.8070845e-04   2.8906632e-01  -1.4923075e-01   3.2138739e-01  -8.4302628e-01  -5.2911970e-01  -3.2104592e-01   8.8051793e-01   3.4285684e-01   8.5744406e-02  -6.5687651e-01  -2.5418262e-01   5.8783941e-01   1.3503953e-01   5.1577094e-01   9.7887207e-01   1.8866614e-01  -4.3200505e-01   2.7731174e-01  -6.0967203e-01   5.3541723e-02  -8.8659527e-01  -8.4935647e-02   3.0103920e-01   7.9032064e-01   5.7194977e-01   6.9659004e-01   4.8868386e-01  -3.3504517e-01  -6.3988639e-01  -2.8636133e-01  -3.8633622e-01   5.5366318e-01  -1.6435740e-01  -4.8318093e-01  -6.1894580e-01   7.8044992e-01   3.8033328e-01  -8.0826816e-01  -5.9109277e-01  -7.5658657e-01   3.3675236e-01  -5.1201671e-01  -7.1807765e-01   5.0370547e-01   4.9472947e-01   1.2658084e-03  -4.0492401e-01   6.3524353e-01   2.6826349e-01   3.5362149e-01  -9.3287501e-01  -8.0679047e-01   7.1144809e-01   1.8497434e-01   6.8904409e-01  -1.2346177e-01  -6.1041957e-01  -3.2225873e-01   9.3762493e-01  -7.0207497e-01   8.4488538e-01   1.0308008e-01  -5.8129561e-02   9.7643904e-01   1.3498499e-01  -8.2913890e-01   1.7586583e-01  -9.0565973e-01   7.3553748e-02   4.9583736e-01   6.5392584e-02   8.8893269e-01   2.6162000e-02   9.2914832e-02  -7.3431356e-01   8.8998944e-01  -2.7648719e-01   2.8431344e-01   2.0494185e-02   8.8854865e-02   3.9289722e-01   3.8342239e-01  -4.8318718e-01  -9.9461536e-01   9.8356598e-01   5.6841238e-01  -7.0267432e-01  -5.6693603e-01  -2.0244400e-02  -9.6272477e-01  -5.4487274e-01  -1.0405387e-01  -7.8481898e-01  -7.3531728e-01   1.6062885e-01   4.7149383e-01  -8.4355513e-01  -2.8095547e-01  -1.3856016e-01  -2.1085572e-01  -6.3754860e-02  -5.9415668e-01   2.6873722e-01  -8.5782486e-01  -2.9613635e-01  -8.2210986e-01  -4.2671636e-01   4.7188336e-01  -1.7118377e-01  -5.8812320e-01   8.3146438e-01   6.2767495e-02   3.8173354e-01  -1.3752017e-01   5.6350633e-01  -7.4753327e-01   6.7552453e-01   4.2246438e-01  -4.1439789e-01   3.5108410e-01  -8.4759447e-01   7.3978080e-01   6.3562148e-01   7.4083988e-01   2.5583080e-02  -1.7231345e-01  -2.7427396e-02   6.8455833e-01  -3.6759693e-01   2.3883788e-01  -7.3555938e-01  -1.8252053e-01   9.6110579e-01   8.5103321e-01  -1.1520919e-01   4.0752243e-01   3.8652777e-01  -2.3884100e-01  -1.3264825e-01  -4.7244176e-01  -8.7963822e-01  -2.6708098e-01  -4.0863362e-01   7.8846780e-01  -9.0201801e-01   4.8703739e-01  -4.9859687e-01  -3.8059355e-01   1.9506991e-01  -6.1132513e-01  -4.2697012e-01  -4.9325210e-01  -5.9432587e-01  -8.5405834e-02  -4.2488214e-01   5.9605159e-01  -5.0096835e-01   7.1544951e-01  -4.3844614e-01   8.0030816e-01   7.6732672e-01  -1.7396867e-01  -5.9928918e-01  -9.0838282e-01  -4.9881169e-01  -9.2914778e-01   4.7790652e-01   5.3227559e-01   6.1325816e-01  -6.3662140e-01   8.1738506e-01   6.8757528e-01   3.4587459e-01  -2.7654545e-01   5.8785107e-01   2.8091484e-01  -3.0780084e-01  -7.1309657e-01  -9.4155002e-01   2.1867508e-01   2.0096853e-02  -4.9143777e-01  -6.2300276e-01   1.8626616e-01  -3.5483775e-01   9.2556928e-01   4.1368639e-01  -6.3037476e-01  -7.9184797e-01  -1.4758771e-01  -8.7944094e-01  -6.5940129e-01   8.5918476e-01  -2.6126972e-01   6.9835607e-01   7.4296759e-01  -8.0596194e-01  -6.5583818e-01  -6.6439249e-01   7.2479649e-01  -5.3131849e-01   4.9989646e-01   2.4690132e-01   4.8681707e-01  -3.8183439e-01  -7.6507483e-01  -2.9294777e-01  -5.1392124e-01   9.0005142e-03   5.0514660e-01   9.3010947e-01   8.8906120e-02   5.6437098e-01  -6.0205145e-01  -9.8396250e-01   4.0015371e-01   6.5690743e-01   6.0128647e-01   2.3731053e-01  -4.7296951e-01  -6.4689653e-01   1.7287491e-01  -9.0951915e-01  -6.3255345e-01  -4.6533709e-01   3.0738158e-01  -7.0520707e-01   9.1041097e-01   5.5472041e-01   8.9531570e-01   5.6476771e-02  -6.3721360e-01   7.6372733e-01   7.1572346e-01  -1.4250398e-01   3.0183884e-02   2.7461667e-01   7.6214066e-01  -4.3209823e-01  -1.6639623e-01   1.4050856e-01   6.9260703e-01   8.2032676e-01   7.1068170e-01   5.8801415e-01   8.5823543e-01   7.8190875e-01   6.9735687e-01   8.4973368e-01  -4.8922035e-01   4.5820945e-01  -7.4230456e-01   1.2139384e-01  -3.5032925e-01   4.1797106e-01   5.9773053e-01   9.4877042e-01   8.9916098e-01   3.0541283e-01   9.6633570e-01  -4.6043896e-02  -9.1849927e-01   1.0023663e-02   5.0238125e-01   3.7345589e-01   9.7387185e-01  -4.3909747e-01  -7.1153855e-01  -8.5374893e-02   8.2770356e-01   9.3389887e-01  -1.4509465e-01  -1.9907403e-01  -2.8735674e-01   8.4001885e-01   4.1111032e-01  -7.5539051e-01   7.9237143e-01   3.7014344e-01   1.7944873e-01  -1.7340965e-01  -5.5650076e-01  -4.8554284e-01  -1.3102338e-02  -5.5509159e-02  -8.8256882e-01   8.8945103e-01  -6.9747783e-01   1.2120468e-01   1.0940137e-01   8.2947434e-01   2.6133114e-01   5.2576992e-01   1.4771002e-01   5.0277898e-01   7.2345171e-01  -9.1369570e-01  -7.4850957e-01   1.1700374e-01   2.8663073e-01   6.8462224e-01  -7.8042414e-01  -5.7432181e-01   6.3797520e-01  -8.5492342e-01   3.9087253e-01   9.9056087e-02  -1.7545102e-01  -5.9731445e-01  -1.4827079e-01  -9.1296541e-03  -6.8650489e-01  -3.4718362e-01  -8.1495311e-01   5.0560778e-02  -4.1429444e-01  -8.0924631e-01  -7.1090063e-01   1.7160653e-01  -8.0807634e-01  -6.1346024e-01   5.5076554e-01   2.3892516e-02  -6.0150246e-01  -9.8044880e-01   8.8655473e-01   1.5733881e-01  -9.9523595e-01   3.7383207e-01   5.2274603e-01   6.8889578e-01   3.5367064e-01   4.7072510e-01  -1.2881619e-01   5.2010266e-01   2.1419758e-01  -4.9679175e-01   4.1214174e-01   6.2189211e-01  -7.6890352e-01  -4.3324434e-01   1.1493897e-01  -1.0208701e-01  -4.5930417e-01   8.7356867e-01  -3.9012423e-01  -6.5234731e-01  -6.8987373e-01  -1.8615478e-01   5.4312420e-01  -9.2529505e-01  -3.5223596e-01   1.7338329e-01  -2.3969539e-01   7.8038690e-01  -2.0574598e-01  -2.5925274e-02  -6.4306326e-01   3.6096121e-01   6.4622498e-01   9.6765758e-01   6.9860344e-01   6.2041539e-01   4.2663421e-01  -9.5103082e-01  -8.0632157e-01   8.0817404e-01  -1.5595889e-01  -6.0841076e-01  -9.0332078e-02  -7.2885342e-01   2.3831996e-01   2.8593402e-01  -2.3260289e-01   4.6277182e-01  -6.3538699e-01  -7.4665683e-01  -8.2119849e-01  -9.8972221e-01  -2.9638044e-01  -9.2642690e-01   8.5350235e-01   2.4575068e-01  -4.4583116e-01   3.6440382e-01  -6.5524741e-01  -8.0962094e-02   5.1706738e-01   4.2442800e-01  -2.6991464e-01   5.8273490e-01   5.4576779e-01   3.8842188e-01   4.4598818e-01   4.7614143e-01  -7.8985103e-01   6.2073834e-01   1.4439530e-02   9.0986547e-01   6.9854962e-01  -4.2545331e-01   9.5280032e-01   3.9483424e-01  -4.5222431e-01   8.1278522e-01  -5.6152391e-02   3.7780117e-01   1.0334457e-01  -3.3789080e-01  -4.5518426e-01  -9.8000417e-01  -8.6238868e-01   1.4159927e-02  -4.6832307e-01   2.9774568e-02  -5.4067836e-01  -9.1461121e-01   4.2277111e-01   8.6014992e-01  -4.0365712e-01  -3.5721141e-01  -6.7146077e-01  -1.4158298e-01   7.0631534e-01   1.9784833e-01   1.8790164e-01  -9.8973720e-01   8.1252526e-01  -6.8215256e-01   6.9305527e-02   1.6826270e-01  -7.2427835e-01   2.0300513e-01  -8.2619552e-01  -9.1707859e-01  -8.7121611e-01   2.6316613e-01  -2.7235915e-01   8.0984031e-01   1.9167015e-01   4.9787618e-01  -5.9229279e-01  -7.2834674e-01   9.1673841e-01   5.5597272e-02   1.9266550e-01  -1.4023497e-02  -4.8833020e-01   5.1016011e-02   4.5421867e-01   8.1233522e-01  -1.6148906e-01   3.7513128e-02   5.3752767e-01   8.9423462e-01   6.2795196e-01   4.2593898e-01  -7.7212269e-01  -9.3856793e-01   3.7852673e-01  -5.0059178e-01   5.5387539e-01  -8.1441766e-01  -4.2955669e-01   7.8646079e-02   8.8975306e-01  -7.8371518e-01   6.0371374e-01   4.6796551e-01  -4.9514341e-01   6.9568332e-01   9.5412790e-01  -1.1832090e-01   1.0636760e-01   3.6373729e-02   3.1952449e-01   9.2918607e-01  -1.6936247e-02  -1.2391666e-01  -5.7651989e-01   6.1200602e-01  -4.3997396e-02  -5.9833977e-01   9.1740863e-01  -1.3523129e-01   6.2441142e-01  -2.3736570e-01   9.6398399e-01  -9.3671367e-01  -9.4752134e-01  -6.7380162e-02  -1.8363929e-01  -6.1604102e-01   6.8160618e-01   4.7242992e-01  -4.7405645e-01  -8.9476600e-01
   1.9657440e-01  -1.4020352e-01  -3.7077225e-01  -6.2416256e-01   9.9020002e-01   6.1787435e-01  -1.1198257e-02   3.4987369e-01  -5.2775698e-01  -8.0175965e-02   3.0475528e-02  -4.0327567e-01  -5.5748854e-01  -1.1941696e-02   3.7530238e-01  -5.8440580e-01   6.8246644e-01  -8.1855791e-01   1.8271311e-01  -5.4200788e-02   6.4527923e-01   8.6004344e-01  -1.5953244e-01   5.0178349e-01   5.6028965e-02  -1.2170107e-01   7.7935565e-02   8.4319079e-01  -9.7605062e-01   9.1436352e-01   1.9761371e-01  -2.4306112e-01   9.3834536e-01   7.1948139e-01  -3.7612915e-01   5.4889235e-01   4.7002097e-02   2.7106143e-01  -7.6948187e-01   6.3788731e-01   9.7951171e-01  -1.8991099e-01  -9.5094498e-01  -3.4951870e-01  -5.7970508e-01   7.5956655e-01   1.0186189e-01   3.9573798e-01   9.4374210e-01  -4.3022036e-01  -3.2460897e-01   7.0426622e-01   4.7509984e-01   7.7604495e-01  -1.8797941e-01   3.9007512e-01   2.9414184e-01  -6.9833756e-01  -8.2601823e-01  -4.9528205e-01  -6.4933515e-01  -6.8099716e-01  -2.3926491e-01   2.2475912e-01  -3.3198477e-01  -3.2582579e-01   7.5981924e-01   7.9223619e-01   1.6780101e-01   8.6372772e-01  -7.3842189e-01  -2.4974733e-01   6.5280931e-01   6.7651392e-01   9.8301001e-01  -7.6813751e-01   5.0514481e-01   9.8542573e-01  -3.3706586e-01   6.9632501e-02   8.6280826e-01  -5.2931833e-01  -2.0242385e-01  -2.8110432e-01  -9.9911379e-01   1.3180639e-01   2.6990516e-01  -1.7117614e-01  -1.1634772e-01   9.4956289e-01  -2.0142621e-01  -3.1388766e-01   3.5972549e-01  -3.1914553e-01  -1.3788296e-01  -8.7516307e-01  -7.2199582e-01   6.9583680e-02  -8.4089880e-01   8.1740089e-01  -5.6035366e-01   3.1787283e-01  -1.4621991e-02  -8.3299665e-01   2.3933591e-01  -4.2952220e-01   8.4663307e-01   3.1952750e-01  -1.6437231e-02  -3.5781945e-01   6.1202944e-02  -4.6714375e-01   6.9538944e-01   5.7572230e-02   3.8460463e-02   7.3343364e-01   7.2506391e-01  -3.5124099e-02   2.1348096e-01  -8.8117457e-01   5.6732263e-01  -5.4472872e-01  -4.8181189e-01   2.4384995e-01   1.5238433e-01  -4.4792116e-01   9.8995004e-02   8.8345160e-01  -2.1210401e-01   9.1863612e-02   1.0096540e-01  -8.7239993e-01  -4.3975141e-01  -7.7200873e-01   1.4189515e-01  -9.5287448e-01  -6.3367177e-01  -2.2048678e-01  -6.2997369e-01   2.1405429e-01  -5.3700800e-01   8.1035602e-01  -5.3856510e-02  -1.6244400e-01  -3.7140988e-01  -2.8147685e-01  -6.9433953e-01  -4.4673938e-01   9.0175982e-02   6.8610442e-01  -9.5258314e-01  -5.8893611e-01  -1.2621573e-01  -7.8656572e-01   1.2207687e-01  -8.5826853e-01   7.2235854e-01   7.8483116e-01   9.4105143e-01  -6.2076821e-01   2.1786929e-01  -7.0408699e-01   8.4518963e-01   2.7958149e-01  -4.1091250e-01  -5.5538245e-01  -7.0791258e-01   3.9644153e-01   9.2721793e-01  -3.7085732e-01  -1.7016425e-01  -9.1263151e-01   7.7949464e-01  -1.3725524e-01  -5.7369908e-01  -6.3965653e-01  -5.7114920e-01   5.4230674e-01  -2.8752032e-01  -1.9909941e-01  -5.5631943e-01   2.7967347e-01  -2.7137765e-01   8.4214671e-01  -3.5292593e-01   5.4586793e-01   7.0227632e-01   7.5392489e-01   9.8317871e-01  -5.9969809e-01   9.2891421e-01   5.9772146e-01   1.9034071e-02   7.1219193e-01  -7.9307730e-01   3.1047688e-01  -9.4625353e-01  -8.7424873e-01  -5.7166220e-01  -9.6334640e-01  -3.1893597e-01   9.9459600e-01  -3.0797820e-01  -5.8150685e-01  -3.2176811e-01   9.1009746e-01  -3.5532002e-01   2.1881193e-01   5.9564792e-01   4.8757308e-01   7.6833988e-01  -8.7335817e-01   8.3804121e-02   6.9852662e-01   7.4325041e-01   7.6401208e-01   9.1650628e-01   3.7438882e-02  -7.3333304e-01  -7.2111022e-01   8.0781838e-01  -1.6194532e-01  -2.9873753e-01  -6.6371300e-01  -9.7456293e-01  -8.5735464e-01  -8.2515331e-01   8.1593078e-01   4.4599318e-01  -9.0838117e-02  -5.5595493e-01   6.5621776e-01   8.6279036e-01   3.4323271e-01   3.6650037e-01  -7.5112207e-01  -3.8643249e-01   4.3938783e-01  -4.9524878e-01   4.7908143e-01  -3.0065890e-01  -1.2512245e-01   9.4180888e-01   2.3310333e-01  -7.1726309e-01  -1.6300851e-01   1.1124294e-02   4.0491155e-01   1.1594460e-01  -6.6587014e-01  -7.4251757e-01   8.4606939e-01   8.8434121e-01  -6.5623730e-01   6.7216876e-01  -6.1249809e-01  -5.7476371e-01  -1.9367926e-02   3.2138129e-01  -7.6758160e-01   8.1517396e-02  -4.2944150e-01  -1.3822600e-01   9.0918425e-01   2.5037686e-01   1.8095950e-01   3.3069979e-01  -6.2728144e-01   1.0605329e-01  -8.3233140e-02   6.7199704e-01  -9.4783138e-01  -9.2898221e-01  -4.6038063e-01  -5.9349209e-02  -3.1799333e-02   6.9834546e-01   4.4794359e-02  -9.5774414e-01  -2.4531040e-01   2.1328147e-01   2.7933640e-01   3.2422334e-01   6.8058151e-01   5.7360708e-01   4.8768322e-01  -2.6718517e-01  -4.2460076e-01  -1.1826980e-01   5.0729080e-01  -7.3005015e-01   6.9371207e-01  -9.5471997e-01  -2.8182956e-01  -7.0041969e-02  -4.0170832e-01   7.9660295e-01   1.1910917e-01  -8.8036062e-01  -3.7838191e-01  -5.4592073e-01   8.2114448e-01  -3.4217288e-01  -8.8584814e-01   5.5337280e-01   6.7744020e-01   9.5972779e-01   1.8602380e-01   6.3384057e-01   2.8659078e-01  -9.3828344e-01  -7.1219088e-01  -1.9148557e-01   8.9411861e-01   6.9696121e-01  -7.2005274e-02   6.9166020e-01   9.4311173e-01  -4.5316194e-01   2.1194891e-01   5.1542187e-01   5.3496360e-01   6.9047426e-01  -9.3237844e-01  -1.5547628e-01  -1.9848448e-01  -8.7949251e-01   7.2876252e-02  -6.2786044e-01  -9.5112727e-01  -4.7195501e-01  -5.0254865e-01   5.4045271e-01  -3.5701028e-01  -1.1103268e-01   4.8556592e-01  -6.2791184e-01   8.6341437e-01  -2.1119934e-01   7.4370808e-01  -8.7254566e-01  -5.2239131e-01  -8.5387684e-01  -9.9653668e-01   7.5717292e-01   4.0625580e-01  -1.9607361e-01  -5.9820049e-01   6.6782699e-01  -7.4355650e-01   3.9258534e-01   1.8312875e-01   8.4813727e-01   7.8137229e-01  -9.4036622e-01   1.8062351e-01   2.0688778e-01   9.1384087e-01  -5.6112097e-01  -8.7251822e-01  -5.6683807e-01   3.3041524e-02  -3.9046693e-01   2.2626452e-01   9.5619423e-01  -8.6080826e-01  -4.2128027e-01   8.5066015e-01   1.3580101e-01  -7.5634064e-01   1.3502420e-01  -7.3042063e-01   6.3800668e-01   7.5243674e-01  -8.2019652e-01   9.1868318e-01  -9.9931567e-01  -2.9220658e-01  -5.1277667e-01   6.0567018e-01   3.2812543e-01   2.8603362e-01   5.0088424e-02  -1.9064080e-01  -9.2263090e-02  -8.1399630e-01  -7.2534761e-01   4.7385484e-01  -6.8618244e-01  -8.3852290e-01  -9.4149766e-01   1.8773758e-01   2.8024025e-01   5.8227201e-01  -1.3137093e-01   4.3422453e-01   1.3885702e-01  -2.7601275e-01  -1.9749433e-02   4.9215415e-01   5.2165217e-01   4.2194388e-01  -6.2320141e-01  -2.2542091e-01   2.3233495e-01   3.5183756e-03  -9.2842214e-01  -9.8946873e-01  -5.8272837e-01  -4.7725829e-01  -9.7436401e-01  -3.3717850e-01  -7.7494652e-01   1.1790112e-01   5.4996054e-01   9.7652450e-01  -6.6376389e-01  -8.4598759e-01   3.0284758e-01   8.5121290e-01  -6.5988757e-02  -5.4330176e-01  -7.2917211e-01  -4.0468419e-02  -6.6821714e-01   2.8031084e-01   3.4876538e-01   7.0470790e-01   5.8893532e-01  -5.6455384e-01   9.9148758e-01  -2.8108764e-01   8.0743216e-01   3.9933995e-01   1.9431683e-01   9.1138189e-02   9.4819318e-01  -9.8176845e-01  -9.8379534e-01   5.9650950e-01  -6.3639956e-01  -1.3958954e-01   6.6699938e-02   9.0076858e-01  -1.3667011e-01   6.3337569e-01  -3.4980377e-01  -4.4808113e-02  -7.4597129e-01   1.3961617e-01   8.9539836e-01   5.6904844e-01  -4.1098646e-01  -3.9015755e-01   5.9769498e-01   8.6006008e-01  -9.7470508e-01   9.7757765e-01  -6.9220763e-01  -1.9091432e-01   6.6419741e-01   9.9995792e-01  -7.2825078e-01  -1.9083161e-01  -6.4142651e-01   9.5047359e-01  -9.9656180e-01  -4.7300085e-01   3.6973756e-01   2.2666583e-01   1.4200992e-01   6.2262537e-01   2.1537728e-01   7.5599543e-02  -5.0793363e-01  -5.3160550e-01  -3.8510946e-01  -4.4683055e-01   7.3049888e-01   3.1967777e-02   1.3060570e-01   7.5608760e-01   1.1250156e-01  -1.7023060e-01  -8.6474431e-01  -8.1933096e-01   6.2228960e-01   7.6720204e-01   3.2177672e-01  -5.9267706e-01  -2.7681254e-01  -6.5636020e-01  -6.4193272e-01  -3.1510046e-02  -7.4605172e-01   1.0740741e-01   4.2224275e-01  -6.1866036e-01   8.2642467e-01   1.6403216e-01   1.1197850e-01   7.2776314e-02   8.8099379e-01  -5.1741845e-01   9.1624778e-01   6.5889934e-01   1.7892317e-01   1.7537120e-01  -6.2580660e-01   2.1429946e-01   3.7598477e-01   5.0265704e-01  -1.9874341e-02   8.2452511e-02  -5.9227127e-01  -8.3125145e-02  -2.2334573e-01  -7.2350554e-01   6.2797607e-01  -7.3053422e-01  -2.1589766e-01   9.0397648e-01   1.8717303e-01   5.1045358e-01  -7.5115384e-01  -5.7762034e-01  -1.4384530e-03   4.7954402e-01   7.1577486e-01  -9.1916371e-01   6.4530936e-01   5.2735687e-01   2.1832884e-01  -8.8688844e-03   9.0360569e-01   4.4853519e-01  -8.8931641e-01  -5.7233061e-01   8.7059638e-01   8.0186638e-01  -5.0364531e-01  -4.6784333e-01  -6.4943634e-01   3.9184277e-03   9.0195904e-01  -1.1860299e-01   8.5838911e-02  -2.9647914e-02  -9.9140998e-01   8.9836902e-01   7.4830973e-01  -9.9381410e-01  -1.5588067e-01   1.2354657e-01  -3.3799846e-01   4.8765180e-01  -4.1885495e-01   6.0753739e-01  -3.9770086e-01   9.5898860e-01  -4.5995227e-01   1.4201062e-01  -7.5435023e-01  -6.7501364e-01   8.5853233e-01   2.6911285e-01  -4.2804269e-01   1.8318555e-01  -3.0415065e-01  -5.5723814e-01   8.4506764e-01   6.2339160e-01   5.9043532e-01   8.7331415e-01   4.8286896e-01   9.2761806e-01  -9.1813544e-01   2.3651045e-01  -4.1427466e-02   4.0951087e-01   4.6630622e-01  -7.2845706e-01   9.8976503e-01  -5.3697579e-01   6.0314164e-02   4.0311077e-01   6.6048224e-01   1.5855243e-01  -8.9873425e-02   7.5819600e-01  -7.5718022e-01  -9.2328389e-01   6.4006775e-01   6.6091816e-01  -1.2808209e-01  -6.4578115e-01  -8.2879418e-01   5.9968156e-01   5.4535707e-01   1.3218321e-01   7.1032892e-01   2.2813968e-01  -3.2047594e-01   7.1603590e-01  -3.9176506e-01   1.8820236e-01   4.9312844e-01   1.7099824e-01   1.2488131e-01   3.0059010e-01   1.6336614e-02   9.4799984e-01  -1.9642851e-01  -3.5715107e-01   7.1943548e-01   6.9014854e-01   7.4066411e-01   6.6767038e-01  -1.0206529e-01  -9.4509755e-02  -6.7511129e-01   7.0154038e-01   5.8626125e-01  -6.3663398e-01  -4.6890496e-02   5.7820196e-01   2.7467569e-01  -4.4489209e-01  -3.3450200e-02  -4.3975482e-01  -8.6210636e-01   9.2776679e-01   3.7196980e-01  -1.5433701e-01   6.1876182e-01  -9.7084077e-01   7.8249112e-01   4.6465354e-01   6.0255212e-01  -8.5848736e-01   7.9191012e-01   7.7650868e-01   8.2898652e-01  -2.1734694e-01   1.3477427e-01  -4.5746623e-01   7.3715583e-01  -5.6681452e-01  -2.8898652e-01  -6.0747917e-01  -4.4263114e-01   4.1899233e-01  -3.4356701e-01  -3.3754792e-01  -2.4520110e-01  -6.3739663e-02  -5.0839679e-01   8.3427089e-01  -9.6180836e-01   5.0419084e-01   2.9242007e-01  -7.8874826e-01  -2.2140607e-01   4.1969243e-01  -9.9241865e-01  -9.5443271e-01  -7.8143766e-01   9.0379983e-01   2.8304766e-01   8.3310975e-01   8.3618537e-01  -3.2541369e-01  -4.3248481e-01  -9.6562034e-01  -7.5446394e-01  -9.9871447e-02   6.7231293e-01  -8.3837167e-01   2.2503926e-01  -6.7179211e-01  -5.5568518e-02  -3.5220594e-01   5.9806592e-01  -4.9256537e-01   4.0737799e-01  -8.5441429e-02  -4.6709652e-01  -4.0410936e-01   5.5246702e-01  -3.8536001e-01   4.1552752e-01  -6.4747465e-01  -2.3459821e-01  -9.4713768e-01  -4.1723902e-01   6.8974647e-01   6.1925171e-02   8.4079987e-01  -2.0154912e-01  -1.0436486e-01  -6.7299484e-01  -3.6524359e-01   7.6978266e-02  -7.0263060e-01   3.1924947e-01   4.7857860e-01   1.8692752e-01  -3.0474659e-01   8.4929801e-01   7.7560851e-01   4.2706844e-01   4.5259329e-01   3.5325103e-01  -3.3822330e-01  -4.3404847e-01   7.7446259e-01  -5.6204291e-01   2.4925984e-01   1.5519939e-01   9.2313758e-01  -5.6744171e-02  -4.7907166e-01   5.4206639e-01  -1.2279385e-01   6.0478317e-01   6.0441209e-01  -9.1138047e-01   4.6257398e-01  -1.6522806e-02   8.7012415e-01   5.8078088e-01  -3.1274736e-01  -8.4824747e-01   6.3406622e-01  -7.1850700e-01   1.6458476e-01   8.8848604e-01   5.5248696e-01  -2.4821913e-01   7.6580165e-01  -5.0426035e-01  -2.1085037e-01   8.5188133e-01  -7.5923073e-02  -8.7261643e-01   4.2409034e-02   7.8391399e-01   7.0981814e-01  -3.9200479e-01   5.8300726e-01   3.3667924e-01   9.0966205e-01   3.7475531e-02  -8.3516425e-02   1.1608330e-01   5.2595770e-01   1.1544336e-01  -2.5717089e-01  -5.6343788e-02  -8.8924273e-01   4.0536650e-01   3.8318946e-01   4.4369524e-01  -5.0446630e-01  -8.9618404e-01  -9.1725605e-01  -4.6438947e-01   3.8130337e-01   5.6090358e-01  -8.4834675e-01  -3.2112271e-01  -4.4983737e-02  -3.8360232e-01   1.9971725e-01   1.1631625e-01   3.7039080e-01  -5.7230543e-02   7.7953515e-01   2.4303857e-01   3.1050249e-01  -2.7017871e-01   7.6908531e-01   8.7125920e-01  -7.8013863e-01  -4.9719523e-01  -6.2927177e-01   5.0346540e-01   4.2077496e-01   5.7779991e-01  -7.2578194e-01  -9.2119836e-01  -3.5323697e-01   6.3003218e-01  -4.5907687e-01   8.0255556e-01   2.2482765e-01  -1.9352804e-02   2.6365853e-01  -2.3086114e-01   7.4700622e-01  -7.9423552e-01   1.6362377e-01   6.6675439e-01   7.6385174e-01  -3.8171341e-01   8.8969275e-01   6.7185714e-01   6.4593973e-01   6.1849263e-01  -2.2258165e-01  -6.1818875e-01   7.8158594e-01  -5.7499461e-01   5.3898283e-01  -5.8481131e-01  -1.4844088e-01  -7.8241753e-01  -1.5658111e-01  -9.6425368e-01  -3.0604079e-01  -5.7560339e-01   8.3033168e-01   1.0007799e-01  -3.8396654e-01  -9.2514310e-01   2.5598059e-01  -8.6377828e-01  -2.0337544e-01  -1.2138296e-01  -3.6887180e-01  -6.3888445e-01  -1.1564321e-01  -1.2683521e-01  -5.4992473e-01   8.3751604e-01  -3.4708857e-01  -4.9811563e-01  -7.8013409e-02   1.6646615e-01   3.6477998e-01  -8.7907365e-01   6.6952188e-01   6.1804581e-01  -3.7087879e-01  -2.0256115e-01   7.5522048e-01   5.6353635e-01  -2.1053304e-01   8.0067300e-01   7.0265360e-02   1.7521940e-01   7.7866189e-01  -9.2878430e-01  -5.8939948e-02  -9.5126516e-01  -4.0658843e-01   7.7628832e-01  -6.9664142e-01  -6.7090007e-01   4.9995406e-01  -8.8456723e-02   9.3281392e-01   7.2059811e-01  -7.6445845e-01   7.7731710e-02   7.0568256e-01   7.5560712e-01  -9.7506078e-01   1.5063697e-01  -7.5141016e-01  -5.9404621e-01  -8.5414819e-02  -6.3323828e-01  -3.7880368e-01  -8.5205391e-01   2.3413979e-01   7.1483187e-01  -9.6539847e-01  -3.4830898e-01   7.9130477e-02  -7.2054817e-01  -6.6113889e-01   9.3694646e-01  -5.5803026e-01  -5.6705829e-01   6.8181694e-01   2.4302079e-01   5.2805905e-01  -4.4680196e-01   3.8624984e-01  -5.9063681e-02   8.7825130e-01   4.0993278e-01   8.1319451e-01   5.0613084e-02   8.7773992e-02   4.0999985e-01   9.8711892e-01  -7.1989063e-01  -9.2705409e-01  -9.0956167e-01  -4.5248286e-01   5.4072207e-01  -6.4618079e-01  -4.9635628e-01   6.7593244e-01  -3.3047342e-01   5.9450329e-01  -1.1344004e-01  -9.5378299e-01   4.8384850e-01   4.9157406e-01   1.4210109e-01  -9.5007262e-01  -3.7539346e-01   4.3752740e-01  -1.2031971e-02  -7.5654197e-01   5.0310141e-01  -2.7861124e-01  -3.5746292e-01  -5.0075182e-02  -8.6136477e-01  -8.2104600e-01  -6.3768690e-01  -9.4497664e-01  -6.6091861e-01  -5.1435000e-01  -5.6823122e-01  -2.1007713e-01  -2.4751654e-02   2.9378559e-01   4.2507441e-01   9.8305780e-01  -4.1151662e-01   2.3564468e-01   9.1394479e-01  -9.5470472e-01   2.7782953e-01   2.1787282e-01   3.3263707e-01  -2.1917268e-01   7.2845633e-01   4.8990075e-01  -2.4523961e-01  -2.3409863e-01  -5.9694083e-01  -6.9689208e-01   6.2185063e-02   1.8738461e-01   2.6194768e-02  -9.4179187e-01  -4.7665524e-02  -4.7474860e-01   5.5739270e-01   1.7420343e-01   2.5613595e-01   7.6229637e-02  -2.2252028e-01  -5.6092280e-01   8.8377759e-01   6.7904932e-01  -8.7225706e-01   2.1784876e-01   9.1208330e-01  -6.4431624e-01  -1.6537516e-01   7.0440906e-01   1.8234571e-01  -8.5449412e-02  -8.2193893e-01  -2.7556152e-01  -7.0273573e-01   3.7366960e-01   7.4209822e-01  -5.3552748e-01   9.2423079e-02  -3.7787485e-01   4.3265600e-01   2.6542095e-01  -3.6034485e-01   8.0621820e-02   7.4676680e-01   8.5399965e-01  -2.2391625e-02   3.0696515e-01   7.4228200e-01   9.4591112e-01   1.5829750e-01   9.2043523e-01  -1.0514879e-01   2.2203073e-01   9.3133013e-02  -3.8800808e-01   3.2175113e-01  -6.8679643e-01  -9.8646191e-01  -9.4004980e-01   1.3228629e-01   9.6403668e-01
   7.3087866e-01  -6.2616279e-02   2.7919869e-01   7.3547659e-01  -1.2217385e-01  -3.0090561e-01  -4.5148916e-01   2.9738279e-01  -6.8376017e-01  -4.2006462e-02   5.3162761e-01  -3.1492073e-01  -8.8759038e-01   7.9048436e-03  -2.3318448e-01  -3.1520470e-01  -8.6032612e-01   7.1603840e-03  -6.7650288e-02  -3.8171808e-01  -5.7519372e-01   8.6205660e-01   7.5588143e-01  -6.9279812e-01   5.0906771e-02  -5.9292959e-01  -4.5336916e-01   4.9183713e-02  -4.1510105e-01   2.3704060e-01   6.0270849e-01   1.1806132e-01  -2.6147787e-01   6.6860280e-01   6.9735613e-01   4.8140614e-01   1.2842020e-01  -1.3205765e-01   9.2196673e-01   3.7313545e-01  -5.6998751e-01   5.7376247e-01   6.7855824e-01   3.0543763e-01   9.2299592e-02   3.0132400e-01  -7.4206614e-01  -6.9026001e-01  -4.4436441e-01   5.2917134e-01  -6.5127260e-01   8.7125554e-01   4.6392873e-01  -2.2825536e-01  -7.1614670e-01  -6.8694791e-01  -1.3112228e-01   8.1333133e-01  -3.7501266e-01   3.4504520e-01  -1.6494872e-01  -3.2329961e-01   2.2120931e-01   8.2156117e-01  -3.8067509e-01  -2.2066756e-01  -3.3766025e-01  -4.4299616e-01   4.7920355e-02  -8.1467620e-01   5.7894466e-01  -3.4254598e-01  -9.4170573e-01  -2.7619157e-01  -3.1509731e-01   2.0743023e-01   7.6525572e-01  -5.5224767e-01   8.0151941e-01  -9.8682218e-01  -6.9382406e-01   4.0037973e-01   8.8207501e-01  -5.7989435e-01  -9.5241404e-01   6.7284194e-01   2.8165118e-01  -2.3609524e-01  -7.9050847e-01   1.4285706e-01  -2.2807244e-01   3.7703073e-01  -5.5032097e-01   8.8351641e-02  -8.2922615e-01  -8.3690435e-01  -3.9517532e-01  -2.8365098e-02  -7.3807445e-01  -1.2507058e-01   5.6641370e-01   6.3580589e-02  -9.0888231e-01  -7.8626422e-02   8.5123794e-01  -6.2208871e-01  -4.2108520e-02   5.4886395e-01   5.6839881e-01  -7.9040943e-01   2.2391041e-01  -7.3750440e-01  -9.0166304e-01   7.5075337e-01   4.4408897e-01   5.5123978e-01   3.5108452e-01  -9.9849449e-01  -4.6196246e-01   7.4278501e-01   5.2235362e-01   9.9573721e-01   3.0656311e-01  -6.4868543e-01  -8.4047725e-01  -8.4508147e-01   6.6260792e-01   4.1711336e-01  -4.0543891e-01  -5.1189921e-01  -5.4107635e-01   5.6677188e-02   4.2583407e-01  -8.4924880e-01   8.7372260e-01   7.8533842e-01   2.2452523e-01  -9.0424739e-02  -4.3804542e-02   8.3188207e-01   2.2039708e-01  -8.5765796e-01   5.2001505e-01   2.7809996e-01   8.9405788e-01  -7.4142219e-01  -7.4679075e-01  -7.9424183e-01  -7.5969892e-03   9.5785068e-02  -5.4321576e-01   1.3639164e-01  -9.9893070e-01  -3.7365452e-02  -6.2747639e-01   6.2697767e-01   4.6540129e-01   2.4908026e-02  -2.7625458e-01   4.9717716e-01  -4.1012520e-01   7.4786497e-01   9.1299968e-01   5.5198214e-01   1.9420715e-01   2.2573515e-01  -6.0618850e-01   4.9774550e-01  -4.6423176e-01  -1.2738342e-01   5.6392699e-01   4.9993871e-01   5.4058171e-01  -1.6012117e-01  -4.4515487e-01  -1.3126622e-01  -7.4681914e-01  -8.4741443e-01  -8.4583202e-01  -9.1916865e-01  -5.3225938e-01   5.1658601e-01   9.0831178e-01  -8.7720271e-01  -9.4765613e-01   7.8623377e-01  -4.3384450e-01   2.4123720e-01  -3.1949582e-01   5.7006814e-01  -5.2276637e-01  -1.4834650e-01  -9.8114582e-01  -9.2164398e-02  -6.9065536e-02  -2.0198062e-02  -1.0313537e-01  -8.9497613e-01  -9.9727215e-01   5.0194102e-02  -5.8112311e-01  -7.1833290e-01  -9.2755816e-01   5.4098145e-01  -4.4365647e-01  -4.9991494e-01  -9.6792821e-01  -9.7484470e-02  -7.9537232e-01   2.0745928e-01  -6.8665827e-01   6.1383915e-01  -1.8510951e-01  -2.3054778e-01  -2.3736445e-01   2.6720706e-01  -7.5528736e-01   9.2056072e-01   1.2907405e-01   8.8156957e-01   9.2481873e-01  -7.6894706e-01   5.7130169e-01  -9.2320779e-01   1.3751119e-02   9.5146334e-02   9.1444703e-01  -2.1129542e-01  -7.7416255e-01  -8.3326764e-01   9.3791823e-01  -9.1855443e-01  -1.0875373e-01   7.3827047e-01  -7.9759704e-01   3.9169522e-01   5.2562911e-01   7.0483111e-01   7.7100377e-01   7.7783266e-01  -8.5796226e-01  -1.5615466e-01  -3.4252767e-01   8.9470052e-01  -4.9984516e-01  -6.9590445e-01  -3.9223552e-01  -6.7166419e-01   5.4116913e-01   9.9737841e-01   4.7589009e-01  -8.3050860e-01  -8.4184905e-01  -3.8331969e-01  -3.1104913e-01   9.9828017e-01   3.7419331e-01   6.1569713e-01   2.4284959e-01  -7.7154732e-01  -7.6780062e-01  -1.5629351e-01  -7.1480532e-01  -9.3179824e-01   2.3529563e-01   3.1281096e-02   7.4393773e-01   8.3392495e-01   6.3341000e-01   9.9151055e-01   3.8195771e-01  -9.4786851e-01   3.5705096e-01   6.6635417e-02  -2.4336140e-01   9.0080494e-01   1.5412606e-01  -1.7774868e-01  -1.1741198e-01   9.2431400e-02  -6.5680269e-02   7.2915961e-01   8.4610461e-01  -3.0934512e-01   8.5218914e-01  -7.6439181e-01  -5.1942477e-01  -8.1599292e-01   7.7929213e-01   7.6005090e-01   5.7207889e-01   8.2497281e-01   9.3387944e-01  -4.1936508e-01   9.1460293e-01  -7.0436377e-01   5.8534082e-01   9.1850248e-01  -3.7748419e-01  -9.8286113e-01   5.0111026e-01   7.7737359e-01  -6.6564453e-01  -4.8115256e-01  -3.1032878e-01   7.8647337e-01  -4.8438661e-01   8.1641323e-01   5.7220269e-01   8.5095068e-01   2.8474274e-01   3.4076900e-01   9.2908209e-02   5.9162656e-01  -5.8411755e-01  -6.5996576e-01   5.4376263e-01  -4.1248661e-01  -8.0847779e-01   3.9044109e-01   2.3202325e-01  -9.7054440e-01   9.8502257e-02  -4.1384141e-01   3.0841762e-01  -3.1010593e-01  -6.6175142e-01  -9.6009692e-01  -1.4949398e-01  -9.3571131e-01   9.6396129e-01  -3.5286855e-01   9.7829859e-01  -4.0403485e-01   8.2001912e-01  -4.1939778e-01   2.7892513e-01  -5.5076295e-01   7.6700162e-01  -4.4526464e-01   9.3801840e-01   7.4393418e-01  -1.6345989e-01   8.7505858e-01   3.1418293e-01  -6.0446337e-01   4.3623474e-01   5.3372543e-01  -9.8067517e-01   7.2629436e-01   6.4498503e-02   6.8911679e-01  -5.2934121e-01  -4.2530052e-01   4.3570089e-01  -6.9904490e-02  -6.1876415e-01   4.4350142e-01  -2.4788763e-01  -4.2222124e-01  -3.4651563e-01   7.7105992e-01  -8.3255593e-01  -6.4822198e-01   8.3102145e-01   8.3026967e-02   1.9403593e-01  -6.8817391e-02  -8.8204173e-01   5.2163586e-01  -7.7859631e-01  -3.9752530e-01   5.9235353e-02   2.9920977e-01  -6.9926730e-02  -8.6247716e-01  -3.5299257e-01  -3.0348979e-01  -6.4668440e-02   1.1574784e-01   1.6140939e-01  -2.4437722e-01  -5.3379206e-01   4.9146763e-01   5.5368048e-01   6.6171387e-01  -8.1097583e-01   5.7975872e-01  -1.6214512e-01  -6.0423425e-01  -2.1573475e-01  -2.1903112e-01   8.3044906e-01  -8.7666870e-02  -6.5472297e-01   6.4140841e-01   2.7006516e-01   6.4586770e-01  -5.6066707e-02   9.9055609e-01   3.0377175e-01  -6.3522612e-01  -7.6759140e-01   2.8985919e-01   7.2158427e-01  -2.0562889e-01  -3.7432343e-01  -4.9436715e-01   2.5179930e-01   8.7643442e-01  -8.2216500e-01  -2.0394299e-01   9.0908305e-01   5.9978273e-01  -9.0650374e-01   5.4783301e-01   3.7722916e-01   4.0033769e-01   6.8373606e-01   4.4899201e-01  -4.7618430e-01   2.6251421e-02  -6.7301147e-02   2.4640007e-01  -5.2208581e-01  -6.4380831e-01  -3.9442919e-01   4.3377027e-02  -2.1447159e-01   2.7869219e-01  -9.9219445e-02   3.6069844e-01  -4.4051488e-01   6.9709465e-01   6.8208483e-01   5.8396871e-01  -3.9225604e-01  -7.7831477e-01   8.2383610e-01  -4.2962320e-01   7.4912107e-02   9.9758691e-01   4.0456530e-01   3.3679240e-01   5.8260217e-01  -9.6646429e-01  -7.6898859e-01  -8.7389788e-01  -3.2361469e-01  -2.6497792e-01  -9.8097283e-01  -1.4714607e-01   5.6183906e-01   8.0642571e-01  -8.2510014e-01  -6.6090970e-01   3.4222819e-01   1.1337602e-01   7.5107100e-01  -2.1505523e-01  -1.0363095e-01   8.7869203e-01  -8.4987746e-01   5.1130845e-01  -7.0884756e-01   9.5764312e-01  -9.9631135e-01   8.0305614e-01  -3.6680634e-01  -4.6308749e-01   4.7850337e-01   2.3332502e-01  -1.5556603e-03   3.3189273e-01   3.9048564e-01   4.8917901e-01   7.7537358e-01   1.3210638e-01   3.2283388e-01  -4.7436948e-01  -1.1027893e-01   6.2060900e-01  -2.7241274e-02  -2.4294924e-01  -7.0509820e-01   3.6924246e-01   6.2838357e-04  -8.1024386e-01   5.4806693e-01   6.1652337e-01  -5.0748931e-01   1.7396530e-01  -7.7626070e-01  -8.2544840e-01   7.4411856e-01  -5.2060060e-01   9.4125582e-02  -6.8302040e-01   5.0651705e-01   1.5148075e-01  -1.5661200e-02   5.1386669e-01   6.6252199e-01   1.2610740e-01   9.1407705e-01   3.4041415e-01  -2.4510407e-02  -5.3471732e-01   6.2568903e-01   1.9077140e-01   7.7701734e-01   9.4645818e-01   1.4832207e-01  -6.5383105e-02   4.1209007e-01   4.5658890e-01  -6.2254439e-01  -7.4530976e-01   9.0141399e-01   1.9388654e-03   7.7184450e-01  -6.9825563e-01  -5.5123134e-01   1.9895207e-01   1.6806161e-01   7.0934481e-01  -4.4488222e-01  -8.2208697e-01  -8.7293695e-01  -7.8367750e-03  -5.6589772e-01   8.8132188e-01  -3.4468517e-01   9.4750880e-01   6.3650843e-02  -2.1477519e-01  -8.8235356e-01   3.5741787e-01  -2.6369780e-01   7.3842496e-01  -3.0359284e-01  -5.9249208e-01  -6.7659547e-01   3.6522555e-01   6.4064914e-01  -8.2814760e-01   1.1611356e-01   7.3895635e-01   3.3148359e-01  -2.5546129e-01   2.4856986e-01   2.3401152e-01  -8.1277737e-01  -7.8390511e-01   8.5982622e-01   7.6181299e-01  -9.6838628e-01  -6.4338380e-02  -1.0247820e-01   9.1951417e-01  -7.0295945e-01  -2.0955730e-01   9.9925215e-01  -4.0863821e-01  -1.6542517e-01  -3.5418610e-01  -9.3763823e-01   9.3396575e-01  -7.0346712e-01  -7.1937115e-01  -2.5491234e-01   2.0426553e-01  -8.2471061e-01   4.4346074e-01   2.4883476e-01   7.2391196e-01   1.0187235e-02  -5.1328563e-01   3.6625757e-01  -5.1649106e-01   2.0484775e-01  -4.6459238e-01  -1.5563635e-01   1.4371252e-01   9.8841278e-01   7.7508074e-01  -2.2243978e-01   3.8385199e-01  -2.9947603e-01   3.8182950e-01  -6.2407719e-01  -3.2818660e-01  -6.6942017e-02  -4.0921840e-01   6.6219288e-01  -3.7589582e-01  -1.6762849e-01   5.4173875e-01  -4.9004745e-01  -7.7125926e-01  -9.4763517e-01  -5.9317089e-01  -4.3228845e-01  -5.7600451e-01   6.0489754e-01   9.3157261e-01  -2.6649884e-01  -7.5088233e-01   3.4906462e-03  -8.2213157e-01   5.0344499e-01  -1.7537805e-01  -3.1919876e-01  -6.1799610e-01  -3.1163936e-01  -6.7230901e-01   2.6941298e-01  -8.9656682e-01  -6.8741611e-01   2.2389665e-01  -1.3097523e-01  -8.7947314e-01   6.9397085e-01   6.4691407e-01  -4.9199534e-01   4.2580503e-01  -1.0905728e-01   9.3543845e-01  -3.6098330e-01  -1.0532629e-01   9.9097318e-01   6.7489119e-01  -2.3376137e-01   1.9395527e-01  -9.4705728e-01   6.3912731e-01  -5.0032487e-01  -8.7258476e-01  -9.6210985e-01  -1.4572881e-01   9.8791539e-01  -8.2758985e-01   8.1795406e-02   2.3238116e-01   2.7172663e-01  -7.9920224e-01  -5.0495142e-01  -9.2864717e-01   2.7936477e-01   4.1746291e-01   2.4624265e-02   4.1193969e-01  -6.2075115e-02  -7.3640597e-01   2.7504837e-01   9.9601516e-01  -8.7803870e-01   8.3533536e-01  -7.0838455e-01   9.7277508e-01  -6.6176309e-02   3.7115813e-01   7.7277814e-01  -3.4055483e-01   5.6005567e-01  -5.6493387e-01  -8.6466289e-01  -8.6990114e-02   9.2683887e-01  -1.9041387e-01  -5.8421570e-01   7.9107684e-01  -5.3138372e-01   7.0983678e-01   1.2363259e-01  -7.7505269e-01  -9.0354811e-01   1.5176914e-01  -8.0344078e-01  -3.7650373e-01  -8.9366116e-01  -6.5052596e-01   4.6424122e-01   8.3273267e-02  -3.1296378e-01  -7.4827061e-01  -5.0845888e-01  -1.6658824e-01   3.8033836e-01   4.7109532e-01  -9.4328456e-01   7.9426830e-01  -9.1937070e-02  -6.4661338e-01  -2.8642370e-01  -8.5049629e-01  -4.6671590e-01   8.1071102e-02   7.1779389e-01   7.0470152e-01   5.4390277e-01   7.9868636e-01  -1.6188240e-02   8.5810446e-01  -6.3700980e-01  -3.6603492e-01  -4.9695144e-01  -8.6139386e-01  -1.4476454e-02  -9.8720930e-01  -4.2873373e-01  -4.2409279e-01  -8.9191880e-02  -2.4479050e-01  -9.0114247e-01   5.1657455e-01  -5.3814089e-01   2.2557901e-02  -5.8662703e-01  -1.5462845e-01   9.9729518e-01  -8.3494998e-01  -9.3313784e-02   7.5888531e-01  -4.1231572e-01   6.3176692e-01  -2.1117428e-01  -3.5338344e-01   6.3055240e-01  -1.9979528e-01   8.3080960e-01   4.6866588e-01  -7.0832197e-01  -1.1502428e-01   3.7485688e-01   9.0554401e-01  -2.9219334e-01   4.7241025e-01  -4.3354544e-01  -3.8005876e-01   2.3041965e-02  -2.0113964e-01   4.8483177e-01   2.2583872e-01  -6.9566162e-01   4.8765666e-01   6.5711503e-01   5.2193269e-02  -3.9855711e-01   1.9770656e-01  -6.9138265e-01   9.6735598e-01   9.2888634e-01   5.6947132e-01   3.9720725e-02   9.0741301e-02  -2.5756926e-01   3.8378960e-01   2.8877675e-01  -4.9945816e-01   4.8128565e-01   4.7047917e-01  -4.0621829e-02  -7.4422019e-01   4.5084917e-01   3.1685791e-02   4.6027540e-02  -9.4225561e-01  -2.1867353e-01  -4.4942302e-01  -2.2552877e-01   5.9494082e-01  -9.2176759e-01   3.5818327e-02   1.5450509e-01   1.4782799e-02   5.8480527e-01   8.1818687e-01   2.9616942e-01  -4.2968124e-01   7.4393418e-01   7.2346757e-01  -6.2989548e-01   7.5112857e-01  -8.4073276e-01  -5.9905330e-01  -7.1365579e-01  -9.9252808e-01  -6.2530731e-01  -3.6640878e-01  -4.9086861e-01  -5.4912983e-01   7.4741163e-01   4.0874049e-01   2.7071350e-01   9.4518379e-01  -4.4845321e-02   7.6750370e-01  -7.8830785e-01   6.7638543e-01   5.7811772e-01  -5.1345301e-01   9.7155910e-01  -5.7822455e-01  -4.5825378e-01   2.2624344e-01  -5.2330479e-01  -1.9606147e-01   2.4911169e-01  -6.3050975e-01   2.7138514e-01  -4.7691760e-01   2.6991396e-01   5.7209211e-01  -5.2553375e-01  -1.9681704e-01   7.0775952e-01  -8.3656889e-01   8.7298849e-01   4.7678936e-01   2.2556147e-03   9.1727842e-01   5.9295434e-01   2.3873701e-01   1.6966065e-01   7.6171836e-02  -8.0642395e-01   1.6807278e-01  -8.8173520e-01   9.1722934e-01   2.1181252e-01   2.8045807e-01  -3.7678327e-01   1.1653207e-01   9.1325445e-01   3.5819425e-01  -2.8377153e-03   5.1575461e-01   1.8498630e-01  -1.4934191e-01  -8.1817814e-01  -3.2919339e-01  -8.9387051e-01   2.4850840e-01  -8.5155477e-01   3.4567374e-01  -5.6782664e-01   6.7820422e-01   1.3949792e-01   8.9001780e-01   5.3508749e-01  -3.0899254e-01  -9.5062830e-01   8.3062871e-01   8.3005719e-01   5.4618758e-01   5.5262839e-01  -2.0251112e-01  -7.2609375e-01   2.7178146e-01   6.5550868e-01  -8.5530330e-01  -4.7178173e-01  -6.7830888e-01   7.5424175e-01  -9.9944464e-01  -6.0230841e-01   1.8801713e-01   4.3673680e-01  -5.9252515e-01   6.0375831e-01   9.4444388e-01  -8.9328355e-01   1.3912880e-01  -1.8018717e-01   7.5684642e-01   2.9379226e-01  -2.0473138e-01  -7.6715328e-01   7.5339251e-01  -8.1397686e-01   8.2744739e-01   6.7755542e-01  -1.5674750e-01   2.5760380e-01  -3.5166577e-01  -3.8040189e-01   1.6162306e-01  -3.4264449e-01   2.9844862e-01  -7.4075390e-01   5.9442118e-01   8.4602234e-01  -2.6334151e-01   8.6203132e-01  -9.0378710e-01   4.8711356e-01   6.8815830e-01   4.8909159e-01  -6.2005867e-01   8.0410115e-01   8.3678300e-01  -4.0523994e-01  -6.2104098e-01   4.7969352e-01   8.0307564e-01  -8.0715732e-01   2.7043743e-01  -2.7159833e-01  -2.4312342e-01   5.8465868e-03  -1.2172868e-01   4.8665199e-01  -8.9660106e-01   2.9131576e-01  -9.1987820e-01   5.7518608e-01  -8.7749480e-01   2.7787204e-01  -9.4970002e-01  -9.1425990e-01  -2.0648513e-01  -6.3587813e-01   7.8320906e-02  -9.3607075e-01   4.3831827e-01   4.3732890e-02   5.3795580e-01  -4.4123632e-01  -5.0012990e-01   8.4004604e-01   1.2475172e-01   3.4764201e-01   6.4865540e-01   5.5330482e-01  -6.0513262e-01   4.7938124e-01  -2.5703427e-01   8.3197148e-01   6.0226057e-01  -4.0470541e-01  -3.6910236e-01   7.2782636e-01  -7.8072757e-01   5.9722267e-01   7.0717582e-01  -5.5097989e-01   6.5841685e-01  -3.2487684e-01   4.1347126e-01   7.4729125e-01   4.3529240e-01  -4.8795984e-01  -3.0160556e-01  -6.0945391e-02   8.1600162e-01  -3.8472799e-01  -8.0927425e-01   6.1074341e-01   8.5894606e-01   3.4245333e-01  -3.4346155e-01   5.8393984e-01   8.6093680e-01   9.2066674e-01  -1.5530560e-02   8.8531543e-02  -2.6719763e-01   1.1693234e-01  -1.6465701e-01  -4.7039747e-01  -5.4678203e-01   6.8565916e-01  -2.2104746e-01  -1.6807116e-01  -6.9326414e-01   8.0726177e-01   7.0653425e-01   8.6987272e-01  -9.1961684e-01   9.1181334e-01   3.3768610e-01   7.3527561e-01   7.0469153e-01   2.5619501e-01   1.2558537e-01   6.5594155e-01  -7.9376144e-01  -4.7012861e-01  -7.3758863e-01  -5.2764140e-01   5.1842047e-01   6.9709660e-01  -7.9276903e-01   7.1940767e-01  -2.6871852e-01  -2.9976985e-01   8.2671200e-01  -3.9879337e-01  -1.0833705e-01
   6.2694790e-01  -9.3022064e-02  -5.3705595e-01   9.0305770e-02   9.0216629e-01  -6.5908934e-01   5.9960771e-01   6.8499192e-02   3.1887303e-01   3.7605509e-01  -8.9188975e-01  -1.5465143e-02   8.4397009e-01   3.6648871e-02  -1.1241574e-01   9.0506517e-01  -3.5205091e-01  -1.8820194e-01  -7.6053777e-01  -1.0791927e-01  -9.0859487e-01  -1.1161195e-01   6.5957777e-01   9.8867185e-01   4.0907986e-02  -4.3330903e-01   3.9066173e-01   5.9257502e-01  -3.1239198e-01  -9.6356755e-01   4.2319337e-01  -8.5162012e-02   4.0397066e-02   6.2367887e-01   3.1632276e-02  -3.2676076e-01   8.1431323e-01   5.2913816e-01  -5.3847368e-01  -7.9159066e-02  -9.3298719e-02   7.6914149e-01  -8.6663517e-01   7.8375803e-01   5.7182398e-01   7.3581128e-01  -7.3586289e-01  -1.9763264e-01   7.1130066e-01   9.8834564e-02  -5.0190978e-01   9.3031001e-01  -9.7342948e-01  -6.5631848e-01   4.4111771e-01   2.3589156e-01   6.9901948e-02   1.3221107e-02   2.1023084e-01   9.8921219e-01   8.9078862e-01  -9.0682015e-01  -9.1996972e-01   7.3489890e-01   1.9378340e-01  -6.1956356e-01  -9.4117434e-01  -5.5699646e-01   1.1591381e-01  -6.4608791e-01   8.0559076e-01  -7.3122043e-01  -7.1773752e-01  -9.4944944e-02   8.4778854e-01  -9.3585327e-02   2.3564496e-01  -1.6680612e-02  -2.8662467e-01   5.9111835e-01   3.6486273e-01  -7.6962937e-01  -4.3634664e-01   5.6454948e-01   9.4748585e-01   1.6822688e-01   2.0815005e-01  -7.8182562e-01   1.0703474e-01   1.0073442e-01   5.2049641e-01  -5.0206251e-03   4.5149968e-01   4.7963652e-01   3.3601760e-01  -5.9948789e-01  -2.0350993e-01  -1.7725726e-01   7.1598291e-01  -2.9831377e-01   2.2104391e-01  -7.0808942e-01  -6.6011789e-01  -3.5246037e-01  -1.1305402e-01  -3.0700481e-01   4.4156451e-01  -7.8705122e-01   4.8619746e-02  -6.0268092e-01  -7.0453875e-01  -9.9554780e-01  -7.4279087e-01  -9.4409498e-02   1.4513195e-01  -9.9088310e-01   1.2506112e-01   3.6701568e-01  -5.9686637e-01  -5.9841136e-01   5.7068815e-01   9.7303864e-01   2.3348345e-02  -6.2631023e-01  -4.8441918e-01   2.9671536e-02   1.3992074e-01   3.5698797e-01  -6.6838024e-01  -2.3410230e-01   3.5454734e-01   1.2396248e-01  -5.2799218e-01  -6.3474690e-01   6.8965467e-01   2.2852121e-01   4.6587520e-01  -5.1358621e-02   8.5335944e-01   4.1117443e-01  -5.2636096e-01  -3.5107363e-01   7.3652271e-01  -6.8757418e-01  -5.7881710e-01  -5.8412559e-01  -8.7216078e-01  -2.4244844e-01  -2.9586155e-02   8.7025340e-01  -5.9568839e-01  -4.1485007e-01  -7.4549381e-01  -2.3373908e-01   5.0357242e-01   9.9860826e-01   7.2916851e-01   5.8078849e-01  -6.2303451e-01   4.4134414e-01   2.8134076e-01   7.9690915e-01  -4.9210867e-01   2.4046331e-01  -3.3888128e-01  -8.6001895e-01  -7.3476487e-01   9.0622355e-01   3.0148093e-01   5.7748489e-01  -5.5886870e-01   5.4981120e-01   2.7306100e-01  -8.2720753e-01  -4.2192404e-01  -8.4329137e-01   8.0318485e-01  -8.2856386e-01  -1.8916558e-01  -5.6599410e-01   5.8397298e-01   6.2921430e-01  -9.5266259e-01   9.9584459e-01   4.0427108e-01  -5.6259420e-01   5.9502452e-02   8.8200666e-01  -3.3740225e-01  -4.5920573e-01   4.2089279e-01  -7.1840196e-01  -3.4518096e-01   3.7237139e-01  -8.2923139e-01  -6.4139047e-01   8.4413297e-01  -8.1001149e-01   8.1905982e-01   7.2203699e-01  -3.2891075e-01  -1.6673449e-01   3.7636485e-01   7.7246953e-01   3.5420397e-02   4.4757498e-01  -1.4173230e-01  -4.3170144e-01   9.7321805e-01   2.7209463e-01   2.6158394e-01   4.6042672e-01   5.2219942e-01  -7.9869457e-02  -5.8299128e-02   6.1608024e-01  -7.9736093e-01   8.0102500e-01  -4.0234018e-01  -4.1780797e-01  -7.3080281e-01  -7.5432778e-01   7.0752346e-01  -2.7018686e-01   9.5316772e-01   6.7479705e-01  -7.3154639e-01   6.9072506e-01   9.7036942e-01  -1.8311590e-01   5.7536749e-01  -3.2443023e-01  -3.3780586e-01   9.5869724e-01  -8.2976925e-01  -2.3976774e-01  -9.6349859e-01  -5.1290156e-01  -1.2033317e-01   5.8990600e-01  -7.2646110e-01  -8.8391785e-01   5.2434804e-01  -6.7925881e-01   6.3061728e-01   7.8851814e-02   2.1930991e-01   8.9949795e-01  -7.5194056e-01  -2.4536740e-01   3.9211641e-02   7.7254191e-01   1.7608227e-01   4.0532377e-02   1.1517634e-01   4.0178845e-01   1.4804175e-01  -8.9991802e-01   5.1794335e-01  -2.1644953e-01  -3.1318970e-02   6.6103418e-01  -6.2174179e-02   7.7850694e-01   6.4411661e-01  -8.5922973e-01   8.4981454e-01   9.6618545e-01   5.3767818e-01  -6.5410547e-01  -3.3079011e-01  -7.3049301e-01   7.0100900e-02   3.0790700e-01   7.4501804e-01   6.1605963e-01   5.2994663e-01   7.5531327e-01  -3.4947731e-01  -6.6341639e-01   7.7314597e-01  -5.1192901e-01   2.4083134e-01   3.7502650e-01  -2.4217814e-03  -8.6381297e-01   5.2770835e-01  -6.9595899e-01  -1.7607861e-01   7.7248976e-01  -5.4182576e-01   7.5326025e-01   9.4495551e-01   2.9698792e-01   1.6089513e-01  -9.7898976e-02   8.5735921e-01   7.2507927e-01   9.9013551e-01  -4.4923741e-01   5.6688239e-02  -8.9060814e-02   8.8469416e-01  -3.1333963e-01  -4.5125915e-01   7.9145917e-01  -1.4162258e-01  -6.8666964e-01  -2.0009473e-01  -7.0876335e-01   8.9884975e-01  -1.1562914e-01  -2.8658774e-01   1.0929215e-01  -6.6585607e-01  -2.7650470e-01   1.8646747e-01   6.4339898e-01  -9.9499114e-02  -3.8555393e-01  -5.9439578e-01  -7.5813033e-01   4.1780300e-01   2.5161868e-01  -5.8099977e-01   3.5267064e-01  -8.9031363e-01   2.1735190e-01   9.7506740e-01  -3.4888242e-01   7.8512050e-01  -3.7571553e-01  -6.7855429e-01  -3.4833834e-01   5.1250641e-02   2.9148874e-01  -7.6284842e-01  -3.4181725e-02  -4.2535338e-02   7.9129871e-01  -6.0128108e-01  -9.5191954e-01   6.8407649e-01  -1.1445854e-01   2.0593522e-02   7.5569628e-01  -5.6199596e-01   2.0313785e-02   6.7341359e-01  -3.6180945e-01  -6.3953407e-01  -4.1994996e-01  -8.3346036e-01  -2.7792005e-02   7.9766269e-01   5.8247081e-02   6.9012235e-01  -2.2377657e-01   7.6790310e-01  -2.8000188e-02   4.6319413e-01  -3.7275115e-01   7.6474171e-01   3.9835613e-02  -2.1096506e-01   9.8833399e-01   3.0145501e-01  -3.6695412e-01  -8.9814443e-01  -6.5908106e-01   2.6848449e-01  -6.6030612e-01  -2.1957646e-01  -2.7184659e-01   2.0923770e-01   8.6691206e-01   3.3674875e-01   1.6346623e-01  -3.1533913e-01  -2.5096901e-01  -5.7937908e-01   2.6023163e-01  -2.1956425e-01  -2.4480560e-01   8.1900428e-01  -5.3929110e-01   8.8122194e-01  -8.4870146e-01   3.0126801e-02   6.8854188e-01  -6.1321457e-01  -7.6026248e-01   1.7768152e-01  -9.9260434e-01   9.4359713e-01   9.6610993e-01   2.4215173e-01   7.6233348e-01   1.2457760e-01  -7.0638653e-01  -3.9878101e-01   5.7420836e-01   8.2198597e-01   4.7916984e-01  -9.9060234e-01  -5.4799594e-01   3.8334766e-01   5.2259457e-01  -2.5774720e-01  -9.4992159e-01   4.5954913e-01  -5.3384683e-01   8.0506355e-01   5.6964258e-01  -1.9848536e-01   7.9667211e-02   7.4025979e-01  -1.6155156e-01  -9.9093209e-01  -7.8109081e-01  -5.9603679e-01  -2.5134235e-01   2.5176529e-01  -1.2825846e-01   8.9700348e-01  -4.0339545e-02   9.4129977e-01   6.7119167e-01   3.0985967e-02   7.1589021e-01   1.5974021e-01   9.1720389e-01   4.1626727e-01   6.0878219e-02   4.2152308e-02   1.8915530e-01  -2.6522054e-01   8.4888078e-01  -4.8925930e-01  -2.6690686e-01  -9.6895486e-01   2.0795063e-02  -9.5344610e-01   2.9509269e-01   6.0247372e-01   7.9308134e-01  -1.8424756e-01  -9.2875422e-01  -7.0413095e-01   8.0918800e-01  -4.2728997e-02   3.7208122e-01  -5.9681881e-02   2.2450091e-01   1.1927780e-01   3.6223383e-01   7.3638433e-01   9.2028810e-01  -6.6468706e-01  -2.2423819e-01   7.9084741e-01   2.7989822e-01   8.8306842e-01   5.5462636e-02  -3.2271865e-01  -4.2527422e-01  -5.0537956e-01   3.5336622e-01   6.8500623e-02   2.5659253e-01  -9.9534955e-01   1.1623817e-01   8.1234065e-01   4.6537755e-02   9.1339118e-01   4.6441595e-01  -7.6410753e-01  -5.9970751e-01  -9.3501862e-01   1.5437026e-01  -1.0396316e-01  -5.9438244e-01  -1.3520673e-01  -2.5878806e-01   6.2912435e-01  -2.0041105e-01   2.2233517e-02  -5.0500057e-01  -7.3826551e-01  -2.1741794e-01  -9.5428427e-01   4.3319264e-01  -3.5885717e-01   4.7772095e-01   6.3906608e-01   5.5899764e-02   3.3250516e-01  -1.2112401e-01   6.4166184e-01  -9.4775949e-01  -3.0456891e-01   8.6400972e-01  -3.7422749e-01   8.9053858e-01  -6.5072510e-01   7.2673845e-01   8.0285944e-01  -1.5542381e-01  -6.2420281e-01  -1.8077488e-01   2.5800220e-01  -4.6918467e-01  -4.8848616e-01   6.5321897e-01   1.5399041e-01   1.9303991e-02   5.5322402e-01  -5.1477440e-01  -4.5261015e-01  -8.7543756e-01  -7.4554299e-02   5.0056810e-02  -9.1356256e-03   2.0645407e-01  -4.4217887e-01   8.7424007e-02  -7.0322468e-01  -6.6900025e-01   9.3961006e-01   1.7720347e-02  -2.8986869e-01   1.1849357e-01  -6.8340327e-01   7.8045750e-01  -6.8871103e-01   2.0517905e-01  -5.0789121e-01  -4.1299575e-02   1.8393140e-02  -1.6718849e-01  -4.6450822e-01   3.9620361e-01  -5.3494173e-01  -6.1561265e-01  -2.7195337e-01  -3.8221794e-01  -4.8279211e-01   2.0564248e-01   5.2791870e-01  -2.5717446e-02  -8.7532813e-01  -9.5495818e-01   8.5516536e-02   8.4208452e-01  -2.2082547e-01  -5.8109748e-01   5.1191366e-01   9.2267212e-01   4.7603285e-01   8.0822890e-01  -2.8665151e-01  -4.4345947e-01   9.2671792e-01   5.4537334e-01   9.9029422e-01   2.2593603e-01  -1.0452042e-01   8.3675700e-01  -9.9141543e-01   5.5146210e-01   6.8146169e-01  -5.2602192e-02   4.5544865e-01  -2.2912417e-01  -3.9920870e-01  -6.6077112e-01  -2.8253464e-01  -5.6167956e-02   2.4286060e-01  -4.4769722e-01   7.2158140e-01  -2.7739261e-01  -3.2070538e-01  -4.6659413e-01   8.9278497e-01  -3.0962896e-01   5.9405876e-01   1.0305619e-01   8.8346344e-01   5.2976045e-01   1.0117959e-01  -4.5060995e-01   5.2990103e-01   6.1689214e-01   6.7456834e-01   4.9602052e-01   3.4220141e-01   5.1505912e-01  -8.6528853e-01   9.1747204e-01   9.1702804e-01   6.3348094e-01   8.6312231e-03   2.1442466e-01   8.5628253e-01  -8.9125547e-01  -3.7575637e-01  -1.6251861e-01   4.5511041e-01  -6.8990744e-01  -7.0852277e-02   5.0733152e-01   4.7023973e-03   4.7875172e-01   8.3024999e-01  -3.8742167e-01  -9.5438028e-01   7.5281410e-01  -8.8737229e-01  -2.9198607e-01  -1.6803688e-01  -5.4370730e-01   1.1215984e-04  -9.2950978e-01  -1.2088452e-01  -4.6634190e-01   7.7563590e-01  -4.4161806e-01  -1.1230744e-01  -5.1226769e-02  -6.0117478e-01   2.6458419e-01  -6.9762206e-01   8.5245932e-01  -2.8202805e-01   3.7955566e-01   5.3783771e-01  -4.0315685e-01   4.5995469e-01   8.1714876e-01   4.2358234e-01  -6.8410685e-01  -5.1370197e-01   1.9450168e-01   1.7407479e-01   6.3337337e-01  -8.4528501e-01  -8.7634995e-01   4.0121804e-02   6.2160747e-01  -3.3655161e-01   8.8741107e-01  -2.5143127e-01   9.7952374e-01  -6.9685265e-01  -2.2419186e-01   4.7241674e-01  -2.3463950e-01  -7.4440643e-01  -3.3046237e-02   7.7675728e-01  -9.7443029e-01  -4.8032015e-01   6.7658066e-01  -7.7846153e-01  -7.7577841e-01   4.9240965e-01   5.3706885e-01  -4.2482735e-01   5.7708380e-01  -8.8661607e-01  -4.2616488e-01  -8.8924191e-01  -8.6155123e-01   7.9886323e-01   9.6463280e-01  -7.8740692e-01  -4.3519884e-01   6.0753902e-01   8.7648423e-01  -8.8788674e-01  -3.5127995e-01  -6.4708089e-01  -9.7759802e-01  -5.2422258e-02   4.1352699e-02  -4.0197994e-01   3.7208093e-01  -9.8785492e-01   8.4136114e-01   3.4494814e-01   4.8511448e-01   1.0938367e-01  -8.7707610e-01   7.6750499e-01   5.9554967e-01  -3.3531477e-02   9.3879665e-01  -4.5940967e-01   3.2011381e-01  -8.6798741e-01  -7.8701026e-02   3.8129189e-01   9.7561417e-01   8.6666855e-01  -3.0047982e-01  -7.0893894e-01   2.3990029e-01  -3.8640154e-02   8.7410645e-01  -6.1519688e-02   4.8005175e-01  -9.7514264e-01  -2.2803669e-01  -6.7001916e-01   8.2496867e-01  -6.8396297e-02   9.0691612e-01   8.1211817e-01  -1.4688142e-01   8.3777550e-02  -2.9624946e-01  -7.5944105e-01   8.4184111e-01  -1.7692771e-01  -8.0657454e-01  -8.0682303e-01   7.0993968e-01   8.0576463e-01   3.8840399e-01  -8.4512614e-01   7.6382102e-01  -1.4457254e-01   8.7179953e-01   7.8554267e-01  -5.7246074e-01  -5.4972579e-01   9.7549846e-01  -6.7189419e-01   5.4128832e-01  -9.8140182e-01  -5.3671579e-01   8.8178914e-01  -9.8282467e-01  -1.4070239e-01  -6.5430737e-01   8.6815259e-01  -7.3981994e-01  -8.4097798e-01   9.4391011e-01   9.5382074e-01  -2.0237537e-01  -1.0704378e-01   1.3235962e-01  -9.3428527e-01   6.1220672e-01   4.9549075e-01   8.2686773e-01  -1.1354833e-01   6.4889957e-01  -2.5025166e-01   2.5632015e-01   4.4150539e-01  -6.4904593e-01  -5.1190096e-01  -5.0097489e-01  -2.6429913e-02  -6.4890375e-01   1.5207181e-02  -8.5010704e-01   5.8222981e-01   7.6421228e-01   7.5818271e-01   6.5289718e-01  -6.7386866e-01   8.0813593e-01  -1.6897551e-01   9.7813110e-01   4.1365998e-01   2.7267208e-01   9.4768857e-01  -7.3734086e-01   7.8397962e-01   2.1274442e-01  -9.0586103e-01  -7.3741471e-01  -3.7986507e-01  -7.6226381e-01   4.9680560e-01  -3.8190988e-01  -4.4501233e-02   7.2646195e-01   6.1990408e-01  -5.4142858e-02   1.8393048e-01  -3.1078922e-01  -4.6658600e-01  -4.8979021e-01   6.2739105e-01  -5.6790570e-01   6.9934344e-02   8.1654707e-01  -2.7254035e-01   7.9362067e-01  -3.1655372e-01  -3.5571660e-01  -2.3078661e-01  -9.0526215e-01  -1.3531136e-01   6.5433701e-01  -2.6915922e-01   9.5115289e-01  -5.6483809e-02  -5.7696583e-01   3.2131427e-01  -4.3816123e-04  -2.2738078e-01   6.1359537e-01  -1.1705586e-01   5.0777736e-01  -1.5332954e-01   8.2222546e-01  -1.0368863e-01  -4.3994441e-01  -2.4461489e-01  -2.3141625e-01  -9.8960770e-01  -8.3647081e-01   3.3946655e-01   9.5683160e-01   4.1007682e-01  -2.7150517e-02   9.4552188e-01  -9.1079413e-01  -5.8397780e-01   5.2470325e-01   7.5658179e-01  -7.3147327e-01  -7.1830858e-02   2.1777209e-01  -3.5114270e-02  -9.7577681e-01  -1.2350550e-01  -4.4473905e-01  -8.0722111e-01  -1.3878881e-01  -2.6756131e-01   9.6662368e-01   3.0241978e-01   4.7864197e-01  -5.0762349e-01   7.4187953e-02  -6.2388074e-01   4.7772523e-01   2.8058847e-01   5.4218290e-01  -4.1811240e-01   2.7361424e-01  -7.9654238e-01  -9.9117261e-01   9.5584439e-01  -7.0390935e-01   4.7917463e-01  -5.8491986e-01  -5.2866583e-01  -9.9597534e-01   2.1185680e-01   4.8171470e-01  -8.7944765e-01  -3.2293220e-02  -8.5475108e-01  -9.4077069e-01   6.2155280e-01  -8.4991573e-01  -5.1631478e-01  -9.0359437e-01   5.1374007e-01   1.4551056e-01   7.5915833e-01  -7.5653858e-01  -5.4184495e-02   9.3020018e-01  -3.6688148e-01   3.0369364e-01  -8.0684368e-01   9.8424812e-01  -4.7859316e-01   4.4183309e-02  -7.2397540e-01  -5.5298323e-01  -9.3933195e-01   2.4463579e-01  -5.5738690e-01   7.5250429e-01   8.8149300e-01   1.0213286e-01   7.0509756e-01   1.0455830e-01   1.8870716e-03  -8.6316498e-01  -1.7717084e-01   1.2615662e-01  -2.3307821e-01   2.9702013e-01  -4.9866290e-02   4.8404246e-01   1.5800172e-01   3.2146891e-01  -8.0419277e-02   7.1730288e-01   2.7857151e-01  -9.5287063e-01  -2.6518061e-02  -8.5427756e-01   2.4219883e-01   1.7385232e-01   5.4899917e-01  -1.6314912e-01  -2.4477764e-01   4.9145433e-01   6.0816460e-02   7.0608045e-01  -3.5150737e-01   8.1672234e-02   8.9317419e-01  -2.9088208e-01  -4.6468127e-01  -9.8006223e-01   5.3213487e-01   1.9017679e-01  -2.8815110e-01  -7.4134039e-01  -8.6610073e-01  -3.5278641e-01   7.6137817e-01  -3.1523925e-02  -6.3781432e-01   3.9178621e-01  -7.4259194e-01  -5.6342723e-01  -2.3633805e-01  -4.5117416e-01   6.1454984e-01   8.6217931e-01  -9.7313288e-01   3.9644034e-01   9.7047370e-01  -8.3748855e-01  -9.5728570e-01  -7.7875376e-01   3.7261910e-01   6.3498855e-01  -1.1519980e-01  -3.8357354e-01  -3.1449120e-01  -2.4008930e-01  -9.9298051e-01  -5.5256155e-01  -6.3969381e-01   3.2657371e-01  -3.1359556e-02  -5.7677445e-01  -3.8534657e-01   1.1832444e-01  -4.6627503e-01  -7.1913202e-01  -9.9654279e-01   9.1033152e-01   3.7791464e-01   1.9908682e-01   6.5085505e-02   3.2014478e-01  -6.0087422e-01   2.8130305e-02  -9.4647560e-01   6.7740036e-01   7.9313212e-02  -6.5804531e-01  -8.1513683e-02  -4.0543339e-01  -1.8523931e-01   7.3440235e-02   4.2824370e-01   1.2471956e-01  -2.2651059e-01  -3.2301842e-01  -1.7626251e-02  -8.4778172e-02  -8.0360779e-02   4.4014988e-01   7.0181621e-01  -6.3872889e-01  -1.3863342e-01   7.5620179e-01   8.3741252e-01   6.2409874e-01   2.7661245e-01  -6.9803549e-01  -7.9874278e-01   8.1134087e-01
  -8.0423856e-01  -3.8542918e-01   9.3247955e-01   1.9492606e-01  -6.8946215e-01   4.3916662e-01   2.2626804e-03  -4.8171817e-01   4.0690272e-01  -2.7861875e-01   1.4162783e-02   6.3884992e-01  -2.1683108e-01  -4.0746770e-01  -3.5168674e-01   7.2430895e-01   1.6415180e-01   8.4485755e-01   8.4286507e-01  -2.6583146e-01  -1.9072433e-01   4.6971427e-01   3.1296295e-02   8.9468898e-01  -3.6365689e-01   5.4612622e-01   7.5414810e-01   1.9333406e-01  -1.6099837e-01  -7.6981752e-01   6.6898943e-01   4.1694998e-01  -7.5725216e-01  -7.1454363e-01  -4.9704284e-01  -5.9445343e-01  -4.6103349e-01  -4.7276336e-01   8.8221925e-01   9.2211180e-01   4.9913148e-01  -8.9942756e-01  -5.2470591e-01   3.2157792e-01   2.0427633e-01  -3.7350316e-01  -3.5120129e-01  -6.9113008e-01  -4.8258455e-01  -1.3566917e-01   6.8447815e-01  -3.2066971e-01  -3.2293667e-01   8.4352789e-01  -3.4530245e-01  -9.6082161e-01  -4.1371028e-01  -1.2353438e-01   2.4497156e-01  -5.6144392e-01  -9.6358734e-01  -4.1837641e-01  -5.9545230e-02  -4.8184329e-01   5.8631799e-02  -7.5559624e-02  -6.0184642e-01   8.8458570e-01  -8.7344183e-01  -9.5366249e-01  -8.4637596e-01  -3.0607430e-01  -2.0191160e-02   6.9733183e-01   8.5721876e-02  -3.8015010e-01  -5.2856379e-03  -5.1569684e-01  -3.3908350e-01  -6.9605656e-01  -4.4224043e-01  -8.3604801e-01  -8.0416164e-01  -9.5339109e-01  -1.9161428e-01   7.1809422e-01  -7.0406255e-01  -8.0779075e-01   1.1530782e-01  -2.7032724e-01   5.6757672e-01   8.0482783e-01  -3.2371963e-01  -4.6307383e-01   3.3955439e-02  -7.5183177e-01  -6.4124394e-02  -6.4850593e-01  -4.1884035e-01   6.0835938e-01  -8.4901673e-01   9.5269495e-01  -5.0620599e-01  -3.1974638e-01   3.4601465e-01   6.6891588e-01   1.2852956e-01  -1.0151504e-01  -7.6842892e-01   7.1116644e-01  -2.8623677e-01   7.6839672e-01   5.8303328e-01   8.7957936e-01   6.6367450e-02  -5.1802500e-02  -6.3864082e-02  -5.8114525e-01   2.8375318e-01  -8.9687694e-01   3.3207646e-01   2.5260360e-01  -7.4179077e-01  -8.4237457e-02   9.0396297e-01  -5.6361567e-01  -5.0909399e-01   8.2689598e-01   7.9706831e-01   9.8086201e-01  -8.4799230e-01   9.8458817e-01   7.6559155e-01   1.9345081e-01  -8.6539321e-01   5.2342346e-01  -4.8977431e-01   6.5354977e-01   8.2994793e-01  -2.7746767e-01  -1.6302108e-03   3.1072738e-01  -4.5448956e-01  -8.8913240e-01  -6.0201789e-01   1.7338796e-01   9.4018809e-01  -8.5882039e-02  -7.1076329e-01  -2.6426179e-01   7.1284581e-01  -1.7279658e-01   1.2676822e-01  -1.9735898e-01   5.3532242e-01   5.9084960e-01   9.1681383e-01   3.9976680e-01  -1.2848195e-01  -8.7824023e-02   2.8358319e-01  -1.3006856e-01  -7.2477792e-01  -6.5916670e-01  -1.4138104e-01   5.5187903e-01  -5.8788407e-01  -1.0359972e-02  -6.2005885e-01  -7.9355439e-01  -2.8396778e-02   8.4174353e-01   2.5769209e-01   8.6683428e-01   3.3062259e-01  -3.2035670e-01   3.8613641e-01  -7.0846178e-01   2.8018835e-02   2.3237268e-01  -5.9911429e-01  -4.1709459e-01   6.5107557e-01   3.5516213e-01   9.0412040e-01   6.1595238e-01   8.1188515e-01  -8.5808846e-01   4.3949277e-01  -2.7581381e-01  -9.1891715e-01   1.9322281e-01   7.0596366e-01  -4.5205700e-01  -4.8020402e-01  -1.1583581e-01  -8.0600858e-01  -5.2065468e-02  -9.4849169e-01   8.7635868e-01  -8.9705361e-01   4.4720236e-01   6.7352059e-01   6.0338573e-01   9.0104287e-01  -5.1570598e-02  -2.5908987e-01  -2.6599637e-01  -7.7988234e-02  -3.3632916e-01   6.9132264e-01  -1.7411333e-01   7.4417300e-01  -7.6824136e-01   6.7775087e-01  -4.9949838e-01   6.3141912e-01   6.4444710e-01  -7.1299036e-01  -9.8285002e-01  -4.4180479e-01   7.4698453e-01  -6.8468090e-01   4.2472094e-01  -6.5996419e-01   9.4220577e-01  -1.1275482e-01   3.9741176e-02  -6.7226016e-01   6.9319295e-01  -5.5802946e-01   4.9394413e-01   3.8066226e-01   8.2315074e-01   4.7597752e-01   4.1285857e-01  -5.6309639e-01  -7.7250255e-01  -4.7269565e-01   3.4364433e-01  -2.8385612e-01   3.0917041e-01   3.0241106e-01  -6.2556006e-02   1.9215245e-01   4.2893170e-01   8.9653693e-01   9.7121828e-01  -6.8510914e-01  -2.3248877e-02   5.8720136e-02  -5.8190299e-01  -8.1311718e-03  -6.0511656e-01   8.1193980e-01  -6.7586257e-01   4.2981795e-01   9.4211759e-01  -8.6760730e-01  -8.8827280e-01  -6.9961270e-01   9.8107458e-01  -8.5699790e-01   3.0968653e-01  -5.1284201e-01  -3.2275290e-01   7.0745863e-01  -7.7184799e-02  -6.1869194e-01   2.6450624e-02  -5.6454066e-01  -4.5552090e-01  -6.4598316e-01  -3.7316847e-01   4.8350059e-01  -6.0612926e-01   3.9922735e-01   5.4584246e-01  -3.4950593e-01  -4.4926894e-01   2.3982671e-01  -2.9049605e-01  -2.7127746e-01   5.5026936e-01  -1.6599735e-01   4.3243281e-01  -1.9361891e-01  -3.7894317e-01   7.0852503e-01   9.1193384e-01  -5.8687855e-01  -8.7679572e-01   5.0073366e-01  -1.0033340e-01   4.7061112e-03  -5.2311622e-01   6.2229638e-02   7.4666718e-01  -3.1566687e-01  -4.8871851e-01  -5.4784447e-01   6.2008718e-01  -6.6742859e-01  -8.4575302e-01   5.5771315e-01  -1.0506362e-01   6.0814134e-01  -4.4994252e-01   3.1386896e-01  -4.3660339e-01  -3.4902507e-01  -4.3682619e-01  -4.6692419e-01   7.0537809e-01  -7.3943684e-01   6.1794906e-01  -6.4710085e-01  -8.0605571e-01   2.3520295e-01   3.2468918e-01  -9.1574122e-01  -8.9195917e-01  -8.7843089e-01  -4.1428235e-01  -4.4379103e-01  -2.9917506e-01   8.5098293e-01  -7.9443866e-01  -6.0223082e-01   7.4040158e-01  -9.8976419e-01   3.3233717e-01  -3.9794853e-01   3.7038537e-01   9.1759537e-01   2.6368766e-01   1.5178735e-01  -4.5133419e-01  -9.1605999e-01   2.8329542e-01  -7.5973617e-01   8.0728952e-01  -9.3036809e-01  -6.3311592e-01  -6.9166153e-01  -7.9407112e-01   5.3349896e-01   6.4552919e-01  -1.7749518e-01  -7.4118448e-01  -9.2005357e-01  -3.6804955e-01   9.1552729e-01   7.8805823e-01   2.3494698e-01   5.9598077e-01   8.9543263e-02   3.5869292e-01   5.2056097e-01   1.8305918e-01   5.9152691e-01  -5.4897345e-01   6.8115634e-01   2.6988318e-02   9.1336606e-01   6.1240481e-01   8.5793969e-02   3.0663566e-01   9.5986223e-01  -2.9822817e-01  -1.3865741e-01   2.4907225e-01  -6.6333304e-01  -3.4067985e-01   2.2551736e-01  -5.8848453e-01   2.1375321e-01  -3.0787806e-01  -8.2965353e-01   7.3110824e-01  -5.2868790e-01  -4.0372372e-01  -7.4495934e-01  -9.8715238e-01  -5.4441937e-01  -1.1651924e-01  -7.5965774e-01   7.7918745e-01  -2.5883390e-01   6.5343625e-01   4.0823149e-01   2.5453560e-01  -4.5187138e-01  -4.9300295e-01  -8.9867765e-01   3.8945088e-01  -8.0366696e-01   5.6886602e-01   5.2495087e-02  -4.2459541e-01  -5.1057187e-01   3.2052571e-01   4.4915026e-01  -1.8094589e-01   8.0518646e-01   5.6651941e-01   3.5986115e-01   7.3473368e-01   7.0128335e-01  -3.3583095e-01  -7.7384488e-01   8.4476379e-01  -9.7083585e-01   2.9530188e-01   6.6492856e-02  -3.7761654e-01  -7.0292724e-01   9.4065038e-01   2.1730546e-01  -1.6706742e-01  -7.6782434e-01   1.5525241e-01   7.5263380e-01   7.4994739e-01   5.2851837e-01  -6.4365304e-01   4.3825209e-01  -1.7189340e-01  -8.9451291e-01  -5.5570946e-01  -1.5034437e-01  -3.5356047e-01  -5.1293622e-01   3.1421952e-01   2.0420510e-01  -9.8867784e-01  -3.3446177e-01  -7.3614331e-01  -1.9145076e-02  -8.2148297e-01  -8.7163569e-01   3.8976244e-01   7.2011164e-01   1.6040515e-02  -6.9206116e-01   7.7572993e-01   6.5204713e-01  -4.8876914e-01   7.9095036e-01   5.3096420e-01   3.4202706e-01  -4.1019884e-01  -6.8189341e-01  -6.5147885e-01  -3.5976185e-01  -5.6859014e-01  -4.3394478e-01  -5.4006909e-01   7.6887545e-01  -7.9022179e-02   3.9280547e-01   8.2496660e-01   3.3670831e-01  -8.4421883e-01   3.7309995e-01   8.1836934e-01   8.8568604e-01   8.0877214e-01  -8.9438211e-01   3.3303183e-01  -1.8201609e-01  -7.7327772e-02  -6.5615197e-01   4.3895026e-01   1.8218321e-01  -5.2945856e-01   9.9441638e-01  -2.1166502e-02   6.5771315e-02  -1.6929365e-01  -8.9742563e-01  -1.4963907e-01  -6.3512075e-01   5.1978296e-01  -4.6434963e-01   5.2533556e-01  -4.4101664e-01   4.3011051e-03   8.7009720e-01   5.2901341e-01   9.4637143e-01   7.5449130e-01  -6.7507960e-01  -1.4452597e-01   8.2475893e-01  -8.5761894e-01  -2.1148032e-01  -5.0709539e-01   7.8306404e-01   8.2790409e-01   5.7589676e-01  -3.0053387e-01  -9.4769481e-01   5.1864328e-01  -4.4223032e-01   5.2797150e-01  -2.3770141e-01  -4.1198190e-01  -4.1427400e-01  -6.4073251e-01   7.1677722e-01   8.8314714e-01   1.8138289e-01   3.9580109e-01  -1.3151334e-01   6.8179538e-01   1.5654095e-01   8.3906494e-01   7.4803715e-01  -4.9958698e-01  -3.7376317e-01  -7.2969802e-01   1.5996618e-01   4.4172887e-01  -8.1417582e-01  -4.0632400e-01   6.4577962e-01  -9.9590022e-01  -3.8865274e-01   8.8065839e-01  -3.9189027e-01   3.9817470e-01   8.6077430e-01   8.5448470e-01  -9.9605770e-01   2.6119088e-02  -4.4597415e-01  -4.1057621e-01   7.2982145e-01  -8.8156197e-01  -3.8876155e-02   3.1042000e-02  -4.9767799e-01   3.6982383e-01  -5.2923526e-01  -6.3254265e-01   6.2385858e-02   6.2408976e-01   5.6631057e-01  -9.4543285e-01  -4.8282583e-01   3.7335426e-01   5.4581038e-01  -4.1271264e-01   3.2971526e-02   5.6669482e-02  -1.8146031e-01   2.2977159e-01   5.2743197e-01   1.4610592e-01   6.1882998e-01   9.0859386e-01   2.8478714e-01  -7.7393667e-01   8.0191058e-01  -3.5692348e-02  -7.0681870e-01  -4.8496519e-01  -6.1772346e-01  -3.0312384e-01  -6.3010116e-01  -9.1103848e-01  -1.3019964e-01   3.6940349e-01  -9.7604466e-01   2.3673548e-01   8.3534813e-02   2.6484948e-01   7.8771657e-01   5.8258879e-01  -2.5450849e-01   9.0554494e-01  -2.4875140e-01  -9.7560543e-02   1.4432170e-01   7.3692079e-01   1.2345813e-02  -7.9851740e-01  -9.5896817e-01   1.6426482e-01  -7.8296718e-01  -5.6566640e-02   7.5380748e-01  -2.2878449e-01  -6.4806676e-01  -3.1635611e-01  -7.1126668e-01  -1.4437764e-01   8.2504839e-02  -6.6668872e-01   5.3781237e-01  -5.7789146e-01  -1.1795566e-01  -3.2037512e-01   3.2167322e-01  -8.2756736e-01   2.3679182e-01   7.8571353e-01  -5.6058057e-01   6.2204342e-01  -3.4408289e-01  -4.4721473e-01  -3.8957280e-01   1.6901888e-01  -9.8988886e-01   6.6882126e-02  -8.8004773e-01  -9.3585858e-01   4.1729465e-01   8.7883886e-01  -2.2317899e-01  -6.2231074e-01   7.5942069e-02  -6.1835386e-01  -5.7341083e-01   5.3490371e-01   1.4589954e-01  -4.6729946e-01   7.4532313e-01   2.9559067e-01   9.0109968e-01   3.9812807e-01  -3.3145512e-02  -5.1718948e-01  -5.4642241e-01  -7.0945836e-01  -5.8666579e-01   6.6182888e-01  -2.4977372e-01  -7.2116908e-01   3.7959490e-01  -8.5213555e-01   2.3955436e-01  -5.3131296e-01  -5.2077363e-01   2.7963788e-01   3.1128710e-01   8.1831237e-01   1.4099993e-02   1.3496161e-01   9.0001015e-01  -3.2546356e-01   6.4899913e-01  -5.9096629e-01  -4.3725285e-01  -6.1235506e-01  -9.8811685e-01  -9.7222684e-01  -8.1535795e-01  -8.5955553e-01   3.6082189e-01   5.7835419e-01  -6.5940531e-01   1.2148053e-01  -6.7222634e-01  -7.0542229e-01   5.3730971e-01  -8.7568666e-02   4.9355037e-01   8.9802000e-01   7.8100272e-01   7.0330868e-01   9.9122904e-01   1.7154595e-01   2.4363018e-01   9.5177886e-01  -3.3483687e-02  -8.4692644e-01   5.3762729e-02  -4.4368671e-01   6.0756084e-01  -3.3290009e-01  -5.2474151e-01   9.6672565e-01  -1.2892698e-01   6.0659129e-01  -5.3679221e-01   6.3859753e-01  -8.7485179e-01   1.2386597e-01  -3.9386343e-01  -1.3836921e-01   7.7831594e-01  -6.1642955e-01   2.0525062e-02  -9.0298099e-01   2.8167014e-01   9.8287613e-01  -8.2896560e-01   1.6040737e-01  -8.2593280e-01  -2.9362850e-01  -5.3989588e-01   7.3779165e-01  -5.7874783e-01   2.0807694e-01  -9.5578894e-01   3.3760594e-01   8.8248876e-01   3.8867518e-01   1.3259299e-01   5.8629992e-01  -5.9801119e-01  -8.1986250e-01  -1.5651155e-01   9.0606117e-01   7.0771430e-01  -5.9680895e-01   5.0577219e-02  -7.6155961e-01  -1.9705593e-01  -8.1797312e-01   4.9184724e-02  -3.3458604e-01   1.1040654e-01   9.9592046e-01  -1.4885846e-01  -6.9139350e-01  -5.3884255e-01   2.8919790e-01   8.4480782e-01  -2.2528803e-01  -2.1099785e-01   4.6511717e-01  -4.6877170e-01  -1.6105173e-01  -5.3670357e-01  -7.4870030e-01   4.1169030e-01   9.0029600e-01  -2.8958916e-01   1.5126579e-01   9.3138513e-01  -4.2422058e-01   7.1409877e-02  -6.4480645e-01   8.9487660e-01   2.6325998e-01   5.9528249e-01   2.6932925e-01   7.4943602e-01  -2.0636420e-01  -1.5114467e-01  -5.8749264e-02  -4.4672212e-01   2.3091883e-01   5.3154595e-01   9.4548250e-01   6.1992680e-01  -5.7580967e-01  -2.0929059e-03   5.7145224e-02  -2.1212719e-01  -7.6350496e-01  -7.8035863e-01   1.7466914e-01  -1.6402070e-01  -2.5389766e-02  -6.8952728e-01  -8.1551134e-02  -5.4545967e-01  -4.4058467e-01   7.2407159e-01  -8.1006403e-01  -8.7177147e-01   9.7485162e-01   6.6066062e-01   3.3563676e-01   4.0891346e-01  -3.4296651e-01  -4.7356702e-01   5.3191671e-03  -8.3674006e-01  -7.3236817e-01  -4.9482980e-01   7.3400320e-02   8.7189631e-01  -6.5962778e-01  -6.6043838e-01  -5.6810548e-01   2.8237548e-01   7.0102692e-01   7.6575513e-01  -6.8974573e-01  -9.7358262e-01  -6.5589415e-01   7.0372164e-01  -5.3078564e-01   1.3889150e-01  -6.4088802e-01  -8.8605015e-01   7.5667113e-01   2.9899258e-01   3.8505208e-01   2.5537463e-01   1.6025373e-01  -2.0476060e-02  -2.4828005e-01   3.8133057e-01   8.0639710e-01   2.1948773e-01  -4.6748435e-01   3.3303190e-01  -9.0343342e-01   4.3149008e-01  -4.0265053e-01   3.1336270e-01  -1.8474374e-01  -1.2280011e-01  -3.8792409e-01  -2.5826901e-01   9.2025861e-01  -2.3506298e-01   6.3210253e-01   2.4803787e-01  -5.5937425e-01   8.4143243e-01   8.0772130e-01  -5.3848493e-01   4.6798600e-01   5.1417951e-01   9.5089176e-01  -4.8849427e-01   5.1058209e-01  -2.6797723e-01   6.6636606e-01  -3.8196254e-01   4.7229747e-01  -3.4543772e-01  -8.8964686e-03  -8.1724112e-01  -1.8982585e-01  -5.4434882e-01  -8.2617905e-01  -5.8695671e-01  -3.3318842e-01  -1.9613799e-01   9.6371009e-01   2.4175686e-01  -8.3820550e-01  -5.7451454e-01  -7.3518489e-01   9.5835903e-02  -3.9032812e-01  -7.6252412e-01  -1.4121295e-01   7.3029682e-01   8.8713908e-01  -3.2788742e-01   8.0533336e-01  -9.2346325e-01  -1.8915699e-01   4.2500777e-01   1.8235083e-01  -1.5637477e-01  -5.4424531e-01   5.0287021e-01   4.4528176e-01   1.7558087e-01   2.5932860e-01  -7.4152003e-01  -9.1359723e-01   5.2778830e-01  -9.1909285e-02  -6.8484757e-01   3.2538168e-01  -2.2040549e-01   8.1151101e-01  -7.3061592e-01  -4.3033619e-01  -2.2154564e-01   4.3276106e-01   8.1763723e-01  -8.7311106e-02  -2.2603419e-01  -4.7636257e-01   4.3846518e-01   9.2687081e-01   3.7889619e-01  -1.8520792e-01   4.7269924e-01  -6.8577077e-01   6.8053148e-01   8.2034818e-01   4.6170233e-01   3.3256068e-01  -9.9005772e-02  -3.1509412e-01   9.7740418e-01  -4.0722005e-01  -5.2100826e-01   3.8155103e-01  -4.7407850e-01   1.2949350e-01  -8.2137943e-01   9.2810594e-01  -6.3181187e-01  -5.9501798e-01   2.2543772e-02  -1.4727884e-01  -5.6861023e-01   1.7987879e-01  -7.5700543e-01  -7.5876832e-01  -5.6989257e-01   3.0166310e-01   7.9693361e-01  -6.7409255e-01   4.5950678e-02  -6.4959326e-02   6.5610462e-02   8.1586533e-01   6.0376675e-01   9.2001604e-01  -9.0054642e-01   7.3234508e-01   5.6161679e-01  -7.1005789e-01  -1.2657665e-02  -4.7046378e-01   4.1589515e-01   4.1243658e-02   1.0172563e-01   8.9154847e-01   4.3841756e-01  -8.4468016e-01  -9.2210609e-01  -3.3934642e-02   6.7209807e-01   9.8531806e-01  -1.7991831e-01  -2.8358630e-01   6.0882047e-01   8.0221076e-01   8.0195889e-01  -4.5526265e-01  -9.7501781e-01  -5.8210170e-01  -4.7055210e-01  -5.6308014e-01   6.4807080e-01   7.2700996e-01   2.9962770e-01   6.4398774e-01  -4.3520780e-01  -4.6192396e-01  -6.1112369e-01   1.3312683e-01   1.5940974e-01  -9.8142946e-01  -9.7116465e-01   7.9446325e-01   9.1545331e-01   2.6990147e-01   3.6800259e-01  -4.6626024e-01  -5.7824900e-01  -7.5335602e-03  -9.0123750e-01   5.5777372e-01  -9.2471976e-01   6.9340523e-01   9.0406179e-01   5.6672928e-01  -6.8440080e-01   9.9802203e-01  -3.6284374e-01  -9.4190892e-01  -7.1457342e-01  -6.3813238e-01  -1.9453413e-01  -6.6085013e-01  -5.4083766e-01   4.2407183e-01   5.9495738e-01   3.7826972e-01  -9.1694915e-01   6.6247699e-01   1.3457609e-01  -7.5090751e-01  -2.6155580e-01   2.4775927e-01  -6.6008840e-01   5.2170781e-01  -5.5401145e-01  -8.8679638e-01  -1.4124890e-01   7.1241643e-01  -7.3083729e-01   3.8159439e-01
   3.7747283e-01  -6.0373832e-01  -3.4088087e-01   8.6636011e-01  -7.7355583e-01   2.9545454e-01  -2.2368952e-02   8.6001602e-01  -9.2089302e-01  -6.4385607e-01   6.7453829e-01   9.3966255e-01   6.2505239e-01   2.4619570e-01  -6.4529494e-01   6.7675894e-01  -8.9856633e-01   9.5819863e-02  -4.5764308e-01  -1.5681433e-01  -7.5784431e-01   6.3871321e-01   2.4401363e-01   7.2771955e-01  -1.8479627e-01  -5.0490316e-01   5.4142169e-01   3.8820188e-01  -5.4063446e-01  -7.1385834e-01   1.6358726e-01   7.2780747e-01   2.5954052e-01   8.9434741e-03  -1.5099250e-01  -6.8156520e-01   2.4707949e-01   4.1622283e-01   4.0101041e-01  -6.1787563e-01  -8.2594907e-01   6.8003895e-01   9.4511124e-01   4.2982064e-02   4.6533190e-01   3.1792850e-01  -1.4878908e-01   6.6286961e-01   2.3952918e-01  -3.4453432e-01  -3.4437692e-01   6.2126074e-01  -8.5171482e-01  -9.0590703e-01   9.1533773e-01   4.5112459e-01   3.5399771e-02   7.4592254e-01   1.7112421e-01  -2.6149995e-01  -1.7476376e-02   1.5938572e-01  -2.7838672e-01   2.0342250e-01   6.2368508e-01  -9.6905155e-01   5.5769071e-01   2.1856136e-01  -1.8310640e-01  -5.7688175e-01  -8.0147806e-01  -3.5386080e-01   3.5970189e-02   8.6322545e-01   7.7933829e-01  -2.6443301e-01  -4.8418216e-01  -6.5249970e-01  -5.6083891e-01  -7.1908285e-01   3.9758177e-01  -1.8318459e-01   8.1598107e-01   9.0639627e-02  -3.9341689e-01   9.2622580e-01  -4.7895571e-01   9.0488179e-02  -4.6858582e-01  -7.4302372e-01   5.7299333e-01   3.1969525e-01  -1.8688660e-01  -1.4343658e-01  -8.7303547e-01   6.8608608e-01   3.4021708e-01  -8.0920970e-01   9.5238343e-02  -8.4275594e-01   5.6843442e-01   9.5109981e-01   5.9525482e-01   8.9776705e-01   2.7899706e-01  -9.5997933e-01   3.7985416e-01  -5.8450116e-01  -5.8558425e-01  -3.3997417e-01  -5.1504602e-02  -9.7206197e-01   9.2319438e-01  -3.7913985e-01   6.5352015e-01   6.5893611e-01  -1.7826093e-01   7.2674962e-01  -4.3933249e-01  -6.0409687e-01  -7.8092026e-01   9.7875023e-02   9.4242592e-01   9.0039648e-01  -6.6926973e-01   4.4748704e-01  -7.9166119e-01  -4.9532823e-01   3.8121541e-01  -9.8440437e-01   2.8242065e-01   4.3588788e-01  -6.9373141e-01  -2.2010121e-01  -7.2158401e-01  -2.3754618e-01  -2.5861721e-01  -5.9212264e-01  -3.8919271e-01   8.6172128e-01  -1.2497202e-01  -5.9397656e-01   5.4234100e-01   2.9785900e-01  -8.9388703e-01   9.8445754e-01  -7.7709026e-01   2.1363962e-01   5.6700461e-01  -9.2855639e-01   9.7491598e-01   7.7060010e-01   2.7888841e-01   1.2492770e-01  -1.2760451e-01  -9.0139106e-01   4.7055519e-01   9.3985962e-01   3.5773747e-01   5.2558261e-01   6.7558805e-01  -3.3474068e-01   2.8758890e-02  -9.0009119e-01  -4.6179166e-01  -2.1484643e-02   6.9880429e-01   4.6787853e-01   6.1627360e-01   2.1517932e-01   9.3499962e-01  -9.0467479e-01  -8.7434091e-01  -7.7864031e-01  -5.8929692e-01   3.0679372e-01  -8.0113595e-01  -8.3066328e-01   2.2456504e-01   2.8976120e-01  -8.4618137e-01   4.5951537e-01  -1.5247965e-01  -6.5202650e-01  -5.8712819e-01   7.6274339e-01  -9.3235886e-01  -9.5123275e-01   8.5570520e-01   4.6794625e-01   4.8457642e-01  -9.0899566e-01  -4.3385527e-01  -4.2071509e-01  -9.5905456e-02   2.0194734e-01  -1.4374900e-01   5.8671580e-01   8.0719823e-01   5.9832403e-01  -6.3957131e-01   6.7236147e-01   2.6061765e-01   8.5196663e-01   4.6768786e-01  -3.4688797e-01  -7.3091594e-01  -9.4309193e-01  -2.1655794e-01  -8.6401986e-01   6.7137592e-01  -3.1682520e-01   6.2498109e-01  -2.6290887e-01  -1.8098399e-01   7.6681141e-02   1.0974386e-02   4.9287450e-01   8.8155514e-01  -6.7799569e-01   8.2723681e-01  -4.2096231e-01  -5.4709587e-01   7.1020803e-01   5.9379334e-01   9.8639760e-01  -4.5762466e-01  -1.0906553e-02  -1.3310601e-01   9.5119190e-01   2.9834903e-01  -2.2187985e-01  -1.3607320e-01   8.9020097e-01   3.4281358e-01  -7.3339130e-01   8.7577959e-01  -1.3029406e-01   4.6605072e-01   4.5007470e-01  -6.7415932e-01   8.3383647e-01   2.4226807e-01  -2.0197119e-01   9.5643894e-01  -4.5786991e-01   1.9781188e-01   3.6406912e-01  -6.3345025e-01   3.5723829e-02   3.9800190e-01   1.9183276e-02   1.8770323e-01  -2.5514821e-01   1.1557427e-01   6.1585067e-01  -6.6319658e-01   7.9007436e-01   8.4642798e-01  -6.8170089e-01  -3.5744193e-01  -6.6573359e-01  -1.4512560e-01   7.8420542e-01  -1.5624570e-01   7.4091413e-01  -6.6964702e-01  -4.6754648e-01   3.7203664e-01   3.0513661e-01   6.6818638e-01  -8.4119370e-01   7.0184767e-02  -6.1836598e-01  -4.9410874e-01   1.7760708e-01  -2.9589592e-01   1.3010553e-01   1.0368400e-01  -5.0903135e-01   5.1884709e-01   5.9914979e-01  -7.3664602e-01  -8.8513392e-01  -1.0280055e-01   6.3579237e-01  -8.2403398e-01  -4.1618622e-01  -9.6538442e-01  -8.5819393e-01   8.5574920e-01  -5.1689319e-01  -5.3193577e-01   9.9433226e-01   3.1189916e-02   4.4483516e-01   4.9043435e-01  -4.1775611e-01  -6.6025538e-01   1.8840347e-01  -6.4422975e-01  -9.4815411e-01   3.6726629e-01  -1.3361461e-01   3.0612621e-01   2.2120844e-01  -6.9144670e-01  -4.5134559e-01   7.5816028e-01   1.8899729e-02  -8.0512862e-01   5.4426694e-01   5.5331974e-02   5.7202152e-01  -7.5672781e-01   9.8571686e-01  -5.6709966e-01   3.4742029e-01  -1.8255001e-01  -8.7875635e-02  -8.1003792e-01   1.2867203e-01  -3.2795431e-01  -4.4738807e-01  -9.1230975e-01   1.9684191e-01  -8.3734247e-01   2.4380752e-01   1.5391248e-01  -8.3823475e-01   7.0422842e-01  -8.4836866e-01  -9.9312587e-01  -9.9753898e-01   5.1891960e-01  -2.7490940e-03  -6.7629588e-01   4.7366923e-01  -6.3606087e-01  -8.5228188e-01   7.8981795e-01   4.0938191e-01   8.4176564e-01   1.5527670e-01  -5.0952973e-01  -8.5088421e-01   8.1483383e-01   9.4299596e-02  -6.1852938e-01   6.8173372e-01   4.3628465e-01  -9.4236489e-01   2.2236907e-01  -6.4888503e-01  -8.0542255e-01   7.4303550e-01   4.9506774e-01   6.4158216e-01  -5.6396536e-01   1.3968885e-01   7.1535674e-02   4.0959407e-01  -8.1057368e-02   9.7436365e-01  -1.4217997e-01  -3.4768898e-01  -1.7682176e-01   6.7957507e-01   3.0478677e-01  -5.0880781e-02   9.2080125e-01   3.1449448e-01   3.1981829e-01   7.6941703e-02   3.3122660e-01  -6.5708480e-01   6.0178043e-01  -2.6672726e-01   9.0348401e-01  -6.5869264e-01  -1.2163056e-01   1.9076286e-01  -5.7455838e-01   1.1277859e-01  -3.5334011e-01  -4.5990717e-03   9.8154400e-01   7.9976246e-01  -2.6860463e-01  -5.3022467e-01   4.9339085e-01   4.6340236e-01   9.8135069e-01  -4.3884841e-01  -4.9949930e-01   7.6258554e-01  -3.6430989e-01  -1.5986166e-01  -7.0524360e-01  -4.3610164e-02   4.2435400e-01  -9.5344308e-01  -4.3072748e-01   5.4842304e-02  -3.9397192e-02  -9.4457923e-01  -4.3774989e-01  -5.1784082e-01   1.1219859e-01  -8.5739103e-01   8.9417392e-01  -6.8256957e-01   2.1914093e-01   2.6966765e-01   5.7887470e-02  -9.2797833e-01   1.6642912e-01  -7.5367508e-01  -3.7469844e-01  -9.1624557e-01   6.0272216e-02  -9.6623551e-01  -9.3890808e-01  -9.3294747e-01   4.9612681e-01   3.9812371e-02  -5.2112752e-01   4.5827006e-01  -6.9220116e-01  -1.7810662e-01   8.0264592e-01  -2.6370035e-01  -8.7363350e-01   4.3542768e-01  -8.3595671e-01   1.1786124e-01  -2.1390519e-03   8.6550417e-01   9.4639357e-01  -7.7085030e-01  -5.1573836e-01  -8.5193515e-02   9.7699844e-01   7.6599666e-01  -6.8305021e-01   5.4312838e-01   1.0604545e-01  -1.6974437e-01   2.8577112e-01  -6.2602249e-01   5.3747970e-01  -9.7063935e-02   7.6961080e-01   3.1666036e-01  -8.5785208e-01  -9.3598945e-01   2.6081828e-01  -7.5725604e-01  -9.4999875e-01  -8.1109720e-01   7.8916226e-01  -5.4159083e-01  -5.9621438e-01   2.4287100e-01   4.0014907e-01   4.0492162e-01   8.5404529e-02   2.8304072e-01  -1.9469146e-01  -3.8286958e-01  -8.5395121e-01  -3.5955526e-02  -6.0173683e-01  -4.8746716e-01  -5.4875763e-01   4.9240029e-01  -5.1781005e-01   3.2575069e-01   2.8083516e-01   6.3714017e-01   3.3588398e-01  -4.4185925e-01   6.3244411e-01   4.9488644e-01  -6.8548095e-01  -4.8750882e-01  -3.9051752e-01   1.6104976e-01  -5.7623789e-01   5.8775659e-01   8.4089674e-01  -5.9423924e-02  -5.4926408e-01   3.8716614e-01  -8.8326437e-01   9.6591335e-01   9.9842360e-01  -1.9112851e-01  -9.8902622e-01   5.9097301e-04   5.6470235e-01   3.4369028e-01  -5.0920436e-01   9.2182780e-01  -5.0075197e-01  -4.4382435e-01  -9.9832102e-01  -9.0352573e-01   7.9679618e-01   7.8975711e-01  -8.1595577e-01  -4.1875553e-01   8.4618125e-01   3.2213269e-01  -1.5487709e-01  -2.5024701e-01   3.9669180e-01  -7.0858338e-01  -9.9645666e-01   2.8894634e-01   8.4957131e-01   8.1388277e-02  -1.9406896e-01  -6.9349358e-01   1.7765958e-01   2.8561574e-01   5.6198408e-01  -9.0158857e-01   3.4776442e-01   7.5843481e-01   1.9990569e-01   4.4373154e-01   1.6110854e-02  -9.7505330e-01   6.1249493e-02   5.7600769e-01  -1.4413553e-01  -9.4830601e-01  -7.6416935e-01  -8.9524015e-02  -7.6207356e-01   2.9979184e-01  -2.8136166e-01  -6.3040324e-01  -7.6368198e-01   6.1550713e-01   5.0757531e-01  -4.1944547e-01  -8.8075470e-02   5.5546118e-01   7.7366489e-01   8.1314717e-01  -8.0666390e-01   7.1063951e-01  -1.3149463e-01   2.9543476e-01  -7.4853419e-02  -4.6955092e-01   9.3183112e-01   5.0016953e-01   1.6631139e-01  -5.0311612e-01  -2.7394257e-01  -6.6630019e-01  -2.5175395e-01   1.7556116e-01   7.3279173e-01  -7.8207921e-01  -1.6712783e-01  -4.9339684e-01   5.0763212e-01   5.3013186e-02  -2.6544436e-02   9.5880868e-01   2.3517686e-01  -9.1261163e-03   3.8532354e-01   1.4019671e-01  -7.0983380e-01  -2.6583774e-01   1.2634199e-01  -2.2109721e-02  -7.7822759e-01  -3.0349296e-01  -7.4221970e-01   7.8264244e-01  -8.0318572e-03   2.4689371e-02  -4.5169317e-02  -4.7550533e-01  -7.9985911e-01  -3.9010989e-01   4.6183213e-01  -2.3873622e-01  -7.9747804e-01  -1.2012044e-01  -4.3079758e-01  -6.7732044e-01   5.2965211e-01  -4.9819549e-01   8.9989145e-01  -6.8591566e-01   9.4283772e-01   4.3216969e-01  -5.0192492e-01   3.5140472e-02  -4.1567394e-01  -8.9952677e-01  -7.3076761e-01   5.1139655e-01   1.5743313e-01   9.3688516e-01  -4.4163835e-01  -8.1352534e-01   9.1798676e-01  -4.6552831e-01   3.1086547e-01  -3.4687815e-01  -2.1350472e-01  -2.5214822e-01  -1.5933370e-02  -5.6007050e-01  -8.9309729e-02   8.4064865e-01  -9.6882773e-01   7.9547021e-01  -2.1333444e-01  -5.6240173e-01  -4.4567810e-01   3.9970115e-01  -3.6646684e-01   4.3526543e-01   9.2483736e-01   6.1871117e-01   8.5091556e-01   3.3947084e-01  -1.5783085e-03  -5.0649789e-01   7.3054493e-01   2.4654385e-01  -4.4246613e-01   9.6766982e-01   2.3542448e-01  -1.3292027e-03  -8.9513193e-01   4.6697676e-01  -4.2515044e-01   7.8671932e-01   5.1343254e-01   3.0148280e-01  -1.4138213e-01  -1.8349520e-01  -1.7227620e-01   5.5665028e-01  -4.8051991e-01   9.5661312e-01  -3.2265336e-02   2.3600642e-01   4.3844784e-01   4.5149507e-03   8.5566707e-01  -4.3878021e-01   5.4977100e-01   4.8493962e-01   6.4151340e-01   5.9026921e-01   9.3663442e-01   5.5589036e-01   3.4118893e-01  -4.2132211e-01  -5.1283783e-01  -7.7212158e-01   2.1493899e-02  -9.9586935e-01  -8.1230143e-01  -1.5815750e-01   6.9058863e-01   2.1729469e-01   4.7712741e-01   1.1063383e-01   7.7153610e-01  -2.4960961e-01  -3.6822959e-01  -3.9997258e-01  -5.9199926e-01   9.5686018e-03   4.2160083e-01  -3.9376820e-01   3.5170916e-01  -7.8928457e-01  -2.2111548e-01  -4.7162028e-01   1.5024552e-01  -1.1915891e-01   7.1503972e-02   6.8339510e-01  -9.5526934e-01   3.8520945e-01  -3.1438830e-01   7.3997927e-01  -3.1507265e-01   5.7004701e-01   7.6784196e-01   7.6214741e-01  -2.4792623e-01  -2.0184287e-01  -1.6155674e-01   7.2988301e-01  -3.4101363e-01  -8.3781491e-01  -5.0263106e-02   1.3305189e-02   4.4522985e-02  -1.7218913e-01  -6.6613510e-01  -8.4820066e-01   7.1957418e-01  -2.9127664e-01   3.7826744e-01   8.6800915e-01  -7.7602319e-01  -4.0292137e-01   7.1341465e-01  -6.7219084e-01  -2.2561668e-01  -5.7916830e-01   4.4840438e-01  -7.2598279e-01  -8.5163217e-02   5.7070324e-01  -2.4176786e-01   4.4686570e-01  -7.3638659e-01  -5.6816648e-01   6.8349916e-01  -1.6308011e-01  -3.4458951e-01   2.0734104e-01   5.4148535e-01   2.6849399e-01  -6.8635050e-01  -2.6295129e-01   5.2838784e-01   1.3681891e-01  -8.5316869e-01   2.0363935e-01   8.6705540e-01   2.8364293e-02  -1.5637906e-01   9.9401269e-02   6.5534993e-01  -1.9192283e-01   2.8529072e-01  -3.2717703e-01   9.2689207e-01   2.9317683e-01   4.7809095e-01  -6.5761109e-01   9.5394105e-01   7.1787232e-01  -7.4570085e-01   6.3636703e-01   8.9295580e-01  -3.3898611e-01  -7.7918008e-01   9.3976469e-01   1.2520693e-01   6.1529568e-01  -8.3149397e-01   3.7917301e-01   4.4130599e-01   8.6330254e-01  -4.7926685e-01   6.1895442e-01   2.1064344e-01  -1.3486429e-01   6.0006100e-01   4.4747143e-01  -8.4059043e-01   6.4493839e-01  -2.2507836e-01  -2.0847287e-01  -8.3712310e-02   7.4314058e-01  -1.6082653e-01  -4.1687387e-01   9.7108507e-01  -3.8755294e-01   7.3500331e-01   3.3650862e-02  -9.5058155e-01   3.7247481e-01  -5.6538558e-02   9.6654386e-01   4.2456156e-01  -3.9666728e-01  -2.7606453e-01  -1.3009840e-02   1.4824604e-01  -7.1223635e-01  -4.8337366e-02   5.7941770e-01  -3.5926027e-01   9.7475006e-01   7.3743785e-01   2.6545275e-01  -4.3154851e-01  -8.7897329e-01   8.8397960e-01  -8.2707971e-03   5.2838755e-01   3.9895601e-01   3.4600259e-01  -3.6184860e-01   4.8042442e-01   9.3276695e-01   4.8684102e-01  -2.1312470e-01   4.8504333e-01  -8.9696396e-01  -3.2946689e-01   4.6504165e-01  -7.1166063e-01   7.5755500e-01   9.2400016e-01   1.0163239e-01  -4.5402365e-01  -4.8441603e-01  -8.0655751e-01   8.6805655e-01  -6.7209329e-01  -8.1339352e-01  -2.2916423e-01   6.1262503e-02  -2.1028813e-01   1.5521071e-01   9.4901433e-01   6.1896429e-01  -8.1278312e-01  -6.5484472e-01   3.4572604e-01   2.4198257e-01  -7.7489958e-01   3.8723613e-01   4.0271596e-01   9.0949431e-01  -2.4282563e-01   7.8557348e-01  -7.4624704e-01   1.2051490e-01   9.3655696e-01  -7.7332901e-01  -3.8390944e-01  -6.3080175e-01   1.7586211e-01  -7.4648242e-01   1.7493982e-01  -8.6054415e-01   5.5360965e-01   2.0291228e-01   8.0160657e-01   8.8633943e-01   1.2386359e-01  -6.8714265e-01   5.4498096e-01  -3.4709721e-03   1.8676581e-03  -7.7963656e-01  -5.9981416e-01   1.5058324e-01  -4.6414964e-02  -5.1262759e-01  -8.4378021e-01  -3.1822061e-01  -4.8229853e-01  -9.2344299e-01   4.5262699e-01  -4.6195834e-01  -8.6588246e-01  -3.0699924e-01   6.2835125e-01   2.2523219e-01   5.2266678e-01  -5.2008064e-01   7.3920550e-01  -7.3346445e-01   3.0203288e-01  -7.4649028e-01   5.9788001e-01   2.3920510e-01   3.1188174e-01   2.9235858e-01   9.5747957e-01   7.1035805e-01   5.9802101e-01  -2.4219710e-01   4.4412011e-01   1.9142103e-01  -8.5073615e-02  -7.6118365e-01   1.9617546e-01  -4.1492180e-01   5.4219546e-01   2.3365823e-01  -2.5661741e-02  -2.7222479e-01   1.7123785e-01   6.9598825e-01  -6.3710584e-01  -7.1879656e-01  -5.2600610e-02   9.7683572e-01   2.1317898e-02  -4.8619416e-01  -8.3690559e-01   6.5521528e-01   2.8436015e-01   6.2567904e-01   6.8921579e-02   2.5264971e-01   4.2564529e-01  -1.9690216e-02   4.0049735e-01  -8.7219882e-01  -1.6589927e-01   8.8852826e-01   8.7430212e-03  -8.2730810e-02   4.6899057e-02   7.8006568e-01  -7.3928877e-01  -1.0652286e-01   4.2196162e-01   4.1959879e-01   2.4205377e-02   5.3315785e-01  -8.3447631e-01   2.4806168e-01   3.4128672e-01  -6.2019695e-01  -2.1101220e-01  -5.1924932e-01   5.3839920e-01  -5.5854807e-01  -9.8297828e-02   2.2729760e-02  -3.7270537e-01  -1.4275076e-01   8.5657100e-01  -7.7278781e-04   8.2366283e-01  -9.1657550e-01   3.8757998e-01   2.4290685e-01  -2.0870506e-01  -4.5605147e-01   8.2719595e-01   8.3852282e-01   3.3774717e-01   2.3513586e-01  -3.2247940e-01   6.6888824e-01   9.2117968e-01  -3.6219169e-01   6.5874031e-01   5.6585271e-01  -2.5671974e-01   1.1555438e-01   5.8488259e-01  -5.2912086e-01  -5.6750580e-01  -8.9377518e-02  -6.6411337e-01   3.3337327e-01  -7.1165810e-01  -2.1723893e-03   8.4099741e-01  -3.2890701e-01  -8.6785523e-01   2.1188795e-01   4.9376469e-01   4.1638909e-01   5.2215509e-01  -4.3803009e-01  -8.4331416e-01  -6.7435222e-01  -6.6853190e-01   6.5001824e-01  -6.2563480e-01  -6.6514820e-01  -2.9069986e-01  -9.3862876e-01   8.3893363e-01   6.0286511e-02  -8.9281900e-01  -6.8066959e-01  -3.2156264e-01  -2.4174688e-01  -9.6589174e-02  -4.2361120e-01
   5.1141148e-01   2.3886910e-01  -3.3618546e-01   8.2699855e-01   8.7982928e-01   7.1227047e-01   1.6728147e-01   6.8242782e-01   2.8203540e-01  -6.3353980e-01  -8.1155850e-03   3.9337690e-01   6.6524140e-01   1.0045889e-01  -1.1545486e-01  -4.2665818e-01   7.3126684e-01  -7.9804768e-01  -2.9481570e-01  -4.4750504e-01   8.2626419e-01   9.9001898e-01   7.7849924e-02   1.8833809e-01  -5.8151731e-01  -9.9487730e-01  -4.6453325e-01   8.6352964e-01  -9.5133398e-01   5.8322103e-01  -2.3634946e-01  -7.0748059e-01  -2.6739248e-01  -6.7047735e-01   4.5505211e-01   6.0514790e-01   8.7255154e-01  -1.4040053e-01   8.0003346e-01  -4.8471687e-01  -4.8510001e-01  -4.9205935e-01  -5.5853213e-01   2.5631007e-01   8.5039802e-02  -7.0429868e-01  -2.6845406e-02   5.0814338e-01  -7.0613571e-01  -6.2814598e-01   2.8896554e-01   2.7589047e-01  -5.4443858e-01  -2.0194022e-01   1.6234535e-01  -6.0862545e-01   4.3849604e-01   3.4168991e-02  -2.5163578e-02   3.2710807e-01   4.6634038e-01   8.0351439e-01   9.6225811e-01   6.1324353e-01   6.5771228e-01  -9.6043958e-01   9.9445683e-01  -5.9864249e-01  -4.8594442e-02  -8.6056962e-01   1.3900041e-01  -6.1048253e-01   1.6659072e-01   5.2613186e-01   2.2983853e-01   6.3971059e-01  -1.2548586e-01  -8.9846335e-01   5.4172118e-01   4.5724187e-01  -4.6256929e-01   7.6396252e-01  -5.9765319e-01   9.9974676e-01  -4.0266574e-01  -8.8564389e-01   7.7364636e-01  -4.5876970e-01   1.6980570e-01   4.9651630e-01   5.8468885e-01  -6.1053911e-01  -9.2000591e-01  -6.2918419e-01  -8.7925562e-01  -8.5365236e-01  -7.2839974e-01  -4.7321327e-01  -1.7693135e-01   4.6039719e-01   6.0750155e-01  -2.3859585e-01   7.6068408e-01   9.3342291e-01  -8.8697842e-01  -6.8328236e-01  -9.4337016e-01   6.1218670e-02   7.5704257e-01  -4.7425547e-01  -7.9398927e-01   4.5652055e-01   2.6229479e-02   4.4356825e-01   9.2626276e-02  -8.7151035e-01   6.1998174e-01  -7.2915169e-01  -4.0911014e-01   3.5473854e-01   7.1400147e-01  -3.5632593e-01   5.5276318e-01   7.2763265e-01  -4.1611923e-01  -9.2934205e-01   3.7272493e-03   9.2796776e-01  -1.8826158e-01  -3.6435806e-01   7.6698066e-01   4.4182754e-01   9.7396981e-02  -7.1865547e-01  -6.0791090e-01  -5.4197381e-01   8.8018325e-03  -8.3181553e-01  -5.2090829e-01  -8.4258698e-01   3.9540039e-02   2.5485882e-01   4.7505403e-01   8.0038914e-01  -1.8249631e-01   4.5787875e-01  -2.1048467e-01  -7.7381276e-01   9.7460723e-01   9.0723248e-01  -2.8891838e-01   4.2314835e-01   5.3837808e-01   6.3029436e-01   6.3199491e-01   7.9809659e-01  -9.8158481e-01   6.5333198e-01   3.8991270e-01  -7.0392474e-01  -9.8465532e-01  -9.7794836e-02  -7.4708181e-02   8.5783826e-01  -6.9773866e-01  -1.7074207e-01  -1.4396828e-01  -7.8459089e-01   4.1301491e-01   5.1783258e-01  -9.9833684e-01   3.1216379e-01  -4.5577803e-01  -3.8671735e-01   4.8864785e-01   8.7973060e-01   4.0574570e-01  -6.0347668e-01   6.5266104e-01  -3.6732000e-01   1.6542483e-01   6.0633353e-02   8.7675181e-01  -3.6664540e-01   3.0500950e-02  -4.1302320e-01   6.4599803e-01  -4.8253848e-01  -8.4450545e-01  -9.1867063e-01  -4.0461754e-01  -6.6850336e-01   3.4297934e-01  -3.6913026e-01   8.9710746e-01  -2.1883243e-01   3.7192779e-01  -3.8465547e-01   4.6206899e-01  -6.2640792e-01   7.9563575e-01  -9.7584953e-01   3.0925624e-01  -8.6308970e-01   2.0560221e-01  -1.1039350e-03  -4.9053524e-01  -3.0889872e-01   4.1634209e-01   3.1800087e-01  -7.1775908e-01   7.1330883e-02   2.2421274e-01  -7.0441191e-01  -9.2214097e-01  -3.6736012e-01  -1.3289547e-01  -7.8162979e-01   3.2810720e-01   4.3319793e-02  -6.8524772e-01   3.4700094e-01   2.2710551e-01   1.0523592e-01   7.9129984e-02  -3.6223208e-01   6.3000763e-01   6.2260689e-01  -4.2350804e-01  -6.0018134e-01  -4.8283563e-01  -6.3842796e-01   3.7197895e-01   5.8718455e-01   6.3617369e-01  -1.8159414e-02  -4.2004775e-01  -1.0715363e-01   2.6272047e-01   5.8592999e-02   1.0860387e-01   3.1481976e-01   2.3452350e-01   6.0774294e-01   3.0159329e-01  -7.0312585e-01  -1.9550670e-01  -1.8932044e-01   8.9912828e-01  -3.2886166e-01   9.1274168e-01  -1.4846323e-01  -6.6887721e-01  -2.2766786e-01  -9.6083660e-01   7.6285452e-01  -3.1423367e-01   2.1515605e-01  -2.0512182e-01   9.1445353e-01  -9.1325771e-01  -7.7929436e-01  -9.5545816e-01   9.3782273e-01  -4.6872860e-01  -5.2807641e-01   7.0330994e-01   7.7385472e-01  -4.4343199e-02   6.8846513e-01  -6.4224998e-01   7.3604043e-01  -4.8664187e-01  -6.5601595e-01   5.7624352e-01  -3.8833303e-01   7.1562091e-01  -3.6294752e-01  -8.5173449e-01   9.6950846e-01   6.9025750e-01  -1.1912786e-01  -6.9957856e-01  -6.6189088e-01   9.7897566e-01   8.1411041e-01   2.2138771e-01   8.5457426e-01   3.3473616e-01  -8.2483625e-01  -1.2098392e-02  -3.2423544e-01  -3.1268877e-01  -6.2986972e-01   4.6076150e-01   8.3110967e-02  -2.8264312e-01   8.0372191e-01   3.3509458e-01  -7.2342646e-01   8.8448551e-02  -7.0219062e-01   7.0931541e-01   3.4203376e-01  -7.7581920e-01   9.6300212e-01  -9.3860352e-01   6.5942592e-01  -4.3749701e-01   7.1878426e-01   8.5778290e-01   5.9497636e-01  -8.7044877e-01  -1.5519851e-01   4.7005781e-01   5.9719577e-01  -7.6547554e-02   2.3516291e-01   9.6282591e-01   5.9967249e-01   9.1680362e-01  -7.6000178e-01  -8.4362355e-01   9.3372194e-01   1.4626968e-01  -3.9935165e-01  -9.0711370e-01   6.7754259e-01   5.2435289e-01   3.9374286e-01  -3.0829734e-01   2.3398140e-01  -3.4602930e-01  -2.9401314e-01  -3.2609278e-01  -4.5078494e-01  -7.5088549e-01   3.5213256e-01  -2.0609987e-01   9.0474841e-01   5.5579695e-01  -2.6769969e-01   6.1145181e-02  -7.7275894e-02   2.1828511e-01  -2.3162659e-01   6.6586929e-01  -5.3348084e-01  -9.9781119e-01  -2.9298153e-01   1.0057079e-01  -5.8532723e-01  -1.3926370e-01   9.1499803e-03   8.7518756e-01   8.9763872e-01  -4.3040906e-02   3.0901582e-01  -3.4154888e-01   5.6067912e-01  -2.6380157e-01  -9.8234294e-01  -7.6627098e-01  -8.4015238e-01   1.6819323e-02   2.2561161e-02  -8.3349959e-01  -6.8281588e-01   7.3722444e-01   3.3635253e-01  -1.2607128e-02  -4.8459662e-01   6.6164184e-01   8.3880907e-01   4.0229676e-01  -8.5936908e-01   3.5937891e-02  -1.6487337e-01   9.1878758e-01   3.4873245e-01  -8.2549172e-01   9.7658976e-01  -5.7395782e-01  -8.6291567e-01  -4.2925132e-01  -8.9400509e-01   1.7398915e-02  -2.7949355e-01   7.5813971e-01  -8.9832763e-01  -1.4362651e-01  -9.0539009e-01  -4.1787580e-01   4.3970600e-01   1.5942296e-02  -6.9646501e-01  -8.1130726e-01   5.6445099e-01   4.9604099e-01  -8.5874454e-01   5.7258144e-01   2.9114120e-01   5.0234167e-01   4.4920762e-02   8.6691407e-01   6.5530404e-01   6.0187754e-01  -8.8617876e-01  -8.5068483e-01  -6.0938784e-01  -7.2259733e-01  -5.2841912e-01  -9.9915718e-01   4.1209920e-02  -5.6349542e-01   7.5091225e-01  -2.3830255e-01   6.9168472e-01   3.7554923e-03   5.4886130e-01   8.8586728e-01  -1.6710585e-01  -5.8101524e-01   5.4143848e-01   3.9696058e-01  -7.3761146e-01  -9.6036731e-01   6.7109140e-01   1.3301518e-01  -4.8118823e-01   6.8453593e-01  -6.7973278e-01  -1.0226642e-02   9.0331310e-03  -1.0154063e-01  -5.3921666e-01  -2.2545965e-01  -5.3636263e-01  -3.3424338e-01  -9.2023691e-01   8.5288239e-01   7.2715747e-01  -3.9454348e-01   3.9561875e-01  -8.5487356e-01   5.5585802e-02   7.8325822e-01  -3.2733612e-01   7.6451796e-02  -8.3660626e-01  -1.0063399e-01  -5.7939339e-02  -6.2068121e-01  -8.8188080e-01   8.0743604e-02  -3.7845041e-01  -7.5572451e-01  -8.6274921e-01  -6.0837829e-01   6.0719570e-02   2.9787089e-01  -2.3588407e-01   4.3570999e-01   2.4255925e-01   8.3446985e-01  -4.7069451e-01   6.5011486e-01   8.6182863e-01  -5.1754495e-01  -8.9017321e-01  -7.8366647e-01   1.8441944e-02  -7.4399243e-01   3.6986552e-01  -4.1577217e-01  -6.7905628e-01   1.6047880e-01  -8.5458921e-01  -6.8730013e-01  -5.7081455e-01   9.1629832e-02  -6.1506210e-01   1.0265512e-01  -7.5737313e-01  -7.9340274e-01  -9.1309365e-01   2.5793652e-02  -1.2873882e-01  -8.5132313e-01   6.9418312e-01   4.9612842e-01  -3.0999240e-01  -7.9406360e-01  -7.5767993e-01  -9.7524896e-01  -9.4404542e-01  -5.8778047e-01   6.1612022e-01  -6.9529137e-01   2.2246248e-01  -3.2332958e-01  -1.5977688e-01  -5.6684407e-01  -5.3129864e-01  -2.3338533e-01  -2.8252169e-01   6.8283545e-01  -3.7690203e-01  -8.8312673e-02  -2.3152013e-02  -9.8586289e-01   3.4985734e-01  -8.1336190e-01   2.2813002e-01  -5.0854484e-01   5.5492103e-01   1.3658048e-01  -2.3568199e-01  -1.2906674e-01   9.3842027e-01   6.9338317e-01   3.0599461e-03  -9.4430840e-01   9.2008582e-01   2.5528408e-02   7.6214874e-01  -9.8174707e-01  -8.2465671e-01   1.1264970e-01   4.3657595e-01  -5.6037314e-02  -4.1975040e-01  -7.3673636e-01  -5.5754192e-01  -2.8206674e-01  -6.1988867e-01  -4.6695992e-01  -5.7331771e-01  -3.2862039e-01   3.8577132e-01  -6.7807519e-01  -7.4529635e-01   8.2740943e-01   3.3583657e-01  -2.0682530e-01   2.6727168e-01  -2.3035915e-01  -7.5934268e-01  -6.1088442e-01   9.6666863e-01   5.4379829e-01  -9.8186948e-02  -3.7519628e-02  -1.7240317e-01  -9.6446119e-01   4.1370267e-01   5.5288691e-02   7.2625797e-01  -3.6252298e-01  -3.1234699e-01   1.4667667e-01  -9.3173994e-01  -9.1609702e-01   4.8770889e-02  -8.9349390e-01  -1.4558306e-02   5.8396909e-01  -4.1287042e-01  -5.7091551e-02   2.7671141e-01  -3.3048003e-02  -6.7846448e-01   3.3112907e-01   2.3365996e-01  -2.7515701e-01   4.1678747e-01   8.3577687e-01   9.6911699e-01   8.0914335e-01  -8.3404696e-01   8.2970330e-01   8.7797451e-01  -8.3817708e-01  -9.6944220e-02   5.2468107e-01  -4.2620103e-01  -9.9978679e-01  -8.7930014e-01   8.5893402e-01  -1.9248447e-01  -1.5932765e-01  -4.6364531e-02  -5.0653202e-01  -2.1000353e-01  -7.7406073e-01   2.5922712e-02  -9.0631886e-01  -1.7146851e-01  -9.5323609e-01   7.3558364e-02   8.0956151e-01  -2.5639020e-01   8.6223782e-01  -8.8881013e-01   5.0013870e-01   9.0266590e-01   1.9887986e-01   9.5038967e-01  -5.9333084e-02   5.1458312e-01  -3.6233079e-02   4.2235779e-01   9.0421154e-01   4.8790650e-01  -9.7843113e-01  -5.8455440e-01  -2.6102728e-01  -1.3181015e-01  -6.4538024e-01  -5.3458895e-01  -7.5454641e-01   2.1919171e-01  -5.4953417e-01   2.0046342e-01   9.2044050e-01   2.9551374e-01   6.2395174e-01  -8.9621152e-01  -9.4201833e-01  -6.6199269e-01  -8.9184693e-01   5.2721213e-01  -5.9056051e-01   5.5720037e-02  -6.9764997e-01  -1.0714537e-01   3.7380696e-01  -1.0479737e-01  -6.0291842e-01   3.4983903e-01  -1.8143186e-02   4.6158210e-01  -2.5072597e-01   3.0252497e-01   9.9633704e-01  -1.9558944e-01  -4.9330787e-01  -3.5130233e-01   1.7554182e-01  -3.6911809e-01   4.1145621e-01  -8.2829019e-01   5.0893478e-01  -6.1242627e-01   5.4164120e-01  -1.6427309e-01   4.7310475e-01   9.0476073e-01   6.3171589e-01   4.8622499e-01   3.9523938e-01  -8.5433387e-01   3.3735616e-01   1.9832045e-01  -6.6942062e-01  -5.5783793e-01  -7.6543054e-01  -9.7181778e-01   1.0850922e-01   2.2785407e-01  -6.3579920e-01   6.7882590e-01  -3.9225599e-01  -4.0577130e-01   2.0496526e-01  -8.2645236e-01  -9.5048083e-02  -7.8249315e-01   7.0067123e-01  -6.4466364e-01   7.3532421e-01  -1.1194556e-01   3.8754314e-01   1.0366832e-01  -5.6592950e-01   3.5163969e-01  -1.2748953e-01   5.1112569e-01  -8.9903010e-01   3.6279025e-01  -4.8476096e-01   3.0523044e-01   8.6991203e-01   3.5489933e-01  -3.4942690e-01   5.5862669e-02   6.6778452e-01   4.2900333e-01  -7.3838270e-01   3.0625995e-01   2.0650646e-01  -8.9067789e-01  -7.1262938e-01  -2.9400388e-02   8.7666794e-01   6.0392501e-01   8.7645147e-01   4.0149715e-01   4.4524272e-01   7.6102349e-01  -2.7420945e-01  -7.5116145e-01   3.5344251e-01  -3.4818213e-01   8.7824124e-01   2.6119027e-01   1.3955229e-02  -2.5353023e-01  -9.3572674e-01  -9.0030748e-01   1.4290291e-01  -3.1978350e-01   5.6399249e-01   2.4664033e-01   4.5630327e-01   6.6305859e-01  -1.3247842e-01   2.1225614e-02   3.5816941e-01  -9.0942558e-03  -7.8635098e-01  -4.1434247e-01   4.6369737e-01  -3.3283918e-01   2.6988324e-01  -7.5564028e-01   2.3506945e-01   5.1449543e-01  -4.6586675e-01  -1.2763592e-01  -5.2745532e-01   8.7708318e-01  -5.2921463e-02  -4.5494636e-01  -7.8710078e-01  -5.2662164e-01   1.0871733e-01  -4.9371283e-01  -5.5273842e-01   2.0742265e-01  -7.0647150e-01   3.9443820e-01   2.4365396e-01  -9.9169502e-01   5.9462635e-01  -6.0871460e-01   5.6018404e-01  -4.3491221e-01   2.7582782e-02   8.3693700e-01   6.1531900e-01  -9.1048584e-01  -7.6008573e-01   7.8771521e-01  -4.5587516e-01  -8.0529142e-01  -7.6940179e-01  -2.5774463e-01  -1.7871959e-01  -4.0332480e-01   3.0027776e-01  -8.7380336e-02  -8.8603838e-01   4.3142703e-01   5.7862765e-01   9.3358628e-01   6.7897386e-01   9.1160566e-01  -1.8916712e-01  -3.2428847e-01  -7.8393034e-01   4.8890456e-01  -2.6988872e-01  -1.7923468e-01  -4.3665562e-01  -1.8709367e-01   9.1775289e-01   6.9922814e-01   1.1655012e-01  -3.9362331e-01  -4.9955100e-02  -4.8822599e-01   1.0516768e-01  -1.7525700e-01  -1.1326744e-01   8.4110241e-01  -5.1685852e-01  -5.1093323e-01  -2.7954271e-01  -1.3753850e-01  -1.3077457e-01  -6.5649500e-01  -2.6882592e-02   9.6849801e-01  -9.6360831e-02   8.8704451e-01   3.7979296e-01  -8.2834154e-01   9.5837939e-01   4.8629252e-01   1.0942766e-01  -3.5143629e-01   5.9009932e-01  -3.6469230e-01   8.9569451e-01   8.5341010e-01  -9.6163184e-01  -4.9004415e-01   8.9205714e-02   7.7278374e-01   1.4931414e-01   2.2186611e-01   2.3657990e-02  -7.7533117e-01   4.1951025e-01   8.2938778e-01   2.0838292e-01   3.9346952e-01   4.5417623e-01  -7.5468197e-02  -2.6513949e-01   6.9025757e-01   8.9507113e-01  -7.7268715e-01  -4.4040752e-01  -9.4312795e-01   2.2425014e-01   4.2222569e-01   8.0892009e-01  -6.1102002e-01  -8.4787628e-01  -4.7300887e-03   2.4575992e-01   5.9177783e-01   9.3012604e-01   3.6636361e-01   1.3834459e-02  -2.5130541e-01  -3.0105430e-01  -2.6304166e-01   3.1818494e-01  -7.9470103e-01   9.8468661e-04   4.8432833e-01   3.9521459e-02  -5.9006508e-01  -8.9765758e-01  -6.0835688e-01  -6.8444326e-01   8.2298393e-01   2.7103533e-01  -8.5552484e-01   6.7864308e-01  -9.5293964e-01  -1.8504599e-01  -2.7964058e-01  -1.2451435e-01   8.0171173e-01   8.3790898e-01  -7.7640731e-02   2.5996351e-01  -6.9390749e-01   8.5629148e-01   8.3997688e-01  -5.6467922e-01   2.7781603e-01  -8.9780035e-01   3.3698583e-01  -2.1428550e-01   8.9528745e-01   5.6482992e-01   7.9483981e-01   8.3264499e-01  -3.1020771e-01   1.0800930e-01   8.4696727e-01   7.1233927e-01  -2.3797971e-02  -4.2351775e-01   7.6013087e-01   4.2942785e-01  -1.4992275e-02   3.7135298e-01  -5.0080463e-01   3.6587560e-01   8.7932901e-01   5.5870264e-01  -2.1349578e-01   6.6250596e-01  -4.8865063e-01   5.7225457e-01  -5.5308287e-01  -2.7160635e-01   8.4594772e-01  -1.0828137e-01   4.6292441e-01   5.1388342e-01  -3.6146336e-01  -9.1889689e-01   5.1516006e-01   2.4077887e-01   6.7450318e-01   2.0817450e-01   4.6649060e-01  -5.0434113e-01  -1.9374788e-01  -4.9066033e-01  -2.5756464e-01  -4.4423118e-01  -7.9631615e-01  -9.8091805e-01   6.8943519e-01   1.1705259e-01   7.1356332e-01  -1.1063844e-03   7.0359864e-01  -1.5246342e-01  -8.1730310e-01   9.7914966e-01   7.0860141e-01  -3.2756723e-01   5.8506078e-01  -1.3098228e-02   8.8200343e-01  -3.9054347e-01   6.4498753e-01  -1.1257649e-01   7.6183168e-01  -8.9062843e-01  -3.0304526e-02  -4.7215296e-01   4.2412154e-01  -1.9843202e-01  -8.8014500e-02  -4.4437770e-01  -2.1597391e-01   6.5646910e-01   5.1308995e-01  -6.9560846e-01  -1.9794787e-01  -1.7974375e-01  -4.7927786e-01  -6.2308160e-02  -9.1002155e-01  -1.8539971e-01   8.1928368e-01  -8.4172996e-01  -9.5991416e-01   3.3796731e-01   8.2135407e-01  -3.2991121e-01   3.3265120e-01   9.9593328e-01  -5.2198524e-02   1.5453118e-01  -5.3840584e-01  -8.7117286e-01  -2.7075703e-01   3.0232530e-01   4.8895562e-01   5.4674565e-01   1.6333001e-01   1.6442771e-01  -6.1329915e-01  -3.5051522e-02   4.0777780e-01  -4.2360750e-01   3.3362241e-01  -5.0703871e-02  -5.9708484e-01  -2.9693303e-01   5.8393945e-01   4.4086041e-01   1.1423187e-01  -7.8314501e-01  -5.9623280e-01   8.8439951e-01   3.2625353e-01  -2.2769844e-01   8.0666251e-01  -8.9550339e-01   3.4809191e-01   9.6045032e-01   1.3473745e-01  -7.2350171e-01  -2.2295199e-01   7.5229504e-01  -7.9910406e-01  -3.1107617e-01   2.2683289e-01
